[Header]
Application Name	LabSolutions
Version	5.110
Data File Name	C:\Users\User\Desktop\GC Analyses\Jack\Nachusa Grasslands Sampling\T0 Timepoint July 12th\T0_07122022_087.gcd
Output Date	3/14/2023
Output Time	3:40:39 PM

[File Information]
Type	Data File
Generated	3/7/2023 11:31:07 PM
Generated by	System Administrator
Modified	3/7/2023 11:37:44 PM
Modified by	System Administrator

[Sample Information]
Operator Name	System Administrator
Acquired	3/7/2023 11:33:43 PM
Sample Type	0:Unknown
Level	0
Sample Name	087
Sample ID	087
ISTD Amount1	1
ISTD Amount2	1
ISTD Amount3	1
ISTD Amount4	1
ISTD Amount5	1
ISTD Amount6	1
ISTD Amount7	1
ISTD Amount8	1
ISTD Amount9	1
ISTD Amount10	1
ISTD Amount11	1
ISTD Amount12	1
ISTD Amount13	1
ISTD Amount14	1
ISTD Amount15	1
ISTD Amount16	1
ISTD Amount17	1
ISTD Amount18	1
ISTD Amount19	1
ISTD Amount20	1
ISTD Amount21	1
ISTD Amount22	1
ISTD Amount23	1
ISTD Amount24	1
ISTD Amount25	1
ISTD Amount26	1
ISTD Amount27	1
ISTD Amount28	1
ISTD Amount29	1
ISTD Amount30	1
ISTD Amount31	1
ISTD Amount32	1
Sample Amount	1
Dilution Factor	1
Vial#	86
Injection Volume	1
Injection Count	1
Bar Code	

[Original Files]
Data File	C:\Users\User\Desktop\GC Analyses\Jack\Nachusa Grasslands Sampling\T0 Timepoint July 12th\T0_07122022_087.gcd
Method File	C:\LabSolutions\Data\GHG_4min_2022\ghg3_togas_w_acet_4 min_new_int.gcm
Batch File	C:\LabSolutions\Data\AutoSamplerTesting\T0_07122022.gcb
Report Format File	c:\LabSolutions\System\DEFAULT.lsr

[File Description]


[Configuration]
Instrument Name	C0B7VH3-Instrument1
Instrument #	1
Line #	1
# of Detectors	3
Detector ID	DET#1	DET#2	DET#3
Detector Name	FID	PTCD	ECD
# of Channels	1	1	1

[Peak Table(Ch1)]
# of Peaks	4
Peak#	R.Time	I.Time	F.Time	Area	Height	A/H	Conc.	Mark	ID#	Name	k'	Plate #	Plate Ht.	Tailing	Resolution	Sep.Factor	Area Ratio	Height Ratio	Conc. %	Norm Conc.
1	0.346	0.225	0.453	1001	135	7.420	0.000	   			0.000	52	2906.846	0.921	0.000	0.000	0	0	0.000	0.000
2	1.476	1.435	1.538	31653	14915	2.122	223.473	   	1	CO	3.261	9353	16.037	1.325	8.896	0.000	0	0	36.385	36.385
3	1.567	1.538	1.637	5180	2455	2.110	100.163	 V 	2	CH4	3.526	10181	14.733	0.000	1.488	1.081	0	0	16.308	16.308
4	1.996	1.938	2.513	1157702	544569	2.126	290.552	   	3	CO2	4.764	17250	8.696	1.310	6.979	1.351	0	0	47.307	47.307

[Peak Table(Ch2)]
# of Peaks	0

[Peak Table(Ch3)]
# of Peaks	6
Peak#	R.Time	I.Time	F.Time	Area	Height	A/H	Conc.	Mark	ID#	Name	k'	Plate #	Plate Ht.	Tailing	Resolution	Sep.Factor	Area Ratio	Height Ratio	Conc. %	Norm Conc.
1	2.458	2.312	2.521	1775	475	3.734	0.000	   			0.000	16675	8.996	0.000	0.000	0.000	0	0	0.000	0.000
2	2.546	2.521	2.627	716	171	4.192	0.000	 V 			0.036	4245	35.338	0.000	0.757	0.000	0	0	0.000	0.000
3	2.711	2.642	2.737	511	122	4.190	0.000	   			0.103	0	0.000	0.000	0.000	2.875	0	0	0.000	0.000
4	2.873	2.737	3.107	21631	5015	4.313	0.552	 V 	1	N2O	0.169	12787	11.731	1.931	0.000	1.638	0	0	100.000	100.000
5	3.192	3.111	3.313	6668	664	10.043	0.000	   	2	SF6	0.298	160	937.047	0.000	0.574	1.770	0	0	0.000	0.000
6	3.368	3.313	3.822	8702	603	14.442	0.000	 V 	2	SF6	0.370	103	1453.962	0.000	0.151	1.240	0	0	0.000	0.000

[Compound Results(Ch1)]
# of IDs	6
ID#	Name	R.Time	Area	Height	Conc.	Curve	3rd	2nd	1st	Constant	Area Ratio	Height Ratio	Conc. %	Norm Conc.
1	CO	1.476	31653	14915	223.473	Linear	0.000000e+00	0.000000e+00	1.416423e+002	0.000000e+00	0	0	36.385	36.385
2	CH4	1.567	5180	2455	100.163	Linear	0.000000e+00	0.000000e+00	5.171738e+001	0.000000e+00	0	0	16.308	16.308
3	CO2	1.996	1157702	544569	290.552	Linear	0.000000e+00	0.000000e+00	3.984494e+003	0.000000e+00	0	0	47.307	47.307
4	Ethylene	0.000	0	0	0.000	Linear	0.000000e+00	0.000000e+00	0.000000e+00	0.000000e+00	0	0	0.000	0.000
5	Acetylene	0.000	0	0	0.000	Linear	0.000000e+00	0.000000e+00	0.000000e+00	0.000000e+00	0	0	0.000	0.000
6	Ethane	0.000	0	0	0.000	Linear	0.000000e+00	0.000000e+00	0.000000e+00	0.000000e+00	0	0	0.000	0.000

[Compound Results(Ch2)]
# of IDs	5
ID#	Name	R.Time	Area	Height	Conc.	Curve	3rd	2nd	1st	Constant	Area Ratio	Height Ratio	Conc. %	Norm Conc.
1	Hydrogen	0.000	0	0	0.000	Linear	0.000000e+00	0.000000e+00	0.000000e+00	0.000000e+00	0	0	0.000	0.000
2	Oxygen	0.000	0	0	0.000	Linear	0.000000e+00	0.000000e+00	0.000000e+00	0.000000e+00	0	0	0.000	0.000
3	Nitrogen	0.000	0	0	0.000	Linear	0.000000e+00	0.000000e+00	0.000000e+00	0.000000e+00	0	0	0.000	0.000
4	Methane	0.000	0	0	0.000	Linear	0.000000e+00	0.000000e+00	0.000000e+00	0.000000e+00	0	0	0.000	0.000
5	Carbon Monoxide	0.000	0	0	0.000	Linear	0.000000e+00	0.000000e+00	0.000000e+00	0.000000e+00	0	0	0.000	0.000

[Compound Results(Ch3)]
# of IDs	2
ID#	Name	R.Time	Area	Height	Conc.	Curve	3rd	2nd	1st	Constant	Area Ratio	Height Ratio	Conc. %	Norm Conc.
1	N2O	2.873	21631	5015	0.552	Linear	0.000000e+00	0.000000e+00	3.915173e+004	0.000000e+00	0	0	100.000	100.000
2	SF6	3.192	15370	1266	0.000	Linear	0.000000e+00	0.000000e+00	0.000000e+00	0.000000e+00	0	0	0.000	0.000

[Group Results(Ch1)]
# of Groups	0

[Group Results(Ch2)]
# of Groups	0

[Group Results(Ch3)]
# of Groups	0

[Chromatogram (Ch1)]
Interval(msec)	220
# of Points	1091
Start Time(min)	0.002
End Time(min)	3.998
R.Time (min)	Intensity
0.00167	-11
0.00533	-7
0.00900	-6
0.01267	-9
0.01633	-10
0.02000	-9
0.02367	-6
0.02733	0
0.03100	5
0.03467	5
0.03833	-1
0.04200	-5
0.04567	-9
0.04933	-15
0.05300	-18
0.05667	-14
0.06033	-13
0.06400	-12
0.06767	-11
0.07133	-10
0.07500	-10
0.07867	-8
0.08233	-2
0.08600	7
0.08967	16
0.09333	23
0.09700	22
0.10067	14
0.10433	5
0.10800	-1
0.11167	-4
0.11533	-7
0.11900	-9
0.12267	-12
0.12633	-17
0.13000	-22
0.13367	-24
0.13733	-24
0.14100	-20
0.14467	-13
0.14833	-8
0.15200	-6
0.15567	-6
0.15933	-5
0.16300	-5
0.16667	-3
0.17033	6
0.17400	18
0.17767	26
0.18133	28
0.18500	25
0.18867	17
0.19233	4
0.19600	-11
0.19967	-19
0.20333	-22
0.20700	-24
0.21067	-24
0.21433	-23
0.21800	-20
0.22167	-13
0.22533	-1
0.22900	13
0.23267	24
0.23633	29
0.24000	28
0.24367	26
0.24733	27
0.25100	30
0.25467	35
0.25833	43
0.26200	51
0.26567	53
0.26933	52
0.27300	56
0.27667	61
0.28033	67
0.28400	72
0.28767	76
0.29133	80
0.29500	87
0.29867	94
0.30233	101
0.30600	109
0.30967	114
0.31333	117
0.31700	116
0.32067	115
0.32433	117
0.32800	123
0.33167	129
0.33533	132
0.33900	133
0.34267	136
0.34633	138
0.35000	136
0.35367	130
0.35733	122
0.36100	115
0.36467	110
0.36833	107
0.37200	107
0.37567	109
0.37933	111
0.38300	111
0.38667	112
0.39033	108
0.39400	97
0.39767	85
0.40133	75
0.40500	71
0.40867	67
0.41233	59
0.41600	53
0.41967	50
0.42333	48
0.42700	41
0.43067	32
0.43433	24
0.43800	21
0.44167	19
0.44533	15
0.44900	11
0.45267	7
0.45633	1
0.46000	-5
0.46367	-9
0.46733	-8
0.47100	-2
0.47467	6
0.47833	19
0.48200	29
0.48567	28
0.48933	22
0.49300	17
0.49667	14
0.50033	11
0.50400	5
0.50767	-3
0.51133	-11
0.51500	-16
0.51867	-19
0.52233	-22
0.52600	-22
0.52967	-19
0.53333	-16
0.53700	-11
0.54067	-8
0.54433	-7
0.54800	-9
0.55167	-19
0.55533	-32
0.55900	-41
0.56267	-42
0.56633	-38
0.57000	-27
0.57367	-15
0.57733	-4
0.58100	3
0.58467	5
0.58833	2
0.59200	-2
0.59567	-3
0.59933	-1
0.60300	0
0.60667	-2
0.61033	-6
0.61400	-10
0.61767	-12
0.62133	-13
0.62500	-11
0.62867	-6
0.63233	-3
0.63600	-1
0.63967	-1
0.64333	-6
0.64700	-15
0.65067	-25
0.65433	-34
0.65800	-37
0.66167	-34
0.66533	-27
0.66900	-21
0.67267	-17
0.67633	-15
0.68000	-10
0.68367	-2
0.68733	2
0.69100	1
0.69467	0
0.69833	4
0.70200	7
0.70567	4
0.70933	-4
0.71300	-9
0.71667	-9
0.72033	-5
0.72400	-5
0.72767	-11
0.73133	-17
0.73500	-17
0.73867	-15
0.74233	-9
0.74600	-4
0.74967	-2
0.75333	-2
0.75700	-3
0.76067	-4
0.76433	-7
0.76800	-12
0.77167	-16
0.77533	-17
0.77900	-14
0.78267	-11
0.78633	-12
0.79000	-14
0.79367	-18
0.79733	-21
0.80100	-22
0.80467	-20
0.80833	-12
0.81200	-5
0.81567	-1
0.81933	5
0.82300	14
0.82667	26
0.83033	37
0.83400	43
0.83767	42
0.84133	33
0.84500	21
0.84867	13
0.85233	9
0.85600	5
0.85967	0
0.86333	-7
0.86700	-14
0.87067	-17
0.87433	-14
0.87800	-9
0.88167	-4
0.88533	1
0.88900	5
0.89267	11
0.89633	22
0.90000	29
0.90367	28
0.90733	21
0.91100	14
0.91467	14
0.91833	18
0.92200	20
0.92567	21
0.92933	23
0.93300	26
0.93667	29
0.94033	30
0.94400	29
0.94767	27
0.95133	23
0.95500	18
0.95867	16
0.96233	16
0.96600	16
0.96967	16
0.97333	16
0.97700	16
0.98067	20
0.98433	26
0.98800	30
0.99167	30
0.99533	28
0.99900	25
1.00267	18
1.00633	11
1.01000	6
1.01367	3
1.01733	2
1.02100	2
1.02467	2
1.02833	3
1.03200	-0
1.03567	-2
1.03933	-3
1.04300	-1
1.04667	4
1.05033	8
1.05400	12
1.05767	16
1.06133	19
1.06500	23
1.06867	24
1.07233	21
1.07600	20
1.07967	25
1.08333	30
1.08700	33
1.09067	33
1.09433	31
1.09800	23
1.10167	10
1.10533	-2
1.10900	-10
1.11267	-15
1.11633	-14
1.12000	-8
1.12367	-1
1.12733	5
1.13100	11
1.13467	13
1.13833	8
1.14200	-0
1.14567	-7
1.14933	-11
1.15300	-13
1.15667	-13
1.16033	-14
1.16400	-15
1.16767	-11
1.17133	-4
1.17500	6
1.17867	13
1.18233	16
1.18600	14
1.18967	7
1.19333	1
1.19700	-1
1.20067	-2
1.20433	-2
1.20800	-1
1.21167	5
1.21533	14
1.21900	22
1.22267	25
1.22633	25
1.23000	17
1.23367	4
1.23733	-8
1.24100	-14
1.24467	-14
1.24833	-11
1.25200	-11
1.25567	-11
1.25933	-11
1.26300	-11
1.26667	-12
1.27033	-13
1.27400	-9
1.27767	-4
1.28133	-1
1.28500	-2
1.28867	-3
1.29233	-5
1.29600	-8
1.29967	-11
1.30333	-15
1.30700	-14
1.31067	-9
1.31433	-4
1.31800	0
1.32167	6
1.32533	14
1.32900	20
1.33267	17
1.33633	6
1.34000	-5
1.34367	-16
1.34733	-24
1.35100	-30
1.35467	-32
1.35833	-32
1.36200	-30
1.36567	-26
1.36933	-20
1.37300	-14
1.37667	-9
1.38033	-7
1.38400	-7
1.38767	-11
1.39133	-20
1.39500	-31
1.39867	-38
1.40233	-41
1.40600	-41
1.40967	-38
1.41333	-32
1.41700	-24
1.42067	-19
1.42433	-19
1.42800	-22
1.43167	-21
1.43533	-15
1.43900	12
1.44267	113
1.44633	365
1.45000	987
1.45367	2430
1.45733	4823
1.46100	7696
1.46467	10436
1.46833	12661
1.47200	14195
1.47567	14905
1.47933	14664
1.48300	13466
1.48667	11541
1.49033	9293
1.49400	7118
1.49767	5265
1.50133	3815
1.50500	2736
1.50867	1959
1.51233	1416
1.51600	1039
1.51967	781
1.52333	601
1.52700	471
1.53067	377
1.53433	313
1.53800	284
1.54167	325
1.54533	502
1.54900	838
1.55267	1277
1.55633	1714
1.56000	2074
1.56367	2327
1.56733	2453
1.57100	2422
1.57467	2221
1.57833	1885
1.58200	1489
1.58567	1110
1.58933	798
1.59300	567
1.59667	402
1.60033	283
1.60400	199
1.60767	143
1.61133	107
1.61500	85
1.61867	69
1.62233	53
1.62600	37
1.62967	25
1.63333	14
1.63700	6
1.64067	1
1.64433	0
1.64800	2
1.65167	6
1.65533	12
1.65900	16
1.66267	20
1.66633	25
1.67000	27
1.67367	26
1.67733	27
1.68100	33
1.68467	36
1.68833	34
1.69200	25
1.69567	13
1.69933	5
1.70300	-0
1.70667	-7
1.71033	-11
1.71400	-11
1.71767	-9
1.72133	-9
1.72500	-10
1.72867	-8
1.73233	-3
1.73600	1
1.73967	6
1.74333	12
1.74700	11
1.75067	10
1.75433	12
1.75800	13
1.76167	13
1.76533	9
1.76900	0
1.77267	-5
1.77633	-7
1.78000	-7
1.78367	-9
1.78733	-11
1.79100	-11
1.79467	-9
1.79833	-10
1.80200	-11
1.80567	-10
1.80933	-9
1.81300	-10
1.81667	-9
1.82033	-5
1.82400	-1
1.82767	0
1.83133	1
1.83500	1
1.83867	2
1.84233	6
1.84600	11
1.84967	15
1.85333	17
1.85700	18
1.86067	19
1.86433	19
1.86800	16
1.87167	13
1.87533	12
1.87900	13
1.88267	17
1.88633	24
1.89000	27
1.89367	30
1.89733	35
1.90100	38
1.90467	33
1.90833	25
1.91200	20
1.91567	18
1.91933	15
1.92300	10
1.92667	7
1.93033	7
1.93400	9
1.93767	15
1.94133	24
1.94500	33
1.94867	41
1.95233	61
1.95600	165
1.95967	728
1.96333	3217
1.96700	11709
1.97067	33939
1.97433	79258
1.97800	152341
1.98167	247575
1.98533	350004
1.98900	442369
1.99267	510528
1.99633	544625
2.00000	540030
2.00367	499001
2.00733	431125
2.01100	350343
2.01467	270160
2.01833	199894
2.02200	143609
2.02567	101339
2.02933	70996
2.03300	49873
2.03667	35436
2.04033	25660
2.04400	19050
2.04767	14559
2.05133	11475
2.05500	9320
2.05867	7776
2.06233	6642
2.06600	5789
2.06967	5131
2.07333	4609
2.07700	4186
2.08067	3835
2.08433	3538
2.08800	3282
2.09167	3060
2.09533	2872
2.09900	2711
2.10267	2567
2.10633	2438
2.11000	2320
2.11367	2212
2.11733	2107
2.12100	2010
2.12467	1925
2.12833	1847
2.13200	1777
2.13567	1710
2.13933	1648
2.14300	1589
2.14667	1536
2.15033	1487
2.15400	1444
2.15767	1406
2.16133	1366
2.16500	1325
2.16867	1287
2.17233	1250
2.17600	1215
2.17967	1184
2.18333	1153
2.18700	1123
2.19067	1090
2.19433	1059
2.19800	1029
2.20167	1001
2.20533	977
2.20900	959
2.21267	946
2.21633	935
2.22000	925
2.22367	910
2.22733	888
2.23100	861
2.23467	831
2.23833	802
2.24200	782
2.24567	772
2.24933	759
2.25300	745
2.25667	729
2.26033	716
2.26400	704
2.26767	694
2.27133	688
2.27500	681
2.27867	675
2.28233	668
2.28600	661
2.28967	658
2.29333	653
2.29700	651
2.30067	652
2.30433	649
2.30800	642
2.31167	630
2.31533	615
2.31900	605
2.32267	599
2.32633	592
2.33000	587
2.33367	585
2.33733	583
2.34100	579
2.34467	574
2.34833	566
2.35200	555
2.35567	542
2.35933	530
2.36300	517
2.36667	509
2.37033	506
2.37400	502
2.37767	500
2.38133	500
2.38500	502
2.38867	506
2.39233	506
2.39600	498
2.39967	489
2.40333	485
2.40700	486
2.41067	488
2.41433	489
2.41800	491
2.42167	496
2.42533	499
2.42900	495
2.43267	486
2.43633	476
2.44000	470
2.44367	467
2.44733	469
2.45100	471
2.45467	468
2.45833	458
2.46200	447
2.46567	440
2.46933	435
2.47300	435
2.47667	441
2.48033	451
2.48400	458
2.48767	456
2.49133	453
2.49500	450
2.49867	439
2.50233	424
2.50600	415
2.50967	414
2.51333	414
2.51700	414
2.52067	416
2.52433	417
2.52800	416
2.53167	416
2.53533	417
2.53900	421
2.54267	425
2.54633	426
2.55000	425
2.55367	424
2.55733	422
2.56100	421
2.56467	417
2.56833	410
2.57200	406
2.57567	408
2.57933	413
2.58300	416
2.58667	416
2.59033	411
2.59400	407
2.59767	407
2.60133	404
2.60500	401
2.60867	400
2.61233	397
2.61600	395
2.61967	392
2.62333	395
2.62700	402
2.63067	407
2.63433	408
2.63800	409
2.64167	407
2.64533	405
2.64900	406
2.65267	410
2.65633	413
2.66000	413
2.66367	411
2.66733	407
2.67100	408
2.67467	410
2.67833	414
2.68200	420
2.68567	424
2.68933	420
2.69300	410
2.69667	404
2.70033	400
2.70400	398
2.70767	398
2.71133	397
2.71500	393
2.71867	389
2.72233	389
2.72600	393
2.72967	399
2.73333	402
2.73700	403
2.74067	404
2.74433	405
2.74800	406
2.75167	406
2.75533	403
2.75900	400
2.76267	394
2.76633	390
2.77000	384
2.77367	380
2.77733	379
2.78100	382
2.78467	389
2.78833	395
2.79200	398
2.79567	401
2.79933	408
2.80300	413
2.80667	413
2.81033	411
2.81400	406
2.81767	400
2.82133	397
2.82500	399
2.82867	402
2.83233	402
2.83600	404
2.83967	406
2.84333	409
2.84700	411
2.85067	412
2.85433	414
2.85800	418
2.86167	421
2.86533	424
2.86900	426
2.87267	430
2.87633	435
2.88000	440
2.88367	441
2.88733	436
2.89100	429
2.89467	422
2.89833	418
2.90200	417
2.90567	421
2.90933	426
2.91300	429
2.91667	430
2.92033	431
2.92400	429
2.92767	422
2.93133	413
2.93500	411
2.93867	415
2.94233	420
2.94600	418
2.94967	413
2.95333	411
2.95700	413
2.96067	422
2.96433	434
2.96800	448
2.97167	456
2.97533	456
2.97900	451
2.98267	443
2.98633	434
2.99000	426
2.99367	420
2.99733	417
3.00100	415
3.00467	415
3.00833	417
3.01200	419
3.01567	420
3.01933	422
3.02300	425
3.02667	427
3.03033	425
3.03400	421
3.03767	417
3.04133	415
3.04500	413
3.04867	413
3.05233	414
3.05600	416
3.05967	419
3.06333	421
3.06700	421
3.07067	422
3.07433	423
3.07800	422
3.08167	417
3.08533	414
3.08900	411
3.09267	409
3.09633	409
3.10000	408
3.10367	404
3.10733	402
3.11100	403
3.11467	406
3.11833	411
3.12200	414
3.12567	416
3.12933	416
3.13300	416
3.13667	415
3.14033	415
3.14400	414
3.14767	412
3.15133	412
3.15500	413
3.15867	415
3.16233	417
3.16600	421
3.16967	422
3.17333	422
3.17700	423
3.18067	421
3.18433	415
3.18800	409
3.19167	400
3.19533	395
3.19900	396
3.20267	400
3.20633	405
3.21000	406
3.21367	403
3.21733	403
3.22100	406
3.22467	412
3.22833	414
3.23200	412
3.23567	410
3.23933	409
3.24300	410
3.24667	411
3.25033	410
3.25400	405
3.25767	398
3.26133	393
3.26500	389
3.26867	387
3.27233	388
3.27600	390
3.27967	398
3.28333	406
3.28700	409
3.29067	411
3.29433	414
3.29800	416
3.30167	415
3.30533	412
3.30900	409
3.31267	404
3.31633	395
3.32000	388
3.32367	384
3.32733	386
3.33100	394
3.33467	410
3.33833	428
3.34200	441
3.34567	448
3.34933	446
3.35300	432
3.35667	412
3.36033	390
3.36400	369
3.36767	354
3.37133	348
3.37500	352
3.37867	359
3.38233	364
3.38600	369
3.38967	374
3.39333	376
3.39700	374
3.40067	373
3.40433	374
3.40800	370
3.41167	367
3.41533	367
3.41900	371
3.42267	374
3.42633	374
3.43000	374
3.43367	376
3.43733	379
3.44100	381
3.44467	386
3.44833	390
3.45200	393
3.45567	394
3.45933	389
3.46300	384
3.46667	382
3.47033	383
3.47400	383
3.47767	384
3.48133	387
3.48500	391
3.48867	395
3.49233	393
3.49600	388
3.49967	378
3.50333	370
3.50700	365
3.51067	362
3.51433	361
3.51800	362
3.52167	364
3.52533	362
3.52900	359
3.53267	359
3.53633	361
3.54000	366
3.54367	371
3.54733	370
3.55100	367
3.55467	363
3.55833	361
3.56200	360
3.56567	359
3.56933	358
3.57300	356
3.57667	356
3.58033	358
3.58400	364
3.58767	369
3.59133	370
3.59500	373
3.59867	378
3.60233	379
3.60600	375
3.60967	366
3.61333	357
3.61700	352
3.62067	350
3.62433	352
3.62800	356
3.63167	360
3.63533	360
3.63900	355
3.64267	350
3.64633	350
3.65000	349
3.65367	343
3.65733	336
3.66100	332
3.66467	330
3.66833	328
3.67200	329
3.67567	333
3.67933	337
3.68300	341
3.68667	343
3.69033	340
3.69400	335
3.69767	328
3.70133	324
3.70500	321
3.70867	322
3.71233	325
3.71600	328
3.71967	331
3.72333	330
3.72700	327
3.73067	323
3.73433	321
3.73800	324
3.74167	328
3.74533	330
3.74900	331
3.75267	331
3.75633	330
3.76000	330
3.76367	330
3.76733	334
3.77100	338
3.77467	343
3.77833	344
3.78200	342
3.78567	339
3.78933	339
3.79300	339
3.79667	341
3.80033	339
3.80400	331
3.80767	320
3.81133	311
3.81500	306
3.81867	307
3.82233	312
3.82600	319
3.82967	321
3.83333	320
3.83700	318
3.84067	319
3.84433	322
3.84800	326
3.85167	329
3.85533	330
3.85900	330
3.86267	333
3.86633	341
3.87000	353
3.87367	360
3.87733	354
3.88100	336
3.88467	312
3.88833	290
3.89200	277
3.89567	273
3.89933	277
3.90300	287
3.90667	297
3.91033	301
3.91400	297
3.91767	289
3.92133	285
3.92500	284
3.92867	286
3.93233	291
3.93600	294
3.93967	295
3.94333	296
3.94700	296
3.95067	294
3.95433	292
3.95800	292
3.96167	295
3.96533	297
3.96900	296
3.97267	292
3.97633	288
3.98000	287
3.98367	288
3.98733	286
3.99100	283
3.99467	284
3.99833	288

[Chromatogram (Ch2)]
Interval(msec)	220
# of Points	1091
Start Time(min)	0.002
End Time(min)	3.998
R.Time (min)	Intensity
0.00167	-0
0.00533	-0
0.00900	-1
0.01267	-1
0.01633	-0
0.02000	-0
0.02367	0
0.02733	0
0.03100	0
0.03467	0
0.03833	1
0.04200	0
0.04567	0
0.04933	0
0.05300	0
0.05667	0
0.06033	0
0.06400	0
0.06767	1
0.07133	1
0.07500	1
0.07867	1
0.08233	1
0.08600	1
0.08967	1
0.09333	1
0.09700	1
0.10067	2
0.10433	2
0.10800	2
0.11167	2
0.11533	2
0.11900	1
0.12267	1
0.12633	1
0.13000	2
0.13367	2
0.13733	2
0.14100	2
0.14467	2
0.14833	2
0.15200	2
0.15567	3
0.15933	3
0.16300	3
0.16667	2
0.17033	2
0.17400	2
0.17767	2
0.18133	1
0.18500	0
0.18867	-0
0.19233	-1
0.19600	-2
0.19967	-2
0.20333	-2
0.20700	-2
0.21067	-2
0.21433	-2
0.21800	-2
0.22167	-1
0.22533	-1
0.22900	-1
0.23267	-1
0.23633	-1
0.24000	-1
0.24367	-1
0.24733	-0
0.25100	-0
0.25467	0
0.25833	1
0.26200	1
0.26567	1
0.26933	2
0.27300	2
0.27667	2
0.28033	2
0.28400	1
0.28767	1
0.29133	1
0.29500	1
0.29867	1
0.30233	0
0.30600	-0
0.30967	-0
0.31333	-1
0.31700	-1
0.32067	-1
0.32433	-1
0.32800	-1
0.33167	-1
0.33533	-1
0.33900	-1
0.34267	-1
0.34633	-2
0.35000	-2
0.35367	-2
0.35733	-2
0.36100	-2
0.36467	-2
0.36833	-2
0.37200	-2
0.37567	-2
0.37933	-2
0.38300	-1
0.38667	-1
0.39033	-0
0.39400	0
0.39767	0
0.40133	1
0.40500	1
0.40867	1
0.41233	1
0.41600	1
0.41967	1
0.42333	2
0.42700	2
0.43067	2
0.43433	2
0.43800	2
0.44167	2
0.44533	2
0.44900	2
0.45267	2
0.45633	1
0.46000	1
0.46367	1
0.46733	1
0.47100	1
0.47467	1
0.47833	1
0.48200	1
0.48567	1
0.48933	1
0.49300	1
0.49667	0
0.50033	0
0.50400	-0
0.50767	-0
0.51133	-1
0.51500	-1
0.51867	-1
0.52233	-1
0.52600	-1
0.52967	-1
0.53333	-1
0.53700	-1
0.54067	-1
0.54433	-1
0.54800	-1
0.55167	-1
0.55533	-1
0.55900	-1
0.56267	-2
0.56633	-2
0.57000	-2
0.57367	-2
0.57733	-3
0.58100	-3
0.58467	-3
0.58833	-3
0.59200	-3
0.59567	-3
0.59933	-3
0.60300	-3
0.60667	-3
0.61033	-3
0.61400	-3
0.61767	-3
0.62133	-2
0.62500	-2
0.62867	-1
0.63233	0
0.63600	1
0.63967	1
0.64333	2
0.64700	2
0.65067	2
0.65433	3
0.65800	3
0.66167	3
0.66533	3
0.66900	3
0.67267	3
0.67633	3
0.68000	2
0.68367	2
0.68733	2
0.69100	2
0.69467	2
0.69833	2
0.70200	1
0.70567	1
0.70933	1
0.71300	0
0.71667	-0
0.72033	-0
0.72400	-1
0.72767	-1
0.73133	-1
0.73500	-1
0.73867	-2
0.74233	-2
0.74600	-2
0.74967	-2
0.75333	-2
0.75700	-1
0.76067	-1
0.76433	-1
0.76800	-1
0.77167	-1
0.77533	-0
0.77900	-0
0.78267	0
0.78633	0
0.79000	0
0.79367	1
0.79733	1
0.80100	1
0.80467	1
0.80833	1
0.81200	1
0.81567	1
0.81933	0
0.82300	0
0.82667	-0
0.83033	-1
0.83400	-1
0.83767	-2
0.84133	-2
0.84500	-2
0.84867	-2
0.85233	-2
0.85600	-2
0.85967	-2
0.86333	-3
0.86700	-3
0.87067	-3
0.87433	-3
0.87800	-3
0.88167	-3
0.88533	-3
0.88900	-3
0.89267	-2
0.89633	-2
0.90000	-1
0.90367	-1
0.90733	-0
0.91100	0
0.91467	1
0.91833	1
0.92200	1
0.92567	2
0.92933	2
0.93300	2
0.93667	2
0.94033	2
0.94400	2
0.94767	2
0.95133	2
0.95500	2
0.95867	2
0.96233	2
0.96600	2
0.96967	2
0.97333	2
0.97700	2
0.98067	2
0.98433	1
0.98800	1
0.99167	1
0.99533	1
0.99900	2
1.00267	2
1.00633	2
1.01000	1
1.01367	1
1.01733	1
1.02100	1
1.02467	0
1.02833	-0
1.03200	-1
1.03567	-1
1.03933	-2
1.04300	-2
1.04667	-3
1.05033	-3
1.05400	-3
1.05767	-3
1.06133	-4
1.06500	-4
1.06867	-4
1.07233	-4
1.07600	-4
1.07967	-4
1.08333	-4
1.08700	-3
1.09067	-3
1.09433	-3
1.09800	-2
1.10167	-2
1.10533	-1
1.10900	-1
1.11267	-1
1.11633	-0
1.12000	-0
1.12367	-0
1.12733	-0
1.13100	-0
1.13467	-0
1.13833	-0
1.14200	-0
1.14567	-1
1.14933	-1
1.15300	-1
1.15667	-1
1.16033	-2
1.16400	-2
1.16767	-2
1.17133	-3
1.17500	-3
1.17867	-3
1.18233	-3
1.18600	-3
1.18967	-3
1.19333	-2
1.19700	-2
1.20067	-2
1.20433	-2
1.20800	-2
1.21167	-2
1.21533	-1
1.21900	-1
1.22267	-1
1.22633	-0
1.23000	-0
1.23367	0
1.23733	0
1.24100	0
1.24467	0
1.24833	0
1.25200	0
1.25567	1
1.25933	1
1.26300	1
1.26667	1
1.27033	1
1.27400	2
1.27767	2
1.28133	2
1.28500	2
1.28867	2
1.29233	2
1.29600	2
1.29967	1
1.30333	1
1.30700	1
1.31067	1
1.31433	1
1.31800	0
1.32167	0
1.32533	0
1.32900	0
1.33267	0
1.33633	0
1.34000	-0
1.34367	-0
1.34733	-1
1.35100	-1
1.35467	-1
1.35833	-2
1.36200	-2
1.36567	-2
1.36933	-1
1.37300	-1
1.37667	-1
1.38033	-0
1.38400	0
1.38767	1
1.39133	1
1.39500	1
1.39867	1
1.40233	0
1.40600	0
1.40967	0
1.41333	0
1.41700	0
1.42067	0
1.42433	0
1.42800	0
1.43167	0
1.43533	0
1.43900	0
1.44267	0
1.44633	0
1.45000	0
1.45367	0
1.45733	0
1.46100	0
1.46467	-0
1.46833	-1
1.47200	-1
1.47567	-1
1.47933	-2
1.48300	-2
1.48667	-2
1.49033	-2
1.49400	-2
1.49767	-2
1.50133	-3
1.50500	-3
1.50867	-3
1.51233	-4
1.51600	-4
1.51967	-4
1.52333	-4
1.52700	-4
1.53067	-4
1.53433	-4
1.53800	-4
1.54167	-4
1.54533	-4
1.54900	-4
1.55267	-4
1.55633	-5
1.56000	-5
1.56367	-6
1.56733	-6
1.57100	-6
1.57467	-5
1.57833	-5
1.58200	-4
1.58567	-4
1.58933	-4
1.59300	-3
1.59667	-3
1.60033	-4
1.60400	-4
1.60767	-5
1.61133	-7
1.61500	-8
1.61867	-10
1.62233	-13
1.62600	-15
1.62967	-19
1.63333	-22
1.63700	-25
1.64067	-29
1.64433	-32
1.64800	-36
1.65167	-40
1.65533	-44
1.65900	-48
1.66267	-53
1.66633	-57
1.67000	-62
1.67367	-67
1.67733	-72
1.68100	-78
1.68467	-83
1.68833	-87
1.69200	-91
1.69567	-95
1.69933	-99
1.70300	-101
1.70667	-104
1.71033	-106
1.71400	-107
1.71767	-108
1.72133	-109
1.72500	-110
1.72867	-110
1.73233	-110
1.73600	-110
1.73967	-110
1.74333	-110
1.74700	-109
1.75067	-109
1.75433	-109
1.75800	-109
1.76167	-109
1.76533	-110
1.76900	-111
1.77267	-111
1.77633	-112
1.78000	-113
1.78367	-113
1.78733	-114
1.79100	-115
1.79467	-115
1.79833	-116
1.80200	-116
1.80567	-117
1.80933	-117
1.81300	-117
1.81667	-117
1.82033	-116
1.82400	-117
1.82767	-117
1.83133	-117
1.83500	-117
1.83867	-118
1.84233	-118
1.84600	-118
1.84967	-118
1.85333	-118
1.85700	-118
1.86067	-118
1.86433	-117
1.86800	-117
1.87167	-116
1.87533	-116
1.87900	-116
1.88267	-115
1.88633	-115
1.89000	-115
1.89367	-115
1.89733	-115
1.90100	-115
1.90467	-116
1.90833	-116
1.91200	-116
1.91567	-116
1.91933	-116
1.92300	-115
1.92667	-115
1.93033	-114
1.93400	-113
1.93767	-113
1.94133	-112
1.94500	-112
1.94867	-112
1.95233	-111
1.95600	-111
1.95967	-111
1.96333	-111
1.96700	-110
1.97067	-110
1.97433	-110
1.97800	-110
1.98167	-110
1.98533	-110
1.98900	-110
1.99267	-110
1.99633	-109
2.00000	-108
2.00367	-108
2.00733	-107
2.01100	-106
2.01467	-105
2.01833	-105
2.02200	-105
2.02567	-105
2.02933	-105
2.03300	-105
2.03667	-105
2.04033	-104
2.04400	-104
2.04767	-104
2.05133	-104
2.05500	-104
2.05867	-104
2.06233	-104
2.06600	-104
2.06967	-104
2.07333	-104
2.07700	-104
2.08067	-104
2.08433	-103
2.08800	-103
2.09167	-102
2.09533	-102
2.09900	-101
2.10267	-101
2.10633	-101
2.11000	-100
2.11367	-99
2.11733	-98
2.12100	-98
2.12467	-98
2.12833	-98
2.13200	-98
2.13567	-98
2.13933	-99
2.14300	-99
2.14667	-99
2.15033	-98
2.15400	-98
2.15767	-97
2.16133	-97
2.16500	-96
2.16867	-95
2.17233	-95
2.17600	-95
2.17967	-95
2.18333	-95
2.18700	-95
2.19067	-95
2.19433	-95
2.19800	-94
2.20167	-94
2.20533	-93
2.20900	-93
2.21267	-93
2.21633	-93
2.22000	-93
2.22367	-93
2.22733	-93
2.23100	-92
2.23467	-92
2.23833	-91
2.24200	-91
2.24567	-90
2.24933	-89
2.25300	-88
2.25667	-87
2.26033	-86
2.26400	-85
2.26767	-85
2.27133	-85
2.27500	-84
2.27867	-84
2.28233	-84
2.28600	-84
2.28967	-84
2.29333	-84
2.29700	-84
2.30067	-84
2.30433	-84
2.30800	-84
2.31167	-84
2.31533	-84
2.31900	-84
2.32267	-84
2.32633	-83
2.33000	-83
2.33367	-82
2.33733	-81
2.34100	-80
2.34467	-78
2.34833	-77
2.35200	-76
2.35567	-76
2.35933	-76
2.36300	-76
2.36667	-75
2.37033	-74
2.37400	-73
2.37767	-71
2.38133	-68
2.38500	-64
2.38867	-61
2.39233	-57
2.39600	-53
2.39967	-48
2.40333	-44
2.40700	-40
2.41067	-35
2.41433	-31
2.41800	-27
2.42167	-24
2.42533	-22
2.42900	-20
2.43267	-18
2.43633	-16
2.44000	-14
2.44367	-12
2.44733	-10
2.45100	-8
2.45467	-6
2.45833	-5
2.46200	-4
2.46567	-3
2.46933	-2
2.47300	-1
2.47667	0
2.48033	1
2.48400	3
2.48767	4
2.49133	4
2.49500	5
2.49867	6
2.50233	6
2.50600	7
2.50967	7
2.51333	8
2.51700	9
2.52067	10
2.52433	12
2.52800	13
2.53167	14
2.53533	15
2.53900	16
2.54267	16
2.54633	17
2.55000	17
2.55367	18
2.55733	18
2.56100	18
2.56467	18
2.56833	19
2.57200	18
2.57567	19
2.57933	19
2.58300	19
2.58667	19
2.59033	19
2.59400	19
2.59767	19
2.60133	19
2.60500	19
2.60867	19
2.61233	18
2.61600	18
2.61967	18
2.62333	18
2.62700	18
2.63067	18
2.63433	18
2.63800	18
2.64167	18
2.64533	19
2.64900	19
2.65267	20
2.65633	20
2.66000	21
2.66367	21
2.66733	21
2.67100	22
2.67467	22
2.67833	22
2.68200	22
2.68567	21
2.68933	21
2.69300	21
2.69667	21
2.70033	21
2.70400	21
2.70767	22
2.71133	22
2.71500	23
2.71867	23
2.72233	23
2.72600	24
2.72967	24
2.73333	25
2.73700	25
2.74067	26
2.74433	26
2.74800	27
2.75167	28
2.75533	29
2.75900	29
2.76267	29
2.76633	30
2.77000	30
2.77367	29
2.77733	28
2.78100	28
2.78467	27
2.78833	26
2.79200	25
2.79567	24
2.79933	23
2.80300	23
2.80667	22
2.81033	22
2.81400	22
2.81767	22
2.82133	23
2.82500	23
2.82867	23
2.83233	23
2.83600	23
2.83967	21
2.84333	18
2.84700	13
2.85067	6
2.85433	-5
2.85800	-20
2.86167	-38
2.86533	-61
2.86900	-88
2.87267	-119
2.87633	-154
2.88000	-193
2.88367	-235
2.88733	-280
2.89100	-328
2.89467	-378
2.89833	-430
2.90200	-483
2.90567	-536
2.90933	-590
2.91300	-643
2.91667	-697
2.92033	-749
2.92400	-800
2.92767	-851
2.93133	-904
2.93500	-963
2.93867	-1022
2.94233	-1073
2.94600	-1105
2.94967	-1112
2.95333	-1092
2.95700	-1050
2.96067	-990
2.96433	-918
2.96800	-839
2.97167	-757
2.97533	-677
2.97900	-600
2.98267	-527
2.98633	-461
2.99000	-401
2.99367	-346
2.99733	-298
3.00100	-255
3.00467	-218
3.00833	-185
3.01200	-156
3.01567	-132
3.01933	-111
3.02300	-92
3.02667	-77
3.03033	-63
3.03400	-52
3.03767	-42
3.04133	-33
3.04500	-26
3.04867	-20
3.05233	-15
3.05600	-10
3.05967	-6
3.06333	-3
3.06700	-0
3.07067	2
3.07433	4
3.07800	6
3.08167	8
3.08533	9
3.08900	10
3.09267	12
3.09633	12
3.10000	13
3.10367	14
3.10733	14
3.11100	15
3.11467	15
3.11833	16
3.12200	16
3.12567	16
3.12933	17
3.13300	17
3.13667	17
3.14033	17
3.14400	17
3.14767	17
3.15133	18
3.15500	18
3.15867	18
3.16233	18
3.16600	18
3.16967	18
3.17333	18
3.17700	18
3.18067	18
3.18433	19
3.18800	19
3.19167	19
3.19533	20
3.19900	20
3.20267	21
3.20633	22
3.21000	22
3.21367	22
3.21733	23
3.22100	23
3.22467	23
3.22833	23
3.23200	23
3.23567	23
3.23933	23
3.24300	23
3.24667	22
3.25033	22
3.25400	22
3.25767	22
3.26133	22
3.26500	21
3.26867	21
3.27233	21
3.27600	22
3.27967	22
3.28333	22
3.28700	22
3.29067	23
3.29433	23
3.29800	23
3.30167	24
3.30533	24
3.30900	25
3.31267	25
3.31633	26
3.32000	27
3.32367	27
3.32733	28
3.33100	28
3.33467	28
3.33833	28
3.34200	28
3.34567	28
3.34933	28
3.35300	28
3.35667	28
3.36033	28
3.36400	28
3.36767	28
3.37133	28
3.37500	28
3.37867	28
3.38233	28
3.38600	28
3.38967	28
3.39333	28
3.39700	28
3.40067	28
3.40433	28
3.40800	28
3.41167	29
3.41533	29
3.41900	29
3.42267	29
3.42633	29
3.43000	28
3.43367	28
3.43733	28
3.44100	28
3.44467	28
3.44833	28
3.45200	27
3.45567	27
3.45933	27
3.46300	27
3.46667	26
3.47033	26
3.47400	26
3.47767	26
3.48133	26
3.48500	27
3.48867	27
3.49233	27
3.49600	28
3.49967	28
3.50333	28
3.50700	28
3.51067	28
3.51433	28
3.51800	28
3.52167	28
3.52533	28
3.52900	28
3.53267	28
3.53633	29
3.54000	28
3.54367	28
3.54733	28
3.55100	28
3.55467	28
3.55833	28
3.56200	27
3.56567	27
3.56933	27
3.57300	27
3.57667	26
3.58033	26
3.58400	26
3.58767	26
3.59133	26
3.59500	26
3.59867	26
3.60233	26
3.60600	26
3.60967	26
3.61333	26
3.61700	26
3.62067	26
3.62433	26
3.62800	26
3.63167	26
3.63533	26
3.63900	26
3.64267	26
3.64633	26
3.65000	27
3.65367	27
3.65733	27
3.66100	28
3.66467	28
3.66833	28
3.67200	29
3.67567	29
3.67933	29
3.68300	29
3.68667	29
3.69033	29
3.69400	29
3.69767	29
3.70133	29
3.70500	29
3.70867	29
3.71233	29
3.71600	29
3.71967	29
3.72333	29
3.72700	29
3.73067	29
3.73433	29
3.73800	29
3.74167	29
3.74533	29
3.74900	29
3.75267	29
3.75633	28
3.76000	28
3.76367	28
3.76733	28
3.77100	27
3.77467	27
3.77833	27
3.78200	27
3.78567	27
3.78933	27
3.79300	27
3.79667	26
3.80033	26
3.80400	26
3.80767	26
3.81133	26
3.81500	26
3.81867	27
3.82233	27
3.82600	27
3.82967	27
3.83333	27
3.83700	27
3.84067	27
3.84433	27
3.84800	27
3.85167	27
3.85533	27
3.85900	26
3.86267	26
3.86633	26
3.87000	25
3.87367	25
3.87733	25
3.88100	25
3.88467	25
3.88833	25
3.89200	25
3.89567	26
3.89933	26
3.90300	26
3.90667	26
3.91033	26
3.91400	27
3.91767	27
3.92133	27
3.92500	27
3.92867	27
3.93233	27
3.93600	27
3.93967	26
3.94333	26
3.94700	26
3.95067	26
3.95433	25
3.95800	25
3.96167	25
3.96533	25
3.96900	25
3.97267	25
3.97633	26
3.98000	26
3.98367	26
3.98733	26
3.99100	27
3.99467	27
3.99833	27

[Chromatogram (Ch3)]
Interval(msec)	220
# of Points	1091
Start Time(min)	0.002
End Time(min)	3.998
R.Time (min)	Intensity
0.00167	-0
0.00533	-1
0.00900	-3
0.01267	-6
0.01633	-6
0.02000	-5
0.02367	-3
0.02733	-3
0.03100	-2
0.03467	-3
0.03833	-4
0.04200	-6
0.04567	-9
0.04933	-10
0.05300	-10
0.05667	-9
0.06033	-8
0.06400	-8
0.06767	-7
0.07133	-7
0.07500	-6
0.07867	-2
0.08233	0
0.08600	1
0.08967	-2
0.09333	-5
0.09700	-6
0.10067	-7
0.10433	-9
0.10800	-9
0.11167	-10
0.11533	-11
0.11900	-8
0.12267	-5
0.12633	-3
0.13000	0
0.13367	3
0.13733	2
0.14100	-0
0.14467	-2
0.14833	-3
0.15200	-0
0.15567	2
0.15933	2
0.16300	0
0.16667	-2
0.17033	-4
0.17400	-4
0.17767	-3
0.18133	-3
0.18500	-3
0.18867	-1
0.19233	0
0.19600	-1
0.19967	-3
0.20333	-2
0.20700	-1
0.21067	-1
0.21433	-2
0.21800	-2
0.22167	-1
0.22533	-0
0.22900	0
0.23267	0
0.23633	1
0.24000	2
0.24367	2
0.24733	2
0.25100	2
0.25467	4
0.25833	4
0.26200	4
0.26567	2
0.26933	1
0.27300	0
0.27667	-1
0.28033	1
0.28400	5
0.28767	6
0.29133	5
0.29500	4
0.29867	4
0.30233	6
0.30600	5
0.30967	4
0.31333	5
0.31700	4
0.32067	3
0.32433	3
0.32800	4
0.33167	4
0.33533	3
0.33900	3
0.34267	3
0.34633	4
0.35000	4
0.35367	6
0.35733	6
0.36100	5
0.36467	5
0.36833	6
0.37200	8
0.37567	10
0.37933	12
0.38300	14
0.38667	14
0.39033	12
0.39400	11
0.39767	12
0.40133	14
0.40500	14
0.40867	12
0.41233	9
0.41600	9
0.41967	10
0.42333	11
0.42700	10
0.43067	11
0.43433	12
0.43800	12
0.44167	12
0.44533	12
0.44900	11
0.45267	9
0.45633	8
0.46000	10
0.46367	11
0.46733	12
0.47100	13
0.47467	13
0.47833	15
0.48200	16
0.48567	16
0.48933	17
0.49300	18
0.49667	17
0.50033	17
0.50400	17
0.50767	16
0.51133	15
0.51500	15
0.51867	16
0.52233	16
0.52600	15
0.52967	13
0.53333	13
0.53700	13
0.54067	15
0.54433	15
0.54800	15
0.55167	15
0.55533	14
0.55900	13
0.56267	13
0.56633	14
0.57000	15
0.57367	17
0.57733	21
0.58100	20
0.58467	18
0.58833	17
0.59200	20
0.59567	22
0.59933	21
0.60300	22
0.60667	24
0.61033	25
0.61400	25
0.61767	22
0.62133	21
0.62500	20
0.62867	19
0.63233	19
0.63600	22
0.63967	25
0.64333	24
0.64700	23
0.65067	19
0.65433	16
0.65800	15
0.66167	14
0.66533	15
0.66900	18
0.67267	18
0.67633	17
0.68000	17
0.68367	18
0.68733	17
0.69100	15
0.69467	13
0.69833	11
0.70200	10
0.70567	11
0.70933	11
0.71300	12
0.71667	11
0.72033	11
0.72400	11
0.72767	12
0.73133	12
0.73500	12
0.73867	11
0.74233	12
0.74600	13
0.74967	15
0.75333	15
0.75700	12
0.76067	9
0.76433	8
0.76800	8
0.77167	9
0.77533	10
0.77900	11
0.78267	11
0.78633	12
0.79000	13
0.79367	12
0.79733	15
0.80100	13
0.80467	12
0.80833	14
0.81200	14
0.81567	13
0.81933	11
0.82300	10
0.82667	9
0.83033	10
0.83400	12
0.83767	10
0.84133	10
0.84500	9
0.84867	9
0.85233	10
0.85600	10
0.85967	8
0.86333	8
0.86700	9
0.87067	10
0.87433	9
0.87800	8
0.88167	7
0.88533	9
0.88900	11
0.89267	9
0.89633	5
0.90000	5
0.90367	7
0.90733	7
0.91100	7
0.91467	7
0.91833	8
0.92200	8
0.92567	6
0.92933	5
0.93300	3
0.93667	3
0.94033	5
0.94400	7
0.94767	10
0.95133	12
0.95500	13
0.95867	12
0.96233	11
0.96600	11
0.96967	13
0.97333	14
0.97700	14
0.98067	11
0.98433	8
0.98800	7
0.99167	9
0.99533	10
0.99900	8
1.00267	6
1.00633	5
1.01000	6
1.01367	7
1.01733	6
1.02100	5
1.02467	6
1.02833	8
1.03200	10
1.03567	10
1.03933	10
1.04300	9
1.04667	8
1.05033	8
1.05400	8
1.05767	10
1.06133	10
1.06500	8
1.06867	9
1.07233	12
1.07600	14
1.07967	14
1.08333	13
1.08700	11
1.09067	10
1.09433	10
1.09800	11
1.10167	11
1.10533	10
1.10900	9
1.11267	10
1.11633	11
1.12000	10
1.12367	9
1.12733	8
1.13100	7
1.13467	5
1.13833	4
1.14200	1
1.14567	0
1.14933	1
1.15300	3
1.15667	5
1.16033	6
1.16400	5
1.16767	3
1.17133	3
1.17500	5
1.17867	5
1.18233	6
1.18600	6
1.18967	6
1.19333	8
1.19700	9
1.20067	9
1.20433	9
1.20800	8
1.21167	6
1.21533	4
1.21900	2
1.22267	2
1.22633	4
1.23000	7
1.23367	7
1.23733	4
1.24100	2
1.24467	1
1.24833	3
1.25200	6
1.25567	7
1.25933	6
1.26300	7
1.26667	7
1.27033	10
1.27400	8
1.27767	4
1.28133	1
1.28500	3
1.28867	6
1.29233	6
1.29600	6
1.29967	8
1.30333	10
1.30700	11
1.31067	13
1.31433	14
1.31800	15
1.32167	15
1.32533	15
1.32900	16
1.33267	17
1.33633	16
1.34000	15
1.34367	16
1.34733	17
1.35100	16
1.35467	16
1.35833	16
1.36200	16
1.36567	15
1.36933	15
1.37300	15
1.37667	14
1.38033	14
1.38400	13
1.38767	13
1.39133	15
1.39500	17
1.39867	16
1.40233	15
1.40600	12
1.40967	11
1.41333	11
1.41700	11
1.42067	10
1.42433	9
1.42800	7
1.43167	5
1.43533	5
1.43900	7
1.44267	10
1.44633	12
1.45000	12
1.45367	13
1.45733	15
1.46100	16
1.46467	15
1.46833	14
1.47200	13
1.47567	11
1.47933	9
1.48300	9
1.48667	9
1.49033	11
1.49400	10
1.49767	12
1.50133	13
1.50500	14
1.50867	15
1.51233	15
1.51600	14
1.51967	14
1.52333	15
1.52700	15
1.53067	15
1.53433	13
1.53800	10
1.54167	8
1.54533	7
1.54900	8
1.55267	9
1.55633	11
1.56000	12
1.56367	12
1.56733	12
1.57100	11
1.57467	11
1.57833	12
1.58200	15
1.58567	14
1.58933	13
1.59300	14
1.59667	14
1.60033	15
1.60400	15
1.60767	14
1.61133	16
1.61500	16
1.61867	16
1.62233	17
1.62600	18
1.62967	17
1.63333	14
1.63700	14
1.64067	17
1.64433	19
1.64800	21
1.65167	23
1.65533	24
1.65900	23
1.66267	23
1.66633	23
1.67000	25
1.67367	26
1.67733	26
1.68100	25
1.68467	25
1.68833	25
1.69200	24
1.69567	25
1.69933	25
1.70300	28
1.70667	28
1.71033	27
1.71400	27
1.71767	27
1.72133	27
1.72500	29
1.72867	32
1.73233	34
1.73600	35
1.73967	34
1.74333	34
1.74700	33
1.75067	34
1.75433	37
1.75800	39
1.76167	40
1.76533	42
1.76900	40
1.77267	38
1.77633	40
1.78000	41
1.78367	42
1.78733	43
1.79100	44
1.79467	45
1.79833	46
1.80200	47
1.80567	49
1.80933	50
1.81300	51
1.81667	54
1.82033	54
1.82400	55
1.82767	55
1.83133	56
1.83500	55
1.83867	54
1.84233	54
1.84600	55
1.84967	57
1.85333	59
1.85700	62
1.86067	64
1.86433	63
1.86800	63
1.87167	63
1.87533	64
1.87900	65
1.88267	66
1.88633	65
1.89000	67
1.89367	69
1.89733	71
1.90100	70
1.90467	70
1.90833	68
1.91200	68
1.91567	69
1.91933	68
1.92300	68
1.92667	67
1.93033	67
1.93400	67
1.93767	70
1.94133	72
1.94500	71
1.94867	70
1.95233	70
1.95600	71
1.95967	74
1.96333	73
1.96700	73
1.97067	72
1.97433	71
1.97800	70
1.98167	69
1.98533	71
1.98900	73
1.99267	75
1.99633	74
2.00000	75
2.00367	75
2.00733	72
2.01100	70
2.01467	71
2.01833	74
2.02200	76
2.02567	78
2.02933	78
2.03300	79
2.03667	79
2.04033	81
2.04400	83
2.04767	85
2.05133	84
2.05500	81
2.05867	79
2.06233	78
2.06600	79
2.06967	78
2.07333	78
2.07700	78
2.08067	78
2.08433	79
2.08800	81
2.09167	85
2.09533	88
2.09900	90
2.10267	92
2.10633	95
2.11000	98
2.11367	99
2.11733	99
2.12100	99
2.12467	97
2.12833	95
2.13200	95
2.13567	96
2.13933	96
2.14300	98
2.14667	100
2.15033	102
2.15400	104
2.15767	109
2.16133	110
2.16500	112
2.16867	114
2.17233	115
2.17600	113
2.17967	111
2.18333	109
2.18700	108
2.19067	109
2.19433	111
2.19800	113
2.20167	114
2.20533	115
2.20900	116
2.21267	118
2.21633	119
2.22000	119
2.22367	119
2.22733	120
2.23100	121
2.23467	123
2.23833	125
2.24200	129
2.24567	132
2.24933	134
2.25300	133
2.25667	132
2.26033	133
2.26400	135
2.26767	135
2.27133	135
2.27500	137
2.27867	138
2.28233	140
2.28600	143
2.28967	145
2.29333	146
2.29700	147
2.30067	149
2.30433	153
2.30800	154
2.31167	154
2.31533	153
2.31900	155
2.32267	158
2.32633	159
2.33000	157
2.33367	157
2.33733	158
2.34100	159
2.34467	161
2.34833	163
2.35200	164
2.35567	163
2.35933	166
2.36300	168
2.36667	170
2.37033	173
2.37400	176
2.37767	177
2.38133	179
2.38500	179
2.38867	178
2.39233	180
2.39600	184
2.39967	188
2.40333	192
2.40700	193
2.41067	194
2.41433	195
2.41800	197
2.42167	200
2.42533	201
2.42900	202
2.43267	205
2.43633	207
2.44000	209
2.44367	241
2.44733	329
2.45100	425
2.45467	500
2.45833	535
2.46200	519
2.46567	471
2.46933	421
2.47300	379
2.47667	352
2.48033	335
2.48400	321
2.48767	300
2.49133	271
2.49500	240
2.49867	210
2.50233	186
2.50600	168
2.50967	156
2.51333	149
2.51700	147
2.52067	143
2.52433	143
2.52800	147
2.53167	155
2.53533	165
2.53900	172
2.54267	176
2.54633	174
2.55000	169
2.55367	160
2.55733	151
2.56100	141
2.56467	128
2.56833	115
2.57200	106
2.57567	97
2.57933	89
2.58300	82
2.58667	80
2.59033	78
2.59400	73
2.59767	68
2.60133	61
2.60500	51
2.60867	37
2.61233	21
2.61600	3
2.61967	-18
2.62333	-35
2.62700	-49
2.63067	-55
2.63433	-57
2.63800	-57
2.64167	-55
2.64533	-50
2.64900	-44
2.65267	-34
2.65633	-22
2.66000	-8
2.66367	4
2.66733	16
2.67100	25
2.67467	31
2.67833	36
2.68200	41
2.68567	45
2.68933	45
2.69300	47
2.69667	48
2.70033	50
2.70400	54
2.70767	55
2.71133	54
2.71500	51
2.71867	49
2.72233	47
2.72600	45
2.72967	44
2.73333	43
2.73700	45
2.74067	45
2.74433	44
2.74800	40
2.75167	38
2.75533	40
2.75900	43
2.76267	44
2.76633	47
2.77000	48
2.77367	48
2.77733	47
2.78100	48
2.78467	49
2.78833	50
2.79200	53
2.79567	55
2.79933	55
2.80300	55
2.80667	56
2.81033	58
2.81400	63
2.81767	72
2.82133	93
2.82500	141
2.82867	231
2.83233	386
2.83600	629
2.83967	973
2.84333	1420
2.84700	1955
2.85067	2546
2.85433	3153
2.85800	3727
2.86167	4223
2.86533	4599
2.86900	4831
2.87267	4916
2.87633	4864
2.88000	4697
2.88367	4441
2.88733	4126
2.89100	3779
2.89467	3421
2.89833	3070
2.90200	2733
2.90567	2416
2.90933	2126
2.91300	1866
2.91667	1636
2.92033	1435
2.92400	1256
2.92767	1100
2.93133	962
2.93500	846
2.93867	744
2.94233	654
2.94600	577
2.94967	509
2.95333	451
2.95700	401
2.96067	360
2.96433	322
2.96800	288
2.97167	260
2.97533	237
2.97900	218
2.98267	200
2.98633	182
2.99000	170
2.99367	157
2.99733	147
3.00100	139
3.00467	131
3.00833	122
3.01200	112
3.01567	105
3.01933	100
3.02300	96
3.02667	93
3.03033	88
3.03400	83
3.03767	78
3.04133	75
3.04500	73
3.04867	71
3.05233	67
3.05600	64
3.05967	61
3.06333	59
3.06700	55
3.07067	53
3.07433	51
3.07800	50
3.08167	48
3.08533	47
3.08900	46
3.09267	43
3.09633	15
3.10000	-53
3.10367	-119
3.10733	-144
3.11100	-126
3.11467	-84
3.11833	-28
3.12200	33
3.12567	94
3.12933	154
3.13300	213
3.13667	268
3.14033	318
3.14400	363
3.14767	404
3.15133	438
3.15500	470
3.15867	500
3.16233	525
3.16600	545
3.16967	559
3.17333	570
3.17700	578
3.18067	584
3.18433	590
3.18800	595
3.19167	598
3.19533	599
3.19900	599
3.20267	597
3.20633	595
3.21000	594
3.21367	593
3.21733	592
3.22100	591
3.22467	591
3.22833	591
3.23200	589
3.23567	586
3.23933	586
3.24300	587
3.24667	589
3.25033	589
3.25400	587
3.25767	587
3.26133	588
3.26500	588
3.26867	589
3.27233	590
3.27600	591
3.27967	594
3.28333	597
3.28700	598
3.29067	600
3.29433	601
3.29800	603
3.30167	604
3.30533	607
3.30900	608
3.31267	608
3.31633	612
3.32000	617
3.32367	622
3.32733	627
3.33100	632
3.33467	637
3.33833	642
3.34200	645
3.34567	646
3.34933	647
3.35300	650
3.35667	655
3.36033	659
3.36400	663
3.36767	669
3.37133	670
3.37500	669
3.37867	667
3.38233	665
3.38600	663
3.38967	659
3.39333	655
3.39700	651
3.40067	648
3.40433	644
3.40800	639
3.41167	636
3.41533	633
3.41900	628
3.42267	622
3.42633	615
3.43000	609
3.43367	603
3.43733	597
3.44100	591
3.44467	587
3.44833	581
3.45200	576
3.45567	572
3.45933	569
3.46300	563
3.46667	557
3.47033	551
3.47400	542
3.47767	533
3.48133	526
3.48500	522
3.48867	518
3.49233	515
3.49600	512
3.49967	510
3.50333	507
3.50700	505
3.51067	502
3.51433	499
3.51800	496
3.52167	494
3.52533	490
3.52900	485
3.53267	479
3.53633	476
3.54000	474
3.54367	473
3.54733	472
3.55100	473
3.55467	471
3.55833	472
3.56200	472
3.56567	471
3.56933	468
3.57300	463
3.57667	460
3.58033	457
3.58400	454
3.58767	451
3.59133	451
3.59500	452
3.59867	452
3.60233	451
3.60600	450
3.60967	449
3.61333	449
3.61700	447
3.62067	446
3.62433	442
3.62800	438
3.63167	436
3.63533	435
3.63900	432
3.64267	431
3.64633	429
3.65000	432
3.65367	430
3.65733	425
3.66100	419
3.66467	417
3.66833	416
3.67200	416
3.67567	415
3.67933	416
3.68300	415
3.68667	417
3.69033	417
3.69400	415
3.69767	413
3.70133	410
3.70500	410
3.70867	409
3.71233	407
3.71600	407
3.71967	407
3.72333	411
3.72700	415
3.73067	416
3.73433	414
3.73800	412
3.74167	409
3.74533	409
3.74900	411
3.75267	412
3.75633	413
3.76000	411
3.76367	408
3.76733	405
3.77100	404
3.77467	405
3.77833	406
3.78200	405
3.78567	405
3.78933	407
3.79300	408
3.79667	408
3.80033	409
3.80400	410
3.80767	410
3.81133	408
3.81500	408
3.81867	407
3.82233	407
3.82600	406
3.82967	405
3.83333	404
3.83700	404
3.84067	405
3.84433	406
3.84800	407
3.85167	404
3.85533	404
3.85900	404
3.86267	405
3.86633	406
3.87000	406
3.87367	406
3.87733	406
3.88100	405
3.88467	405
3.88833	405
3.89200	401
3.89567	398
3.89933	398
3.90300	399
3.90667	396
3.91033	393
3.91400	393
3.91767	395
3.92133	395
3.92500	392
3.92867	389
3.93233	390
3.93600	393
3.93967	395
3.94333	396
3.94700	396
3.95067	395
3.95433	392
3.95800	390
3.96167	389
3.96533	389
3.96900	389
3.97267	389
3.97633	388
3.98000	387
3.98367	386
3.98733	384
3.99100	381
3.99467	378
3.99833	375

[Status Trace (Column Oven Temperature)]
Interval(msec)	1000
# of Points	240
Start Time(min)	0.013
End Time(min)	3.996
Intensity Units	
Intensity Multiplier	1
R.Time (min)	Intensity
0.01250	35.05
0.02917	35.04
0.04583	35.04
0.06250	35.03
0.07917	35.03
0.09583	35.02
0.11250	35.02
0.12917	35.02
0.14583	35.01
0.16250	35.00
0.17917	35.02
0.19583	35.03
0.21250	35.04
0.22917	35.04
0.24583	35.03
0.26250	35.02
0.27917	35.01
0.29583	35.01
0.31250	35.00
0.32917	35.00
0.34583	35.01
0.36250	35.01
0.37917	35.01
0.39583	34.99
0.41250	34.98
0.42917	34.97
0.44583	34.97
0.46250	34.97
0.47917	34.96
0.49583	34.97
0.51250	34.97
0.52917	34.98
0.54583	35.00
0.56250	35.01
0.57917	35.02
0.59583	35.02
0.61250	35.02
0.62917	35.01
0.64583	34.99
0.66250	34.98
0.67917	34.96
0.69583	34.97
0.71250	34.98
0.72917	34.99
0.74583	35.00
0.76250	35.00
0.77917	34.99
0.79583	34.98
0.81250	34.99
0.82917	34.98
0.84583	35.00
0.86250	35.01
0.87917	35.03
0.89583	35.02
0.91250	35.00
0.92917	34.98
0.94583	34.98
0.96250	34.97
0.97917	34.96
0.99583	34.97
1.01250	34.97
1.02917	34.98
1.04583	34.99
1.06250	35.00
1.07917	35.01
1.09583	35.00
1.11250	35.00
1.12917	35.00
1.14583	35.00
1.16250	35.01
1.17917	35.01
1.19583	35.01
1.21250	35.01
1.22917	35.00
1.24583	34.99
1.26250	34.98
1.27917	34.97
1.29583	34.97
1.31250	34.97
1.32917	34.97
1.34583	34.98
1.36250	34.98
1.37917	34.97
1.39583	34.97
1.41250	34.96
1.42917	34.97
1.44583	34.96
1.46250	34.96
1.47917	34.97
1.49583	34.99
1.51250	35.00
1.52917	35.01
1.54583	35.02
1.56250	35.03
1.57917	35.03
1.59583	35.04
1.61250	35.11
1.62917	35.24
1.64583	35.44
1.66250	35.71
1.67917	36.07
1.69583	36.43
1.71250	36.79
1.72917	37.12
1.74583	37.43
1.76250	37.76
1.77917	38.09
1.79583	38.44
1.81250	38.76
1.82917	39.09
1.84583	39.44
1.86250	39.76
1.87917	40.09
1.89583	40.42
1.91250	40.75
1.92917	41.06
1.94583	41.39
1.96250	41.71
1.97917	42.04
1.99583	42.36
2.01250	42.68
2.02917	42.99
2.04583	43.32
2.06250	43.64
2.07917	43.97
2.09583	44.32
2.11250	44.63
2.12917	44.95
2.14583	45.29
2.16250	45.59
2.17917	45.94
2.19583	46.27
2.21250	46.61
2.22917	46.95
2.24583	47.28
2.26250	47.59
2.27917	47.92
2.29583	48.26
2.31250	48.60
2.32917	48.93
2.34583	49.21
2.36250	49.53
2.37917	49.71
2.39583	49.78
2.41250	49.76
2.42917	49.76
2.44583	49.77
2.46250	49.78
2.47917	49.79
2.49583	49.80
2.51250	49.82
2.52917	49.81
2.54583	49.81
2.56250	49.82
2.57917	49.81
2.59583	49.81
2.61250	49.82
2.62917	49.82
2.64583	49.83
2.66250	49.84
2.67917	49.85
2.69583	49.87
2.71250	49.87
2.72917	49.87
2.74583	49.85
2.76250	49.83
2.77917	49.86
2.79583	49.90
2.81250	49.92
2.82917	49.93
2.84583	49.93
2.86250	49.92
2.87917	49.93
2.89583	49.93
2.91250	49.94
2.92917	49.95
2.94583	49.96
2.96250	49.98
2.97917	49.99
2.99583	50.00
3.01250	50.00
3.02917	50.00
3.04583	49.99
3.06250	49.98
3.07917	49.99
3.09583	50.00
3.11250	50.01
3.12917	50.01
3.14583	50.02
3.16250	50.04
3.17917	50.05
3.19583	50.06
3.21250	50.06
3.22917	50.06
3.24583	50.08
3.26250	50.11
3.27917	50.11
3.29583	50.11
3.31250	50.10
3.32917	50.08
3.34583	50.07
3.36250	50.06
3.37917	50.05
3.39583	50.04
3.41250	50.02
3.42917	50.03
3.44583	50.03
3.46250	50.03
3.47917	50.04
3.49583	50.03
3.51250	50.02
3.52917	50.02
3.54583	50.02
3.56250	50.03
3.57917	50.04
3.59583	50.04
3.61250	50.05
3.62917	50.05
3.64583	50.06
3.66250	50.05
3.67917	50.05
3.69583	50.05
3.71250	50.04
3.72917	50.04
3.74583	50.04
3.76250	50.05
3.77917	50.05
3.79583	50.05
3.81250	50.05
3.82917	50.05
3.84583	50.05
3.86250	50.06
3.87917	50.06
3.89583	50.06
3.91250	50.06
3.92917	50.06
3.94583	50.07
3.96250	50.08
3.97917	50.07
3.99583	50.08

[Status Trace (Injection Unit Temperature)]
Interval(msec)	1000
# of Points	240
Start Time(min)	0.013
End Time(min)	3.996
Intensity Units	
Intensity Multiplier	1
R.Time (min)	Intensity
0.01250	99.98
0.02917	99.97
0.04583	99.98
0.06250	99.98
0.07917	99.98
0.09583	99.98
0.11250	99.98
0.12917	99.98
0.14583	99.97
0.16250	99.98
0.17917	99.98
0.19583	99.98
0.21250	99.98
0.22917	99.98
0.24583	99.98
0.26250	99.98
0.27917	99.98
0.29583	99.98
0.31250	99.98
0.32917	99.98
0.34583	99.98
0.36250	99.98
0.37917	99.98
0.39583	99.98
0.41250	99.98
0.42917	99.98
0.44583	99.98
0.46250	99.98
0.47917	99.98
0.49583	99.98
0.51250	99.98
0.52917	99.98
0.54583	99.98
0.56250	99.98
0.57917	99.98
0.59583	99.98
0.61250	99.98
0.62917	99.98
0.64583	99.98
0.66250	99.98
0.67917	99.98
0.69583	99.98
0.71250	99.98
0.72917	99.98
0.74583	99.98
0.76250	99.98
0.77917	99.98
0.79583	99.98
0.81250	99.98
0.82917	99.98
0.84583	99.98
0.86250	99.98
0.87917	99.97
0.89583	99.98
0.91250	99.98
0.92917	99.98
0.94583	99.98
0.96250	99.98
0.97917	99.98
0.99583	99.98
1.01250	99.98
1.02917	99.98
1.04583	99.98
1.06250	99.98
1.07917	99.98
1.09583	99.98
1.11250	99.98
1.12917	99.98
1.14583	99.99
1.16250	99.99
1.17917	99.98
1.19583	99.98
1.21250	99.98
1.22917	99.99
1.24583	99.99
1.26250	99.99
1.27917	99.98
1.29583	99.98
1.31250	99.98
1.32917	99.98
1.34583	99.98
1.36250	99.98
1.37917	99.98
1.39583	99.98
1.41250	99.98
1.42917	99.99
1.44583	99.98
1.46250	99.99
1.47917	99.98
1.49583	99.98
1.51250	99.98
1.52917	99.98
1.54583	99.98
1.56250	99.98
1.57917	99.98
1.59583	99.98
1.61250	99.98
1.62917	99.98
1.64583	99.98
1.66250	99.98
1.67917	99.98
1.69583	99.99
1.71250	99.98
1.72917	99.99
1.74583	99.98
1.76250	99.98
1.77917	99.98
1.79583	99.98
1.81250	99.97
1.82917	99.98
1.84583	99.98
1.86250	99.98
1.87917	99.97
1.89583	99.97
1.91250	99.97
1.92917	99.97
1.94583	99.97
1.96250	99.97
1.97917	99.96
1.99583	99.97
2.01250	99.96
2.02917	99.97
2.04583	99.96
2.06250	99.96
2.07917	99.96
2.09583	99.96
2.11250	99.96
2.12917	99.96
2.14583	99.96
2.16250	99.96
2.17917	99.96
2.19583	99.96
2.21250	99.96
2.22917	99.96
2.24583	99.96
2.26250	99.96
2.27917	99.96
2.29583	99.96
2.31250	99.96
2.32917	99.96
2.34583	99.96
2.36250	99.96
2.37917	99.96
2.39583	99.97
2.41250	99.97
2.42917	99.96
2.44583	99.96
2.46250	99.97
2.47917	99.97
2.49583	99.97
2.51250	99.97
2.52917	99.97
2.54583	99.97
2.56250	99.97
2.57917	99.96
2.59583	99.98
2.61250	99.97
2.62917	99.98
2.64583	99.97
2.66250	99.98
2.67917	99.98
2.69583	99.98
2.71250	99.98
2.72917	99.98
2.74583	99.99
2.76250	99.99
2.77917	99.98
2.79583	99.99
2.81250	99.99
2.82917	99.99
2.84583	99.99
2.86250	99.99
2.87917	99.99
2.89583	99.99
2.91250	100.00
2.92917	99.99
2.94583	100.00
2.96250	100.00
2.97917	100.00
2.99583	100.01
3.01250	100.01
3.02917	100.01
3.04583	100.01
3.06250	100.00
3.07917	100.01
3.09583	100.01
3.11250	100.01
3.12917	100.02
3.14583	100.02
3.16250	100.02
3.17917	100.01
3.19583	100.02
3.21250	100.02
3.22917	100.02
3.24583	100.02
3.26250	100.02
3.27917	100.02
3.29583	100.02
3.31250	100.02
3.32917	100.02
3.34583	100.03
3.36250	100.02
3.37917	100.03
3.39583	100.02
3.41250	100.03
3.42917	100.03
3.44583	100.03
3.46250	100.03
3.47917	100.03
3.49583	100.03
3.51250	100.03
3.52917	100.03
3.54583	100.03
3.56250	100.03
3.57917	100.03
3.59583	100.04
3.61250	100.03
3.62917	100.03
3.64583	100.03
3.66250	100.04
3.67917	100.03
3.69583	100.03
3.71250	100.04
3.72917	100.04
3.74583	100.04
3.76250	100.03
3.77917	100.03
3.79583	100.03
3.81250	100.04
3.82917	100.03
3.84583	100.04
3.86250	100.03
3.87917	100.03
3.89583	100.04
3.91250	100.04
3.92917	100.04
3.94583	100.04
3.96250	100.04
3.97917	100.04
3.99583	100.04

[Status Trace (Carrier Gas Pressure)]
Interval(msec)	1000
# of Points	240
Start Time(min)	0.013
End Time(min)	3.996
Intensity Units	
Intensity Multiplier	1
R.Time (min)	Intensity
0.01250	57.96
0.02917	54.94
0.04583	57.72
0.06250	59.74
0.07917	58.94
0.09583	57.99
0.11250	57.99
0.12917	58.01
0.14583	58.01
0.16250	58.00
0.17917	58.00
0.19583	58.00
0.21250	58.00
0.22917	58.00
0.24583	58.00
0.26250	58.00
0.27917	58.00
0.29583	58.00
0.31250	58.00
0.32917	58.00
0.34583	58.00
0.36250	58.00
0.37917	58.00
0.39583	58.00
0.41250	58.00
0.42917	58.00
0.44583	58.00
0.46250	58.00
0.47917	58.00
0.49583	58.00
0.51250	58.00
0.52917	58.00
0.54583	58.00
0.56250	58.00
0.57917	58.00
0.59583	58.00
0.61250	58.00
0.62917	58.00
0.64583	58.00
0.66250	58.00
0.67917	58.00
0.69583	58.00
0.71250	58.00
0.72917	58.00
0.74583	58.00
0.76250	58.00
0.77917	58.00
0.79583	58.00
0.81250	58.00
0.82917	58.00
0.84583	58.00
0.86250	58.00
0.87917	58.00
0.89583	58.00
0.91250	58.00
0.92917	58.00
0.94583	58.00
0.96250	58.00
0.97917	58.00
0.99583	58.00
1.01250	58.00
1.02917	58.00
1.04583	58.00
1.06250	58.00
1.07917	58.00
1.09583	58.00
1.11250	58.00
1.12917	58.00
1.14583	58.00
1.16250	58.00
1.17917	58.00
1.19583	58.00
1.21250	58.00
1.22917	58.00
1.24583	58.00
1.26250	58.00
1.27917	58.00
1.29583	58.00
1.31250	58.00
1.32917	58.00
1.34583	58.00
1.36250	58.00
1.37917	58.00
1.39583	58.00
1.41250	58.00
1.42917	58.00
1.44583	58.00
1.46250	58.00
1.47917	58.00
1.49583	58.00
1.51250	58.00
1.52917	58.00
1.54583	58.00
1.56250	58.00
1.57917	58.00
1.59583	58.00
1.61250	58.00
1.62917	58.00
1.64583	58.00
1.66250	58.01
1.67917	58.01
1.69583	58.00
1.71250	58.00
1.72917	58.00
1.74583	58.00
1.76250	58.00
1.77917	58.00
1.79583	58.00
1.81250	58.00
1.82917	58.00
1.84583	58.00
1.86250	58.00
1.87917	58.00
1.89583	58.00
1.91250	58.00
1.92917	58.00
1.94583	58.00
1.96250	58.00
1.97917	58.00
1.99583	58.00
2.01250	58.00
2.02917	58.00
2.04583	58.00
2.06250	58.00
2.07917	58.00
2.09583	58.00
2.11250	58.00
2.12917	58.00
2.14583	58.00
2.16250	58.00
2.17917	58.00
2.19583	58.00
2.21250	58.00
2.22917	58.00
2.24583	58.00
2.26250	58.00
2.27917	58.00
2.29583	58.00
2.31250	58.00
2.32917	58.00
2.34583	58.00
2.36250	58.00
2.37917	58.00
2.39583	57.99
2.41250	57.99
2.42917	58.00
2.44583	58.00
2.46250	58.00
2.47917	58.00
2.49583	58.00
2.51250	57.99
2.52917	57.99
2.54583	58.00
2.56250	58.00
2.57917	58.00
2.59583	58.00
2.61250	58.00
2.62917	58.00
2.64583	58.00
2.66250	58.00
2.67917	58.00
2.69583	58.00
2.71250	58.00
2.72917	58.00
2.74583	58.00
2.76250	58.00
2.77917	58.00
2.79583	58.00
2.81250	58.00
2.82917	58.00
2.84583	58.00
2.86250	58.00
2.87917	58.00
2.89583	58.00
2.91250	58.00
2.92917	58.00
2.94583	58.00
2.96250	58.00
2.97917	58.00
2.99583	58.00
3.01250	58.00
3.02917	58.00
3.04583	58.00
3.06250	58.00
3.07917	58.00
3.09583	58.00
3.11250	58.00
3.12917	58.00
3.14583	58.00
3.16250	58.00
3.17917	58.00
3.19583	58.00
3.21250	58.00
3.22917	58.00
3.24583	58.00
3.26250	58.00
3.27917	58.00
3.29583	58.00
3.31250	58.00
3.32917	58.00
3.34583	58.00
3.36250	58.00
3.37917	58.00
3.39583	58.00
3.41250	58.00
3.42917	58.00
3.44583	58.00
3.46250	58.00
3.47917	58.00
3.49583	58.00
3.51250	58.00
3.52917	58.00
3.54583	58.00
3.56250	58.00
3.57917	58.00
3.59583	58.00
3.61250	58.00
3.62917	58.00
3.64583	58.00
3.66250	58.00
3.67917	58.00
3.69583	58.00
3.71250	58.00
3.72917	58.00
3.74583	58.00
3.76250	58.00
3.77917	58.00
3.79583	58.00
3.81250	58.00
3.82917	58.00
3.84583	58.00
3.86250	58.00
3.87917	58.00
3.89583	58.00
3.91250	58.00
3.92917	58.00
3.94583	58.00
3.96250	58.00
3.97917	58.00
3.99583	58.00

[Status Trace (Carrier Gas Flow)]
Interval(msec)	1000
# of Points	240
Start Time(min)	0.013
End Time(min)	3.996
Intensity Units	
Intensity Multiplier	1
R.Time (min)	Intensity
0.01250	34.65
0.02917	34.54
0.04583	34.54
0.06250	34.53
0.07917	34.51
0.09583	34.51
0.11250	34.52
0.12917	34.52
0.14583	34.52
0.16250	34.52
0.17917	34.52
0.19583	34.52
0.21250	34.51
0.22917	34.52
0.24583	34.51
0.26250	34.51
0.27917	34.53
0.29583	34.52
0.31250	34.51
0.32917	34.52
0.34583	34.51
0.36250	34.52
0.37917	34.51
0.39583	34.51
0.41250	34.53
0.42917	34.52
0.44583	34.51
0.46250	34.52
0.47917	34.52
0.49583	34.51
0.51250	34.52
0.52917	34.52
0.54583	34.51
0.56250	34.52
0.57917	34.52
0.59583	34.51
0.61250	34.52
0.62917	34.52
0.64583	34.52
0.66250	34.52
0.67917	34.52
0.69583	34.52
0.71250	34.51
0.72917	34.52
0.74583	34.51
0.76250	34.52
0.77917	34.52
0.79583	34.51
0.81250	34.52
0.82917	34.52
0.84583	34.52
0.86250	34.52
0.87917	34.52
0.89583	34.52
0.91250	34.52
0.92917	34.52
0.94583	34.52
0.96250	34.52
0.97917	34.52
0.99583	34.52
1.01250	34.52
1.02917	34.52
1.04583	34.52
1.06250	34.52
1.07917	34.51
1.09583	34.52
1.11250	34.53
1.12917	34.52
1.14583	34.52
1.16250	34.52
1.17917	34.52
1.19583	34.52
1.21250	34.52
1.22917	34.51
1.24583	34.52
1.26250	34.52
1.27917	34.52
1.29583	34.52
1.31250	34.52
1.32917	34.53
1.34583	34.52
1.36250	34.52
1.37917	34.52
1.39583	34.52
1.41250	34.52
1.42917	34.52
1.44583	34.52
1.46250	34.52
1.47917	34.52
1.49583	34.52
1.51250	34.52
1.52917	34.52
1.54583	34.52
1.56250	34.52
1.57917	34.52
1.59583	34.51
1.61250	34.52
1.62917	34.52
1.64583	34.52
1.66250	34.52
1.67917	34.52
1.69583	34.52
1.71250	34.52
1.72917	34.52
1.74583	34.52
1.76250	34.52
1.77917	34.52
1.79583	34.52
1.81250	34.52
1.82917	34.52
1.84583	34.52
1.86250	34.52
1.87917	34.52
1.89583	34.52
1.91250	34.52
1.92917	34.52
1.94583	34.52
1.96250	34.52
1.97917	34.52
1.99583	34.52
2.01250	34.52
2.02917	34.52
2.04583	34.52
2.06250	34.52
2.07917	34.52
2.09583	34.52
2.11250	34.52
2.12917	34.52
2.14583	34.52
2.16250	34.52
2.17917	34.52
2.19583	34.52
2.21250	34.52
2.22917	34.52
2.24583	34.52
2.26250	34.52
2.27917	34.52
2.29583	34.52
2.31250	34.52
2.32917	34.52
2.34583	34.52
2.36250	34.52
2.37917	34.52
2.39583	34.52
2.41250	34.52
2.42917	34.52
2.44583	34.52
2.46250	34.52
2.47917	34.52
2.49583	34.52
2.51250	34.52
2.52917	34.52
2.54583	34.52
2.56250	34.52
2.57917	34.52
2.59583	34.52
2.61250	34.53
2.62917	34.52
2.64583	34.51
2.66250	34.52
2.67917	34.52
2.69583	34.52
2.71250	34.52
2.72917	34.52
2.74583	34.52
2.76250	34.52
2.77917	34.52
2.79583	34.52
2.81250	34.52
2.82917	34.52
2.84583	34.52
2.86250	34.52
2.87917	34.52
2.89583	34.52
2.91250	34.52
2.92917	34.51
2.94583	34.52
2.96250	34.52
2.97917	34.52
2.99583	34.52
3.01250	34.52
3.02917	34.52
3.04583	34.52
3.06250	34.52
3.07917	34.52
3.09583	34.52
3.11250	34.52
3.12917	34.52
3.14583	34.52
3.16250	34.52
3.17917	34.52
3.19583	34.52
3.21250	34.52
3.22917	34.52
3.24583	34.52
3.26250	34.52
3.27917	34.52
3.29583	34.52
3.31250	34.52
3.32917	34.52
3.34583	34.52
3.36250	34.52
3.37917	34.52
3.39583	34.52
3.41250	34.52
3.42917	34.52
3.44583	34.52
3.46250	34.51
3.47917	34.52
3.49583	34.52
3.51250	34.53
3.52917	34.52
3.54583	34.52
3.56250	34.52
3.57917	34.52
3.59583	34.52
3.61250	34.52
3.62917	34.52
3.64583	34.52
3.66250	34.52
3.67917	34.52
3.69583	34.52
3.71250	34.52
3.72917	34.52
3.74583	34.52
3.76250	34.52
3.77917	34.52
3.79583	34.52
3.81250	34.52
3.82917	34.52
3.84583	34.52
3.86250	34.52
3.87917	34.52
3.89583	34.52
3.91250	34.52
3.92917	34.52
3.94583	34.52
3.96250	34.52
3.97917	34.52
3.99583	34.53

[Status Trace (Column Flow)]
Interval(msec)	1000
# of Points	240
Start Time(min)	0.013
End Time(min)	3.996
Intensity Units	
Intensity Multiplier	1
R.Time (min)	Intensity
0.01250	5.57
0.02917	5.22
0.04583	5.55
0.06250	5.79
0.07917	5.69
0.09583	5.58
0.11250	5.58
0.12917	5.58
0.14583	5.58
0.16250	5.58
0.17917	5.58
0.19583	5.58
0.21250	5.58
0.22917	5.58
0.24583	5.58
0.26250	5.58
0.27917	5.58
0.29583	5.58
0.31250	5.58
0.32917	5.58
0.34583	5.58
0.36250	5.58
0.37917	5.58
0.39583	5.58
0.41250	5.58
0.42917	5.58
0.44583	5.58
0.46250	5.58
0.47917	5.58
0.49583	5.58
0.51250	5.58
0.52917	5.58
0.54583	5.58
0.56250	5.58
0.57917	5.58
0.59583	5.58
0.61250	5.58
0.62917	5.58
0.64583	5.58
0.66250	5.58
0.67917	5.58
0.69583	5.58
0.71250	5.58
0.72917	5.58
0.74583	5.58
0.76250	5.58
0.77917	5.58
0.79583	5.58
0.81250	5.58
0.82917	5.58
0.84583	5.58
0.86250	5.58
0.87917	5.58
0.89583	5.58
0.91250	5.58
0.92917	5.58
0.94583	5.58
0.96250	5.58
0.97917	5.58
0.99583	5.58
1.01250	5.58
1.02917	5.58
1.04583	5.58
1.06250	5.58
1.07917	5.58
1.09583	5.58
1.11250	5.58
1.12917	5.58
1.14583	5.58
1.16250	5.58
1.17917	5.58
1.19583	5.58
1.21250	5.58
1.22917	5.58
1.24583	5.58
1.26250	5.58
1.27917	5.58
1.29583	5.58
1.31250	5.58
1.32917	5.58
1.34583	5.58
1.36250	5.58
1.37917	5.58
1.39583	5.58
1.41250	5.58
1.42917	5.58
1.44583	5.58
1.46250	5.58
1.47917	5.58
1.49583	5.58
1.51250	5.58
1.52917	5.58
1.54583	5.58
1.56250	5.58
1.57917	5.58
1.59583	5.58
1.61250	5.58
1.62917	5.57
1.64583	5.57
1.66250	5.56
1.67917	5.55
1.69583	5.54
1.71250	5.52
1.72917	5.51
1.74583	5.50
1.76250	5.49
1.77917	5.48
1.79583	5.47
1.81250	5.46
1.82917	5.45
1.84583	5.44
1.86250	5.43
1.87917	5.42
1.89583	5.41
1.91250	5.40
1.92917	5.39
1.94583	5.38
1.96250	5.37
1.97917	5.36
1.99583	5.35
2.01250	5.34
2.02917	5.34
2.04583	5.32
2.06250	5.31
2.07917	5.31
2.09583	5.30
2.11250	5.29
2.12917	5.28
2.14583	5.27
2.16250	5.26
2.17917	5.25
2.19583	5.24
2.21250	5.23
2.22917	5.22
2.24583	5.21
2.26250	5.20
2.27917	5.19
2.29583	5.18
2.31250	5.17
2.32917	5.16
2.34583	5.15
2.36250	5.15
2.37917	5.14
2.39583	5.14
2.41250	5.14
2.42917	5.14
2.44583	5.14
2.46250	5.14
2.47917	5.14
2.49583	5.14
2.51250	5.14
2.52917	5.14
2.54583	5.14
2.56250	5.14
2.57917	5.14
2.59583	5.14
2.61250	5.14
2.62917	5.14
2.64583	5.14
2.66250	5.14
2.67917	5.14
2.69583	5.14
2.71250	5.14
2.72917	5.14
2.74583	5.14
2.76250	5.14
2.77917	5.14
2.79583	5.14
2.81250	5.13
2.82917	5.13
2.84583	5.13
2.86250	5.13
2.87917	5.13
2.89583	5.13
2.91250	5.13
2.92917	5.13
2.94583	5.13
2.96250	5.13
2.97917	5.13
2.99583	5.13
3.01250	5.13
3.02917	5.13
3.04583	5.13
3.06250	5.13
3.07917	5.13
3.09583	5.13
3.11250	5.13
3.12917	5.13
3.14583	5.13
3.16250	5.13
3.17917	5.13
3.19583	5.13
3.21250	5.13
3.22917	5.13
3.24583	5.13
3.26250	5.13
3.27917	5.13
3.29583	5.13
3.31250	5.13
3.32917	5.13
3.34583	5.13
3.36250	5.13
3.37917	5.13
3.39583	5.13
3.41250	5.13
3.42917	5.13
3.44583	5.13
3.46250	5.13
3.47917	5.13
3.49583	5.13
3.51250	5.13
3.52917	5.13
3.54583	5.13
3.56250	5.13
3.57917	5.13
3.59583	5.13
3.61250	5.13
3.62917	5.13
3.64583	5.13
3.66250	5.13
3.67917	5.13
3.69583	5.13
3.71250	5.13
3.72917	5.13
3.74583	5.13
3.76250	5.13
3.77917	5.13
3.79583	5.13
3.81250	5.13
3.82917	5.13
3.84583	5.13
3.86250	5.13
3.87917	5.13
3.89583	5.13
3.91250	5.13
3.92917	5.13
3.94583	5.13
3.96250	5.13
3.97917	5.13
3.99583	5.13

[Status Trace (Linear Velocity)]
Interval(msec)	1000
# of Points	240
Start Time(min)	0.013
End Time(min)	3.996
Intensity Units	
Intensity Multiplier	1
R.Time (min)	Intensity
0.01250	39.00
0.02917	37.02
0.04583	38.84
0.06250	40.17
0.07917	39.64
0.09583	39.02
0.11250	39.02
0.12917	39.04
0.14583	39.04
0.16250	39.03
0.17917	39.03
0.19583	39.03
0.21250	39.03
0.22917	39.03
0.24583	39.03
0.26250	39.03
0.27917	39.03
0.29583	39.03
0.31250	39.03
0.32917	39.03
0.34583	39.03
0.36250	39.03
0.37917	39.03
0.39583	39.03
0.41250	39.03
0.42917	39.03
0.44583	39.03
0.46250	39.03
0.47917	39.03
0.49583	39.03
0.51250	39.03
0.52917	39.03
0.54583	39.03
0.56250	39.03
0.57917	39.03
0.59583	39.03
0.61250	39.03
0.62917	39.03
0.64583	39.03
0.66250	39.03
0.67917	39.03
0.69583	39.03
0.71250	39.03
0.72917	39.03
0.74583	39.03
0.76250	39.03
0.77917	39.03
0.79583	39.03
0.81250	39.03
0.82917	39.03
0.84583	39.03
0.86250	39.03
0.87917	39.03
0.89583	39.03
0.91250	39.03
0.92917	39.03
0.94583	39.03
0.96250	39.03
0.97917	39.03
0.99583	39.03
1.01250	39.03
1.02917	39.03
1.04583	39.03
1.06250	39.03
1.07917	39.03
1.09583	39.03
1.11250	39.03
1.12917	39.03
1.14583	39.03
1.16250	39.03
1.17917	39.03
1.19583	39.03
1.21250	39.03
1.22917	39.03
1.24583	39.03
1.26250	39.03
1.27917	39.03
1.29583	39.03
1.31250	39.03
1.32917	39.03
1.34583	39.03
1.36250	39.03
1.37917	39.03
1.39583	39.03
1.41250	39.03
1.42917	39.03
1.44583	39.03
1.46250	39.03
1.47917	39.03
1.49583	39.03
1.51250	39.03
1.52917	39.03
1.54583	39.03
1.56250	39.03
1.57917	39.03
1.59583	39.03
1.61250	39.02
1.62917	39.01
1.64583	38.99
1.66250	38.97
1.67917	38.94
1.69583	38.90
1.71250	38.86
1.72917	38.83
1.74583	38.80
1.76250	38.77
1.77917	38.74
1.79583	38.70
1.81250	38.67
1.82917	38.64
1.84583	38.61
1.86250	38.58
1.87917	38.55
1.89583	38.52
1.91250	38.49
1.92917	38.46
1.94583	38.43
1.96250	38.40
1.97917	38.37
1.99583	38.34
2.01250	38.31
2.02917	38.28
2.04583	38.25
2.06250	38.22
2.07917	38.19
2.09583	38.16
2.11250	38.13
2.12917	38.10
2.14583	38.07
2.16250	38.04
2.17917	38.01
2.19583	37.98
2.21250	37.95
2.22917	37.92
2.24583	37.89
2.26250	37.86
2.27917	37.83
2.29583	37.80
2.31250	37.77
2.32917	37.74
2.34583	37.71
2.36250	37.69
2.37917	37.67
2.39583	37.66
2.41250	37.66
2.42917	37.67
2.44583	37.67
2.46250	37.66
2.47917	37.66
2.49583	37.66
2.51250	37.66
2.52917	37.65
2.54583	37.66
2.56250	37.66
2.57917	37.66
2.59583	37.66
2.61250	37.66
2.62917	37.66
2.64583	37.66
2.66250	37.66
2.67917	37.66
2.69583	37.66
2.71250	37.66
2.72917	37.66
2.74583	37.66
2.76250	37.66
2.77917	37.66
2.79583	37.66
2.81250	37.65
2.82917	37.65
2.84583	37.65
2.86250	37.65
2.87917	37.65
2.89583	37.65
2.91250	37.65
2.92917	37.65
2.94583	37.65
2.96250	37.65
2.97917	37.65
2.99583	37.65
3.01250	37.65
3.02917	37.65
3.04583	37.65
3.06250	37.65
3.07917	37.65
3.09583	37.65
3.11250	37.65
3.12917	37.64
3.14583	37.64
3.16250	37.64
3.17917	37.64
3.19583	37.64
3.21250	37.64
3.22917	37.64
3.24583	37.64
3.26250	37.64
3.27917	37.64
3.29583	37.64
3.31250	37.64
3.32917	37.64
3.34583	37.64
3.36250	37.64
3.37917	37.64
3.39583	37.64
3.41250	37.64
3.42917	37.64
3.44583	37.64
3.46250	37.64
3.47917	37.64
3.49583	37.64
3.51250	37.64
3.52917	37.64
3.54583	37.64
3.56250	37.64
3.57917	37.64
3.59583	37.64
3.61250	37.64
3.62917	37.64
3.64583	37.64
3.66250	37.64
3.67917	37.64
3.69583	37.64
3.71250	37.64
3.72917	37.64
3.74583	37.64
3.76250	37.64
3.77917	37.64
3.79583	37.64
3.81250	37.64
3.82917	37.64
3.84583	37.64
3.86250	37.64
3.87917	37.64
3.89583	37.64
3.91250	37.64
3.92917	37.64
3.94583	37.64
3.96250	37.64
3.97917	37.64
3.99583	37.64

