[Header]
Application Name	LabSolutions
Version	5.110
Data File Name	C:\Users\User\Desktop\GC Analyses\Jack\Nachusa Grasslands Sampling\T0 Timepoint July 12th\T0_07122022_057.gcd
Output Date	3/14/2023
Output Time	3:40:37 PM

[File Information]
Type	Data File
Generated	3/7/2023 8:06:22 PM
Generated by	System Administrator
Modified	3/7/2023 8:13:02 PM
Modified by	System Administrator

[Sample Information]
Operator Name	System Administrator
Acquired	3/7/2023 8:09:01 PM
Sample Type	0:Unknown
Level	0
Sample Name	057
Sample ID	057
ISTD Amount1	1
ISTD Amount2	1
ISTD Amount3	1
ISTD Amount4	1
ISTD Amount5	1
ISTD Amount6	1
ISTD Amount7	1
ISTD Amount8	1
ISTD Amount9	1
ISTD Amount10	1
ISTD Amount11	1
ISTD Amount12	1
ISTD Amount13	1
ISTD Amount14	1
ISTD Amount15	1
ISTD Amount16	1
ISTD Amount17	1
ISTD Amount18	1
ISTD Amount19	1
ISTD Amount20	1
ISTD Amount21	1
ISTD Amount22	1
ISTD Amount23	1
ISTD Amount24	1
ISTD Amount25	1
ISTD Amount26	1
ISTD Amount27	1
ISTD Amount28	1
ISTD Amount29	1
ISTD Amount30	1
ISTD Amount31	1
ISTD Amount32	1
Sample Amount	1
Dilution Factor	1
Vial#	56
Injection Volume	1
Injection Count	1
Bar Code	

[Original Files]
Data File	C:\Users\User\Desktop\GC Analyses\Jack\Nachusa Grasslands Sampling\T0 Timepoint July 12th\T0_07122022_057.gcd
Method File	C:\LabSolutions\Data\GHG_4min_2022\ghg3_togas_w_acet_4 min_new_int.gcm
Batch File	C:\LabSolutions\Data\AutoSamplerTesting\T0_07122022.gcb
Report Format File	c:\LabSolutions\System\DEFAULT.lsr

[File Description]


[Configuration]
Instrument Name	C0B7VH3-Instrument1
Instrument #	1
Line #	1
# of Detectors	3
Detector ID	DET#1	DET#2	DET#3
Detector Name	FID	PTCD	ECD
# of Channels	1	1	1

[Peak Table(Ch1)]
# of Peaks	3
Peak#	R.Time	I.Time	F.Time	Area	Height	A/H	Conc.	Mark	ID#	Name	k'	Plate #	Plate Ht.	Tailing	Resolution	Sep.Factor	Area Ratio	Height Ratio	Conc. %	Norm Conc.
1	1.476	1.435	1.538	29063	13647	2.130	205.188	   	1	CO	0.000	9302	16.125	1.322	0.000	0.000	0	0	34.272	34.272
2	1.567	1.538	1.630	4892	2334	2.097	94.598	 V 	2	CH4	0.062	10170	14.749	0.000	1.486	0.000	0	0	15.800	15.800
3	1.996	1.949	2.444	1191052	562045	2.119	298.922	   	3	CO2	0.353	17240	8.701	1.300	6.977	5.680	0	0	49.928	49.928

[Peak Table(Ch2)]
# of Peaks	0

[Peak Table(Ch3)]
# of Peaks	6
Peak#	R.Time	I.Time	F.Time	Area	Height	A/H	Conc.	Mark	ID#	Name	k'	Plate #	Plate Ht.	Tailing	Resolution	Sep.Factor	Area Ratio	Height Ratio	Conc. %	Norm Conc.
1	0.863	0.614	1.131	271	18	14.863	0.000	   			0.000	1145	131.033	1.036	0.000	0.000	0	0	0.000	0.000
2	2.462	2.172	2.524	2049	399	5.133	0.000	   			1.852	6463	23.210	0.000	14.238	0.000	0	0	0.000	0.000
3	2.546	2.524	2.634	976	227	4.304	0.000	 V 			1.949	2703	55.499	0.000	0.530	1.053	0	0	0.000	0.000
4	2.737	2.649	2.759	557	107	5.180	0.014	   	1	N2O	2.170	44	3377.809	0.000	0.207	1.113	0	0	2.725	2.725
5	2.873	2.759	3.188	19874	4783	4.155	0.508	 V 	1	N2O	2.327	13086	11.463	1.709	0.156	1.072	0	0	97.275	97.275
6	3.327	3.199	3.995	12242	542	22.604	0.000	   	2	SF6	2.854	454	330.321	3.025	1.254	1.226	0	0	0.000	0.000

[Compound Results(Ch1)]
# of IDs	6
ID#	Name	R.Time	Area	Height	Conc.	Curve	3rd	2nd	1st	Constant	Area Ratio	Height Ratio	Conc. %	Norm Conc.
1	CO	1.476	29063	13647	205.188	Linear	0.000000e+00	0.000000e+00	1.416423e+002	0.000000e+00	0	0	34.272	34.272
2	CH4	1.567	4892	2334	94.598	Linear	0.000000e+00	0.000000e+00	5.171738e+001	0.000000e+00	0	0	15.800	15.800
3	CO2	1.996	1191052	562045	298.922	Linear	0.000000e+00	0.000000e+00	3.984494e+003	0.000000e+00	0	0	49.928	49.928
4	Ethylene	0.000	0	0	0.000	Linear	0.000000e+00	0.000000e+00	0.000000e+00	0.000000e+00	0	0	0.000	0.000
5	Acetylene	0.000	0	0	0.000	Linear	0.000000e+00	0.000000e+00	0.000000e+00	0.000000e+00	0	0	0.000	0.000
6	Ethane	0.000	0	0	0.000	Linear	0.000000e+00	0.000000e+00	0.000000e+00	0.000000e+00	0	0	0.000	0.000

[Compound Results(Ch2)]
# of IDs	5
ID#	Name	R.Time	Area	Height	Conc.	Curve	3rd	2nd	1st	Constant	Area Ratio	Height Ratio	Conc. %	Norm Conc.
1	Hydrogen	0.000	0	0	0.000	Linear	0.000000e+00	0.000000e+00	0.000000e+00	0.000000e+00	0	0	0.000	0.000
2	Oxygen	0.000	0	0	0.000	Linear	0.000000e+00	0.000000e+00	0.000000e+00	0.000000e+00	0	0	0.000	0.000
3	Nitrogen	0.000	0	0	0.000	Linear	0.000000e+00	0.000000e+00	0.000000e+00	0.000000e+00	0	0	0.000	0.000
4	Methane	0.000	0	0	0.000	Linear	0.000000e+00	0.000000e+00	0.000000e+00	0.000000e+00	0	0	0.000	0.000
5	Carbon Monoxide	0.000	0	0	0.000	Linear	0.000000e+00	0.000000e+00	0.000000e+00	0.000000e+00	0	0	0.000	0.000

[Compound Results(Ch3)]
# of IDs	2
ID#	Name	R.Time	Area	Height	Conc.	Curve	3rd	2nd	1st	Constant	Area Ratio	Height Ratio	Conc. %	Norm Conc.
1	N2O	2.873	20431	4890	0.522	Linear	0.000000e+00	0.000000e+00	3.915173e+004	0.000000e+00	0	0	100.000	100.000
2	SF6	3.327	12242	542	0.000	Linear	0.000000e+00	0.000000e+00	0.000000e+00	0.000000e+00	0	0	0.000	0.000

[Group Results(Ch1)]
# of Groups	0

[Group Results(Ch2)]
# of Groups	0

[Group Results(Ch3)]
# of Groups	0

[Chromatogram (Ch1)]
Interval(msec)	220
# of Points	1091
Start Time(min)	0.002
End Time(min)	3.998
R.Time (min)	Intensity
0.00167	10
0.00533	13
0.00900	16
0.01267	21
0.01633	26
0.02000	29
0.02367	30
0.02733	28
0.03100	26
0.03467	25
0.03833	25
0.04200	19
0.04567	14
0.04933	15
0.05300	15
0.05667	13
0.06033	11
0.06400	11
0.06767	12
0.07133	14
0.07500	17
0.07867	20
0.08233	23
0.08600	23
0.08967	20
0.09333	18
0.09700	14
0.10067	11
0.10433	7
0.10800	4
0.11167	7
0.11533	12
0.11900	16
0.12267	17
0.12633	18
0.13000	18
0.13367	19
0.13733	21
0.14100	26
0.14467	27
0.14833	23
0.15200	18
0.15567	14
0.15933	15
0.16300	20
0.16667	23
0.17033	24
0.17400	23
0.17767	24
0.18133	28
0.18500	31
0.18867	32
0.19233	32
0.19600	36
0.19967	42
0.20333	46
0.20700	48
0.21067	46
0.21433	45
0.21800	49
0.22167	54
0.22533	59
0.22900	64
0.23267	68
0.23633	72
0.24000	74
0.24367	78
0.24733	84
0.25100	88
0.25467	89
0.25833	90
0.26200	95
0.26567	103
0.26933	111
0.27300	118
0.27667	120
0.28033	116
0.28400	112
0.28767	109
0.29133	106
0.29500	99
0.29867	93
0.30233	89
0.30600	89
0.30967	94
0.31333	99
0.31700	102
0.32067	104
0.32433	104
0.32800	102
0.33167	99
0.33533	95
0.33900	89
0.34267	82
0.34633	72
0.35000	56
0.35367	43
0.35733	36
0.36100	33
0.36467	33
0.36833	34
0.37200	37
0.37567	39
0.37933	38
0.38300	36
0.38667	32
0.39033	29
0.39400	28
0.39767	31
0.40133	35
0.40500	40
0.40867	40
0.41233	39
0.41600	40
0.41967	44
0.42333	49
0.42700	53
0.43067	55
0.43433	52
0.43800	48
0.44167	44
0.44533	39
0.44900	35
0.45267	32
0.45633	29
0.46000	27
0.46367	23
0.46733	18
0.47100	16
0.47467	18
0.47833	21
0.48200	20
0.48567	16
0.48933	10
0.49300	5
0.49667	4
0.50033	10
0.50400	20
0.50767	29
0.51133	33
0.51500	29
0.51867	21
0.52233	14
0.52600	12
0.52967	13
0.53333	14
0.53700	13
0.54067	11
0.54433	11
0.54800	11
0.55167	12
0.55533	16
0.55900	24
0.56267	27
0.56633	23
0.57000	18
0.57367	16
0.57733	16
0.58100	17
0.58467	15
0.58833	10
0.59200	2
0.59567	-2
0.59933	-2
0.60300	1
0.60667	8
0.61033	16
0.61400	22
0.61767	24
0.62133	22
0.62500	19
0.62867	18
0.63233	18
0.63600	19
0.63967	15
0.64333	11
0.64700	10
0.65067	12
0.65433	13
0.65800	13
0.66167	17
0.66533	21
0.66900	24
0.67267	28
0.67633	30
0.68000	28
0.68367	27
0.68733	27
0.69100	25
0.69467	20
0.69833	15
0.70200	13
0.70567	10
0.70933	4
0.71300	0
0.71667	-2
0.72033	-4
0.72400	-5
0.72767	-3
0.73133	-0
0.73500	3
0.73867	6
0.74233	7
0.74600	8
0.74967	13
0.75333	21
0.75700	25
0.76067	25
0.76433	22
0.76800	20
0.77167	23
0.77533	28
0.77900	31
0.78267	30
0.78633	28
0.79000	25
0.79367	21
0.79733	18
0.80100	18
0.80467	17
0.80833	14
0.81200	9
0.81567	6
0.81933	6
0.82300	9
0.82667	13
0.83033	16
0.83400	16
0.83767	13
0.84133	12
0.84500	14
0.84867	18
0.85233	18
0.85600	14
0.85967	9
0.86333	7
0.86700	7
0.87067	6
0.87433	6
0.87800	7
0.88167	7
0.88533	4
0.88900	2
0.89267	4
0.89633	9
0.90000	14
0.90367	17
0.90733	16
0.91100	11
0.91467	7
0.91833	5
0.92200	3
0.92567	-0
0.92933	-2
0.93300	-4
0.93667	-6
0.94033	-10
0.94400	-11
0.94767	-2
0.95133	8
0.95500	18
0.95867	24
0.96233	23
0.96600	17
0.96967	11
0.97333	7
0.97700	5
0.98067	0
0.98433	-5
0.98800	-10
0.99167	-15
0.99533	-22
0.99900	-26
1.00267	-23
1.00633	-17
1.01000	-13
1.01367	-12
1.01733	-10
1.02100	-9
1.02467	-8
1.02833	-7
1.03200	-2
1.03567	3
1.03933	8
1.04300	9
1.04667	7
1.05033	2
1.05400	-3
1.05767	-5
1.06133	-9
1.06500	-14
1.06867	-16
1.07233	-12
1.07600	-6
1.07967	-1
1.08333	2
1.08700	4
1.09067	5
1.09433	1
1.09800	-4
1.10167	-6
1.10533	-5
1.10900	-2
1.11267	-1
1.11633	-1
1.12000	-5
1.12367	-15
1.12733	-23
1.13100	-23
1.13467	-20
1.13833	-16
1.14200	-10
1.14567	-3
1.14933	3
1.15300	5
1.15667	1
1.16033	-7
1.16400	-16
1.16767	-26
1.17133	-29
1.17500	-30
1.17867	-29
1.18233	-30
1.18600	-30
1.18967	-24
1.19333	-17
1.19700	-12
1.20067	-13
1.20433	-16
1.20800	-17
1.21167	-18
1.21533	-19
1.21900	-19
1.22267	-19
1.22633	-22
1.23000	-24
1.23367	-28
1.23733	-31
1.24100	-31
1.24467	-28
1.24833	-27
1.25200	-28
1.25567	-31
1.25933	-34
1.26300	-36
1.26667	-38
1.27033	-37
1.27400	-35
1.27767	-31
1.28133	-27
1.28500	-25
1.28867	-23
1.29233	-19
1.29600	-11
1.29967	-2
1.30333	3
1.30700	6
1.31067	4
1.31433	-2
1.31800	-9
1.32167	-15
1.32533	-19
1.32900	-20
1.33267	-18
1.33633	-14
1.34000	-10
1.34367	-1
1.34733	9
1.35100	17
1.35467	15
1.35833	7
1.36200	-5
1.36567	-21
1.36933	-38
1.37300	-51
1.37667	-57
1.38033	-55
1.38400	-51
1.38767	-45
1.39133	-37
1.39500	-27
1.39867	-17
1.40233	-10
1.40600	-9
1.40967	-13
1.41333	-21
1.41700	-31
1.42067	-42
1.42433	-49
1.42800	-53
1.43167	-51
1.43533	-39
1.43900	-4
1.44267	99
1.44633	341
1.45000	923
1.45367	2262
1.45733	4465
1.46100	7095
1.46467	9590
1.46833	11609
1.47200	12996
1.47567	13632
1.47933	13401
1.48300	12300
1.48667	10538
1.49033	8487
1.49400	6511
1.49767	4826
1.50133	3504
1.50500	2523
1.50867	1819
1.51233	1323
1.51600	976
1.51967	737
1.52333	574
1.52700	463
1.53067	385
1.53433	331
1.53800	307
1.54167	348
1.54533	510
1.54900	821
1.55267	1230
1.55633	1643
1.56000	1991
1.56367	2241
1.56733	2370
1.57100	2346
1.57467	2159
1.57833	1842
1.58200	1469
1.58567	1113
1.58933	815
1.59300	588
1.59667	426
1.60033	313
1.60400	236
1.60767	183
1.61133	149
1.61500	125
1.61867	104
1.62233	87
1.62600	77
1.62967	71
1.63333	69
1.63700	65
1.64067	59
1.64433	53
1.64800	47
1.65167	39
1.65533	33
1.65900	30
1.66267	33
1.66633	38
1.67000	39
1.67367	34
1.67733	28
1.68100	26
1.68467	26
1.68833	25
1.69200	25
1.69567	27
1.69933	31
1.70300	33
1.70667	34
1.71033	35
1.71400	36
1.71767	36
1.72133	37
1.72500	37
1.72867	38
1.73233	38
1.73600	38
1.73967	39
1.74333	38
1.74700	32
1.75067	25
1.75433	21
1.75800	23
1.76167	26
1.76533	24
1.76900	21
1.77267	15
1.77633	10
1.78000	8
1.78367	7
1.78733	7
1.79100	8
1.79467	10
1.79833	13
1.80200	17
1.80567	19
1.80933	20
1.81300	22
1.81667	23
1.82033	25
1.82400	29
1.82767	32
1.83133	30
1.83500	27
1.83867	23
1.84233	20
1.84600	16
1.84967	14
1.85333	14
1.85700	15
1.86067	18
1.86433	20
1.86800	22
1.87167	24
1.87533	27
1.87900	31
1.88267	34
1.88633	34
1.89000	33
1.89367	31
1.89733	32
1.90100	32
1.90467	30
1.90833	29
1.91200	28
1.91567	29
1.91933	30
1.92300	31
1.92667	34
1.93033	37
1.93400	41
1.93767	45
1.94133	48
1.94500	52
1.94867	56
1.95233	74
1.95600	185
1.95967	803
1.96333	3538
1.96700	12765
1.97067	36653
1.97433	84873
1.97800	161882
1.98167	261165
1.98533	366964
1.98900	461279
1.99267	529485
1.99633	562131
2.00000	554974
2.00367	510781
2.00733	439685
2.01100	356080
2.01467	273753
2.01833	202043
2.02200	144882
2.02567	102123
2.02933	71521
2.03300	50256
2.03667	35742
2.04033	25919
2.04400	19280
2.04767	14766
2.05133	11657
2.05500	9476
2.05867	7915
2.06233	6770
2.06600	5910
2.06967	5247
2.07333	4722
2.07700	4293
2.08067	3929
2.08433	3614
2.08800	3344
2.09167	3113
2.09533	2916
2.09900	2742
2.10267	2587
2.10633	2450
2.11000	2330
2.11367	2224
2.11733	2127
2.12100	2034
2.12467	1944
2.12833	1856
2.13200	1774
2.13567	1699
2.13933	1631
2.14300	1571
2.14667	1520
2.15033	1475
2.15400	1434
2.15767	1392
2.16133	1351
2.16500	1310
2.16867	1270
2.17233	1229
2.17600	1191
2.17967	1158
2.18333	1130
2.18700	1108
2.19067	1087
2.19433	1063
2.19800	1035
2.20167	1008
2.20533	985
2.20900	965
2.21267	943
2.21633	919
2.22000	897
2.22367	874
2.22733	851
2.23100	831
2.23467	816
2.23833	803
2.24200	789
2.24567	773
2.24933	756
2.25300	739
2.25667	721
2.26033	702
2.26400	681
2.26767	663
2.27133	650
2.27500	643
2.27867	641
2.28233	638
2.28600	631
2.28967	627
2.29333	625
2.29700	625
2.30067	625
2.30433	617
2.30800	606
2.31167	593
2.31533	583
2.31900	575
2.32267	566
2.32633	557
2.33000	551
2.33367	545
2.33733	540
2.34100	536
2.34467	532
2.34833	531
2.35200	529
2.35567	527
2.35933	521
2.36300	511
2.36667	501
2.37033	491
2.37400	482
2.37767	477
2.38133	475
2.38500	473
2.38867	472
2.39233	470
2.39600	472
2.39967	476
2.40333	475
2.40700	470
2.41067	461
2.41433	455
2.41800	449
2.42167	438
2.42533	423
2.42900	406
2.43267	390
2.43633	380
2.44000	376
2.44367	372
2.44733	374
2.45100	378
2.45467	381
2.45833	383
2.46200	383
2.46567	380
2.46933	376
2.47300	374
2.47667	374
2.48033	376
2.48400	376
2.48767	377
2.49133	378
2.49500	380
2.49867	382
2.50233	382
2.50600	378
2.50967	373
2.51333	369
2.51700	367
2.52067	367
2.52433	369
2.52800	371
2.53167	375
2.53533	379
2.53900	381
2.54267	376
2.54633	367
2.55000	357
2.55367	349
2.55733	345
2.56100	345
2.56467	347
2.56833	351
2.57200	354
2.57567	357
2.57933	357
2.58300	357
2.58667	357
2.59033	353
2.59400	350
2.59767	345
2.60133	343
2.60500	344
2.60867	346
2.61233	340
2.61600	324
2.61967	308
2.62333	296
2.62700	285
2.63067	276
2.63433	270
2.63800	270
2.64167	277
2.64533	286
2.64900	296
2.65267	304
2.65633	309
2.66000	309
2.66367	307
2.66733	304
2.67100	302
2.67467	300
2.67833	296
2.68200	291
2.68567	289
2.68933	291
2.69300	295
2.69667	299
2.70033	304
2.70400	307
2.70767	308
2.71133	308
2.71500	307
2.71867	309
2.72233	315
2.72600	321
2.72967	325
2.73333	325
2.73700	320
2.74067	315
2.74433	311
2.74800	308
2.75167	307
2.75533	307
2.75900	311
2.76267	314
2.76633	311
2.77000	306
2.77367	300
2.77733	294
2.78100	290
2.78467	287
2.78833	288
2.79200	291
2.79567	293
2.79933	291
2.80300	288
2.80667	291
2.81033	296
2.81400	303
2.81767	310
2.82133	313
2.82500	311
2.82867	306
2.83233	301
2.83600	302
2.83967	305
2.84333	308
2.84700	308
2.85067	307
2.85433	306
2.85800	306
2.86167	304
2.86533	299
2.86900	292
2.87267	286
2.87633	283
2.88000	285
2.88367	289
2.88733	293
2.89100	294
2.89467	293
2.89833	292
2.90200	290
2.90567	286
2.90933	281
2.91300	277
2.91667	276
2.92033	278
2.92400	281
2.92767	283
2.93133	284
2.93500	286
2.93867	287
2.94233	286
2.94600	282
2.94967	280
2.95333	279
2.95700	282
2.96067	288
2.96433	299
2.96800	308
2.97167	312
2.97533	309
2.97900	304
2.98267	298
2.98633	295
2.99000	298
2.99367	300
2.99733	297
3.00100	291
3.00467	289
3.00833	291
3.01200	291
3.01567	286
3.01933	278
3.02300	267
3.02667	255
3.03033	247
3.03400	245
3.03767	244
3.04133	242
3.04500	242
3.04867	246
3.05233	249
3.05600	251
3.05967	257
3.06333	266
3.06700	273
3.07067	274
3.07433	271
3.07800	269
3.08167	269
3.08533	273
3.08900	278
3.09267	281
3.09633	282
3.10000	282
3.10367	281
3.10733	279
3.11100	274
3.11467	269
3.11833	265
3.12200	260
3.12567	255
3.12933	253
3.13300	252
3.13667	250
3.14033	250
3.14400	250
3.14767	253
3.15133	259
3.15500	264
3.15867	264
3.16233	264
3.16600	267
3.16967	271
3.17333	274
3.17700	274
3.18067	272
3.18433	270
3.18800	270
3.19167	268
3.19533	265
3.19900	259
3.20267	253
3.20633	251
3.21000	253
3.21367	255
3.21733	255
3.22100	256
3.22467	258
3.22833	260
3.23200	260
3.23567	259
3.23933	260
3.24300	262
3.24667	262
3.25033	259
3.25400	254
3.25767	248
3.26133	243
3.26500	241
3.26867	242
3.27233	243
3.27600	243
3.27967	243
3.28333	245
3.28700	250
3.29067	252
3.29433	248
3.29800	244
3.30167	241
3.30533	240
3.30900	237
3.31267	235
3.31633	235
3.32000	240
3.32367	243
3.32733	244
3.33100	245
3.33467	244
3.33833	244
3.34200	246
3.34567	250
3.34933	247
3.35300	241
3.35667	235
3.36033	233
3.36400	234
3.36767	238
3.37133	237
3.37500	231
3.37867	225
3.38233	220
3.38600	217
3.38967	218
3.39333	220
3.39700	223
3.40067	225
3.40433	228
3.40800	232
3.41167	237
3.41533	241
3.41900	241
3.42267	236
3.42633	232
3.43000	233
3.43367	235
3.43733	236
3.44100	236
3.44467	238
3.44833	240
3.45200	238
3.45567	233
3.45933	228
3.46300	223
3.46667	219
3.47033	217
3.47400	214
3.47767	214
3.48133	217
3.48500	219
3.48867	219
3.49233	222
3.49600	229
3.49967	233
3.50333	231
3.50700	228
3.51067	226
3.51433	230
3.51800	229
3.52167	226
3.52533	223
3.52900	220
3.53267	213
3.53633	205
3.54000	200
3.54367	194
3.54733	189
3.55100	187
3.55467	191
3.55833	200
3.56200	209
3.56567	217
3.56933	220
3.57300	216
3.57667	210
3.58033	201
3.58400	193
3.58767	185
3.59133	177
3.59500	175
3.59867	176
3.60233	178
3.60600	180
3.60967	182
3.61333	183
3.61700	186
3.62067	193
3.62433	202
3.62800	210
3.63167	214
3.63533	216
3.63900	214
3.64267	206
3.64633	195
3.65000	187
3.65367	183
3.65733	181
3.66100	179
3.66467	177
3.66833	174
3.67200	172
3.67567	170
3.67933	166
3.68300	164
3.68667	168
3.69033	174
3.69400	178
3.69767	180
3.70133	182
3.70500	185
3.70867	189
3.71233	192
3.71600	195
3.71967	196
3.72333	194
3.72700	189
3.73067	183
3.73433	177
3.73800	170
3.74167	165
3.74533	163
3.74900	163
3.75267	165
3.75633	165
3.76000	168
3.76367	174
3.76733	182
3.77100	186
3.77467	187
3.77833	185
3.78200	184
3.78567	185
3.78933	187
3.79300	187
3.79667	186
3.80033	185
3.80400	179
3.80767	170
3.81133	159
3.81500	151
3.81867	147
3.82233	149
3.82600	152
3.82967	153
3.83333	156
3.83700	162
3.84067	164
3.84433	163
3.84800	163
3.85167	167
3.85533	173
3.85900	176
3.86267	176
3.86633	171
3.87000	162
3.87367	152
3.87733	144
3.88100	140
3.88467	142
3.88833	148
3.89200	154
3.89567	157
3.89933	157
3.90300	155
3.90667	153
3.91033	152
3.91400	152
3.91767	151
3.92133	149
3.92500	148
3.92867	148
3.93233	148
3.93600	152
3.93967	158
3.94333	160
3.94700	158
3.95067	160
3.95433	162
3.95800	161
3.96167	157
3.96533	151
3.96900	145
3.97267	142
3.97633	141
3.98000	141
3.98367	140
3.98733	138
3.99100	135
3.99467	133
3.99833	133

[Chromatogram (Ch2)]
Interval(msec)	220
# of Points	1091
Start Time(min)	0.002
End Time(min)	3.998
R.Time (min)	Intensity
0.00167	-0
0.00533	-0
0.00900	-0
0.01267	0
0.01633	0
0.02000	0
0.02367	1
0.02733	1
0.03100	1
0.03467	1
0.03833	1
0.04200	1
0.04567	0
0.04933	0
0.05300	0
0.05667	1
0.06033	1
0.06400	1
0.06767	1
0.07133	1
0.07500	2
0.07867	2
0.08233	2
0.08600	2
0.08967	2
0.09333	2
0.09700	2
0.10067	2
0.10433	2
0.10800	2
0.11167	2
0.11533	2
0.11900	2
0.12267	2
0.12633	2
0.13000	3
0.13367	3
0.13733	3
0.14100	3
0.14467	4
0.14833	4
0.15200	4
0.15567	4
0.15933	4
0.16300	4
0.16667	4
0.17033	5
0.17400	5
0.17767	5
0.18133	5
0.18500	5
0.18867	5
0.19233	5
0.19600	5
0.19967	5
0.20333	4
0.20700	4
0.21067	3
0.21433	3
0.21800	2
0.22167	1
0.22533	1
0.22900	1
0.23267	1
0.23633	1
0.24000	1
0.24367	1
0.24733	1
0.25100	2
0.25467	2
0.25833	2
0.26200	2
0.26567	2
0.26933	2
0.27300	2
0.27667	2
0.28033	2
0.28400	1
0.28767	1
0.29133	1
0.29500	1
0.29867	1
0.30233	1
0.30600	1
0.30967	0
0.31333	0
0.31700	0
0.32067	-0
0.32433	-0
0.32800	-0
0.33167	0
0.33533	0
0.33900	0
0.34267	0
0.34633	1
0.35000	1
0.35367	1
0.35733	1
0.36100	2
0.36467	2
0.36833	2
0.37200	2
0.37567	2
0.37933	2
0.38300	2
0.38667	2
0.39033	2
0.39400	2
0.39767	2
0.40133	2
0.40500	2
0.40867	1
0.41233	1
0.41600	1
0.41967	1
0.42333	1
0.42700	1
0.43067	1
0.43433	1
0.43800	1
0.44167	1
0.44533	1
0.44900	0
0.45267	0
0.45633	0
0.46000	-0
0.46367	-0
0.46733	-0
0.47100	-0
0.47467	0
0.47833	0
0.48200	0
0.48567	0
0.48933	1
0.49300	1
0.49667	1
0.50033	1
0.50400	1
0.50767	1
0.51133	1
0.51500	2
0.51867	2
0.52233	2
0.52600	2
0.52967	2
0.53333	2
0.53700	3
0.54067	3
0.54433	3
0.54800	3
0.55167	2
0.55533	2
0.55900	2
0.56267	1
0.56633	1
0.57000	0
0.57367	0
0.57733	-0
0.58100	-0
0.58467	-0
0.58833	0
0.59200	0
0.59567	0
0.59933	1
0.60300	1
0.60667	2
0.61033	2
0.61400	2
0.61767	2
0.62133	3
0.62500	3
0.62867	3
0.63233	3
0.63600	3
0.63967	4
0.64333	4
0.64700	4
0.65067	4
0.65433	4
0.65800	4
0.66167	4
0.66533	4
0.66900	4
0.67267	3
0.67633	3
0.68000	2
0.68367	2
0.68733	2
0.69100	1
0.69467	1
0.69833	-0
0.70200	-1
0.70567	-1
0.70933	-1
0.71300	-1
0.71667	-2
0.72033	-2
0.72400	-2
0.72767	-1
0.73133	-1
0.73500	-0
0.73867	0
0.74233	1
0.74600	1
0.74967	1
0.75333	1
0.75700	1
0.76067	1
0.76433	1
0.76800	1
0.77167	1
0.77533	0
0.77900	0
0.78267	0
0.78633	0
0.79000	0
0.79367	0
0.79733	1
0.80100	1
0.80467	1
0.80833	1
0.81200	1
0.81567	1
0.81933	1
0.82300	1
0.82667	1
0.83033	1
0.83400	1
0.83767	1
0.84133	2
0.84500	2
0.84867	2
0.85233	2
0.85600	2
0.85967	3
0.86333	3
0.86700	3
0.87067	2
0.87433	3
0.87800	3
0.88167	3
0.88533	3
0.88900	3
0.89267	2
0.89633	2
0.90000	2
0.90367	2
0.90733	2
0.91100	1
0.91467	1
0.91833	1
0.92200	1
0.92567	0
0.92933	0
0.93300	0
0.93667	0
0.94033	0
0.94400	0
0.94767	0
0.95133	1
0.95500	1
0.95867	1
0.96233	1
0.96600	2
0.96967	2
0.97333	2
0.97700	3
0.98067	3
0.98433	4
0.98800	4
0.99167	4
0.99533	4
0.99900	4
1.00267	4
1.00633	4
1.01000	4
1.01367	3
1.01733	3
1.02100	3
1.02467	3
1.02833	3
1.03200	3
1.03567	3
1.03933	3
1.04300	2
1.04667	2
1.05033	2
1.05400	2
1.05767	2
1.06133	2
1.06500	1
1.06867	1
1.07233	0
1.07600	-0
1.07967	-0
1.08333	-1
1.08700	-1
1.09067	-1
1.09433	-1
1.09800	-1
1.10167	-1
1.10533	-1
1.10900	-1
1.11267	-1
1.11633	-1
1.12000	-1
1.12367	-1
1.12733	-2
1.13100	-2
1.13467	-3
1.13833	-3
1.14200	-3
1.14567	-3
1.14933	-3
1.15300	-2
1.15667	-2
1.16033	-2
1.16400	-1
1.16767	-1
1.17133	-0
1.17500	-0
1.17867	0
1.18233	1
1.18600	1
1.18967	1
1.19333	1
1.19700	1
1.20067	1
1.20433	1
1.20800	1
1.21167	2
1.21533	2
1.21900	2
1.22267	2
1.22633	2
1.23000	1
1.23367	1
1.23733	1
1.24100	1
1.24467	1
1.24833	1
1.25200	0
1.25567	-0
1.25933	-0
1.26300	-1
1.26667	-1
1.27033	-2
1.27400	-2
1.27767	-2
1.28133	-2
1.28500	-2
1.28867	-2
1.29233	-2
1.29600	-2
1.29967	-2
1.30333	-2
1.30700	-2
1.31067	-2
1.31433	-2
1.31800	-2
1.32167	-2
1.32533	-1
1.32900	-1
1.33267	-0
1.33633	-0
1.34000	0
1.34367	0
1.34733	0
1.35100	0
1.35467	-0
1.35833	-0
1.36200	-0
1.36567	-1
1.36933	-1
1.37300	-1
1.37667	-1
1.38033	-1
1.38400	-1
1.38767	-1
1.39133	-2
1.39500	-2
1.39867	-2
1.40233	-2
1.40600	-2
1.40967	-1
1.41333	-1
1.41700	-1
1.42067	-1
1.42433	-0
1.42800	-0
1.43167	-0
1.43533	-0
1.43900	-0
1.44267	0
1.44633	0
1.45000	0
1.45367	0
1.45733	0
1.46100	0
1.46467	0
1.46833	0
1.47200	1
1.47567	1
1.47933	1
1.48300	1
1.48667	1
1.49033	1
1.49400	1
1.49767	1
1.50133	0
1.50500	0
1.50867	-0
1.51233	-0
1.51600	-0
1.51967	-1
1.52333	-1
1.52700	-1
1.53067	-1
1.53433	-0
1.53800	0
1.54167	0
1.54533	1
1.54900	1
1.55267	1
1.55633	1
1.56000	2
1.56367	2
1.56733	2
1.57100	2
1.57467	2
1.57833	2
1.58200	2
1.58567	2
1.58933	2
1.59300	1
1.59667	0
1.60033	-1
1.60400	-3
1.60767	-4
1.61133	-6
1.61500	-9
1.61867	-11
1.62233	-14
1.62600	-17
1.62967	-19
1.63333	-23
1.63700	-26
1.64067	-30
1.64433	-34
1.64800	-38
1.65167	-42
1.65533	-46
1.65900	-50
1.66267	-55
1.66633	-60
1.67000	-65
1.67367	-70
1.67733	-75
1.68100	-80
1.68467	-84
1.68833	-88
1.69200	-91
1.69567	-94
1.69933	-97
1.70300	-99
1.70667	-101
1.71033	-103
1.71400	-104
1.71767	-106
1.72133	-107
1.72500	-108
1.72867	-109
1.73233	-109
1.73600	-109
1.73967	-109
1.74333	-109
1.74700	-108
1.75067	-108
1.75433	-108
1.75800	-108
1.76167	-108
1.76533	-108
1.76900	-109
1.77267	-110
1.77633	-111
1.78000	-112
1.78367	-113
1.78733	-114
1.79100	-114
1.79467	-115
1.79833	-115
1.80200	-115
1.80567	-116
1.80933	-115
1.81300	-115
1.81667	-115
1.82033	-115
1.82400	-115
1.82767	-115
1.83133	-116
1.83500	-116
1.83867	-117
1.84233	-117
1.84600	-116
1.84967	-116
1.85333	-115
1.85700	-115
1.86067	-115
1.86433	-115
1.86800	-115
1.87167	-115
1.87533	-115
1.87900	-116
1.88267	-116
1.88633	-116
1.89000	-116
1.89367	-116
1.89733	-116
1.90100	-116
1.90467	-116
1.90833	-116
1.91200	-115
1.91567	-115
1.91933	-114
1.92300	-114
1.92667	-114
1.93033	-113
1.93400	-113
1.93767	-113
1.94133	-113
1.94500	-113
1.94867	-113
1.95233	-113
1.95600	-112
1.95967	-111
1.96333	-111
1.96700	-110
1.97067	-110
1.97433	-110
1.97800	-109
1.98167	-109
1.98533	-108
1.98900	-108
1.99267	-108
1.99633	-108
2.00000	-107
2.00367	-107
2.00733	-107
2.01100	-107
2.01467	-107
2.01833	-106
2.02200	-106
2.02567	-106
2.02933	-106
2.03300	-106
2.03667	-106
2.04033	-106
2.04400	-106
2.04767	-106
2.05133	-106
2.05500	-106
2.05867	-106
2.06233	-105
2.06600	-105
2.06967	-104
2.07333	-104
2.07700	-104
2.08067	-103
2.08433	-103
2.08800	-102
2.09167	-102
2.09533	-101
2.09900	-101
2.10267	-100
2.10633	-100
2.11000	-99
2.11367	-99
2.11733	-99
2.12100	-99
2.12467	-98
2.12833	-98
2.13200	-98
2.13567	-98
2.13933	-98
2.14300	-99
2.14667	-99
2.15033	-100
2.15400	-99
2.15767	-99
2.16133	-98
2.16500	-97
2.16867	-96
2.17233	-95
2.17600	-94
2.17967	-93
2.18333	-93
2.18700	-93
2.19067	-93
2.19433	-93
2.19800	-92
2.20167	-91
2.20533	-90
2.20900	-89
2.21267	-89
2.21633	-88
2.22000	-88
2.22367	-88
2.22733	-88
2.23100	-88
2.23467	-89
2.23833	-90
2.24200	-90
2.24567	-91
2.24933	-92
2.25300	-92
2.25667	-92
2.26033	-92
2.26400	-91
2.26767	-90
2.27133	-89
2.27500	-89
2.27867	-88
2.28233	-87
2.28600	-86
2.28967	-86
2.29333	-86
2.29700	-87
2.30067	-87
2.30433	-86
2.30800	-85
2.31167	-84
2.31533	-83
2.31900	-82
2.32267	-82
2.32633	-81
2.33000	-80
2.33367	-80
2.33733	-79
2.34100	-79
2.34467	-78
2.34833	-77
2.35200	-76
2.35567	-75
2.35933	-74
2.36300	-74
2.36667	-72
2.37033	-71
2.37400	-68
2.37767	-66
2.38133	-63
2.38500	-59
2.38867	-55
2.39233	-51
2.39600	-47
2.39967	-43
2.40333	-39
2.40700	-35
2.41067	-31
2.41433	-28
2.41800	-25
2.42167	-22
2.42533	-20
2.42900	-18
2.43267	-16
2.43633	-15
2.44000	-13
2.44367	-11
2.44733	-9
2.45100	-7
2.45467	-6
2.45833	-4
2.46200	-3
2.46567	-2
2.46933	-0
2.47300	1
2.47667	3
2.48033	4
2.48400	6
2.48767	7
2.49133	8
2.49500	8
2.49867	9
2.50233	9
2.50600	9
2.50967	10
2.51333	11
2.51700	12
2.52067	12
2.52433	13
2.52800	13
2.53167	14
2.53533	15
2.53900	16
2.54267	16
2.54633	17
2.55000	17
2.55367	18
2.55733	18
2.56100	18
2.56467	18
2.56833	18
2.57200	18
2.57567	18
2.57933	19
2.58300	19
2.58667	19
2.59033	18
2.59400	18
2.59767	18
2.60133	18
2.60500	18
2.60867	18
2.61233	18
2.61600	18
2.61967	19
2.62333	19
2.62700	20
2.63067	20
2.63433	20
2.63800	20
2.64167	20
2.64533	20
2.64900	20
2.65267	20
2.65633	20
2.66000	20
2.66367	21
2.66733	21
2.67100	21
2.67467	22
2.67833	22
2.68200	22
2.68567	23
2.68933	23
2.69300	23
2.69667	24
2.70033	24
2.70400	24
2.70767	24
2.71133	24
2.71500	23
2.71867	23
2.72233	23
2.72600	23
2.72967	24
2.73333	24
2.73700	25
2.74067	25
2.74433	25
2.74800	26
2.75167	26
2.75533	27
2.75900	27
2.76267	28
2.76633	28
2.77000	28
2.77367	28
2.77733	29
2.78100	29
2.78467	28
2.78833	28
2.79200	27
2.79567	27
2.79933	26
2.80300	26
2.80667	26
2.81033	25
2.81400	25
2.81767	26
2.82133	26
2.82500	26
2.82867	26
2.83233	26
2.83600	26
2.83967	24
2.84333	21
2.84700	16
2.85067	9
2.85433	-2
2.85800	-16
2.86167	-34
2.86533	-56
2.86900	-82
2.87267	-113
2.87633	-148
2.88000	-186
2.88367	-228
2.88733	-272
2.89100	-320
2.89467	-369
2.89833	-420
2.90200	-473
2.90567	-526
2.90933	-579
2.91300	-633
2.91667	-686
2.92033	-738
2.92400	-789
2.92767	-840
2.93133	-893
2.93500	-951
2.93867	-1011
2.94233	-1063
2.94600	-1096
2.94967	-1105
2.95333	-1087
2.95700	-1046
2.96067	-987
2.96433	-915
2.96800	-837
2.97167	-756
2.97533	-676
2.97900	-598
2.98267	-526
2.98633	-459
2.99000	-399
2.99367	-344
2.99733	-296
3.00100	-253
3.00467	-216
3.00833	-183
3.01200	-155
3.01567	-131
3.01933	-110
3.02300	-92
3.02667	-76
3.03033	-63
3.03400	-51
3.03767	-42
3.04133	-33
3.04500	-26
3.04867	-20
3.05233	-15
3.05600	-11
3.05967	-7
3.06333	-4
3.06700	-1
3.07067	1
3.07433	3
3.07800	5
3.08167	7
3.08533	8
3.08900	9
3.09267	10
3.09633	11
3.10000	12
3.10367	13
3.10733	14
3.11100	15
3.11467	15
3.11833	16
3.12200	17
3.12567	17
3.12933	18
3.13300	18
3.13667	18
3.14033	19
3.14400	19
3.14767	19
3.15133	20
3.15500	20
3.15867	20
3.16233	20
3.16600	20
3.16967	20
3.17333	20
3.17700	21
3.18067	21
3.18433	21
3.18800	21
3.19167	21
3.19533	21
3.19900	21
3.20267	22
3.20633	22
3.21000	22
3.21367	22
3.21733	23
3.22100	23
3.22467	23
3.22833	23
3.23200	23
3.23567	23
3.23933	23
3.24300	23
3.24667	23
3.25033	23
3.25400	23
3.25767	23
3.26133	23
3.26500	24
3.26867	24
3.27233	24
3.27600	24
3.27967	25
3.28333	25
3.28700	25
3.29067	26
3.29433	26
3.29800	26
3.30167	27
3.30533	27
3.30900	27
3.31267	27
3.31633	27
3.32000	28
3.32367	28
3.32733	28
3.33100	28
3.33467	29
3.33833	29
3.34200	29
3.34567	29
3.34933	29
3.35300	29
3.35667	29
3.36033	29
3.36400	29
3.36767	29
3.37133	29
3.37500	29
3.37867	29
3.38233	28
3.38600	28
3.38967	28
3.39333	28
3.39700	28
3.40067	28
3.40433	28
3.40800	28
3.41167	28
3.41533	28
3.41900	28
3.42267	28
3.42633	28
3.43000	28
3.43367	28
3.43733	28
3.44100	28
3.44467	29
3.44833	29
3.45200	29
3.45567	29
3.45933	29
3.46300	29
3.46667	29
3.47033	29
3.47400	29
3.47767	30
3.48133	30
3.48500	30
3.48867	30
3.49233	30
3.49600	30
3.49967	29
3.50333	29
3.50700	29
3.51067	29
3.51433	28
3.51800	28
3.52167	28
3.52533	27
3.52900	27
3.53267	27
3.53633	27
3.54000	26
3.54367	26
3.54733	26
3.55100	26
3.55467	27
3.55833	27
3.56200	27
3.56567	27
3.56933	27
3.57300	27
3.57667	27
3.58033	27
3.58400	27
3.58767	27
3.59133	26
3.59500	26
3.59867	26
3.60233	26
3.60600	26
3.60967	26
3.61333	26
3.61700	26
3.62067	26
3.62433	26
3.62800	26
3.63167	26
3.63533	26
3.63900	26
3.64267	26
3.64633	26
3.65000	27
3.65367	27
3.65733	27
3.66100	27
3.66467	27
3.66833	27
3.67200	28
3.67567	28
3.67933	28
3.68300	28
3.68667	28
3.69033	28
3.69400	28
3.69767	28
3.70133	28
3.70500	28
3.70867	28
3.71233	28
3.71600	28
3.71967	28
3.72333	28
3.72700	28
3.73067	28
3.73433	28
3.73800	28
3.74167	28
3.74533	29
3.74900	29
3.75267	29
3.75633	29
3.76000	29
3.76367	29
3.76733	29
3.77100	29
3.77467	29
3.77833	29
3.78200	29
3.78567	29
3.78933	29
3.79300	28
3.79667	28
3.80033	28
3.80400	28
3.80767	27
3.81133	27
3.81500	27
3.81867	26
3.82233	26
3.82600	26
3.82967	26
3.83333	26
3.83700	26
3.84067	26
3.84433	26
3.84800	26
3.85167	26
3.85533	26
3.85900	26
3.86267	26
3.86633	26
3.87000	26
3.87367	26
3.87733	26
3.88100	26
3.88467	26
3.88833	26
3.89200	26
3.89567	26
3.89933	26
3.90300	26
3.90667	26
3.91033	26
3.91400	26
3.91767	27
3.92133	27
3.92500	27
3.92867	27
3.93233	27
3.93600	28
3.93967	28
3.94333	28
3.94700	28
3.95067	28
3.95433	27
3.95800	27
3.96167	27
3.96533	27
3.96900	28
3.97267	28
3.97633	28
3.98000	28
3.98367	29
3.98733	29
3.99100	28
3.99467	28
3.99833	28

[Chromatogram (Ch3)]
Interval(msec)	220
# of Points	1091
Start Time(min)	0.002
End Time(min)	3.998
R.Time (min)	Intensity
0.00167	-1
0.00533	-1
0.00900	-1
0.01267	-2
0.01633	-4
0.02000	-5
0.02367	-7
0.02733	-8
0.03100	-6
0.03467	-5
0.03833	-5
0.04200	-5
0.04567	-5
0.04933	-7
0.05300	-8
0.05667	-7
0.06033	-5
0.06400	-4
0.06767	-5
0.07133	-6
0.07500	-5
0.07867	-4
0.08233	-0
0.08600	2
0.08967	2
0.09333	2
0.09700	0
0.10067	-3
0.10433	-6
0.10800	-10
0.11167	-8
0.11533	-8
0.11900	-8
0.12267	-8
0.12633	-8
0.13000	-7
0.13367	-7
0.13733	-6
0.14100	-7
0.14467	-6
0.14833	-3
0.15200	-2
0.15567	-3
0.15933	-4
0.16300	-4
0.16667	-4
0.17033	-3
0.17400	-2
0.17767	-3
0.18133	-3
0.18500	-3
0.18867	-2
0.19233	-1
0.19600	1
0.19967	3
0.20333	4
0.20700	4
0.21067	1
0.21433	0
0.21800	0
0.22167	1
0.22533	2
0.22900	5
0.23267	5
0.23633	6
0.24000	7
0.24367	7
0.24733	8
0.25100	8
0.25467	7
0.25833	7
0.26200	7
0.26567	6
0.26933	6
0.27300	4
0.27667	3
0.28033	3
0.28400	3
0.28767	5
0.29133	5
0.29500	3
0.29867	2
0.30233	3
0.30600	4
0.30967	4
0.31333	4
0.31700	5
0.32067	5
0.32433	5
0.32800	6
0.33167	6
0.33533	8
0.33900	9
0.34267	9
0.34633	8
0.35000	8
0.35367	7
0.35733	5
0.36100	5
0.36467	5
0.36833	5
0.37200	5
0.37567	5
0.37933	6
0.38300	8
0.38667	11
0.39033	14
0.39400	16
0.39767	15
0.40133	14
0.40500	14
0.40867	15
0.41233	15
0.41600	14
0.41967	15
0.42333	16
0.42700	16
0.43067	18
0.43433	18
0.43800	18
0.44167	17
0.44533	16
0.44900	15
0.45267	12
0.45633	11
0.46000	13
0.46367	13
0.46733	13
0.47100	14
0.47467	14
0.47833	14
0.48200	16
0.48567	16
0.48933	17
0.49300	18
0.49667	17
0.50033	17
0.50400	17
0.50767	17
0.51133	18
0.51500	17
0.51867	16
0.52233	15
0.52600	15
0.52967	16
0.53333	17
0.53700	19
0.54067	21
0.54433	22
0.54800	21
0.55167	20
0.55533	19
0.55900	18
0.56267	19
0.56633	21
0.57000	21
0.57367	19
0.57733	16
0.58100	14
0.58467	14
0.58833	17
0.59200	20
0.59567	21
0.59933	21
0.60300	22
0.60667	22
0.61033	19
0.61400	20
0.61767	21
0.62133	23
0.62500	23
0.62867	24
0.63233	25
0.63600	26
0.63967	26
0.64333	25
0.64700	25
0.65067	26
0.65433	27
0.65800	30
0.66167	31
0.66533	33
0.66900	33
0.67267	28
0.67633	25
0.68000	25
0.68367	27
0.68733	30
0.69100	32
0.69467	33
0.69833	32
0.70200	30
0.70567	29
0.70933	32
0.71300	34
0.71667	35
0.72033	36
0.72400	37
0.72767	36
0.73133	39
0.73500	38
0.73867	34
0.74233	31
0.74600	31
0.74967	32
0.75333	32
0.75700	32
0.76067	34
0.76433	35
0.76800	35
0.77167	36
0.77533	35
0.77900	34
0.78267	34
0.78633	34
0.79000	36
0.79367	37
0.79733	38
0.80100	38
0.80467	39
0.80833	38
0.81200	37
0.81567	37
0.81933	35
0.82300	35
0.82667	36
0.83033	36
0.83400	35
0.83767	37
0.84133	38
0.84500	40
0.84867	41
0.85233	42
0.85600	44
0.85967	46
0.86333	47
0.86700	46
0.87067	44
0.87433	43
0.87800	42
0.88167	40
0.88533	40
0.88900	40
0.89267	39
0.89633	39
0.90000	41
0.90367	43
0.90733	44
0.91100	42
0.91467	41
0.91833	39
0.92200	38
0.92567	38
0.92933	39
0.93300	41
0.93667	44
0.94033	44
0.94400	42
0.94767	41
0.95133	42
0.95500	42
0.95867	43
0.96233	44
0.96600	43
0.96967	42
0.97333	41
0.97700	42
0.98067	43
0.98433	43
0.98800	41
0.99167	40
0.99533	40
0.99900	41
1.00267	42
1.00633	43
1.01000	42
1.01367	40
1.01733	39
1.02100	37
1.02467	35
1.02833	36
1.03200	39
1.03567	41
1.03933	44
1.04300	46
1.04667	45
1.05033	47
1.05400	47
1.05767	46
1.06133	43
1.06500	42
1.06867	40
1.07233	39
1.07600	41
1.07967	41
1.08333	41
1.08700	41
1.09067	40
1.09433	40
1.09800	41
1.10167	43
1.10533	45
1.10900	47
1.11267	47
1.11633	45
1.12000	44
1.12367	42
1.12733	39
1.13100	38
1.13467	38
1.13833	39
1.14200	40
1.14567	41
1.14933	41
1.15300	40
1.15667	41
1.16033	43
1.16400	43
1.16767	42
1.17133	40
1.17500	40
1.17867	43
1.18233	44
1.18600	45
1.18967	46
1.19333	46
1.19700	46
1.20067	45
1.20433	44
1.20800	44
1.21167	41
1.21533	38
1.21900	38
1.22267	38
1.22633	38
1.23000	39
1.23367	40
1.23733	40
1.24100	40
1.24467	42
1.24833	43
1.25200	44
1.25567	43
1.25933	43
1.26300	43
1.26667	46
1.27033	46
1.27400	47
1.27767	46
1.28133	43
1.28500	41
1.28867	40
1.29233	43
1.29600	44
1.29967	44
1.30333	44
1.30700	43
1.31067	45
1.31433	48
1.31800	47
1.32167	47
1.32533	46
1.32900	45
1.33267	45
1.33633	46
1.34000	47
1.34367	47
1.34733	49
1.35100	49
1.35467	48
1.35833	48
1.36200	47
1.36567	46
1.36933	46
1.37300	45
1.37667	45
1.38033	46
1.38400	45
1.38767	46
1.39133	47
1.39500	48
1.39867	50
1.40233	49
1.40600	48
1.40967	48
1.41333	47
1.41700	47
1.42067	48
1.42433	47
1.42800	48
1.43167	48
1.43533	47
1.43900	47
1.44267	48
1.44633	50
1.45000	51
1.45367	50
1.45733	51
1.46100	53
1.46467	54
1.46833	53
1.47200	52
1.47567	54
1.47933	55
1.48300	55
1.48667	54
1.49033	53
1.49400	53
1.49767	54
1.50133	55
1.50500	56
1.50867	56
1.51233	56
1.51600	56
1.51967	56
1.52333	56
1.52700	55
1.53067	55
1.53433	55
1.53800	57
1.54167	58
1.54533	58
1.54900	57
1.55267	55
1.55633	52
1.56000	50
1.56367	51
1.56733	52
1.57100	55
1.57467	55
1.57833	55
1.58200	56
1.58567	60
1.58933	63
1.59300	62
1.59667	63
1.60033	64
1.60400	62
1.60767	62
1.61133	61
1.61500	63
1.61867	64
1.62233	63
1.62600	61
1.62967	60
1.63333	59
1.63700	61
1.64067	64
1.64433	67
1.64800	67
1.65167	66
1.65533	64
1.65900	63
1.66267	64
1.66633	64
1.67000	67
1.67367	68
1.67733	69
1.68100	70
1.68467	71
1.68833	72
1.69200	73
1.69567	72
1.69933	75
1.70300	77
1.70667	77
1.71033	76
1.71400	76
1.71767	76
1.72133	75
1.72500	75
1.72867	76
1.73233	79
1.73600	80
1.73967	82
1.74333	84
1.74700	84
1.75067	83
1.75433	83
1.75800	82
1.76167	80
1.76533	81
1.76900	82
1.77267	84
1.77633	85
1.78000	84
1.78367	84
1.78733	87
1.79100	86
1.79467	85
1.79833	87
1.80200	88
1.80567	89
1.80933	88
1.81300	89
1.81667	88
1.82033	86
1.82400	83
1.82767	81
1.83133	83
1.83500	85
1.83867	87
1.84233	88
1.84600	90
1.84967	92
1.85333	94
1.85700	93
1.86067	94
1.86433	95
1.86800	95
1.87167	94
1.87533	95
1.87900	93
1.88267	90
1.88633	90
1.89000	89
1.89367	91
1.89733	97
1.90100	100
1.90467	100
1.90833	99
1.91200	101
1.91567	102
1.91933	101
1.92300	99
1.92667	99
1.93033	100
1.93400	101
1.93767	103
1.94133	106
1.94500	107
1.94867	109
1.95233	110
1.95600	111
1.95967	111
1.96333	109
1.96700	107
1.97067	105
1.97433	104
1.97800	104
1.98167	103
1.98533	104
1.98900	108
1.99267	110
1.99633	109
2.00000	109
2.00367	110
2.00733	110
2.01100	113
2.01467	114
2.01833	114
2.02200	117
2.02567	120
2.02933	120
2.03300	121
2.03667	125
2.04033	129
2.04400	131
2.04767	131
2.05133	130
2.05500	131
2.05867	132
2.06233	133
2.06600	133
2.06967	133
2.07333	134
2.07700	133
2.08067	132
2.08433	134
2.08800	136
2.09167	137
2.09533	139
2.09900	142
2.10267	142
2.10633	142
2.11000	140
2.11367	140
2.11733	140
2.12100	142
2.12467	142
2.12833	142
2.13200	141
2.13567	143
2.13933	143
2.14300	142
2.14667	143
2.15033	144
2.15400	145
2.15767	147
2.16133	150
2.16500	149
2.16867	147
2.17233	146
2.17600	147
2.17967	150
2.18333	151
2.18700	150
2.19067	149
2.19433	148
2.19800	149
2.20167	152
2.20533	156
2.20900	159
2.21267	163
2.21633	165
2.22000	165
2.22367	164
2.22733	163
2.23100	164
2.23467	166
2.23833	167
2.24200	166
2.24567	166
2.24933	167
2.25300	168
2.25667	172
2.26033	176
2.26400	177
2.26767	178
2.27133	179
2.27500	181
2.27867	187
2.28233	190
2.28600	190
2.28967	189
2.29333	188
2.29700	187
2.30067	190
2.30433	193
2.30800	196
2.31167	195
2.31533	194
2.31900	197
2.32267	202
2.32633	203
2.33000	205
2.33367	206
2.33733	205
2.34100	206
2.34467	206
2.34833	206
2.35200	207
2.35567	211
2.35933	213
2.36300	214
2.36667	216
2.37033	217
2.37400	221
2.37767	224
2.38133	226
2.38500	228
2.38867	227
2.39233	227
2.39600	230
2.39967	234
2.40333	237
2.40700	240
2.41067	243
2.41433	245
2.41800	246
2.42167	249
2.42533	250
2.42900	249
2.43267	249
2.43633	250
2.44000	254
2.44367	281
2.44733	357
2.45100	439
2.45467	506
2.45833	549
2.46200	559
2.46567	545
2.46933	521
2.47300	501
2.47667	484
2.48033	477
2.48400	471
2.48767	461
2.49133	445
2.49500	426
2.49867	405
2.50233	387
2.50600	373
2.50967	362
2.51333	354
2.51700	349
2.52067	348
2.52433	349
2.52800	352
2.53167	356
2.53533	364
2.53900	375
2.54267	385
2.54633	391
2.55000	391
2.55367	384
2.55733	375
2.56100	366
2.56467	357
2.56833	348
2.57200	341
2.57567	333
2.57933	329
2.58300	325
2.58667	322
2.59033	318
2.59400	313
2.59767	308
2.60133	301
2.60500	288
2.60867	272
2.61233	255
2.61600	235
2.61967	214
2.62333	197
2.62700	185
2.63067	175
2.63433	169
2.63800	164
2.64167	162
2.64533	164
2.64900	169
2.65267	176
2.65633	188
2.66000	198
2.66367	209
2.66733	219
2.67100	230
2.67467	241
2.67833	251
2.68200	260
2.68567	267
2.68933	270
2.69300	273
2.69667	276
2.70033	276
2.70400	274
2.70767	272
2.71133	273
2.71500	273
2.71867	275
2.72233	276
2.72600	278
2.72967	279
2.73333	281
2.73700	281
2.74067	279
2.74433	277
2.74800	274
2.75167	274
2.75533	275
2.75900	275
2.76267	275
2.76633	275
2.77000	275
2.77367	277
2.77733	281
2.78100	285
2.78467	287
2.78833	288
2.79200	289
2.79567	288
2.79933	289
2.80300	291
2.80667	290
2.81033	290
2.81400	293
2.81767	300
2.82133	320
2.82500	361
2.82867	444
2.83233	585
2.83600	809
2.83967	1132
2.84333	1556
2.84700	2071
2.85067	2644
2.85433	3235
2.85800	3797
2.86167	4283
2.86533	4653
2.86900	4881
2.87267	4964
2.87633	4916
2.88000	4756
2.88367	4511
2.88733	4208
2.89100	3876
2.89467	3537
2.89833	3198
2.90200	2872
2.90567	2567
2.90933	2288
2.91300	2035
2.91667	1810
2.92033	1612
2.92400	1439
2.92767	1287
2.93133	1154
2.93500	1037
2.93867	934
2.94233	847
2.94600	771
2.94967	707
2.95333	652
2.95700	606
2.96067	567
2.96433	533
2.96800	507
2.97167	483
2.97533	460
2.97900	440
2.98267	423
2.98633	408
2.99000	392
2.99367	378
2.99733	366
3.00100	356
3.00467	349
3.00833	345
3.01200	341
3.01567	336
3.01933	331
3.02300	326
3.02667	324
3.03033	324
3.03400	321
3.03767	317
3.04133	315
3.04500	312
3.04867	311
3.05233	308
3.05600	305
3.05967	304
3.06333	303
3.06700	302
3.07067	300
3.07433	298
3.07800	295
3.08167	290
3.08533	287
3.08900	287
3.09267	287
3.09633	288
3.10000	288
3.10367	286
3.10733	286
3.11100	284
3.11467	282
3.11833	281
3.12200	282
3.12567	284
3.12933	284
3.13300	283
3.13667	281
3.14033	280
3.14400	280
3.14767	278
3.15133	275
3.15500	274
3.15867	273
3.16233	272
3.16600	272
3.16967	275
3.17333	277
3.17700	273
3.18067	255
3.18433	222
3.18800	199
3.19167	192
3.19533	195
3.19900	205
3.20267	223
3.20633	248
3.21000	280
3.21367	318
3.21733	361
3.22100	406
3.22467	448
3.22833	488
3.23200	523
3.23567	554
3.23933	582
3.24300	607
3.24667	627
3.25033	640
3.25400	650
3.25767	657
3.26133	663
3.26500	669
3.26867	678
3.27233	690
3.27600	702
3.27967	708
3.28333	713
3.28700	721
3.29067	731
3.29433	742
3.29800	750
3.30167	757
3.30533	763
3.30900	771
3.31267	779
3.31633	788
3.32000	793
3.32367	796
3.32733	800
3.33100	801
3.33467	802
3.33833	801
3.34200	799
3.34567	797
3.34933	797
3.35300	795
3.35667	793
3.36033	792
3.36400	789
3.36767	783
3.37133	778
3.37500	772
3.37867	766
3.38233	759
3.38600	755
3.38967	753
3.39333	749
3.39700	744
3.40067	741
3.40433	740
3.40800	738
3.41167	733
3.41533	728
3.41900	725
3.42267	720
3.42633	717
3.43000	714
3.43367	713
3.43733	711
3.44100	708
3.44467	705
3.44833	703
3.45200	701
3.45567	700
3.45933	700
3.46300	700
3.46667	697
3.47033	695
3.47400	692
3.47767	689
3.48133	685
3.48500	681
3.48867	680
3.49233	679
3.49600	680
3.49967	683
3.50333	684
3.50700	683
3.51067	680
3.51433	679
3.51800	677
3.52167	676
3.52533	674
3.52900	670
3.53267	667
3.53633	664
3.54000	662
3.54367	661
3.54733	659
3.55100	659
3.55467	659
3.55833	659
3.56200	658
3.56567	656
3.56933	654
3.57300	651
3.57667	648
3.58033	646
3.58400	644
3.58767	643
3.59133	640
3.59500	639
3.59867	639
3.60233	638
3.60600	636
3.60967	634
3.61333	634
3.61700	631
3.62067	630
3.62433	630
3.62800	630
3.63167	626
3.63533	621
3.63900	618
3.64267	616
3.64633	615
3.65000	614
3.65367	612
3.65733	612
3.66100	611
3.66467	607
3.66833	604
3.67200	603
3.67567	602
3.67933	601
3.68300	600
3.68667	596
3.69033	593
3.69400	591
3.69767	591
3.70133	591
3.70500	593
3.70867	593
3.71233	591
3.71600	588
3.71967	587
3.72333	584
3.72700	578
3.73067	573
3.73433	572
3.73800	572
3.74167	574
3.74533	574
3.74900	574
3.75267	574
3.75633	574
3.76000	574
3.76367	573
3.76733	571
3.77100	571
3.77467	572
3.77833	572
3.78200	573
3.78567	574
3.78933	572
3.79300	571
3.79667	569
3.80033	569
3.80400	569
3.80767	569
3.81133	567
3.81500	565
3.81867	563
3.82233	562
3.82600	560
3.82967	559
3.83333	559
3.83700	559
3.84067	562
3.84433	564
3.84800	563
3.85167	561
3.85533	558
3.85900	555
3.86267	553
3.86633	552
3.87000	551
3.87367	553
3.87733	554
3.88100	552
3.88467	550
3.88833	548
3.89200	550
3.89567	551
3.89933	552
3.90300	552
3.90667	553
3.91033	551
3.91400	550
3.91767	552
3.92133	552
3.92500	550
3.92867	548
3.93233	545
3.93600	544
3.93967	543
3.94333	543
3.94700	542
3.95067	541
3.95433	539
3.95800	538
3.96167	538
3.96533	537
3.96900	537
3.97267	536
3.97633	536
3.98000	535
3.98367	532
3.98733	531
3.99100	534
3.99467	534
3.99833	529

[Status Trace (Column Oven Temperature)]
Interval(msec)	1000
# of Points	239
Start Time(min)	0.011
End Time(min)	3.977
Intensity Units	
Intensity Multiplier	1
R.Time (min)	Intensity
0.01067	35.08
0.02733	35.08
0.04400	35.09
0.06067	35.08
0.07733	35.08
0.09400	35.08
0.11067	35.08
0.12733	35.06
0.14400	35.05
0.16067	35.05
0.17733	35.03
0.19400	35.02
0.21067	35.03
0.22733	35.03
0.24400	35.03
0.26067	35.03
0.27733	35.02
0.29400	35.03
0.31067	35.03
0.32733	35.03
0.34400	35.03
0.36067	35.02
0.37733	35.03
0.39400	35.03
0.41067	35.03
0.42733	35.04
0.44400	35.04
0.46067	35.04
0.47733	35.04
0.49400	35.04
0.51067	35.03
0.52733	35.02
0.54400	35.02
0.56067	35.02
0.57733	35.02
0.59400	35.02
0.61067	35.01
0.62733	35.00
0.64400	35.00
0.66067	34.99
0.67733	35.00
0.69400	35.00
0.71067	35.01
0.72733	35.01
0.74400	35.00
0.76067	35.00
0.77733	35.01
0.79400	35.01
0.81067	35.00
0.82733	35.00
0.84400	35.00
0.86067	34.99
0.87733	35.00
0.89400	35.00
0.91067	35.01
0.92733	35.02
0.94400	35.01
0.96067	35.01
0.97733	34.99
0.99400	34.98
1.01067	34.97
1.02733	34.96
1.04400	34.96
1.06067	34.97
1.07733	34.98
1.09400	34.98
1.11067	34.99
1.12733	34.99
1.14400	35.00
1.16067	34.99
1.17733	34.98
1.19400	34.97
1.21067	34.96
1.22733	34.96
1.24400	34.96
1.26067	34.98
1.27733	34.99
1.29400	35.00
1.31067	35.00
1.32733	35.01
1.34400	35.01
1.36067	35.00
1.37733	35.01
1.39400	35.01
1.41067	35.02
1.42733	35.02
1.44400	35.01
1.46067	35.00
1.47733	34.99
1.49400	34.98
1.51067	34.99
1.52733	34.98
1.54400	34.98
1.56067	34.97
1.57733	34.95
1.59400	34.98
1.61067	35.05
1.62733	35.19
1.64400	35.40
1.66067	35.68
1.67733	36.04
1.69400	36.40
1.71067	36.75
1.72733	37.08
1.74400	37.40
1.76067	37.71
1.77733	38.06
1.79400	38.39
1.81067	38.72
1.82733	39.06
1.84400	39.38
1.86067	39.71
1.87733	40.03
1.89400	40.39
1.91067	40.73
1.92733	41.04
1.94400	41.36
1.96067	41.70
1.97733	42.02
1.99400	42.34
2.01067	42.66
2.02733	42.98
2.04400	43.32
2.06067	43.64
2.07733	43.97
2.09400	44.28
2.11067	44.61
2.12733	44.93
2.14400	45.28
2.16067	45.59
2.17733	45.92
2.19400	46.24
2.21067	46.55
2.22733	46.88
2.24400	47.22
2.26067	47.58
2.27733	47.89
2.29400	48.25
2.31067	48.56
2.32733	48.89
2.34400	49.19
2.36067	49.48
2.37733	49.65
2.39400	49.71
2.41067	49.69
2.42733	49.70
2.44400	49.70
2.46067	49.71
2.47733	49.71
2.49400	49.73
2.51067	49.74
2.52733	49.75
2.54400	49.77
2.56067	49.79
2.57733	49.79
2.59400	49.81
2.61067	49.82
2.62733	49.80
2.64400	49.82
2.66067	49.83
2.67733	49.85
2.69400	49.85
2.71067	49.86
2.72733	49.87
2.74400	49.86
2.76067	49.85
2.77733	49.85
2.79400	49.87
2.81067	49.90
2.82733	49.90
2.84400	49.91
2.86067	49.92
2.87733	49.93
2.89400	49.93
2.91067	49.94
2.92733	49.95
2.94400	49.97
2.96067	49.97
2.97733	49.98
2.99400	49.98
3.01067	49.99
3.02733	49.99
3.04400	50.00
3.06067	50.02
3.07733	50.03
3.09400	50.04
3.11067	50.04
3.12733	50.04
3.14400	50.05
3.16067	50.06
3.17733	50.07
3.19400	50.08
3.21067	50.08
3.22733	50.09
3.24400	50.10
3.26067	50.11
3.27733	50.11
3.29400	50.10
3.31067	50.08
3.32733	50.08
3.34400	50.07
3.36067	50.06
3.37733	50.06
3.39400	50.06
3.41067	50.06
3.42733	50.05
3.44400	50.04
3.46067	50.03
3.47733	50.03
3.49400	50.03
3.51067	50.04
3.52733	50.04
3.54400	50.05
3.56067	50.06
3.57733	50.07
3.59400	50.08
3.61067	50.08
3.62733	50.09
3.64400	50.09
3.66067	50.08
3.67733	50.07
3.69400	50.06
3.71067	50.06
3.72733	50.05
3.74400	50.04
3.76067	50.03
3.77733	50.03
3.79400	50.03
3.81067	50.03
3.82733	50.04
3.84400	50.05
3.86067	50.06
3.87733	50.07
3.89400	50.08
3.91067	50.08
3.92733	50.07
3.94400	50.06
3.96067	50.07
3.97733	50.06

[Status Trace (Injection Unit Temperature)]
Interval(msec)	1000
# of Points	239
Start Time(min)	0.011
End Time(min)	3.977
Intensity Units	
Intensity Multiplier	1
R.Time (min)	Intensity
0.01067	99.98
0.02733	99.98
0.04400	99.98
0.06067	99.98
0.07733	99.98
0.09400	99.98
0.11067	99.98
0.12733	99.98
0.14400	99.98
0.16067	99.98
0.17733	99.99
0.19400	99.98
0.21067	99.98
0.22733	99.98
0.24400	99.99
0.26067	99.99
0.27733	99.98
0.29400	99.99
0.31067	99.98
0.32733	99.98
0.34400	99.98
0.36067	99.99
0.37733	99.98
0.39400	99.98
0.41067	99.98
0.42733	99.98
0.44400	99.98
0.46067	99.99
0.47733	99.98
0.49400	99.98
0.51067	99.98
0.52733	99.98
0.54400	99.98
0.56067	99.98
0.57733	99.98
0.59400	99.98
0.61067	99.98
0.62733	99.98
0.64400	99.98
0.66067	99.98
0.67733	99.98
0.69400	99.98
0.71067	99.98
0.72733	99.98
0.74400	99.98
0.76067	99.98
0.77733	99.98
0.79400	99.98
0.81067	99.98
0.82733	99.98
0.84400	99.98
0.86067	99.98
0.87733	99.98
0.89400	99.98
0.91067	99.98
0.92733	99.98
0.94400	99.98
0.96067	99.98
0.97733	99.98
0.99400	99.98
1.01067	99.98
1.02733	99.98
1.04400	99.98
1.06067	99.98
1.07733	99.98
1.09400	99.98
1.11067	99.98
1.12733	99.98
1.14400	99.98
1.16067	99.98
1.17733	99.98
1.19400	99.98
1.21067	99.98
1.22733	99.98
1.24400	99.98
1.26067	99.98
1.27733	99.98
1.29400	99.98
1.31067	99.98
1.32733	99.99
1.34400	99.99
1.36067	99.98
1.37733	99.99
1.39400	99.99
1.41067	99.99
1.42733	99.99
1.44400	99.98
1.46067	99.99
1.47733	99.98
1.49400	99.99
1.51067	99.99
1.52733	99.99
1.54400	99.99
1.56067	99.99
1.57733	99.99
1.59400	99.99
1.61067	99.99
1.62733	99.99
1.64400	99.99
1.66067	99.99
1.67733	99.98
1.69400	99.99
1.71067	99.98
1.72733	99.98
1.74400	99.98
1.76067	99.99
1.77733	99.99
1.79400	99.99
1.81067	99.99
1.82733	99.98
1.84400	99.99
1.86067	99.98
1.87733	99.98
1.89400	99.98
1.91067	99.98
1.92733	99.98
1.94400	99.98
1.96067	99.98
1.97733	99.98
1.99400	99.98
2.01067	99.98
2.02733	99.98
2.04400	99.98
2.06067	99.97
2.07733	99.98
2.09400	99.98
2.11067	99.97
2.12733	99.97
2.14400	99.97
2.16067	99.97
2.17733	99.97
2.19400	99.97
2.21067	99.97
2.22733	99.97
2.24400	99.97
2.26067	99.97
2.27733	99.97
2.29400	99.97
2.31067	99.97
2.32733	99.97
2.34400	99.97
2.36067	99.97
2.37733	99.97
2.39400	99.97
2.41067	99.97
2.42733	99.97
2.44400	99.97
2.46067	99.97
2.47733	99.97
2.49400	99.97
2.51067	99.96
2.52733	99.96
2.54400	99.97
2.56067	99.97
2.57733	99.97
2.59400	99.97
2.61067	99.97
2.62733	99.98
2.64400	99.97
2.66067	99.98
2.67733	99.98
2.69400	99.98
2.71067	99.98
2.72733	99.98
2.74400	99.98
2.76067	99.98
2.77733	99.99
2.79400	99.99
2.81067	99.99
2.82733	99.99
2.84400	99.99
2.86067	99.99
2.87733	99.99
2.89400	100.00
2.91067	100.00
2.92733	100.00
2.94400	100.01
2.96067	100.01
2.97733	100.01
2.99400	100.01
3.01067	100.01
3.02733	100.01
3.04400	100.02
3.06067	100.01
3.07733	100.01
3.09400	100.01
3.11067	100.02
3.12733	100.02
3.14400	100.02
3.16067	100.02
3.17733	100.02
3.19400	100.02
3.21067	100.03
3.22733	100.03
3.24400	100.03
3.26067	100.03
3.27733	100.03
3.29400	100.03
3.31067	100.03
3.32733	100.03
3.34400	100.04
3.36067	100.03
3.37733	100.04
3.39400	100.04
3.41067	100.04
3.42733	100.04
3.44400	100.04
3.46067	100.04
3.47733	100.04
3.49400	100.04
3.51067	100.05
3.52733	100.05
3.54400	100.04
3.56067	100.04
3.57733	100.04
3.59400	100.04
3.61067	100.05
3.62733	100.05
3.64400	100.05
3.66067	100.05
3.67733	100.05
3.69400	100.04
3.71067	100.05
3.72733	100.05
3.74400	100.05
3.76067	100.05
3.77733	100.05
3.79400	100.05
3.81067	100.05
3.82733	100.04
3.84400	100.04
3.86067	100.05
3.87733	100.04
3.89400	100.05
3.91067	100.04
3.92733	100.05
3.94400	100.04
3.96067	100.04
3.97733	100.04

[Status Trace (Carrier Gas Pressure)]
Interval(msec)	1000
# of Points	239
Start Time(min)	0.011
End Time(min)	3.977
Intensity Units	
Intensity Multiplier	1
R.Time (min)	Intensity
0.01067	58.00
0.02733	55.11
0.04400	57.50
0.06067	59.60
0.07733	59.11
0.09400	58.01
0.11067	57.99
0.12733	58.01
0.14400	58.01
0.16067	58.00
0.17733	58.00
0.19400	58.00
0.21067	58.00
0.22733	58.00
0.24400	58.00
0.26067	58.00
0.27733	58.00
0.29400	58.00
0.31067	58.00
0.32733	58.00
0.34400	58.00
0.36067	58.00
0.37733	58.00
0.39400	58.00
0.41067	58.00
0.42733	58.00
0.44400	58.00
0.46067	58.00
0.47733	58.00
0.49400	58.00
0.51067	58.00
0.52733	58.00
0.54400	58.00
0.56067	58.00
0.57733	58.00
0.59400	58.00
0.61067	58.00
0.62733	58.00
0.64400	58.00
0.66067	58.00
0.67733	58.00
0.69400	58.00
0.71067	58.00
0.72733	58.00
0.74400	58.00
0.76067	58.00
0.77733	58.00
0.79400	58.00
0.81067	58.00
0.82733	58.00
0.84400	58.00
0.86067	58.00
0.87733	58.00
0.89400	58.00
0.91067	58.00
0.92733	58.00
0.94400	58.00
0.96067	58.00
0.97733	58.00
0.99400	58.00
1.01067	58.00
1.02733	58.00
1.04400	58.00
1.06067	58.00
1.07733	58.00
1.09400	58.00
1.11067	58.00
1.12733	58.00
1.14400	58.00
1.16067	58.00
1.17733	58.00
1.19400	58.00
1.21067	58.00
1.22733	58.00
1.24400	58.00
1.26067	58.00
1.27733	58.00
1.29400	58.00
1.31067	58.00
1.32733	58.00
1.34400	58.00
1.36067	58.00
1.37733	58.00
1.39400	58.00
1.41067	58.00
1.42733	58.00
1.44400	58.00
1.46067	58.00
1.47733	58.00
1.49400	58.00
1.51067	58.00
1.52733	58.00
1.54400	58.00
1.56067	58.00
1.57733	58.00
1.59400	58.00
1.61067	58.00
1.62733	58.00
1.64400	58.01
1.66067	58.01
1.67733	58.01
1.69400	58.00
1.71067	58.00
1.72733	58.00
1.74400	58.00
1.76067	58.00
1.77733	58.00
1.79400	58.00
1.81067	58.00
1.82733	58.00
1.84400	58.00
1.86067	58.00
1.87733	58.00
1.89400	58.00
1.91067	58.00
1.92733	58.00
1.94400	58.00
1.96067	58.00
1.97733	58.00
1.99400	58.00
2.01067	58.00
2.02733	58.00
2.04400	58.00
2.06067	58.00
2.07733	58.00
2.09400	58.00
2.11067	58.00
2.12733	58.00
2.14400	58.00
2.16067	58.00
2.17733	58.00
2.19400	58.00
2.21067	58.00
2.22733	58.00
2.24400	58.00
2.26067	58.00
2.27733	58.00
2.29400	58.00
2.31067	58.00
2.32733	58.00
2.34400	58.00
2.36067	58.00
2.37733	58.00
2.39400	57.99
2.41067	57.99
2.42733	58.00
2.44400	58.00
2.46067	58.00
2.47733	58.00
2.49400	58.00
2.51067	57.99
2.52733	57.98
2.54400	58.00
2.56067	58.00
2.57733	58.00
2.59400	58.00
2.61067	58.00
2.62733	58.00
2.64400	58.00
2.66067	58.00
2.67733	58.00
2.69400	58.00
2.71067	58.00
2.72733	58.00
2.74400	58.00
2.76067	58.00
2.77733	58.00
2.79400	58.00
2.81067	58.00
2.82733	58.00
2.84400	58.00
2.86067	58.00
2.87733	58.00
2.89400	58.00
2.91067	58.00
2.92733	58.00
2.94400	58.00
2.96067	58.00
2.97733	58.00
2.99400	58.00
3.01067	58.00
3.02733	58.00
3.04400	58.00
3.06067	58.00
3.07733	58.00
3.09400	58.00
3.11067	58.00
3.12733	58.00
3.14400	58.00
3.16067	58.00
3.17733	58.00
3.19400	58.00
3.21067	58.00
3.22733	58.00
3.24400	58.00
3.26067	58.00
3.27733	58.00
3.29400	58.00
3.31067	58.00
3.32733	58.00
3.34400	58.00
3.36067	58.00
3.37733	58.00
3.39400	58.00
3.41067	58.00
3.42733	58.00
3.44400	58.00
3.46067	58.00
3.47733	58.00
3.49400	58.00
3.51067	58.00
3.52733	58.00
3.54400	58.00
3.56067	58.00
3.57733	58.00
3.59400	58.00
3.61067	58.00
3.62733	58.00
3.64400	58.00
3.66067	58.00
3.67733	58.00
3.69400	58.00
3.71067	58.00
3.72733	58.00
3.74400	58.00
3.76067	58.00
3.77733	58.00
3.79400	58.00
3.81067	58.00
3.82733	58.00
3.84400	58.00
3.86067	58.00
3.87733	58.00
3.89400	58.00
3.91067	58.00
3.92733	58.00
3.94400	58.00
3.96067	58.00
3.97733	58.00

[Status Trace (Carrier Gas Flow)]
Interval(msec)	1000
# of Points	239
Start Time(min)	0.011
End Time(min)	3.977
Intensity Units	
Intensity Multiplier	1
R.Time (min)	Intensity
0.01067	34.52
0.02733	34.53
0.04400	34.54
0.06067	34.54
0.07733	34.50
0.09400	34.52
0.11067	34.52
0.12733	34.53
0.14400	34.52
0.16067	34.51
0.17733	34.52
0.19400	34.52
0.21067	34.52
0.22733	34.52
0.24400	34.52
0.26067	34.52
0.27733	34.52
0.29400	34.52
0.31067	34.52
0.32733	34.52
0.34400	34.52
0.36067	34.52
0.37733	34.52
0.39400	34.52
0.41067	34.52
0.42733	34.52
0.44400	34.52
0.46067	34.52
0.47733	34.52
0.49400	34.52
0.51067	34.52
0.52733	34.52
0.54400	34.52
0.56067	34.52
0.57733	34.52
0.59400	34.52
0.61067	34.52
0.62733	34.52
0.64400	34.52
0.66067	34.52
0.67733	34.52
0.69400	34.52
0.71067	34.52
0.72733	34.52
0.74400	34.52
0.76067	34.52
0.77733	34.52
0.79400	34.52
0.81067	34.52
0.82733	34.52
0.84400	34.52
0.86067	34.52
0.87733	34.52
0.89400	34.53
0.91067	34.52
0.92733	34.51
0.94400	34.52
0.96067	34.52
0.97733	34.52
0.99400	34.52
1.01067	34.52
1.02733	34.51
1.04400	34.52
1.06067	34.52
1.07733	34.52
1.09400	34.52
1.11067	34.52
1.12733	34.52
1.14400	34.52
1.16067	34.52
1.17733	34.52
1.19400	34.52
1.21067	34.52
1.22733	34.52
1.24400	34.52
1.26067	34.52
1.27733	34.52
1.29400	34.52
1.31067	34.52
1.32733	34.52
1.34400	34.52
1.36067	34.52
1.37733	34.52
1.39400	34.52
1.41067	34.52
1.42733	34.52
1.44400	34.52
1.46067	34.52
1.47733	34.52
1.49400	34.52
1.51067	34.52
1.52733	34.52
1.54400	34.52
1.56067	34.52
1.57733	34.52
1.59400	34.52
1.61067	34.52
1.62733	34.52
1.64400	34.52
1.66067	34.51
1.67733	34.52
1.69400	34.52
1.71067	34.52
1.72733	34.52
1.74400	34.52
1.76067	34.52
1.77733	34.52
1.79400	34.52
1.81067	34.51
1.82733	34.52
1.84400	34.52
1.86067	34.52
1.87733	34.52
1.89400	34.52
1.91067	34.52
1.92733	34.52
1.94400	34.51
1.96067	34.52
1.97733	34.52
1.99400	34.52
2.01067	34.52
2.02733	34.52
2.04400	34.52
2.06067	34.52
2.07733	34.52
2.09400	34.52
2.11067	34.52
2.12733	34.53
2.14400	34.52
2.16067	34.52
2.17733	34.52
2.19400	34.52
2.21067	34.52
2.22733	34.52
2.24400	34.51
2.26067	34.51
2.27733	34.52
2.29400	34.52
2.31067	34.53
2.32733	34.52
2.34400	34.53
2.36067	34.52
2.37733	34.52
2.39400	34.52
2.41067	34.52
2.42733	34.52
2.44400	34.52
2.46067	34.52
2.47733	34.52
2.49400	34.52
2.51067	34.52
2.52733	34.52
2.54400	34.52
2.56067	34.52
2.57733	34.52
2.59400	34.52
2.61067	34.51
2.62733	34.52
2.64400	34.52
2.66067	34.52
2.67733	34.52
2.69400	34.52
2.71067	34.52
2.72733	34.51
2.74400	34.52
2.76067	34.52
2.77733	34.52
2.79400	34.52
2.81067	34.52
2.82733	34.52
2.84400	34.52
2.86067	34.52
2.87733	34.52
2.89400	34.51
2.91067	34.52
2.92733	34.52
2.94400	34.52
2.96067	34.52
2.97733	34.52
2.99400	34.52
3.01067	34.52
3.02733	34.52
3.04400	34.52
3.06067	34.52
3.07733	34.52
3.09400	34.52
3.11067	34.52
3.12733	34.52
3.14400	34.52
3.16067	34.52
3.17733	34.52
3.19400	34.52
3.21067	34.52
3.22733	34.52
3.24400	34.52
3.26067	34.52
3.27733	34.52
3.29400	34.52
3.31067	34.52
3.32733	34.52
3.34400	34.52
3.36067	34.52
3.37733	34.52
3.39400	34.52
3.41067	34.52
3.42733	34.52
3.44400	34.52
3.46067	34.52
3.47733	34.52
3.49400	34.52
3.51067	34.52
3.52733	34.52
3.54400	34.52
3.56067	34.52
3.57733	34.52
3.59400	34.52
3.61067	34.52
3.62733	34.52
3.64400	34.52
3.66067	34.52
3.67733	34.52
3.69400	34.52
3.71067	34.52
3.72733	34.52
3.74400	34.51
3.76067	34.52
3.77733	34.52
3.79400	34.52
3.81067	34.52
3.82733	34.52
3.84400	34.52
3.86067	34.52
3.87733	34.52
3.89400	34.52
3.91067	34.52
3.92733	34.51
3.94400	34.52
3.96067	34.52
3.97733	34.52

[Status Trace (Column Flow)]
Interval(msec)	1000
# of Points	239
Start Time(min)	0.011
End Time(min)	3.977
Intensity Units	
Intensity Multiplier	1
R.Time (min)	Intensity
0.01067	5.57
0.02733	5.23
0.04400	5.51
0.06067	5.76
0.07733	5.70
0.09400	5.57
0.11067	5.57
0.12733	5.57
0.14400	5.57
0.16067	5.57
0.17733	5.57
0.19400	5.57
0.21067	5.57
0.22733	5.57
0.24400	5.57
0.26067	5.57
0.27733	5.57
0.29400	5.57
0.31067	5.57
0.32733	5.57
0.34400	5.57
0.36067	5.57
0.37733	5.57
0.39400	5.57
0.41067	5.57
0.42733	5.57
0.44400	5.57
0.46067	5.57
0.47733	5.57
0.49400	5.57
0.51067	5.57
0.52733	5.57
0.54400	5.57
0.56067	5.57
0.57733	5.57
0.59400	5.57
0.61067	5.57
0.62733	5.57
0.64400	5.57
0.66067	5.57
0.67733	5.57
0.69400	5.57
0.71067	5.57
0.72733	5.57
0.74400	5.57
0.76067	5.57
0.77733	5.57
0.79400	5.57
0.81067	5.57
0.82733	5.57
0.84400	5.57
0.86067	5.57
0.87733	5.57
0.89400	5.57
0.91067	5.57
0.92733	5.57
0.94400	5.57
0.96067	5.57
0.97733	5.57
0.99400	5.57
1.01067	5.57
1.02733	5.57
1.04400	5.57
1.06067	5.57
1.07733	5.57
1.09400	5.57
1.11067	5.57
1.12733	5.57
1.14400	5.57
1.16067	5.57
1.17733	5.57
1.19400	5.57
1.21067	5.57
1.22733	5.57
1.24400	5.57
1.26067	5.57
1.27733	5.57
1.29400	5.57
1.31067	5.57
1.32733	5.57
1.34400	5.57
1.36067	5.57
1.37733	5.57
1.39400	5.57
1.41067	5.57
1.42733	5.57
1.44400	5.57
1.46067	5.57
1.47733	5.57
1.49400	5.57
1.51067	5.57
1.52733	5.57
1.54400	5.57
1.56067	5.57
1.57733	5.58
1.59400	5.57
1.61067	5.57
1.62733	5.57
1.64400	5.56
1.66067	5.55
1.67733	5.54
1.69400	5.53
1.71067	5.52
1.72733	5.51
1.74400	5.50
1.76067	5.49
1.77733	5.48
1.79400	5.47
1.81067	5.46
1.82733	5.45
1.84400	5.44
1.86067	5.43
1.87733	5.42
1.89400	5.41
1.91067	5.40
1.92733	5.39
1.94400	5.38
1.96067	5.37
1.97733	5.36
1.99400	5.35
2.01067	5.34
2.02733	5.33
2.04400	5.32
2.06067	5.31
2.07733	5.30
2.09400	5.29
2.11067	5.28
2.12733	5.27
2.14400	5.26
2.16067	5.25
2.17733	5.24
2.19400	5.23
2.21067	5.22
2.22733	5.22
2.24400	5.21
2.26067	5.19
2.27733	5.19
2.29400	5.18
2.31067	5.17
2.32733	5.16
2.34400	5.15
2.36067	5.14
2.37733	5.14
2.39400	5.13
2.41067	5.13
2.42733	5.13
2.44400	5.13
2.46067	5.13
2.47733	5.13
2.49400	5.13
2.51067	5.13
2.52733	5.13
2.54400	5.13
2.56067	5.13
2.57733	5.13
2.59400	5.13
2.61067	5.13
2.62733	5.13
2.64400	5.13
2.66067	5.13
2.67733	5.13
2.69400	5.13
2.71067	5.13
2.72733	5.13
2.74400	5.13
2.76067	5.13
2.77733	5.13
2.79400	5.13
2.81067	5.13
2.82733	5.13
2.84400	5.13
2.86067	5.13
2.87733	5.13
2.89400	5.13
2.91067	5.13
2.92733	5.13
2.94400	5.13
2.96067	5.13
2.97733	5.13
2.99400	5.13
3.01067	5.13
3.02733	5.13
3.04400	5.13
3.06067	5.13
3.07733	5.13
3.09400	5.12
3.11067	5.12
3.12733	5.12
3.14400	5.12
3.16067	5.12
3.17733	5.12
3.19400	5.12
3.21067	5.12
3.22733	5.12
3.24400	5.12
3.26067	5.12
3.27733	5.12
3.29400	5.12
3.31067	5.12
3.32733	5.12
3.34400	5.12
3.36067	5.12
3.37733	5.12
3.39400	5.12
3.41067	5.12
3.42733	5.12
3.44400	5.12
3.46067	5.12
3.47733	5.12
3.49400	5.12
3.51067	5.12
3.52733	5.12
3.54400	5.12
3.56067	5.12
3.57733	5.12
3.59400	5.12
3.61067	5.12
3.62733	5.12
3.64400	5.12
3.66067	5.12
3.67733	5.12
3.69400	5.12
3.71067	5.12
3.72733	5.12
3.74400	5.12
3.76067	5.12
3.77733	5.13
3.79400	5.13
3.81067	5.13
3.82733	5.12
3.84400	5.12
3.86067	5.12
3.87733	5.12
3.89400	5.12
3.91067	5.12
3.92733	5.12
3.94400	5.12
3.96067	5.12
3.97733	5.12

[Status Trace (Linear Velocity)]
Interval(msec)	1000
# of Points	239
Start Time(min)	0.011
End Time(min)	3.977
Intensity Units	
Intensity Multiplier	1
R.Time (min)	Intensity
0.01067	39.02
0.02733	37.12
0.04400	38.69
0.06067	40.07
0.07733	39.75
0.09400	39.03
0.11067	39.01
0.12733	39.03
0.14400	39.03
0.16067	39.03
0.17733	39.03
0.19400	39.03
0.21067	39.03
0.22733	39.03
0.24400	39.03
0.26067	39.03
0.27733	39.03
0.29400	39.03
0.31067	39.03
0.32733	39.03
0.34400	39.03
0.36067	39.03
0.37733	39.03
0.39400	39.03
0.41067	39.03
0.42733	39.03
0.44400	39.03
0.46067	39.03
0.47733	39.02
0.49400	39.03
0.51067	39.03
0.52733	39.03
0.54400	39.03
0.56067	39.03
0.57733	39.03
0.59400	39.03
0.61067	39.03
0.62733	39.03
0.64400	39.03
0.66067	39.03
0.67733	39.03
0.69400	39.03
0.71067	39.03
0.72733	39.03
0.74400	39.03
0.76067	39.03
0.77733	39.03
0.79400	39.03
0.81067	39.03
0.82733	39.03
0.84400	39.03
0.86067	39.03
0.87733	39.03
0.89400	39.03
0.91067	39.03
0.92733	39.03
0.94400	39.03
0.96067	39.03
0.97733	39.03
0.99400	39.03
1.01067	39.03
1.02733	39.03
1.04400	39.03
1.06067	39.03
1.07733	39.03
1.09400	39.03
1.11067	39.03
1.12733	39.03
1.14400	39.03
1.16067	39.03
1.17733	39.03
1.19400	39.03
1.21067	39.03
1.22733	39.03
1.24400	39.03
1.26067	39.03
1.27733	39.03
1.29400	39.03
1.31067	39.03
1.32733	39.03
1.34400	39.03
1.36067	39.03
1.37733	39.03
1.39400	39.03
1.41067	39.03
1.42733	39.03
1.44400	39.03
1.46067	39.03
1.47733	39.03
1.49400	39.03
1.51067	39.03
1.52733	39.03
1.54400	39.03
1.56067	39.03
1.57733	39.03
1.59400	39.03
1.61067	39.03
1.62733	39.01
1.64400	38.99
1.66067	38.97
1.67733	38.94
1.69400	38.90
1.71067	38.86
1.72733	38.83
1.74400	38.80
1.76067	38.77
1.77733	38.74
1.79400	38.70
1.81067	38.67
1.82733	38.65
1.84400	38.61
1.86067	38.58
1.87733	38.55
1.89400	38.52
1.91067	38.49
1.92733	38.46
1.94400	38.43
1.96067	38.40
1.97733	38.37
1.99400	38.34
2.01067	38.31
2.02733	38.28
2.04400	38.25
2.06067	38.22
2.07733	38.19
2.09400	38.16
2.11067	38.13
2.12733	38.10
2.14400	38.07
2.16067	38.04
2.17733	38.01
2.19400	37.98
2.21067	37.95
2.22733	37.93
2.24400	37.89
2.26067	37.86
2.27733	37.83
2.29400	37.80
2.31067	37.77
2.32733	37.75
2.34400	37.72
2.36067	37.69
2.37733	37.67
2.39400	37.66
2.41067	37.67
2.42733	37.67
2.44400	37.67
2.46067	37.67
2.47733	37.67
2.49400	37.67
2.51067	37.66
2.52733	37.66
2.54400	37.66
2.56067	37.66
2.57733	37.66
2.59400	37.66
2.61067	37.66
2.62733	37.66
2.64400	37.66
2.66067	37.66
2.67733	37.66
2.69400	37.66
2.71067	37.66
2.72733	37.66
2.74400	37.66
2.76067	37.66
2.77733	37.66
2.79400	37.66
2.81067	37.65
2.82733	37.65
2.84400	37.65
2.86067	37.65
2.87733	37.65
2.89400	37.65
2.91067	37.65
2.92733	37.65
2.94400	37.65
2.96067	37.65
2.97733	37.65
2.99400	37.65
3.01067	37.65
3.02733	37.65
3.04400	37.64
3.06067	37.64
3.07733	37.64
3.09400	37.64
3.11067	37.64
3.12733	37.64
3.14400	37.64
3.16067	37.64
3.17733	37.64
3.19400	37.64
3.21067	37.64
3.22733	37.64
3.24400	37.64
3.26067	37.63
3.27733	37.63
3.29400	37.64
3.31067	37.64
3.32733	37.64
3.34400	37.64
3.36067	37.64
3.37733	37.64
3.39400	37.64
3.41067	37.64
3.42733	37.64
3.44400	37.64
3.46067	37.64
3.47733	37.64
3.49400	37.64
3.51067	37.64
3.52733	37.64
3.54400	37.64
3.56067	37.64
3.57733	37.64
3.59400	37.64
3.61067	37.64
3.62733	37.64
3.64400	37.64
3.66067	37.64
3.67733	37.64
3.69400	37.64
3.71067	37.64
3.72733	37.64
3.74400	37.64
3.76067	37.64
3.77733	37.64
3.79400	37.64
3.81067	37.64
3.82733	37.64
3.84400	37.64
3.86067	37.64
3.87733	37.64
3.89400	37.64
3.91067	37.64
3.92733	37.64
3.94400	37.64
3.96067	37.64
3.97733	37.64

