[Header]
Application Name	LabSolutions
Version	5.110
Data File Name	C:\Users\User\Desktop\GC Analyses\Jack\Nachusa Grasslands Sampling\T0 Timepoint July 12th\T0_07122022_014.gcd
Output Date	3/14/2023
Output Time	3:40:34 PM

[File Information]
Type	Data File
Generated	3/7/2023 3:13:54 PM
Generated by	System Administrator
Modified	3/7/2023 3:20:24 PM
Modified by	System Administrator

[Sample Information]
Operator Name	System Administrator
Acquired	3/7/2023 3:16:24 PM
Sample Type	0:Unknown
Level	0
Sample Name	014
Sample ID	014
ISTD Amount1	1
ISTD Amount2	1
ISTD Amount3	1
ISTD Amount4	1
ISTD Amount5	1
ISTD Amount6	1
ISTD Amount7	1
ISTD Amount8	1
ISTD Amount9	1
ISTD Amount10	1
ISTD Amount11	1
ISTD Amount12	1
ISTD Amount13	1
ISTD Amount14	1
ISTD Amount15	1
ISTD Amount16	1
ISTD Amount17	1
ISTD Amount18	1
ISTD Amount19	1
ISTD Amount20	1
ISTD Amount21	1
ISTD Amount22	1
ISTD Amount23	1
ISTD Amount24	1
ISTD Amount25	1
ISTD Amount26	1
ISTD Amount27	1
ISTD Amount28	1
ISTD Amount29	1
ISTD Amount30	1
ISTD Amount31	1
ISTD Amount32	1
Sample Amount	1
Dilution Factor	1
Vial#	13
Injection Volume	1
Injection Count	1
Bar Code	

[Original Files]
Data File	C:\Users\User\Desktop\GC Analyses\Jack\Nachusa Grasslands Sampling\T0 Timepoint July 12th\T0_07122022_014.gcd
Method File	C:\LabSolutions\Data\GHG_4min_2022\ghg3_togas_w_acet_4 min_new_int.gcm
Batch File	C:\LabSolutions\Data\AutoSamplerTesting\T0_07122022.gcb
Report Format File	c:\LabSolutions\System\DEFAULT.lsr

[File Description]


[Configuration]
Instrument Name	C0B7VH3-Instrument1
Instrument #	1
Line #	1
# of Detectors	3
Detector ID	DET#1	DET#2	DET#3
Detector Name	FID	PTCD	ECD
# of Channels	1	1	1

[Peak Table(Ch1)]
# of Peaks	3
Peak#	R.Time	I.Time	F.Time	Area	Height	A/H	Conc.	Mark	ID#	Name	k'	Plate #	Plate Ht.	Tailing	Resolution	Sep.Factor	Area Ratio	Height Ratio	Conc. %	Norm Conc.
1	1.476	1.439	1.538	25407	11901	2.135	179.372	   	1	CO	0.000	9074	16.531	1.358	0.000	0.000	0	0	32.266	32.266
2	1.571	1.538	1.622	4940	2370	2.084	95.512	 V 	2	CH4	0.065	10446	14.359	0.000	1.544	0.000	0	0	17.181	17.181
3	2.000	1.952	2.425	1119802	526273	2.128	281.040	   	3	CO2	0.355	17389	8.626	1.175	7.024	5.500	0	0	50.554	50.554

[Peak Table(Ch2)]
# of Peaks	0

[Peak Table(Ch3)]
# of Peaks	5
Peak#	R.Time	I.Time	F.Time	Area	Height	A/H	Conc.	Mark	ID#	Name	k'	Plate #	Plate Ht.	Tailing	Resolution	Sep.Factor	Area Ratio	Height Ratio	Conc. %	Norm Conc.
1	2.458	2.334	2.517	867	241	3.597	0.000	   			0.000	16437	9.126	0.000	0.000	0.000	0	0	0.000	0.000
2	2.557	2.517	2.634	611	118	5.191	0.000	 V 			0.040	4250	35.297	0.000	0.848	0.000	0	0	0.000	0.000
3	2.873	2.649	3.214	21881	4855	4.507	0.559	   	1	N2O	0.169	12956	11.577	1.762	2.446	4.185	0	0	100.000	100.000
4	3.313	3.217	3.386	5219	636	8.203	0.000	   	2	SF6	0.348	100	1497.775	0.000	0.618	2.062	0	0	0.000	0.000
5	3.434	3.386	3.995	10528	617	17.074	0.000	 V 	2	SF6	0.397	23	6560.772	0.000	0.058	1.142	0	0	0.000	0.000

[Compound Results(Ch1)]
# of IDs	6
ID#	Name	R.Time	Area	Height	Conc.	Curve	3rd	2nd	1st	Constant	Area Ratio	Height Ratio	Conc. %	Norm Conc.
1	CO	1.476	25407	11901	179.372	Linear	0.000000e+00	0.000000e+00	1.416423e+002	0.000000e+00	0	0	32.266	32.266
2	CH4	1.571	4940	2370	95.512	Linear	0.000000e+00	0.000000e+00	5.171738e+001	0.000000e+00	0	0	17.181	17.181
3	CO2	2.000	1119802	526273	281.040	Linear	0.000000e+00	0.000000e+00	3.984494e+003	0.000000e+00	0	0	50.554	50.554
4	Ethylene	0.000	0	0	0.000	Linear	0.000000e+00	0.000000e+00	0.000000e+00	0.000000e+00	0	0	0.000	0.000
5	Acetylene	0.000	0	0	0.000	Linear	0.000000e+00	0.000000e+00	0.000000e+00	0.000000e+00	0	0	0.000	0.000
6	Ethane	0.000	0	0	0.000	Linear	0.000000e+00	0.000000e+00	0.000000e+00	0.000000e+00	0	0	0.000	0.000

[Compound Results(Ch2)]
# of IDs	5
ID#	Name	R.Time	Area	Height	Conc.	Curve	3rd	2nd	1st	Constant	Area Ratio	Height Ratio	Conc. %	Norm Conc.
1	Hydrogen	0.000	0	0	0.000	Linear	0.000000e+00	0.000000e+00	0.000000e+00	0.000000e+00	0	0	0.000	0.000
2	Oxygen	0.000	0	0	0.000	Linear	0.000000e+00	0.000000e+00	0.000000e+00	0.000000e+00	0	0	0.000	0.000
3	Nitrogen	0.000	0	0	0.000	Linear	0.000000e+00	0.000000e+00	0.000000e+00	0.000000e+00	0	0	0.000	0.000
4	Methane	0.000	0	0	0.000	Linear	0.000000e+00	0.000000e+00	0.000000e+00	0.000000e+00	0	0	0.000	0.000
5	Carbon Monoxide	0.000	0	0	0.000	Linear	0.000000e+00	0.000000e+00	0.000000e+00	0.000000e+00	0	0	0.000	0.000

[Compound Results(Ch3)]
# of IDs	2
ID#	Name	R.Time	Area	Height	Conc.	Curve	3rd	2nd	1st	Constant	Area Ratio	Height Ratio	Conc. %	Norm Conc.
1	N2O	2.873	21881	4855	0.559	Linear	0.000000e+00	0.000000e+00	3.915173e+004	0.000000e+00	0	0	100.000	100.000
2	SF6	3.313	15747	1253	0.000	Linear	0.000000e+00	0.000000e+00	0.000000e+00	0.000000e+00	0	0	0.000	0.000

[Group Results(Ch1)]
# of Groups	0

[Group Results(Ch2)]
# of Groups	0

[Group Results(Ch3)]
# of Groups	0

[Chromatogram (Ch1)]
Interval(msec)	220
# of Points	1091
Start Time(min)	0.002
End Time(min)	3.998
R.Time (min)	Intensity
0.00167	-6
0.00533	-5
0.00900	-5
0.01267	-8
0.01633	-8
0.02000	-8
0.02367	-8
0.02733	-7
0.03100	-4
0.03467	-2
0.03833	-1
0.04200	-1
0.04567	1
0.04933	7
0.05300	14
0.05667	20
0.06033	21
0.06400	20
0.06767	17
0.07133	10
0.07500	4
0.07867	1
0.08233	-1
0.08600	-1
0.08967	-2
0.09333	-3
0.09700	-2
0.10067	-1
0.10433	-2
0.10800	-8
0.11167	-16
0.11533	-22
0.11900	-25
0.12267	-26
0.12633	-25
0.13000	-24
0.13367	-22
0.13733	-16
0.14100	-9
0.14467	-1
0.14833	5
0.15200	7
0.15567	2
0.15933	-6
0.16300	-11
0.16667	-13
0.17033	-15
0.17400	-19
0.17767	-23
0.18133	-23
0.18500	-20
0.18867	-13
0.19233	-6
0.19600	-3
0.19967	-3
0.20333	-2
0.20700	-1
0.21067	-2
0.21433	-3
0.21800	-1
0.22167	2
0.22533	2
0.22900	-1
0.23267	-7
0.23633	-14
0.24000	-20
0.24367	-21
0.24733	-22
0.25100	-23
0.25467	-22
0.25833	-17
0.26200	-9
0.26567	-2
0.26933	-2
0.27300	-6
0.27667	-11
0.28033	-14
0.28400	-16
0.28767	-17
0.29133	-15
0.29500	-10
0.29867	-7
0.30233	-4
0.30600	0
0.30967	2
0.31333	2
0.31700	2
0.32067	-0
0.32433	-6
0.32800	-11
0.33167	-15
0.33533	-17
0.33900	-17
0.34267	-11
0.34633	-0
0.35000	11
0.35367	18
0.35733	16
0.36100	7
0.36467	-1
0.36833	-3
0.37200	-2
0.37567	3
0.37933	11
0.38300	17
0.38667	23
0.39033	27
0.39400	28
0.39767	24
0.40133	20
0.40500	20
0.40867	21
0.41233	26
0.41600	32
0.41967	39
0.42333	46
0.42700	54
0.43067	59
0.43433	64
0.43800	68
0.44167	71
0.44533	76
0.44900	80
0.45267	81
0.45633	80
0.46000	79
0.46367	80
0.46733	82
0.47100	83
0.47467	80
0.47833	78
0.48200	77
0.48567	77
0.48933	77
0.49300	75
0.49667	71
0.50033	63
0.50400	50
0.50767	40
0.51133	35
0.51500	33
0.51867	32
0.52233	31
0.52600	29
0.52967	29
0.53333	30
0.53700	29
0.54067	25
0.54433	21
0.54800	18
0.55167	14
0.55533	12
0.55900	11
0.56267	7
0.56633	2
0.57000	-4
0.57367	-8
0.57733	-13
0.58100	-19
0.58467	-22
0.58833	-23
0.59200	-23
0.59567	-21
0.59933	-19
0.60300	-19
0.60667	-19
0.61033	-16
0.61400	-7
0.61767	3
0.62133	6
0.62500	3
0.62867	-3
0.63233	-12
0.63600	-24
0.63967	-32
0.64333	-37
0.64700	-41
0.65067	-43
0.65433	-40
0.65800	-33
0.66167	-21
0.66533	-6
0.66900	-1
0.67267	-8
0.67633	-15
0.68000	-19
0.68367	-20
0.68733	-21
0.69100	-21
0.69467	-21
0.69833	-23
0.70200	-27
0.70567	-32
0.70933	-39
0.71300	-44
0.71667	-45
0.72033	-41
0.72400	-36
0.72767	-33
0.73133	-31
0.73500	-30
0.73867	-28
0.74233	-28
0.74600	-29
0.74967	-31
0.75333	-33
0.75700	-35
0.76067	-37
0.76433	-40
0.76800	-41
0.77167	-43
0.77533	-46
0.77900	-49
0.78267	-50
0.78633	-47
0.79000	-44
0.79367	-42
0.79733	-40
0.80100	-37
0.80467	-35
0.80833	-39
0.81200	-48
0.81567	-55
0.81933	-57
0.82300	-54
0.82667	-47
0.83033	-41
0.83400	-36
0.83767	-32
0.84133	-28
0.84500	-25
0.84867	-26
0.85233	-29
0.85600	-31
0.85967	-35
0.86333	-39
0.86700	-41
0.87067	-41
0.87433	-36
0.87800	-30
0.88167	-23
0.88533	-19
0.88900	-18
0.89267	-22
0.89633	-27
0.90000	-28
0.90367	-25
0.90733	-24
0.91100	-26
0.91467	-31
0.91833	-36
0.92200	-40
0.92567	-43
0.92933	-43
0.93300	-41
0.93667	-36
0.94033	-30
0.94400	-23
0.94767	-17
0.95133	-12
0.95500	-14
0.95867	-18
0.96233	-25
0.96600	-29
0.96967	-30
0.97333	-29
0.97700	-30
0.98067	-36
0.98433	-42
0.98800	-47
0.99167	-50
0.99533	-50
0.99900	-50
1.00267	-46
1.00633	-44
1.01000	-46
1.01367	-49
1.01733	-50
1.02100	-45
1.02467	-40
1.02833	-36
1.03200	-31
1.03567	-29
1.03933	-31
1.04300	-36
1.04667	-41
1.05033	-41
1.05400	-38
1.05767	-30
1.06133	-21
1.06500	-14
1.06867	-14
1.07233	-22
1.07600	-34
1.07967	-45
1.08333	-53
1.08700	-61
1.09067	-66
1.09433	-69
1.09800	-71
1.10167	-72
1.10533	-71
1.10900	-68
1.11267	-63
1.11633	-57
1.12000	-51
1.12367	-47
1.12733	-44
1.13100	-41
1.13467	-38
1.13833	-35
1.14200	-32
1.14567	-32
1.14933	-33
1.15300	-35
1.15667	-37
1.16033	-38
1.16400	-38
1.16767	-40
1.17133	-44
1.17500	-44
1.17867	-40
1.18233	-35
1.18600	-32
1.18967	-33
1.19333	-35
1.19700	-38
1.20067	-43
1.20433	-50
1.20800	-54
1.21167	-55
1.21533	-53
1.21900	-50
1.22267	-48
1.22633	-47
1.23000	-47
1.23367	-45
1.23733	-45
1.24100	-47
1.24467	-51
1.24833	-56
1.25200	-60
1.25567	-62
1.25933	-60
1.26300	-53
1.26667	-49
1.27033	-50
1.27400	-55
1.27767	-58
1.28133	-57
1.28500	-52
1.28867	-46
1.29233	-39
1.29600	-34
1.29967	-36
1.30333	-43
1.30700	-52
1.31067	-59
1.31433	-67
1.31800	-74
1.32167	-76
1.32533	-74
1.32900	-69
1.33267	-60
1.33633	-55
1.34000	-53
1.34367	-51
1.34733	-46
1.35100	-40
1.35467	-33
1.35833	-29
1.36200	-32
1.36567	-39
1.36933	-49
1.37300	-56
1.37667	-60
1.38033	-61
1.38400	-55
1.38767	-49
1.39133	-48
1.39500	-53
1.39867	-55
1.40233	-53
1.40600	-53
1.40967	-56
1.41333	-60
1.41700	-63
1.42067	-65
1.42433	-64
1.42800	-63
1.43167	-62
1.43533	-60
1.43900	-47
1.44267	25
1.44633	220
1.45000	672
1.45367	1720
1.45733	3537
1.46100	5807
1.46467	8032
1.46833	9879
1.47200	11190
1.47567	11862
1.47933	11789
1.48300	10942
1.48667	9476
1.49033	7698
1.49400	5936
1.49767	4409
1.50133	3198
1.50500	2295
1.50867	1646
1.51233	1189
1.51600	866
1.51967	641
1.52333	482
1.52700	371
1.53067	297
1.53433	243
1.53800	212
1.54167	239
1.54533	382
1.54900	682
1.55267	1100
1.55633	1538
1.56000	1913
1.56367	2185
1.56733	2340
1.57100	2351
1.57467	2196
1.57833	1895
1.58200	1519
1.58567	1144
1.58933	822
1.59300	571
1.59667	393
1.60033	271
1.60400	186
1.60767	122
1.61133	72
1.61500	32
1.61867	4
1.62233	-8
1.62600	-10
1.62967	-7
1.63333	-6
1.63700	-9
1.64067	-8
1.64433	-5
1.64800	-4
1.65167	-4
1.65533	-5
1.65900	-6
1.66267	-6
1.66633	-6
1.67000	-5
1.67367	-1
1.67733	5
1.68100	10
1.68467	13
1.68833	11
1.69200	8
1.69567	5
1.69933	4
1.70300	2
1.70667	2
1.71033	3
1.71400	5
1.71767	10
1.72133	15
1.72500	17
1.72867	18
1.73233	19
1.73600	21
1.73967	20
1.74333	20
1.74700	21
1.75067	20
1.75433	17
1.75800	14
1.76167	8
1.76533	2
1.76900	-1
1.77267	-2
1.77633	-3
1.78000	-1
1.78367	2
1.78733	4
1.79100	10
1.79467	17
1.79833	25
1.80200	27
1.80567	24
1.80933	20
1.81300	15
1.81667	10
1.82033	6
1.82400	4
1.82767	4
1.83133	9
1.83500	15
1.83867	16
1.84233	13
1.84600	7
1.84967	-2
1.85333	-8
1.85700	-11
1.86067	-10
1.86433	-4
1.86800	4
1.87167	11
1.87533	17
1.87900	21
1.88267	20
1.88633	19
1.89000	18
1.89367	16
1.89733	12
1.90100	8
1.90467	5
1.90833	1
1.91200	-1
1.91567	-1
1.91933	4
1.92300	10
1.92667	15
1.93033	20
1.93400	25
1.93767	28
1.94133	28
1.94500	24
1.94867	19
1.95233	24
1.95600	98
1.95967	531
1.96333	2530
1.96700	9590
1.97067	28724
1.97433	69060
1.97800	136341
1.98167	226688
1.98533	326482
1.98900	418620
1.99267	488555
1.99633	526155
2.00000	526326
2.00367	490548
2.00733	427267
2.01100	349716
2.01467	271298
2.01833	201665
2.02200	145359
2.02567	102798
2.02933	72110
2.03300	50669
2.03667	35982
2.04033	26020
2.04400	19276
2.04767	14689
2.05133	11537
2.05500	9332
2.05867	7755
2.06233	6596
2.06600	5722
2.06967	5045
2.07333	4510
2.07700	4079
2.08067	3724
2.08433	3425
2.08800	3169
2.09167	2950
2.09533	2763
2.09900	2601
2.10267	2455
2.10633	2322
2.11000	2198
2.11367	2085
2.11733	1980
2.12100	1884
2.12467	1797
2.12833	1720
2.13200	1650
2.13567	1584
2.13933	1522
2.14300	1462
2.14667	1405
2.15033	1352
2.15400	1302
2.15767	1255
2.16133	1214
2.16500	1179
2.16867	1150
2.17233	1123
2.17600	1096
2.17967	1068
2.18333	1041
2.18700	1014
2.19067	987
2.19433	956
2.19800	922
2.20167	888
2.20533	852
2.20900	820
2.21267	792
2.21633	770
2.22000	750
2.22367	734
2.22733	722
2.23100	712
2.23467	700
2.23833	686
2.24200	669
2.24567	653
2.24933	640
2.25300	631
2.25667	622
2.26033	612
2.26400	600
2.26767	587
2.27133	575
2.27500	563
2.27867	552
2.28233	543
2.28600	534
2.28967	525
2.29333	516
2.29700	510
2.30067	507
2.30433	502
2.30800	500
2.31167	498
2.31533	495
2.31900	488
2.32267	478
2.32633	469
2.33000	459
2.33367	449
2.33733	437
2.34100	426
2.34467	415
2.34833	408
2.35200	405
2.35567	404
2.35933	401
2.36300	396
2.36667	389
2.37033	382
2.37400	377
2.37767	378
2.38133	381
2.38500	380
2.38867	379
2.39233	378
2.39600	374
2.39967	363
2.40333	348
2.40700	332
2.41067	319
2.41433	313
2.41800	312
2.42167	312
2.42533	314
2.42900	319
2.43267	324
2.43633	326
2.44000	324
2.44367	317
2.44733	312
2.45100	309
2.45467	307
2.45833	308
2.46200	310
2.46567	312
2.46933	314
2.47300	314
2.47667	312
2.48033	307
2.48400	301
2.48767	295
2.49133	290
2.49500	287
2.49867	282
2.50233	278
2.50600	277
2.50967	277
2.51333	280
2.51700	285
2.52067	291
2.52433	298
2.52800	303
2.53167	304
2.53533	299
2.53900	289
2.54267	280
2.54633	271
2.55000	265
2.55367	260
2.55733	254
2.56100	247
2.56467	242
2.56833	241
2.57200	240
2.57567	242
2.57933	247
2.58300	255
2.58667	263
2.59033	264
2.59400	257
2.59767	244
2.60133	231
2.60500	225
2.60867	226
2.61233	229
2.61600	229
2.61967	228
2.62333	229
2.62700	232
2.63067	236
2.63433	239
2.63800	238
2.64167	235
2.64533	229
2.64900	224
2.65267	222
2.65633	219
2.66000	216
2.66367	216
2.66733	219
2.67100	220
2.67467	217
2.67833	213
2.68200	210
2.68567	209
2.68933	207
2.69300	206
2.69667	207
2.70033	213
2.70400	222
2.70767	231
2.71133	239
2.71500	242
2.71867	241
2.72233	236
2.72600	234
2.72967	236
2.73333	239
2.73700	239
2.74067	237
2.74433	235
2.74800	236
2.75167	237
2.75533	236
2.75900	233
2.76267	228
2.76633	221
2.77000	217
2.77367	218
2.77733	220
2.78100	223
2.78467	227
2.78833	232
2.79200	233
2.79567	231
2.79933	229
2.80300	229
2.80667	227
2.81033	225
2.81400	224
2.81767	226
2.82133	230
2.82500	236
2.82867	241
2.83233	245
2.83600	249
2.83967	253
2.84333	257
2.84700	255
2.85067	248
2.85433	239
2.85800	230
2.86167	222
2.86533	216
2.86900	214
2.87267	216
2.87633	221
2.88000	227
2.88367	234
2.88733	243
2.89100	248
2.89467	245
2.89833	239
2.90200	235
2.90567	233
2.90933	229
2.91300	226
2.91667	224
2.92033	224
2.92400	223
2.92767	222
2.93133	223
2.93500	229
2.93867	235
2.94233	239
2.94600	243
2.94967	246
2.95333	250
2.95700	252
2.96067	253
2.96433	255
2.96800	258
2.97167	262
2.97533	266
2.97900	271
2.98267	274
2.98633	275
2.99000	274
2.99367	273
2.99733	269
3.00100	263
3.00467	259
3.00833	256
3.01200	251
3.01567	246
3.01933	242
3.02300	241
3.02667	241
3.03033	241
3.03400	244
3.03767	249
3.04133	252
3.04500	254
3.04867	254
3.05233	253
3.05600	251
3.05967	249
3.06333	250
3.06700	254
3.07067	257
3.07433	256
3.07800	253
3.08167	250
3.08533	253
3.08900	260
3.09267	265
3.09633	266
3.10000	264
3.10367	259
3.10733	255
3.11100	254
3.11467	256
3.11833	263
3.12200	272
3.12567	276
3.12933	276
3.13300	270
3.13667	259
3.14033	248
3.14400	243
3.14767	243
3.15133	247
3.15500	254
3.15867	260
3.16233	261
3.16600	258
3.16967	256
3.17333	253
3.17700	251
3.18067	251
3.18433	255
3.18800	257
3.19167	255
3.19533	251
3.19900	248
3.20267	244
3.20633	242
3.21000	245
3.21367	254
3.21733	267
3.22100	277
3.22467	280
3.22833	276
3.23200	271
3.23567	264
3.23933	259
3.24300	254
3.24667	248
3.25033	244
3.25400	240
3.25767	239
3.26133	240
3.26500	243
3.26867	250
3.27233	258
3.27600	261
3.27967	258
3.28333	254
3.28700	254
3.29067	257
3.29433	256
3.29800	253
3.30167	250
3.30533	248
3.30900	246
3.31267	244
3.31633	247
3.32000	252
3.32367	258
3.32733	260
3.33100	258
3.33467	259
3.33833	261
3.34200	258
3.34567	252
3.34933	246
3.35300	241
3.35667	239
3.36033	236
3.36400	234
3.36767	233
3.37133	232
3.37500	236
3.37867	244
3.38233	253
3.38600	258
3.38967	261
3.39333	263
3.39700	260
3.40067	253
3.40433	247
3.40800	243
3.41167	243
3.41533	245
3.41900	250
3.42267	260
3.42633	270
3.43000	270
3.43367	265
3.43733	260
3.44100	252
3.44467	242
3.44833	233
3.45200	227
3.45567	223
3.45933	218
3.46300	214
3.46667	214
3.47033	219
3.47400	226
3.47767	233
3.48133	238
3.48500	242
3.48867	241
3.49233	234
3.49600	226
3.49967	222
3.50333	220
3.50700	219
3.51067	220
3.51433	225
3.51800	231
3.52167	236
3.52533	242
3.52900	247
3.53267	250
3.53633	250
3.54000	248
3.54367	247
3.54733	247
3.55100	247
3.55467	249
3.55833	250
3.56200	251
3.56567	252
3.56933	251
3.57300	248
3.57667	244
3.58033	239
3.58400	234
3.58767	231
3.59133	233
3.59500	240
3.59867	249
3.60233	253
3.60600	252
3.60967	249
3.61333	243
3.61700	234
3.62067	225
3.62433	219
3.62800	215
3.63167	212
3.63533	212
3.63900	214
3.64267	214
3.64633	214
3.65000	214
3.65367	217
3.65733	220
3.66100	222
3.66467	221
3.66833	218
3.67200	211
3.67567	204
3.67933	198
3.68300	197
3.68667	204
3.69033	211
3.69400	215
3.69767	214
3.70133	210
3.70500	205
3.70867	204
3.71233	205
3.71600	206
3.71967	206
3.72333	205
3.72700	206
3.73067	208
3.73433	210
3.73800	208
3.74167	206
3.74533	203
3.74900	198
3.75267	193
3.75633	191
3.76000	189
3.76367	185
3.76733	184
3.77100	188
3.77467	195
3.77833	201
3.78200	202
3.78567	198
3.78933	197
3.79300	202
3.79667	212
3.80033	218
3.80400	219
3.80767	215
3.81133	208
3.81500	200
3.81867	192
3.82233	188
3.82600	188
3.82967	189
3.83333	190
3.83700	192
3.84067	195
3.84433	198
3.84800	201
3.85167	204
3.85533	204
3.85900	204
3.86267	204
3.86633	203
3.87000	200
3.87367	195
3.87733	192
3.88100	193
3.88467	193
3.88833	187
3.89200	180
3.89567	178
3.89933	180
3.90300	186
3.90667	192
3.91033	196
3.91400	199
3.91767	199
3.92133	195
3.92500	190
3.92867	186
3.93233	183
3.93600	182
3.93967	183
3.94333	187
3.94700	190
3.95067	187
3.95433	180
3.95800	173
3.96167	169
3.96533	168
3.96900	169
3.97267	172
3.97633	173
3.98000	171
3.98367	167
3.98733	164
3.99100	165
3.99467	172
3.99833	179

[Chromatogram (Ch2)]
Interval(msec)	220
# of Points	1091
Start Time(min)	0.002
End Time(min)	3.998
R.Time (min)	Intensity
0.00167	-1
0.00533	-1
0.00900	-2
0.01267	-2
0.01633	-2
0.02000	-2
0.02367	-2
0.02733	-2
0.03100	-2
0.03467	-2
0.03833	-2
0.04200	-2
0.04567	-2
0.04933	-2
0.05300	-2
0.05667	-2
0.06033	-2
0.06400	-2
0.06767	-2
0.07133	-2
0.07500	-2
0.07867	-2
0.08233	-1
0.08600	-1
0.08967	-1
0.09333	-0
0.09700	-0
0.10067	-0
0.10433	0
0.10800	0
0.11167	0
0.11533	1
0.11900	1
0.12267	1
0.12633	1
0.13000	0
0.13367	0
0.13733	-0
0.14100	-0
0.14467	-0
0.14833	-0
0.15200	-0
0.15567	-0
0.15933	-0
0.16300	-1
0.16667	-1
0.17033	-1
0.17400	-1
0.17767	-1
0.18133	-1
0.18500	-1
0.18867	-1
0.19233	-0
0.19600	0
0.19967	0
0.20333	1
0.20700	0
0.21067	0
0.21433	0
0.21800	0
0.22167	0
0.22533	-0
0.22900	-0
0.23267	-1
0.23633	-1
0.24000	-1
0.24367	-1
0.24733	-1
0.25100	-1
0.25467	-1
0.25833	-1
0.26200	-1
0.26567	-1
0.26933	-2
0.27300	-2
0.27667	-2
0.28033	-3
0.28400	-3
0.28767	-3
0.29133	-3
0.29500	-4
0.29867	-4
0.30233	-5
0.30600	-5
0.30967	-5
0.31333	-5
0.31700	-4
0.32067	-4
0.32433	-4
0.32800	-3
0.33167	-3
0.33533	-2
0.33900	-2
0.34267	-2
0.34633	-2
0.35000	-1
0.35367	-1
0.35733	-1
0.36100	-1
0.36467	-0
0.36833	-0
0.37200	-0
0.37567	-0
0.37933	-1
0.38300	-1
0.38667	-1
0.39033	-1
0.39400	-2
0.39767	-2
0.40133	-2
0.40500	-2
0.40867	-2
0.41233	-2
0.41600	-2
0.41967	-2
0.42333	-2
0.42700	-2
0.43067	-2
0.43433	-2
0.43800	-1
0.44167	-1
0.44533	-1
0.44900	-1
0.45267	-1
0.45633	-1
0.46000	-1
0.46367	-1
0.46733	-0
0.47100	-0
0.47467	-0
0.47833	-1
0.48200	-1
0.48567	-1
0.48933	-1
0.49300	-2
0.49667	-2
0.50033	-2
0.50400	-2
0.50767	-2
0.51133	-3
0.51500	-3
0.51867	-3
0.52233	-2
0.52600	-2
0.52967	-2
0.53333	-2
0.53700	-2
0.54067	-2
0.54433	-2
0.54800	-2
0.55167	-2
0.55533	-1
0.55900	-1
0.56267	-1
0.56633	-1
0.57000	-1
0.57367	-1
0.57733	-1
0.58100	-2
0.58467	-2
0.58833	-3
0.59200	-3
0.59567	-3
0.59933	-4
0.60300	-4
0.60667	-4
0.61033	-4
0.61400	-4
0.61767	-4
0.62133	-4
0.62500	-4
0.62867	-3
0.63233	-3
0.63600	-3
0.63967	-3
0.64333	-3
0.64700	-3
0.65067	-3
0.65433	-2
0.65800	-2
0.66167	-2
0.66533	-2
0.66900	-1
0.67267	-1
0.67633	-1
0.68000	-1
0.68367	-1
0.68733	-0
0.69100	-0
0.69467	-0
0.69833	-1
0.70200	-1
0.70567	-1
0.70933	-2
0.71300	-2
0.71667	-3
0.72033	-3
0.72400	-3
0.72767	-3
0.73133	-3
0.73500	-3
0.73867	-3
0.74233	-3
0.74600	-3
0.74967	-2
0.75333	-2
0.75700	-2
0.76067	-2
0.76433	-2
0.76800	-1
0.77167	-1
0.77533	-0
0.77900	-0
0.78267	-0
0.78633	-0
0.79000	-0
0.79367	-0
0.79733	-0
0.80100	-0
0.80467	-1
0.80833	-1
0.81200	-1
0.81567	-1
0.81933	-2
0.82300	-2
0.82667	-2
0.83033	-2
0.83400	-1
0.83767	-1
0.84133	-1
0.84500	-0
0.84867	-0
0.85233	0
0.85600	0
0.85967	0
0.86333	0
0.86700	0
0.87067	1
0.87433	1
0.87800	1
0.88167	1
0.88533	0
0.88900	0
0.89267	-0
0.89633	-1
0.90000	-1
0.90367	-2
0.90733	-2
0.91100	-3
0.91467	-3
0.91833	-4
0.92200	-4
0.92567	-5
0.92933	-5
0.93300	-5
0.93667	-4
0.94033	-4
0.94400	-3
0.94767	-3
0.95133	-2
0.95500	-2
0.95867	-2
0.96233	-2
0.96600	-2
0.96967	-2
0.97333	-2
0.97700	-2
0.98067	-2
0.98433	-2
0.98800	-3
0.99167	-3
0.99533	-3
0.99900	-3
1.00267	-3
1.00633	-3
1.01000	-4
1.01367	-4
1.01733	-4
1.02100	-4
1.02467	-4
1.02833	-4
1.03200	-4
1.03567	-3
1.03933	-3
1.04300	-2
1.04667	-2
1.05033	-2
1.05400	-2
1.05767	-2
1.06133	-2
1.06500	-2
1.06867	-2
1.07233	-2
1.07600	-2
1.07967	-2
1.08333	-1
1.08700	-1
1.09067	-1
1.09433	-1
1.09800	-1
1.10167	-1
1.10533	-2
1.10900	-2
1.11267	-3
1.11633	-3
1.12000	-3
1.12367	-3
1.12733	-4
1.13100	-4
1.13467	-4
1.13833	-4
1.14200	-3
1.14567	-3
1.14933	-3
1.15300	-2
1.15667	-2
1.16033	-2
1.16400	-2
1.16767	-2
1.17133	-2
1.17500	-1
1.17867	-1
1.18233	-1
1.18600	-1
1.18967	-0
1.19333	-0
1.19700	0
1.20067	1
1.20433	1
1.20800	1
1.21167	1
1.21533	1
1.21900	1
1.22267	1
1.22633	2
1.23000	2
1.23367	2
1.23733	2
1.24100	2
1.24467	2
1.24833	2
1.25200	2
1.25567	2
1.25933	2
1.26300	2
1.26667	2
1.27033	2
1.27400	1
1.27767	1
1.28133	1
1.28500	0
1.28867	-0
1.29233	-0
1.29600	-1
1.29967	-1
1.30333	-1
1.30700	-1
1.31067	-1
1.31433	-1
1.31800	-1
1.32167	-1
1.32533	-2
1.32900	-2
1.33267	-2
1.33633	-3
1.34000	-3
1.34367	-3
1.34733	-3
1.35100	-3
1.35467	-3
1.35833	-3
1.36200	-3
1.36567	-3
1.36933	-3
1.37300	-3
1.37667	-3
1.38033	-3
1.38400	-4
1.38767	-4
1.39133	-5
1.39500	-5
1.39867	-5
1.40233	-5
1.40600	-5
1.40967	-5
1.41333	-5
1.41700	-5
1.42067	-5
1.42433	-5
1.42800	-5
1.43167	-5
1.43533	-5
1.43900	-5
1.44267	-4
1.44633	-4
1.45000	-3
1.45367	-3
1.45733	-3
1.46100	-2
1.46467	-2
1.46833	-1
1.47200	-1
1.47567	-1
1.47933	-2
1.48300	-2
1.48667	-2
1.49033	-3
1.49400	-3
1.49767	-3
1.50133	-3
1.50500	-3
1.50867	-3
1.51233	-3
1.51600	-3
1.51967	-3
1.52333	-3
1.52700	-3
1.53067	-3
1.53433	-3
1.53800	-3
1.54167	-2
1.54533	-2
1.54900	-2
1.55267	-2
1.55633	-2
1.56000	-2
1.56367	-2
1.56733	-3
1.57100	-3
1.57467	-3
1.57833	-2
1.58200	-2
1.58567	-2
1.58933	-3
1.59300	-3
1.59667	-4
1.60033	-4
1.60400	-5
1.60767	-6
1.61133	-8
1.61500	-10
1.61867	-12
1.62233	-15
1.62600	-18
1.62967	-21
1.63333	-24
1.63700	-28
1.64067	-31
1.64433	-35
1.64800	-38
1.65167	-42
1.65533	-45
1.65900	-49
1.66267	-53
1.66633	-58
1.67000	-63
1.67367	-68
1.67733	-74
1.68100	-79
1.68467	-84
1.68833	-89
1.69200	-93
1.69567	-97
1.69933	-101
1.70300	-103
1.70667	-105
1.71033	-107
1.71400	-108
1.71767	-110
1.72133	-111
1.72500	-111
1.72867	-112
1.73233	-112
1.73600	-112
1.73967	-112
1.74333	-112
1.74700	-112
1.75067	-112
1.75433	-112
1.75800	-112
1.76167	-112
1.76533	-113
1.76900	-113
1.77267	-114
1.77633	-115
1.78000	-116
1.78367	-117
1.78733	-118
1.79100	-119
1.79467	-119
1.79833	-119
1.80200	-119
1.80567	-119
1.80933	-118
1.81300	-118
1.81667	-118
1.82033	-118
1.82400	-118
1.82767	-119
1.83133	-119
1.83500	-120
1.83867	-121
1.84233	-121
1.84600	-122
1.84967	-122
1.85333	-122
1.85700	-122
1.86067	-121
1.86433	-120
1.86800	-120
1.87167	-119
1.87533	-119
1.87900	-118
1.88267	-118
1.88633	-118
1.89000	-119
1.89367	-119
1.89733	-119
1.90100	-118
1.90467	-118
1.90833	-118
1.91200	-117
1.91567	-117
1.91933	-116
1.92300	-116
1.92667	-115
1.93033	-115
1.93400	-115
1.93767	-115
1.94133	-115
1.94500	-114
1.94867	-114
1.95233	-114
1.95600	-114
1.95967	-114
1.96333	-114
1.96700	-113
1.97067	-113
1.97433	-113
1.97800	-112
1.98167	-111
1.98533	-111
1.98900	-111
1.99267	-111
1.99633	-111
2.00000	-110
2.00367	-110
2.00733	-110
2.01100	-110
2.01467	-110
2.01833	-110
2.02200	-109
2.02567	-109
2.02933	-108
2.03300	-108
2.03667	-107
2.04033	-107
2.04400	-106
2.04767	-106
2.05133	-106
2.05500	-106
2.05867	-106
2.06233	-106
2.06600	-107
2.06967	-107
2.07333	-107
2.07700	-107
2.08067	-106
2.08433	-106
2.08800	-105
2.09167	-105
2.09533	-105
2.09900	-105
2.10267	-105
2.10633	-104
2.11000	-104
2.11367	-104
2.11733	-103
2.12100	-102
2.12467	-102
2.12833	-101
2.13200	-100
2.13567	-99
2.13933	-99
2.14300	-99
2.14667	-98
2.15033	-98
2.15400	-98
2.15767	-99
2.16133	-99
2.16500	-99
2.16867	-99
2.17233	-99
2.17600	-99
2.17967	-98
2.18333	-97
2.18700	-97
2.19067	-96
2.19433	-96
2.19800	-95
2.20167	-95
2.20533	-94
2.20900	-94
2.21267	-93
2.21633	-93
2.22000	-93
2.22367	-93
2.22733	-94
2.23100	-94
2.23467	-94
2.23833	-94
2.24200	-94
2.24567	-94
2.24933	-94
2.25300	-94
2.25667	-93
2.26033	-93
2.26400	-92
2.26767	-92
2.27133	-91
2.27500	-90
2.27867	-89
2.28233	-89
2.28600	-88
2.28967	-88
2.29333	-87
2.29700	-87
2.30067	-87
2.30433	-87
2.30800	-86
2.31167	-86
2.31533	-85
2.31900	-85
2.32267	-85
2.32633	-85
2.33000	-84
2.33367	-84
2.33733	-83
2.34100	-83
2.34467	-83
2.34833	-82
2.35200	-80
2.35567	-79
2.35933	-78
2.36300	-77
2.36667	-76
2.37033	-75
2.37400	-73
2.37767	-70
2.38133	-68
2.38500	-64
2.38867	-61
2.39233	-57
2.39600	-54
2.39967	-50
2.40333	-46
2.40700	-42
2.41067	-38
2.41433	-34
2.41800	-31
2.42167	-28
2.42533	-25
2.42900	-22
2.43267	-20
2.43633	-18
2.44000	-17
2.44367	-15
2.44733	-13
2.45100	-11
2.45467	-9
2.45833	-7
2.46200	-6
2.46567	-4
2.46933	-3
2.47300	-2
2.47667	-1
2.48033	0
2.48400	1
2.48767	2
2.49133	3
2.49500	4
2.49867	5
2.50233	6
2.50600	6
2.50967	7
2.51333	8
2.51700	9
2.52067	10
2.52433	10
2.52800	11
2.53167	11
2.53533	11
2.53900	11
2.54267	12
2.54633	12
2.55000	13
2.55367	13
2.55733	14
2.56100	14
2.56467	14
2.56833	14
2.57200	14
2.57567	14
2.57933	14
2.58300	14
2.58667	15
2.59033	15
2.59400	15
2.59767	15
2.60133	15
2.60500	15
2.60867	16
2.61233	16
2.61600	16
2.61967	17
2.62333	17
2.62700	17
2.63067	17
2.63433	17
2.63800	17
2.64167	17
2.64533	17
2.64900	17
2.65267	18
2.65633	18
2.66000	18
2.66367	19
2.66733	19
2.67100	19
2.67467	20
2.67833	21
2.68200	21
2.68567	21
2.68933	21
2.69300	21
2.69667	21
2.70033	21
2.70400	21
2.70767	21
2.71133	22
2.71500	22
2.71867	22
2.72233	22
2.72600	23
2.72967	23
2.73333	23
2.73700	23
2.74067	23
2.74433	23
2.74800	22
2.75167	22
2.75533	22
2.75900	22
2.76267	22
2.76633	22
2.77000	22
2.77367	23
2.77733	23
2.78100	23
2.78467	24
2.78833	24
2.79200	24
2.79567	24
2.79933	24
2.80300	24
2.80667	24
2.81033	24
2.81400	24
2.81767	24
2.82133	24
2.82500	25
2.82867	25
2.83233	25
2.83600	24
2.83967	22
2.84333	20
2.84700	15
2.85067	8
2.85433	-2
2.85800	-16
2.86167	-33
2.86533	-54
2.86900	-80
2.87267	-110
2.87633	-144
2.88000	-181
2.88367	-222
2.88733	-267
2.89100	-314
2.89467	-363
2.89833	-414
2.90200	-466
2.90567	-519
2.90933	-572
2.91300	-626
2.91667	-679
2.92033	-732
2.92400	-783
2.92767	-834
2.93133	-886
2.93500	-943
2.93867	-1002
2.94233	-1057
2.94600	-1095
2.94967	-1110
2.95333	-1098
2.95700	-1062
2.96067	-1007
2.96433	-938
2.96800	-861
2.97167	-780
2.97533	-699
2.97900	-621
2.98267	-547
2.98633	-479
2.99000	-417
2.99367	-361
2.99733	-311
3.00100	-267
3.00467	-229
3.00833	-195
3.01200	-166
3.01567	-140
3.01933	-118
3.02300	-100
3.02667	-84
3.03033	-70
3.03400	-58
3.03767	-48
3.04133	-39
3.04500	-31
3.04867	-25
3.05233	-20
3.05600	-15
3.05967	-11
3.06333	-7
3.06700	-4
3.07067	-2
3.07433	0
3.07800	2
3.08167	4
3.08533	5
3.08900	6
3.09267	7
3.09633	8
3.10000	9
3.10367	10
3.10733	11
3.11100	11
3.11467	12
3.11833	13
3.12200	13
3.12567	14
3.12933	14
3.13300	14
3.13667	15
3.14033	15
3.14400	15
3.14767	15
3.15133	16
3.15500	16
3.15867	16
3.16233	16
3.16600	16
3.16967	16
3.17333	16
3.17700	17
3.18067	17
3.18433	17
3.18800	17
3.19167	18
3.19533	18
3.19900	18
3.20267	19
3.20633	19
3.21000	19
3.21367	19
3.21733	19
3.22100	19
3.22467	19
3.22833	19
3.23200	19
3.23567	19
3.23933	19
3.24300	19
3.24667	20
3.25033	20
3.25400	20
3.25767	20
3.26133	20
3.26500	20
3.26867	20
3.27233	19
3.27600	19
3.27967	19
3.28333	19
3.28700	19
3.29067	19
3.29433	20
3.29800	20
3.30167	20
3.30533	20
3.30900	21
3.31267	21
3.31633	21
3.32000	22
3.32367	22
3.32733	23
3.33100	23
3.33467	24
3.33833	24
3.34200	25
3.34567	25
3.34933	25
3.35300	25
3.35667	25
3.36033	26
3.36400	26
3.36767	26
3.37133	26
3.37500	26
3.37867	25
3.38233	25
3.38600	25
3.38967	25
3.39333	25
3.39700	25
3.40067	25
3.40433	25
3.40800	25
3.41167	25
3.41533	25
3.41900	25
3.42267	25
3.42633	25
3.43000	25
3.43367	25
3.43733	25
3.44100	25
3.44467	25
3.44833	25
3.45200	26
3.45567	26
3.45933	26
3.46300	26
3.46667	26
3.47033	26
3.47400	26
3.47767	26
3.48133	26
3.48500	26
3.48867	26
3.49233	26
3.49600	26
3.49967	26
3.50333	26
3.50700	25
3.51067	26
3.51433	25
3.51800	25
3.52167	25
3.52533	25
3.52900	25
3.53267	25
3.53633	25
3.54000	24
3.54367	24
3.54733	24
3.55100	24
3.55467	24
3.55833	24
3.56200	24
3.56567	24
3.56933	24
3.57300	24
3.57667	23
3.58033	24
3.58400	24
3.58767	24
3.59133	24
3.59500	25
3.59867	25
3.60233	25
3.60600	25
3.60967	25
3.61333	25
3.61700	25
3.62067	25
3.62433	25
3.62800	25
3.63167	25
3.63533	25
3.63900	25
3.64267	25
3.64633	25
3.65000	25
3.65367	25
3.65733	25
3.66100	25
3.66467	25
3.66833	24
3.67200	24
3.67567	24
3.67933	24
3.68300	24
3.68667	24
3.69033	24
3.69400	24
3.69767	24
3.70133	24
3.70500	24
3.70867	24
3.71233	24
3.71600	24
3.71967	24
3.72333	24
3.72700	24
3.73067	24
3.73433	24
3.73800	24
3.74167	25
3.74533	25
3.74900	25
3.75267	25
3.75633	26
3.76000	26
3.76367	26
3.76733	26
3.77100	26
3.77467	26
3.77833	26
3.78200	26
3.78567	26
3.78933	26
3.79300	26
3.79667	25
3.80033	25
3.80400	25
3.80767	25
3.81133	25
3.81500	25
3.81867	25
3.82233	25
3.82600	25
3.82967	25
3.83333	25
3.83700	25
3.84067	25
3.84433	25
3.84800	25
3.85167	25
3.85533	25
3.85900	25
3.86267	25
3.86633	24
3.87000	24
3.87367	24
3.87733	24
3.88100	24
3.88467	24
3.88833	24
3.89200	24
3.89567	24
3.89933	24
3.90300	25
3.90667	25
3.91033	25
3.91400	25
3.91767	25
3.92133	25
3.92500	25
3.92867	25
3.93233	25
3.93600	26
3.93967	26
3.94333	26
3.94700	26
3.95067	26
3.95433	26
3.95800	26
3.96167	26
3.96533	26
3.96900	26
3.97267	26
3.97633	26
3.98000	26
3.98367	26
3.98733	26
3.99100	27
3.99467	27
3.99833	27

[Chromatogram (Ch3)]
Interval(msec)	220
# of Points	1091
Start Time(min)	0.002
End Time(min)	3.998
R.Time (min)	Intensity
0.00167	0
0.00533	1
0.00900	-0
0.01267	-3
0.01633	-5
0.02000	-2
0.02367	-1
0.02733	-1
0.03100	-0
0.03467	0
0.03833	0
0.04200	-0
0.04567	0
0.04933	0
0.05300	0
0.05667	1
0.06033	-1
0.06400	-2
0.06767	-3
0.07133	-3
0.07500	-2
0.07867	-5
0.08233	-6
0.08600	-6
0.08967	-3
0.09333	-1
0.09700	0
0.10067	1
0.10433	4
0.10800	5
0.11167	3
0.11533	1
0.11900	0
0.12267	-1
0.12633	-3
0.13000	-5
0.13367	-3
0.13733	0
0.14100	3
0.14467	2
0.14833	1
0.15200	1
0.15567	0
0.15933	1
0.16300	2
0.16667	-1
0.17033	-2
0.17400	-2
0.17767	-4
0.18133	-4
0.18500	-3
0.18867	-3
0.19233	-4
0.19600	-6
0.19967	-5
0.20333	-1
0.20700	1
0.21067	2
0.21433	1
0.21800	0
0.22167	1
0.22533	3
0.22900	4
0.23267	4
0.23633	4
0.24000	3
0.24367	4
0.24733	4
0.25100	3
0.25467	1
0.25833	1
0.26200	1
0.26567	1
0.26933	1
0.27300	1
0.27667	1
0.28033	0
0.28400	1
0.28767	2
0.29133	3
0.29500	6
0.29867	8
0.30233	10
0.30600	9
0.30967	9
0.31333	10
0.31700	11
0.32067	10
0.32433	11
0.32800	8
0.33167	5
0.33533	2
0.33900	2
0.34267	1
0.34633	1
0.35000	2
0.35367	2
0.35733	3
0.36100	4
0.36467	5
0.36833	5
0.37200	6
0.37567	5
0.37933	3
0.38300	3
0.38667	3
0.39033	5
0.39400	5
0.39767	7
0.40133	9
0.40500	10
0.40867	10
0.41233	8
0.41600	8
0.41967	9
0.42333	8
0.42700	8
0.43067	8
0.43433	9
0.43800	9
0.44167	7
0.44533	6
0.44900	5
0.45267	6
0.45633	8
0.46000	9
0.46367	9
0.46733	9
0.47100	8
0.47467	8
0.47833	7
0.48200	6
0.48567	8
0.48933	10
0.49300	11
0.49667	11
0.50033	10
0.50400	7
0.50767	6
0.51133	4
0.51500	4
0.51867	4
0.52233	5
0.52600	6
0.52967	8
0.53333	9
0.53700	11
0.54067	10
0.54433	8
0.54800	6
0.55167	5
0.55533	4
0.55900	5
0.56267	5
0.56633	7
0.57000	9
0.57367	12
0.57733	15
0.58100	13
0.58467	13
0.58833	13
0.59200	9
0.59567	7
0.59933	7
0.60300	8
0.60667	8
0.61033	5
0.61400	6
0.61767	8
0.62133	9
0.62500	8
0.62867	6
0.63233	5
0.63600	5
0.63967	6
0.64333	9
0.64700	10
0.65067	8
0.65433	6
0.65800	8
0.66167	12
0.66533	13
0.66900	10
0.67267	8
0.67633	8
0.68000	8
0.68367	9
0.68733	10
0.69100	9
0.69467	10
0.69833	12
0.70200	12
0.70567	11
0.70933	12
0.71300	13
0.71667	11
0.72033	11
0.72400	12
0.72767	13
0.73133	14
0.73500	16
0.73867	16
0.74233	14
0.74600	13
0.74967	12
0.75333	12
0.75700	11
0.76067	8
0.76433	7
0.76800	5
0.77167	4
0.77533	6
0.77900	7
0.78267	7
0.78633	7
0.79000	8
0.79367	8
0.79733	10
0.80100	11
0.80467	12
0.80833	13
0.81200	14
0.81567	14
0.81933	12
0.82300	11
0.82667	10
0.83033	7
0.83400	5
0.83767	4
0.84133	5
0.84500	6
0.84867	8
0.85233	12
0.85600	12
0.85967	12
0.86333	12
0.86700	9
0.87067	7
0.87433	6
0.87800	6
0.88167	8
0.88533	11
0.88900	13
0.89267	15
0.89633	14
0.90000	14
0.90367	14
0.90733	14
0.91100	13
0.91467	13
0.91833	13
0.92200	12
0.92567	10
0.92933	8
0.93300	6
0.93667	5
0.94033	6
0.94400	8
0.94767	9
0.95133	9
0.95500	11
0.95867	13
0.96233	14
0.96600	12
0.96967	13
0.97333	12
0.97700	12
0.98067	13
0.98433	14
0.98800	10
0.99167	8
0.99533	7
0.99900	6
1.00267	7
1.00633	9
1.01000	11
1.01367	15
1.01733	18
1.02100	20
1.02467	20
1.02833	19
1.03200	18
1.03567	16
1.03933	15
1.04300	15
1.04667	17
1.05033	17
1.05400	15
1.05767	14
1.06133	13
1.06500	15
1.06867	16
1.07233	16
1.07600	14
1.07967	12
1.08333	12
1.08700	14
1.09067	14
1.09433	16
1.09800	17
1.10167	19
1.10533	18
1.10900	15
1.11267	15
1.11633	16
1.12000	17
1.12367	17
1.12733	16
1.13100	15
1.13467	16
1.13833	18
1.14200	19
1.14567	19
1.14933	19
1.15300	19
1.15667	20
1.16033	19
1.16400	20
1.16767	19
1.17133	18
1.17500	17
1.17867	17
1.18233	18
1.18600	18
1.18967	16
1.19333	13
1.19700	13
1.20067	14
1.20433	13
1.20800	12
1.21167	14
1.21533	13
1.21900	13
1.22267	12
1.22633	11
1.23000	14
1.23367	16
1.23733	16
1.24100	17
1.24467	17
1.24833	16
1.25200	16
1.25567	14
1.25933	13
1.26300	11
1.26667	13
1.27033	14
1.27400	15
1.27767	15
1.28133	15
1.28500	17
1.28867	18
1.29233	17
1.29600	18
1.29967	19
1.30333	18
1.30700	18
1.31067	18
1.31433	18
1.31800	19
1.32167	20
1.32533	21
1.32900	21
1.33267	21
1.33633	20
1.34000	20
1.34367	21
1.34733	21
1.35100	18
1.35467	17
1.35833	17
1.36200	17
1.36567	17
1.36933	19
1.37300	19
1.37667	19
1.38033	18
1.38400	17
1.38767	19
1.39133	23
1.39500	25
1.39867	25
1.40233	25
1.40600	24
1.40967	22
1.41333	22
1.41700	21
1.42067	20
1.42433	20
1.42800	20
1.43167	21
1.43533	23
1.43900	23
1.44267	24
1.44633	25
1.45000	25
1.45367	23
1.45733	23
1.46100	25
1.46467	24
1.46833	22
1.47200	24
1.47567	24
1.47933	23
1.48300	25
1.48667	27
1.49033	27
1.49400	25
1.49767	25
1.50133	26
1.50500	29
1.50867	27
1.51233	25
1.51600	24
1.51967	24
1.52333	23
1.52700	22
1.53067	23
1.53433	22
1.53800	22
1.54167	21
1.54533	20
1.54900	19
1.55267	19
1.55633	22
1.56000	23
1.56367	23
1.56733	25
1.57100	26
1.57467	27
1.57833	30
1.58200	30
1.58567	30
1.58933	29
1.59300	30
1.59667	33
1.60033	32
1.60400	31
1.60767	30
1.61133	31
1.61500	32
1.61867	31
1.62233	30
1.62600	29
1.62967	28
1.63333	26
1.63700	26
1.64067	26
1.64433	26
1.64800	27
1.65167	28
1.65533	30
1.65900	32
1.66267	33
1.66633	34
1.67000	36
1.67367	39
1.67733	40
1.68100	41
1.68467	41
1.68833	44
1.69200	44
1.69567	41
1.69933	39
1.70300	37
1.70667	34
1.71033	34
1.71400	35
1.71767	35
1.72133	36
1.72500	37
1.72867	37
1.73233	36
1.73600	33
1.73967	33
1.74333	35
1.74700	38
1.75067	41
1.75433	43
1.75800	46
1.76167	46
1.76533	44
1.76900	43
1.77267	42
1.77633	44
1.78000	44
1.78367	42
1.78733	42
1.79100	42
1.79467	44
1.79833	46
1.80200	47
1.80567	47
1.80933	47
1.81300	49
1.81667	49
1.82033	49
1.82400	48
1.82767	47
1.83133	48
1.83500	51
1.83867	50
1.84233	48
1.84600	47
1.84967	46
1.85333	47
1.85700	47
1.86067	48
1.86433	50
1.86800	51
1.87167	50
1.87533	50
1.87900	52
1.88267	54
1.88633	56
1.89000	57
1.89367	56
1.89733	56
1.90100	56
1.90467	56
1.90833	59
1.91200	61
1.91567	62
1.91933	65
1.92300	66
1.92667	65
1.93033	66
1.93400	66
1.93767	66
1.94133	67
1.94500	66
1.94867	65
1.95233	66
1.95600	70
1.95967	73
1.96333	75
1.96700	76
1.97067	77
1.97433	75
1.97800	74
1.98167	72
1.98533	71
1.98900	74
1.99267	76
1.99633	76
2.00000	75
2.00367	75
2.00733	76
2.01100	79
2.01467	79
2.01833	81
2.02200	82
2.02567	83
2.02933	84
2.03300	85
2.03667	87
2.04033	87
2.04400	85
2.04767	83
2.05133	83
2.05500	86
2.05867	88
2.06233	89
2.06600	90
2.06967	89
2.07333	88
2.07700	88
2.08067	89
2.08433	91
2.08800	93
2.09167	95
2.09533	94
2.09900	94
2.10267	95
2.10633	94
2.11000	95
2.11367	96
2.11733	98
2.12100	98
2.12467	97
2.12833	96
2.13200	96
2.13567	96
2.13933	98
2.14300	100
2.14667	102
2.15033	101
2.15400	100
2.15767	101
2.16133	105
2.16500	108
2.16867	111
2.17233	111
2.17600	108
2.17967	106
2.18333	106
2.18700	109
2.19067	112
2.19433	113
2.19800	114
2.20167	118
2.20533	120
2.20900	121
2.21267	120
2.21633	121
2.22000	120
2.22367	119
2.22733	122
2.23100	126
2.23467	125
2.23833	126
2.24200	128
2.24567	128
2.24933	131
2.25300	132
2.25667	134
2.26033	134
2.26400	135
2.26767	135
2.27133	134
2.27500	134
2.27867	137
2.28233	140
2.28600	142
2.28967	142
2.29333	145
2.29700	147
2.30067	148
2.30433	151
2.30800	152
2.31167	152
2.31533	150
2.31900	150
2.32267	154
2.32633	157
2.33000	160
2.33367	161
2.33733	161
2.34100	159
2.34467	158
2.34833	157
2.35200	157
2.35567	159
2.35933	163
2.36300	165
2.36667	163
2.37033	164
2.37400	165
2.37767	168
2.38133	169
2.38500	169
2.38867	169
2.39233	171
2.39600	175
2.39967	178
2.40333	178
2.40700	180
2.41067	181
2.41433	183
2.41800	184
2.42167	185
2.42533	186
2.42900	185
2.43267	186
2.43633	189
2.44000	192
2.44367	214
2.44733	264
2.45100	308
2.45467	336
2.45833	349
2.46200	341
2.46567	317
2.46933	291
2.47300	269
2.47667	252
2.48033	240
2.48400	233
2.48767	226
2.49133	216
2.49500	202
2.49867	186
2.50233	173
2.50600	163
2.50967	160
2.51333	157
2.51700	157
2.52067	155
2.52433	154
2.52800	155
2.53167	160
2.53533	167
2.53900	172
2.54267	175
2.54633	179
2.55000	183
2.55367	184
2.55733	185
2.56100	182
2.56467	178
2.56833	175
2.57200	173
2.57567	171
2.57933	168
2.58300	166
2.58667	163
2.59033	161
2.59400	159
2.59767	155
2.60133	149
2.60500	138
2.60867	125
2.61233	111
2.61600	97
2.61967	81
2.62333	65
2.62700	50
2.63067	40
2.63433	35
2.63800	30
2.64167	28
2.64533	32
2.64900	37
2.65267	43
2.65633	50
2.66000	59
2.66367	68
2.66733	77
2.67100	89
2.67467	101
2.67833	113
2.68200	124
2.68567	131
2.68933	138
2.69300	146
2.69667	151
2.70033	157
2.70400	164
2.70767	170
2.71133	176
2.71500	182
2.71867	186
2.72233	188
2.72600	189
2.72967	191
2.73333	192
2.73700	194
2.74067	197
2.74433	200
2.74800	199
2.75167	198
2.75533	199
2.75900	201
2.76267	203
2.76633	206
2.77000	206
2.77367	205
2.77733	206
2.78100	208
2.78467	210
2.78833	213
2.79200	216
2.79567	220
2.79933	223
2.80300	225
2.80667	226
2.81033	227
2.81400	228
2.81767	231
2.82133	245
2.82500	281
2.82867	351
2.83233	479
2.83600	681
2.83967	978
2.84333	1379
2.84700	1876
2.85067	2440
2.85433	3032
2.85800	3606
2.86167	4116
2.86533	4521
2.86900	4793
2.87267	4923
2.87633	4914
2.88000	4783
2.88367	4559
2.88733	4270
2.89100	3939
2.89467	3591
2.89833	3246
2.90200	2910
2.90567	2592
2.90933	2304
2.91300	2043
2.91667	1809
2.92033	1601
2.92400	1417
2.92767	1254
2.93133	1115
2.93500	996
2.93867	891
2.94233	802
2.94600	727
2.94967	661
2.95333	604
2.95700	554
2.96067	509
2.96433	471
2.96800	438
2.97167	410
2.97533	384
2.97900	362
2.98267	349
2.98633	339
2.99000	327
2.99367	315
2.99733	305
3.00100	297
3.00467	291
3.00833	285
3.01200	280
3.01567	276
3.01933	273
3.02300	269
3.02667	266
3.03033	266
3.03400	264
3.03767	261
3.04133	260
3.04500	258
3.04867	254
3.05233	251
3.05600	248
3.05967	246
3.06333	245
3.06700	246
3.07067	245
3.07433	244
3.07800	241
3.08167	236
3.08533	234
3.08900	234
3.09267	236
3.09633	236
3.10000	234
3.10367	231
3.10733	228
3.11100	227
3.11467	224
3.11833	222
3.12200	223
3.12567	225
3.12933	227
3.13300	225
3.13667	220
3.14033	218
3.14400	218
3.14767	217
3.15133	215
3.15500	213
3.15867	213
3.16233	214
3.16600	213
3.16967	215
3.17333	216
3.17700	215
3.18067	215
3.18433	216
3.18800	218
3.19167	219
3.19533	220
3.19900	221
3.20267	214
3.20633	186
3.21000	141
3.21367	115
3.21733	121
3.22100	155
3.22467	202
3.22833	252
3.23200	304
3.23567	356
3.23933	404
3.24300	449
3.24667	488
3.25033	528
3.25400	566
3.25767	602
3.26133	636
3.26500	667
3.26867	692
3.27233	714
3.27600	730
3.27967	743
3.28333	753
3.28700	765
3.29067	776
3.29433	785
3.29800	792
3.30167	796
3.30533	799
3.30900	803
3.31267	806
3.31633	807
3.32000	808
3.32367	810
3.32733	811
3.33100	807
3.33467	805
3.33833	804
3.34200	801
3.34567	800
3.34933	798
3.35300	797
3.35667	799
3.36033	798
3.36400	798
3.36767	798
3.37133	798
3.37500	796
3.37867	797
3.38233	800
3.38600	802
3.38967	804
3.39333	807
3.39700	809
3.40067	811
3.40433	815
3.40800	820
3.41167	827
3.41533	830
3.41900	833
3.42267	835
3.42633	837
3.43000	841
3.43367	847
3.43733	848
3.44100	848
3.44467	848
3.44833	849
3.45200	848
3.45567	849
3.45933	850
3.46300	845
3.46667	838
3.47033	833
3.47400	828
3.47767	825
3.48133	822
3.48500	817
3.48867	813
3.49233	810
3.49600	806
3.49967	801
3.50333	795
3.50700	789
3.51067	782
3.51433	776
3.51800	769
3.52167	764
3.52533	759
3.52900	755
3.53267	751
3.53633	746
3.54000	741
3.54367	734
3.54733	730
3.55100	725
3.55467	719
3.55833	715
3.56200	711
3.56567	709
3.56933	704
3.57300	700
3.57667	695
3.58033	687
3.58400	684
3.58767	683
3.59133	681
3.59500	680
3.59867	678
3.60233	675
3.60600	671
3.60967	667
3.61333	664
3.61700	661
3.62067	659
3.62433	655
3.62800	652
3.63167	650
3.63533	646
3.63900	641
3.64267	637
3.64633	633
3.65000	631
3.65367	630
3.65733	630
3.66100	627
3.66467	622
3.66833	619
3.67200	616
3.67567	614
3.67933	614
3.68300	615
3.68667	615
3.69033	615
3.69400	614
3.69767	612
3.70133	609
3.70500	605
3.70867	604
3.71233	603
3.71600	601
3.71967	601
3.72333	602
3.72700	599
3.73067	597
3.73433	597
3.73800	596
3.74167	593
3.74533	589
3.74900	584
3.75267	581
3.75633	579
3.76000	578
3.76367	577
3.76733	576
3.77100	576
3.77467	575
3.77833	573
3.78200	572
3.78567	571
3.78933	568
3.79300	566
3.79667	563
3.80033	558
3.80400	557
3.80767	557
3.81133	557
3.81500	558
3.81867	558
3.82233	558
3.82600	557
3.82967	556
3.83333	554
3.83700	551
3.84067	548
3.84433	545
3.84800	546
3.85167	549
3.85533	548
3.85900	546
3.86267	543
3.86633	541
3.87000	540
3.87367	539
3.87733	538
3.88100	538
3.88467	536
3.88833	532
3.89200	530
3.89567	529
3.89933	528
3.90300	527
3.90667	527
3.91033	527
3.91400	529
3.91767	528
3.92133	526
3.92500	526
3.92867	526
3.93233	527
3.93600	527
3.93967	524
3.94333	520
3.94700	522
3.95067	525
3.95433	527
3.95800	524
3.96167	522
3.96533	522
3.96900	521
3.97267	519
3.97633	517
3.98000	514
3.98367	513
3.98733	513
3.99100	513
3.99467	511
3.99833	507

[Status Trace (Column Oven Temperature)]
Interval(msec)	1000
# of Points	240
Start Time(min)	0.010
End Time(min)	3.994
Intensity Units	
Intensity Multiplier	1
R.Time (min)	Intensity
0.01045	35.01
0.02712	35.02
0.04378	35.02
0.06045	35.01
0.07712	35.01
0.09378	35.01
0.11045	35.00
0.12712	34.99
0.14378	34.98
0.16045	34.98
0.17712	34.97
0.19378	34.96
0.21045	34.97
0.22712	34.97
0.24378	34.97
0.26045	34.97
0.27712	34.98
0.29378	34.98
0.31045	35.00
0.32712	34.99
0.34378	34.99
0.36045	34.99
0.37712	34.99
0.39378	34.99
0.41045	34.99
0.42712	34.99
0.44378	34.99
0.46045	34.98
0.47712	34.98
0.49378	34.99
0.51045	35.00
0.52712	35.01
0.54378	35.00
0.56045	34.99
0.57712	35.00
0.59378	35.02
0.61045	35.02
0.62712	35.03
0.64378	35.03
0.66045	35.02
0.67712	35.02
0.69378	35.02
0.71045	35.03
0.72712	35.04
0.74378	35.03
0.76045	35.02
0.77712	35.02
0.79378	35.02
0.81045	35.02
0.82712	35.02
0.84378	35.01
0.86045	35.01
0.87712	35.00
0.89378	35.00
0.91045	35.01
0.92712	35.02
0.94378	35.03
0.96045	35.02
0.97712	35.02
0.99378	35.02
1.01045	35.04
1.02712	35.04
1.04378	35.04
1.06045	35.04
1.07712	35.02
1.09378	35.02
1.11045	35.03
1.12712	35.04
1.14378	35.05
1.16045	35.05
1.17712	35.03
1.19378	35.02
1.21045	35.02
1.22712	35.00
1.24378	34.98
1.26045	34.97
1.27712	34.97
1.29378	34.97
1.31045	34.97
1.32712	34.97
1.34378	34.98
1.36045	34.99
1.37712	35.00
1.39378	35.01
1.41045	35.02
1.42712	35.03
1.44378	35.02
1.46045	35.01
1.47712	35.01
1.49378	35.01
1.51045	35.01
1.52712	35.00
1.54378	35.00
1.56045	35.00
1.57712	35.00
1.59378	35.01
1.61045	35.08
1.62712	35.21
1.64378	35.40
1.66045	35.66
1.67712	36.01
1.69378	36.38
1.71045	36.73
1.72712	37.07
1.74378	37.39
1.76045	37.70
1.77712	38.05
1.79378	38.38
1.81045	38.70
1.82712	39.05
1.84378	39.39
1.86045	39.70
1.87712	40.03
1.89378	40.36
1.91045	40.68
1.92712	41.02
1.94378	41.35
1.96045	41.68
1.97712	41.99
1.99378	42.31
2.01045	42.64
2.02712	42.96
2.04378	43.29
2.06045	43.61
2.07712	43.96
2.09378	44.28
2.11045	44.60
2.12712	44.91
2.14378	45.24
2.16045	45.57
2.17712	45.89
2.19378	46.21
2.21045	46.53
2.22712	46.89
2.24378	47.21
2.26045	47.54
2.27712	47.87
2.29378	48.20
2.31045	48.54
2.32712	48.87
2.34378	49.19
2.36045	49.48
2.37712	49.67
2.39378	49.75
2.41045	49.74
2.42712	49.74
2.44378	49.75
2.46045	49.76
2.47712	49.76
2.49378	49.77
2.51045	49.79
2.52712	49.80
2.54378	49.80
2.56045	49.81
2.57712	49.82
2.59378	49.83
2.61045	49.82
2.62712	49.84
2.64378	49.85
2.66045	49.85
2.67712	49.84
2.69378	49.85
2.71045	49.85
2.72712	49.84
2.74378	49.88
2.76045	49.88
2.77712	49.89
2.79378	49.89
2.81045	49.89
2.82712	49.91
2.84378	49.93
2.86045	49.94
2.87712	49.95
2.89378	49.95
2.91045	49.96
2.92712	49.96
2.94378	49.95
2.96045	49.95
2.97712	49.96
2.99378	49.96
3.01045	49.97
3.02712	49.98
3.04378	49.99
3.06045	50.00
3.07712	50.01
3.09378	50.01
3.11045	50.01
3.12712	50.02
3.14378	50.02
3.16045	50.04
3.17712	50.04
3.19378	50.04
3.21045	50.06
3.22712	50.06
3.24378	50.07
3.26045	50.09
3.27712	50.10
3.29378	50.11
3.31045	50.11
3.32712	50.10
3.34378	50.08
3.36045	50.08
3.37712	50.07
3.39378	50.06
3.41045	50.06
3.42712	50.05
3.44378	50.05
3.46045	50.04
3.47712	50.04
3.49378	50.04
3.51045	50.04
3.52712	50.05
3.54378	50.05
3.56045	50.05
3.57712	50.05
3.59378	50.05
3.61045	50.05
3.62712	50.05
3.64378	50.06
3.66045	50.06
3.67712	50.07
3.69378	50.07
3.71045	50.08
3.72712	50.07
3.74378	50.07
3.76045	50.07
3.77712	50.07
3.79378	50.06
3.81045	50.06
3.82712	50.06
3.84378	50.07
3.86045	50.07
3.87712	50.07
3.89378	50.07
3.91045	50.06
3.92712	50.05
3.94378	50.04
3.96045	50.04
3.97712	50.03
3.99378	50.02

[Status Trace (Injection Unit Temperature)]
Interval(msec)	1000
# of Points	240
Start Time(min)	0.010
End Time(min)	3.994
Intensity Units	
Intensity Multiplier	1
R.Time (min)	Intensity
0.01045	99.96
0.02712	99.97
0.04378	99.97
0.06045	99.97
0.07712	99.97
0.09378	99.97
0.11045	99.97
0.12712	99.97
0.14378	99.97
0.16045	99.98
0.17712	99.97
0.19378	99.97
0.21045	99.97
0.22712	99.97
0.24378	99.98
0.26045	99.97
0.27712	99.97
0.29378	99.97
0.31045	99.98
0.32712	99.98
0.34378	99.98
0.36045	99.97
0.37712	99.98
0.39378	99.98
0.41045	99.98
0.42712	99.97
0.44378	99.98
0.46045	99.99
0.47712	99.98
0.49378	99.98
0.51045	99.98
0.52712	99.98
0.54378	99.99
0.56045	99.98
0.57712	99.98
0.59378	99.98
0.61045	99.98
0.62712	99.99
0.64378	99.98
0.66045	99.98
0.67712	99.98
0.69378	99.98
0.71045	99.99
0.72712	99.98
0.74378	99.99
0.76045	99.98
0.77712	99.98
0.79378	99.98
0.81045	99.99
0.82712	99.98
0.84378	99.99
0.86045	99.99
0.87712	99.98
0.89378	99.98
0.91045	99.98
0.92712	99.98
0.94378	99.98
0.96045	99.98
0.97712	99.98
0.99378	99.98
1.01045	99.98
1.02712	99.98
1.04378	99.98
1.06045	99.98
1.07712	99.98
1.09378	99.97
1.11045	99.97
1.12712	99.98
1.14378	99.98
1.16045	99.98
1.17712	99.98
1.19378	99.98
1.21045	99.97
1.22712	99.98
1.24378	99.98
1.26045	99.97
1.27712	99.98
1.29378	99.97
1.31045	99.98
1.32712	99.97
1.34378	99.97
1.36045	99.98
1.37712	99.97
1.39378	99.98
1.41045	99.98
1.42712	99.97
1.44378	99.98
1.46045	99.98
1.47712	99.98
1.49378	99.98
1.51045	99.98
1.52712	99.98
1.54378	99.98
1.56045	99.98
1.57712	99.98
1.59378	99.99
1.61045	99.98
1.62712	99.98
1.64378	99.98
1.66045	99.99
1.67712	99.98
1.69378	99.98
1.71045	99.99
1.72712	99.98
1.74378	99.98
1.76045	99.98
1.77712	99.99
1.79378	99.98
1.81045	99.99
1.82712	99.99
1.84378	99.99
1.86045	99.99
1.87712	99.98
1.89378	99.99
1.91045	99.98
1.92712	99.98
1.94378	99.98
1.96045	99.98
1.97712	99.98
1.99378	99.98
2.01045	99.98
2.02712	99.98
2.04378	99.98
2.06045	99.98
2.07712	99.98
2.09378	99.98
2.11045	99.97
2.12712	99.98
2.14378	99.98
2.16045	99.98
2.17712	99.97
2.19378	99.98
2.21045	99.98
2.22712	99.97
2.24378	99.98
2.26045	99.98
2.27712	99.97
2.29378	99.97
2.31045	99.97
2.32712	99.97
2.34378	99.97
2.36045	99.97
2.37712	99.97
2.39378	99.97
2.41045	99.98
2.42712	99.97
2.44378	99.97
2.46045	99.97
2.47712	99.98
2.49378	99.97
2.51045	99.97
2.52712	99.97
2.54378	99.97
2.56045	99.97
2.57712	99.98
2.59378	99.97
2.61045	99.98
2.62712	99.98
2.64378	99.98
2.66045	99.98
2.67712	99.98
2.69378	99.98
2.71045	99.98
2.72712	99.98
2.74378	99.98
2.76045	99.98
2.77712	99.99
2.79378	99.99
2.81045	99.99
2.82712	99.99
2.84378	99.99
2.86045	99.99
2.87712	99.99
2.89378	99.99
2.91045	100.00
2.92712	100.00
2.94378	99.99
2.96045	100.00
2.97712	100.00
2.99378	100.00
3.01045	100.01
3.02712	100.00
3.04378	100.01
3.06045	100.01
3.07712	100.01
3.09378	100.01
3.11045	100.01
3.12712	100.01
3.14378	100.02
3.16045	100.01
3.17712	100.02
3.19378	100.02
3.21045	100.02
3.22712	100.02
3.24378	100.02
3.26045	100.03
3.27712	100.03
3.29378	100.03
3.31045	100.03
3.32712	100.03
3.34378	100.03
3.36045	100.03
3.37712	100.03
3.39378	100.04
3.41045	100.04
3.42712	100.03
3.44378	100.04
3.46045	100.04
3.47712	100.04
3.49378	100.04
3.51045	100.04
3.52712	100.04
3.54378	100.04
3.56045	100.04
3.57712	100.04
3.59378	100.04
3.61045	100.04
3.62712	100.04
3.64378	100.05
3.66045	100.05
3.67712	100.05
3.69378	100.05
3.71045	100.05
3.72712	100.04
3.74378	100.05
3.76045	100.05
3.77712	100.05
3.79378	100.05
3.81045	100.04
3.82712	100.05
3.84378	100.05
3.86045	100.04
3.87712	100.05
3.89378	100.05
3.91045	100.05
3.92712	100.05
3.94378	100.05
3.96045	100.05
3.97712	100.05
3.99378	100.05

[Status Trace (Carrier Gas Pressure)]
Interval(msec)	1000
# of Points	240
Start Time(min)	0.010
End Time(min)	3.994
Intensity Units	
Intensity Multiplier	1
R.Time (min)	Intensity
0.01045	58.00
0.02712	55.08
0.04378	57.52
0.06045	59.51
0.07712	59.10
0.09378	58.01
0.11045	57.99
0.12712	58.01
0.14378	58.01
0.16045	58.01
0.17712	58.00
0.19378	58.00
0.21045	58.00
0.22712	58.00
0.24378	58.00
0.26045	58.00
0.27712	58.00
0.29378	58.00
0.31045	58.00
0.32712	58.00
0.34378	58.00
0.36045	58.00
0.37712	58.00
0.39378	58.00
0.41045	58.00
0.42712	58.00
0.44378	58.00
0.46045	58.00
0.47712	58.00
0.49378	58.00
0.51045	58.00
0.52712	58.00
0.54378	58.00
0.56045	58.00
0.57712	58.00
0.59378	58.00
0.61045	58.00
0.62712	58.00
0.64378	58.00
0.66045	58.00
0.67712	58.00
0.69378	58.00
0.71045	58.00
0.72712	58.00
0.74378	58.00
0.76045	58.00
0.77712	58.00
0.79378	58.00
0.81045	58.00
0.82712	58.00
0.84378	58.00
0.86045	58.00
0.87712	58.00
0.89378	58.00
0.91045	58.00
0.92712	58.00
0.94378	58.00
0.96045	58.00
0.97712	58.00
0.99378	58.00
1.01045	58.00
1.02712	58.00
1.04378	58.00
1.06045	58.00
1.07712	58.00
1.09378	58.00
1.11045	58.00
1.12712	58.00
1.14378	58.00
1.16045	58.00
1.17712	58.00
1.19378	58.00
1.21045	58.00
1.22712	58.00
1.24378	58.00
1.26045	58.00
1.27712	58.00
1.29378	58.00
1.31045	58.00
1.32712	58.00
1.34378	58.00
1.36045	58.00
1.37712	58.00
1.39378	58.00
1.41045	58.00
1.42712	58.00
1.44378	58.00
1.46045	58.00
1.47712	58.00
1.49378	58.00
1.51045	58.00
1.52712	58.00
1.54378	58.00
1.56045	58.00
1.57712	58.00
1.59378	58.00
1.61045	58.00
1.62712	58.00
1.64378	58.00
1.66045	58.00
1.67712	58.01
1.69378	58.00
1.71045	58.00
1.72712	58.00
1.74378	58.00
1.76045	58.00
1.77712	58.00
1.79378	58.00
1.81045	58.00
1.82712	58.00
1.84378	58.00
1.86045	58.00
1.87712	58.00
1.89378	58.00
1.91045	58.00
1.92712	58.00
1.94378	58.00
1.96045	58.00
1.97712	58.00
1.99378	58.00
2.01045	58.00
2.02712	58.00
2.04378	58.00
2.06045	58.00
2.07712	58.00
2.09378	58.00
2.11045	58.00
2.12712	58.00
2.14378	58.00
2.16045	58.00
2.17712	58.00
2.19378	58.00
2.21045	58.00
2.22712	58.00
2.24378	58.00
2.26045	58.00
2.27712	58.00
2.29378	58.00
2.31045	58.00
2.32712	58.00
2.34378	58.00
2.36045	58.00
2.37712	58.00
2.39378	57.99
2.41045	57.99
2.42712	58.00
2.44378	58.00
2.46045	58.00
2.47712	58.00
2.49378	58.00
2.51045	57.99
2.52712	57.98
2.54378	58.00
2.56045	58.00
2.57712	58.00
2.59378	58.00
2.61045	58.00
2.62712	58.00
2.64378	58.00
2.66045	58.00
2.67712	58.00
2.69378	58.00
2.71045	58.00
2.72712	58.00
2.74378	58.00
2.76045	58.00
2.77712	58.00
2.79378	58.00
2.81045	58.00
2.82712	58.00
2.84378	58.00
2.86045	58.00
2.87712	58.00
2.89378	58.00
2.91045	58.00
2.92712	58.00
2.94378	58.00
2.96045	58.00
2.97712	58.00
2.99378	58.00
3.01045	58.00
3.02712	58.00
3.04378	58.00
3.06045	58.00
3.07712	58.00
3.09378	58.00
3.11045	58.00
3.12712	58.00
3.14378	58.00
3.16045	58.00
3.17712	58.00
3.19378	58.00
3.21045	58.00
3.22712	58.00
3.24378	58.00
3.26045	58.00
3.27712	58.00
3.29378	58.00
3.31045	58.00
3.32712	58.00
3.34378	58.00
3.36045	58.00
3.37712	58.00
3.39378	58.00
3.41045	58.00
3.42712	58.00
3.44378	58.00
3.46045	58.00
3.47712	58.00
3.49378	58.00
3.51045	58.00
3.52712	58.00
3.54378	58.00
3.56045	58.00
3.57712	58.00
3.59378	58.00
3.61045	58.00
3.62712	58.00
3.64378	58.00
3.66045	58.00
3.67712	58.00
3.69378	58.00
3.71045	58.00
3.72712	58.00
3.74378	58.00
3.76045	58.00
3.77712	58.00
3.79378	58.00
3.81045	58.00
3.82712	58.00
3.84378	58.00
3.86045	58.00
3.87712	58.00
3.89378	58.00
3.91045	58.00
3.92712	58.00
3.94378	58.00
3.96045	58.00
3.97712	58.00
3.99378	58.00

[Status Trace (Carrier Gas Flow)]
Interval(msec)	1000
# of Points	240
Start Time(min)	0.010
End Time(min)	3.994
Intensity Units	
Intensity Multiplier	1
R.Time (min)	Intensity
0.01045	34.52
0.02712	34.54
0.04378	34.55
0.06045	34.55
0.07712	34.51
0.09378	34.52
0.11045	34.52
0.12712	34.52
0.14378	34.52
0.16045	34.52
0.17712	34.51
0.19378	34.52
0.21045	34.52
0.22712	34.51
0.24378	34.52
0.26045	34.52
0.27712	34.52
0.29378	34.52
0.31045	34.52
0.32712	34.52
0.34378	34.52
0.36045	34.52
0.37712	34.52
0.39378	34.52
0.41045	34.52
0.42712	34.52
0.44378	34.52
0.46045	34.52
0.47712	34.51
0.49378	34.52
0.51045	34.52
0.52712	34.52
0.54378	34.52
0.56045	34.52
0.57712	34.51
0.59378	34.52
0.61045	34.52
0.62712	34.51
0.64378	34.52
0.66045	34.52
0.67712	34.52
0.69378	34.51
0.71045	34.53
0.72712	34.53
0.74378	34.52
0.76045	34.51
0.77712	34.51
0.79378	34.51
0.81045	34.53
0.82712	34.52
0.84378	34.51
0.86045	34.52
0.87712	34.52
0.89378	34.52
0.91045	34.53
0.92712	34.52
0.94378	34.53
0.96045	34.52
0.97712	34.53
0.99378	34.52
1.01045	34.53
1.02712	34.52
1.04378	34.52
1.06045	34.52
1.07712	34.51
1.09378	34.52
1.11045	34.52
1.12712	34.52
1.14378	34.52
1.16045	34.51
1.17712	34.52
1.19378	34.52
1.21045	34.52
1.22712	34.52
1.24378	34.51
1.26045	34.52
1.27712	34.52
1.29378	34.52
1.31045	34.52
1.32712	34.51
1.34378	34.52
1.36045	34.52
1.37712	34.52
1.39378	34.52
1.41045	34.52
1.42712	34.52
1.44378	34.52
1.46045	34.52
1.47712	34.52
1.49378	34.52
1.51045	34.52
1.52712	34.52
1.54378	34.52
1.56045	34.52
1.57712	34.52
1.59378	34.52
1.61045	34.52
1.62712	34.52
1.64378	34.52
1.66045	34.52
1.67712	34.52
1.69378	34.52
1.71045	34.53
1.72712	34.52
1.74378	34.52
1.76045	34.52
1.77712	34.52
1.79378	34.52
1.81045	34.52
1.82712	34.52
1.84378	34.52
1.86045	34.52
1.87712	34.52
1.89378	34.51
1.91045	34.52
1.92712	34.51
1.94378	34.52
1.96045	34.52
1.97712	34.52
1.99378	34.52
2.01045	34.52
2.02712	34.52
2.04378	34.52
2.06045	34.52
2.07712	34.52
2.09378	34.52
2.11045	34.52
2.12712	34.53
2.14378	34.52
2.16045	34.52
2.17712	34.51
2.19378	34.52
2.21045	34.52
2.22712	34.51
2.24378	34.52
2.26045	34.52
2.27712	34.52
2.29378	34.52
2.31045	34.52
2.32712	34.52
2.34378	34.52
2.36045	34.52
2.37712	34.52
2.39378	34.52
2.41045	34.52
2.42712	34.52
2.44378	34.52
2.46045	34.52
2.47712	34.52
2.49378	34.52
2.51045	34.51
2.52712	34.52
2.54378	34.52
2.56045	34.52
2.57712	34.52
2.59378	34.51
2.61045	34.52
2.62712	34.52
2.64378	34.52
2.66045	34.52
2.67712	34.52
2.69378	34.52
2.71045	34.52
2.72712	34.52
2.74378	34.52
2.76045	34.52
2.77712	34.52
2.79378	34.52
2.81045	34.52
2.82712	34.52
2.84378	34.52
2.86045	34.52
2.87712	34.52
2.89378	34.52
2.91045	34.52
2.92712	34.52
2.94378	34.52
2.96045	34.52
2.97712	34.52
2.99378	34.52
3.01045	34.52
3.02712	34.52
3.04378	34.52
3.06045	34.52
3.07712	34.52
3.09378	34.52
3.11045	34.52
3.12712	34.52
3.14378	34.52
3.16045	34.52
3.17712	34.52
3.19378	34.53
3.21045	34.52
3.22712	34.52
3.24378	34.52
3.26045	34.52
3.27712	34.52
3.29378	34.52
3.31045	34.52
3.32712	34.52
3.34378	34.52
3.36045	34.52
3.37712	34.52
3.39378	34.52
3.41045	34.51
3.42712	34.52
3.44378	34.52
3.46045	34.52
3.47712	34.52
3.49378	34.52
3.51045	34.52
3.52712	34.52
3.54378	34.52
3.56045	34.52
3.57712	34.52
3.59378	34.52
3.61045	34.52
3.62712	34.52
3.64378	34.52
3.66045	34.52
3.67712	34.52
3.69378	34.52
3.71045	34.52
3.72712	34.52
3.74378	34.52
3.76045	34.52
3.77712	34.52
3.79378	34.52
3.81045	34.52
3.82712	34.52
3.84378	34.52
3.86045	34.52
3.87712	34.52
3.89378	34.52
3.91045	34.52
3.92712	34.52
3.94378	34.52
3.96045	34.52
3.97712	34.52
3.99378	34.53

[Status Trace (Column Flow)]
Interval(msec)	1000
# of Points	240
Start Time(min)	0.010
End Time(min)	3.994
Intensity Units	
Intensity Multiplier	1
R.Time (min)	Intensity
0.01045	5.57
0.02712	5.23
0.04378	5.52
0.06045	5.75
0.07712	5.70
0.09378	5.57
0.11045	5.57
0.12712	5.57
0.14378	5.57
0.16045	5.57
0.17712	5.57
0.19378	5.57
0.21045	5.57
0.22712	5.57
0.24378	5.57
0.26045	5.57
0.27712	5.57
0.29378	5.57
0.31045	5.57
0.32712	5.57
0.34378	5.57
0.36045	5.57
0.37712	5.57
0.39378	5.57
0.41045	5.57
0.42712	5.57
0.44378	5.57
0.46045	5.57
0.47712	5.57
0.49378	5.57
0.51045	5.57
0.52712	5.57
0.54378	5.57
0.56045	5.57
0.57712	5.57
0.59378	5.57
0.61045	5.57
0.62712	5.57
0.64378	5.57
0.66045	5.57
0.67712	5.57
0.69378	5.57
0.71045	5.57
0.72712	5.57
0.74378	5.57
0.76045	5.57
0.77712	5.57
0.79378	5.57
0.81045	5.57
0.82712	5.57
0.84378	5.57
0.86045	5.57
0.87712	5.57
0.89378	5.57
0.91045	5.57
0.92712	5.57
0.94378	5.57
0.96045	5.57
0.97712	5.57
0.99378	5.57
1.01045	5.57
1.02712	5.57
1.04378	5.57
1.06045	5.57
1.07712	5.57
1.09378	5.57
1.11045	5.57
1.12712	5.57
1.14378	5.57
1.16045	5.57
1.17712	5.57
1.19378	5.57
1.21045	5.57
1.22712	5.57
1.24378	5.57
1.26045	5.57
1.27712	5.57
1.29378	5.57
1.31045	5.57
1.32712	5.57
1.34378	5.57
1.36045	5.57
1.37712	5.57
1.39378	5.57
1.41045	5.57
1.42712	5.57
1.44378	5.57
1.46045	5.57
1.47712	5.57
1.49378	5.57
1.51045	5.57
1.52712	5.57
1.54378	5.57
1.56045	5.57
1.57712	5.57
1.59378	5.57
1.61045	5.57
1.62712	5.57
1.64378	5.56
1.66045	5.55
1.67712	5.54
1.69378	5.53
1.71045	5.52
1.72712	5.51
1.74378	5.50
1.76045	5.49
1.77712	5.48
1.79378	5.47
1.81045	5.46
1.82712	5.45
1.84378	5.44
1.86045	5.43
1.87712	5.42
1.89378	5.41
1.91045	5.40
1.92712	5.39
1.94378	5.38
1.96045	5.37
1.97712	5.36
1.99378	5.35
2.01045	5.34
2.02712	5.33
2.04378	5.32
2.06045	5.31
2.07712	5.30
2.09378	5.29
2.11045	5.28
2.12712	5.27
2.14378	5.26
2.16045	5.25
2.17712	5.24
2.19378	5.23
2.21045	5.23
2.22712	5.21
2.24378	5.20
2.26045	5.20
2.27712	5.19
2.29378	5.18
2.31045	5.17
2.32712	5.16
2.34378	5.15
2.36045	5.14
2.37712	5.13
2.39378	5.13
2.41045	5.13
2.42712	5.13
2.44378	5.13
2.46045	5.13
2.47712	5.13
2.49378	5.13
2.51045	5.13
2.52712	5.13
2.54378	5.13
2.56045	5.13
2.57712	5.13
2.59378	5.13
2.61045	5.13
2.62712	5.13
2.64378	5.13
2.66045	5.13
2.67712	5.13
2.69378	5.13
2.71045	5.13
2.72712	5.13
2.74378	5.13
2.76045	5.13
2.77712	5.13
2.79378	5.13
2.81045	5.13
2.82712	5.13
2.84378	5.13
2.86045	5.13
2.87712	5.13
2.89378	5.13
2.91045	5.13
2.92712	5.13
2.94378	5.13
2.96045	5.13
2.97712	5.13
2.99378	5.13
3.01045	5.13
3.02712	5.13
3.04378	5.13
3.06045	5.13
3.07712	5.13
3.09378	5.13
3.11045	5.13
3.12712	5.13
3.14378	5.13
3.16045	5.13
3.17712	5.12
3.19378	5.12
3.21045	5.12
3.22712	5.12
3.24378	5.12
3.26045	5.12
3.27712	5.12
3.29378	5.12
3.31045	5.12
3.32712	5.12
3.34378	5.12
3.36045	5.12
3.37712	5.12
3.39378	5.12
3.41045	5.12
3.42712	5.12
3.44378	5.12
3.46045	5.12
3.47712	5.12
3.49378	5.12
3.51045	5.12
3.52712	5.12
3.54378	5.12
3.56045	5.12
3.57712	5.12
3.59378	5.12
3.61045	5.12
3.62712	5.12
3.64378	5.12
3.66045	5.12
3.67712	5.12
3.69378	5.12
3.71045	5.12
3.72712	5.12
3.74378	5.12
3.76045	5.12
3.77712	5.12
3.79378	5.12
3.81045	5.12
3.82712	5.12
3.84378	5.12
3.86045	5.12
3.87712	5.12
3.89378	5.12
3.91045	5.12
3.92712	5.12
3.94378	5.12
3.96045	5.12
3.97712	5.13
3.99378	5.13

[Status Trace (Linear Velocity)]
Interval(msec)	1000
# of Points	240
Start Time(min)	0.010
End Time(min)	3.994
Intensity Units	
Intensity Multiplier	1
R.Time (min)	Intensity
0.01045	39.03
0.02712	37.11
0.04378	38.71
0.06045	40.02
0.07712	39.75
0.09378	39.03
0.11045	39.02
0.12712	39.04
0.14378	39.04
0.16045	39.03
0.17712	39.03
0.19378	39.03
0.21045	39.03
0.22712	39.03
0.24378	39.03
0.26045	39.03
0.27712	39.03
0.29378	39.03
0.31045	39.03
0.32712	39.03
0.34378	39.03
0.36045	39.03
0.37712	39.03
0.39378	39.03
0.41045	39.03
0.42712	39.03
0.44378	39.03
0.46045	39.03
0.47712	39.03
0.49378	39.03
0.51045	39.03
0.52712	39.03
0.54378	39.03
0.56045	39.03
0.57712	39.03
0.59378	39.03
0.61045	39.03
0.62712	39.03
0.64378	39.03
0.66045	39.03
0.67712	39.03
0.69378	39.03
0.71045	39.03
0.72712	39.02
0.74378	39.03
0.76045	39.03
0.77712	39.03
0.79378	39.03
0.81045	39.03
0.82712	39.03
0.84378	39.03
0.86045	39.03
0.87712	39.03
0.89378	39.03
0.91045	39.03
0.92712	39.03
0.94378	39.03
0.96045	39.03
0.97712	39.03
0.99378	39.03
1.01045	39.03
1.02712	39.02
1.04378	39.02
1.06045	39.02
1.07712	39.03
1.09378	39.03
1.11045	39.03
1.12712	39.02
1.14378	39.02
1.16045	39.02
1.17712	39.03
1.19378	39.03
1.21045	39.03
1.22712	39.03
1.24378	39.03
1.26045	39.03
1.27712	39.03
1.29378	39.03
1.31045	39.03
1.32712	39.03
1.34378	39.03
1.36045	39.03
1.37712	39.03
1.39378	39.03
1.41045	39.03
1.42712	39.03
1.44378	39.03
1.46045	39.03
1.47712	39.03
1.49378	39.03
1.51045	39.03
1.52712	39.03
1.54378	39.03
1.56045	39.03
1.57712	39.03
1.59378	39.03
1.61045	39.02
1.62712	39.01
1.64378	38.99
1.66045	38.97
1.67712	38.94
1.69378	38.90
1.71045	38.87
1.72712	38.83
1.74378	38.80
1.76045	38.77
1.77712	38.74
1.79378	38.71
1.81045	38.68
1.82712	38.64
1.84378	38.61
1.86045	38.58
1.87712	38.55
1.89378	38.52
1.91045	38.49
1.92712	38.46
1.94378	38.43
1.96045	38.40
1.97712	38.37
1.99378	38.34
2.01045	38.31
2.02712	38.28
2.04378	38.25
2.06045	38.22
2.07712	38.19
2.09378	38.16
2.11045	38.13
2.12712	38.10
2.14378	38.07
2.16045	38.04
2.17712	38.01
2.19378	37.98
2.21045	37.96
2.22712	37.92
2.24378	37.89
2.26045	37.86
2.27712	37.83
2.29378	37.80
2.31045	37.78
2.32712	37.74
2.34378	37.72
2.36045	37.69
2.37712	37.67
2.39378	37.66
2.41045	37.66
2.42712	37.67
2.44378	37.67
2.46045	37.66
2.47712	37.66
2.49378	37.66
2.51045	37.66
2.52712	37.65
2.54378	37.66
2.56045	37.66
2.57712	37.66
2.59378	37.66
2.61045	37.66
2.62712	37.66
2.64378	37.66
2.66045	37.66
2.67712	37.66
2.69378	37.66
2.71045	37.66
2.72712	37.66
2.74378	37.66
2.76045	37.65
2.77712	37.65
2.79378	37.65
2.81045	37.65
2.82712	37.65
2.84378	37.65
2.86045	37.65
2.87712	37.65
2.89378	37.65
2.91045	37.65
2.92712	37.65
2.94378	37.65
2.96045	37.65
2.97712	37.65
2.99378	37.65
3.01045	37.65
3.02712	37.65
3.04378	37.64
3.06045	37.64
3.07712	37.64
3.09378	37.64
3.11045	37.64
3.12712	37.64
3.14378	37.64
3.16045	37.64
3.17712	37.64
3.19378	37.64
3.21045	37.64
3.22712	37.64
3.24378	37.64
3.26045	37.64
3.27712	37.64
3.29378	37.63
3.31045	37.63
3.32712	37.63
3.34378	37.64
3.36045	37.64
3.37712	37.64
3.39378	37.64
3.41045	37.64
3.42712	37.64
3.44378	37.64
3.46045	37.64
3.47712	37.64
3.49378	37.64
3.51045	37.64
3.52712	37.64
3.54378	37.64
3.56045	37.64
3.57712	37.64
3.59378	37.64
3.61045	37.64
3.62712	37.64
3.64378	37.64
3.66045	37.64
3.67712	37.64
3.69378	37.64
3.71045	37.64
3.72712	37.64
3.74378	37.64
3.76045	37.64
3.77712	37.64
3.79378	37.64
3.81045	37.64
3.82712	37.64
3.84378	37.64
3.86045	37.64
3.87712	37.64
3.89378	37.64
3.91045	37.64
3.92712	37.64
3.94378	37.64
3.96045	37.64
3.97712	37.64
3.99378	37.64

