[Header]
Application Name	LabSolutions
Version	5.110
Data File Name	C:\Users\User\Desktop\GC Analyses\Jack\Nachusa Grasslands Sampling\T0 Timepoint July 12th\T0_07122022_084.gcd
Output Date	3/14/2023
Output Time	3:40:39 PM

[File Information]
Type	Data File
Generated	3/7/2023 11:10:25 PM
Generated by	System Administrator
Modified	3/7/2023 11:17:16 PM
Modified by	System Administrator

[Sample Information]
Operator Name	System Administrator
Acquired	3/7/2023 11:13:15 PM
Sample Type	0:Unknown
Level	0
Sample Name	084
Sample ID	084
ISTD Amount1	1
ISTD Amount2	1
ISTD Amount3	1
ISTD Amount4	1
ISTD Amount5	1
ISTD Amount6	1
ISTD Amount7	1
ISTD Amount8	1
ISTD Amount9	1
ISTD Amount10	1
ISTD Amount11	1
ISTD Amount12	1
ISTD Amount13	1
ISTD Amount14	1
ISTD Amount15	1
ISTD Amount16	1
ISTD Amount17	1
ISTD Amount18	1
ISTD Amount19	1
ISTD Amount20	1
ISTD Amount21	1
ISTD Amount22	1
ISTD Amount23	1
ISTD Amount24	1
ISTD Amount25	1
ISTD Amount26	1
ISTD Amount27	1
ISTD Amount28	1
ISTD Amount29	1
ISTD Amount30	1
ISTD Amount31	1
ISTD Amount32	1
Sample Amount	1
Dilution Factor	1
Vial#	83
Injection Volume	1
Injection Count	1
Bar Code	

[Original Files]
Data File	C:\Users\User\Desktop\GC Analyses\Jack\Nachusa Grasslands Sampling\T0 Timepoint July 12th\T0_07122022_084.gcd
Method File	C:\LabSolutions\Data\GHG_4min_2022\ghg3_togas_w_acet_4 min_new_int.gcm
Batch File	C:\LabSolutions\Data\AutoSamplerTesting\T0_07122022.gcb
Report Format File	c:\LabSolutions\System\DEFAULT.lsr

[File Description]


[Configuration]
Instrument Name	C0B7VH3-Instrument1
Instrument #	1
Line #	1
# of Detectors	3
Detector ID	DET#1	DET#2	DET#3
Detector Name	FID	PTCD	ECD
# of Channels	1	1	1

[Peak Table(Ch1)]
# of Peaks	3
Peak#	R.Time	I.Time	F.Time	Area	Height	A/H	Conc.	Mark	ID#	Name	k'	Plate #	Plate Ht.	Tailing	Resolution	Sep.Factor	Area Ratio	Height Ratio	Conc. %	Norm Conc.
1	1.476	1.439	1.538	30036	14221	2.112	212.054	   	1	CO	0.000	9363	16.020	1.294	0.000	0.000	0	0	35.125	35.125
2	1.567	1.538	1.630	4807	2335	2.059	92.942	 V 	2	CH4	0.062	10483	14.309	0.000	1.500	0.000	0	0	15.395	15.395
3	1.996	1.949	2.477	1190228	563357	2.113	298.715	   	3	CO2	0.353	17269	8.686	1.289	7.033	5.680	0	0	49.480	49.480

[Peak Table(Ch2)]
# of Peaks	0

[Peak Table(Ch3)]
# of Peaks	5
Peak#	R.Time	I.Time	F.Time	Area	Height	A/H	Conc.	Mark	ID#	Name	k'	Plate #	Plate Ht.	Tailing	Resolution	Sep.Factor	Area Ratio	Height Ratio	Conc. %	Norm Conc.
1	0.977	0.511	1.311	731	30	24.536	0.000	   			0.000	166	901.414	0.868	0.000	0.000	0	0	0.000	0.000
2	2.458	2.348	2.517	1476	433	3.408	0.000	   			1.516	9615	15.601	0.000	7.347	0.000	0	0	0.000	0.000
3	2.546	2.517	2.631	824	193	4.264	0.000	 V 			1.606	3752	39.980	0.000	0.660	1.059	0	0	0.000	0.000
4	2.711	2.645	2.777	588	94	6.268	0.000	   			1.775	674	222.556	0.000	0.565	1.105	0	0	0.000	0.000
5	2.873	2.777	3.144	18900	4863	3.886	0.483	 V 	1	N2O	1.940	13283	11.293	1.629	0.624	1.093	0	0	100.000	100.000

[Compound Results(Ch1)]
# of IDs	6
ID#	Name	R.Time	Area	Height	Conc.	Curve	3rd	2nd	1st	Constant	Area Ratio	Height Ratio	Conc. %	Norm Conc.
1	CO	1.476	30036	14221	212.054	Linear	0.000000e+00	0.000000e+00	1.416423e+002	0.000000e+00	0	0	35.125	35.125
2	CH4	1.567	4807	2335	92.942	Linear	0.000000e+00	0.000000e+00	5.171738e+001	0.000000e+00	0	0	15.395	15.395
3	CO2	1.996	1190228	563357	298.715	Linear	0.000000e+00	0.000000e+00	3.984494e+003	0.000000e+00	0	0	49.480	49.480
4	Ethylene	0.000	0	0	0.000	Linear	0.000000e+00	0.000000e+00	0.000000e+00	0.000000e+00	0	0	0.000	0.000
5	Acetylene	0.000	0	0	0.000	Linear	0.000000e+00	0.000000e+00	0.000000e+00	0.000000e+00	0	0	0.000	0.000
6	Ethane	0.000	0	0	0.000	Linear	0.000000e+00	0.000000e+00	0.000000e+00	0.000000e+00	0	0	0.000	0.000

[Compound Results(Ch2)]
# of IDs	5
ID#	Name	R.Time	Area	Height	Conc.	Curve	3rd	2nd	1st	Constant	Area Ratio	Height Ratio	Conc. %	Norm Conc.
1	Hydrogen	0.000	0	0	0.000	Linear	0.000000e+00	0.000000e+00	0.000000e+00	0.000000e+00	0	0	0.000	0.000
2	Oxygen	0.000	0	0	0.000	Linear	0.000000e+00	0.000000e+00	0.000000e+00	0.000000e+00	0	0	0.000	0.000
3	Nitrogen	0.000	0	0	0.000	Linear	0.000000e+00	0.000000e+00	0.000000e+00	0.000000e+00	0	0	0.000	0.000
4	Methane	0.000	0	0	0.000	Linear	0.000000e+00	0.000000e+00	0.000000e+00	0.000000e+00	0	0	0.000	0.000
5	Carbon Monoxide	0.000	0	0	0.000	Linear	0.000000e+00	0.000000e+00	0.000000e+00	0.000000e+00	0	0	0.000	0.000

[Compound Results(Ch3)]
# of IDs	2
ID#	Name	R.Time	Area	Height	Conc.	Curve	3rd	2nd	1st	Constant	Area Ratio	Height Ratio	Conc. %	Norm Conc.
1	N2O	2.873	18900	4863	0.483	Linear	0.000000e+00	0.000000e+00	3.915173e+004	0.000000e+00	0	0	100.000	100.000
2	SF6	0.000	0	0	0.000	Linear	0.000000e+00	0.000000e+00	0.000000e+00	0.000000e+00	0	0	0.000	0.000

[Group Results(Ch1)]
# of Groups	0

[Group Results(Ch2)]
# of Groups	0

[Group Results(Ch3)]
# of Groups	0

[Chromatogram (Ch1)]
Interval(msec)	220
# of Points	1091
Start Time(min)	0.002
End Time(min)	3.998
R.Time (min)	Intensity
0.00167	-12
0.00533	-15
0.00900	-16
0.01267	-16
0.01633	-14
0.02000	-13
0.02367	-12
0.02733	-11
0.03100	-5
0.03467	4
0.03833	9
0.04200	7
0.04567	3
0.04933	-4
0.05300	-10
0.05667	-12
0.06033	-8
0.06400	-2
0.06767	4
0.07133	9
0.07500	12
0.07867	17
0.08233	18
0.08600	17
0.08967	20
0.09333	25
0.09700	28
0.10067	25
0.10433	16
0.10800	7
0.11167	4
0.11533	9
0.11900	13
0.12267	11
0.12633	6
0.13000	-1
0.13367	-8
0.13733	-14
0.14100	-15
0.14467	-9
0.14833	1
0.15200	8
0.15567	13
0.15933	14
0.16300	12
0.16667	8
0.17033	3
0.17400	-3
0.17767	-6
0.18133	-6
0.18500	-3
0.18867	2
0.19233	9
0.19600	15
0.19967	21
0.20333	22
0.20700	20
0.21067	18
0.21433	18
0.21800	16
0.22167	14
0.22533	13
0.22900	12
0.23267	15
0.23633	16
0.24000	19
0.24367	23
0.24733	24
0.25100	23
0.25467	21
0.25833	22
0.26200	22
0.26567	22
0.26933	20
0.27300	15
0.27667	11
0.28033	12
0.28400	14
0.28767	13
0.29133	13
0.29500	13
0.29867	16
0.30233	23
0.30600	30
0.30967	35
0.31333	38
0.31700	38
0.32067	37
0.32433	34
0.32800	30
0.33167	26
0.33533	22
0.33900	19
0.34267	18
0.34633	17
0.35000	18
0.35367	21
0.35733	29
0.36100	39
0.36467	47
0.36833	52
0.37200	54
0.37567	50
0.37933	42
0.38300	35
0.38667	30
0.39033	28
0.39400	27
0.39767	27
0.40133	28
0.40500	30
0.40867	31
0.41233	32
0.41600	33
0.41967	34
0.42333	33
0.42700	32
0.43067	33
0.43433	36
0.43800	44
0.44167	58
0.44533	72
0.44900	77
0.45267	71
0.45633	60
0.46000	51
0.46367	44
0.46733	42
0.47100	43
0.47467	46
0.47833	46
0.48200	41
0.48567	31
0.48933	21
0.49300	15
0.49667	13
0.50033	13
0.50400	15
0.50767	17
0.51133	22
0.51500	29
0.51867	36
0.52233	44
0.52600	50
0.52967	56
0.53333	61
0.53700	63
0.54067	59
0.54433	54
0.54800	47
0.55167	43
0.55533	41
0.55900	40
0.56267	39
0.56633	36
0.57000	32
0.57367	33
0.57733	37
0.58100	43
0.58467	50
0.58833	56
0.59200	60
0.59567	61
0.59933	60
0.60300	60
0.60667	57
0.61033	47
0.61400	36
0.61767	28
0.62133	24
0.62500	21
0.62867	17
0.63233	15
0.63600	14
0.63967	14
0.64333	23
0.64700	35
0.65067	49
0.65433	61
0.65800	67
0.66167	67
0.66533	60
0.66900	53
0.67267	48
0.67633	46
0.68000	46
0.68367	46
0.68733	45
0.69100	40
0.69467	32
0.69833	26
0.70200	21
0.70567	21
0.70933	26
0.71300	36
0.71667	49
0.72033	63
0.72400	75
0.72767	81
0.73133	79
0.73500	74
0.73867	69
0.74233	63
0.74600	61
0.74967	63
0.75333	70
0.75700	76
0.76067	85
0.76433	92
0.76800	97
0.77167	101
0.77533	104
0.77900	102
0.78267	94
0.78633	83
0.79000	72
0.79367	66
0.79733	67
0.80100	70
0.80467	71
0.80833	68
0.81200	65
0.81567	63
0.81933	65
0.82300	71
0.82667	77
0.83033	81
0.83400	82
0.83767	77
0.84133	72
0.84500	68
0.84867	66
0.85233	65
0.85600	70
0.85967	78
0.86333	87
0.86700	91
0.87067	90
0.87433	88
0.87800	85
0.88167	85
0.88533	86
0.88900	88
0.89267	89
0.89633	86
0.90000	82
0.90367	76
0.90733	70
0.91100	64
0.91467	60
0.91833	63
0.92200	72
0.92567	82
0.92933	90
0.93300	94
0.93667	97
0.94033	96
0.94400	93
0.94767	89
0.95133	86
0.95500	85
0.95867	85
0.96233	83
0.96600	79
0.96967	75
0.97333	76
0.97700	82
0.98067	85
0.98433	84
0.98800	81
0.99167	83
0.99533	91
0.99900	101
1.00267	108
1.00633	108
1.01000	104
1.01367	101
1.01733	94
1.02100	83
1.02467	71
1.02833	58
1.03200	46
1.03567	44
1.03933	48
1.04300	54
1.04667	61
1.05033	67
1.05400	71
1.05767	73
1.06133	73
1.06500	70
1.06867	63
1.07233	59
1.07600	56
1.07967	51
1.08333	49
1.08700	49
1.09067	51
1.09433	55
1.09800	60
1.10167	69
1.10533	79
1.10900	84
1.11267	84
1.11633	79
1.12000	70
1.12367	59
1.12733	49
1.13100	41
1.13467	36
1.13833	32
1.14200	36
1.14567	48
1.14933	61
1.15300	71
1.15667	76
1.16033	78
1.16400	78
1.16767	74
1.17133	67
1.17500	62
1.17867	60
1.18233	56
1.18600	52
1.18967	50
1.19333	50
1.19700	52
1.20067	54
1.20433	54
1.20800	52
1.21167	49
1.21533	47
1.21900	48
1.22267	53
1.22633	60
1.23000	65
1.23367	64
1.23733	60
1.24100	57
1.24467	53
1.24833	49
1.25200	43
1.25567	39
1.25933	40
1.26300	46
1.26667	54
1.27033	59
1.27400	59
1.27767	57
1.28133	52
1.28500	46
1.28867	43
1.29233	40
1.29600	37
1.29967	34
1.30333	32
1.30700	31
1.31067	30
1.31433	31
1.31800	36
1.32167	43
1.32533	49
1.32900	52
1.33267	51
1.33633	46
1.34000	40
1.34367	35
1.34733	33
1.35100	29
1.35467	28
1.35833	27
1.36200	28
1.36567	29
1.36933	32
1.37300	34
1.37667	36
1.38033	37
1.38400	40
1.38767	45
1.39133	49
1.39500	50
1.39867	50
1.40233	51
1.40600	50
1.40967	48
1.41333	43
1.41700	40
1.42067	40
1.42433	38
1.42800	31
1.43167	26
1.43533	28
1.43900	58
1.44267	176
1.44633	453
1.45000	1105
1.45367	2558
1.45733	4895
1.46100	7637
1.46467	10212
1.46833	12282
1.47200	13682
1.47567	14285
1.47933	13970
1.48300	12752
1.48667	10867
1.49033	8711
1.49400	6656
1.49767	4924
1.50133	3576
1.50500	2580
1.50867	1865
1.51233	1362
1.51600	1011
1.51967	766
1.52333	595
1.52700	474
1.53067	388
1.53433	333
1.53800	312
1.54167	362
1.54533	542
1.54900	870
1.55267	1287
1.55633	1702
1.56000	2047
1.56367	2292
1.56733	2413
1.57100	2377
1.57467	2173
1.57833	1841
1.58200	1460
1.58567	1101
1.58933	805
1.59300	581
1.59667	423
1.60033	317
1.60400	243
1.60767	192
1.61133	159
1.61500	140
1.61867	126
1.62233	111
1.62600	98
1.62967	88
1.63333	82
1.63700	82
1.64067	89
1.64433	93
1.64800	87
1.65167	70
1.65533	51
1.65900	38
1.66267	34
1.66633	35
1.67000	34
1.67367	34
1.67733	35
1.68100	37
1.68467	35
1.68833	34
1.69200	38
1.69567	52
1.69933	67
1.70300	74
1.70667	71
1.71033	63
1.71400	53
1.71767	44
1.72133	39
1.72500	34
1.72867	29
1.73233	21
1.73600	14
1.73967	9
1.74333	4
1.74700	2
1.75067	6
1.75433	15
1.75800	24
1.76167	31
1.76533	36
1.76900	41
1.77267	46
1.77633	48
1.78000	44
1.78367	37
1.78733	33
1.79100	34
1.79467	37
1.79833	38
1.80200	35
1.80567	31
1.80933	28
1.81300	26
1.81667	28
1.82033	33
1.82400	41
1.82767	47
1.83133	52
1.83500	55
1.83867	52
1.84233	48
1.84600	49
1.84967	54
1.85333	60
1.85700	64
1.86067	60
1.86433	52
1.86800	45
1.87167	40
1.87533	38
1.87900	38
1.88267	40
1.88633	43
1.89000	52
1.89367	63
1.89733	67
1.90100	65
1.90467	64
1.90833	67
1.91200	71
1.91567	71
1.91933	66
1.92300	60
1.92667	55
1.93033	53
1.93400	51
1.93767	48
1.94133	46
1.94500	44
1.94867	47
1.95233	69
1.95600	197
1.95967	881
1.96333	3834
1.96700	13589
1.97067	38440
1.97433	88004
1.97800	166407
1.98167	266628
1.98533	372569
1.98900	466345
1.99267	533193
1.99633	563442
2.00000	553434
2.00367	506794
2.00733	434153
2.01100	350123
2.01467	268294
2.01833	197562
2.02200	141460
2.02567	99632
2.02933	69765
2.03300	49040
2.03667	34908
2.04033	25352
2.04400	18892
2.04767	14497
2.05133	11474
2.05500	9357
2.05867	7841
2.06233	6726
2.06600	5881
2.06967	5227
2.07333	4709
2.07700	4291
2.08067	3945
2.08433	3654
2.08800	3403
2.09167	3180
2.09533	2979
2.09900	2804
2.10267	2652
2.10633	2519
2.11000	2398
2.11367	2290
2.11733	2190
2.12100	2096
2.12467	2009
2.12833	1930
2.13200	1857
2.13567	1789
2.13933	1728
2.14300	1675
2.14667	1628
2.15033	1579
2.15400	1526
2.15767	1472
2.16133	1415
2.16500	1363
2.16867	1319
2.17233	1281
2.17600	1247
2.17967	1218
2.18333	1192
2.18700	1161
2.19067	1127
2.19433	1099
2.19800	1077
2.20167	1055
2.20533	1034
2.20900	1013
2.21267	991
2.21633	971
2.22000	957
2.22367	945
2.22733	932
2.23100	919
2.23467	907
2.23833	893
2.24200	876
2.24567	863
2.24933	851
2.25300	838
2.25667	818
2.26033	796
2.26400	777
2.26767	760
2.27133	749
2.27500	742
2.27867	735
2.28233	726
2.28600	718
2.28967	711
2.29333	705
2.29700	698
2.30067	696
2.30433	694
2.30800	686
2.31167	675
2.31533	662
2.31900	646
2.32267	629
2.32633	611
2.33000	600
2.33367	595
2.33733	593
2.34100	592
2.34467	589
2.34833	584
2.35200	581
2.35567	581
2.35933	581
2.36300	580
2.36667	579
2.37033	575
2.37400	565
2.37767	557
2.38133	550
2.38500	545
2.38867	541
2.39233	539
2.39600	537
2.39967	536
2.40333	535
2.40700	533
2.41067	528
2.41433	521
2.41800	515
2.42167	511
2.42533	507
2.42900	502
2.43267	497
2.43633	494
2.44000	491
2.44367	489
2.44733	489
2.45100	490
2.45467	489
2.45833	486
2.46200	483
2.46567	480
2.46933	479
2.47300	478
2.47667	476
2.48033	474
2.48400	473
2.48767	470
2.49133	466
2.49500	466
2.49867	470
2.50233	476
2.50600	479
2.50967	477
2.51333	473
2.51700	469
2.52067	470
2.52433	474
2.52800	480
2.53167	485
2.53533	483
2.53900	477
2.54267	470
2.54633	460
2.55000	450
2.55367	442
2.55733	438
2.56100	435
2.56467	431
2.56833	427
2.57200	427
2.57567	428
2.57933	435
2.58300	446
2.58667	455
2.59033	456
2.59400	452
2.59767	447
2.60133	443
2.60500	436
2.60867	426
2.61233	419
2.61600	417
2.61967	418
2.62333	420
2.62700	422
2.63067	421
2.63433	419
2.63800	416
2.64167	415
2.64533	417
2.64900	419
2.65267	421
2.65633	425
2.66000	431
2.66367	435
2.66733	434
2.67100	427
2.67467	416
2.67833	408
2.68200	406
2.68567	407
2.68933	411
2.69300	415
2.69667	417
2.70033	419
2.70400	419
2.70767	415
2.71133	407
2.71500	404
2.71867	406
2.72233	409
2.72600	410
2.72967	411
2.73333	414
2.73700	419
2.74067	428
2.74433	437
2.74800	440
2.75167	439
2.75533	436
2.75900	432
2.76267	426
2.76633	419
2.77000	413
2.77367	410
2.77733	408
2.78100	408
2.78467	410
2.78833	413
2.79200	418
2.79567	424
2.79933	425
2.80300	423
2.80667	420
2.81033	421
2.81400	427
2.81767	433
2.82133	440
2.82500	450
2.82867	452
2.83233	443
2.83600	434
2.83967	424
2.84333	412
2.84700	401
2.85067	395
2.85433	394
2.85800	394
2.86167	393
2.86533	392
2.86900	393
2.87267	394
2.87633	394
2.88000	400
2.88367	406
2.88733	414
2.89100	420
2.89467	421
2.89833	422
2.90200	429
2.90567	437
2.90933	439
2.91300	438
2.91667	436
2.92033	434
2.92400	434
2.92767	436
2.93133	440
2.93500	444
2.93867	443
2.94233	437
2.94600	430
2.94967	423
2.95333	419
2.95700	416
2.96067	415
2.96433	420
2.96800	430
2.97167	436
2.97533	434
2.97900	426
2.98267	421
2.98633	417
2.99000	417
2.99367	418
2.99733	420
3.00100	424
3.00467	431
3.00833	441
3.01200	450
3.01567	456
3.01933	456
3.02300	451
3.02667	440
3.03033	431
3.03400	431
3.03767	436
3.04133	439
3.04500	436
3.04867	430
3.05233	425
3.05600	424
3.05967	421
3.06333	417
3.06700	412
3.07067	408
3.07433	403
3.07800	399
3.08167	402
3.08533	406
3.08900	413
3.09267	419
3.09633	424
3.10000	426
3.10367	431
3.10733	437
3.11100	442
3.11467	442
3.11833	439
3.12200	431
3.12567	424
3.12933	419
3.13300	417
3.13667	418
3.14033	420
3.14400	420
3.14767	419
3.15133	417
3.15500	416
3.15867	416
3.16233	418
3.16600	421
3.16967	423
3.17333	423
3.17700	420
3.18067	422
3.18433	428
3.18800	434
3.19167	438
3.19533	437
3.19900	433
3.20267	428
3.20633	428
3.21000	429
3.21367	429
3.21733	427
3.22100	421
3.22467	416
3.22833	410
3.23200	406
3.23567	409
3.23933	412
3.24300	410
3.24667	406
3.25033	404
3.25400	402
3.25767	404
3.26133	407
3.26500	409
3.26867	412
3.27233	416
3.27600	416
3.27967	416
3.28333	413
3.28700	409
3.29067	407
3.29433	407
3.29800	413
3.30167	422
3.30533	430
3.30900	435
3.31267	432
3.31633	426
3.32000	420
3.32367	415
3.32733	413
3.33100	411
3.33467	408
3.33833	403
3.34200	396
3.34567	389
3.34933	390
3.35300	395
3.35667	405
3.36033	420
3.36400	431
3.36767	436
3.37133	434
3.37500	428
3.37867	421
3.38233	414
3.38600	406
3.38967	401
3.39333	398
3.39700	399
3.40067	402
3.40433	406
3.40800	411
3.41167	416
3.41533	416
3.41900	410
3.42267	400
3.42633	391
3.43000	388
3.43367	391
3.43733	395
3.44100	397
3.44467	397
3.44833	400
3.45200	405
3.45567	407
3.45933	408
3.46300	405
3.46667	400
3.47033	393
3.47400	389
3.47767	389
3.48133	388
3.48500	388
3.48867	388
3.49233	385
3.49600	379
3.49967	371
3.50333	364
3.50700	358
3.51067	356
3.51433	360
3.51800	370
3.52167	383
3.52533	396
3.52900	406
3.53267	411
3.53633	410
3.54000	408
3.54367	404
3.54733	395
3.55100	385
3.55467	377
3.55833	369
3.56200	366
3.56567	365
3.56933	365
3.57300	363
3.57667	355
3.58033	350
3.58400	351
3.58767	354
3.59133	360
3.59500	366
3.59867	374
3.60233	383
3.60600	390
3.60967	397
3.61333	403
3.61700	404
3.62067	401
3.62433	394
3.62800	385
3.63167	374
3.63533	365
3.63900	361
3.64267	356
3.64633	352
3.65000	350
3.65367	348
3.65733	349
3.66100	352
3.66467	356
3.66833	359
3.67200	360
3.67567	359
3.67933	357
3.68300	359
3.68667	362
3.69033	363
3.69400	364
3.69767	364
3.70133	365
3.70500	365
3.70867	361
3.71233	355
3.71600	350
3.71967	349
3.72333	348
3.72700	346
3.73067	346
3.73433	346
3.73800	344
3.74167	344
3.74533	344
3.74900	344
3.75267	343
3.75633	345
3.76000	348
3.76367	352
3.76733	354
3.77100	353
3.77467	351
3.77833	348
3.78200	345
3.78567	340
3.78933	332
3.79300	327
3.79667	325
3.80033	320
3.80400	315
3.80767	311
3.81133	310
3.81500	312
3.81867	315
3.82233	318
3.82600	321
3.82967	321
3.83333	320
3.83700	321
3.84067	322
3.84433	323
3.84800	325
3.85167	328
3.85533	328
3.85900	326
3.86267	323
3.86633	321
3.87000	318
3.87367	311
3.87733	305
3.88100	302
3.88467	303
3.88833	305
3.89200	305
3.89567	306
3.89933	304
3.90300	303
3.90667	302
3.91033	303
3.91400	306
3.91767	310
3.92133	315
3.92500	322
3.92867	326
3.93233	324
3.93600	320
3.93967	316
3.94333	313
3.94700	308
3.95067	303
3.95433	300
3.95800	298
3.96167	297
3.96533	296
3.96900	295
3.97267	293
3.97633	290
3.98000	287
3.98367	286
3.98733	289
3.99100	294
3.99467	297
3.99833	300

[Chromatogram (Ch2)]
Interval(msec)	220
# of Points	1091
Start Time(min)	0.002
End Time(min)	3.998
R.Time (min)	Intensity
0.00167	-0
0.00533	-0
0.00900	-0
0.01267	-0
0.01633	-0
0.02000	0
0.02367	0
0.02733	0
0.03100	0
0.03467	0
0.03833	0
0.04200	1
0.04567	1
0.04933	1
0.05300	1
0.05667	1
0.06033	1
0.06400	0
0.06767	-0
0.07133	-0
0.07500	-0
0.07867	-0
0.08233	-0
0.08600	-0
0.08967	0
0.09333	0
0.09700	1
0.10067	1
0.10433	1
0.10800	1
0.11167	0
0.11533	0
0.11900	0
0.12267	-0
0.12633	-0
0.13000	-1
0.13367	-1
0.13733	-0
0.14100	-0
0.14467	-0
0.14833	-0
0.15200	-0
0.15567	-1
0.15933	-1
0.16300	-1
0.16667	-1
0.17033	-1
0.17400	-1
0.17767	-1
0.18133	-1
0.18500	-1
0.18867	-1
0.19233	-2
0.19600	-2
0.19967	-2
0.20333	-2
0.20700	-2
0.21067	-3
0.21433	-3
0.21800	-3
0.22167	-3
0.22533	-3
0.22900	-3
0.23267	-3
0.23633	-2
0.24000	-2
0.24367	-1
0.24733	-0
0.25100	0
0.25467	1
0.25833	1
0.26200	1
0.26567	1
0.26933	1
0.27300	1
0.27667	1
0.28033	1
0.28400	1
0.28767	1
0.29133	1
0.29500	2
0.29867	2
0.30233	2
0.30600	2
0.30967	2
0.31333	1
0.31700	1
0.32067	-0
0.32433	-1
0.32800	-1
0.33167	-1
0.33533	-1
0.33900	-1
0.34267	-1
0.34633	-2
0.35000	-1
0.35367	-1
0.35733	-1
0.36100	-1
0.36467	-1
0.36833	-1
0.37200	-1
0.37567	-1
0.37933	-0
0.38300	-0
0.38667	0
0.39033	1
0.39400	1
0.39767	1
0.40133	1
0.40500	2
0.40867	2
0.41233	2
0.41600	3
0.41967	3
0.42333	3
0.42700	2
0.43067	2
0.43433	2
0.43800	1
0.44167	1
0.44533	1
0.44900	1
0.45267	1
0.45633	1
0.46000	1
0.46367	1
0.46733	1
0.47100	1
0.47467	1
0.47833	1
0.48200	1
0.48567	1
0.48933	0
0.49300	-0
0.49667	-1
0.50033	-1
0.50400	-2
0.50767	-2
0.51133	-2
0.51500	-2
0.51867	-2
0.52233	-2
0.52600	-2
0.52967	-2
0.53333	-2
0.53700	-2
0.54067	-2
0.54433	-2
0.54800	-2
0.55167	-2
0.55533	-2
0.55900	-2
0.56267	-2
0.56633	-2
0.57000	-2
0.57367	-2
0.57733	-2
0.58100	-2
0.58467	-2
0.58833	-3
0.59200	-3
0.59567	-3
0.59933	-3
0.60300	-3
0.60667	-3
0.61033	-3
0.61400	-3
0.61767	-3
0.62133	-3
0.62500	-3
0.62867	-3
0.63233	-3
0.63600	-3
0.63967	-2
0.64333	-2
0.64700	-2
0.65067	-2
0.65433	-2
0.65800	-1
0.66167	-1
0.66533	-1
0.66900	-1
0.67267	-0
0.67633	-0
0.68000	-0
0.68367	-0
0.68733	-0
0.69100	-0
0.69467	-0
0.69833	-0
0.70200	-0
0.70567	-0
0.70933	-1
0.71300	-1
0.71667	-1
0.72033	-1
0.72400	-1
0.72767	-2
0.73133	-2
0.73500	-2
0.73867	-1
0.74233	-1
0.74600	-1
0.74967	-1
0.75333	-0
0.75700	-0
0.76067	0
0.76433	0
0.76800	0
0.77167	-0
0.77533	-0
0.77900	-0
0.78267	-1
0.78633	-1
0.79000	-1
0.79367	-1
0.79733	-1
0.80100	-1
0.80467	-1
0.80833	-1
0.81200	-1
0.81567	-1
0.81933	-1
0.82300	-1
0.82667	-1
0.83033	-1
0.83400	-1
0.83767	-1
0.84133	-1
0.84500	-2
0.84867	-1
0.85233	-1
0.85600	-1
0.85967	-0
0.86333	-0
0.86700	0
0.87067	0
0.87433	0
0.87800	0
0.88167	-0
0.88533	-1
0.88900	-1
0.89267	-1
0.89633	-1
0.90000	-2
0.90367	-2
0.90733	-3
0.91100	-3
0.91467	-4
0.91833	-4
0.92200	-4
0.92567	-4
0.92933	-4
0.93300	-4
0.93667	-3
0.94033	-3
0.94400	-2
0.94767	-2
0.95133	-2
0.95500	-2
0.95867	-2
0.96233	-2
0.96600	-2
0.96967	-2
0.97333	-1
0.97700	-1
0.98067	-1
0.98433	-1
0.98800	-1
0.99167	-1
0.99533	-1
0.99900	-1
1.00267	-1
1.00633	-1
1.01000	-1
1.01367	-1
1.01733	-1
1.02100	-1
1.02467	-1
1.02833	-1
1.03200	-1
1.03567	-1
1.03933	-2
1.04300	-2
1.04667	-2
1.05033	-2
1.05400	-2
1.05767	-2
1.06133	-2
1.06500	-2
1.06867	-2
1.07233	-2
1.07600	-2
1.07967	-2
1.08333	-2
1.08700	-2
1.09067	-2
1.09433	-2
1.09800	-2
1.10167	-3
1.10533	-3
1.10900	-4
1.11267	-4
1.11633	-4
1.12000	-3
1.12367	-3
1.12733	-3
1.13100	-3
1.13467	-2
1.13833	-2
1.14200	-1
1.14567	-1
1.14933	-1
1.15300	-1
1.15667	-1
1.16033	-1
1.16400	-1
1.16767	-2
1.17133	-2
1.17500	-2
1.17867	-3
1.18233	-3
1.18600	-2
1.18967	-2
1.19333	-2
1.19700	-2
1.20067	-2
1.20433	-2
1.20800	-2
1.21167	-2
1.21533	-2
1.21900	-2
1.22267	-2
1.22633	-2
1.23000	-2
1.23367	-2
1.23733	-2
1.24100	-2
1.24467	-3
1.24833	-3
1.25200	-3
1.25567	-3
1.25933	-3
1.26300	-4
1.26667	-4
1.27033	-4
1.27400	-3
1.27767	-3
1.28133	-3
1.28500	-2
1.28867	-2
1.29233	-1
1.29600	-1
1.29967	-1
1.30333	-1
1.30700	-1
1.31067	-1
1.31433	-1
1.31800	-1
1.32167	-1
1.32533	-1
1.32900	-1
1.33267	-1
1.33633	-2
1.34000	-2
1.34367	-2
1.34733	-3
1.35100	-3
1.35467	-3
1.35833	-4
1.36200	-4
1.36567	-4
1.36933	-5
1.37300	-5
1.37667	-5
1.38033	-6
1.38400	-6
1.38767	-6
1.39133	-6
1.39500	-6
1.39867	-6
1.40233	-6
1.40600	-6
1.40967	-6
1.41333	-6
1.41700	-6
1.42067	-6
1.42433	-5
1.42800	-5
1.43167	-5
1.43533	-4
1.43900	-4
1.44267	-4
1.44633	-4
1.45000	-4
1.45367	-4
1.45733	-4
1.46100	-4
1.46467	-4
1.46833	-4
1.47200	-4
1.47567	-4
1.47933	-4
1.48300	-4
1.48667	-4
1.49033	-4
1.49400	-4
1.49767	-4
1.50133	-4
1.50500	-4
1.50867	-4
1.51233	-4
1.51600	-4
1.51967	-4
1.52333	-4
1.52700	-4
1.53067	-4
1.53433	-4
1.53800	-4
1.54167	-4
1.54533	-4
1.54900	-4
1.55267	-4
1.55633	-4
1.56000	-4
1.56367	-4
1.56733	-3
1.57100	-3
1.57467	-3
1.57833	-3
1.58200	-3
1.58567	-3
1.58933	-3
1.59300	-3
1.59667	-4
1.60033	-5
1.60400	-6
1.60767	-8
1.61133	-9
1.61500	-11
1.61867	-13
1.62233	-15
1.62600	-18
1.62967	-21
1.63333	-24
1.63700	-28
1.64067	-31
1.64433	-35
1.64800	-39
1.65167	-42
1.65533	-46
1.65900	-50
1.66267	-55
1.66633	-59
1.67000	-64
1.67367	-69
1.67733	-75
1.68100	-80
1.68467	-85
1.68833	-90
1.69200	-94
1.69567	-98
1.69933	-101
1.70300	-104
1.70667	-107
1.71033	-108
1.71400	-110
1.71767	-111
1.72133	-111
1.72500	-111
1.72867	-111
1.73233	-111
1.73600	-111
1.73967	-112
1.74333	-112
1.74700	-111
1.75067	-111
1.75433	-111
1.75800	-111
1.76167	-111
1.76533	-112
1.76900	-112
1.77267	-113
1.77633	-114
1.78000	-115
1.78367	-116
1.78733	-117
1.79100	-117
1.79467	-118
1.79833	-118
1.80200	-118
1.80567	-118
1.80933	-118
1.81300	-118
1.81667	-118
1.82033	-119
1.82400	-119
1.82767	-119
1.83133	-120
1.83500	-121
1.83867	-121
1.84233	-121
1.84600	-121
1.84967	-121
1.85333	-121
1.85700	-120
1.86067	-120
1.86433	-119
1.86800	-119
1.87167	-118
1.87533	-119
1.87900	-119
1.88267	-119
1.88633	-120
1.89000	-120
1.89367	-120
1.89733	-120
1.90100	-120
1.90467	-119
1.90833	-119
1.91200	-118
1.91567	-118
1.91933	-118
1.92300	-117
1.92667	-117
1.93033	-117
1.93400	-116
1.93767	-115
1.94133	-114
1.94500	-113
1.94867	-113
1.95233	-112
1.95600	-112
1.95967	-112
1.96333	-112
1.96700	-112
1.97067	-112
1.97433	-112
1.97800	-112
1.98167	-112
1.98533	-113
1.98900	-112
1.99267	-111
1.99633	-111
2.00000	-110
2.00367	-109
2.00733	-109
2.01100	-108
2.01467	-108
2.01833	-108
2.02200	-108
2.02567	-109
2.02933	-109
2.03300	-108
2.03667	-107
2.04033	-107
2.04400	-106
2.04767	-106
2.05133	-105
2.05500	-105
2.05867	-105
2.06233	-105
2.06600	-105
2.06967	-105
2.07333	-104
2.07700	-104
2.08067	-104
2.08433	-104
2.08800	-104
2.09167	-104
2.09533	-104
2.09900	-104
2.10267	-104
2.10633	-104
2.11000	-104
2.11367	-104
2.11733	-104
2.12100	-103
2.12467	-103
2.12833	-102
2.13200	-102
2.13567	-101
2.13933	-101
2.14300	-101
2.14667	-100
2.15033	-100
2.15400	-100
2.15767	-99
2.16133	-98
2.16500	-97
2.16867	-96
2.17233	-96
2.17600	-95
2.17967	-95
2.18333	-95
2.18700	-95
2.19067	-96
2.19433	-96
2.19800	-95
2.20167	-95
2.20533	-95
2.20900	-94
2.21267	-94
2.21633	-93
2.22000	-93
2.22367	-93
2.22733	-92
2.23100	-92
2.23467	-92
2.23833	-91
2.24200	-90
2.24567	-90
2.24933	-90
2.25300	-90
2.25667	-90
2.26033	-91
2.26400	-91
2.26767	-91
2.27133	-90
2.27500	-90
2.27867	-90
2.28233	-89
2.28600	-89
2.28967	-89
2.29333	-89
2.29700	-88
2.30067	-88
2.30433	-88
2.30800	-88
2.31167	-87
2.31533	-87
2.31900	-86
2.32267	-86
2.32633	-86
2.33000	-87
2.33367	-87
2.33733	-88
2.34100	-88
2.34467	-87
2.34833	-86
2.35200	-84
2.35567	-82
2.35933	-81
2.36300	-78
2.36667	-76
2.37033	-73
2.37400	-70
2.37767	-66
2.38133	-62
2.38500	-58
2.38867	-54
2.39233	-49
2.39600	-44
2.39967	-40
2.40333	-36
2.40700	-33
2.41067	-30
2.41433	-27
2.41800	-25
2.42167	-23
2.42533	-22
2.42900	-20
2.43267	-18
2.43633	-17
2.44000	-15
2.44367	-13
2.44733	-12
2.45100	-10
2.45467	-8
2.45833	-6
2.46200	-5
2.46567	-4
2.46933	-3
2.47300	-2
2.47667	-1
2.48033	0
2.48400	1
2.48767	3
2.49133	4
2.49500	4
2.49867	5
2.50233	5
2.50600	5
2.50967	6
2.51333	7
2.51700	7
2.52067	8
2.52433	9
2.52800	9
2.53167	10
2.53533	10
2.53900	11
2.54267	11
2.54633	11
2.55000	11
2.55367	12
2.55733	12
2.56100	12
2.56467	12
2.56833	13
2.57200	13
2.57567	14
2.57933	14
2.58300	14
2.58667	14
2.59033	14
2.59400	14
2.59767	14
2.60133	14
2.60500	14
2.60867	14
2.61233	14
2.61600	14
2.61967	15
2.62333	15
2.62700	16
2.63067	16
2.63433	16
2.63800	17
2.64167	17
2.64533	17
2.64900	18
2.65267	18
2.65633	18
2.66000	18
2.66367	18
2.66733	18
2.67100	18
2.67467	18
2.67833	18
2.68200	19
2.68567	19
2.68933	19
2.69300	19
2.69667	19
2.70033	20
2.70400	20
2.70767	20
2.71133	20
2.71500	21
2.71867	21
2.72233	22
2.72600	23
2.72967	23
2.73333	24
2.73700	24
2.74067	24
2.74433	24
2.74800	24
2.75167	23
2.75533	23
2.75900	22
2.76267	22
2.76633	22
2.77000	22
2.77367	22
2.77733	23
2.78100	23
2.78467	24
2.78833	24
2.79200	24
2.79567	24
2.79933	24
2.80300	24
2.80667	24
2.81033	24
2.81400	24
2.81767	24
2.82133	24
2.82500	24
2.82867	24
2.83233	24
2.83600	23
2.83967	21
2.84333	17
2.84700	13
2.85067	5
2.85433	-5
2.85800	-19
2.86167	-37
2.86533	-60
2.86900	-86
2.87267	-117
2.87633	-152
2.88000	-191
2.88367	-233
2.88733	-278
2.89100	-326
2.89467	-376
2.89833	-428
2.90200	-481
2.90567	-535
2.90933	-589
2.91300	-643
2.91667	-696
2.92033	-749
2.92400	-800
2.92767	-852
2.93133	-905
2.93500	-963
2.93867	-1022
2.94233	-1073
2.94600	-1106
2.94967	-1113
2.95333	-1094
2.95700	-1052
2.96067	-993
2.96433	-921
2.96800	-842
2.97167	-761
2.97533	-681
2.97900	-604
2.98267	-532
2.98633	-465
2.99000	-405
2.99367	-351
2.99733	-303
3.00100	-260
3.00467	-222
3.00833	-190
3.01200	-161
3.01567	-137
3.01933	-116
3.02300	-98
3.02667	-82
3.03033	-69
3.03400	-57
3.03767	-47
3.04133	-39
3.04500	-32
3.04867	-25
3.05233	-20
3.05600	-16
3.05967	-12
3.06333	-8
3.06700	-5
3.07067	-3
3.07433	-0
3.07800	2
3.08167	3
3.08533	4
3.08900	5
3.09267	6
3.09633	7
3.10000	8
3.10367	8
3.10733	9
3.11100	10
3.11467	10
3.11833	11
3.12200	12
3.12567	12
3.12933	13
3.13300	13
3.13667	14
3.14033	14
3.14400	15
3.14767	15
3.15133	16
3.15500	16
3.15867	16
3.16233	17
3.16600	17
3.16967	17
3.17333	17
3.17700	17
3.18067	18
3.18433	18
3.18800	18
3.19167	18
3.19533	19
3.19900	19
3.20267	19
3.20633	20
3.21000	20
3.21367	20
3.21733	20
3.22100	20
3.22467	21
3.22833	21
3.23200	21
3.23567	21
3.23933	22
3.24300	22
3.24667	22
3.25033	22
3.25400	22
3.25767	22
3.26133	22
3.26500	22
3.26867	22
3.27233	22
3.27600	21
3.27967	21
3.28333	21
3.28700	20
3.29067	20
3.29433	20
3.29800	20
3.30167	20
3.30533	20
3.30900	20
3.31267	20
3.31633	21
3.32000	21
3.32367	22
3.32733	22
3.33100	22
3.33467	23
3.33833	23
3.34200	23
3.34567	24
3.34933	24
3.35300	25
3.35667	25
3.36033	25
3.36400	25
3.36767	25
3.37133	25
3.37500	25
3.37867	24
3.38233	24
3.38600	23
3.38967	23
3.39333	23
3.39700	23
3.40067	22
3.40433	22
3.40800	22
3.41167	22
3.41533	22
3.41900	22
3.42267	22
3.42633	23
3.43000	23
3.43367	23
3.43733	24
3.44100	24
3.44467	24
3.44833	24
3.45200	24
3.45567	25
3.45933	25
3.46300	25
3.46667	25
3.47033	25
3.47400	25
3.47767	25
3.48133	26
3.48500	26
3.48867	26
3.49233	26
3.49600	26
3.49967	26
3.50333	26
3.50700	25
3.51067	25
3.51433	25
3.51800	25
3.52167	25
3.52533	25
3.52900	25
3.53267	25
3.53633	25
3.54000	24
3.54367	24
3.54733	24
3.55100	24
3.55467	24
3.55833	24
3.56200	24
3.56567	23
3.56933	23
3.57300	23
3.57667	23
3.58033	23
3.58400	23
3.58767	23
3.59133	23
3.59500	23
3.59867	23
3.60233	23
3.60600	23
3.60967	23
3.61333	23
3.61700	23
3.62067	23
3.62433	23
3.62800	23
3.63167	23
3.63533	24
3.63900	24
3.64267	24
3.64633	25
3.65000	25
3.65367	25
3.65733	25
3.66100	25
3.66467	25
3.66833	25
3.67200	25
3.67567	25
3.67933	25
3.68300	25
3.68667	25
3.69033	25
3.69400	25
3.69767	25
3.70133	25
3.70500	25
3.70867	26
3.71233	26
3.71600	26
3.71967	26
3.72333	26
3.72700	26
3.73067	27
3.73433	27
3.73800	27
3.74167	27
3.74533	27
3.74900	27
3.75267	27
3.75633	27
3.76000	27
3.76367	27
3.76733	27
3.77100	27
3.77467	27
3.77833	27
3.78200	26
3.78567	26
3.78933	26
3.79300	26
3.79667	26
3.80033	27
3.80400	27
3.80767	27
3.81133	27
3.81500	26
3.81867	27
3.82233	27
3.82600	27
3.82967	27
3.83333	26
3.83700	26
3.84067	26
3.84433	25
3.84800	25
3.85167	25
3.85533	25
3.85900	25
3.86267	25
3.86633	25
3.87000	25
3.87367	25
3.87733	25
3.88100	25
3.88467	24
3.88833	24
3.89200	24
3.89567	24
3.89933	24
3.90300	24
3.90667	24
3.91033	23
3.91400	23
3.91767	23
3.92133	23
3.92500	23
3.92867	23
3.93233	24
3.93600	24
3.93967	23
3.94333	23
3.94700	23
3.95067	23
3.95433	23
3.95800	23
3.96167	23
3.96533	23
3.96900	23
3.97267	23
3.97633	23
3.98000	23
3.98367	23
3.98733	23
3.99100	22
3.99467	22
3.99833	22

[Chromatogram (Ch3)]
Interval(msec)	220
# of Points	1091
Start Time(min)	0.002
End Time(min)	3.998
R.Time (min)	Intensity
0.00167	1
0.00533	2
0.00900	1
0.01267	-0
0.01633	-2
0.02000	-4
0.02367	-4
0.02733	-4
0.03100	-5
0.03467	-6
0.03833	-8
0.04200	-9
0.04567	-10
0.04933	-7
0.05300	-5
0.05667	-3
0.06033	-3
0.06400	-5
0.06767	-7
0.07133	-8
0.07500	-8
0.07867	-9
0.08233	-9
0.08600	-7
0.08967	-6
0.09333	-4
0.09700	-3
0.10067	-5
0.10433	-6
0.10800	-7
0.11167	-8
0.11533	-8
0.11900	-6
0.12267	-5
0.12633	-5
0.13000	-3
0.13367	-3
0.13733	-4
0.14100	-4
0.14467	-5
0.14833	-6
0.15200	-6
0.15567	-6
0.15933	-6
0.16300	-6
0.16667	-8
0.17033	-9
0.17400	-10
0.17767	-9
0.18133	-7
0.18500	-7
0.18867	-8
0.19233	-7
0.19600	-6
0.19967	-7
0.20333	-4
0.20700	-1
0.21067	-1
0.21433	-3
0.21800	-3
0.22167	-2
0.22533	-2
0.22900	-5
0.23267	-9
0.23633	-14
0.24000	-17
0.24367	-17
0.24733	-16
0.25100	-15
0.25467	-13
0.25833	-11
0.26200	-12
0.26567	-10
0.26933	-9
0.27300	-7
0.27667	-6
0.28033	-5
0.28400	-5
0.28767	-7
0.29133	-10
0.29500	-11
0.29867	-12
0.30233	-10
0.30600	-7
0.30967	-7
0.31333	-7
0.31700	-7
0.32067	-8
0.32433	-7
0.32800	-6
0.33167	-8
0.33533	-10
0.33900	-11
0.34267	-13
0.34633	-12
0.35000	-11
0.35367	-11
0.35733	-12
0.36100	-13
0.36467	-13
0.36833	-11
0.37200	-9
0.37567	-7
0.37933	-5
0.38300	-4
0.38667	-6
0.39033	-9
0.39400	-10
0.39767	-10
0.40133	-11
0.40500	-11
0.40867	-10
0.41233	-11
0.41600	-12
0.41967	-13
0.42333	-12
0.42700	-13
0.43067	-13
0.43433	-13
0.43800	-13
0.44167	-12
0.44533	-13
0.44900	-14
0.45267	-15
0.45633	-16
0.46000	-16
0.46367	-16
0.46733	-14
0.47100	-11
0.47467	-10
0.47833	-12
0.48200	-12
0.48567	-11
0.48933	-11
0.49300	-12
0.49667	-13
0.50033	-15
0.50400	-16
0.50767	-15
0.51133	-13
0.51500	-12
0.51867	-11
0.52233	-12
0.52600	-11
0.52967	-10
0.53333	-9
0.53700	-8
0.54067	-8
0.54433	-7
0.54800	-6
0.55167	-5
0.55533	-4
0.55900	-3
0.56267	-4
0.56633	-3
0.57000	-3
0.57367	-2
0.57733	-1
0.58100	1
0.58467	4
0.58833	5
0.59200	5
0.59567	4
0.59933	4
0.60300	4
0.60667	5
0.61033	6
0.61400	3
0.61767	2
0.62133	2
0.62500	2
0.62867	2
0.63233	3
0.63600	5
0.63967	6
0.64333	9
0.64700	8
0.65067	8
0.65433	7
0.65800	5
0.66167	4
0.66533	3
0.66900	3
0.67267	3
0.67633	3
0.68000	3
0.68367	2
0.68733	1
0.69100	0
0.69467	3
0.69833	6
0.70200	11
0.70567	13
0.70933	14
0.71300	12
0.71667	7
0.72033	4
0.72400	2
0.72767	3
0.73133	3
0.73500	4
0.73867	6
0.74233	7
0.74600	6
0.74967	6
0.75333	5
0.75700	4
0.76067	6
0.76433	9
0.76800	10
0.77167	8
0.77533	7
0.77900	8
0.78267	8
0.78633	9
0.79000	9
0.79367	7
0.79733	4
0.80100	4
0.80467	5
0.80833	5
0.81200	6
0.81567	9
0.81933	10
0.82300	11
0.82667	9
0.83033	10
0.83400	11
0.83767	11
0.84133	13
0.84500	13
0.84867	13
0.85233	12
0.85600	14
0.85967	14
0.86333	15
0.86700	14
0.87067	14
0.87433	13
0.87800	13
0.88167	12
0.88533	12
0.88900	15
0.89267	16
0.89633	17
0.90000	18
0.90367	18
0.90733	18
0.91100	18
0.91467	16
0.91833	14
0.92200	13
0.92567	14
0.92933	19
0.93300	20
0.93667	19
0.94033	18
0.94400	18
0.94767	18
0.95133	16
0.95500	17
0.95867	18
0.96233	20
0.96600	22
0.96967	24
0.97333	25
0.97700	26
0.98067	24
0.98433	22
0.98800	20
0.99167	20
0.99533	22
0.99900	22
1.00267	21
1.00633	19
1.01000	16
1.01367	15
1.01733	14
1.02100	14
1.02467	13
1.02833	10
1.03200	10
1.03567	14
1.03933	16
1.04300	17
1.04667	17
1.05033	18
1.05400	18
1.05767	18
1.06133	17
1.06500	15
1.06867	14
1.07233	14
1.07600	15
1.07967	15
1.08333	16
1.08700	18
1.09067	18
1.09433	17
1.09800	16
1.10167	17
1.10533	18
1.10900	16
1.11267	14
1.11633	12
1.12000	13
1.12367	15
1.12733	15
1.13100	13
1.13467	15
1.13833	17
1.14200	18
1.14567	17
1.14933	17
1.15300	16
1.15667	15
1.16033	13
1.16400	13
1.16767	15
1.17133	18
1.17500	20
1.17867	21
1.18233	20
1.18600	18
1.18967	17
1.19333	15
1.19700	17
1.20067	18
1.20433	20
1.20800	20
1.21167	16
1.21533	12
1.21900	7
1.22267	6
1.22633	6
1.23000	7
1.23367	9
1.23733	9
1.24100	9
1.24467	10
1.24833	12
1.25200	11
1.25567	9
1.25933	9
1.26300	9
1.26667	8
1.27033	8
1.27400	8
1.27767	7
1.28133	5
1.28500	6
1.28867	6
1.29233	6
1.29600	7
1.29967	7
1.30333	6
1.30700	4
1.31067	2
1.31433	0
1.31800	-0
1.32167	-1
1.32533	-1
1.32900	-1
1.33267	1
1.33633	3
1.34000	4
1.34367	4
1.34733	3
1.35100	3
1.35467	5
1.35833	6
1.36200	6
1.36567	6
1.36933	5
1.37300	5
1.37667	6
1.38033	6
1.38400	7
1.38767	6
1.39133	5
1.39500	4
1.39867	2
1.40233	4
1.40600	7
1.40967	7
1.41333	6
1.41700	6
1.42067	6
1.42433	9
1.42800	10
1.43167	9
1.43533	7
1.43900	8
1.44267	7
1.44633	9
1.45000	11
1.45367	13
1.45733	14
1.46100	15
1.46467	16
1.46833	15
1.47200	14
1.47567	12
1.47933	12
1.48300	11
1.48667	10
1.49033	10
1.49400	10
1.49767	9
1.50133	8
1.50500	6
1.50867	4
1.51233	4
1.51600	5
1.51967	8
1.52333	11
1.52700	14
1.53067	15
1.53433	14
1.53800	14
1.54167	15
1.54533	14
1.54900	11
1.55267	10
1.55633	11
1.56000	10
1.56367	8
1.56733	7
1.57100	9
1.57467	12
1.57833	13
1.58200	14
1.58567	14
1.58933	16
1.59300	16
1.59667	17
1.60033	15
1.60400	14
1.60767	13
1.61133	11
1.61500	10
1.61867	9
1.62233	8
1.62600	6
1.62967	8
1.63333	11
1.63700	12
1.64067	13
1.64433	13
1.64800	14
1.65167	16
1.65533	15
1.65900	13
1.66267	12
1.66633	9
1.67000	9
1.67367	11
1.67733	13
1.68100	14
1.68467	15
1.68833	17
1.69200	19
1.69567	19
1.69933	16
1.70300	15
1.70667	15
1.71033	16
1.71400	17
1.71767	14
1.72133	12
1.72500	13
1.72867	13
1.73233	11
1.73600	12
1.73967	15
1.74333	19
1.74700	21
1.75067	22
1.75433	22
1.75800	22
1.76167	21
1.76533	23
1.76900	23
1.77267	19
1.77633	17
1.78000	18
1.78367	20
1.78733	22
1.79100	24
1.79467	25
1.79833	26
1.80200	24
1.80567	21
1.80933	20
1.81300	20
1.81667	22
1.82033	22
1.82400	23
1.82767	25
1.83133	27
1.83500	28
1.83867	30
1.84233	29
1.84600	28
1.84967	28
1.85333	27
1.85700	25
1.86067	24
1.86433	25
1.86800	27
1.87167	28
1.87533	28
1.87900	28
1.88267	28
1.88633	29
1.89000	31
1.89367	32
1.89733	32
1.90100	32
1.90467	33
1.90833	32
1.91200	29
1.91567	29
1.91933	30
1.92300	33
1.92667	36
1.93033	37
1.93400	40
1.93767	39
1.94133	40
1.94500	39
1.94867	37
1.95233	34
1.95600	33
1.95967	32
1.96333	31
1.96700	30
1.97067	31
1.97433	30
1.97800	31
1.98167	34
1.98533	35
1.98900	38
1.99267	40
1.99633	41
2.00000	42
2.00367	42
2.00733	41
2.01100	40
2.01467	38
2.01833	39
2.02200	42
2.02567	44
2.02933	44
2.03300	42
2.03667	41
2.04033	42
2.04400	42
2.04767	41
2.05133	43
2.05500	45
2.05867	46
2.06233	46
2.06600	46
2.06967	45
2.07333	44
2.07700	45
2.08067	47
2.08433	45
2.08800	44
2.09167	44
2.09533	42
2.09900	42
2.10267	45
2.10633	51
2.11000	56
2.11367	61
2.11733	62
2.12100	62
2.12467	61
2.12833	58
2.13200	58
2.13567	59
2.13933	59
2.14300	60
2.14667	60
2.15033	59
2.15400	60
2.15767	61
2.16133	62
2.16500	61
2.16867	62
2.17233	65
2.17600	66
2.17967	66
2.18333	66
2.18700	67
2.19067	68
2.19433	70
2.19800	73
2.20167	74
2.20533	75
2.20900	75
2.21267	75
2.21633	75
2.22000	76
2.22367	79
2.22733	81
2.23100	82
2.23467	83
2.23833	86
2.24200	87
2.24567	88
2.24933	89
2.25300	92
2.25667	94
2.26033	93
2.26400	93
2.26767	93
2.27133	94
2.27500	96
2.27867	98
2.28233	99
2.28600	101
2.28967	102
2.29333	102
2.29700	105
2.30067	107
2.30433	108
2.30800	109
2.31167	110
2.31533	113
2.31900	118
2.32267	122
2.32633	127
2.33000	130
2.33367	131
2.33733	132
2.34100	133
2.34467	136
2.34833	135
2.35200	135
2.35567	136
2.35933	139
2.36300	142
2.36667	142
2.37033	141
2.37400	140
2.37767	141
2.38133	144
2.38500	146
2.38867	145
2.39233	144
2.39600	147
2.39967	150
2.40333	154
2.40700	157
2.41067	156
2.41433	155
2.41800	156
2.42167	159
2.42533	161
2.42900	162
2.43267	162
2.43633	164
2.44000	168
2.44367	200
2.44733	285
2.45100	377
2.45467	451
2.45833	490
2.46200	481
2.46567	446
2.46933	407
2.47300	375
2.47667	352
2.48033	335
2.48400	321
2.48767	303
2.49133	277
2.49500	251
2.49867	222
2.50233	197
2.50600	179
2.50967	166
2.51333	158
2.51700	154
2.52067	153
2.52433	154
2.52800	158
2.53167	163
2.53533	170
2.53900	179
2.54267	186
2.54633	187
2.55000	181
2.55367	169
2.55733	156
2.56100	141
2.56467	126
2.56833	112
2.57200	101
2.57567	93
2.57933	89
2.58300	84
2.58667	82
2.59033	77
2.59400	70
2.59767	64
2.60133	58
2.60500	46
2.60867	31
2.61233	12
2.61600	-9
2.61967	-27
2.62333	-44
2.62700	-57
2.63067	-66
2.63433	-72
2.63800	-75
2.64167	-74
2.64533	-69
2.64900	-60
2.65267	-49
2.65633	-38
2.66000	-26
2.66367	-12
2.66733	-3
2.67100	5
2.67467	8
2.67833	12
2.68200	19
2.68567	25
2.68933	28
2.69300	28
2.69667	29
2.70033	29
2.70400	29
2.70767	31
2.71133	32
2.71500	30
2.71867	27
2.72233	26
2.72600	24
2.72967	24
2.73333	23
2.73700	21
2.74067	19
2.74433	18
2.74800	20
2.75167	22
2.75533	21
2.75900	22
2.76267	22
2.76633	22
2.77000	20
2.77367	20
2.77733	21
2.78100	21
2.78467	21
2.78833	22
2.79200	25
2.79567	26
2.79933	26
2.80300	27
2.80667	27
2.81033	29
2.81400	31
2.81767	39
2.82133	60
2.82500	106
2.82867	192
2.83233	344
2.83600	583
2.83967	924
2.84333	1370
2.84700	1903
2.85067	2491
2.85433	3093
2.85800	3661
2.86167	4147
2.86533	4513
2.86900	4738
2.87267	4818
2.87633	4760
2.88000	4591
2.88367	4337
2.88733	4023
2.89100	3678
2.89467	3322
2.89833	2973
2.90200	2642
2.90567	2333
2.90933	2052
2.91300	1799
2.91667	1572
2.92033	1372
2.92400	1194
2.92767	1037
2.93133	902
2.93500	786
2.93867	685
2.94233	595
2.94600	515
2.94967	449
2.95333	392
2.95700	342
2.96067	300
2.96433	266
2.96800	237
2.97167	210
2.97533	187
2.97900	165
2.98267	146
2.98633	130
2.99000	117
2.99367	104
2.99733	96
3.00100	90
3.00467	84
3.00833	76
3.01200	67
3.01567	60
3.01933	53
3.02300	48
3.02667	44
3.03033	41
3.03400	38
3.03767	35
3.04133	33
3.04500	29
3.04867	26
3.05233	23
3.05600	21
3.05967	17
3.06333	11
3.06700	8
3.07067	7
3.07433	4
3.07800	3
3.08167	3
3.08533	5
3.08900	6
3.09267	6
3.09633	5
3.10000	2
3.10367	-2
3.10733	-5
3.11100	-6
3.11467	-8
3.11833	-10
3.12200	-11
3.12567	-12
3.12933	-14
3.13300	-16
3.13667	-16
3.14033	-17
3.14400	-17
3.14767	-20
3.15133	-22
3.15500	-22
3.15867	-23
3.16233	-21
3.16600	-21
3.16967	-20
3.17333	-18
3.17700	-17
3.18067	-17
3.18433	-16
3.18800	-16
3.19167	-17
3.19533	-16
3.19900	-15
3.20267	-14
3.20633	-14
3.21000	-13
3.21367	-13
3.21733	-12
3.22100	-11
3.22467	-12
3.22833	-15
3.23200	-16
3.23567	-16
3.23933	-16
3.24300	-18
3.24667	-17
3.25033	-16
3.25400	-16
3.25767	-17
3.26133	-19
3.26500	-21
3.26867	-21
3.27233	-21
3.27600	-21
3.27967	-23
3.28333	-25
3.28700	-26
3.29067	-25
3.29433	-24
3.29800	-25
3.30167	-24
3.30533	-22
3.30900	-20
3.31267	-19
3.31633	-20
3.32000	-21
3.32367	-21
3.32733	-23
3.33100	-23
3.33467	-24
3.33833	-26
3.34200	-29
3.34567	-31
3.34933	-29
3.35300	-26
3.35667	-24
3.36033	-23
3.36400	-23
3.36767	-25
3.37133	-29
3.37500	-31
3.37867	-32
3.38233	-32
3.38600	-32
3.38967	-30
3.39333	-28
3.39700	-27
3.40067	-26
3.40433	-28
3.40800	-29
3.41167	-30
3.41533	-31
3.41900	-31
3.42267	-32
3.42633	-33
3.43000	-35
3.43367	-35
3.43733	-34
3.44100	-35
3.44467	-36
3.44833	-34
3.45200	-30
3.45567	-26
3.45933	-24
3.46300	-25
3.46667	-25
3.47033	-27
3.47400	-29
3.47767	-28
3.48133	-27
3.48500	-29
3.48867	-28
3.49233	-27
3.49600	-26
3.49967	-24
3.50333	-22
3.50700	-24
3.51067	-47
3.51433	-87
3.51800	-119
3.52167	-135
3.52533	-138
3.52900	-132
3.53267	-119
3.53633	-103
3.54000	-86
3.54367	-67
3.54733	-49
3.55100	-28
3.55467	-9
3.55833	8
3.56200	24
3.56567	43
3.56933	61
3.57300	78
3.57667	92
3.58033	105
3.58400	119
3.58767	133
3.59133	149
3.59500	165
3.59867	179
3.60233	190
3.60600	200
3.60967	208
3.61333	216
3.61700	222
3.62067	227
3.62433	235
3.62800	239
3.63167	242
3.63533	247
3.63900	253
3.64267	258
3.64633	261
3.65000	266
3.65367	272
3.65733	278
3.66100	283
3.66467	286
3.66833	288
3.67200	289
3.67567	290
3.67933	290
3.68300	290
3.68667	292
3.69033	293
3.69400	295
3.69767	296
3.70133	295
3.70500	295
3.70867	295
3.71233	295
3.71600	293
3.71967	290
3.72333	287
3.72700	285
3.73067	283
3.73433	284
3.73800	285
3.74167	284
3.74533	284
3.74900	282
3.75267	282
3.75633	282
3.76000	280
3.76367	276
3.76733	275
3.77100	276
3.77467	276
3.77833	277
3.78200	275
3.78567	275
3.78933	273
3.79300	271
3.79667	271
3.80033	273
3.80400	273
3.80767	273
3.81133	273
3.81500	274
3.81867	274
3.82233	273
3.82600	270
3.82967	270
3.83333	271
3.83700	271
3.84067	270
3.84433	272
3.84800	273
3.85167	272
3.85533	269
3.85900	266
3.86267	263
3.86633	262
3.87000	264
3.87367	265
3.87733	268
3.88100	270
3.88467	269
3.88833	268
3.89200	265
3.89567	263
3.89933	265
3.90300	265
3.90667	266
3.91033	267
3.91400	265
3.91767	264
3.92133	263
3.92500	263
3.92867	264
3.93233	264
3.93600	265
3.93967	265
3.94333	265
3.94700	265
3.95067	266
3.95433	267
3.95800	267
3.96167	266
3.96533	266
3.96900	266
3.97267	265
3.97633	266
3.98000	267
3.98367	268
3.98733	267
3.99100	267
3.99467	265
3.99833	262

[Status Trace (Column Oven Temperature)]
Interval(msec)	1000
# of Points	240
Start Time(min)	0.002
End Time(min)	3.986
Intensity Units	
Intensity Multiplier	1
R.Time (min)	Intensity
0.00228	35.07
0.01895	35.06
0.03562	35.06
0.05228	35.05
0.06895	35.06
0.08562	35.05
0.10228	35.06
0.11895	35.06
0.13562	35.06
0.15228	35.06
0.16895	35.05
0.18562	35.06
0.20228	35.06
0.21895	35.07
0.23562	35.06
0.25228	35.04
0.26895	35.04
0.28562	35.04
0.30228	35.03
0.31895	35.04
0.33562	35.04
0.35228	35.04
0.36895	35.03
0.38562	35.02
0.40228	35.00
0.41895	34.98
0.43562	34.99
0.45228	34.98
0.46895	34.99
0.48562	34.99
0.50228	35.00
0.51895	35.00
0.53562	35.01
0.55228	35.00
0.56895	35.01
0.58562	35.01
0.60228	35.02
0.61895	35.02
0.63562	35.02
0.65228	35.01
0.66895	35.01
0.68562	35.01
0.70228	35.00
0.71895	35.00
0.73562	35.00
0.75228	35.00
0.76895	35.00
0.78562	34.99
0.80228	34.99
0.81895	34.99
0.83562	35.00
0.85228	34.99
0.86895	34.98
0.88562	34.99
0.90228	35.00
0.91895	35.00
0.93562	34.99
0.95228	35.00
0.96895	35.00
0.98562	35.00
1.00228	34.99
1.01895	34.99
1.03562	34.99
1.05228	34.99
1.06895	34.99
1.08562	34.99
1.10228	35.00
1.11895	35.01
1.13562	35.00
1.15228	35.00
1.16895	35.00
1.18562	34.99
1.20228	34.99
1.21895	34.99
1.23562	34.99
1.25228	34.99
1.26895	34.98
1.28562	34.97
1.30228	34.96
1.31895	34.96
1.33562	34.97
1.35228	34.97
1.36895	34.98
1.38562	34.99
1.40228	35.00
1.41895	35.01
1.43562	35.01
1.45228	35.00
1.46895	35.01
1.48562	35.00
1.50228	35.00
1.51895	35.00
1.53562	35.00
1.55228	35.01
1.56895	35.00
1.58562	35.01
1.60228	35.05
1.61895	35.14
1.63562	35.30
1.65228	35.52
1.66895	35.82
1.68562	36.21
1.70228	36.58
1.71895	36.92
1.73562	37.25
1.75228	37.55
1.76895	37.87
1.78562	38.21
1.80228	38.55
1.81895	38.88
1.83562	39.23
1.85228	39.55
1.86895	39.86
1.88562	40.22
1.90228	40.54
1.91895	40.87
1.93562	41.19
1.95228	41.51
1.96895	41.84
1.98562	42.17
2.00228	42.48
2.01895	42.84
2.03562	43.14
2.05228	43.47
2.06895	43.78
2.08562	44.11
2.10228	44.45
2.11895	44.77
2.13562	45.09
2.15228	45.42
2.16895	45.74
2.18562	46.07
2.20228	46.39
2.21895	46.72
2.23562	47.04
2.25228	47.39
2.26895	47.71
2.28562	48.04
2.30228	48.38
2.31895	48.71
2.33562	49.09
2.35228	49.38
2.36895	49.59
2.38562	49.65
2.40228	49.64
2.41895	49.65
2.43562	49.66
2.45228	49.66
2.46895	49.70
2.48562	49.70
2.50228	49.72
2.51895	49.73
2.53562	49.75
2.55228	49.77
2.56895	49.77
2.58562	49.78
2.60228	49.80
2.61895	49.81
2.63562	49.81
2.65228	49.83
2.66895	49.84
2.68562	49.85
2.70228	49.87
2.71895	49.85
2.73562	49.84
2.75228	49.86
2.76895	49.87
2.78562	49.87
2.80228	49.87
2.81895	49.87
2.83562	49.88
2.85228	49.90
2.86895	49.91
2.88562	49.93
2.90228	49.94
2.91895	49.94
2.93562	49.94
2.95228	49.94
2.96895	49.95
2.98562	49.96
3.00228	49.97
3.01895	49.98
3.03562	49.99
3.05228	50.00
3.06895	50.01
3.08562	50.02
3.10228	50.04
3.11895	50.04
3.13562	50.05
3.15228	50.06
3.16895	50.06
3.18562	50.07
3.20228	50.06
3.21895	50.06
3.23562	50.06
3.25228	50.06
3.26895	50.07
3.28562	50.09
3.30228	50.11
3.31895	50.10
3.33562	50.10
3.35228	50.08
3.36895	50.07
3.38562	50.09
3.40228	50.10
3.41895	50.10
3.43562	50.10
3.45228	50.09
3.46895	50.08
3.48562	50.08
3.50228	50.08
3.51895	50.07
3.53562	50.07
3.55228	50.08
3.56895	50.08
3.58562	50.09
3.60228	50.10
3.61895	50.11
3.63562	50.10
3.65228	50.10
3.66895	50.10
3.68562	50.09
3.70228	50.09
3.71895	50.08
3.73562	50.06
3.75228	50.05
3.76895	50.05
3.78562	50.04
3.80228	50.04
3.81895	50.02
3.83562	50.01
3.85228	50.01
3.86895	50.01
3.88562	50.00
3.90228	50.01
3.91895	50.01
3.93562	50.02
3.95228	50.02
3.96895	50.01
3.98562	50.02

[Status Trace (Injection Unit Temperature)]
Interval(msec)	1000
# of Points	240
Start Time(min)	0.002
End Time(min)	3.986
Intensity Units	
Intensity Multiplier	1
R.Time (min)	Intensity
0.00228	99.98
0.01895	99.98
0.03562	99.98
0.05228	99.98
0.06895	99.98
0.08562	99.98
0.10228	99.98
0.11895	99.98
0.13562	99.98
0.15228	99.98
0.16895	99.98
0.18562	99.98
0.20228	99.98
0.21895	99.98
0.23562	99.98
0.25228	99.98
0.26895	99.98
0.28562	99.98
0.30228	99.98
0.31895	99.99
0.33562	99.98
0.35228	99.99
0.36895	99.98
0.38562	99.99
0.40228	99.99
0.41895	99.98
0.43562	99.99
0.45228	99.99
0.46895	99.98
0.48562	99.99
0.50228	99.99
0.51895	99.99
0.53562	99.99
0.55228	99.99
0.56895	99.98
0.58562	99.99
0.60228	99.99
0.61895	99.99
0.63562	99.98
0.65228	99.98
0.66895	99.98
0.68562	99.99
0.70228	99.99
0.71895	99.98
0.73562	99.98
0.75228	99.99
0.76895	99.99
0.78562	99.98
0.80228	99.98
0.81895	99.98
0.83562	99.98
0.85228	99.98
0.86895	99.98
0.88562	99.98
0.90228	99.98
0.91895	99.98
0.93562	99.98
0.95228	99.98
0.96895	99.98
0.98562	99.98
1.00228	99.98
1.01895	99.98
1.03562	99.98
1.05228	99.98
1.06895	99.98
1.08562	99.98
1.10228	99.98
1.11895	99.98
1.13562	99.98
1.15228	99.98
1.16895	99.98
1.18562	99.97
1.20228	99.98
1.21895	99.98
1.23562	99.98
1.25228	99.98
1.26895	99.98
1.28562	99.98
1.30228	99.98
1.31895	99.98
1.33562	99.98
1.35228	99.98
1.36895	99.98
1.38562	99.98
1.40228	99.98
1.41895	99.98
1.43562	99.98
1.45228	99.98
1.46895	99.98
1.48562	99.98
1.50228	99.98
1.51895	99.98
1.53562	99.98
1.55228	99.98
1.56895	99.98
1.58562	99.98
1.60228	99.98
1.61895	99.98
1.63562	99.98
1.65228	99.98
1.66895	99.98
1.68562	99.98
1.70228	99.98
1.71895	99.98
1.73562	99.98
1.75228	99.98
1.76895	99.98
1.78562	99.98
1.80228	99.98
1.81895	99.98
1.83562	99.98
1.85228	99.98
1.86895	99.98
1.88562	99.98
1.90228	99.97
1.91895	99.97
1.93562	99.97
1.95228	99.97
1.96895	99.97
1.98562	99.97
2.00228	99.97
2.01895	99.97
2.03562	99.97
2.05228	99.96
2.06895	99.97
2.08562	99.96
2.10228	99.97
2.11895	99.97
2.13562	99.96
2.15228	99.97
2.16895	99.96
2.18562	99.96
2.20228	99.96
2.21895	99.96
2.23562	99.96
2.25228	99.96
2.26895	99.96
2.28562	99.96
2.30228	99.96
2.31895	99.96
2.33562	99.96
2.35228	99.96
2.36895	99.96
2.38562	99.96
2.40228	99.96
2.41895	99.96
2.43562	99.96
2.45228	99.96
2.46895	99.96
2.48562	99.96
2.50228	99.96
2.51895	99.96
2.53562	99.97
2.55228	99.97
2.56895	99.96
2.58562	99.97
2.60228	99.97
2.61895	99.97
2.63562	99.98
2.65228	99.98
2.66895	99.98
2.68562	99.98
2.70228	99.98
2.71895	99.98
2.73562	99.98
2.75228	99.99
2.76895	99.99
2.78562	99.99
2.80228	99.99
2.81895	99.99
2.83562	100.00
2.85228	99.99
2.86895	100.00
2.88562	100.00
2.90228	100.00
2.91895	100.00
2.93562	100.01
2.95228	100.01
2.96895	100.01
2.98562	100.01
3.00228	100.01
3.01895	100.01
3.03562	100.01
3.05228	100.01
3.06895	100.01
3.08562	100.01
3.10228	100.01
3.11895	100.02
3.13562	100.02
3.15228	100.02
3.16895	100.02
3.18562	100.02
3.20228	100.02
3.21895	100.02
3.23562	100.02
3.25228	100.02
3.26895	100.02
3.28562	100.03
3.30228	100.02
3.31895	100.03
3.33562	100.02
3.35228	100.03
3.36895	100.03
3.38562	100.03
3.40228	100.03
3.41895	100.03
3.43562	100.03
3.45228	100.03
3.46895	100.04
3.48562	100.04
3.50228	100.04
3.51895	100.04
3.53562	100.04
3.55228	100.04
3.56895	100.04
3.58562	100.04
3.60228	100.04
3.61895	100.04
3.63562	100.04
3.65228	100.04
3.66895	100.04
3.68562	100.04
3.70228	100.04
3.71895	100.05
3.73562	100.04
3.75228	100.04
3.76895	100.05
3.78562	100.05
3.80228	100.05
3.81895	100.05
3.83562	100.05
3.85228	100.05
3.86895	100.05
3.88562	100.05
3.90228	100.05
3.91895	100.05
3.93562	100.04
3.95228	100.05
3.96895	100.04
3.98562	100.05

[Status Trace (Carrier Gas Pressure)]
Interval(msec)	1000
# of Points	240
Start Time(min)	0.002
End Time(min)	3.986
Intensity Units	
Intensity Multiplier	1
R.Time (min)	Intensity
0.00228	58.00
0.01895	56.30
0.03562	56.36
0.05228	58.53
0.06895	59.86
0.08562	58.27
0.10228	57.97
0.11895	58.01
0.13562	58.01
0.15228	58.01
0.16895	58.00
0.18562	58.00
0.20228	58.00
0.21895	58.00
0.23562	58.00
0.25228	58.00
0.26895	58.00
0.28562	58.00
0.30228	58.00
0.31895	58.00
0.33562	58.00
0.35228	58.00
0.36895	58.00
0.38562	58.00
0.40228	58.00
0.41895	58.00
0.43562	58.00
0.45228	58.00
0.46895	58.00
0.48562	58.00
0.50228	58.00
0.51895	58.00
0.53562	58.00
0.55228	58.00
0.56895	58.00
0.58562	58.00
0.60228	58.00
0.61895	58.00
0.63562	58.00
0.65228	58.00
0.66895	58.00
0.68562	58.00
0.70228	58.00
0.71895	58.00
0.73562	58.00
0.75228	58.00
0.76895	58.00
0.78562	58.00
0.80228	58.00
0.81895	58.00
0.83562	58.00
0.85228	58.00
0.86895	58.00
0.88562	58.00
0.90228	58.00
0.91895	58.00
0.93562	58.00
0.95228	58.00
0.96895	58.00
0.98562	58.00
1.00228	58.00
1.01895	58.00
1.03562	58.00
1.05228	58.00
1.06895	58.00
1.08562	58.00
1.10228	58.00
1.11895	58.00
1.13562	58.00
1.15228	58.00
1.16895	58.00
1.18562	58.00
1.20228	58.00
1.21895	58.00
1.23562	58.00
1.25228	58.00
1.26895	58.00
1.28562	58.00
1.30228	58.00
1.31895	58.00
1.33562	58.00
1.35228	58.00
1.36895	58.00
1.38562	58.00
1.40228	58.00
1.41895	58.00
1.43562	58.00
1.45228	58.00
1.46895	58.00
1.48562	58.00
1.50228	58.00
1.51895	58.00
1.53562	58.00
1.55228	58.00
1.56895	58.00
1.58562	58.00
1.60228	58.00
1.61895	58.00
1.63562	58.00
1.65228	58.00
1.66895	58.01
1.68562	58.01
1.70228	58.00
1.71895	58.00
1.73562	58.00
1.75228	58.00
1.76895	58.00
1.78562	58.00
1.80228	58.00
1.81895	58.00
1.83562	58.00
1.85228	58.00
1.86895	58.00
1.88562	58.00
1.90228	58.00
1.91895	58.00
1.93562	58.00
1.95228	58.00
1.96895	58.00
1.98562	58.00
2.00228	58.00
2.01895	58.00
2.03562	58.00
2.05228	58.00
2.06895	58.00
2.08562	58.00
2.10228	58.00
2.11895	58.00
2.13562	58.00
2.15228	58.00
2.16895	58.00
2.18562	58.00
2.20228	58.00
2.21895	58.00
2.23562	58.00
2.25228	58.00
2.26895	58.00
2.28562	58.00
2.30228	58.00
2.31895	58.00
2.33562	58.00
2.35228	58.00
2.36895	58.00
2.38562	57.99
2.40228	57.99
2.41895	58.00
2.43562	58.00
2.45228	58.00
2.46895	58.00
2.48562	58.00
2.50228	57.99
2.51895	58.02
2.53562	57.99
2.55228	58.00
2.56895	58.00
2.58562	58.00
2.60228	58.00
2.61895	58.00
2.63562	58.00
2.65228	58.00
2.66895	58.00
2.68562	58.00
2.70228	58.00
2.71895	58.00
2.73562	58.00
2.75228	58.00
2.76895	58.00
2.78562	58.00
2.80228	58.00
2.81895	58.00
2.83562	58.00
2.85228	58.00
2.86895	58.00
2.88562	58.00
2.90228	58.00
2.91895	58.00
2.93562	58.00
2.95228	58.00
2.96895	58.00
2.98562	58.00
3.00228	58.00
3.01895	58.00
3.03562	58.00
3.05228	58.00
3.06895	58.00
3.08562	58.00
3.10228	58.00
3.11895	58.00
3.13562	58.00
3.15228	58.00
3.16895	58.00
3.18562	58.00
3.20228	58.00
3.21895	58.00
3.23562	58.00
3.25228	58.00
3.26895	58.00
3.28562	58.00
3.30228	58.00
3.31895	58.00
3.33562	58.00
3.35228	58.00
3.36895	58.00
3.38562	58.00
3.40228	58.00
3.41895	58.00
3.43562	58.00
3.45228	58.00
3.46895	58.00
3.48562	58.00
3.50228	58.00
3.51895	58.00
3.53562	58.00
3.55228	58.00
3.56895	58.00
3.58562	58.00
3.60228	58.00
3.61895	58.00
3.63562	58.00
3.65228	58.00
3.66895	58.00
3.68562	58.00
3.70228	58.00
3.71895	58.00
3.73562	58.00
3.75228	58.00
3.76895	58.00
3.78562	58.00
3.80228	58.00
3.81895	58.00
3.83562	58.00
3.85228	58.00
3.86895	58.00
3.88562	58.00
3.90228	58.00
3.91895	58.00
3.93562	58.00
3.95228	58.00
3.96895	58.00
3.98562	58.00

[Status Trace (Carrier Gas Flow)]
Interval(msec)	1000
# of Points	240
Start Time(min)	0.002
End Time(min)	3.986
Intensity Units	
Intensity Multiplier	1
R.Time (min)	Intensity
0.00228	34.51
0.01895	34.59
0.03562	34.55
0.05228	34.55
0.06895	34.50
0.08562	34.52
0.10228	34.52
0.11895	34.52
0.13562	34.52
0.15228	34.52
0.16895	34.52
0.18562	34.52
0.20228	34.52
0.21895	34.52
0.23562	34.52
0.25228	34.52
0.26895	34.52
0.28562	34.52
0.30228	34.52
0.31895	34.52
0.33562	34.52
0.35228	34.52
0.36895	34.52
0.38562	34.52
0.40228	34.52
0.41895	34.52
0.43562	34.52
0.45228	34.52
0.46895	34.52
0.48562	34.52
0.50228	34.52
0.51895	34.52
0.53562	34.52
0.55228	34.53
0.56895	34.52
0.58562	34.52
0.60228	34.52
0.61895	34.52
0.63562	34.51
0.65228	34.52
0.66895	34.52
0.68562	34.52
0.70228	34.52
0.71895	34.52
0.73562	34.52
0.75228	34.52
0.76895	34.52
0.78562	34.52
0.80228	34.52
0.81895	34.52
0.83562	34.52
0.85228	34.52
0.86895	34.52
0.88562	34.52
0.90228	34.52
0.91895	34.51
0.93562	34.52
0.95228	34.52
0.96895	34.52
0.98562	34.52
1.00228	34.52
1.01895	34.53
1.03562	34.52
1.05228	34.53
1.06895	34.51
1.08562	34.52
1.10228	34.53
1.11895	34.50
1.13562	34.52
1.15228	34.52
1.16895	34.51
1.18562	34.52
1.20228	34.53
1.21895	34.52
1.23562	34.51
1.25228	34.52
1.26895	34.51
1.28562	34.53
1.30228	34.52
1.31895	34.51
1.33562	34.51
1.35228	34.52
1.36895	34.51
1.38562	34.52
1.40228	34.52
1.41895	34.52
1.43562	34.52
1.45228	34.52
1.46895	34.52
1.48562	34.52
1.50228	34.52
1.51895	34.52
1.53562	34.52
1.55228	34.52
1.56895	34.52
1.58562	34.52
1.60228	34.52
1.61895	34.52
1.63562	34.52
1.65228	34.52
1.66895	34.52
1.68562	34.52
1.70228	34.52
1.71895	34.52
1.73562	34.52
1.75228	34.52
1.76895	34.52
1.78562	34.52
1.80228	34.52
1.81895	34.52
1.83562	34.52
1.85228	34.52
1.86895	34.52
1.88562	34.52
1.90228	34.52
1.91895	34.52
1.93562	34.52
1.95228	34.52
1.96895	34.52
1.98562	34.52
2.00228	34.52
2.01895	34.52
2.03562	34.52
2.05228	34.52
2.06895	34.52
2.08562	34.52
2.10228	34.52
2.11895	34.52
2.13562	34.52
2.15228	34.52
2.16895	34.52
2.18562	34.52
2.20228	34.52
2.21895	34.52
2.23562	34.52
2.25228	34.51
2.26895	34.52
2.28562	34.52
2.30228	34.51
2.31895	34.52
2.33562	34.52
2.35228	34.52
2.36895	34.52
2.38562	34.52
2.40228	34.52
2.41895	34.52
2.43562	34.52
2.45228	34.52
2.46895	34.52
2.48562	34.52
2.50228	34.54
2.51895	34.52
2.53562	34.52
2.55228	34.52
2.56895	34.52
2.58562	34.52
2.60228	34.52
2.61895	34.52
2.63562	34.53
2.65228	34.52
2.66895	34.52
2.68562	34.52
2.70228	34.52
2.71895	34.52
2.73562	34.52
2.75228	34.52
2.76895	34.52
2.78562	34.52
2.80228	34.51
2.81895	34.52
2.83562	34.51
2.85228	34.52
2.86895	34.51
2.88562	34.52
2.90228	34.52
2.91895	34.52
2.93562	34.51
2.95228	34.52
2.96895	34.52
2.98562	34.52
3.00228	34.52
3.01895	34.52
3.03562	34.52
3.05228	34.52
3.06895	34.51
3.08562	34.52
3.10228	34.51
3.11895	34.52
3.13562	34.52
3.15228	34.52
3.16895	34.52
3.18562	34.53
3.20228	34.52
3.21895	34.52
3.23562	34.52
3.25228	34.52
3.26895	34.52
3.28562	34.52
3.30228	34.52
3.31895	34.52
3.33562	34.52
3.35228	34.52
3.36895	34.52
3.38562	34.52
3.40228	34.52
3.41895	34.52
3.43562	34.52
3.45228	34.52
3.46895	34.52
3.48562	34.52
3.50228	34.52
3.51895	34.52
3.53562	34.52
3.55228	34.52
3.56895	34.52
3.58562	34.52
3.60228	34.52
3.61895	34.52
3.63562	34.52
3.65228	34.52
3.66895	34.52
3.68562	34.52
3.70228	34.52
3.71895	34.52
3.73562	34.52
3.75228	34.52
3.76895	34.52
3.78562	34.52
3.80228	34.52
3.81895	34.52
3.83562	34.52
3.85228	34.52
3.86895	34.52
3.88562	34.52
3.90228	34.52
3.91895	34.52
3.93562	34.52
3.95228	34.52
3.96895	34.52
3.98562	34.52

[Status Trace (Column Flow)]
Interval(msec)	1000
# of Points	240
Start Time(min)	0.002
End Time(min)	3.986
Intensity Units	
Intensity Multiplier	1
R.Time (min)	Intensity
0.00228	5.57
0.01895	5.38
0.03562	5.38
0.05228	5.64
0.06895	5.79
0.08562	5.61
0.10228	5.57
0.11895	5.58
0.13562	5.58
0.15228	5.58
0.16895	5.58
0.18562	5.58
0.20228	5.57
0.21895	5.57
0.23562	5.57
0.25228	5.58
0.26895	5.58
0.28562	5.58
0.30228	5.58
0.31895	5.58
0.33562	5.58
0.35228	5.58
0.36895	5.58
0.38562	5.58
0.40228	5.58
0.41895	5.58
0.43562	5.58
0.45228	5.58
0.46895	5.58
0.48562	5.58
0.50228	5.58
0.51895	5.58
0.53562	5.58
0.55228	5.58
0.56895	5.58
0.58562	5.58
0.60228	5.58
0.61895	5.58
0.63562	5.58
0.65228	5.58
0.66895	5.58
0.68562	5.58
0.70228	5.58
0.71895	5.58
0.73562	5.58
0.75228	5.58
0.76895	5.58
0.78562	5.58
0.80228	5.58
0.81895	5.58
0.83562	5.58
0.85228	5.58
0.86895	5.58
0.88562	5.58
0.90228	5.58
0.91895	5.58
0.93562	5.58
0.95228	5.58
0.96895	5.58
0.98562	5.58
1.00228	5.58
1.01895	5.58
1.03562	5.58
1.05228	5.58
1.06895	5.58
1.08562	5.58
1.10228	5.58
1.11895	5.58
1.13562	5.58
1.15228	5.58
1.16895	5.58
1.18562	5.58
1.20228	5.58
1.21895	5.58
1.23562	5.58
1.25228	5.58
1.26895	5.58
1.28562	5.58
1.30228	5.58
1.31895	5.58
1.33562	5.58
1.35228	5.58
1.36895	5.58
1.38562	5.58
1.40228	5.58
1.41895	5.58
1.43562	5.58
1.45228	5.58
1.46895	5.58
1.48562	5.58
1.50228	5.58
1.51895	5.58
1.53562	5.58
1.55228	5.58
1.56895	5.58
1.58562	5.58
1.60228	5.58
1.61895	5.57
1.63562	5.57
1.65228	5.56
1.66895	5.55
1.68562	5.54
1.70228	5.53
1.71895	5.52
1.73562	5.51
1.75228	5.50
1.76895	5.49
1.78562	5.48
1.80228	5.47
1.81895	5.45
1.83562	5.44
1.85228	5.43
1.86895	5.42
1.88562	5.41
1.90228	5.40
1.91895	5.39
1.93562	5.38
1.95228	5.38
1.96895	5.37
1.98562	5.36
2.00228	5.35
2.01895	5.34
2.03562	5.33
2.05228	5.32
2.06895	5.31
2.08562	5.30
2.10228	5.29
2.11895	5.28
2.13562	5.27
2.15228	5.26
2.16895	5.25
2.18562	5.24
2.20228	5.23
2.21895	5.22
2.23562	5.21
2.25228	5.20
2.26895	5.19
2.28562	5.18
2.30228	5.18
2.31895	5.17
2.33562	5.15
2.35228	5.15
2.36895	5.14
2.38562	5.14
2.40228	5.14
2.41895	5.14
2.43562	5.14
2.45228	5.14
2.46895	5.14
2.48562	5.14
2.50228	5.14
2.51895	5.14
2.53562	5.13
2.55228	5.14
2.56895	5.14
2.58562	5.13
2.60228	5.13
2.61895	5.13
2.63562	5.13
2.65228	5.13
2.66895	5.13
2.68562	5.13
2.70228	5.13
2.71895	5.13
2.73562	5.13
2.75228	5.13
2.76895	5.13
2.78562	5.13
2.80228	5.13
2.81895	5.13
2.83562	5.13
2.85228	5.13
2.86895	5.13
2.88562	5.13
2.90228	5.13
2.91895	5.13
2.93562	5.13
2.95228	5.13
2.96895	5.13
2.98562	5.13
3.00228	5.13
3.01895	5.13
3.03562	5.13
3.05228	5.13
3.06895	5.13
3.08562	5.13
3.10228	5.13
3.11895	5.13
3.13562	5.13
3.15228	5.13
3.16895	5.13
3.18562	5.13
3.20228	5.13
3.21895	5.13
3.23562	5.13
3.25228	5.13
3.26895	5.13
3.28562	5.13
3.30228	5.13
3.31895	5.13
3.33562	5.13
3.35228	5.13
3.36895	5.13
3.38562	5.13
3.40228	5.13
3.41895	5.13
3.43562	5.13
3.45228	5.13
3.46895	5.13
3.48562	5.13
3.50228	5.13
3.51895	5.13
3.53562	5.13
3.55228	5.13
3.56895	5.13
3.58562	5.13
3.60228	5.13
3.61895	5.13
3.63562	5.13
3.65228	5.13
3.66895	5.13
3.68562	5.13
3.70228	5.13
3.71895	5.13
3.73562	5.13
3.75228	5.13
3.76895	5.13
3.78562	5.13
3.80228	5.13
3.81895	5.13
3.83562	5.13
3.85228	5.13
3.86895	5.13
3.88562	5.13
3.90228	5.13
3.91895	5.13
3.93562	5.13
3.95228	5.13
3.96895	5.13
3.98562	5.13

[Status Trace (Linear Velocity)]
Interval(msec)	1000
# of Points	240
Start Time(min)	0.002
End Time(min)	3.986
Intensity Units	
Intensity Multiplier	1
R.Time (min)	Intensity
0.00228	39.02
0.01895	37.91
0.03562	37.95
0.05228	39.37
0.06895	40.24
0.08562	39.20
0.10228	39.00
0.11895	39.03
0.13562	39.03
0.15228	39.03
0.16895	39.03
0.18562	39.03
0.20228	39.03
0.21895	39.02
0.23562	39.02
0.25228	39.03
0.26895	39.03
0.28562	39.03
0.30228	39.03
0.31895	39.03
0.33562	39.03
0.35228	39.02
0.36895	39.03
0.38562	39.03
0.40228	39.03
0.41895	39.03
0.43562	39.03
0.45228	39.03
0.46895	39.03
0.48562	39.03
0.50228	39.03
0.51895	39.03
0.53562	39.03
0.55228	39.03
0.56895	39.03
0.58562	39.03
0.60228	39.03
0.61895	39.03
0.63562	39.03
0.65228	39.03
0.66895	39.03
0.68562	39.03
0.70228	39.03
0.71895	39.03
0.73562	39.03
0.75228	39.03
0.76895	39.03
0.78562	39.03
0.80228	39.03
0.81895	39.03
0.83562	39.03
0.85228	39.03
0.86895	39.03
0.88562	39.03
0.90228	39.03
0.91895	39.03
0.93562	39.03
0.95228	39.03
0.96895	39.03
0.98562	39.03
1.00228	39.03
1.01895	39.03
1.03562	39.03
1.05228	39.03
1.06895	39.03
1.08562	39.03
1.10228	39.03
1.11895	39.03
1.13562	39.03
1.15228	39.03
1.16895	39.03
1.18562	39.03
1.20228	39.03
1.21895	39.03
1.23562	39.03
1.25228	39.03
1.26895	39.03
1.28562	39.03
1.30228	39.03
1.31895	39.03
1.33562	39.03
1.35228	39.03
1.36895	39.03
1.38562	39.03
1.40228	39.03
1.41895	39.03
1.43562	39.03
1.45228	39.03
1.46895	39.03
1.48562	39.03
1.50228	39.03
1.51895	39.03
1.53562	39.03
1.55228	39.03
1.56895	39.03
1.58562	39.03
1.60228	39.03
1.61895	39.02
1.63562	39.00
1.65228	38.98
1.66895	38.95
1.68562	38.92
1.70228	38.88
1.71895	38.85
1.73562	38.81
1.75228	38.79
1.76895	38.76
1.78562	38.72
1.80228	38.69
1.81895	38.66
1.83562	38.63
1.85228	38.60
1.86895	38.57
1.88562	38.54
1.90228	38.51
1.91895	38.47
1.93562	38.44
1.95228	38.42
1.96895	38.38
1.98562	38.35
2.00228	38.33
2.01895	38.29
2.03562	38.26
2.05228	38.24
2.06895	38.20
2.08562	38.17
2.10228	38.15
2.11895	38.11
2.13562	38.09
2.15228	38.06
2.16895	38.03
2.18562	38.00
2.20228	37.97
2.21895	37.94
2.23562	37.91
2.25228	37.88
2.26895	37.85
2.28562	37.82
2.30228	37.79
2.31895	37.76
2.33562	37.73
2.35228	37.70
2.36895	37.68
2.38562	37.67
2.40228	37.67
2.41895	37.67
2.43562	37.67
2.45228	37.67
2.46895	37.67
2.48562	37.67
2.50228	37.67
2.51895	37.68
2.53562	37.66
2.55228	37.67
2.56895	37.66
2.58562	37.66
2.60228	37.66
2.61895	37.66
2.63562	37.66
2.65228	37.66
2.66895	37.66
2.68562	37.66
2.70228	37.66
2.71895	37.66
2.73562	37.66
2.75228	37.66
2.76895	37.66
2.78562	37.66
2.80228	37.66
2.81895	37.66
2.83562	37.66
2.85228	37.65
2.86895	37.65
2.88562	37.65
2.90228	37.65
2.91895	37.65
2.93562	37.65
2.95228	37.65
2.96895	37.65
2.98562	37.65
3.00228	37.65
3.01895	37.65
3.03562	37.65
3.05228	37.64
3.06895	37.64
3.08562	37.64
3.10228	37.64
3.11895	37.64
3.13562	37.64
3.15228	37.64
3.16895	37.64
3.18562	37.64
3.20228	37.64
3.21895	37.64
3.23562	37.64
3.25228	37.64
3.26895	37.64
3.28562	37.64
3.30228	37.64
3.31895	37.64
3.33562	37.64
3.35228	37.64
3.36895	37.64
3.38562	37.64
3.40228	37.64
3.41895	37.64
3.43562	37.64
3.45228	37.64
3.46895	37.64
3.48562	37.64
3.50228	37.64
3.51895	37.64
3.53562	37.64
3.55228	37.64
3.56895	37.64
3.58562	37.64
3.60228	37.64
3.61895	37.64
3.63562	37.64
3.65228	37.64
3.66895	37.64
3.68562	37.64
3.70228	37.64
3.71895	37.64
3.73562	37.64
3.75228	37.64
3.76895	37.64
3.78562	37.64
3.80228	37.64
3.81895	37.64
3.83562	37.64
3.85228	37.64
3.86895	37.64
3.88562	37.64
3.90228	37.64
3.91895	37.64
3.93562	37.64
3.95228	37.64
3.96895	37.64
3.98562	37.64

