[Header]
Application Name	LabSolutions
Version	5.110
Data File Name	C:\Users\User\Desktop\GC Analyses\Jack\Nachusa Grasslands Sampling\T0 Timepoint July 12th\T0_07122022_023.gcd
Output Date	3/14/2023
Output Time	3:40:35 PM

[File Information]
Type	Data File
Generated	3/7/2023 4:14:45 PM
Generated by	System Administrator
Modified	3/7/2023 4:21:23 PM
Modified by	System Administrator

[Sample Information]
Operator Name	System Administrator
Acquired	3/7/2023 4:17:22 PM
Sample Type	0:Unknown
Level	0
Sample Name	023
Sample ID	023
ISTD Amount1	1
ISTD Amount2	1
ISTD Amount3	1
ISTD Amount4	1
ISTD Amount5	1
ISTD Amount6	1
ISTD Amount7	1
ISTD Amount8	1
ISTD Amount9	1
ISTD Amount10	1
ISTD Amount11	1
ISTD Amount12	1
ISTD Amount13	1
ISTD Amount14	1
ISTD Amount15	1
ISTD Amount16	1
ISTD Amount17	1
ISTD Amount18	1
ISTD Amount19	1
ISTD Amount20	1
ISTD Amount21	1
ISTD Amount22	1
ISTD Amount23	1
ISTD Amount24	1
ISTD Amount25	1
ISTD Amount26	1
ISTD Amount27	1
ISTD Amount28	1
ISTD Amount29	1
ISTD Amount30	1
ISTD Amount31	1
ISTD Amount32	1
Sample Amount	1
Dilution Factor	1
Vial#	22
Injection Volume	1
Injection Count	1
Bar Code	

[Original Files]
Data File	C:\Users\User\Desktop\GC Analyses\Jack\Nachusa Grasslands Sampling\T0 Timepoint July 12th\T0_07122022_023.gcd
Method File	C:\LabSolutions\Data\GHG_4min_2022\ghg3_togas_w_acet_4 min_new_int.gcm
Batch File	C:\LabSolutions\Data\AutoSamplerTesting\T0_07122022.gcb
Report Format File	c:\LabSolutions\System\DEFAULT.lsr

[File Description]


[Configuration]
Instrument Name	C0B7VH3-Instrument1
Instrument #	1
Line #	1
# of Detectors	3
Detector ID	DET#1	DET#2	DET#3
Detector Name	FID	PTCD	ECD
# of Channels	1	1	1

[Peak Table(Ch1)]
# of Peaks	3
Peak#	R.Time	I.Time	F.Time	Area	Height	A/H	Conc.	Mark	ID#	Name	k'	Plate #	Plate Ht.	Tailing	Resolution	Sep.Factor	Area Ratio	Height Ratio	Conc. %	Norm Conc.
1	1.483	1.432	1.531	2450	686	3.572	17.295	   	1	CO	0.000	4276	35.080	0.000	0.000	0.000	0	0	1.799	1.799
2	1.567	1.531	1.648	21063	10479	2.010	407.263	 V 	2	CH4	0.057	11240	13.345	1.271	1.126	0.000	0	0	42.357	42.357
3	1.996	1.949	2.594	2139488	1004429	2.130	536.954	   	3	CO2	0.346	17053	8.796	1.301	7.133	6.087	0	0	55.845	55.845

[Peak Table(Ch2)]
# of Peaks	0

[Peak Table(Ch3)]
# of Peaks	4
Peak#	R.Time	I.Time	F.Time	Area	Height	A/H	Conc.	Mark	ID#	Name	k'	Plate #	Plate Ht.	Tailing	Resolution	Sep.Factor	Area Ratio	Height Ratio	Conc. %	Norm Conc.
1	2.462	2.271	2.521	1903	374	5.093	0.000	   			0.000	4245	35.336	0.000	0.000	0.000	0	0	0.000	0.000
2	2.550	2.521	2.638	1291	252	5.128	0.000	 V 			0.036	1846	81.255	0.000	0.453	0.000	0	0	0.000	0.000
3	2.873	2.649	3.221	61712	15284	4.038	1.576	   	1	N2O	0.167	12592	11.912	1.644	1.899	4.667	0	0	100.000	100.000
4	3.349	3.228	3.995	12445	555	22.424	0.000	   	2	SF6	0.360	406	369.775	3.038	1.242	2.161	0	0	0.000	0.000

[Compound Results(Ch1)]
# of IDs	6
ID#	Name	R.Time	Area	Height	Conc.	Curve	3rd	2nd	1st	Constant	Area Ratio	Height Ratio	Conc. %	Norm Conc.
1	CO	1.483	2450	686	17.295	Linear	0.000000e+00	0.000000e+00	1.416423e+002	0.000000e+00	0	0	1.799	1.799
2	CH4	1.567	21063	10479	407.263	Linear	0.000000e+00	0.000000e+00	5.171738e+001	0.000000e+00	0	0	42.357	42.357
3	CO2	1.996	2139488	1004429	536.954	Linear	0.000000e+00	0.000000e+00	3.984494e+003	0.000000e+00	0	0	55.845	55.845
4	Ethylene	0.000	0	0	0.000	Linear	0.000000e+00	0.000000e+00	0.000000e+00	0.000000e+00	0	0	0.000	0.000
5	Acetylene	0.000	0	0	0.000	Linear	0.000000e+00	0.000000e+00	0.000000e+00	0.000000e+00	0	0	0.000	0.000
6	Ethane	0.000	0	0	0.000	Linear	0.000000e+00	0.000000e+00	0.000000e+00	0.000000e+00	0	0	0.000	0.000

[Compound Results(Ch2)]
# of IDs	5
ID#	Name	R.Time	Area	Height	Conc.	Curve	3rd	2nd	1st	Constant	Area Ratio	Height Ratio	Conc. %	Norm Conc.
1	Hydrogen	0.000	0	0	0.000	Linear	0.000000e+00	0.000000e+00	0.000000e+00	0.000000e+00	0	0	0.000	0.000
2	Oxygen	0.000	0	0	0.000	Linear	0.000000e+00	0.000000e+00	0.000000e+00	0.000000e+00	0	0	0.000	0.000
3	Nitrogen	0.000	0	0	0.000	Linear	0.000000e+00	0.000000e+00	0.000000e+00	0.000000e+00	0	0	0.000	0.000
4	Methane	0.000	0	0	0.000	Linear	0.000000e+00	0.000000e+00	0.000000e+00	0.000000e+00	0	0	0.000	0.000
5	Carbon Monoxide	0.000	0	0	0.000	Linear	0.000000e+00	0.000000e+00	0.000000e+00	0.000000e+00	0	0	0.000	0.000

[Compound Results(Ch3)]
# of IDs	2
ID#	Name	R.Time	Area	Height	Conc.	Curve	3rd	2nd	1st	Constant	Area Ratio	Height Ratio	Conc. %	Norm Conc.
1	N2O	2.873	61712	15284	1.576	Linear	0.000000e+00	0.000000e+00	3.915173e+004	0.000000e+00	0	0	100.000	100.000
2	SF6	3.349	12445	555	0.000	Linear	0.000000e+00	0.000000e+00	0.000000e+00	0.000000e+00	0	0	0.000	0.000

[Group Results(Ch1)]
# of Groups	0

[Group Results(Ch2)]
# of Groups	0

[Group Results(Ch3)]
# of Groups	0

[Chromatogram (Ch1)]
Interval(msec)	220
# of Points	1091
Start Time(min)	0.002
End Time(min)	3.998
R.Time (min)	Intensity
0.00167	-6
0.00533	-12
0.00900	-17
0.01267	-17
0.01633	-16
0.02000	-17
0.02367	-18
0.02733	-19
0.03100	-20
0.03467	-20
0.03833	-19
0.04200	-16
0.04567	-12
0.04933	-11
0.05300	-15
0.05667	-21
0.06033	-26
0.06400	-27
0.06767	-24
0.07133	-21
0.07500	-18
0.07867	-12
0.08233	-5
0.08600	-3
0.08967	-2
0.09333	-1
0.09700	-1
0.10067	-1
0.10433	-3
0.10800	-8
0.11167	-14
0.11533	-18
0.11900	-16
0.12267	-10
0.12633	-10
0.13000	-16
0.13367	-23
0.13733	-26
0.14100	-28
0.14467	-28
0.14833	-27
0.15200	-27
0.15567	-26
0.15933	-22
0.16300	-15
0.16667	-8
0.17033	-1
0.17400	6
0.17767	11
0.18133	13
0.18500	13
0.18867	14
0.19233	15
0.19600	14
0.19967	6
0.20333	-6
0.20700	-16
0.21067	-23
0.21433	-24
0.21800	-22
0.22167	-21
0.22533	-21
0.22900	-19
0.23267	-15
0.23633	-10
0.24000	-5
0.24367	-1
0.24733	2
0.25100	1
0.25467	-2
0.25833	-6
0.26200	-9
0.26567	-10
0.26933	-12
0.27300	-15
0.27667	-18
0.28033	-21
0.28400	-20
0.28767	-16
0.29133	-11
0.29500	-7
0.29867	-7
0.30233	-10
0.30600	-10
0.30967	-5
0.31333	2
0.31700	10
0.32067	17
0.32433	20
0.32800	23
0.33167	26
0.33533	32
0.33900	37
0.34267	44
0.34633	51
0.35000	55
0.35367	50
0.35733	44
0.36100	37
0.36467	29
0.36833	23
0.37200	19
0.37567	15
0.37933	9
0.38300	3
0.38667	-1
0.39033	0
0.39400	7
0.39767	15
0.40133	22
0.40500	26
0.40867	23
0.41233	16
0.41600	8
0.41967	1
0.42333	-7
0.42700	-17
0.43067	-21
0.43433	-23
0.43800	-22
0.44167	-17
0.44533	-9
0.44900	-5
0.45267	-4
0.45633	-5
0.46000	-11
0.46367	-20
0.46733	-27
0.47100	-27
0.47467	-23
0.47833	-19
0.48200	-20
0.48567	-24
0.48933	-23
0.49300	-18
0.49667	-15
0.50033	-18
0.50400	-23
0.50767	-27
0.51133	-25
0.51500	-19
0.51867	-13
0.52233	-10
0.52600	-16
0.52967	-30
0.53333	-45
0.53700	-54
0.54067	-57
0.54433	-55
0.54800	-52
0.55167	-48
0.55533	-44
0.55900	-39
0.56267	-33
0.56633	-28
0.57000	-24
0.57367	-23
0.57733	-22
0.58100	-22
0.58467	-24
0.58833	-26
0.59200	-26
0.59567	-29
0.59933	-33
0.60300	-40
0.60667	-43
0.61033	-48
0.61400	-51
0.61767	-49
0.62133	-44
0.62500	-41
0.62867	-39
0.63233	-35
0.63600	-30
0.63967	-32
0.64333	-38
0.64700	-37
0.65067	-35
0.65433	-34
0.65800	-35
0.66167	-36
0.66533	-34
0.66900	-30
0.67267	-27
0.67633	-28
0.68000	-28
0.68367	-26
0.68733	-24
0.69100	-24
0.69467	-25
0.69833	-29
0.70200	-34
0.70567	-41
0.70933	-48
0.71300	-54
0.71667	-58
0.72033	-55
0.72400	-52
0.72767	-53
0.73133	-53
0.73500	-52
0.73867	-50
0.74233	-47
0.74600	-43
0.74967	-41
0.75333	-39
0.75700	-41
0.76067	-45
0.76433	-50
0.76800	-49
0.77167	-44
0.77533	-41
0.77900	-39
0.78267	-35
0.78633	-33
0.79000	-32
0.79367	-34
0.79733	-39
0.80100	-46
0.80467	-52
0.80833	-55
0.81200	-57
0.81567	-57
0.81933	-56
0.82300	-59
0.82667	-58
0.83033	-50
0.83400	-44
0.83767	-42
0.84133	-44
0.84500	-45
0.84867	-43
0.85233	-43
0.85600	-39
0.85967	-30
0.86333	-24
0.86700	-18
0.87067	-19
0.87433	-25
0.87800	-33
0.88167	-40
0.88533	-50
0.88900	-57
0.89267	-61
0.89633	-65
0.90000	-69
0.90367	-72
0.90733	-73
0.91100	-71
0.91467	-66
0.91833	-58
0.92200	-52
0.92567	-47
0.92933	-42
0.93300	-36
0.93667	-30
0.94033	-29
0.94400	-32
0.94767	-39
0.95133	-47
0.95500	-55
0.95867	-58
0.96233	-56
0.96600	-54
0.96967	-53
0.97333	-55
0.97700	-58
0.98067	-59
0.98433	-57
0.98800	-56
0.99167	-54
0.99533	-50
0.99900	-47
1.00267	-42
1.00633	-37
1.01000	-35
1.01367	-37
1.01733	-42
1.02100	-48
1.02467	-55
1.02833	-62
1.03200	-65
1.03567	-65
1.03933	-65
1.04300	-66
1.04667	-67
1.05033	-70
1.05400	-70
1.05767	-71
1.06133	-71
1.06500	-71
1.06867	-72
1.07233	-73
1.07600	-75
1.07967	-75
1.08333	-71
1.08700	-64
1.09067	-57
1.09433	-52
1.09800	-51
1.10167	-55
1.10533	-60
1.10900	-65
1.11267	-69
1.11633	-70
1.12000	-65
1.12367	-61
1.12733	-63
1.13100	-68
1.13467	-70
1.13833	-69
1.14200	-67
1.14567	-65
1.14933	-66
1.15300	-67
1.15667	-65
1.16033	-65
1.16400	-70
1.16767	-74
1.17133	-73
1.17500	-67
1.17867	-62
1.18233	-58
1.18600	-57
1.18967	-59
1.19333	-61
1.19700	-60
1.20067	-61
1.20433	-61
1.20800	-54
1.21167	-46
1.21533	-43
1.21900	-47
1.22267	-54
1.22633	-61
1.23000	-67
1.23367	-71
1.23733	-74
1.24100	-75
1.24467	-76
1.24833	-74
1.25200	-72
1.25567	-71
1.25933	-68
1.26300	-65
1.26667	-66
1.27033	-68
1.27400	-65
1.27767	-58
1.28133	-55
1.28500	-51
1.28867	-48
1.29233	-44
1.29600	-45
1.29967	-50
1.30333	-56
1.30700	-60
1.31067	-60
1.31433	-56
1.31800	-51
1.32167	-45
1.32533	-41
1.32900	-41
1.33267	-44
1.33633	-44
1.34000	-42
1.34367	-37
1.34733	-34
1.35100	-36
1.35467	-38
1.35833	-39
1.36200	-40
1.36567	-41
1.36933	-41
1.37300	-40
1.37667	-39
1.38033	-35
1.38400	-30
1.38767	-27
1.39133	-28
1.39500	-33
1.39867	-42
1.40233	-48
1.40600	-54
1.40967	-61
1.41333	-66
1.41700	-68
1.42067	-70
1.42433	-69
1.42800	-65
1.43167	-56
1.43533	-45
1.43900	-21
1.44267	62
1.44633	220
1.45000	386
1.45367	505
1.45733	570
1.46100	593
1.46467	595
1.46833	592
1.47200	593
1.47567	606
1.47933	627
1.48300	639
1.48667	630
1.49033	598
1.49400	544
1.49767	475
1.50133	401
1.50500	328
1.50867	259
1.51233	201
1.51600	157
1.51967	127
1.52333	106
1.52700	93
1.53067	84
1.53433	88
1.53800	153
1.54167	456
1.54533	1298
1.54900	2828
1.55267	4817
1.55633	6831
1.56000	8535
1.56367	9772
1.56733	10447
1.57100	10421
1.57467	9619
1.57833	8189
1.58200	6470
1.58567	4809
1.58933	3416
1.59300	2348
1.59667	1577
1.60033	1042
1.60400	678
1.60767	435
1.61133	274
1.61500	169
1.61867	96
1.62233	47
1.62600	19
1.62967	2
1.63333	-8
1.63700	-12
1.64067	-16
1.64433	-18
1.64800	-19
1.65167	-21
1.65533	-24
1.65900	-29
1.66267	-34
1.66633	-38
1.67000	-40
1.67367	-41
1.67733	-42
1.68100	-38
1.68467	-34
1.68833	-35
1.69200	-40
1.69567	-46
1.69933	-50
1.70300	-48
1.70667	-44
1.71033	-42
1.71400	-41
1.71767	-41
1.72133	-37
1.72500	-32
1.72867	-33
1.73233	-40
1.73600	-46
1.73967	-49
1.74333	-51
1.74700	-52
1.75067	-49
1.75433	-44
1.75800	-40
1.76167	-41
1.76533	-46
1.76900	-51
1.77267	-55
1.77633	-56
1.78000	-55
1.78367	-53
1.78733	-53
1.79100	-56
1.79467	-59
1.79833	-57
1.80200	-49
1.80567	-42
1.80933	-36
1.81300	-31
1.81667	-27
1.82033	-28
1.82400	-33
1.82767	-37
1.83133	-42
1.83500	-46
1.83867	-50
1.84233	-50
1.84600	-51
1.84967	-51
1.85333	-49
1.85700	-44
1.86067	-42
1.86433	-43
1.86800	-44
1.87167	-43
1.87533	-43
1.87900	-39
1.88267	-33
1.88633	-29
1.89000	-27
1.89367	-31
1.89733	-38
1.90100	-45
1.90467	-52
1.90833	-55
1.91200	-53
1.91567	-46
1.91933	-40
1.92300	-34
1.92667	-30
1.93033	-26
1.93400	-26
1.93767	-26
1.94133	-26
1.94500	-26
1.94867	-23
1.95233	2
1.95600	178
1.95967	1213
1.96333	5933
1.96700	22237
1.97067	65365
1.97433	153593
1.97800	294816
1.98167	475561
1.98533	665578
1.98900	832202
1.99267	950366
1.99633	1004439
2.00000	988638
2.00367	909036
2.00733	783363
2.01100	636073
2.01467	490571
2.01833	363135
2.02200	260966
2.02567	184159
2.02933	128976
2.03300	90520
2.03667	64221
2.04033	46403
2.04400	34351
2.04767	26157
2.05133	20521
2.05500	16581
2.05867	13768
2.06233	11715
2.06600	10171
2.06967	8977
2.07333	8034
2.07700	7271
2.08067	6639
2.08433	6104
2.08800	5640
2.09167	5238
2.09533	4887
2.09900	4582
2.10267	4315
2.10633	4077
2.11000	3864
2.11367	3671
2.11733	3499
2.12100	3343
2.12467	3200
2.12833	3067
2.13200	2942
2.13567	2826
2.13933	2717
2.14300	2615
2.14667	2519
2.15033	2423
2.15400	2330
2.15767	2241
2.16133	2159
2.16500	2083
2.16867	2015
2.17233	1957
2.17600	1904
2.17967	1852
2.18333	1801
2.18700	1755
2.19067	1710
2.19433	1668
2.19800	1630
2.20167	1595
2.20533	1563
2.20900	1530
2.21267	1496
2.21633	1454
2.22000	1410
2.22367	1368
2.22733	1326
2.23100	1286
2.23467	1251
2.23833	1223
2.24200	1199
2.24567	1176
2.24933	1156
2.25300	1134
2.25667	1114
2.26033	1097
2.26400	1084
2.26767	1070
2.27133	1051
2.27500	1030
2.27867	1012
2.28233	995
2.28600	980
2.28967	968
2.29333	958
2.29700	949
2.30067	937
2.30433	919
2.30800	897
2.31167	878
2.31533	861
2.31900	846
2.32267	832
2.32633	820
2.33000	810
2.33367	798
2.33733	787
2.34100	779
2.34467	772
2.34833	764
2.35200	757
2.35567	750
2.35933	741
2.36300	729
2.36667	721
2.37033	716
2.37400	710
2.37767	701
2.38133	690
2.38500	677
2.38867	665
2.39233	654
2.39600	645
2.39967	640
2.40333	641
2.40700	643
2.41067	641
2.41433	638
2.41800	636
2.42167	635
2.42533	633
2.42900	627
2.43267	623
2.43633	619
2.44000	609
2.44367	599
2.44733	591
2.45100	582
2.45467	569
2.45833	557
2.46200	551
2.46567	545
2.46933	536
2.47300	526
2.47667	518
2.48033	512
2.48400	507
2.48767	504
2.49133	507
2.49500	513
2.49867	517
2.50233	520
2.50600	522
2.50967	519
2.51333	512
2.51700	506
2.52067	499
2.52433	490
2.52800	485
2.53167	485
2.53533	485
2.53900	481
2.54267	477
2.54633	479
2.55000	476
2.55367	469
2.55733	463
2.56100	458
2.56467	454
2.56833	449
2.57200	446
2.57567	446
2.57933	444
2.58300	437
2.58667	430
2.59033	425
2.59400	421
2.59767	419
2.60133	418
2.60500	418
2.60867	418
2.61233	420
2.61600	425
2.61967	428
2.62333	429
2.62700	427
2.63067	424
2.63433	421
2.63800	418
2.64167	417
2.64533	419
2.64900	420
2.65267	423
2.65633	423
2.66000	420
2.66367	419
2.66733	422
2.67100	423
2.67467	419
2.67833	411
2.68200	405
2.68567	401
2.68933	397
2.69300	391
2.69667	386
2.70033	383
2.70400	381
2.70767	383
2.71133	384
2.71500	383
2.71867	382
2.72233	381
2.72600	378
2.72967	374
2.73333	368
2.73700	364
2.74067	362
2.74433	362
2.74800	363
2.75167	365
2.75533	367
2.75900	367
2.76267	364
2.76633	360
2.77000	358
2.77367	356
2.77733	356
2.78100	358
2.78467	362
2.78833	370
2.79200	381
2.79567	387
2.79933	388
2.80300	385
2.80667	380
2.81033	374
2.81400	368
2.81767	366
2.82133	366
2.82500	366
2.82867	365
2.83233	363
2.83600	358
2.83967	352
2.84333	348
2.84700	350
2.85067	352
2.85433	354
2.85800	357
2.86167	358
2.86533	357
2.86900	355
2.87267	355
2.87633	358
2.88000	362
2.88367	368
2.88733	376
2.89100	381
2.89467	379
2.89833	373
2.90200	366
2.90567	361
2.90933	357
2.91300	353
2.91667	348
2.92033	342
2.92400	339
2.92767	337
2.93133	338
2.93500	337
2.93867	337
2.94233	339
2.94600	342
2.94967	344
2.95333	345
2.95700	346
2.96067	350
2.96433	356
2.96800	361
2.97167	366
2.97533	371
2.97900	375
2.98267	377
2.98633	373
2.99000	363
2.99367	352
2.99733	345
3.00100	346
3.00467	355
3.00833	367
3.01200	371
3.01567	369
3.01933	366
3.02300	360
3.02667	352
3.03033	344
3.03400	335
3.03767	327
3.04133	323
3.04500	326
3.04867	331
3.05233	335
3.05600	335
3.05967	332
3.06333	331
3.06700	331
3.07067	332
3.07433	331
3.07800	333
3.08167	339
3.08533	343
3.08900	342
3.09267	337
3.09633	336
3.10000	337
3.10367	338
3.10733	341
3.11100	346
3.11467	352
3.11833	356
3.12200	359
3.12567	360
3.12933	360
3.13300	356
3.13667	349
3.14033	341
3.14400	331
3.14767	320
3.15133	311
3.15500	308
3.15867	309
3.16233	313
3.16600	317
3.16967	324
3.17333	329
3.17700	332
3.18067	334
3.18433	333
3.18800	332
3.19167	329
3.19533	325
3.19900	321
3.20267	318
3.20633	314
3.21000	312
3.21367	315
3.21733	318
3.22100	322
3.22467	326
3.22833	326
3.23200	319
3.23567	311
3.23933	305
3.24300	301
3.24667	300
3.25033	300
3.25400	298
3.25767	294
3.26133	292
3.26500	292
3.26867	291
3.27233	294
3.27600	301
3.27967	304
3.28333	307
3.28700	312
3.29067	315
3.29433	316
3.29800	316
3.30167	315
3.30533	315
3.30900	316
3.31267	313
3.31633	309
3.32000	306
3.32367	304
3.32733	303
3.33100	301
3.33467	300
3.33833	302
3.34200	307
3.34567	311
3.34933	313
3.35300	308
3.35667	298
3.36033	289
3.36400	286
3.36767	288
3.37133	288
3.37500	288
3.37867	287
3.38233	291
3.38600	300
3.38967	309
3.39333	318
3.39700	319
3.40067	315
3.40433	306
3.40800	297
3.41167	289
3.41533	283
3.41900	282
3.42267	284
3.42633	284
3.43000	281
3.43367	281
3.43733	284
3.44100	286
3.44467	285
3.44833	283
3.45200	278
3.45567	273
3.45933	268
3.46300	271
3.46667	279
3.47033	285
3.47400	286
3.47767	284
3.48133	283
3.48500	280
3.48867	278
3.49233	279
3.49600	277
3.49967	270
3.50333	261
3.50700	256
3.51067	258
3.51433	260
3.51800	262
3.52167	264
3.52533	268
3.52900	273
3.53267	274
3.53633	272
3.54000	270
3.54367	270
3.54733	271
3.55100	270
3.55467	267
3.55833	264
3.56200	261
3.56567	256
3.56933	252
3.57300	249
3.57667	249
3.58033	252
3.58400	251
3.58767	246
3.59133	241
3.59500	239
3.59867	240
3.60233	240
3.60600	238
3.60967	238
3.61333	240
3.61700	243
3.62067	244
3.62433	241
3.62800	238
3.63167	234
3.63533	230
3.63900	228
3.64267	229
3.64633	233
3.65000	235
3.65367	235
3.65733	236
3.66100	239
3.66467	241
3.66833	241
3.67200	240
3.67567	239
3.67933	239
3.68300	243
3.68667	249
3.69033	256
3.69400	259
3.69767	257
3.70133	251
3.70500	247
3.70867	245
3.71233	246
3.71600	248
3.71967	251
3.72333	253
3.72700	250
3.73067	242
3.73433	230
3.73800	218
3.74167	210
3.74533	208
3.74900	208
3.75267	208
3.75633	206
3.76000	206
3.76367	208
3.76733	207
3.77100	207
3.77467	206
3.77833	203
3.78200	199
3.78567	199
3.78933	201
3.79300	201
3.79667	198
3.80033	199
3.80400	204
3.80767	209
3.81133	215
3.81500	220
3.81867	222
3.82233	219
3.82600	214
3.82967	208
3.83333	203
3.83700	198
3.84067	200
3.84433	207
3.84800	215
3.85167	217
3.85533	216
3.85900	212
3.86267	207
3.86633	206
3.87000	205
3.87367	203
3.87733	201
3.88100	200
3.88467	198
3.88833	201
3.89200	203
3.89567	203
3.89933	200
3.90300	197
3.90667	193
3.91033	188
3.91400	184
3.91767	183
3.92133	182
3.92500	180
3.92867	180
3.93233	181
3.93600	178
3.93967	177
3.94333	178
3.94700	180
3.95067	184
3.95433	186
3.95800	188
3.96167	190
3.96533	194
3.96900	197
3.97267	199
3.97633	200
3.98000	201
3.98367	200
3.98733	195
3.99100	186
3.99467	178
3.99833	173

[Chromatogram (Ch2)]
Interval(msec)	220
# of Points	1091
Start Time(min)	0.002
End Time(min)	3.998
R.Time (min)	Intensity
0.00167	0
0.00533	0
0.00900	1
0.01267	1
0.01633	1
0.02000	1
0.02367	1
0.02733	1
0.03100	1
0.03467	1
0.03833	2
0.04200	2
0.04567	2
0.04933	3
0.05300	3
0.05667	3
0.06033	3
0.06400	3
0.06767	3
0.07133	3
0.07500	4
0.07867	4
0.08233	4
0.08600	4
0.08967	4
0.09333	5
0.09700	4
0.10067	4
0.10433	4
0.10800	4
0.11167	4
0.11533	4
0.11900	4
0.12267	4
0.12633	4
0.13000	4
0.13367	5
0.13733	5
0.14100	5
0.14467	5
0.14833	4
0.15200	4
0.15567	4
0.15933	4
0.16300	4
0.16667	3
0.17033	3
0.17400	3
0.17767	3
0.18133	3
0.18500	3
0.18867	3
0.19233	3
0.19600	3
0.19967	3
0.20333	2
0.20700	2
0.21067	2
0.21433	2
0.21800	2
0.22167	3
0.22533	3
0.22900	3
0.23267	3
0.23633	3
0.24000	3
0.24367	3
0.24733	3
0.25100	3
0.25467	2
0.25833	2
0.26200	2
0.26567	2
0.26933	2
0.27300	2
0.27667	2
0.28033	2
0.28400	2
0.28767	2
0.29133	3
0.29500	3
0.29867	3
0.30233	4
0.30600	4
0.30967	4
0.31333	4
0.31700	4
0.32067	4
0.32433	4
0.32800	4
0.33167	4
0.33533	4
0.33900	4
0.34267	4
0.34633	4
0.35000	4
0.35367	4
0.35733	3
0.36100	3
0.36467	3
0.36833	3
0.37200	2
0.37567	2
0.37933	1
0.38300	1
0.38667	0
0.39033	-0
0.39400	-0
0.39767	0
0.40133	0
0.40500	0
0.40867	1
0.41233	1
0.41600	1
0.41967	1
0.42333	0
0.42700	0
0.43067	0
0.43433	0
0.43800	0
0.44167	0
0.44533	0
0.44900	0
0.45267	0
0.45633	0
0.46000	0
0.46367	0
0.46733	1
0.47100	1
0.47467	1
0.47833	1
0.48200	0
0.48567	0
0.48933	0
0.49300	0
0.49667	0
0.50033	0
0.50400	-0
0.50767	-0
0.51133	-0
0.51500	-0
0.51867	0
0.52233	0
0.52600	1
0.52967	1
0.53333	1
0.53700	1
0.54067	1
0.54433	1
0.54800	1
0.55167	2
0.55533	2
0.55900	2
0.56267	2
0.56633	2
0.57000	2
0.57367	2
0.57733	2
0.58100	2
0.58467	2
0.58833	2
0.59200	2
0.59567	2
0.59933	2
0.60300	2
0.60667	2
0.61033	2
0.61400	2
0.61767	2
0.62133	2
0.62500	2
0.62867	3
0.63233	3
0.63600	3
0.63967	3
0.64333	3
0.64700	2
0.65067	2
0.65433	2
0.65800	2
0.66167	1
0.66533	1
0.66900	1
0.67267	1
0.67633	0
0.68000	0
0.68367	-0
0.68733	-0
0.69100	-0
0.69467	-1
0.69833	-1
0.70200	-1
0.70567	-0
0.70933	-0
0.71300	0
0.71667	1
0.72033	1
0.72400	1
0.72767	2
0.73133	2
0.73500	2
0.73867	2
0.74233	2
0.74600	2
0.74967	2
0.75333	2
0.75700	2
0.76067	2
0.76433	2
0.76800	2
0.77167	2
0.77533	1
0.77900	2
0.78267	2
0.78633	2
0.79000	2
0.79367	2
0.79733	2
0.80100	2
0.80467	2
0.80833	3
0.81200	3
0.81567	3
0.81933	3
0.82300	2
0.82667	2
0.83033	2
0.83400	2
0.83767	1
0.84133	1
0.84500	1
0.84867	1
0.85233	1
0.85600	2
0.85967	1
0.86333	1
0.86700	1
0.87067	0
0.87433	-0
0.87800	-0
0.88167	-0
0.88533	-0
0.88900	-1
0.89267	-1
0.89633	-1
0.90000	-0
0.90367	-0
0.90733	-0
0.91100	-0
0.91467	0
0.91833	1
0.92200	1
0.92567	2
0.92933	2
0.93300	2
0.93667	2
0.94033	2
0.94400	2
0.94767	2
0.95133	2
0.95500	2
0.95867	2
0.96233	2
0.96600	2
0.96967	1
0.97333	1
0.97700	1
0.98067	1
0.98433	0
0.98800	0
0.99167	-0
0.99533	-0
0.99900	-0
1.00267	-0
1.00633	-0
1.01000	-0
1.01367	-0
1.01733	-0
1.02100	0
1.02467	1
1.02833	1
1.03200	1
1.03567	1
1.03933	1
1.04300	1
1.04667	1
1.05033	1
1.05400	1
1.05767	1
1.06133	1
1.06500	1
1.06867	0
1.07233	-0
1.07600	-1
1.07967	-1
1.08333	-1
1.08700	-1
1.09067	-2
1.09433	-2
1.09800	-2
1.10167	-2
1.10533	-2
1.10900	-1
1.11267	-1
1.11633	-1
1.12000	-1
1.12367	-0
1.12733	-0
1.13100	-0
1.13467	0
1.13833	0
1.14200	1
1.14567	1
1.14933	1
1.15300	1
1.15667	2
1.16033	2
1.16400	2
1.16767	2
1.17133	2
1.17500	2
1.17867	2
1.18233	2
1.18600	2
1.18967	2
1.19333	2
1.19700	2
1.20067	2
1.20433	2
1.20800	2
1.21167	2
1.21533	2
1.21900	2
1.22267	2
1.22633	2
1.23000	2
1.23367	2
1.23733	2
1.24100	2
1.24467	2
1.24833	2
1.25200	2
1.25567	2
1.25933	2
1.26300	2
1.26667	1
1.27033	1
1.27400	1
1.27767	1
1.28133	1
1.28500	0
1.28867	0
1.29233	-0
1.29600	-0
1.29967	-1
1.30333	-1
1.30700	-1
1.31067	-1
1.31433	-1
1.31800	-1
1.32167	-2
1.32533	-2
1.32900	-2
1.33267	-2
1.33633	-1
1.34000	-1
1.34367	-1
1.34733	-1
1.35100	-0
1.35467	0
1.35833	1
1.36200	1
1.36567	1
1.36933	1
1.37300	1
1.37667	1
1.38033	1
1.38400	1
1.38767	0
1.39133	0
1.39500	0
1.39867	1
1.40233	1
1.40600	1
1.40967	1
1.41333	1
1.41700	1
1.42067	1
1.42433	2
1.42800	2
1.43167	2
1.43533	2
1.43900	2
1.44267	2
1.44633	2
1.45000	2
1.45367	2
1.45733	2
1.46100	1
1.46467	1
1.46833	1
1.47200	1
1.47567	1
1.47933	1
1.48300	0
1.48667	0
1.49033	0
1.49400	0
1.49767	0
1.50133	0
1.50500	0
1.50867	0
1.51233	0
1.51600	1
1.51967	1
1.52333	1
1.52700	1
1.53067	1
1.53433	1
1.53800	1
1.54167	1
1.54533	1
1.54900	0
1.55267	0
1.55633	-0
1.56000	-1
1.56367	-1
1.56733	-1
1.57100	-1
1.57467	-1
1.57833	-1
1.58200	-1
1.58567	-1
1.58933	-1
1.59300	-1
1.59667	-2
1.60033	-3
1.60400	-3
1.60767	-5
1.61133	-6
1.61500	-8
1.61867	-11
1.62233	-13
1.62600	-16
1.62967	-19
1.63333	-22
1.63700	-25
1.64067	-29
1.64433	-32
1.64800	-36
1.65167	-39
1.65533	-43
1.65900	-46
1.66267	-51
1.66633	-55
1.67000	-61
1.67367	-66
1.67733	-71
1.68100	-77
1.68467	-82
1.68833	-86
1.69200	-90
1.69567	-94
1.69933	-97
1.70300	-100
1.70667	-102
1.71033	-104
1.71400	-106
1.71767	-107
1.72133	-108
1.72500	-108
1.72867	-109
1.73233	-109
1.73600	-109
1.73967	-109
1.74333	-109
1.74700	-109
1.75067	-109
1.75433	-110
1.75800	-110
1.76167	-111
1.76533	-112
1.76900	-113
1.77267	-114
1.77633	-115
1.78000	-115
1.78367	-116
1.78733	-116
1.79100	-116
1.79467	-116
1.79833	-116
1.80200	-115
1.80567	-115
1.80933	-115
1.81300	-115
1.81667	-114
1.82033	-114
1.82400	-114
1.82767	-114
1.83133	-114
1.83500	-114
1.83867	-114
1.84233	-114
1.84600	-114
1.84967	-114
1.85333	-114
1.85700	-114
1.86067	-114
1.86433	-115
1.86800	-114
1.87167	-114
1.87533	-114
1.87900	-114
1.88267	-114
1.88633	-114
1.89000	-114
1.89367	-114
1.89733	-114
1.90100	-114
1.90467	-114
1.90833	-115
1.91200	-114
1.91567	-114
1.91933	-114
1.92300	-114
1.92667	-114
1.93033	-113
1.93400	-113
1.93767	-113
1.94133	-113
1.94500	-112
1.94867	-112
1.95233	-111
1.95600	-111
1.95967	-110
1.96333	-110
1.96700	-110
1.97067	-110
1.97433	-110
1.97800	-110
1.98167	-111
1.98533	-111
1.98900	-110
1.99267	-110
1.99633	-109
2.00000	-109
2.00367	-109
2.00733	-108
2.01100	-108
2.01467	-108
2.01833	-108
2.02200	-108
2.02567	-108
2.02933	-108
2.03300	-108
2.03667	-108
2.04033	-107
2.04400	-107
2.04767	-106
2.05133	-106
2.05500	-105
2.05867	-105
2.06233	-104
2.06600	-104
2.06967	-104
2.07333	-104
2.07700	-103
2.08067	-103
2.08433	-103
2.08800	-103
2.09167	-103
2.09533	-102
2.09900	-101
2.10267	-101
2.10633	-100
2.11000	-99
2.11367	-99
2.11733	-99
2.12100	-99
2.12467	-99
2.12833	-99
2.13200	-99
2.13567	-99
2.13933	-99
2.14300	-99
2.14667	-99
2.15033	-98
2.15400	-98
2.15767	-97
2.16133	-96
2.16500	-95
2.16867	-94
2.17233	-93
2.17600	-93
2.17967	-92
2.18333	-92
2.18700	-92
2.19067	-93
2.19433	-93
2.19800	-93
2.20167	-93
2.20533	-93
2.20900	-92
2.21267	-92
2.21633	-91
2.22000	-91
2.22367	-91
2.22733	-91
2.23100	-91
2.23467	-91
2.23833	-91
2.24200	-91
2.24567	-91
2.24933	-90
2.25300	-90
2.25667	-90
2.26033	-89
2.26400	-88
2.26767	-87
2.27133	-86
2.27500	-86
2.27867	-86
2.28233	-85
2.28600	-85
2.28967	-85
2.29333	-84
2.29700	-83
2.30067	-83
2.30433	-83
2.30800	-83
2.31167	-84
2.31533	-84
2.31900	-84
2.32267	-84
2.32633	-84
2.33000	-84
2.33367	-83
2.33733	-83
2.34100	-82
2.34467	-81
2.34833	-80
2.35200	-79
2.35567	-77
2.35933	-76
2.36300	-74
2.36667	-73
2.37033	-71
2.37400	-68
2.37767	-66
2.38133	-63
2.38500	-59
2.38867	-56
2.39233	-53
2.39600	-49
2.39967	-45
2.40333	-41
2.40700	-38
2.41067	-34
2.41433	-31
2.41800	-28
2.42167	-25
2.42533	-22
2.42900	-20
2.43267	-18
2.43633	-16
2.44000	-14
2.44367	-12
2.44733	-11
2.45100	-9
2.45467	-8
2.45833	-6
2.46200	-4
2.46567	-2
2.46933	-0
2.47300	1
2.47667	3
2.48033	4
2.48400	5
2.48767	6
2.49133	7
2.49500	8
2.49867	9
2.50233	10
2.50600	11
2.50967	11
2.51333	12
2.51700	12
2.52067	13
2.52433	13
2.52800	14
2.53167	15
2.53533	15
2.53900	15
2.54267	16
2.54633	16
2.55000	16
2.55367	16
2.55733	16
2.56100	16
2.56467	17
2.56833	17
2.57200	17
2.57567	18
2.57933	19
2.58300	20
2.58667	21
2.59033	21
2.59400	22
2.59767	22
2.60133	22
2.60500	22
2.60867	22
2.61233	22
2.61600	23
2.61967	23
2.62333	23
2.62700	23
2.63067	23
2.63433	23
2.63800	23
2.64167	23
2.64533	23
2.64900	22
2.65267	22
2.65633	22
2.66000	22
2.66367	22
2.66733	22
2.67100	22
2.67467	22
2.67833	21
2.68200	21
2.68567	21
2.68933	21
2.69300	21
2.69667	22
2.70033	22
2.70400	23
2.70767	23
2.71133	24
2.71500	24
2.71867	25
2.72233	26
2.72600	27
2.72967	27
2.73333	28
2.73700	28
2.74067	29
2.74433	29
2.74800	29
2.75167	29
2.75533	29
2.75900	29
2.76267	29
2.76633	28
2.77000	28
2.77367	27
2.77733	27
2.78100	26
2.78467	26
2.78833	26
2.79200	25
2.79567	25
2.79933	25
2.80300	25
2.80667	26
2.81033	26
2.81400	26
2.81767	26
2.82133	27
2.82500	26
2.82867	26
2.83233	26
2.83600	25
2.83967	22
2.84333	19
2.84700	13
2.85067	4
2.85433	-9
2.85800	-26
2.86167	-48
2.86533	-75
2.86900	-107
2.87267	-145
2.87633	-188
2.88000	-237
2.88367	-291
2.88733	-349
2.89100	-411
2.89467	-478
2.89833	-548
2.90200	-622
2.90567	-698
2.90933	-777
2.91300	-859
2.91667	-943
2.92033	-1029
2.92400	-1117
2.92767	-1207
2.93133	-1298
2.93500	-1389
2.93867	-1472
2.94233	-1533
2.94600	-1561
2.94967	-1553
2.95333	-1510
2.95700	-1439
2.96067	-1346
2.96433	-1241
2.96800	-1129
2.97167	-1016
2.97533	-905
2.97900	-801
2.98267	-704
2.98633	-615
2.99000	-535
2.99367	-463
2.99733	-400
3.00100	-344
3.00467	-295
3.00833	-252
3.01200	-215
3.01567	-183
3.01933	-156
3.02300	-132
3.02667	-111
3.03033	-93
3.03400	-78
3.03767	-65
3.04133	-53
3.04500	-44
3.04867	-36
3.05233	-29
3.05600	-23
3.05967	-18
3.06333	-13
3.06700	-9
3.07067	-6
3.07433	-3
3.07800	-1
3.08167	1
3.08533	3
3.08900	5
3.09267	6
3.09633	7
3.10000	8
3.10367	9
3.10733	9
3.11100	10
3.11467	10
3.11833	11
3.12200	11
3.12567	12
3.12933	13
3.13300	13
3.13667	14
3.14033	14
3.14400	15
3.14767	15
3.15133	15
3.15500	16
3.15867	16
3.16233	16
3.16600	16
3.16967	17
3.17333	17
3.17700	17
3.18067	17
3.18433	18
3.18800	18
3.19167	18
3.19533	19
3.19900	19
3.20267	19
3.20633	20
3.21000	20
3.21367	20
3.21733	21
3.22100	21
3.22467	21
3.22833	22
3.23200	22
3.23567	22
3.23933	23
3.24300	23
3.24667	23
3.25033	24
3.25400	24
3.25767	25
3.26133	25
3.26500	26
3.26867	26
3.27233	26
3.27600	27
3.27967	27
3.28333	27
3.28700	27
3.29067	28
3.29433	28
3.29800	28
3.30167	28
3.30533	28
3.30900	28
3.31267	28
3.31633	28
3.32000	28
3.32367	28
3.32733	28
3.33100	28
3.33467	28
3.33833	28
3.34200	28
3.34567	28
3.34933	28
3.35300	28
3.35667	28
3.36033	28
3.36400	28
3.36767	28
3.37133	27
3.37500	27
3.37867	27
3.38233	27
3.38600	27
3.38967	27
3.39333	27
3.39700	27
3.40067	27
3.40433	27
3.40800	27
3.41167	26
3.41533	26
3.41900	26
3.42267	26
3.42633	26
3.43000	26
3.43367	27
3.43733	27
3.44100	27
3.44467	27
3.44833	27
3.45200	27
3.45567	27
3.45933	27
3.46300	27
3.46667	27
3.47033	27
3.47400	27
3.47767	27
3.48133	27
3.48500	27
3.48867	27
3.49233	27
3.49600	27
3.49967	27
3.50333	28
3.50700	28
3.51067	28
3.51433	28
3.51800	28
3.52167	28
3.52533	28
3.52900	28
3.53267	28
3.53633	28
3.54000	28
3.54367	28
3.54733	28
3.55100	28
3.55467	28
3.55833	28
3.56200	28
3.56567	28
3.56933	28
3.57300	27
3.57667	27
3.58033	27
3.58400	27
3.58767	27
3.59133	27
3.59500	27
3.59867	28
3.60233	28
3.60600	28
3.60967	28
3.61333	28
3.61700	28
3.62067	28
3.62433	28
3.62800	28
3.63167	28
3.63533	28
3.63900	28
3.64267	28
3.64633	28
3.65000	28
3.65367	28
3.65733	28
3.66100	28
3.66467	28
3.66833	28
3.67200	29
3.67567	29
3.67933	29
3.68300	29
3.68667	29
3.69033	29
3.69400	29
3.69767	29
3.70133	28
3.70500	28
3.70867	28
3.71233	28
3.71600	28
3.71967	28
3.72333	29
3.72700	29
3.73067	29
3.73433	29
3.73800	29
3.74167	29
3.74533	29
3.74900	29
3.75267	29
3.75633	29
3.76000	29
3.76367	29
3.76733	29
3.77100	29
3.77467	28
3.77833	28
3.78200	28
3.78567	28
3.78933	28
3.79300	28
3.79667	28
3.80033	28
3.80400	28
3.80767	28
3.81133	28
3.81500	28
3.81867	28
3.82233	28
3.82600	28
3.82967	28
3.83333	28
3.83700	28
3.84067	28
3.84433	28
3.84800	28
3.85167	28
3.85533	28
3.85900	28
3.86267	28
3.86633	28
3.87000	28
3.87367	28
3.87733	28
3.88100	28
3.88467	28
3.88833	28
3.89200	27
3.89567	27
3.89933	27
3.90300	27
3.90667	28
3.91033	28
3.91400	28
3.91767	28
3.92133	27
3.92500	27
3.92867	27
3.93233	27
3.93600	27
3.93967	27
3.94333	27
3.94700	27
3.95067	27
3.95433	28
3.95800	28
3.96167	28
3.96533	28
3.96900	28
3.97267	28
3.97633	28
3.98000	28
3.98367	28
3.98733	28
3.99100	28
3.99467	28
3.99833	28

[Chromatogram (Ch3)]
Interval(msec)	220
# of Points	1091
Start Time(min)	0.002
End Time(min)	3.998
R.Time (min)	Intensity
0.00167	1
0.00533	4
0.00900	5
0.01267	5
0.01633	5
0.02000	4
0.02367	2
0.02733	2
0.03100	2
0.03467	5
0.03833	7
0.04200	9
0.04567	10
0.04933	11
0.05300	11
0.05667	8
0.06033	7
0.06400	5
0.06767	3
0.07133	1
0.07500	-0
0.07867	1
0.08233	3
0.08600	5
0.08967	6
0.09333	6
0.09700	4
0.10067	6
0.10433	9
0.10800	11
0.11167	10
0.11533	6
0.11900	6
0.12267	7
0.12633	7
0.13000	7
0.13367	7
0.13733	8
0.14100	7
0.14467	6
0.14833	6
0.15200	8
0.15567	7
0.15933	4
0.16300	5
0.16667	4
0.17033	4
0.17400	6
0.17767	7
0.18133	9
0.18500	9
0.18867	11
0.19233	12
0.19600	13
0.19967	13
0.20333	11
0.20700	12
0.21067	14
0.21433	13
0.21800	15
0.22167	13
0.22533	12
0.22900	12
0.23267	11
0.23633	10
0.24000	9
0.24367	12
0.24733	15
0.25100	19
0.25467	19
0.25833	18
0.26200	16
0.26567	15
0.26933	15
0.27300	15
0.27667	15
0.28033	15
0.28400	15
0.28767	14
0.29133	13
0.29500	13
0.29867	12
0.30233	13
0.30600	12
0.30967	11
0.31333	12
0.31700	13
0.32067	16
0.32433	16
0.32800	16
0.33167	16
0.33533	15
0.33900	16
0.34267	16
0.34633	13
0.35000	8
0.35367	8
0.35733	10
0.36100	11
0.36467	13
0.36833	15
0.37200	15
0.37567	13
0.37933	13
0.38300	15
0.38667	16
0.39033	19
0.39400	20
0.39767	20
0.40133	20
0.40500	18
0.40867	16
0.41233	16
0.41600	16
0.41967	17
0.42333	18
0.42700	18
0.43067	16
0.43433	13
0.43800	12
0.44167	11
0.44533	12
0.44900	13
0.45267	14
0.45633	15
0.46000	16
0.46367	16
0.46733	19
0.47100	21
0.47467	23
0.47833	23
0.48200	21
0.48567	23
0.48933	25
0.49300	26
0.49667	26
0.50033	24
0.50400	24
0.50767	25
0.51133	23
0.51500	22
0.51867	21
0.52233	21
0.52600	20
0.52967	21
0.53333	20
0.53700	18
0.54067	16
0.54433	17
0.54800	17
0.55167	17
0.55533	17
0.55900	18
0.56267	19
0.56633	18
0.57000	19
0.57367	20
0.57733	20
0.58100	18
0.58467	16
0.58833	16
0.59200	18
0.59567	19
0.59933	21
0.60300	22
0.60667	23
0.61033	23
0.61400	21
0.61767	21
0.62133	24
0.62500	26
0.62867	26
0.63233	25
0.63600	24
0.63967	23
0.64333	22
0.64700	23
0.65067	24
0.65433	24
0.65800	23
0.66167	22
0.66533	21
0.66900	22
0.67267	22
0.67633	19
0.68000	18
0.68367	19
0.68733	19
0.69100	18
0.69467	18
0.69833	20
0.70200	21
0.70567	21
0.70933	17
0.71300	15
0.71667	16
0.72033	20
0.72400	24
0.72767	26
0.73133	27
0.73500	25
0.73867	23
0.74233	22
0.74600	22
0.74967	22
0.75333	20
0.75700	20
0.76067	19
0.76433	18
0.76800	20
0.77167	20
0.77533	18
0.77900	16
0.78267	18
0.78633	21
0.79000	23
0.79367	25
0.79733	27
0.80100	28
0.80467	28
0.80833	27
0.81200	25
0.81567	24
0.81933	23
0.82300	24
0.82667	26
0.83033	28
0.83400	29
0.83767	32
0.84133	32
0.84500	31
0.84867	31
0.85233	29
0.85600	32
0.85967	34
0.86333	34
0.86700	33
0.87067	34
0.87433	33
0.87800	31
0.88167	30
0.88533	31
0.88900	32
0.89267	29
0.89633	26
0.90000	25
0.90367	27
0.90733	31
0.91100	33
0.91467	34
0.91833	35
0.92200	36
0.92567	34
0.92933	33
0.93300	32
0.93667	31
0.94033	32
0.94400	33
0.94767	34
0.95133	38
0.95500	41
0.95867	42
0.96233	41
0.96600	37
0.96967	34
0.97333	34
0.97700	33
0.98067	33
0.98433	33
0.98800	33
0.99167	35
0.99533	37
0.99900	40
1.00267	40
1.00633	39
1.01000	39
1.01367	41
1.01733	42
1.02100	43
1.02467	41
1.02833	38
1.03200	37
1.03567	38
1.03933	41
1.04300	41
1.04667	42
1.05033	42
1.05400	44
1.05767	44
1.06133	42
1.06500	41
1.06867	41
1.07233	42
1.07600	41
1.07967	40
1.08333	41
1.08700	43
1.09067	42
1.09433	42
1.09800	41
1.10167	41
1.10533	40
1.10900	40
1.11267	40
1.11633	42
1.12000	45
1.12367	48
1.12733	50
1.13100	50
1.13467	51
1.13833	51
1.14200	51
1.14567	49
1.14933	47
1.15300	48
1.15667	48
1.16033	48
1.16400	47
1.16767	44
1.17133	42
1.17500	42
1.17867	44
1.18233	44
1.18600	47
1.18967	49
1.19333	48
1.19700	48
1.20067	48
1.20433	50
1.20800	52
1.21167	52
1.21533	52
1.21900	52
1.22267	51
1.22633	53
1.23000	54
1.23367	53
1.23733	51
1.24100	50
1.24467	50
1.24833	51
1.25200	50
1.25567	50
1.25933	50
1.26300	52
1.26667	53
1.27033	53
1.27400	53
1.27767	52
1.28133	51
1.28500	51
1.28867	52
1.29233	53
1.29600	52
1.29967	54
1.30333	53
1.30700	52
1.31067	54
1.31433	55
1.31800	56
1.32167	56
1.32533	54
1.32900	52
1.33267	52
1.33633	53
1.34000	56
1.34367	57
1.34733	56
1.35100	56
1.35467	56
1.35833	57
1.36200	59
1.36567	60
1.36933	61
1.37300	64
1.37667	66
1.38033	64
1.38400	62
1.38767	62
1.39133	63
1.39500	64
1.39867	64
1.40233	62
1.40600	59
1.40967	59
1.41333	60
1.41700	62
1.42067	65
1.42433	66
1.42800	65
1.43167	62
1.43533	59
1.43900	59
1.44267	58
1.44633	57
1.45000	58
1.45367	59
1.45733	60
1.46100	63
1.46467	65
1.46833	64
1.47200	63
1.47567	65
1.47933	66
1.48300	65
1.48667	63
1.49033	59
1.49400	58
1.49767	61
1.50133	64
1.50500	65
1.50867	65
1.51233	65
1.51600	68
1.51967	67
1.52333	65
1.52700	63
1.53067	61
1.53433	61
1.53800	59
1.54167	58
1.54533	58
1.54900	59
1.55267	60
1.55633	57
1.56000	57
1.56367	58
1.56733	59
1.57100	60
1.57467	61
1.57833	63
1.58200	62
1.58567	61
1.58933	61
1.59300	60
1.59667	62
1.60033	63
1.60400	62
1.60767	61
1.61133	60
1.61500	60
1.61867	60
1.62233	61
1.62600	62
1.62967	63
1.63333	64
1.63700	65
1.64067	66
1.64433	66
1.64800	69
1.65167	70
1.65533	68
1.65900	65
1.66267	65
1.66633	65
1.67000	66
1.67367	66
1.67733	68
1.68100	69
1.68467	72
1.68833	73
1.69200	76
1.69567	78
1.69933	79
1.70300	78
1.70667	77
1.71033	75
1.71400	74
1.71767	75
1.72133	76
1.72500	76
1.72867	77
1.73233	77
1.73600	78
1.73967	78
1.74333	78
1.74700	75
1.75067	75
1.75433	77
1.75800	77
1.76167	77
1.76533	80
1.76900	82
1.77267	83
1.77633	84
1.78000	83
1.78367	80
1.78733	80
1.79100	83
1.79467	85
1.79833	88
1.80200	89
1.80567	87
1.80933	88
1.81300	87
1.81667	85
1.82033	81
1.82400	80
1.82767	81
1.83133	82
1.83500	84
1.83867	86
1.84233	88
1.84600	90
1.84967	93
1.85333	93
1.85700	91
1.86067	90
1.86433	90
1.86800	92
1.87167	94
1.87533	93
1.87900	91
1.88267	90
1.88633	92
1.89000	93
1.89367	93
1.89733	95
1.90100	98
1.90467	100
1.90833	100
1.91200	98
1.91567	99
1.91933	100
1.92300	103
1.92667	106
1.93033	105
1.93400	106
1.93767	106
1.94133	104
1.94500	104
1.94867	106
1.95233	106
1.95600	107
1.95967	108
1.96333	108
1.96700	108
1.97067	108
1.97433	111
1.97800	111
1.98167	111
1.98533	113
1.98900	117
1.99267	119
1.99633	118
2.00000	116
2.00367	114
2.00733	113
2.01100	112
2.01467	112
2.01833	112
2.02200	111
2.02567	112
2.02933	116
2.03300	117
2.03667	118
2.04033	121
2.04400	123
2.04767	124
2.05133	126
2.05500	127
2.05867	127
2.06233	125
2.06600	125
2.06967	124
2.07333	123
2.07700	125
2.08067	127
2.08433	130
2.08800	131
2.09167	131
2.09533	131
2.09900	132
2.10267	133
2.10633	133
2.11000	129
2.11367	127
2.11733	127
2.12100	127
2.12467	129
2.12833	133
2.13200	134
2.13567	137
2.13933	138
2.14300	139
2.14667	138
2.15033	138
2.15400	137
2.15767	138
2.16133	140
2.16500	142
2.16867	146
2.17233	147
2.17600	148
2.17967	148
2.18333	149
2.18700	153
2.19067	155
2.19433	156
2.19800	156
2.20167	157
2.20533	158
2.20900	159
2.21267	158
2.21633	155
2.22000	155
2.22367	156
2.22733	159
2.23100	163
2.23467	168
2.23833	171
2.24200	172
2.24567	173
2.24933	172
2.25300	170
2.25667	170
2.26033	172
2.26400	174
2.26767	176
2.27133	176
2.27500	177
2.27867	180
2.28233	181
2.28600	181
2.28967	180
2.29333	180
2.29700	181
2.30067	184
2.30433	189
2.30800	193
2.31167	190
2.31533	189
2.31900	189
2.32267	191
2.32633	193
2.33000	194
2.33367	197
2.33733	198
2.34100	200
2.34467	200
2.34833	199
2.35200	199
2.35567	200
2.35933	202
2.36300	203
2.36667	204
2.37033	205
2.37400	208
2.37767	209
2.38133	211
2.38500	211
2.38867	210
2.39233	213
2.39600	217
2.39967	219
2.40333	222
2.40700	225
2.41067	229
2.41433	233
2.41800	235
2.42167	236
2.42533	237
2.42900	238
2.43267	237
2.43633	236
2.44000	240
2.44367	266
2.44733	329
2.45100	394
2.45467	446
2.45833	481
2.46200	487
2.46567	473
2.46933	454
2.47300	436
2.47667	422
2.48033	413
2.48400	409
2.48767	401
2.49133	389
2.49500	373
2.49867	358
2.50233	344
2.50600	330
2.50967	319
2.51333	313
2.51700	308
2.52067	307
2.52433	307
2.52800	311
2.53167	317
2.53533	323
2.53900	329
2.54267	334
2.54633	337
2.55000	337
2.55367	334
2.55733	331
2.56100	328
2.56467	322
2.56833	315
2.57200	308
2.57567	300
2.57933	295
2.58300	289
2.58667	285
2.59033	282
2.59400	279
2.59767	271
2.60133	259
2.60500	243
2.60867	221
2.61233	194
2.61600	163
2.61967	136
2.62333	113
2.62700	94
2.63067	77
2.63433	65
2.63800	56
2.64167	53
2.64533	53
2.64900	56
2.65267	61
2.65633	69
2.66000	78
2.66367	89
2.66733	99
2.67100	110
2.67467	120
2.67833	131
2.68200	142
2.68567	152
2.68933	162
2.69300	172
2.69667	181
2.70033	186
2.70400	191
2.70767	196
2.71133	198
2.71500	202
2.71867	206
2.72233	209
2.72600	211
2.72967	212
2.73333	214
2.73700	216
2.74067	216
2.74433	218
2.74800	220
2.75167	222
2.75533	224
2.75900	227
2.76267	232
2.76633	236
2.77000	238
2.77367	236
2.77733	235
2.78100	235
2.78467	237
2.78833	241
2.79200	243
2.79567	243
2.79933	244
2.80300	242
2.80667	240
2.81033	243
2.81400	252
2.81767	280
2.82133	349
2.82500	492
2.82867	766
2.83233	1241
2.83600	1982
2.83967	3031
2.84333	4392
2.84700	6012
2.85067	7808
2.85433	9661
2.85800	11431
2.86167	12981
2.86533	14197
2.86900	15005
2.87267	15375
2.87633	15327
2.88000	14919
2.88367	14229
2.88733	13341
2.89100	12333
2.89467	11268
2.89833	10197
2.90200	9159
2.90567	8177
2.90933	7266
2.91300	6430
2.91667	5675
2.92033	4998
2.92400	4396
2.92767	3863
2.93133	3392
2.93500	2978
2.93867	2614
2.94233	2296
2.94600	2020
2.94967	1783
2.95333	1576
2.95700	1393
2.96067	1233
2.96433	1096
2.96800	977
2.97167	876
2.97533	790
2.97900	716
2.98267	652
2.98633	596
2.99000	546
2.99367	503
2.99733	464
3.00100	430
3.00467	404
3.00833	383
3.01200	363
3.01567	345
3.01933	332
3.02300	323
3.02667	313
3.03033	305
3.03400	299
3.03767	294
3.04133	285
3.04500	275
3.04867	268
3.05233	262
3.05600	257
3.05967	252
3.06333	247
3.06700	243
3.07067	239
3.07433	236
3.07800	230
3.08167	227
3.08533	224
3.08900	220
3.09267	217
3.09633	213
3.10000	211
3.10367	211
3.10733	211
3.11100	213
3.11467	211
3.11833	209
3.12200	206
3.12567	204
3.12933	204
3.13300	205
3.13667	205
3.14033	206
3.14400	206
3.14767	204
3.15133	202
3.15500	202
3.15867	201
3.16233	199
3.16600	198
3.16967	197
3.17333	197
3.17700	197
3.18067	197
3.18433	196
3.18800	195
3.19167	195
3.19533	195
3.19900	195
3.20267	194
3.20633	190
3.21000	187
3.21367	182
3.21733	167
3.22100	145
3.22467	133
3.22833	139
3.23200	161
3.23567	195
3.23933	233
3.24300	271
3.24667	309
3.25033	348
3.25400	387
3.25767	424
3.26133	457
3.26500	486
3.26867	513
3.27233	538
3.27600	561
3.27967	583
3.28333	602
3.28700	619
3.29067	635
3.29433	648
3.29800	659
3.30167	672
3.30533	683
3.30900	692
3.31267	700
3.31633	707
3.32000	711
3.32367	715
3.32733	720
3.33100	725
3.33467	730
3.33833	734
3.34200	737
3.34567	740
3.34933	742
3.35300	743
3.35667	742
3.36033	741
3.36400	741
3.36767	738
3.37133	736
3.37500	737
3.37867	736
3.38233	732
3.38600	731
3.38967	731
3.39333	729
3.39700	727
3.40067	722
3.40433	719
3.40800	716
3.41167	711
3.41533	709
3.41900	707
3.42267	704
3.42633	699
3.43000	694
3.43367	690
3.43733	687
3.44100	687
3.44467	685
3.44833	683
3.45200	677
3.45567	673
3.45933	668
3.46300	664
3.46667	661
3.47033	656
3.47400	651
3.47767	648
3.48133	646
3.48500	643
3.48867	641
3.49233	642
3.49600	644
3.49967	645
3.50333	646
3.50700	644
3.51067	642
3.51433	638
3.51800	635
3.52167	631
3.52533	625
3.52900	624
3.53267	626
3.53633	627
3.54000	625
3.54367	622
3.54733	621
3.55100	618
3.55467	616
3.55833	615
3.56200	611
3.56567	608
3.56933	606
3.57300	605
3.57667	605
3.58033	606
3.58400	608
3.58767	608
3.59133	606
3.59500	603
3.59867	600
3.60233	597
3.60600	595
3.60967	592
3.61333	586
3.61700	582
3.62067	578
3.62433	574
3.62800	572
3.63167	572
3.63533	570
3.63900	568
3.64267	570
3.64633	570
3.65000	569
3.65367	563
3.65733	557
3.66100	553
3.66467	549
3.66833	547
3.67200	543
3.67567	540
3.67933	540
3.68300	539
3.68667	538
3.69033	537
3.69400	535
3.69767	533
3.70133	530
3.70500	526
3.70867	524
3.71233	526
3.71600	526
3.71967	523
3.72333	519
3.72700	515
3.73067	514
3.73433	512
3.73800	510
3.74167	509
3.74533	509
3.74900	508
3.75267	508
3.75633	507
3.76000	503
3.76367	501
3.76733	500
3.77100	500
3.77467	500
3.77833	499
3.78200	498
3.78567	497
3.78933	497
3.79300	495
3.79667	492
3.80033	489
3.80400	489
3.80767	489
3.81133	487
3.81500	484
3.81867	483
3.82233	480
3.82600	478
3.82967	478
3.83333	478
3.83700	477
3.84067	476
3.84433	474
3.84800	474
3.85167	473
3.85533	474
3.85900	473
3.86267	470
3.86633	467
3.87000	467
3.87367	466
3.87733	466
3.88100	467
3.88467	466
3.88833	466
3.89200	465
3.89567	462
3.89933	462
3.90300	462
3.90667	462
3.91033	460
3.91400	459
3.91767	459
3.92133	458
3.92500	458
3.92867	458
3.93233	457
3.93600	454
3.93967	453
3.94333	452
3.94700	451
3.95067	451
3.95433	451
3.95800	452
3.96167	453
3.96533	453
3.96900	451
3.97267	451
3.97633	450
3.98000	447
3.98367	445
3.98733	447
3.99100	448
3.99467	447
3.99833	447

[Status Trace (Column Oven Temperature)]
Interval(msec)	1000
# of Points	240
Start Time(min)	0.002
End Time(min)	3.985
Intensity Units	
Intensity Multiplier	1
R.Time (min)	Intensity
0.00195	35.10
0.01862	35.09
0.03528	35.08
0.05195	35.08
0.06862	35.07
0.08528	35.06
0.10195	35.05
0.11862	35.05
0.13528	35.05
0.15195	35.05
0.16862	35.05
0.18528	35.05
0.20195	35.04
0.21862	35.03
0.23528	35.03
0.25195	35.03
0.26862	35.03
0.28528	35.02
0.30195	35.00
0.31862	34.99
0.33528	34.98
0.35195	34.97
0.36862	34.99
0.38528	34.99
0.40195	35.01
0.41862	35.00
0.43528	35.00
0.45195	35.00
0.46862	35.01
0.48528	35.02
0.50195	35.03
0.51862	35.03
0.53528	35.02
0.55195	35.02
0.56862	35.01
0.58528	35.01
0.60195	35.01
0.61862	35.00
0.63528	34.99
0.65195	35.00
0.66862	35.01
0.68528	35.01
0.70195	35.02
0.71862	35.01
0.73528	35.00
0.75195	35.00
0.76862	35.00
0.78528	35.00
0.80195	34.99
0.81862	35.00
0.83528	35.00
0.85195	35.01
0.86862	35.01
0.88528	35.01
0.90195	35.01
0.91862	35.00
0.93528	34.99
0.95195	34.99
0.96862	34.99
0.98528	34.99
1.00195	35.01
1.01862	35.00
1.03528	34.99
1.05195	35.00
1.06862	35.02
1.08528	35.03
1.10195	35.04
1.11862	35.03
1.13528	35.03
1.15195	35.02
1.16862	35.01
1.18528	35.00
1.20195	34.99
1.21862	34.99
1.23528	34.98
1.25195	34.98
1.26862	34.98
1.28528	34.98
1.30195	34.98
1.31862	35.00
1.33528	35.01
1.35195	35.00
1.36862	35.00
1.38528	35.00
1.40195	34.99
1.41862	34.99
1.43528	34.98
1.45195	34.98
1.46862	34.99
1.48528	34.98
1.50195	34.98
1.51862	34.97
1.53528	34.97
1.55195	34.98
1.56862	34.99
1.58528	34.99
1.60195	35.02
1.61862	35.11
1.63528	35.28
1.65195	35.50
1.66862	35.82
1.68528	36.20
1.70195	36.56
1.71862	36.90
1.73528	37.23
1.75195	37.56
1.76862	37.90
1.78528	38.22
1.80195	38.56
1.81862	38.89
1.83528	39.21
1.85195	39.53
1.86862	39.86
1.88528	40.18
1.90195	40.51
1.91862	40.84
1.93528	41.16
1.95195	41.48
1.96862	41.82
1.98528	42.14
2.00195	42.46
2.01862	42.79
2.03528	43.12
2.05195	43.44
2.06862	43.77
2.08528	44.10
2.10195	44.42
2.11862	44.74
2.13528	45.07
2.15195	45.40
2.16862	45.72
2.18528	46.06
2.20195	46.38
2.21862	46.71
2.23528	47.04
2.25195	47.38
2.26862	47.69
2.28528	48.03
2.30195	48.36
2.31862	48.73
2.33528	49.04
2.35195	49.34
2.36862	49.60
2.38528	49.73
2.40195	49.74
2.41862	49.74
2.43528	49.74
2.45195	49.76
2.46862	49.76
2.48528	49.77
2.50195	49.78
2.51862	49.79
2.53528	49.80
2.55195	49.81
2.56862	49.82
2.58528	49.82
2.60195	49.82
2.61862	49.83
2.63528	49.83
2.65195	49.84
2.66862	49.85
2.68528	49.87
2.70195	49.88
2.71862	49.87
2.73528	49.85
2.75195	49.85
2.76862	49.88
2.78528	49.90
2.80195	49.90
2.81862	49.90
2.83528	49.91
2.85195	49.90
2.86862	49.92
2.88528	49.93
2.90195	49.95
2.91862	49.97
2.93528	49.99
2.95195	50.01
2.96862	50.02
2.98528	50.03
3.00195	50.03
3.01862	50.02
3.03528	50.03
3.05195	50.03
3.06862	50.03
3.08528	50.03
3.10195	50.04
3.11862	50.05
3.13528	50.06
3.15195	50.07
3.16862	50.09
3.18528	50.10
3.20195	50.11
3.21862	50.11
3.23528	50.10
3.25195	50.08
3.26862	50.08
3.28528	50.06
3.30195	50.06
3.31862	50.05
3.33528	50.04
3.35195	50.03
3.36862	50.04
3.38528	50.05
3.40195	50.05
3.41862	50.05
3.43528	50.05
3.45195	50.06
3.46862	50.07
3.48528	50.07
3.50195	50.07
3.51862	50.07
3.53528	50.08
3.55195	50.08
3.56862	50.09
3.58528	50.09
3.60195	50.09
3.61862	50.08
3.63528	50.08
3.65195	50.07
3.66862	50.07
3.68528	50.07
3.70195	50.07
3.71862	50.06
3.73528	50.06
3.75195	50.07
3.76862	50.07
3.78528	50.07
3.80195	50.06
3.81862	50.07
3.83528	50.06
3.85195	50.06
3.86862	50.06
3.88528	50.07
3.90195	50.07
3.91862	50.08
3.93528	50.08
3.95195	50.07
3.96862	50.08
3.98528	50.08

[Status Trace (Injection Unit Temperature)]
Interval(msec)	1000
# of Points	240
Start Time(min)	0.002
End Time(min)	3.985
Intensity Units	
Intensity Multiplier	1
R.Time (min)	Intensity
0.00195	99.98
0.01862	99.98
0.03528	99.98
0.05195	99.98
0.06862	99.98
0.08528	99.98
0.10195	99.98
0.11862	99.98
0.13528	99.98
0.15195	99.98
0.16862	99.98
0.18528	99.98
0.20195	99.98
0.21862	99.98
0.23528	99.98
0.25195	99.98
0.26862	99.98
0.28528	99.98
0.30195	99.98
0.31862	99.98
0.33528	99.98
0.35195	99.97
0.36862	99.98
0.38528	99.98
0.40195	99.98
0.41862	99.98
0.43528	99.98
0.45195	99.98
0.46862	99.98
0.48528	99.98
0.50195	99.98
0.51862	99.98
0.53528	99.98
0.55195	99.98
0.56862	99.98
0.58528	99.98
0.60195	99.98
0.61862	99.98
0.63528	99.98
0.65195	99.98
0.66862	99.98
0.68528	99.98
0.70195	99.98
0.71862	99.99
0.73528	99.99
0.75195	99.98
0.76862	99.98
0.78528	99.98
0.80195	99.98
0.81862	99.98
0.83528	99.98
0.85195	99.99
0.86862	99.99
0.88528	99.98
0.90195	99.98
0.91862	99.98
0.93528	99.98
0.95195	99.98
0.96862	99.98
0.98528	99.98
1.00195	99.99
1.01862	99.98
1.03528	99.98
1.05195	99.99
1.06862	99.99
1.08528	99.98
1.10195	99.98
1.11862	99.98
1.13528	99.99
1.15195	99.99
1.16862	99.98
1.18528	99.99
1.20195	99.99
1.21862	99.98
1.23528	99.99
1.25195	99.99
1.26862	99.99
1.28528	99.99
1.30195	99.98
1.31862	99.99
1.33528	99.99
1.35195	99.99
1.36862	99.99
1.38528	99.99
1.40195	99.99
1.41862	99.99
1.43528	99.99
1.45195	99.99
1.46862	99.99
1.48528	99.99
1.50195	99.99
1.51862	99.99
1.53528	99.99
1.55195	99.98
1.56862	99.98
1.58528	99.99
1.60195	99.98
1.61862	99.98
1.63528	99.99
1.65195	99.98
1.66862	99.99
1.68528	99.98
1.70195	99.99
1.71862	99.99
1.73528	99.99
1.75195	99.99
1.76862	99.99
1.78528	99.98
1.80195	99.99
1.81862	99.99
1.83528	99.98
1.85195	99.99
1.86862	99.98
1.88528	99.98
1.90195	99.98
1.91862	99.98
1.93528	99.98
1.95195	99.98
1.96862	99.97
1.98528	99.97
2.00195	99.97
2.01862	99.98
2.03528	99.97
2.05195	99.97
2.06862	99.97
2.08528	99.97
2.10195	99.97
2.11862	99.97
2.13528	99.97
2.15195	99.97
2.16862	99.97
2.18528	99.97
2.20195	99.97
2.21862	99.97
2.23528	99.97
2.25195	99.97
2.26862	99.96
2.28528	99.97
2.30195	99.97
2.31862	99.97
2.33528	99.97
2.35195	99.96
2.36862	99.97
2.38528	99.96
2.40195	99.97
2.41862	99.97
2.43528	99.97
2.45195	99.97
2.46862	99.97
2.48528	99.97
2.50195	99.97
2.51862	99.97
2.53528	99.97
2.55195	99.97
2.56862	99.97
2.58528	99.97
2.60195	99.97
2.61862	99.98
2.63528	99.98
2.65195	99.98
2.66862	99.98
2.68528	99.98
2.70195	99.98
2.71862	99.98
2.73528	99.98
2.75195	99.99
2.76862	99.99
2.78528	99.99
2.80195	99.99
2.81862	99.99
2.83528	99.99
2.85195	100.00
2.86862	100.00
2.88528	100.00
2.90195	100.00
2.91862	100.00
2.93528	100.01
2.95195	100.01
2.96862	100.00
2.98528	100.01
3.00195	100.01
3.01862	100.01
3.03528	100.01
3.05195	100.01
3.06862	100.01
3.08528	100.02
3.10195	100.01
3.11862	100.02
3.13528	100.02
3.15195	100.03
3.16862	100.02
3.18528	100.02
3.20195	100.03
3.21862	100.03
3.23528	100.03
3.25195	100.02
3.26862	100.03
3.28528	100.03
3.30195	100.03
3.31862	100.03
3.33528	100.03
3.35195	100.03
3.36862	100.03
3.38528	100.04
3.40195	100.03
3.41862	100.04
3.43528	100.04
3.45195	100.04
3.46862	100.04
3.48528	100.04
3.50195	100.04
3.51862	100.04
3.53528	100.04
3.55195	100.04
3.56862	100.03
3.58528	100.04
3.60195	100.04
3.61862	100.04
3.63528	100.04
3.65195	100.04
3.66862	100.04
3.68528	100.05
3.70195	100.05
3.71862	100.04
3.73528	100.04
3.75195	100.05
3.76862	100.05
3.78528	100.05
3.80195	100.05
3.81862	100.05
3.83528	100.05
3.85195	100.05
3.86862	100.04
3.88528	100.05
3.90195	100.05
3.91862	100.05
3.93528	100.05
3.95195	100.05
3.96862	100.05
3.98528	100.05

[Status Trace (Carrier Gas Pressure)]
Interval(msec)	1000
# of Points	240
Start Time(min)	0.002
End Time(min)	3.985
Intensity Units	
Intensity Multiplier	1
R.Time (min)	Intensity
0.00195	58.00
0.01862	56.36
0.03528	56.32
0.05195	58.50
0.06862	59.86
0.08528	58.28
0.10195	57.97
0.11862	58.01
0.13528	58.01
0.15195	58.01
0.16862	58.00
0.18528	58.00
0.20195	58.00
0.21862	58.00
0.23528	58.00
0.25195	58.00
0.26862	58.00
0.28528	58.00
0.30195	58.00
0.31862	58.00
0.33528	58.00
0.35195	58.00
0.36862	58.00
0.38528	58.00
0.40195	58.00
0.41862	58.00
0.43528	58.00
0.45195	58.00
0.46862	58.00
0.48528	58.00
0.50195	58.00
0.51862	58.00
0.53528	58.00
0.55195	58.00
0.56862	58.00
0.58528	58.00
0.60195	58.00
0.61862	58.00
0.63528	58.00
0.65195	58.00
0.66862	58.00
0.68528	58.00
0.70195	58.00
0.71862	58.00
0.73528	58.00
0.75195	58.00
0.76862	58.00
0.78528	58.00
0.80195	58.00
0.81862	58.00
0.83528	58.00
0.85195	58.00
0.86862	58.00
0.88528	58.00
0.90195	58.00
0.91862	58.00
0.93528	58.00
0.95195	58.00
0.96862	58.00
0.98528	58.00
1.00195	58.00
1.01862	58.00
1.03528	58.00
1.05195	58.00
1.06862	58.00
1.08528	58.00
1.10195	58.00
1.11862	58.00
1.13528	58.00
1.15195	58.00
1.16862	58.00
1.18528	58.00
1.20195	58.00
1.21862	58.00
1.23528	58.00
1.25195	58.00
1.26862	58.00
1.28528	58.00
1.30195	58.00
1.31862	58.00
1.33528	58.00
1.35195	58.00
1.36862	58.00
1.38528	58.00
1.40195	58.00
1.41862	58.00
1.43528	58.00
1.45195	58.00
1.46862	58.00
1.48528	58.00
1.50195	58.00
1.51862	58.00
1.53528	58.00
1.55195	58.00
1.56862	58.00
1.58528	58.00
1.60195	58.00
1.61862	58.00
1.63528	58.00
1.65195	58.00
1.66862	58.01
1.68528	58.01
1.70195	58.00
1.71862	58.00
1.73528	58.00
1.75195	58.00
1.76862	58.00
1.78528	58.00
1.80195	58.00
1.81862	58.00
1.83528	58.00
1.85195	58.00
1.86862	58.00
1.88528	58.00
1.90195	58.00
1.91862	58.00
1.93528	58.00
1.95195	58.00
1.96862	58.00
1.98528	58.00
2.00195	58.00
2.01862	58.00
2.03528	58.00
2.05195	58.00
2.06862	58.00
2.08528	58.00
2.10195	58.00
2.11862	58.00
2.13528	58.00
2.15195	58.00
2.16862	58.00
2.18528	58.00
2.20195	58.00
2.21862	58.00
2.23528	58.00
2.25195	58.00
2.26862	58.00
2.28528	58.00
2.30195	58.00
2.31862	58.00
2.33528	58.00
2.35195	58.00
2.36862	58.00
2.38528	57.99
2.40195	57.99
2.41862	58.00
2.43528	58.00
2.45195	58.00
2.46862	58.00
2.48528	58.00
2.50195	58.00
2.51862	58.01
2.53528	57.99
2.55195	58.00
2.56862	58.00
2.58528	58.00
2.60195	58.00
2.61862	58.00
2.63528	58.00
2.65195	58.00
2.66862	58.00
2.68528	58.00
2.70195	58.00
2.71862	58.00
2.73528	58.00
2.75195	58.00
2.76862	58.00
2.78528	58.00
2.80195	58.00
2.81862	58.00
2.83528	58.00
2.85195	58.00
2.86862	58.00
2.88528	58.00
2.90195	58.00
2.91862	58.00
2.93528	58.00
2.95195	58.00
2.96862	58.00
2.98528	58.00
3.00195	58.00
3.01862	58.00
3.03528	58.00
3.05195	58.00
3.06862	58.00
3.08528	58.00
3.10195	58.00
3.11862	58.00
3.13528	58.00
3.15195	58.00
3.16862	58.00
3.18528	58.00
3.20195	58.00
3.21862	58.00
3.23528	58.00
3.25195	58.00
3.26862	58.00
3.28528	58.00
3.30195	58.00
3.31862	58.00
3.33528	58.00
3.35195	58.00
3.36862	58.00
3.38528	58.00
3.40195	58.00
3.41862	58.00
3.43528	58.00
3.45195	58.00
3.46862	58.00
3.48528	58.00
3.50195	58.00
3.51862	58.00
3.53528	58.00
3.55195	58.00
3.56862	58.00
3.58528	58.00
3.60195	58.00
3.61862	58.00
3.63528	58.00
3.65195	58.00
3.66862	58.00
3.68528	58.00
3.70195	58.00
3.71862	58.00
3.73528	58.00
3.75195	58.00
3.76862	58.00
3.78528	58.00
3.80195	58.00
3.81862	58.00
3.83528	58.00
3.85195	58.00
3.86862	58.00
3.88528	58.00
3.90195	58.00
3.91862	58.00
3.93528	58.00
3.95195	58.00
3.96862	58.00
3.98528	58.00

[Status Trace (Carrier Gas Flow)]
Interval(msec)	1000
# of Points	240
Start Time(min)	0.002
End Time(min)	3.985
Intensity Units	
Intensity Multiplier	1
R.Time (min)	Intensity
0.00195	34.52
0.01862	34.52
0.03528	34.55
0.05195	34.54
0.06862	34.49
0.08528	34.52
0.10195	34.52
0.11862	34.52
0.13528	34.52
0.15195	34.52
0.16862	34.52
0.18528	34.52
0.20195	34.52
0.21862	34.52
0.23528	34.52
0.25195	34.52
0.26862	34.52
0.28528	34.52
0.30195	34.52
0.31862	34.52
0.33528	34.52
0.35195	34.52
0.36862	34.52
0.38528	34.52
0.40195	34.52
0.41862	34.52
0.43528	34.52
0.45195	34.52
0.46862	34.52
0.48528	34.52
0.50195	34.51
0.51862	34.52
0.53528	34.52
0.55195	34.52
0.56862	34.52
0.58528	34.52
0.60195	34.52
0.61862	34.52
0.63528	34.52
0.65195	34.52
0.66862	34.53
0.68528	34.53
0.70195	34.52
0.71862	34.52
0.73528	34.52
0.75195	34.52
0.76862	34.52
0.78528	34.51
0.80195	34.51
0.81862	34.51
0.83528	34.51
0.85195	34.51
0.86862	34.53
0.88528	34.52
0.90195	34.52
0.91862	34.51
0.93528	34.51
0.95195	34.51
0.96862	34.53
0.98528	34.51
1.00195	34.52
1.01862	34.52
1.03528	34.51
1.05195	34.52
1.06862	34.52
1.08528	34.51
1.10195	34.52
1.11862	34.52
1.13528	34.53
1.15195	34.52
1.16862	34.51
1.18528	34.52
1.20195	34.51
1.21862	34.51
1.23528	34.52
1.25195	34.52
1.26862	34.51
1.28528	34.52
1.30195	34.52
1.31862	34.52
1.33528	34.52
1.35195	34.52
1.36862	34.52
1.38528	34.52
1.40195	34.52
1.41862	34.52
1.43528	34.51
1.45195	34.52
1.46862	34.52
1.48528	34.52
1.50195	34.52
1.51862	34.52
1.53528	34.52
1.55195	34.52
1.56862	34.52
1.58528	34.52
1.60195	34.52
1.61862	34.52
1.63528	34.52
1.65195	34.52
1.66862	34.52
1.68528	34.52
1.70195	34.52
1.71862	34.51
1.73528	34.52
1.75195	34.52
1.76862	34.52
1.78528	34.52
1.80195	34.52
1.81862	34.52
1.83528	34.52
1.85195	34.52
1.86862	34.52
1.88528	34.52
1.90195	34.52
1.91862	34.52
1.93528	34.52
1.95195	34.52
1.96862	34.52
1.98528	34.52
2.00195	34.52
2.01862	34.52
2.03528	34.52
2.05195	34.52
2.06862	34.52
2.08528	34.52
2.10195	34.52
2.11862	34.52
2.13528	34.52
2.15195	34.52
2.16862	34.52
2.18528	34.52
2.20195	34.52
2.21862	34.52
2.23528	34.51
2.25195	34.52
2.26862	34.52
2.28528	34.52
2.30195	34.52
2.31862	34.52
2.33528	34.52
2.35195	34.52
2.36862	34.52
2.38528	34.54
2.40195	34.52
2.41862	34.52
2.43528	34.52
2.45195	34.52
2.46862	34.52
2.48528	34.52
2.50195	34.53
2.51862	34.52
2.53528	34.52
2.55195	34.53
2.56862	34.52
2.58528	34.52
2.60195	34.52
2.61862	34.52
2.63528	34.52
2.65195	34.52
2.66862	34.52
2.68528	34.52
2.70195	34.52
2.71862	34.51
2.73528	34.52
2.75195	34.52
2.76862	34.52
2.78528	34.52
2.80195	34.52
2.81862	34.52
2.83528	34.52
2.85195	34.51
2.86862	34.52
2.88528	34.52
2.90195	34.52
2.91862	34.52
2.93528	34.52
2.95195	34.52
2.96862	34.52
2.98528	34.52
3.00195	34.52
3.01862	34.52
3.03528	34.52
3.05195	34.52
3.06862	34.52
3.08528	34.52
3.10195	34.52
3.11862	34.52
3.13528	34.52
3.15195	34.52
3.16862	34.52
3.18528	34.52
3.20195	34.52
3.21862	34.52
3.23528	34.52
3.25195	34.52
3.26862	34.51
3.28528	34.52
3.30195	34.52
3.31862	34.51
3.33528	34.52
3.35195	34.52
3.36862	34.52
3.38528	34.52
3.40195	34.52
3.41862	34.51
3.43528	34.52
3.45195	34.52
3.46862	34.52
3.48528	34.52
3.50195	34.52
3.51862	34.51
3.53528	34.52
3.55195	34.52
3.56862	34.52
3.58528	34.52
3.60195	34.51
3.61862	34.52
3.63528	34.52
3.65195	34.52
3.66862	34.52
3.68528	34.53
3.70195	34.52
3.71862	34.51
3.73528	34.51
3.75195	34.53
3.76862	34.51
3.78528	34.52
3.80195	34.53
3.81862	34.52
3.83528	34.52
3.85195	34.51
3.86862	34.51
3.88528	34.51
3.90195	34.52
3.91862	34.52
3.93528	34.52
3.95195	34.52
3.96862	34.53
3.98528	34.51

[Status Trace (Column Flow)]
Interval(msec)	1000
# of Points	240
Start Time(min)	0.002
End Time(min)	3.985
Intensity Units	
Intensity Multiplier	1
R.Time (min)	Intensity
0.00195	5.57
0.01862	5.38
0.03528	5.37
0.05195	5.63
0.06862	5.79
0.08528	5.60
0.10195	5.57
0.11862	5.57
0.13528	5.57
0.15195	5.57
0.16862	5.57
0.18528	5.57
0.20195	5.57
0.21862	5.57
0.23528	5.57
0.25195	5.57
0.26862	5.57
0.28528	5.57
0.30195	5.57
0.31862	5.57
0.33528	5.57
0.35195	5.57
0.36862	5.57
0.38528	5.57
0.40195	5.57
0.41862	5.57
0.43528	5.57
0.45195	5.57
0.46862	5.57
0.48528	5.57
0.50195	5.57
0.51862	5.57
0.53528	5.57
0.55195	5.57
0.56862	5.57
0.58528	5.57
0.60195	5.57
0.61862	5.57
0.63528	5.57
0.65195	5.57
0.66862	5.57
0.68528	5.57
0.70195	5.57
0.71862	5.57
0.73528	5.57
0.75195	5.57
0.76862	5.57
0.78528	5.57
0.80195	5.57
0.81862	5.57
0.83528	5.57
0.85195	5.57
0.86862	5.57
0.88528	5.57
0.90195	5.57
0.91862	5.57
0.93528	5.57
0.95195	5.57
0.96862	5.57
0.98528	5.57
1.00195	5.57
1.01862	5.57
1.03528	5.57
1.05195	5.57
1.06862	5.57
1.08528	5.57
1.10195	5.57
1.11862	5.57
1.13528	5.57
1.15195	5.57
1.16862	5.57
1.18528	5.57
1.20195	5.57
1.21862	5.57
1.23528	5.57
1.25195	5.57
1.26862	5.57
1.28528	5.57
1.30195	5.57
1.31862	5.57
1.33528	5.57
1.35195	5.57
1.36862	5.57
1.38528	5.57
1.40195	5.57
1.41862	5.57
1.43528	5.57
1.45195	5.57
1.46862	5.57
1.48528	5.57
1.50195	5.57
1.51862	5.57
1.53528	5.57
1.55195	5.57
1.56862	5.57
1.58528	5.57
1.60195	5.57
1.61862	5.57
1.63528	5.56
1.65195	5.56
1.66862	5.55
1.68528	5.54
1.70195	5.52
1.71862	5.51
1.73528	5.50
1.75195	5.49
1.76862	5.48
1.78528	5.47
1.80195	5.46
1.81862	5.45
1.83528	5.44
1.85195	5.43
1.86862	5.42
1.88528	5.41
1.90195	5.40
1.91862	5.39
1.93528	5.38
1.95195	5.37
1.96862	5.36
1.98528	5.35
2.00195	5.34
2.01862	5.33
2.03528	5.32
2.05195	5.31
2.06862	5.30
2.08528	5.29
2.10195	5.29
2.11862	5.28
2.13528	5.27
2.15195	5.26
2.16862	5.25
2.18528	5.24
2.20195	5.23
2.21862	5.22
2.23528	5.21
2.25195	5.20
2.26862	5.19
2.28528	5.18
2.30195	5.17
2.31862	5.16
2.33528	5.15
2.35195	5.14
2.36862	5.14
2.38528	5.13
2.40195	5.13
2.41862	5.13
2.43528	5.13
2.45195	5.13
2.46862	5.13
2.48528	5.13
2.50195	5.13
2.51862	5.13
2.53528	5.13
2.55195	5.13
2.56862	5.13
2.58528	5.13
2.60195	5.13
2.61862	5.13
2.63528	5.13
2.65195	5.13
2.66862	5.13
2.68528	5.13
2.70195	5.13
2.71862	5.13
2.73528	5.13
2.75195	5.13
2.76862	5.13
2.78528	5.13
2.80195	5.13
2.81862	5.13
2.83528	5.13
2.85195	5.13
2.86862	5.13
2.88528	5.13
2.90195	5.13
2.91862	5.13
2.93528	5.13
2.95195	5.13
2.96862	5.12
2.98528	5.12
3.00195	5.12
3.01862	5.12
3.03528	5.12
3.05195	5.12
3.06862	5.12
3.08528	5.12
3.10195	5.12
3.11862	5.12
3.13528	5.12
3.15195	5.12
3.16862	5.12
3.18528	5.12
3.20195	5.12
3.21862	5.12
3.23528	5.12
3.25195	5.12
3.26862	5.12
3.28528	5.12
3.30195	5.12
3.31862	5.12
3.33528	5.12
3.35195	5.12
3.36862	5.12
3.38528	5.12
3.40195	5.12
3.41862	5.12
3.43528	5.12
3.45195	5.12
3.46862	5.12
3.48528	5.12
3.50195	5.12
3.51862	5.12
3.53528	5.12
3.55195	5.12
3.56862	5.12
3.58528	5.12
3.60195	5.12
3.61862	5.12
3.63528	5.12
3.65195	5.12
3.66862	5.12
3.68528	5.12
3.70195	5.12
3.71862	5.12
3.73528	5.12
3.75195	5.12
3.76862	5.12
3.78528	5.12
3.80195	5.12
3.81862	5.12
3.83528	5.12
3.85195	5.12
3.86862	5.12
3.88528	5.12
3.90195	5.12
3.91862	5.12
3.93528	5.12
3.95195	5.12
3.96862	5.12
3.98528	5.12

[Status Trace (Linear Velocity)]
Interval(msec)	1000
# of Points	240
Start Time(min)	0.002
End Time(min)	3.985
Intensity Units	
Intensity Multiplier	1
R.Time (min)	Intensity
0.00195	39.02
0.01862	37.94
0.03528	37.92
0.05195	39.35
0.06862	40.24
0.08528	39.21
0.10195	39.00
0.11862	39.03
0.13528	39.03
0.15195	39.03
0.16862	39.03
0.18528	39.03
0.20195	39.03
0.21862	39.03
0.23528	39.03
0.25195	39.03
0.26862	39.03
0.28528	39.03
0.30195	39.03
0.31862	39.03
0.33528	39.03
0.35195	39.03
0.36862	39.03
0.38528	39.03
0.40195	39.03
0.41862	39.03
0.43528	39.03
0.45195	39.03
0.46862	39.03
0.48528	39.03
0.50195	39.03
0.51862	39.03
0.53528	39.03
0.55195	39.03
0.56862	39.03
0.58528	39.03
0.60195	39.03
0.61862	39.03
0.63528	39.03
0.65195	39.03
0.66862	39.03
0.68528	39.03
0.70195	39.03
0.71862	39.03
0.73528	39.03
0.75195	39.03
0.76862	39.03
0.78528	39.03
0.80195	39.03
0.81862	39.03
0.83528	39.03
0.85195	39.03
0.86862	39.03
0.88528	39.03
0.90195	39.03
0.91862	39.03
0.93528	39.03
0.95195	39.03
0.96862	39.03
0.98528	39.03
1.00195	39.03
1.01862	39.03
1.03528	39.03
1.05195	39.03
1.06862	39.03
1.08528	39.03
1.10195	39.02
1.11862	39.03
1.13528	39.03
1.15195	39.03
1.16862	39.03
1.18528	39.03
1.20195	39.03
1.21862	39.03
1.23528	39.03
1.25195	39.03
1.26862	39.03
1.28528	39.03
1.30195	39.03
1.31862	39.03
1.33528	39.03
1.35195	39.03
1.36862	39.03
1.38528	39.03
1.40195	39.03
1.41862	39.03
1.43528	39.03
1.45195	39.03
1.46862	39.03
1.48528	39.03
1.50195	39.03
1.51862	39.03
1.53528	39.03
1.55195	39.03
1.56862	39.03
1.58528	39.03
1.60195	39.03
1.61862	39.02
1.63528	39.00
1.65195	38.99
1.66862	38.95
1.68528	38.92
1.70195	38.88
1.71862	38.85
1.73528	38.82
1.75195	38.79
1.76862	38.75
1.78528	38.72
1.80195	38.69
1.81862	38.66
1.83528	38.63
1.85195	38.60
1.86862	38.57
1.88528	38.54
1.90195	38.51
1.91862	38.48
1.93528	38.44
1.95195	38.42
1.96862	38.38
1.98528	38.35
2.00195	38.33
2.01862	38.29
2.03528	38.26
2.05195	38.24
2.06862	38.20
2.08528	38.17
2.10195	38.15
2.11862	38.12
2.13528	38.09
2.15195	38.06
2.16862	38.03
2.18528	38.00
2.20195	37.97
2.21862	37.94
2.23528	37.91
2.25195	37.88
2.26862	37.85
2.28528	37.82
2.30195	37.79
2.31862	37.76
2.33528	37.73
2.35195	37.70
2.36862	37.68
2.38528	37.66
2.40195	37.66
2.41862	37.66
2.43528	37.67
2.45195	37.66
2.46862	37.66
2.48528	37.66
2.50195	37.66
2.51862	37.67
2.53528	37.66
2.55195	37.66
2.56862	37.66
2.58528	37.66
2.60195	37.66
2.61862	37.66
2.63528	37.66
2.65195	37.66
2.66862	37.66
2.68528	37.66
2.70195	37.65
2.71862	37.66
2.73528	37.66
2.75195	37.66
2.76862	37.66
2.78528	37.65
2.80195	37.65
2.81862	37.65
2.83528	37.65
2.85195	37.65
2.86862	37.65
2.88528	37.65
2.90195	37.65
2.91862	37.65
2.93528	37.64
2.95195	37.64
2.96862	37.64
2.98528	37.64
3.00195	37.64
3.01862	37.64
3.03528	37.64
3.05195	37.64
3.06862	37.64
3.08528	37.64
3.10195	37.64
3.11862	37.64
3.13528	37.64
3.15195	37.64
3.16862	37.64
3.18528	37.64
3.20195	37.63
3.21862	37.63
3.23528	37.64
3.25195	37.64
3.26862	37.64
3.28528	37.64
3.30195	37.64
3.31862	37.64
3.33528	37.64
3.35195	37.64
3.36862	37.64
3.38528	37.64
3.40195	37.64
3.41862	37.64
3.43528	37.64
3.45195	37.64
3.46862	37.64
3.48528	37.64
3.50195	37.64
3.51862	37.64
3.53528	37.64
3.55195	37.64
3.56862	37.64
3.58528	37.64
3.60195	37.64
3.61862	37.64
3.63528	37.64
3.65195	37.64
3.66862	37.64
3.68528	37.64
3.70195	37.64
3.71862	37.64
3.73528	37.64
3.75195	37.64
3.76862	37.64
3.78528	37.64
3.80195	37.64
3.81862	37.64
3.83528	37.64
3.85195	37.64
3.86862	37.64
3.88528	37.64
3.90195	37.64
3.91862	37.64
3.93528	37.64
3.95195	37.64
3.96862	37.64
3.98528	37.64

