[Header]
Application Name	LabSolutions
Version	5.110
Data File Name	C:\Users\User\Desktop\GC Analyses\Jack\Nachusa Grasslands Sampling\T0 Timepoint July 12th\T0_07122022_090.gcd
Output Date	3/14/2023
Output Time	3:40:39 PM

[File Information]
Type	Data File
Generated	3/7/2023 11:51:11 PM
Generated by	System Administrator
Modified	3/7/2023 11:57:57 PM
Modified by	System Administrator

[Sample Information]
Operator Name	System Administrator
Acquired	3/7/2023 11:53:56 PM
Sample Type	0:Unknown
Level	0
Sample Name	090
Sample ID	090
ISTD Amount1	1
ISTD Amount2	1
ISTD Amount3	1
ISTD Amount4	1
ISTD Amount5	1
ISTD Amount6	1
ISTD Amount7	1
ISTD Amount8	1
ISTD Amount9	1
ISTD Amount10	1
ISTD Amount11	1
ISTD Amount12	1
ISTD Amount13	1
ISTD Amount14	1
ISTD Amount15	1
ISTD Amount16	1
ISTD Amount17	1
ISTD Amount18	1
ISTD Amount19	1
ISTD Amount20	1
ISTD Amount21	1
ISTD Amount22	1
ISTD Amount23	1
ISTD Amount24	1
ISTD Amount25	1
ISTD Amount26	1
ISTD Amount27	1
ISTD Amount28	1
ISTD Amount29	1
ISTD Amount30	1
ISTD Amount31	1
ISTD Amount32	1
Sample Amount	1
Dilution Factor	1
Vial#	89
Injection Volume	1
Injection Count	1
Bar Code	

[Original Files]
Data File	C:\Users\User\Desktop\GC Analyses\Jack\Nachusa Grasslands Sampling\T0 Timepoint July 12th\T0_07122022_090.gcd
Method File	C:\LabSolutions\Data\GHG_4min_2022\ghg3_togas_w_acet_4 min_new_int.gcm
Batch File	C:\LabSolutions\Data\AutoSamplerTesting\T0_07122022.gcb
Report Format File	c:\LabSolutions\System\DEFAULT.lsr

[File Description]


[Configuration]
Instrument Name	C0B7VH3-Instrument1
Instrument #	1
Line #	1
# of Detectors	3
Detector ID	DET#1	DET#2	DET#3
Detector Name	FID	PTCD	ECD
# of Channels	1	1	1

[Peak Table(Ch1)]
# of Peaks	3
Peak#	R.Time	I.Time	F.Time	Area	Height	A/H	Conc.	Mark	ID#	Name	k'	Plate #	Plate Ht.	Tailing	Resolution	Sep.Factor	Area Ratio	Height Ratio	Conc. %	Norm Conc.
1	1.476	1.435	1.538	31131	14688	2.120	219.784	   	1	CO	0.000	9369	16.011	1.323	0.000	0.000	0	0	35.567	35.567
2	1.567	1.538	1.641	5078	2415	2.102	98.195	 V 	2	CH4	0.062	10258	14.623	0.000	1.492	0.000	0	0	15.891	15.891
3	1.996	1.949	2.477	1195214	565210	2.115	299.966	   	3	CO2	0.353	17326	8.658	1.303	7.000	5.680	0	0	48.543	48.543

[Peak Table(Ch2)]
# of Peaks	0

[Peak Table(Ch3)]
# of Peaks	4
Peak#	R.Time	I.Time	F.Time	Area	Height	A/H	Conc.	Mark	ID#	Name	k'	Plate #	Plate Ht.	Tailing	Resolution	Sep.Factor	Area Ratio	Height Ratio	Conc. %	Norm Conc.
1	2.458	2.235	2.521	2345	482	4.862	0.000	   			0.000	8430	17.794	0.000	0.000	0.000	0	0	0.000	0.000
2	2.543	2.521	2.631	876	211	4.146	0.000	 V 			0.034	3234	46.384	0.000	0.590	0.000	0	0	0.000	0.000
3	2.686	2.645	2.733	154	55	2.784	0.000	   			0.092	16752	8.954	1.086	1.092	2.696	0	0	0.000	0.000
4	2.873	2.796	3.104	18098	4806	3.766	0.462	   	1	N2O	0.169	13485	11.123	1.642	2.056	1.823	0	0	100.000	100.000

[Compound Results(Ch1)]
# of IDs	6
ID#	Name	R.Time	Area	Height	Conc.	Curve	3rd	2nd	1st	Constant	Area Ratio	Height Ratio	Conc. %	Norm Conc.
1	CO	1.476	31131	14688	219.784	Linear	0.000000e+00	0.000000e+00	1.416423e+002	0.000000e+00	0	0	35.567	35.567
2	CH4	1.567	5078	2415	98.195	Linear	0.000000e+00	0.000000e+00	5.171738e+001	0.000000e+00	0	0	15.891	15.891
3	CO2	1.996	1195214	565210	299.966	Linear	0.000000e+00	0.000000e+00	3.984494e+003	0.000000e+00	0	0	48.543	48.543
4	Ethylene	0.000	0	0	0.000	Linear	0.000000e+00	0.000000e+00	0.000000e+00	0.000000e+00	0	0	0.000	0.000
5	Acetylene	0.000	0	0	0.000	Linear	0.000000e+00	0.000000e+00	0.000000e+00	0.000000e+00	0	0	0.000	0.000
6	Ethane	0.000	0	0	0.000	Linear	0.000000e+00	0.000000e+00	0.000000e+00	0.000000e+00	0	0	0.000	0.000

[Compound Results(Ch2)]
# of IDs	5
ID#	Name	R.Time	Area	Height	Conc.	Curve	3rd	2nd	1st	Constant	Area Ratio	Height Ratio	Conc. %	Norm Conc.
1	Hydrogen	0.000	0	0	0.000	Linear	0.000000e+00	0.000000e+00	0.000000e+00	0.000000e+00	0	0	0.000	0.000
2	Oxygen	0.000	0	0	0.000	Linear	0.000000e+00	0.000000e+00	0.000000e+00	0.000000e+00	0	0	0.000	0.000
3	Nitrogen	0.000	0	0	0.000	Linear	0.000000e+00	0.000000e+00	0.000000e+00	0.000000e+00	0	0	0.000	0.000
4	Methane	0.000	0	0	0.000	Linear	0.000000e+00	0.000000e+00	0.000000e+00	0.000000e+00	0	0	0.000	0.000
5	Carbon Monoxide	0.000	0	0	0.000	Linear	0.000000e+00	0.000000e+00	0.000000e+00	0.000000e+00	0	0	0.000	0.000

[Compound Results(Ch3)]
# of IDs	2
ID#	Name	R.Time	Area	Height	Conc.	Curve	3rd	2nd	1st	Constant	Area Ratio	Height Ratio	Conc. %	Norm Conc.
1	N2O	2.873	18098	4806	0.462	Linear	0.000000e+00	0.000000e+00	3.915173e+004	0.000000e+00	0	0	100.000	100.000
2	SF6	0.000	0	0	0.000	Linear	0.000000e+00	0.000000e+00	0.000000e+00	0.000000e+00	0	0	0.000	0.000

[Group Results(Ch1)]
# of Groups	0

[Group Results(Ch2)]
# of Groups	0

[Group Results(Ch3)]
# of Groups	0

[Chromatogram (Ch1)]
Interval(msec)	220
# of Points	1091
Start Time(min)	0.002
End Time(min)	3.998
R.Time (min)	Intensity
0.00167	-8
0.00533	-12
0.00900	-11
0.01267	-7
0.01633	1
0.02000	7
0.02367	12
0.02733	16
0.03100	16
0.03467	11
0.03833	0
0.04200	-10
0.04567	-18
0.04933	-22
0.05300	-23
0.05667	-21
0.06033	-15
0.06400	-10
0.06767	-9
0.07133	-10
0.07500	-10
0.07867	-3
0.08233	9
0.08600	15
0.08967	13
0.09333	7
0.09700	-2
0.10067	-11
0.10433	-16
0.10800	-14
0.11167	-9
0.11533	-5
0.11900	-5
0.12267	-1
0.12633	3
0.13000	7
0.13367	10
0.13733	16
0.14100	25
0.14467	31
0.14833	31
0.15200	26
0.15567	20
0.15933	14
0.16300	11
0.16667	9
0.17033	4
0.17400	-5
0.17767	-14
0.18133	-19
0.18500	-20
0.18867	-19
0.19233	-20
0.19600	-24
0.19967	-23
0.20333	-16
0.20700	-10
0.21067	-6
0.21433	-4
0.21800	-4
0.22167	-5
0.22533	-7
0.22900	-6
0.23267	-6
0.23633	-5
0.24000	-2
0.24367	1
0.24733	6
0.25100	12
0.25467	17
0.25833	21
0.26200	25
0.26567	25
0.26933	21
0.27300	15
0.27667	11
0.28033	7
0.28400	4
0.28767	-1
0.29133	-6
0.29500	-9
0.29867	-8
0.30233	-6
0.30600	-7
0.30967	-5
0.31333	1
0.31700	5
0.32067	9
0.32433	11
0.32800	10
0.33167	10
0.33533	12
0.33900	18
0.34267	24
0.34633	31
0.35000	34
0.35367	32
0.35733	27
0.36100	22
0.36467	18
0.36833	17
0.37200	16
0.37567	17
0.37933	19
0.38300	20
0.38667	18
0.39033	17
0.39400	17
0.39767	18
0.40133	18
0.40500	15
0.40867	14
0.41233	17
0.41600	18
0.41967	17
0.42333	16
0.42700	17
0.43067	20
0.43433	22
0.43800	17
0.44167	13
0.44533	10
0.44900	10
0.45267	8
0.45633	5
0.46000	3
0.46367	2
0.46733	2
0.47100	5
0.47467	10
0.47833	11
0.48200	10
0.48567	11
0.48933	19
0.49300	30
0.49667	36
0.50033	35
0.50400	30
0.50767	19
0.51133	7
0.51500	1
0.51867	-1
0.52233	-4
0.52600	-7
0.52967	-7
0.53333	-7
0.53700	-5
0.54067	0
0.54433	7
0.54800	10
0.55167	10
0.55533	8
0.55900	1
0.56267	-4
0.56633	-7
0.57000	-4
0.57367	0
0.57733	1
0.58100	0
0.58467	-1
0.58833	1
0.59200	1
0.59567	2
0.59933	5
0.60300	10
0.60667	13
0.61033	16
0.61400	18
0.61767	21
0.62133	27
0.62500	26
0.62867	16
0.63233	7
0.63600	7
0.63967	12
0.64333	17
0.64700	19
0.65067	20
0.65433	21
0.65800	17
0.66167	11
0.66533	8
0.66900	9
0.67267	11
0.67633	10
0.68000	9
0.68367	10
0.68733	12
0.69100	16
0.69467	19
0.69833	22
0.70200	21
0.70567	17
0.70933	11
0.71300	5
0.71667	1
0.72033	-2
0.72400	-5
0.72767	-5
0.73133	-2
0.73500	4
0.73867	11
0.74233	18
0.74600	19
0.74967	15
0.75333	10
0.75700	5
0.76067	2
0.76433	4
0.76800	8
0.77167	12
0.77533	14
0.77900	14
0.78267	12
0.78633	10
0.79000	8
0.79367	9
0.79733	10
0.80100	11
0.80467	11
0.80833	6
0.81200	-1
0.81567	-4
0.81933	-2
0.82300	2
0.82667	5
0.83033	5
0.83400	5
0.83767	3
0.84133	2
0.84500	4
0.84867	10
0.85233	19
0.85600	26
0.85967	28
0.86333	28
0.86700	27
0.87067	22
0.87433	16
0.87800	7
0.88167	-3
0.88533	-11
0.88900	-15
0.89267	-17
0.89633	-18
0.90000	-17
0.90367	-15
0.90733	-10
0.91100	-1
0.91467	13
0.91833	25
0.92200	30
0.92567	24
0.92933	13
0.93300	3
0.93667	-1
0.94033	2
0.94400	6
0.94767	9
0.95133	13
0.95500	16
0.95867	19
0.96233	19
0.96600	16
0.96967	14
0.97333	12
0.97700	11
0.98067	10
0.98433	11
0.98800	17
0.99167	23
0.99533	25
0.99900	26
1.00267	24
1.00633	21
1.01000	15
1.01367	10
1.01733	11
1.02100	16
1.02467	18
1.02833	19
1.03200	21
1.03567	24
1.03933	27
1.04300	32
1.04667	33
1.05033	33
1.05400	30
1.05767	27
1.06133	26
1.06500	29
1.06867	30
1.07233	27
1.07600	27
1.07967	30
1.08333	30
1.08700	30
1.09067	31
1.09433	30
1.09800	27
1.10167	25
1.10533	24
1.10900	25
1.11267	25
1.11633	21
1.12000	16
1.12367	17
1.12733	19
1.13100	24
1.13467	28
1.13833	34
1.14200	40
1.14567	45
1.14933	45
1.15300	40
1.15667	32
1.16033	27
1.16400	26
1.16767	23
1.17133	15
1.17500	12
1.17867	17
1.18233	23
1.18600	26
1.18967	23
1.19333	21
1.19700	20
1.20067	15
1.20433	12
1.20800	18
1.21167	23
1.21533	23
1.21900	18
1.22267	12
1.22633	4
1.23000	0
1.23367	2
1.23733	7
1.24100	11
1.24467	15
1.24833	19
1.25200	26
1.25567	30
1.25933	30
1.26300	26
1.26667	21
1.27033	19
1.27400	22
1.27767	27
1.28133	30
1.28500	29
1.28867	27
1.29233	23
1.29600	20
1.29967	21
1.30333	25
1.30700	29
1.31067	31
1.31433	29
1.31800	27
1.32167	25
1.32533	20
1.32900	13
1.33267	9
1.33633	8
1.34000	15
1.34367	24
1.34733	30
1.35100	30
1.35467	27
1.35833	25
1.36200	21
1.36567	16
1.36933	11
1.37300	6
1.37667	3
1.38033	4
1.38400	8
1.38767	13
1.39133	19
1.39500	26
1.39867	29
1.40233	28
1.40600	25
1.40967	22
1.41333	21
1.41700	22
1.42067	20
1.42433	14
1.42800	3
1.43167	-7
1.43533	-7
1.43900	20
1.44267	125
1.44633	381
1.45000	1001
1.45367	2426
1.45733	4787
1.46100	7622
1.46467	10323
1.46833	12511
1.47200	14011
1.47567	14689
1.47933	14424
1.48300	13219
1.48667	11306
1.49033	9090
1.49400	6962
1.49767	5154
1.50133	3741
1.50500	2695
1.50867	1944
1.51233	1413
1.51600	1045
1.51967	790
1.52333	610
1.52700	481
1.53067	388
1.53433	322
1.53800	289
1.54167	325
1.54533	496
1.54900	828
1.55267	1263
1.55633	1699
1.56000	2062
1.56367	2315
1.56733	2437
1.57100	2409
1.57467	2213
1.57833	1882
1.58200	1496
1.58567	1131
1.58933	824
1.59300	585
1.59667	409
1.60033	286
1.60400	203
1.60767	151
1.61133	120
1.61500	99
1.61867	87
1.62233	81
1.62600	77
1.62967	73
1.63333	64
1.63700	51
1.64067	38
1.64433	29
1.64800	27
1.65167	28
1.65533	30
1.65900	33
1.66267	36
1.66633	40
1.67000	42
1.67367	41
1.67733	38
1.68100	35
1.68467	31
1.68833	25
1.69200	21
1.69567	19
1.69933	19
1.70300	22
1.70667	28
1.71033	35
1.71400	43
1.71767	47
1.72133	46
1.72500	40
1.72867	33
1.73233	26
1.73600	20
1.73967	17
1.74333	17
1.74700	17
1.75067	16
1.75433	16
1.75800	17
1.76167	19
1.76533	23
1.76900	26
1.77267	26
1.77633	25
1.78000	23
1.78367	20
1.78733	17
1.79100	15
1.79467	18
1.79833	24
1.80200	33
1.80567	41
1.80933	47
1.81300	49
1.81667	49
1.82033	46
1.82400	38
1.82767	28
1.83133	20
1.83500	14
1.83867	8
1.84233	6
1.84600	5
1.84967	6
1.85333	8
1.85700	13
1.86067	18
1.86433	23
1.86800	29
1.87167	31
1.87533	27
1.87900	22
1.88267	19
1.88633	17
1.89000	14
1.89367	12
1.89733	11
1.90100	13
1.90467	19
1.90833	25
1.91200	26
1.91567	23
1.91933	19
1.92300	16
1.92667	17
1.93033	22
1.93400	30
1.93767	38
1.94133	44
1.94500	50
1.94867	55
1.95233	73
1.95600	182
1.95967	781
1.96333	3439
1.96700	12448
1.97067	35914
1.97433	83642
1.97800	160289
1.98167	259781
1.98533	366752
1.98900	462629
1.99267	532091
1.99633	565302
2.00000	558103
2.00367	513491
2.00733	441894
2.01100	357815
2.01467	275091
2.01833	203062
2.02200	145631
2.02567	102653
2.02933	71883
2.03300	50493
2.03667	35890
2.04033	26013
2.04400	19343
2.04767	14810
2.05133	11690
2.05500	9508
2.05867	7950
2.06233	6807
2.06600	5947
2.06967	5287
2.07333	4766
2.07700	4340
2.08067	3982
2.08433	3677
2.08800	3415
2.09167	3189
2.09533	2991
2.09900	2812
2.10267	2654
2.10633	2516
2.11000	2393
2.11367	2281
2.11733	2175
2.12100	2075
2.12467	1989
2.12833	1916
2.13200	1848
2.13567	1786
2.13933	1723
2.14300	1661
2.14667	1600
2.15033	1541
2.15400	1490
2.15767	1444
2.16133	1401
2.16500	1362
2.16867	1322
2.17233	1282
2.17600	1243
2.17967	1212
2.18333	1187
2.18700	1166
2.19067	1144
2.19433	1118
2.19800	1089
2.20167	1063
2.20533	1038
2.20900	1014
2.21267	994
2.21633	976
2.22000	955
2.22367	931
2.22733	911
2.23100	896
2.23467	882
2.23833	867
2.24200	852
2.24567	834
2.24933	817
2.25300	800
2.25667	783
2.26033	766
2.26400	753
2.26767	746
2.27133	743
2.27500	740
2.27867	731
2.28233	720
2.28600	713
2.28967	707
2.29333	701
2.29700	696
2.30067	691
2.30433	682
2.30800	669
2.31167	656
2.31533	645
2.31900	634
2.32267	619
2.32633	605
2.33000	596
2.33367	591
2.33733	590
2.34100	589
2.34467	590
2.34833	590
2.35200	589
2.35567	587
2.35933	585
2.36300	583
2.36667	577
2.37033	564
2.37400	550
2.37767	541
2.38133	534
2.38500	529
2.38867	523
2.39233	521
2.39600	520
2.39967	520
2.40333	520
2.40700	519
2.41067	517
2.41433	516
2.41800	512
2.42167	511
2.42533	514
2.42900	519
2.43267	520
2.43633	514
2.44000	505
2.44367	498
2.44733	494
2.45100	493
2.45467	492
2.45833	489
2.46200	487
2.46567	485
2.46933	480
2.47300	471
2.47667	460
2.48033	453
2.48400	453
2.48767	456
2.49133	460
2.49500	467
2.49867	471
2.50233	472
2.50600	469
2.50967	466
2.51333	466
2.51700	470
2.52067	473
2.52433	475
2.52800	476
2.53167	477
2.53533	477
2.53900	478
2.54267	478
2.54633	475
2.55000	466
2.55367	456
2.55733	448
2.56100	445
2.56467	445
2.56833	445
2.57200	445
2.57567	445
2.57933	443
2.58300	441
2.58667	442
2.59033	445
2.59400	446
2.59767	444
2.60133	440
2.60500	436
2.60867	433
2.61233	435
2.61600	439
2.61967	439
2.62333	439
2.62700	442
2.63067	444
2.63433	443
2.63800	443
2.64167	444
2.64533	443
2.64900	438
2.65267	435
2.65633	441
2.66000	454
2.66367	463
2.66733	462
2.67100	454
2.67467	441
2.67833	429
2.68200	417
2.68567	407
2.68933	400
2.69300	395
2.69667	394
2.70033	395
2.70400	398
2.70767	402
2.71133	413
2.71500	427
2.71867	437
2.72233	442
2.72600	438
2.72967	432
2.73333	428
2.73700	424
2.74067	423
2.74433	426
2.74800	434
2.75167	441
2.75533	445
2.75900	443
2.76267	436
2.76633	431
2.77000	432
2.77367	436
2.77733	442
2.78100	444
2.78467	442
2.78833	437
2.79200	433
2.79567	431
2.79933	431
2.80300	431
2.80667	431
2.81033	431
2.81400	435
2.81767	440
2.82133	443
2.82500	446
2.82867	449
2.83233	448
2.83600	445
2.83967	443
2.84333	443
2.84700	446
2.85067	451
2.85433	455
2.85800	457
2.86167	455
2.86533	449
2.86900	439
2.87267	433
2.87633	432
2.88000	438
2.88367	444
2.88733	450
2.89100	454
2.89467	460
2.89833	464
2.90200	465
2.90567	465
2.90933	461
2.91300	452
2.91667	442
2.92033	436
2.92400	435
2.92767	441
2.93133	451
2.93500	457
2.93867	455
2.94233	448
2.94600	442
2.94967	438
2.95333	434
2.95700	430
2.96067	428
2.96433	427
2.96800	426
2.97167	427
2.97533	432
2.97900	439
2.98267	447
2.98633	457
2.99000	466
2.99367	471
2.99733	473
3.00100	472
3.00467	471
3.00833	469
3.01200	465
3.01567	459
3.01933	454
3.02300	449
3.02667	447
3.03033	452
3.03400	460
3.03767	466
3.04133	467
3.04500	462
3.04867	454
3.05233	446
3.05600	439
3.05967	434
3.06333	433
3.06700	440
3.07067	450
3.07433	457
3.07800	458
3.08167	455
3.08533	455
3.08900	456
3.09267	453
3.09633	448
3.10000	441
3.10367	432
3.10733	423
3.11100	416
3.11467	417
3.11833	425
3.12200	433
3.12567	437
3.12933	441
3.13300	442
3.13667	442
3.14033	440
3.14400	437
3.14767	436
3.15133	436
3.15500	432
3.15867	430
3.16233	429
3.16600	432
3.16967	437
3.17333	442
3.17700	447
3.18067	452
3.18433	453
3.18800	448
3.19167	443
3.19533	441
3.19900	443
3.20267	443
3.20633	444
3.21000	441
3.21367	438
3.21733	435
3.22100	434
3.22467	436
3.22833	439
3.23200	437
3.23567	436
3.23933	436
3.24300	436
3.24667	437
3.25033	440
3.25400	441
3.25767	437
3.26133	431
3.26500	429
3.26867	428
3.27233	431
3.27600	437
3.27967	440
3.28333	436
3.28700	427
3.29067	422
3.29433	422
3.29800	426
3.30167	429
3.30533	429
3.30900	427
3.31267	429
3.31633	431
3.32000	431
3.32367	432
3.32733	436
3.33100	439
3.33467	438
3.33833	434
3.34200	430
3.34567	427
3.34933	423
3.35300	418
3.35667	417
3.36033	417
3.36400	417
3.36767	416
3.37133	410
3.37500	402
3.37867	397
3.38233	395
3.38600	397
3.38967	401
3.39333	405
3.39700	409
3.40067	412
3.40433	414
3.40800	417
3.41167	422
3.41533	429
3.41900	436
3.42267	437
3.42633	434
3.43000	428
3.43367	422
3.43733	416
3.44100	414
3.44467	415
3.44833	415
3.45200	413
3.45567	411
3.45933	408
3.46300	409
3.46667	408
3.47033	407
3.47400	405
3.47767	404
3.48133	401
3.48500	401
3.48867	403
3.49233	403
3.49600	403
3.49967	401
3.50333	394
3.50700	389
3.51067	387
3.51433	388
3.51800	392
3.52167	397
3.52533	398
3.52900	401
3.53267	400
3.53633	397
3.54000	396
3.54367	399
3.54733	402
3.55100	406
3.55467	411
3.55833	415
3.56200	414
3.56567	410
3.56933	406
3.57300	403
3.57667	398
3.58033	389
3.58400	378
3.58767	371
3.59133	369
3.59500	371
3.59867	374
3.60233	376
3.60600	379
3.60967	384
3.61333	390
3.61700	393
3.62067	394
3.62433	396
3.62800	396
3.63167	391
3.63533	385
3.63900	381
3.64267	376
3.64633	368
3.65000	361
3.65367	359
3.65733	359
3.66100	363
3.66467	367
3.66833	372
3.67200	374
3.67567	377
3.67933	382
3.68300	384
3.68667	380
3.69033	372
3.69400	365
3.69767	359
3.70133	359
3.70500	363
3.70867	366
3.71233	372
3.71600	379
3.71967	381
3.72333	379
3.72700	374
3.73067	367
3.73433	360
3.73800	359
3.74167	368
3.74533	377
3.74900	374
3.75267	363
3.75633	349
3.76000	339
3.76367	335
3.76733	332
3.77100	327
3.77467	322
3.77833	325
3.78200	334
3.78567	344
3.78933	348
3.79300	346
3.79667	342
3.80033	338
3.80400	337
3.80767	338
3.81133	342
3.81500	345
3.81867	348
3.82233	350
3.82600	347
3.82967	338
3.83333	332
3.83700	329
3.84067	332
3.84433	339
3.84800	346
3.85167	351
3.85533	350
3.85900	343
3.86267	336
3.86633	331
3.87000	328
3.87367	327
3.87733	325
3.88100	324
3.88467	328
3.88833	337
3.89200	342
3.89567	345
3.89933	342
3.90300	338
3.90667	334
3.91033	332
3.91400	332
3.91767	330
3.92133	326
3.92500	321
3.92867	316
3.93233	312
3.93600	307
3.93967	304
3.94333	301
3.94700	297
3.95067	296
3.95433	298
3.95800	301
3.96167	305
3.96533	309
3.96900	311
3.97267	310
3.97633	309
3.98000	310
3.98367	311
3.98733	310
3.99100	307
3.99467	305
3.99833	304

[Chromatogram (Ch2)]
Interval(msec)	220
# of Points	1091
Start Time(min)	0.002
End Time(min)	3.998
R.Time (min)	Intensity
0.00167	0
0.00533	0
0.00900	-0
0.01267	-0
0.01633	-0
0.02000	-1
0.02367	-1
0.02733	-0
0.03100	-0
0.03467	-0
0.03833	-0
0.04200	-0
0.04567	-0
0.04933	-1
0.05300	-1
0.05667	-2
0.06033	-2
0.06400	-3
0.06767	-3
0.07133	-3
0.07500	-4
0.07867	-4
0.08233	-4
0.08600	-4
0.08967	-4
0.09333	-4
0.09700	-4
0.10067	-4
0.10433	-5
0.10800	-5
0.11167	-5
0.11533	-5
0.11900	-5
0.12267	-5
0.12633	-5
0.13000	-5
0.13367	-5
0.13733	-6
0.14100	-6
0.14467	-6
0.14833	-6
0.15200	-6
0.15567	-5
0.15933	-5
0.16300	-5
0.16667	-5
0.17033	-4
0.17400	-4
0.17767	-4
0.18133	-4
0.18500	-4
0.18867	-5
0.19233	-5
0.19600	-5
0.19967	-5
0.20333	-5
0.20700	-5
0.21067	-5
0.21433	-4
0.21800	-4
0.22167	-4
0.22533	-4
0.22900	-4
0.23267	-4
0.23633	-4
0.24000	-4
0.24367	-4
0.24733	-4
0.25100	-4
0.25467	-4
0.25833	-4
0.26200	-4
0.26567	-4
0.26933	-3
0.27300	-3
0.27667	-3
0.28033	-3
0.28400	-2
0.28767	-2
0.29133	-2
0.29500	-2
0.29867	-3
0.30233	-3
0.30600	-3
0.30967	-3
0.31333	-3
0.31700	-3
0.32067	-3
0.32433	-3
0.32800	-2
0.33167	-2
0.33533	-2
0.33900	-2
0.34267	-2
0.34633	-2
0.35000	-1
0.35367	-1
0.35733	-0
0.36100	0
0.36467	1
0.36833	1
0.37200	1
0.37567	1
0.37933	0
0.38300	-0
0.38667	-1
0.39033	-1
0.39400	-2
0.39767	-2
0.40133	-3
0.40500	-3
0.40867	-3
0.41233	-3
0.41600	-3
0.41967	-3
0.42333	-3
0.42700	-3
0.43067	-4
0.43433	-4
0.43800	-4
0.44167	-4
0.44533	-4
0.44900	-4
0.45267	-3
0.45633	-3
0.46000	-3
0.46367	-3
0.46733	-3
0.47100	-2
0.47467	-2
0.47833	-2
0.48200	-2
0.48567	-2
0.48933	-2
0.49300	-1
0.49667	-1
0.50033	-1
0.50400	-1
0.50767	-1
0.51133	-1
0.51500	-1
0.51867	-1
0.52233	-1
0.52600	-1
0.52967	-1
0.53333	-1
0.53700	-1
0.54067	-1
0.54433	-1
0.54800	-1
0.55167	-2
0.55533	-2
0.55900	-2
0.56267	-2
0.56633	-3
0.57000	-4
0.57367	-5
0.57733	-5
0.58100	-5
0.58467	-6
0.58833	-6
0.59200	-6
0.59567	-6
0.59933	-6
0.60300	-6
0.60667	-6
0.61033	-6
0.61400	-6
0.61767	-6
0.62133	-6
0.62500	-6
0.62867	-6
0.63233	-5
0.63600	-5
0.63967	-4
0.64333	-4
0.64700	-4
0.65067	-4
0.65433	-3
0.65800	-3
0.66167	-3
0.66533	-2
0.66900	-2
0.67267	-2
0.67633	-2
0.68000	-2
0.68367	-2
0.68733	-2
0.69100	-2
0.69467	-2
0.69833	-2
0.70200	-2
0.70567	-3
0.70933	-3
0.71300	-3
0.71667	-3
0.72033	-3
0.72400	-3
0.72767	-3
0.73133	-3
0.73500	-3
0.73867	-3
0.74233	-3
0.74600	-4
0.74967	-4
0.75333	-4
0.75700	-4
0.76067	-4
0.76433	-4
0.76800	-4
0.77167	-4
0.77533	-4
0.77900	-4
0.78267	-4
0.78633	-4
0.79000	-4
0.79367	-4
0.79733	-4
0.80100	-4
0.80467	-4
0.80833	-4
0.81200	-3
0.81567	-3
0.81933	-3
0.82300	-3
0.82667	-3
0.83033	-3
0.83400	-3
0.83767	-3
0.84133	-3
0.84500	-3
0.84867	-3
0.85233	-4
0.85600	-4
0.85967	-4
0.86333	-3
0.86700	-3
0.87067	-3
0.87433	-3
0.87800	-3
0.88167	-3
0.88533	-3
0.88900	-3
0.89267	-3
0.89633	-3
0.90000	-2
0.90367	-2
0.90733	-2
0.91100	-2
0.91467	-3
0.91833	-3
0.92200	-3
0.92567	-3
0.92933	-4
0.93300	-4
0.93667	-4
0.94033	-4
0.94400	-4
0.94767	-4
0.95133	-4
0.95500	-4
0.95867	-5
0.96233	-5
0.96600	-5
0.96967	-5
0.97333	-4
0.97700	-4
0.98067	-4
0.98433	-4
0.98800	-4
0.99167	-4
0.99533	-3
0.99900	-3
1.00267	-3
1.00633	-3
1.01000	-3
1.01367	-3
1.01733	-3
1.02100	-3
1.02467	-3
1.02833	-3
1.03200	-3
1.03567	-3
1.03933	-3
1.04300	-3
1.04667	-3
1.05033	-3
1.05400	-3
1.05767	-2
1.06133	-2
1.06500	-2
1.06867	-2
1.07233	-1
1.07600	-1
1.07967	-1
1.08333	-1
1.08700	-1
1.09067	-1
1.09433	-1
1.09800	-1
1.10167	-1
1.10533	-1
1.10900	-1
1.11267	-1
1.11633	-2
1.12000	-2
1.12367	-2
1.12733	-3
1.13100	-3
1.13467	-3
1.13833	-3
1.14200	-3
1.14567	-3
1.14933	-3
1.15300	-3
1.15667	-3
1.16033	-4
1.16400	-4
1.16767	-4
1.17133	-4
1.17500	-4
1.17867	-4
1.18233	-5
1.18600	-5
1.18967	-5
1.19333	-5
1.19700	-6
1.20067	-6
1.20433	-6
1.20800	-7
1.21167	-7
1.21533	-7
1.21900	-7
1.22267	-7
1.22633	-7
1.23000	-7
1.23367	-7
1.23733	-7
1.24100	-7
1.24467	-7
1.24833	-6
1.25200	-6
1.25567	-6
1.25933	-6
1.26300	-6
1.26667	-5
1.27033	-5
1.27400	-4
1.27767	-4
1.28133	-3
1.28500	-3
1.28867	-3
1.29233	-2
1.29600	-2
1.29967	-2
1.30333	-2
1.30700	-2
1.31067	-2
1.31433	-2
1.31800	-2
1.32167	-2
1.32533	-2
1.32900	-3
1.33267	-3
1.33633	-3
1.34000	-4
1.34367	-4
1.34733	-4
1.35100	-4
1.35467	-4
1.35833	-4
1.36200	-4
1.36567	-4
1.36933	-4
1.37300	-5
1.37667	-4
1.38033	-4
1.38400	-4
1.38767	-4
1.39133	-5
1.39500	-5
1.39867	-5
1.40233	-5
1.40600	-6
1.40967	-6
1.41333	-6
1.41700	-6
1.42067	-6
1.42433	-6
1.42800	-6
1.43167	-6
1.43533	-6
1.43900	-6
1.44267	-6
1.44633	-6
1.45000	-6
1.45367	-6
1.45733	-5
1.46100	-5
1.46467	-5
1.46833	-5
1.47200	-5
1.47567	-5
1.47933	-5
1.48300	-5
1.48667	-5
1.49033	-5
1.49400	-5
1.49767	-5
1.50133	-5
1.50500	-5
1.50867	-5
1.51233	-5
1.51600	-5
1.51967	-5
1.52333	-5
1.52700	-5
1.53067	-6
1.53433	-6
1.53800	-6
1.54167	-6
1.54533	-6
1.54900	-5
1.55267	-5
1.55633	-5
1.56000	-5
1.56367	-5
1.56733	-4
1.57100	-4
1.57467	-4
1.57833	-4
1.58200	-4
1.58567	-4
1.58933	-4
1.59300	-5
1.59667	-5
1.60033	-6
1.60400	-7
1.60767	-9
1.61133	-10
1.61500	-12
1.61867	-14
1.62233	-16
1.62600	-19
1.62967	-22
1.63333	-25
1.63700	-29
1.64067	-33
1.64433	-36
1.64800	-40
1.65167	-44
1.65533	-49
1.65900	-53
1.66267	-57
1.66633	-62
1.67000	-67
1.67367	-72
1.67733	-77
1.68100	-82
1.68467	-87
1.68833	-91
1.69200	-95
1.69567	-99
1.69933	-101
1.70300	-104
1.70667	-106
1.71033	-108
1.71400	-110
1.71767	-112
1.72133	-113
1.72500	-115
1.72867	-115
1.73233	-116
1.73600	-117
1.73967	-117
1.74333	-118
1.74700	-118
1.75067	-119
1.75433	-119
1.75800	-119
1.76167	-119
1.76533	-119
1.76900	-118
1.77267	-117
1.77633	-117
1.78000	-116
1.78367	-116
1.78733	-116
1.79100	-117
1.79467	-118
1.79833	-119
1.80200	-120
1.80567	-120
1.80933	-121
1.81300	-121
1.81667	-121
1.82033	-121
1.82400	-121
1.82767	-122
1.83133	-122
1.83500	-122
1.83867	-123
1.84233	-123
1.84600	-122
1.84967	-122
1.85333	-122
1.85700	-122
1.86067	-121
1.86433	-121
1.86800	-121
1.87167	-121
1.87533	-121
1.87900	-121
1.88267	-122
1.88633	-122
1.89000	-122
1.89367	-122
1.89733	-121
1.90100	-121
1.90467	-121
1.90833	-120
1.91200	-120
1.91567	-120
1.91933	-120
1.92300	-120
1.92667	-120
1.93033	-120
1.93400	-120
1.93767	-119
1.94133	-119
1.94500	-118
1.94867	-118
1.95233	-117
1.95600	-117
1.95967	-117
1.96333	-117
1.96700	-117
1.97067	-117
1.97433	-117
1.97800	-117
1.98167	-116
1.98533	-116
1.98900	-115
1.99267	-115
1.99633	-115
2.00000	-115
2.00367	-115
2.00733	-114
2.01100	-114
2.01467	-114
2.01833	-114
2.02200	-114
2.02567	-114
2.02933	-113
2.03300	-113
2.03667	-113
2.04033	-113
2.04400	-112
2.04767	-112
2.05133	-112
2.05500	-112
2.05867	-111
2.06233	-111
2.06600	-111
2.06967	-110
2.07333	-110
2.07700	-111
2.08067	-110
2.08433	-110
2.08800	-109
2.09167	-109
2.09533	-108
2.09900	-108
2.10267	-108
2.10633	-108
2.11000	-108
2.11367	-108
2.11733	-107
2.12100	-107
2.12467	-106
2.12833	-104
2.13200	-103
2.13567	-103
2.13933	-102
2.14300	-101
2.14667	-101
2.15033	-101
2.15400	-101
2.15767	-101
2.16133	-101
2.16500	-101
2.16867	-101
2.17233	-101
2.17600	-100
2.17967	-100
2.18333	-99
2.18700	-99
2.19067	-99
2.19433	-98
2.19800	-98
2.20167	-98
2.20533	-98
2.20900	-98
2.21267	-97
2.21633	-97
2.22000	-96
2.22367	-95
2.22733	-95
2.23100	-94
2.23467	-94
2.23833	-94
2.24200	-94
2.24567	-94
2.24933	-94
2.25300	-93
2.25667	-93
2.26033	-92
2.26400	-92
2.26767	-92
2.27133	-92
2.27500	-92
2.27867	-92
2.28233	-92
2.28600	-91
2.28967	-90
2.29333	-89
2.29700	-89
2.30067	-89
2.30433	-89
2.30800	-90
2.31167	-90
2.31533	-91
2.31900	-91
2.32267	-90
2.32633	-89
2.33000	-88
2.33367	-87
2.33733	-85
2.34100	-84
2.34467	-83
2.34833	-82
2.35200	-81
2.35567	-81
2.35933	-80
2.36300	-80
2.36667	-79
2.37033	-78
2.37400	-76
2.37767	-74
2.38133	-71
2.38500	-67
2.38867	-63
2.39233	-59
2.39600	-55
2.39967	-51
2.40333	-46
2.40700	-42
2.41067	-38
2.41433	-34
2.41800	-31
2.42167	-28
2.42533	-25
2.42900	-23
2.43267	-21
2.43633	-19
2.44000	-17
2.44367	-15
2.44733	-14
2.45100	-13
2.45467	-12
2.45833	-11
2.46200	-10
2.46567	-9
2.46933	-7
2.47300	-6
2.47667	-4
2.48033	-3
2.48400	-1
2.48767	-0
2.49133	1
2.49500	1
2.49867	2
2.50233	3
2.50600	3
2.50967	4
2.51333	4
2.51700	5
2.52067	5
2.52433	6
2.52800	7
2.53167	7
2.53533	8
2.53900	9
2.54267	9
2.54633	10
2.55000	10
2.55367	10
2.55733	10
2.56100	10
2.56467	10
2.56833	10
2.57200	11
2.57567	11
2.57933	11
2.58300	12
2.58667	12
2.59033	12
2.59400	12
2.59767	12
2.60133	12
2.60500	13
2.60867	13
2.61233	13
2.61600	13
2.61967	13
2.62333	13
2.62700	13
2.63067	14
2.63433	14
2.63800	15
2.64167	15
2.64533	16
2.64900	17
2.65267	17
2.65633	18
2.66000	18
2.66367	18
2.66733	18
2.67100	18
2.67467	18
2.67833	18
2.68200	17
2.68567	17
2.68933	17
2.69300	17
2.69667	18
2.70033	18
2.70400	18
2.70767	17
2.71133	17
2.71500	17
2.71867	17
2.72233	18
2.72600	18
2.72967	19
2.73333	19
2.73700	20
2.74067	21
2.74433	21
2.74800	22
2.75167	23
2.75533	24
2.75900	24
2.76267	25
2.76633	25
2.77000	26
2.77367	25
2.77733	25
2.78100	24
2.78467	23
2.78833	22
2.79200	21
2.79567	20
2.79933	19
2.80300	19
2.80667	19
2.81033	19
2.81400	20
2.81767	20
2.82133	20
2.82500	21
2.82867	21
2.83233	21
2.83600	21
2.83967	20
2.84333	17
2.84700	13
2.85067	6
2.85433	-4
2.85800	-18
2.86167	-35
2.86533	-57
2.86900	-82
2.87267	-112
2.87633	-146
2.88000	-184
2.88367	-225
2.88733	-269
2.89100	-316
2.89467	-366
2.89833	-417
2.90200	-469
2.90567	-523
2.90933	-576
2.91300	-630
2.91667	-684
2.92033	-737
2.92400	-789
2.92767	-841
2.93133	-894
2.93500	-952
2.93867	-1012
2.94233	-1066
2.94600	-1103
2.94967	-1114
2.95333	-1100
2.95700	-1061
2.96067	-1004
2.96433	-934
2.96800	-856
2.97167	-775
2.97533	-694
2.97900	-616
2.98267	-543
2.98633	-475
2.99000	-414
2.99367	-359
2.99733	-310
3.00100	-266
3.00467	-228
3.00833	-195
3.01200	-166
3.01567	-141
3.01933	-120
3.02300	-101
3.02667	-86
3.03033	-72
3.03400	-61
3.03767	-51
3.04133	-42
3.04500	-35
3.04867	-29
3.05233	-23
3.05600	-19
3.05967	-15
3.06333	-11
3.06700	-8
3.07067	-5
3.07433	-3
3.07800	-1
3.08167	1
3.08533	2
3.08900	3
3.09267	4
3.09633	5
3.10000	6
3.10367	6
3.10733	7
3.11100	7
3.11467	8
3.11833	8
3.12200	9
3.12567	9
3.12933	10
3.13300	10
3.13667	11
3.14033	11
3.14400	12
3.14767	12
3.15133	13
3.15500	13
3.15867	14
3.16233	14
3.16600	15
3.16967	15
3.17333	15
3.17700	15
3.18067	16
3.18433	16
3.18800	16
3.19167	16
3.19533	16
3.19900	16
3.20267	17
3.20633	17
3.21000	17
3.21367	17
3.21733	17
3.22100	17
3.22467	18
3.22833	18
3.23200	18
3.23567	18
3.23933	18
3.24300	18
3.24667	18
3.25033	18
3.25400	18
3.25767	18
3.26133	18
3.26500	18
3.26867	18
3.27233	18
3.27600	18
3.27967	18
3.28333	18
3.28700	18
3.29067	18
3.29433	18
3.29800	18
3.30167	18
3.30533	19
3.30900	19
3.31267	19
3.31633	20
3.32000	20
3.32367	20
3.32733	20
3.33100	20
3.33467	20
3.33833	20
3.34200	20
3.34567	21
3.34933	21
3.35300	21
3.35667	21
3.36033	21
3.36400	21
3.36767	21
3.37133	21
3.37500	21
3.37867	22
3.38233	22
3.38600	22
3.38967	22
3.39333	22
3.39700	22
3.40067	22
3.40433	22
3.40800	22
3.41167	22
3.41533	22
3.41900	22
3.42267	22
3.42633	23
3.43000	23
3.43367	23
3.43733	23
3.44100	23
3.44467	23
3.44833	23
3.45200	23
3.45567	23
3.45933	23
3.46300	23
3.46667	23
3.47033	23
3.47400	23
3.47767	23
3.48133	23
3.48500	23
3.48867	23
3.49233	23
3.49600	23
3.49967	23
3.50333	23
3.50700	23
3.51067	22
3.51433	22
3.51800	22
3.52167	22
3.52533	22
3.52900	22
3.53267	22
3.53633	22
3.54000	22
3.54367	23
3.54733	23
3.55100	23
3.55467	24
3.55833	24
3.56200	24
3.56567	24
3.56933	25
3.57300	25
3.57667	24
3.58033	24
3.58400	24
3.58767	24
3.59133	24
3.59500	24
3.59867	24
3.60233	24
3.60600	24
3.60967	24
3.61333	23
3.61700	23
3.62067	23
3.62433	23
3.62800	23
3.63167	23
3.63533	23
3.63900	22
3.64267	22
3.64633	22
3.65000	21
3.65367	21
3.65733	21
3.66100	21
3.66467	21
3.66833	21
3.67200	21
3.67567	21
3.67933	21
3.68300	21
3.68667	21
3.69033	21
3.69400	21
3.69767	21
3.70133	21
3.70500	21
3.70867	21
3.71233	21
3.71600	21
3.71967	21
3.72333	21
3.72700	21
3.73067	21
3.73433	21
3.73800	21
3.74167	21
3.74533	21
3.74900	22
3.75267	22
3.75633	22
3.76000	23
3.76367	23
3.76733	23
3.77100	24
3.77467	24
3.77833	24
3.78200	24
3.78567	24
3.78933	24
3.79300	23
3.79667	24
3.80033	24
3.80400	24
3.80767	24
3.81133	24
3.81500	24
3.81867	24
3.82233	24
3.82600	24
3.82967	24
3.83333	24
3.83700	24
3.84067	24
3.84433	24
3.84800	24
3.85167	24
3.85533	24
3.85900	24
3.86267	24
3.86633	24
3.87000	23
3.87367	23
3.87733	23
3.88100	23
3.88467	23
3.88833	23
3.89200	23
3.89567	23
3.89933	22
3.90300	22
3.90667	22
3.91033	21
3.91400	21
3.91767	21
3.92133	21
3.92500	21
3.92867	21
3.93233	21
3.93600	21
3.93967	21
3.94333	21
3.94700	21
3.95067	21
3.95433	21
3.95800	21
3.96167	21
3.96533	21
3.96900	21
3.97267	21
3.97633	21
3.98000	20
3.98367	20
3.98733	20
3.99100	20
3.99467	20
3.99833	20

[Chromatogram (Ch3)]
Interval(msec)	220
# of Points	1091
Start Time(min)	0.002
End Time(min)	3.998
R.Time (min)	Intensity
0.00167	1
0.00533	1
0.00900	0
0.01267	-0
0.01633	0
0.02000	1
0.02367	1
0.02733	3
0.03100	3
0.03467	3
0.03833	3
0.04200	4
0.04567	5
0.04933	7
0.05300	7
0.05667	5
0.06033	5
0.06400	5
0.06767	7
0.07133	6
0.07500	6
0.07867	4
0.08233	4
0.08600	4
0.08967	5
0.09333	7
0.09700	6
0.10067	5
0.10433	4
0.10800	4
0.11167	5
0.11533	6
0.11900	6
0.12267	8
0.12633	10
0.13000	10
0.13367	10
0.13733	10
0.14100	10
0.14467	11
0.14833	11
0.15200	12
0.15567	12
0.15933	11
0.16300	10
0.16667	7
0.17033	5
0.17400	5
0.17767	8
0.18133	11
0.18500	12
0.18867	12
0.19233	14
0.19600	13
0.19967	11
0.20333	12
0.20700	13
0.21067	12
0.21433	13
0.21800	12
0.22167	12
0.22533	14
0.22900	13
0.23267	10
0.23633	9
0.24000	9
0.24367	10
0.24733	9
0.25100	10
0.25467	12
0.25833	14
0.26200	14
0.26567	15
0.26933	17
0.27300	17
0.27667	18
0.28033	21
0.28400	22
0.28767	21
0.29133	19
0.29500	17
0.29867	16
0.30233	15
0.30600	15
0.30967	15
0.31333	14
0.31700	15
0.32067	17
0.32433	17
0.32800	15
0.33167	11
0.33533	10
0.33900	11
0.34267	13
0.34633	14
0.35000	13
0.35367	14
0.35733	14
0.36100	14
0.36467	14
0.36833	16
0.37200	16
0.37567	16
0.37933	15
0.38300	14
0.38667	12
0.39033	13
0.39400	16
0.39767	19
0.40133	18
0.40500	19
0.40867	19
0.41233	18
0.41600	16
0.41967	13
0.42333	12
0.42700	12
0.43067	12
0.43433	12
0.43800	12
0.44167	12
0.44533	13
0.44900	15
0.45267	16
0.45633	16
0.46000	16
0.46367	14
0.46733	14
0.47100	16
0.47467	18
0.47833	18
0.48200	16
0.48567	15
0.48933	15
0.49300	17
0.49667	18
0.50033	17
0.50400	15
0.50767	16
0.51133	17
0.51500	18
0.51867	19
0.52233	19
0.52600	19
0.52967	19
0.53333	20
0.53700	21
0.54067	20
0.54433	20
0.54800	21
0.55167	22
0.55533	23
0.55900	21
0.56267	19
0.56633	18
0.57000	19
0.57367	21
0.57733	19
0.58100	19
0.58467	20
0.58833	19
0.59200	17
0.59567	17
0.59933	18
0.60300	17
0.60667	18
0.61033	17
0.61400	18
0.61767	19
0.62133	20
0.62500	22
0.62867	23
0.63233	24
0.63600	23
0.63967	23
0.64333	24
0.64700	24
0.65067	22
0.65433	19
0.65800	18
0.66167	18
0.66533	17
0.66900	17
0.67267	18
0.67633	20
0.68000	20
0.68367	20
0.68733	21
0.69100	22
0.69467	23
0.69833	23
0.70200	23
0.70567	24
0.70933	25
0.71300	25
0.71667	26
0.72033	26
0.72400	25
0.72767	24
0.73133	23
0.73500	22
0.73867	22
0.74233	24
0.74600	24
0.74967	22
0.75333	23
0.75700	24
0.76067	27
0.76433	30
0.76800	28
0.77167	25
0.77533	25
0.77900	25
0.78267	24
0.78633	23
0.79000	22
0.79367	23
0.79733	24
0.80100	23
0.80467	22
0.80833	23
0.81200	24
0.81567	26
0.81933	27
0.82300	27
0.82667	26
0.83033	26
0.83400	27
0.83767	28
0.84133	29
0.84500	30
0.84867	29
0.85233	28
0.85600	30
0.85967	31
0.86333	32
0.86700	32
0.87067	32
0.87433	30
0.87800	27
0.88167	25
0.88533	25
0.88900	27
0.89267	30
0.89633	31
0.90000	30
0.90367	30
0.90733	29
0.91100	30
0.91467	29
0.91833	28
0.92200	28
0.92567	28
0.92933	27
0.93300	25
0.93667	24
0.94033	25
0.94400	25
0.94767	25
0.95133	27
0.95500	28
0.95867	29
0.96233	28
0.96600	27
0.96967	25
0.97333	25
0.97700	24
0.98067	24
0.98433	24
0.98800	24
0.99167	26
0.99533	28
0.99900	28
1.00267	30
1.00633	32
1.01000	32
1.01367	32
1.01733	32
1.02100	32
1.02467	31
1.02833	31
1.03200	32
1.03567	33
1.03933	34
1.04300	33
1.04667	30
1.05033	29
1.05400	30
1.05767	33
1.06133	33
1.06500	33
1.06867	34
1.07233	32
1.07600	31
1.07967	30
1.08333	29
1.08700	29
1.09067	29
1.09433	28
1.09800	26
1.10167	27
1.10533	30
1.10900	30
1.11267	29
1.11633	32
1.12000	33
1.12367	31
1.12733	31
1.13100	32
1.13467	32
1.13833	30
1.14200	29
1.14567	28
1.14933	28
1.15300	28
1.15667	29
1.16033	29
1.16400	30
1.16767	31
1.17133	31
1.17500	30
1.17867	31
1.18233	33
1.18600	33
1.18967	34
1.19333	37
1.19700	39
1.20067	40
1.20433	38
1.20800	38
1.21167	37
1.21533	35
1.21900	32
1.22267	28
1.22633	28
1.23000	31
1.23367	32
1.23733	33
1.24100	36
1.24467	36
1.24833	38
1.25200	39
1.25567	40
1.25933	40
1.26300	41
1.26667	39
1.27033	38
1.27400	39
1.27767	38
1.28133	38
1.28500	37
1.28867	38
1.29233	39
1.29600	40
1.29967	40
1.30333	39
1.30700	37
1.31067	35
1.31433	33
1.31800	35
1.32167	36
1.32533	37
1.32900	37
1.33267	38
1.33633	36
1.34000	34
1.34367	34
1.34733	34
1.35100	37
1.35467	39
1.35833	39
1.36200	37
1.36567	36
1.36933	36
1.37300	37
1.37667	36
1.38033	38
1.38400	39
1.38767	40
1.39133	38
1.39500	37
1.39867	36
1.40233	37
1.40600	38
1.40967	39
1.41333	39
1.41700	41
1.42067	41
1.42433	41
1.42800	40
1.43167	41
1.43533	41
1.43900	41
1.44267	39
1.44633	36
1.45000	36
1.45367	39
1.45733	41
1.46100	42
1.46467	42
1.46833	42
1.47200	42
1.47567	44
1.47933	43
1.48300	40
1.48667	37
1.49033	34
1.49400	32
1.49767	34
1.50133	34
1.50500	36
1.50867	40
1.51233	44
1.51600	47
1.51967	51
1.52333	52
1.52700	52
1.53067	49
1.53433	48
1.53800	48
1.54167	48
1.54533	49
1.54900	50
1.55267	50
1.55633	48
1.56000	48
1.56367	47
1.56733	44
1.57100	42
1.57467	45
1.57833	48
1.58200	50
1.58567	49
1.58933	50
1.59300	52
1.59667	53
1.60033	54
1.60400	55
1.60767	52
1.61133	49
1.61500	47
1.61867	46
1.62233	47
1.62600	47
1.62967	48
1.63333	50
1.63700	51
1.64067	51
1.64433	51
1.64800	50
1.65167	50
1.65533	50
1.65900	51
1.66267	49
1.66633	47
1.67000	49
1.67367	50
1.67733	53
1.68100	56
1.68467	57
1.68833	57
1.69200	57
1.69567	57
1.69933	56
1.70300	54
1.70667	53
1.71033	53
1.71400	54
1.71767	55
1.72133	57
1.72500	56
1.72867	55
1.73233	55
1.73600	55
1.73967	55
1.74333	55
1.74700	57
1.75067	60
1.75433	62
1.75800	63
1.76167	62
1.76533	61
1.76900	59
1.77267	58
1.77633	57
1.78000	59
1.78367	63
1.78733	66
1.79100	69
1.79467	71
1.79833	71
1.80200	71
1.80567	71
1.80933	71
1.81300	70
1.81667	70
1.82033	70
1.82400	69
1.82767	66
1.83133	67
1.83500	68
1.83867	70
1.84233	69
1.84600	68
1.84967	69
1.85333	70
1.85700	70
1.86067	70
1.86433	71
1.86800	73
1.87167	74
1.87533	76
1.87900	78
1.88267	79
1.88633	78
1.89000	78
1.89367	79
1.89733	79
1.90100	79
1.90467	79
1.90833	81
1.91200	84
1.91567	87
1.91933	89
1.92300	91
1.92667	93
1.93033	93
1.93400	94
1.93767	94
1.94133	92
1.94500	92
1.94867	92
1.95233	93
1.95600	93
1.95967	94
1.96333	98
1.96700	101
1.97067	102
1.97433	100
1.97800	100
1.98167	100
1.98533	100
1.98900	99
1.99267	100
1.99633	103
2.00000	104
2.00367	106
2.00733	106
2.01100	107
2.01467	109
2.01833	109
2.02200	109
2.02567	111
2.02933	115
2.03300	118
2.03667	120
2.04033	121
2.04400	121
2.04767	121
2.05133	120
2.05500	118
2.05867	119
2.06233	122
2.06600	124
2.06967	122
2.07333	122
2.07700	124
2.08067	125
2.08433	123
2.08800	124
2.09167	125
2.09533	126
2.09900	126
2.10267	126
2.10633	125
2.11000	125
2.11367	124
2.11733	124
2.12100	123
2.12467	122
2.12833	119
2.13200	119
2.13567	121
2.13933	124
2.14300	126
2.14667	127
2.15033	129
2.15400	131
2.15767	133
2.16133	136
2.16500	138
2.16867	140
2.17233	139
2.17600	137
2.17967	138
2.18333	140
2.18700	144
2.19067	148
2.19433	151
2.19800	154
2.20167	155
2.20533	155
2.20900	153
2.21267	151
2.21633	149
2.22000	149
2.22367	150
2.22733	150
2.23100	150
2.23467	151
2.23833	154
2.24200	157
2.24567	161
2.24933	163
2.25300	167
2.25667	169
2.26033	168
2.26400	167
2.26767	169
2.27133	168
2.27500	167
2.27867	167
2.28233	166
2.28600	167
2.28967	169
2.29333	172
2.29700	172
2.30067	173
2.30433	175
2.30800	177
2.31167	179
2.31533	180
2.31900	181
2.32267	181
2.32633	182
2.33000	181
2.33367	181
2.33733	185
2.34100	189
2.34467	194
2.34833	198
2.35200	200
2.35567	200
2.35933	200
2.36300	203
2.36667	206
2.37033	207
2.37400	210
2.37767	212
2.38133	213
2.38500	213
2.38867	212
2.39233	214
2.39600	217
2.39967	220
2.40333	223
2.40700	225
2.41067	227
2.41433	231
2.41800	234
2.42167	237
2.42533	238
2.42900	236
2.43267	235
2.43633	235
2.44000	236
2.44367	267
2.44733	351
2.45100	444
2.45467	521
2.45833	563
2.46200	557
2.46567	520
2.46933	476
2.47300	441
2.47667	418
2.48033	402
2.48400	386
2.48767	366
2.49133	340
2.49500	313
2.49867	287
2.50233	267
2.50600	253
2.50967	243
2.51333	237
2.51700	233
2.52067	229
2.52433	230
2.52800	237
2.53167	247
2.53533	256
2.53900	263
2.54267	266
2.54633	262
2.55000	254
2.55367	242
2.55733	232
2.56100	221
2.56467	209
2.56833	196
2.57200	185
2.57567	177
2.57933	172
2.58300	169
2.58667	165
2.59033	163
2.59400	160
2.59767	154
2.60133	145
2.60500	134
2.60867	119
2.61233	101
2.61600	83
2.61967	63
2.62333	46
2.62700	34
2.63067	27
2.63433	23
2.63800	21
2.64167	22
2.64533	28
2.64900	37
2.65267	44
2.65633	50
2.66000	58
2.66367	67
2.66733	78
2.67100	88
2.67467	99
2.67833	108
2.68200	115
2.68567	120
2.68933	122
2.69300	124
2.69667	121
2.70033	120
2.70400	119
2.70767	118
2.71133	117
2.71500	115
2.71867	113
2.72233	111
2.72600	110
2.72967	109
2.73333	108
2.73700	106
2.74067	103
2.74433	102
2.74800	102
2.75167	104
2.75533	106
2.75900	108
2.76267	107
2.76633	107
2.77000	108
2.77367	110
2.77733	112
2.78100	115
2.78467	118
2.78833	119
2.79200	117
2.79567	115
2.79933	117
2.80300	119
2.80667	119
2.81033	120
2.81400	124
2.81767	133
2.82133	152
2.82500	192
2.82867	275
2.83233	424
2.83600	658
2.83967	991
2.84333	1429
2.84700	1959
2.85067	2545
2.85433	3147
2.85800	3719
2.86167	4212
2.86533	4586
2.86900	4823
2.87267	4914
2.87633	4867
2.88000	4701
2.88367	4452
2.88733	4144
2.89100	3806
2.89467	3456
2.89833	3109
2.90200	2775
2.90567	2462
2.90933	2178
2.91300	1920
2.91667	1689
2.92033	1488
2.92400	1310
2.92767	1151
2.93133	1012
2.93500	891
2.93867	789
2.94233	701
2.94600	623
2.94967	556
2.95333	501
2.95700	454
2.96067	411
2.96433	375
2.96800	344
2.97167	317
2.97533	292
2.97900	272
2.98267	253
2.98633	238
2.99000	225
2.99367	214
2.99733	205
3.00100	197
3.00467	189
3.00833	182
3.01200	173
3.01567	165
3.01933	160
3.02300	155
3.02667	150
3.03033	144
3.03400	139
3.03767	135
3.04133	131
3.04500	128
3.04867	126
3.05233	123
3.05600	119
3.05967	117
3.06333	114
3.06700	111
3.07067	108
3.07433	104
3.07800	101
3.08167	97
3.08533	95
3.08900	94
3.09267	93
3.09633	92
3.10000	89
3.10367	85
3.10733	84
3.11100	85
3.11467	85
3.11833	85
3.12200	84
3.12567	82
3.12933	81
3.13300	82
3.13667	81
3.14033	80
3.14400	81
3.14767	82
3.15133	80
3.15500	80
3.15867	81
3.16233	81
3.16600	82
3.16967	82
3.17333	80
3.17700	78
3.18067	78
3.18433	78
3.18800	79
3.19167	78
3.19533	77
3.19900	77
3.20267	78
3.20633	80
3.21000	80
3.21367	81
3.21733	82
3.22100	83
3.22467	83
3.22833	83
3.23200	83
3.23567	83
3.23933	85
3.24300	87
3.24667	88
3.25033	88
3.25400	86
3.25767	86
3.26133	84
3.26500	83
3.26867	84
3.27233	86
3.27600	88
3.27967	88
3.28333	86
3.28700	85
3.29067	87
3.29433	88
3.29800	87
3.30167	89
3.30533	90
3.30900	88
3.31267	87
3.31633	86
3.32000	88
3.32367	87
3.32733	84
3.33100	83
3.33467	85
3.33833	85
3.34200	86
3.34567	85
3.34933	84
3.35300	83
3.35667	84
3.36033	86
3.36400	85
3.36767	82
3.37133	81
3.37500	80
3.37867	78
3.38233	77
3.38600	77
3.38967	76
3.39333	73
3.39700	70
3.40067	68
3.40433	67
3.40800	66
3.41167	66
3.41533	66
3.41900	67
3.42267	66
3.42633	66
3.43000	66
3.43367	66
3.43733	65
3.44100	66
3.44467	70
3.44833	72
3.45200	74
3.45567	74
3.45933	74
3.46300	73
3.46667	72
3.47033	73
3.47400	74
3.47767	74
3.48133	72
3.48500	72
3.48867	72
3.49233	72
3.49600	75
3.49967	75
3.50333	74
3.50700	74
3.51067	75
3.51433	76
3.51800	77
3.52167	77
3.52533	78
3.52900	78
3.53267	78
3.53633	80
3.54000	83
3.54367	85
3.54733	86
3.55100	86
3.55467	87
3.55833	89
3.56200	87
3.56567	61
3.56933	22
3.57300	-3
3.57667	-15
3.58033	-17
3.58400	-14
3.58767	-6
3.59133	7
3.59500	24
3.59867	45
3.60233	67
3.60600	88
3.60967	108
3.61333	127
3.61700	145
3.62067	162
3.62433	177
3.62800	192
3.63167	207
3.63533	221
3.63900	236
3.64267	252
3.64633	268
3.65000	282
3.65367	295
3.65733	307
3.66100	317
3.66467	326
3.66833	333
3.67200	338
3.67567	342
3.67933	347
3.68300	351
3.68667	357
3.69033	364
3.69400	367
3.69767	372
3.70133	377
3.70500	382
3.70867	385
3.71233	386
3.71600	387
3.71967	390
3.72333	391
3.72700	391
3.73067	393
3.73433	395
3.73800	396
3.74167	394
3.74533	394
3.74900	395
3.75267	396
3.75633	396
3.76000	393
3.76367	390
3.76733	389
3.77100	389
3.77467	390
3.77833	392
3.78200	396
3.78567	397
3.78933	395
3.79300	392
3.79667	390
3.80033	387
3.80400	386
3.80767	386
3.81133	387
3.81500	386
3.81867	384
3.82233	382
3.82600	383
3.82967	384
3.83333	382
3.83700	380
3.84067	380
3.84433	380
3.84800	380
3.85167	378
3.85533	379
3.85900	379
3.86267	378
3.86633	377
3.87000	374
3.87367	373
3.87733	372
3.88100	369
3.88467	366
3.88833	365
3.89200	366
3.89567	368
3.89933	370
3.90300	369
3.90667	366
3.91033	364
3.91400	363
3.91767	363
3.92133	364
3.92500	365
3.92867	364
3.93233	363
3.93600	362
3.93967	362
3.94333	363
3.94700	363
3.95067	363
3.95433	362
3.95800	362
3.96167	363
3.96533	362
3.96900	361
3.97267	363
3.97633	364
3.98000	367
3.98367	370
3.98733	370
3.99100	369
3.99467	368
3.99833	366

[Status Trace (Column Oven Temperature)]
Interval(msec)	1000
# of Points	240
Start Time(min)	0.007
End Time(min)	3.990
Intensity Units	
Intensity Multiplier	1
R.Time (min)	Intensity
0.00717	34.99
0.02383	34.98
0.04050	34.98
0.05717	34.98
0.07383	35.00
0.09050	35.01
0.10717	35.03
0.12383	35.03
0.14050	35.04
0.15717	35.04
0.17383	35.06
0.19050	35.06
0.20717	35.06
0.22383	35.06
0.24050	35.06
0.25717	35.06
0.27383	35.06
0.29050	35.06
0.30717	35.06
0.32383	35.05
0.34050	35.03
0.35717	35.02
0.37383	35.02
0.39050	35.03
0.40717	35.03
0.42383	35.03
0.44050	35.03
0.45717	35.03
0.47383	35.01
0.49050	35.01
0.50717	35.00
0.52383	35.00
0.54050	35.00
0.55717	35.00
0.57383	35.00
0.59050	35.01
0.60717	35.02
0.62383	35.02
0.64050	35.02
0.65717	35.00
0.67383	35.00
0.69050	34.99
0.70717	34.99
0.72383	35.00
0.74050	35.00
0.75717	35.01
0.77383	35.02
0.79050	35.02
0.80717	35.02
0.82383	35.02
0.84050	35.02
0.85717	35.02
0.87383	35.02
0.89050	35.02
0.90717	35.02
0.92383	35.02
0.94050	35.01
0.95717	35.02
0.97383	35.02
0.99050	35.02
1.00717	35.01
1.02383	35.01
1.04050	35.01
1.05717	34.99
1.07383	34.98
1.09050	34.97
1.10717	34.97
1.12383	34.95
1.14050	34.97
1.15717	34.97
1.17383	34.97
1.19050	34.97
1.20717	34.98
1.22383	35.00
1.24050	35.00
1.25717	35.00
1.27383	34.99
1.29050	34.99
1.30717	34.98
1.32383	34.97
1.34050	34.98
1.35717	34.98
1.37383	34.97
1.39050	34.98
1.40717	34.99
1.42383	34.99
1.44050	34.99
1.45717	34.98
1.47383	34.98
1.49050	34.99
1.50717	35.00
1.52383	35.00
1.54050	35.01
1.55717	35.01
1.57383	34.99
1.59050	35.00
1.60717	35.05
1.62383	35.16
1.64050	35.34
1.65717	35.58
1.67383	35.93
1.69050	36.30
1.70717	36.65
1.72383	36.99
1.74050	37.35
1.75717	37.68
1.77383	37.98
1.79050	38.32
1.80717	38.65
1.82383	38.98
1.84050	39.33
1.85717	39.65
1.87383	39.98
1.89050	40.31
1.90717	40.64
1.92383	40.96
1.94050	41.29
1.95717	41.62
1.97383	41.95
1.99050	42.28
2.00717	42.57
2.02383	42.92
2.04050	43.25
2.05717	43.58
2.07383	43.90
2.09050	44.22
2.10717	44.57
2.12383	44.88
2.14050	45.20
2.15717	45.53
2.17383	45.84
2.19050	46.17
2.20717	46.50
2.22383	46.82
2.24050	47.16
2.25717	47.47
2.27383	47.81
2.29050	48.13
2.30717	48.51
2.32383	48.83
2.34050	49.12
2.35717	49.43
2.37383	49.64
2.39050	49.72
2.40717	49.71
2.42383	49.72
2.44050	49.71
2.45717	49.74
2.47383	49.74
2.49050	49.75
2.50717	49.77
2.52383	49.78
2.54050	49.79
2.55717	49.80
2.57383	49.81
2.59050	49.80
2.60717	49.82
2.62383	49.82
2.64050	49.82
2.65717	49.81
2.67383	49.83
2.69050	49.84
2.70717	49.87
2.72383	49.88
2.74050	49.87
2.75717	49.84
2.77383	49.85
2.79050	49.88
2.80717	49.89
2.82383	49.90
2.84050	49.90
2.85717	49.89
2.87383	49.89
2.89050	49.90
2.90717	49.92
2.92383	49.94
2.94050	49.95
2.95717	49.94
2.97383	49.95
2.99050	49.95
3.00717	49.95
3.02383	49.97
3.04050	49.98
3.05717	49.99
3.07383	50.00
3.09050	50.01
3.10717	50.02
3.12383	50.03
3.14050	50.04
3.15717	50.04
3.17383	50.04
3.19050	50.04
3.20717	50.05
3.22383	50.05
3.24050	50.06
3.25717	50.07
3.27383	50.07
3.29050	50.08
3.30717	50.08
3.32383	50.09
3.34050	50.09
3.35717	50.11
3.37383	50.10
3.39050	50.09
3.40717	50.08
3.42383	50.08
3.44050	50.08
3.45717	50.07
3.47383	50.07
3.49050	50.07
3.50717	50.07
3.52383	50.08
3.54050	50.07
3.55717	50.07
3.57383	50.07
3.59050	50.05
3.60717	50.06
3.62383	50.06
3.64050	50.07
3.65717	50.07
3.67383	50.08
3.69050	50.10
3.70717	50.10
3.72383	50.10
3.74050	50.09
3.75717	50.08
3.77383	50.06
3.79050	50.05
3.80717	50.04
3.82383	50.03
3.84050	50.02
3.85717	50.01
3.87383	50.01
3.89050	50.02
3.90717	50.02
3.92383	50.02
3.94050	50.03
3.95717	50.04
3.97383	50.03
3.99050	50.04

[Status Trace (Injection Unit Temperature)]
Interval(msec)	1000
# of Points	240
Start Time(min)	0.007
End Time(min)	3.990
Intensity Units	
Intensity Multiplier	1
R.Time (min)	Intensity
0.00717	99.99
0.02383	99.99
0.04050	99.99
0.05717	99.99
0.07383	99.99
0.09050	99.99
0.10717	99.99
0.12383	99.99
0.14050	99.99
0.15717	99.99
0.17383	99.99
0.19050	99.99
0.20717	99.99
0.22383	99.99
0.24050	99.99
0.25717	99.99
0.27383	99.98
0.29050	99.99
0.30717	99.98
0.32383	99.99
0.34050	99.99
0.35717	99.99
0.37383	99.99
0.39050	99.99
0.40717	99.99
0.42383	99.99
0.44050	99.99
0.45717	99.99
0.47383	99.98
0.49050	99.99
0.50717	99.99
0.52383	99.99
0.54050	99.98
0.55717	99.98
0.57383	99.99
0.59050	99.98
0.60717	99.98
0.62383	99.98
0.64050	99.98
0.65717	99.99
0.67383	99.98
0.69050	99.98
0.70717	99.98
0.72383	99.98
0.74050	99.97
0.75717	99.98
0.77383	99.98
0.79050	99.97
0.80717	99.98
0.82383	99.98
0.84050	99.98
0.85717	99.98
0.87383	99.98
0.89050	99.97
0.90717	99.98
0.92383	99.98
0.94050	99.98
0.95717	99.98
0.97383	99.98
0.99050	99.98
1.00717	99.98
1.02383	99.98
1.04050	99.98
1.05717	99.98
1.07383	99.98
1.09050	99.99
1.10717	99.99
1.12383	99.98
1.14050	99.98
1.15717	99.98
1.17383	99.98
1.19050	99.99
1.20717	99.99
1.22383	99.99
1.24050	99.99
1.25717	99.99
1.27383	99.99
1.29050	99.98
1.30717	99.99
1.32383	99.99
1.34050	99.99
1.35717	99.99
1.37383	99.98
1.39050	99.98
1.40717	99.99
1.42383	99.99
1.44050	99.99
1.45717	99.99
1.47383	99.99
1.49050	99.98
1.50717	99.98
1.52383	99.99
1.54050	99.99
1.55717	99.99
1.57383	99.99
1.59050	99.98
1.60717	99.99
1.62383	99.98
1.64050	99.99
1.65717	99.99
1.67383	99.99
1.69050	99.98
1.70717	99.98
1.72383	99.98
1.74050	99.98
1.75717	99.98
1.77383	99.98
1.79050	99.98
1.80717	99.98
1.82383	99.97
1.84050	99.98
1.85717	99.98
1.87383	99.98
1.89050	99.98
1.90717	99.98
1.92383	99.98
1.94050	99.98
1.95717	99.98
1.97383	99.98
1.99050	99.97
2.00717	99.98
2.02383	99.98
2.04050	99.97
2.05717	99.97
2.07383	99.97
2.09050	99.97
2.10717	99.97
2.12383	99.97
2.14050	99.97
2.15717	99.97
2.17383	99.97
2.19050	99.97
2.20717	99.97
2.22383	99.97
2.24050	99.97
2.25717	99.97
2.27383	99.97
2.29050	99.97
2.30717	99.97
2.32383	99.97
2.34050	99.97
2.35717	99.97
2.37383	99.97
2.39050	99.97
2.40717	99.97
2.42383	99.97
2.44050	99.97
2.45717	99.97
2.47383	99.97
2.49050	99.97
2.50717	99.97
2.52383	99.97
2.54050	99.97
2.55717	99.97
2.57383	99.98
2.59050	99.97
2.60717	99.98
2.62383	99.98
2.64050	99.98
2.65717	99.98
2.67383	99.98
2.69050	99.98
2.70717	99.98
2.72383	99.99
2.74050	99.99
2.75717	99.99
2.77383	99.99
2.79050	99.99
2.80717	99.99
2.82383	99.99
2.84050	100.00
2.85717	100.00
2.87383	100.00
2.89050	100.00
2.90717	100.00
2.92383	100.00
2.94050	100.01
2.95717	100.00
2.97383	100.00
2.99050	100.01
3.00717	100.01
3.02383	100.01
3.04050	100.01
3.05717	100.01
3.07383	100.01
3.09050	100.01
3.10717	100.01
3.12383	100.02
3.14050	100.01
3.15717	100.01
3.17383	100.02
3.19050	100.01
3.20717	100.01
3.22383	100.02
3.24050	100.02
3.25717	100.02
3.27383	100.02
3.29050	100.02
3.30717	100.02
3.32383	100.02
3.34050	100.03
3.35717	100.02
3.37383	100.02
3.39050	100.03
3.40717	100.02
3.42383	100.03
3.44050	100.03
3.45717	100.03
3.47383	100.03
3.49050	100.03
3.50717	100.03
3.52383	100.03
3.54050	100.03
3.55717	100.03
3.57383	100.03
3.59050	100.04
3.60717	100.03
3.62383	100.04
3.64050	100.03
3.65717	100.03
3.67383	100.04
3.69050	100.04
3.70717	100.04
3.72383	100.04
3.74050	100.04
3.75717	100.04
3.77383	100.04
3.79050	100.04
3.80717	100.04
3.82383	100.04
3.84050	100.04
3.85717	100.04
3.87383	100.04
3.89050	100.04
3.90717	100.04
3.92383	100.04
3.94050	100.04
3.95717	100.04
3.97383	100.04
3.99050	100.04

[Status Trace (Carrier Gas Pressure)]
Interval(msec)	1000
# of Points	240
Start Time(min)	0.007
End Time(min)	3.990
Intensity Units	
Intensity Multiplier	1
R.Time (min)	Intensity
0.00717	58.00
0.02383	55.54
0.04050	57.01
0.05717	59.20
0.07383	59.54
0.09050	58.08
0.10717	57.98
0.12383	58.01
0.14050	58.01
0.15717	58.01
0.17383	58.00
0.19050	58.00
0.20717	58.00
0.22383	58.00
0.24050	58.00
0.25717	58.00
0.27383	58.00
0.29050	58.00
0.30717	58.00
0.32383	58.00
0.34050	58.00
0.35717	58.00
0.37383	58.00
0.39050	58.00
0.40717	58.00
0.42383	58.00
0.44050	58.00
0.45717	58.00
0.47383	58.00
0.49050	58.00
0.50717	58.00
0.52383	58.00
0.54050	58.00
0.55717	58.00
0.57383	58.00
0.59050	58.00
0.60717	58.00
0.62383	58.00
0.64050	58.00
0.65717	58.00
0.67383	58.00
0.69050	58.00
0.70717	58.00
0.72383	58.00
0.74050	58.00
0.75717	58.00
0.77383	58.00
0.79050	58.00
0.80717	58.00
0.82383	58.00
0.84050	58.00
0.85717	58.00
0.87383	58.00
0.89050	58.00
0.90717	58.00
0.92383	58.00
0.94050	58.00
0.95717	58.00
0.97383	58.00
0.99050	58.00
1.00717	58.00
1.02383	58.00
1.04050	58.00
1.05717	58.00
1.07383	58.00
1.09050	58.00
1.10717	58.00
1.12383	58.00
1.14050	58.00
1.15717	58.00
1.17383	58.00
1.19050	58.00
1.20717	58.00
1.22383	58.00
1.24050	58.00
1.25717	58.00
1.27383	58.00
1.29050	58.00
1.30717	58.00
1.32383	58.00
1.34050	58.00
1.35717	58.00
1.37383	58.00
1.39050	58.00
1.40717	58.00
1.42383	58.00
1.44050	58.00
1.45717	58.00
1.47383	58.00
1.49050	58.00
1.50717	58.00
1.52383	58.00
1.54050	58.00
1.55717	58.00
1.57383	58.00
1.59050	58.00
1.60717	58.00
1.62383	58.00
1.64050	58.00
1.65717	58.01
1.67383	58.01
1.69050	58.00
1.70717	58.00
1.72383	58.00
1.74050	58.00
1.75717	58.00
1.77383	58.00
1.79050	58.00
1.80717	58.00
1.82383	58.00
1.84050	58.00
1.85717	58.00
1.87383	58.00
1.89050	58.00
1.90717	58.00
1.92383	58.00
1.94050	58.00
1.95717	58.00
1.97383	58.00
1.99050	58.00
2.00717	58.00
2.02383	58.00
2.04050	58.00
2.05717	58.00
2.07383	58.00
2.09050	58.00
2.10717	58.00
2.12383	58.00
2.14050	58.00
2.15717	58.00
2.17383	58.00
2.19050	58.00
2.20717	58.00
2.22383	58.00
2.24050	58.00
2.25717	58.00
2.27383	58.00
2.29050	58.00
2.30717	58.00
2.32383	58.00
2.34050	58.00
2.35717	58.00
2.37383	58.00
2.39050	57.99
2.40717	57.99
2.42383	58.00
2.44050	58.00
2.45717	58.00
2.47383	58.00
2.49050	58.00
2.50717	58.00
2.52383	57.98
2.54050	58.00
2.55717	58.00
2.57383	58.00
2.59050	58.00
2.60717	58.00
2.62383	58.00
2.64050	58.00
2.65717	58.00
2.67383	58.00
2.69050	58.00
2.70717	58.00
2.72383	58.00
2.74050	58.00
2.75717	58.00
2.77383	58.00
2.79050	58.00
2.80717	58.00
2.82383	58.00
2.84050	58.00
2.85717	58.00
2.87383	58.00
2.89050	58.00
2.90717	58.00
2.92383	58.00
2.94050	58.00
2.95717	58.00
2.97383	58.00
2.99050	58.00
3.00717	58.00
3.02383	58.00
3.04050	58.00
3.05717	58.00
3.07383	58.00
3.09050	58.00
3.10717	58.00
3.12383	58.00
3.14050	58.00
3.15717	58.00
3.17383	58.00
3.19050	58.00
3.20717	58.00
3.22383	58.00
3.24050	58.00
3.25717	58.00
3.27383	58.00
3.29050	58.00
3.30717	58.00
3.32383	58.00
3.34050	58.00
3.35717	58.00
3.37383	58.00
3.39050	58.00
3.40717	58.00
3.42383	58.00
3.44050	58.00
3.45717	58.00
3.47383	58.00
3.49050	58.00
3.50717	58.00
3.52383	58.00
3.54050	58.00
3.55717	58.00
3.57383	58.00
3.59050	58.00
3.60717	58.00
3.62383	58.00
3.64050	58.00
3.65717	58.00
3.67383	58.00
3.69050	58.00
3.70717	58.00
3.72383	58.00
3.74050	58.00
3.75717	58.00
3.77383	58.00
3.79050	58.00
3.80717	58.00
3.82383	58.00
3.84050	58.00
3.85717	58.00
3.87383	58.00
3.89050	58.00
3.90717	58.00
3.92383	58.00
3.94050	58.00
3.95717	58.00
3.97383	58.00
3.99050	58.00

[Status Trace (Carrier Gas Flow)]
Interval(msec)	1000
# of Points	240
Start Time(min)	0.007
End Time(min)	3.990
Intensity Units	
Intensity Multiplier	1
R.Time (min)	Intensity
0.00717	34.52
0.02383	34.53
0.04050	34.55
0.05717	34.55
0.07383	34.50
0.09050	34.52
0.10717	34.52
0.12383	34.51
0.14050	34.52
0.15717	34.52
0.17383	34.52
0.19050	34.52
0.20717	34.52
0.22383	34.52
0.24050	34.52
0.25717	34.52
0.27383	34.51
0.29050	34.53
0.30717	34.52
0.32383	34.52
0.34050	34.52
0.35717	34.52
0.37383	34.52
0.39050	34.52
0.40717	34.52
0.42383	34.52
0.44050	34.52
0.45717	34.52
0.47383	34.52
0.49050	34.52
0.50717	34.52
0.52383	34.52
0.54050	34.52
0.55717	34.51
0.57383	34.52
0.59050	34.51
0.60717	34.52
0.62383	34.52
0.64050	34.52
0.65717	34.52
0.67383	34.52
0.69050	34.52
0.70717	34.52
0.72383	34.52
0.74050	34.52
0.75717	34.52
0.77383	34.52
0.79050	34.52
0.80717	34.52
0.82383	34.52
0.84050	34.52
0.85717	34.52
0.87383	34.52
0.89050	34.52
0.90717	34.52
0.92383	34.52
0.94050	34.52
0.95717	34.52
0.97383	34.52
0.99050	34.52
1.00717	34.52
1.02383	34.52
1.04050	34.52
1.05717	34.51
1.07383	34.52
1.09050	34.51
1.10717	34.52
1.12383	34.52
1.14050	34.52
1.15717	34.52
1.17383	34.52
1.19050	34.52
1.20717	34.52
1.22383	34.52
1.24050	34.52
1.25717	34.52
1.27383	34.51
1.29050	34.52
1.30717	34.52
1.32383	34.52
1.34050	34.52
1.35717	34.52
1.37383	34.52
1.39050	34.52
1.40717	34.52
1.42383	34.52
1.44050	34.52
1.45717	34.52
1.47383	34.52
1.49050	34.52
1.50717	34.52
1.52383	34.52
1.54050	34.52
1.55717	34.52
1.57383	34.52
1.59050	34.52
1.60717	34.52
1.62383	34.52
1.64050	34.52
1.65717	34.52
1.67383	34.52
1.69050	34.52
1.70717	34.52
1.72383	34.52
1.74050	34.52
1.75717	34.52
1.77383	34.52
1.79050	34.52
1.80717	34.52
1.82383	34.52
1.84050	34.52
1.85717	34.52
1.87383	34.52
1.89050	34.52
1.90717	34.51
1.92383	34.52
1.94050	34.52
1.95717	34.52
1.97383	34.52
1.99050	34.52
2.00717	34.52
2.02383	34.52
2.04050	34.52
2.05717	34.52
2.07383	34.52
2.09050	34.52
2.10717	34.51
2.12383	34.52
2.14050	34.52
2.15717	34.52
2.17383	34.52
2.19050	34.52
2.20717	34.52
2.22383	34.52
2.24050	34.52
2.25717	34.52
2.27383	34.52
2.29050	34.52
2.30717	34.52
2.32383	34.51
2.34050	34.52
2.35717	34.52
2.37383	34.52
2.39050	34.52
2.40717	34.52
2.42383	34.52
2.44050	34.52
2.45717	34.52
2.47383	34.52
2.49050	34.52
2.50717	34.35
2.52383	34.53
2.54050	34.52
2.55717	34.52
2.57383	34.52
2.59050	34.51
2.60717	34.52
2.62383	34.52
2.64050	34.52
2.65717	34.52
2.67383	34.51
2.69050	34.52
2.70717	34.52
2.72383	34.52
2.74050	34.52
2.75717	34.52
2.77383	34.52
2.79050	34.52
2.80717	34.52
2.82383	34.52
2.84050	34.52
2.85717	34.52
2.87383	34.52
2.89050	34.52
2.90717	34.52
2.92383	34.52
2.94050	34.52
2.95717	34.52
2.97383	34.52
2.99050	34.52
3.00717	34.52
3.02383	34.52
3.04050	34.52
3.05717	34.52
3.07383	34.52
3.09050	34.52
3.10717	34.52
3.12383	34.52
3.14050	34.52
3.15717	34.52
3.17383	34.52
3.19050	34.52
3.20717	34.52
3.22383	34.52
3.24050	34.52
3.25717	34.52
3.27383	34.51
3.29050	34.52
3.30717	34.52
3.32383	34.52
3.34050	34.51
3.35717	34.53
3.37383	34.53
3.39050	34.51
3.40717	34.52
3.42383	34.53
3.44050	34.52
3.45717	34.51
3.47383	34.51
3.49050	34.53
3.50717	34.52
3.52383	34.52
3.54050	34.52
3.55717	34.52
3.57383	34.52
3.59050	34.52
3.60717	34.52
3.62383	34.52
3.64050	34.52
3.65717	34.52
3.67383	34.52
3.69050	34.51
3.70717	34.52
3.72383	34.52
3.74050	34.52
3.75717	34.52
3.77383	34.52
3.79050	34.51
3.80717	34.52
3.82383	34.52
3.84050	34.52
3.85717	34.52
3.87383	34.52
3.89050	34.52
3.90717	34.52
3.92383	34.52
3.94050	34.52
3.95717	34.52
3.97383	34.52
3.99050	34.52

[Status Trace (Column Flow)]
Interval(msec)	1000
# of Points	240
Start Time(min)	0.007
End Time(min)	3.990
Intensity Units	
Intensity Multiplier	1
R.Time (min)	Intensity
0.00717	5.58
0.02383	5.29
0.04050	5.47
0.05717	5.72
0.07383	5.76
0.09050	5.59
0.10717	5.58
0.12383	5.58
0.14050	5.58
0.15717	5.58
0.17383	5.58
0.19050	5.58
0.20717	5.58
0.22383	5.58
0.24050	5.58
0.25717	5.58
0.27383	5.58
0.29050	5.58
0.30717	5.58
0.32383	5.58
0.34050	5.58
0.35717	5.58
0.37383	5.58
0.39050	5.58
0.40717	5.58
0.42383	5.58
0.44050	5.58
0.45717	5.58
0.47383	5.58
0.49050	5.58
0.50717	5.58
0.52383	5.58
0.54050	5.58
0.55717	5.58
0.57383	5.58
0.59050	5.58
0.60717	5.58
0.62383	5.58
0.64050	5.58
0.65717	5.58
0.67383	5.58
0.69050	5.58
0.70717	5.58
0.72383	5.58
0.74050	5.58
0.75717	5.58
0.77383	5.58
0.79050	5.58
0.80717	5.58
0.82383	5.58
0.84050	5.58
0.85717	5.58
0.87383	5.58
0.89050	5.58
0.90717	5.58
0.92383	5.58
0.94050	5.58
0.95717	5.58
0.97383	5.58
0.99050	5.58
1.00717	5.58
1.02383	5.58
1.04050	5.58
1.05717	5.58
1.07383	5.58
1.09050	5.58
1.10717	5.58
1.12383	5.58
1.14050	5.58
1.15717	5.58
1.17383	5.58
1.19050	5.58
1.20717	5.58
1.22383	5.58
1.24050	5.58
1.25717	5.58
1.27383	5.58
1.29050	5.58
1.30717	5.58
1.32383	5.58
1.34050	5.58
1.35717	5.58
1.37383	5.58
1.39050	5.58
1.40717	5.58
1.42383	5.58
1.44050	5.58
1.45717	5.58
1.47383	5.58
1.49050	5.58
1.50717	5.58
1.52383	5.58
1.54050	5.58
1.55717	5.58
1.57383	5.58
1.59050	5.58
1.60717	5.58
1.62383	5.58
1.64050	5.57
1.65717	5.56
1.67383	5.55
1.69050	5.54
1.70717	5.53
1.72383	5.52
1.74050	5.51
1.75717	5.50
1.77383	5.49
1.79050	5.48
1.80717	5.47
1.82383	5.46
1.84050	5.45
1.85717	5.44
1.87383	5.43
1.89050	5.42
1.90717	5.41
1.92383	5.40
1.94050	5.39
1.95717	5.38
1.97383	5.37
1.99050	5.36
2.00717	5.35
2.02383	5.34
2.04050	5.33
2.05717	5.32
2.07383	5.31
2.09050	5.30
2.10717	5.29
2.12383	5.28
2.14050	5.27
2.15717	5.26
2.17383	5.25
2.19050	5.24
2.20717	5.23
2.22383	5.22
2.24050	5.21
2.25717	5.20
2.27383	5.20
2.29050	5.19
2.30717	5.17
2.32383	5.17
2.34050	5.16
2.35717	5.15
2.37383	5.14
2.39050	5.14
2.40717	5.14
2.42383	5.14
2.44050	5.14
2.45717	5.14
2.47383	5.14
2.49050	5.14
2.50717	5.14
2.52383	5.14
2.54050	5.14
2.55717	5.14
2.57383	5.14
2.59050	5.14
2.60717	5.14
2.62383	5.14
2.64050	5.14
2.65717	5.14
2.67383	5.14
2.69050	5.14
2.70717	5.14
2.72383	5.14
2.74050	5.14
2.75717	5.14
2.77383	5.14
2.79050	5.14
2.80717	5.14
2.82383	5.14
2.84050	5.14
2.85717	5.14
2.87383	5.14
2.89050	5.14
2.90717	5.14
2.92383	5.13
2.94050	5.13
2.95717	5.13
2.97383	5.13
2.99050	5.13
3.00717	5.13
3.02383	5.13
3.04050	5.13
3.05717	5.13
3.07383	5.13
3.09050	5.13
3.10717	5.13
3.12383	5.13
3.14050	5.13
3.15717	5.13
3.17383	5.13
3.19050	5.13
3.20717	5.13
3.22383	5.13
3.24050	5.13
3.25717	5.13
3.27383	5.13
3.29050	5.13
3.30717	5.13
3.32383	5.13
3.34050	5.13
3.35717	5.13
3.37383	5.13
3.39050	5.13
3.40717	5.13
3.42383	5.13
3.44050	5.13
3.45717	5.13
3.47383	5.13
3.49050	5.13
3.50717	5.13
3.52383	5.13
3.54050	5.13
3.55717	5.13
3.57383	5.13
3.59050	5.13
3.60717	5.13
3.62383	5.13
3.64050	5.13
3.65717	5.13
3.67383	5.13
3.69050	5.13
3.70717	5.13
3.72383	5.13
3.74050	5.13
3.75717	5.13
3.77383	5.13
3.79050	5.13
3.80717	5.13
3.82383	5.13
3.84050	5.13
3.85717	5.13
3.87383	5.13
3.89050	5.13
3.90717	5.13
3.92383	5.13
3.94050	5.13
3.95717	5.13
3.97383	5.13
3.99050	5.13

[Status Trace (Linear Velocity)]
Interval(msec)	1000
# of Points	240
Start Time(min)	0.007
End Time(min)	3.990
Intensity Units	
Intensity Multiplier	1
R.Time (min)	Intensity
0.00717	39.03
0.02383	37.42
0.04050	38.38
0.05717	39.82
0.07383	40.04
0.09050	39.08
0.10717	39.01
0.12383	39.03
0.14050	39.03
0.15717	39.03
0.17383	39.03
0.19050	39.03
0.20717	39.03
0.22383	39.03
0.24050	39.03
0.25717	39.03
0.27383	39.03
0.29050	39.02
0.30717	39.03
0.32383	39.03
0.34050	39.03
0.35717	39.03
0.37383	39.03
0.39050	39.03
0.40717	39.03
0.42383	39.03
0.44050	39.03
0.45717	39.03
0.47383	39.03
0.49050	39.03
0.50717	39.03
0.52383	39.03
0.54050	39.03
0.55717	39.03
0.57383	39.03
0.59050	39.03
0.60717	39.03
0.62383	39.03
0.64050	39.03
0.65717	39.03
0.67383	39.03
0.69050	39.03
0.70717	39.03
0.72383	39.03
0.74050	39.03
0.75717	39.03
0.77383	39.03
0.79050	39.03
0.80717	39.03
0.82383	39.03
0.84050	39.03
0.85717	39.03
0.87383	39.03
0.89050	39.03
0.90717	39.03
0.92383	39.03
0.94050	39.03
0.95717	39.03
0.97383	39.03
0.99050	39.03
1.00717	39.03
1.02383	39.03
1.04050	39.03
1.05717	39.03
1.07383	39.03
1.09050	39.03
1.10717	39.03
1.12383	39.04
1.14050	39.03
1.15717	39.03
1.17383	39.03
1.19050	39.03
1.20717	39.03
1.22383	39.03
1.24050	39.03
1.25717	39.03
1.27383	39.03
1.29050	39.03
1.30717	39.03
1.32383	39.03
1.34050	39.03
1.35717	39.03
1.37383	39.03
1.39050	39.03
1.40717	39.03
1.42383	39.03
1.44050	39.03
1.45717	39.03
1.47383	39.03
1.49050	39.03
1.50717	39.03
1.52383	39.03
1.54050	39.03
1.55717	39.03
1.57383	39.03
1.59050	39.03
1.60717	39.03
1.62383	39.02
1.64050	39.00
1.65717	38.98
1.67383	38.95
1.69050	38.91
1.70717	38.87
1.72383	38.84
1.74050	38.81
1.75717	38.77
1.77383	38.75
1.79050	38.71
1.80717	38.68
1.82383	38.65
1.84050	38.62
1.85717	38.59
1.87383	38.56
1.89050	38.53
1.90717	38.50
1.92383	38.47
1.94050	38.43
1.95717	38.40
1.97383	38.38
1.99050	38.34
2.00717	38.32
2.02383	38.29
2.04050	38.25
2.05717	38.22
2.07383	38.20
2.09050	38.16
2.10717	38.13
2.12383	38.11
2.14050	38.08
2.15717	38.05
2.17383	38.02
2.19050	37.99
2.20717	37.96
2.22383	37.93
2.24050	37.90
2.25717	37.87
2.27383	37.84
2.29050	37.81
2.30717	37.78
2.32383	37.75
2.34050	37.72
2.35717	37.70
2.37383	37.68
2.39050	37.67
2.40717	37.67
2.42383	37.67
2.44050	37.67
2.45717	37.67
2.47383	37.67
2.49050	37.67
2.50717	37.66
2.52383	37.65
2.54050	37.66
2.55717	37.66
2.57383	37.66
2.59050	37.66
2.60717	37.66
2.62383	37.66
2.64050	37.66
2.65717	37.66
2.67383	37.66
2.69050	37.66
2.70717	37.66
2.72383	37.66
2.74050	37.66
2.75717	37.66
2.77383	37.66
2.79050	37.66
2.80717	37.65
2.82383	37.65
2.84050	37.65
2.85717	37.66
2.87383	37.66
2.89050	37.65
2.90717	37.65
2.92383	37.65
2.94050	37.65
2.95717	37.65
2.97383	37.65
2.99050	37.65
3.00717	37.65
3.02383	37.65
3.04050	37.65
3.05717	37.65
3.07383	37.65
3.09050	37.65
3.10717	37.64
3.12383	37.64
3.14050	37.64
3.15717	37.64
3.17383	37.64
3.19050	37.64
3.20717	37.64
3.22383	37.64
3.24050	37.64
3.25717	37.64
3.27383	37.64
3.29050	37.64
3.30717	37.64
3.32383	37.64
3.34050	37.64
3.35717	37.64
3.37383	37.64
3.39050	37.64
3.40717	37.64
3.42383	37.64
3.44050	37.64
3.45717	37.64
3.47383	37.64
3.49050	37.64
3.50717	37.64
3.52383	37.64
3.54050	37.64
3.55717	37.64
3.57383	37.64
3.59050	37.64
3.60717	37.64
3.62383	37.64
3.64050	37.64
3.65717	37.64
3.67383	37.64
3.69050	37.64
3.70717	37.64
3.72383	37.64
3.74050	37.64
3.75717	37.64
3.77383	37.64
3.79050	37.64
3.80717	37.64
3.82383	37.64
3.84050	37.64
3.85717	37.64
3.87383	37.65
3.89050	37.64
3.90717	37.64
3.92383	37.64
3.94050	37.64
3.95717	37.64
3.97383	37.64
3.99050	37.64

