[Header]
Application Name	LabSolutions
Version	5.110
Data File Name	C:\Users\User\Desktop\GC Analyses\Jack\Nachusa Grasslands Sampling\T0 Timepoint July 12th\T0_07122022_010.gcd
Output Date	3/14/2023
Output Time	3:40:34 PM

[File Information]
Type	Data File
Generated	3/7/2023 2:47:31 PM
Generated by	System Administrator
Modified	3/7/2023 2:54:03 PM
Modified by	System Administrator

[Sample Information]
Operator Name	System Administrator
Acquired	3/7/2023 2:50:02 PM
Sample Type	0:Unknown
Level	0
Sample Name	010
Sample ID	010
ISTD Amount1	1
ISTD Amount2	1
ISTD Amount3	1
ISTD Amount4	1
ISTD Amount5	1
ISTD Amount6	1
ISTD Amount7	1
ISTD Amount8	1
ISTD Amount9	1
ISTD Amount10	1
ISTD Amount11	1
ISTD Amount12	1
ISTD Amount13	1
ISTD Amount14	1
ISTD Amount15	1
ISTD Amount16	1
ISTD Amount17	1
ISTD Amount18	1
ISTD Amount19	1
ISTD Amount20	1
ISTD Amount21	1
ISTD Amount22	1
ISTD Amount23	1
ISTD Amount24	1
ISTD Amount25	1
ISTD Amount26	1
ISTD Amount27	1
ISTD Amount28	1
ISTD Amount29	1
ISTD Amount30	1
ISTD Amount31	1
ISTD Amount32	1
Sample Amount	1
Dilution Factor	1
Vial#	9
Injection Volume	1
Injection Count	1
Bar Code	

[Original Files]
Data File	C:\Users\User\Desktop\GC Analyses\Jack\Nachusa Grasslands Sampling\T0 Timepoint July 12th\T0_07122022_010.gcd
Method File	C:\LabSolutions\Data\GHG_4min_2022\ghg3_togas_w_acet_4 min_new_int.gcm
Batch File	C:\LabSolutions\Data\AutoSamplerTesting\T0_07122022.gcb
Report Format File	c:\LabSolutions\System\DEFAULT.lsr

[File Description]


[Configuration]
Instrument Name	C0B7VH3-Instrument1
Instrument #	1
Line #	1
# of Detectors	3
Detector ID	DET#1	DET#2	DET#3
Detector Name	FID	PTCD	ECD
# of Channels	1	1	1

[Peak Table(Ch1)]
# of Peaks	4
Peak#	R.Time	I.Time	F.Time	Area	Height	A/H	Conc.	Mark	ID#	Name	k'	Plate #	Plate Ht.	Tailing	Resolution	Sep.Factor	Area Ratio	Height Ratio	Conc. %	Norm Conc.
1	0.449	0.339	0.570	1315	187	7.016	0.000	   			0.000	105	1424.418	0.931	0.000	0.000	0	0	0.000	0.000
2	1.476	1.439	1.538	35502	16831	2.109	250.649	   	1	CO	2.287	9237	16.239	1.372	8.685	0.000	0	0	39.664	39.664
3	1.571	1.538	1.633	4994	2355	2.121	96.561	 V 	2	CH4	2.499	10201	14.704	0.000	1.542	1.093	0	0	15.280	15.280
4	2.000	1.949	2.491	1134446	532527	2.130	284.715	   	3	CO2	3.454	17351	8.645	1.183	6.978	1.382	0	0	45.055	45.055

[Peak Table(Ch2)]
# of Peaks	0

[Peak Table(Ch3)]
# of Peaks	4
Peak#	R.Time	I.Time	F.Time	Area	Height	A/H	Conc.	Mark	ID#	Name	k'	Plate #	Plate Ht.	Tailing	Resolution	Sep.Factor	Area Ratio	Height Ratio	Conc. %	Norm Conc.
1	2.462	2.381	2.524	1129	299	3.783	0.000	   			0.000	5419	27.682	0.000	0.000	0.000	0	0	0.000	0.000
2	2.550	2.524	2.638	926	194	4.779	0.000	 V 			0.036	2380	63.038	0.000	0.513	0.000	0	0	0.000	0.000
3	2.873	2.653	3.144	19402	4776	4.062	0.496	   	1	N2O	0.167	13319	11.262	1.645	2.091	4.667	0	0	100.000	100.000
4	3.445	3.243	3.995	14173	724	19.567	0.000	   	2	SF6	0.399	986	152.071	1.739	2.125	2.393	0	0	0.000	0.000

[Compound Results(Ch1)]
# of IDs	6
ID#	Name	R.Time	Area	Height	Conc.	Curve	3rd	2nd	1st	Constant	Area Ratio	Height Ratio	Conc. %	Norm Conc.
1	CO	1.476	35502	16831	250.649	Linear	0.000000e+00	0.000000e+00	1.416423e+002	0.000000e+00	0	0	39.664	39.664
2	CH4	1.571	4994	2355	96.561	Linear	0.000000e+00	0.000000e+00	5.171738e+001	0.000000e+00	0	0	15.280	15.280
3	CO2	2.000	1134446	532527	284.715	Linear	0.000000e+00	0.000000e+00	3.984494e+003	0.000000e+00	0	0	45.055	45.055
4	Ethylene	0.000	0	0	0.000	Linear	0.000000e+00	0.000000e+00	0.000000e+00	0.000000e+00	0	0	0.000	0.000
5	Acetylene	0.000	0	0	0.000	Linear	0.000000e+00	0.000000e+00	0.000000e+00	0.000000e+00	0	0	0.000	0.000
6	Ethane	0.000	0	0	0.000	Linear	0.000000e+00	0.000000e+00	0.000000e+00	0.000000e+00	0	0	0.000	0.000

[Compound Results(Ch2)]
# of IDs	5
ID#	Name	R.Time	Area	Height	Conc.	Curve	3rd	2nd	1st	Constant	Area Ratio	Height Ratio	Conc. %	Norm Conc.
1	Hydrogen	0.000	0	0	0.000	Linear	0.000000e+00	0.000000e+00	0.000000e+00	0.000000e+00	0	0	0.000	0.000
2	Oxygen	0.000	0	0	0.000	Linear	0.000000e+00	0.000000e+00	0.000000e+00	0.000000e+00	0	0	0.000	0.000
3	Nitrogen	0.000	0	0	0.000	Linear	0.000000e+00	0.000000e+00	0.000000e+00	0.000000e+00	0	0	0.000	0.000
4	Methane	0.000	0	0	0.000	Linear	0.000000e+00	0.000000e+00	0.000000e+00	0.000000e+00	0	0	0.000	0.000
5	Carbon Monoxide	0.000	0	0	0.000	Linear	0.000000e+00	0.000000e+00	0.000000e+00	0.000000e+00	0	0	0.000	0.000

[Compound Results(Ch3)]
# of IDs	2
ID#	Name	R.Time	Area	Height	Conc.	Curve	3rd	2nd	1st	Constant	Area Ratio	Height Ratio	Conc. %	Norm Conc.
1	N2O	2.873	19402	4776	0.496	Linear	0.000000e+00	0.000000e+00	3.915173e+004	0.000000e+00	0	0	100.000	100.000
2	SF6	3.445	14173	724	0.000	Linear	0.000000e+00	0.000000e+00	0.000000e+00	0.000000e+00	0	0	0.000	0.000

[Group Results(Ch1)]
# of Groups	0

[Group Results(Ch2)]
# of Groups	0

[Group Results(Ch3)]
# of Groups	0

[Chromatogram (Ch1)]
Interval(msec)	220
# of Points	1091
Start Time(min)	0.002
End Time(min)	3.998
R.Time (min)	Intensity
0.00167	1
0.00533	2
0.00900	4
0.01267	5
0.01633	6
0.02000	6
0.02367	8
0.02733	11
0.03100	14
0.03467	15
0.03833	13
0.04200	9
0.04567	7
0.04933	6
0.05300	7
0.05667	9
0.06033	11
0.06400	13
0.06767	12
0.07133	11
0.07500	13
0.07867	14
0.08233	9
0.08600	2
0.08967	0
0.09333	4
0.09700	9
0.10067	8
0.10433	1
0.10800	-8
0.11167	-18
0.11533	-25
0.11900	-30
0.12267	-29
0.12633	-24
0.13000	-14
0.13367	-3
0.13733	2
0.14100	4
0.14467	5
0.14833	5
0.15200	6
0.15567	3
0.15933	-3
0.16300	-14
0.16667	-26
0.17033	-36
0.17400	-38
0.17767	-32
0.18133	-25
0.18500	-18
0.18867	-10
0.19233	-2
0.19600	2
0.19967	-2
0.20333	-12
0.20700	-21
0.21067	-27
0.21433	-26
0.21800	-22
0.22167	-13
0.22533	-1
0.22900	8
0.23267	11
0.23633	10
0.24000	5
0.24367	-1
0.24733	-6
0.25100	-10
0.25467	-10
0.25833	-11
0.26200	-10
0.26567	-8
0.26933	-7
0.27300	-4
0.27667	-0
0.28033	4
0.28400	8
0.28767	9
0.29133	7
0.29500	6
0.29867	6
0.30233	5
0.30600	5
0.30967	7
0.31333	8
0.31700	4
0.32067	-0
0.32433	-2
0.32800	-1
0.33167	2
0.33533	6
0.33900	12
0.34267	20
0.34633	31
0.35000	39
0.35367	42
0.35733	44
0.36100	47
0.36467	51
0.36833	57
0.37200	64
0.37567	74
0.37933	83
0.38300	90
0.38667	99
0.39033	113
0.39400	132
0.39767	146
0.40133	154
0.40500	158
0.40867	163
0.41233	169
0.41600	176
0.41967	183
0.42333	185
0.42700	184
0.43067	185
0.43433	189
0.43800	196
0.44167	201
0.44533	205
0.44900	208
0.45267	207
0.45633	198
0.46000	184
0.46367	171
0.46733	165
0.47100	166
0.47467	167
0.47833	168
0.48200	170
0.48567	172
0.48933	171
0.49300	165
0.49667	156
0.50033	147
0.50400	137
0.50767	123
0.51133	106
0.51500	90
0.51867	79
0.52233	68
0.52600	59
0.52967	51
0.53333	43
0.53700	37
0.54067	37
0.54433	42
0.54800	49
0.55167	55
0.55533	58
0.55900	57
0.56267	49
0.56633	39
0.57000	30
0.57367	21
0.57733	15
0.58100	10
0.58467	7
0.58833	2
0.59200	-5
0.59567	-14
0.59933	-20
0.60300	-22
0.60667	-20
0.61033	-14
0.61400	-9
0.61767	-8
0.62133	-7
0.62500	-6
0.62867	-8
0.63233	-8
0.63600	-6
0.63967	-6
0.64333	-11
0.64700	-21
0.65067	-32
0.65433	-37
0.65800	-33
0.66167	-26
0.66533	-24
0.66900	-28
0.67267	-34
0.67633	-38
0.68000	-37
0.68367	-33
0.68733	-29
0.69100	-23
0.69467	-14
0.69833	-6
0.70200	-2
0.70567	-3
0.70933	-11
0.71300	-21
0.71667	-30
0.72033	-35
0.72400	-37
0.72767	-35
0.73133	-30
0.73500	-27
0.73867	-22
0.74233	-15
0.74600	-6
0.74967	-0
0.75333	-5
0.75700	-13
0.76067	-21
0.76433	-28
0.76800	-33
0.77167	-34
0.77533	-33
0.77900	-30
0.78267	-27
0.78633	-22
0.79000	-20
0.79367	-24
0.79733	-29
0.80100	-36
0.80467	-42
0.80833	-49
0.81200	-54
0.81567	-53
0.81933	-44
0.82300	-28
0.82667	-12
0.83033	-4
0.83400	-6
0.83767	-13
0.84133	-25
0.84500	-34
0.84867	-37
0.85233	-35
0.85600	-29
0.85967	-25
0.86333	-23
0.86700	-23
0.87067	-23
0.87433	-24
0.87800	-24
0.88167	-23
0.88533	-24
0.88900	-26
0.89267	-28
0.89633	-30
0.90000	-34
0.90367	-37
0.90733	-38
0.91100	-40
0.91467	-45
0.91833	-48
0.92200	-48
0.92567	-41
0.92933	-32
0.93300	-28
0.93667	-28
0.94033	-29
0.94400	-30
0.94767	-29
0.95133	-28
0.95500	-27
0.95867	-30
0.96233	-34
0.96600	-36
0.96967	-36
0.97333	-35
0.97700	-31
0.98067	-24
0.98433	-21
0.98800	-25
0.99167	-34
0.99533	-43
0.99900	-49
1.00267	-49
1.00633	-47
1.01000	-45
1.01367	-45
1.01733	-46
1.02100	-46
1.02467	-48
1.02833	-47
1.03200	-45
1.03567	-44
1.03933	-45
1.04300	-45
1.04667	-46
1.05033	-46
1.05400	-47
1.05767	-50
1.06133	-50
1.06500	-51
1.06867	-51
1.07233	-48
1.07600	-40
1.07967	-30
1.08333	-24
1.08700	-22
1.09067	-21
1.09433	-21
1.09800	-20
1.10167	-21
1.10533	-25
1.10900	-25
1.11267	-24
1.11633	-25
1.12000	-28
1.12367	-31
1.12733	-33
1.13100	-38
1.13467	-46
1.13833	-54
1.14200	-57
1.14567	-57
1.14933	-56
1.15300	-55
1.15667	-49
1.16033	-43
1.16400	-40
1.16767	-41
1.17133	-45
1.17500	-47
1.17867	-46
1.18233	-46
1.18600	-48
1.18967	-53
1.19333	-60
1.19700	-60
1.20067	-55
1.20433	-46
1.20800	-37
1.21167	-32
1.21533	-34
1.21900	-36
1.22267	-38
1.22633	-40
1.23000	-42
1.23367	-45
1.23733	-52
1.24100	-62
1.24467	-69
1.24833	-70
1.25200	-71
1.25567	-70
1.25933	-68
1.26300	-62
1.26667	-53
1.27033	-46
1.27400	-41
1.27767	-35
1.28133	-28
1.28500	-25
1.28867	-27
1.29233	-34
1.29600	-46
1.29967	-59
1.30333	-70
1.30700	-77
1.31067	-80
1.31433	-81
1.31800	-82
1.32167	-81
1.32533	-77
1.32900	-72
1.33267	-68
1.33633	-65
1.34000	-65
1.34367	-65
1.34733	-64
1.35100	-62
1.35467	-62
1.35833	-63
1.36200	-66
1.36567	-71
1.36933	-77
1.37300	-85
1.37667	-90
1.38033	-86
1.38400	-78
1.38767	-69
1.39133	-60
1.39500	-53
1.39867	-50
1.40233	-52
1.40600	-57
1.40967	-61
1.41333	-63
1.41700	-61
1.42067	-54
1.42433	-48
1.42800	-45
1.43167	-45
1.43533	-47
1.43900	-43
1.44267	15
1.44633	215
1.45000	794
1.45367	2277
1.45733	4897
1.46100	8164
1.46467	11350
1.46833	13986
1.47200	15852
1.47567	16797
1.47933	16672
1.48300	15449
1.48667	13343
1.49033	10803
1.49400	8298
1.49767	6138
1.50133	4434
1.50500	3165
1.50867	2255
1.51233	1615
1.51600	1171
1.51967	862
1.52333	645
1.52700	494
1.53067	394
1.53433	325
1.53800	286
1.54167	301
1.54533	431
1.54900	717
1.55267	1116
1.55633	1539
1.56000	1908
1.56367	2181
1.56733	2336
1.57100	2343
1.57467	2184
1.57833	1881
1.58200	1508
1.58567	1141
1.58933	830
1.59300	591
1.59667	416
1.60033	289
1.60400	200
1.60767	141
1.61133	100
1.61500	69
1.61867	46
1.62233	32
1.62600	21
1.62967	11
1.63333	3
1.63700	-4
1.64067	-9
1.64433	-11
1.64800	-9
1.65167	-6
1.65533	-5
1.65900	-4
1.66267	-6
1.66633	-7
1.67000	-7
1.67367	-6
1.67733	-3
1.68100	-3
1.68467	-9
1.68833	-15
1.69200	-21
1.69567	-24
1.69933	-22
1.70300	-18
1.70667	-15
1.71033	-14
1.71400	-14
1.71767	-12
1.72133	-6
1.72500	-2
1.72867	-1
1.73233	-7
1.73600	-18
1.73967	-31
1.74333	-37
1.74700	-39
1.75067	-40
1.75433	-45
1.75800	-50
1.76167	-58
1.76533	-62
1.76900	-62
1.77267	-57
1.77633	-49
1.78000	-42
1.78367	-38
1.78733	-35
1.79100	-32
1.79467	-30
1.79833	-31
1.80200	-34
1.80567	-39
1.80933	-43
1.81300	-48
1.81667	-50
1.82033	-51
1.82400	-47
1.82767	-41
1.83133	-34
1.83500	-30
1.83867	-25
1.84233	-21
1.84600	-17
1.84967	-15
1.85333	-15
1.85700	-19
1.86067	-28
1.86433	-40
1.86800	-50
1.87167	-56
1.87533	-57
1.87900	-55
1.88267	-54
1.88633	-52
1.89000	-46
1.89367	-41
1.89733	-35
1.90100	-29
1.90467	-26
1.90833	-24
1.91200	-24
1.91567	-26
1.91933	-31
1.92300	-37
1.92667	-43
1.93033	-54
1.93400	-66
1.93767	-76
1.94133	-84
1.94500	-87
1.94867	-84
1.95233	-67
1.95600	10
1.95967	426
1.96333	2344
1.96700	9177
1.97067	27870
1.97433	67722
1.97800	134666
1.98167	225061
1.98533	325537
1.98900	419101
1.99267	490900
1.99633	530451
2.00000	532477
2.00367	498032
2.00733	435331
2.01100	357461
2.01467	278044
2.01833	207089
2.02200	149462
2.02567	105767
2.02933	74194
2.03300	52111
2.03667	36974
2.04033	26705
2.04400	19755
2.04767	15025
2.05133	11766
2.05500	9483
2.05867	7851
2.06233	6659
2.06600	5767
2.06967	5082
2.07333	4545
2.07700	4116
2.08067	3759
2.08433	3454
2.08800	3187
2.09167	2952
2.09533	2746
2.09900	2568
2.10267	2412
2.10633	2274
2.11000	2150
2.11367	2037
2.11733	1935
2.12100	1844
2.12467	1764
2.12833	1692
2.13200	1627
2.13567	1565
2.13933	1506
2.14300	1449
2.14667	1394
2.15033	1340
2.15400	1289
2.15767	1241
2.16133	1196
2.16500	1155
2.16867	1115
2.17233	1077
2.17600	1041
2.17967	1010
2.18333	982
2.18700	956
2.19067	932
2.19433	909
2.19800	886
2.20167	864
2.20533	843
2.20900	824
2.21267	807
2.21633	790
2.22000	768
2.22367	744
2.22733	720
2.23100	700
2.23467	681
2.23833	662
2.24200	645
2.24567	628
2.24933	613
2.25300	599
2.25667	586
2.26033	576
2.26400	571
2.26767	568
2.27133	567
2.27500	563
2.27867	555
2.28233	546
2.28600	534
2.28967	519
2.29333	502
2.29700	486
2.30067	473
2.30433	464
2.30800	457
2.31167	450
2.31533	440
2.31900	431
2.32267	422
2.32633	413
2.33000	405
2.33367	401
2.33733	397
2.34100	393
2.34467	391
2.34833	389
2.35200	386
2.35567	381
2.35933	382
2.36300	388
2.36667	392
2.37033	391
2.37400	386
2.37767	379
2.38133	371
2.38500	361
2.38867	353
2.39233	347
2.39600	342
2.39967	339
2.40333	335
2.40700	329
2.41067	322
2.41433	316
2.41800	313
2.42167	312
2.42533	313
2.42900	314
2.43267	314
2.43633	313
2.44000	313
2.44367	313
2.44733	312
2.45100	311
2.45467	311
2.45833	309
2.46200	304
2.46567	296
2.46933	287
2.47300	277
2.47667	271
2.48033	271
2.48400	272
2.48767	272
2.49133	270
2.49500	263
2.49867	256
2.50233	251
2.50600	250
2.50967	254
2.51333	261
2.51700	267
2.52067	272
2.52433	275
2.52800	277
2.53167	274
2.53533	265
2.53900	254
2.54267	246
2.54633	242
2.55000	242
2.55367	245
2.55733	249
2.56100	254
2.56467	258
2.56833	260
2.57200	262
2.57567	265
2.57933	265
2.58300	266
2.58667	267
2.59033	266
2.59400	258
2.59767	247
2.60133	236
2.60500	224
2.60867	217
2.61233	219
2.61600	222
2.61967	222
2.62333	219
2.62700	217
2.63067	216
2.63433	215
2.63800	212
2.64167	211
2.64533	210
2.64900	209
2.65267	214
2.65633	222
2.66000	231
2.66367	241
2.66733	251
2.67100	258
2.67467	254
2.67833	244
2.68200	234
2.68567	228
2.68933	223
2.69300	217
2.69667	213
2.70033	215
2.70400	217
2.70767	216
2.71133	217
2.71500	226
2.71867	235
2.72233	239
2.72600	239
2.72967	238
2.73333	236
2.73700	231
2.74067	227
2.74433	227
2.74800	231
2.75167	236
2.75533	239
2.75900	242
2.76267	249
2.76633	259
2.77000	266
2.77367	266
2.77733	264
2.78100	259
2.78467	251
2.78833	241
2.79200	231
2.79567	225
2.79933	220
2.80300	214
2.80667	207
2.81033	204
2.81400	208
2.81767	218
2.82133	229
2.82500	238
2.82867	243
2.83233	246
2.83600	246
2.83967	244
2.84333	242
2.84700	242
2.85067	246
2.85433	250
2.85800	256
2.86167	264
2.86533	273
2.86900	281
2.87267	281
2.87633	271
2.88000	257
2.88367	241
2.88733	231
2.89100	228
2.89467	230
2.89833	235
2.90200	240
2.90567	239
2.90933	234
2.91300	227
2.91667	222
2.92033	222
2.92400	227
2.92767	234
2.93133	241
2.93500	249
2.93867	253
2.94233	254
2.94600	251
2.94967	248
2.95333	248
2.95700	250
2.96067	250
2.96433	249
2.96800	249
2.97167	249
2.97533	249
2.97900	248
2.98267	248
2.98633	251
2.99000	258
2.99367	262
2.99733	262
3.00100	259
3.00467	257
3.00833	260
3.01200	264
3.01567	267
3.01933	266
3.02300	263
3.02667	259
3.03033	256
3.03400	257
3.03767	260
3.04133	260
3.04500	256
3.04867	252
3.05233	253
3.05600	260
3.05967	267
3.06333	271
3.06700	272
3.07067	269
3.07433	265
3.07800	262
3.08167	258
3.08533	255
3.08900	252
3.09267	254
3.09633	257
3.10000	260
3.10367	260
3.10733	260
3.11100	260
3.11467	261
3.11833	262
3.12200	260
3.12567	258
3.12933	260
3.13300	265
3.13667	265
3.14033	259
3.14400	255
3.14767	256
3.15133	259
3.15500	264
3.15867	267
3.16233	266
3.16600	260
3.16967	253
3.17333	248
3.17700	246
3.18067	247
3.18433	250
3.18800	258
3.19167	267
3.19533	274
3.19900	278
3.20267	280
3.20633	280
3.21000	278
3.21367	277
3.21733	276
3.22100	273
3.22467	268
3.22833	264
3.23200	264
3.23567	263
3.23933	262
3.24300	261
3.24667	257
3.25033	253
3.25400	250
3.25767	247
3.26133	247
3.26500	245
3.26867	242
3.27233	243
3.27600	252
3.27967	265
3.28333	277
3.28700	282
3.29067	279
3.29433	273
3.29800	270
3.30167	269
3.30533	267
3.30900	266
3.31267	265
3.31633	267
3.32000	270
3.32367	271
3.32733	269
3.33100	265
3.33467	262
3.33833	258
3.34200	251
3.34567	248
3.34933	248
3.35300	248
3.35667	250
3.36033	256
3.36400	265
3.36767	273
3.37133	277
3.37500	279
3.37867	279
3.38233	273
3.38600	267
3.38967	263
3.39333	261
3.39700	259
3.40067	255
3.40433	249
3.40800	245
3.41167	241
3.41533	239
3.41900	241
3.42267	243
3.42633	245
3.43000	245
3.43367	244
3.43733	242
3.44100	239
3.44467	238
3.44833	241
3.45200	244
3.45567	246
3.45933	248
3.46300	255
3.46667	262
3.47033	265
3.47400	262
3.47767	256
3.48133	251
3.48500	253
3.48867	257
3.49233	260
3.49600	262
3.49967	264
3.50333	264
3.50700	266
3.51067	268
3.51433	266
3.51800	262
3.52167	257
3.52533	254
3.52900	249
3.53267	241
3.53633	232
3.54000	223
3.54367	216
3.54733	212
3.55100	213
3.55467	218
3.55833	223
3.56200	226
3.56567	230
3.56933	233
3.57300	235
3.57667	239
3.58033	243
3.58400	245
3.58767	244
3.59133	242
3.59500	239
3.59867	234
3.60233	229
3.60600	228
3.60967	229
3.61333	229
3.61700	224
3.62067	219
3.62433	215
3.62800	216
3.63167	218
3.63533	221
3.63900	224
3.64267	225
3.64633	227
3.65000	231
3.65367	235
3.65733	235
3.66100	233
3.66467	231
3.66833	227
3.67200	224
3.67567	223
3.67933	223
3.68300	223
3.68667	225
3.69033	232
3.69400	239
3.69767	242
3.70133	241
3.70500	235
3.70867	226
3.71233	222
3.71600	221
3.71967	223
3.72333	228
3.72700	231
3.73067	229
3.73433	224
3.73800	216
3.74167	213
3.74533	217
3.74900	223
3.75267	226
3.75633	225
3.76000	219
3.76367	211
3.76733	204
3.77100	200
3.77467	200
3.77833	204
3.78200	207
3.78567	211
3.78933	215
3.79300	219
3.79667	221
3.80033	216
3.80400	206
3.80767	199
3.81133	194
3.81500	188
3.81867	186
3.82233	186
3.82600	184
3.82967	185
3.83333	185
3.83700	187
3.84067	188
3.84433	191
3.84800	198
3.85167	211
3.85533	224
3.85900	228
3.86267	221
3.86633	208
3.87000	194
3.87367	181
3.87733	171
3.88100	164
3.88467	163
3.88833	167
3.89200	179
3.89567	190
3.89933	194
3.90300	192
3.90667	188
3.91033	184
3.91400	180
3.91767	180
3.92133	183
3.92500	185
3.92867	187
3.93233	187
3.93600	185
3.93967	186
3.94333	190
3.94700	193
3.95067	193
3.95433	189
3.95800	184
3.96167	181
3.96533	182
3.96900	188
3.97267	196
3.97633	202
3.98000	203
3.98367	198
3.98733	190
3.99100	186
3.99467	182
3.99833	176

[Chromatogram (Ch2)]
Interval(msec)	220
# of Points	1091
Start Time(min)	0.002
End Time(min)	3.998
R.Time (min)	Intensity
0.00167	-1
0.00533	-1
0.00900	-1
0.01267	-1
0.01633	-1
0.02000	-1
0.02367	-1
0.02733	-1
0.03100	-1
0.03467	-0
0.03833	0
0.04200	1
0.04567	1
0.04933	1
0.05300	2
0.05667	2
0.06033	3
0.06400	3
0.06767	3
0.07133	4
0.07500	4
0.07867	4
0.08233	4
0.08600	4
0.08967	4
0.09333	3
0.09700	4
0.10067	4
0.10433	4
0.10800	5
0.11167	5
0.11533	5
0.11900	5
0.12267	6
0.12633	6
0.13000	6
0.13367	6
0.13733	6
0.14100	6
0.14467	5
0.14833	5
0.15200	5
0.15567	4
0.15933	4
0.16300	4
0.16667	4
0.17033	4
0.17400	3
0.17767	3
0.18133	3
0.18500	2
0.18867	2
0.19233	2
0.19600	2
0.19967	2
0.20333	3
0.20700	3
0.21067	3
0.21433	3
0.21800	3
0.22167	2
0.22533	2
0.22900	1
0.23267	1
0.23633	1
0.24000	1
0.24367	1
0.24733	1
0.25100	1
0.25467	2
0.25833	2
0.26200	2
0.26567	2
0.26933	2
0.27300	2
0.27667	2
0.28033	2
0.28400	2
0.28767	2
0.29133	2
0.29500	2
0.29867	2
0.30233	2
0.30600	2
0.30967	2
0.31333	2
0.31700	2
0.32067	2
0.32433	2
0.32800	2
0.33167	2
0.33533	2
0.33900	2
0.34267	2
0.34633	2
0.35000	2
0.35367	2
0.35733	2
0.36100	2
0.36467	2
0.36833	2
0.37200	2
0.37567	1
0.37933	1
0.38300	1
0.38667	1
0.39033	0
0.39400	-0
0.39767	-1
0.40133	-1
0.40500	-2
0.40867	-2
0.41233	-2
0.41600	-1
0.41967	-1
0.42333	-1
0.42700	-1
0.43067	-1
0.43433	-1
0.43800	-1
0.44167	-1
0.44533	-0
0.44900	0
0.45267	1
0.45633	1
0.46000	1
0.46367	2
0.46733	2
0.47100	2
0.47467	3
0.47833	3
0.48200	3
0.48567	3
0.48933	3
0.49300	2
0.49667	2
0.50033	1
0.50400	1
0.50767	0
0.51133	0
0.51500	0
0.51867	-0
0.52233	-0
0.52600	-0
0.52967	-0
0.53333	-0
0.53700	-0
0.54067	-0
0.54433	-0
0.54800	-1
0.55167	-1
0.55533	-1
0.55900	-1
0.56267	-1
0.56633	-0
0.57000	-0
0.57367	0
0.57733	1
0.58100	1
0.58467	2
0.58833	2
0.59200	2
0.59567	3
0.59933	3
0.60300	3
0.60667	3
0.61033	3
0.61400	3
0.61767	3
0.62133	4
0.62500	4
0.62867	4
0.63233	4
0.63600	4
0.63967	4
0.64333	4
0.64700	4
0.65067	5
0.65433	5
0.65800	5
0.66167	5
0.66533	6
0.66900	6
0.67267	6
0.67633	5
0.68000	5
0.68367	5
0.68733	4
0.69100	4
0.69467	3
0.69833	3
0.70200	3
0.70567	3
0.70933	2
0.71300	2
0.71667	2
0.72033	2
0.72400	2
0.72767	2
0.73133	3
0.73500	3
0.73867	3
0.74233	3
0.74600	3
0.74967	3
0.75333	3
0.75700	3
0.76067	2
0.76433	2
0.76800	2
0.77167	2
0.77533	2
0.77900	2
0.78267	2
0.78633	2
0.79000	2
0.79367	2
0.79733	2
0.80100	2
0.80467	2
0.80833	2
0.81200	3
0.81567	3
0.81933	2
0.82300	2
0.82667	2
0.83033	2
0.83400	2
0.83767	2
0.84133	2
0.84500	2
0.84867	2
0.85233	2
0.85600	2
0.85967	2
0.86333	1
0.86700	1
0.87067	0
0.87433	-0
0.87800	-0
0.88167	-0
0.88533	0
0.88900	0
0.89267	0
0.89633	1
0.90000	1
0.90367	1
0.90733	1
0.91100	2
0.91467	2
0.91833	2
0.92200	3
0.92567	3
0.92933	3
0.93300	3
0.93667	3
0.94033	3
0.94400	3
0.94767	3
0.95133	2
0.95500	2
0.95867	2
0.96233	2
0.96600	1
0.96967	1
0.97333	1
0.97700	2
0.98067	2
0.98433	2
0.98800	2
0.99167	2
0.99533	2
0.99900	2
1.00267	3
1.00633	3
1.01000	3
1.01367	4
1.01733	4
1.02100	4
1.02467	5
1.02833	5
1.03200	5
1.03567	5
1.03933	6
1.04300	6
1.04667	5
1.05033	5
1.05400	5
1.05767	5
1.06133	4
1.06500	4
1.06867	4
1.07233	4
1.07600	4
1.07967	3
1.08333	3
1.08700	3
1.09067	3
1.09433	3
1.09800	3
1.10167	3
1.10533	3
1.10900	3
1.11267	3
1.11633	3
1.12000	3
1.12367	3
1.12733	3
1.13100	3
1.13467	3
1.13833	3
1.14200	3
1.14567	3
1.14933	3
1.15300	3
1.15667	3
1.16033	3
1.16400	3
1.16767	2
1.17133	2
1.17500	2
1.17867	2
1.18233	2
1.18600	1
1.18967	1
1.19333	1
1.19700	1
1.20067	0
1.20433	0
1.20800	0
1.21167	-0
1.21533	-0
1.21900	-1
1.22267	-1
1.22633	-1
1.23000	-1
1.23367	-1
1.23733	-1
1.24100	-2
1.24467	-2
1.24833	-1
1.25200	-1
1.25567	-1
1.25933	-1
1.26300	-1
1.26667	-0
1.27033	1
1.27400	1
1.27767	2
1.28133	2
1.28500	3
1.28867	3
1.29233	3
1.29600	3
1.29967	3
1.30333	3
1.30700	3
1.31067	3
1.31433	3
1.31800	3
1.32167	3
1.32533	3
1.32900	2
1.33267	2
1.33633	1
1.34000	1
1.34367	0
1.34733	-0
1.35100	-0
1.35467	-1
1.35833	-1
1.36200	-1
1.36567	-1
1.36933	-1
1.37300	-1
1.37667	-1
1.38033	-1
1.38400	-2
1.38767	-2
1.39133	-2
1.39500	-2
1.39867	-2
1.40233	-1
1.40600	-1
1.40967	-1
1.41333	-1
1.41700	-0
1.42067	0
1.42433	1
1.42800	1
1.43167	2
1.43533	2
1.43900	3
1.44267	3
1.44633	3
1.45000	3
1.45367	3
1.45733	3
1.46100	3
1.46467	3
1.46833	3
1.47200	3
1.47567	2
1.47933	2
1.48300	2
1.48667	2
1.49033	1
1.49400	1
1.49767	1
1.50133	0
1.50500	0
1.50867	0
1.51233	0
1.51600	1
1.51967	1
1.52333	1
1.52700	1
1.53067	2
1.53433	2
1.53800	2
1.54167	2
1.54533	2
1.54900	2
1.55267	2
1.55633	2
1.56000	2
1.56367	2
1.56733	2
1.57100	2
1.57467	2
1.57833	1
1.58200	1
1.58567	1
1.58933	1
1.59300	1
1.59667	0
1.60033	-0
1.60400	-1
1.60767	-2
1.61133	-4
1.61500	-6
1.61867	-8
1.62233	-11
1.62600	-14
1.62967	-17
1.63333	-21
1.63700	-25
1.64067	-29
1.64433	-33
1.64800	-37
1.65167	-42
1.65533	-46
1.65900	-50
1.66267	-54
1.66633	-59
1.67000	-64
1.67367	-69
1.67733	-74
1.68100	-79
1.68467	-83
1.68833	-87
1.69200	-90
1.69567	-93
1.69933	-95
1.70300	-97
1.70667	-98
1.71033	-99
1.71400	-101
1.71767	-102
1.72133	-103
1.72500	-104
1.72867	-105
1.73233	-106
1.73600	-107
1.73967	-108
1.74333	-109
1.74700	-110
1.75067	-111
1.75433	-112
1.75800	-112
1.76167	-112
1.76533	-112
1.76900	-112
1.77267	-111
1.77633	-111
1.78000	-111
1.78367	-112
1.78733	-112
1.79100	-113
1.79467	-114
1.79833	-114
1.80200	-115
1.80567	-115
1.80933	-115
1.81300	-114
1.81667	-114
1.82033	-113
1.82400	-113
1.82767	-113
1.83133	-113
1.83500	-113
1.83867	-113
1.84233	-113
1.84600	-112
1.84967	-112
1.85333	-112
1.85700	-112
1.86067	-113
1.86433	-113
1.86800	-113
1.87167	-114
1.87533	-114
1.87900	-114
1.88267	-114
1.88633	-114
1.89000	-115
1.89367	-115
1.89733	-115
1.90100	-115
1.90467	-116
1.90833	-115
1.91200	-115
1.91567	-115
1.91933	-114
1.92300	-113
1.92667	-113
1.93033	-112
1.93400	-112
1.93767	-112
1.94133	-111
1.94500	-111
1.94867	-111
1.95233	-111
1.95600	-111
1.95967	-110
1.96333	-110
1.96700	-109
1.97067	-109
1.97433	-108
1.97800	-108
1.98167	-108
1.98533	-107
1.98900	-107
1.99267	-107
1.99633	-107
2.00000	-107
2.00367	-107
2.00733	-107
2.01100	-106
2.01467	-106
2.01833	-105
2.02200	-105
2.02567	-105
2.02933	-105
2.03300	-105
2.03667	-105
2.04033	-105
2.04400	-105
2.04767	-104
2.05133	-104
2.05500	-103
2.05867	-102
2.06233	-102
2.06600	-102
2.06967	-102
2.07333	-102
2.07700	-102
2.08067	-101
2.08433	-101
2.08800	-101
2.09167	-100
2.09533	-100
2.09900	-99
2.10267	-99
2.10633	-98
2.11000	-97
2.11367	-97
2.11733	-97
2.12100	-96
2.12467	-96
2.12833	-96
2.13200	-96
2.13567	-96
2.13933	-96
2.14300	-96
2.14667	-96
2.15033	-96
2.15400	-95
2.15767	-95
2.16133	-94
2.16500	-94
2.16867	-93
2.17233	-93
2.17600	-93
2.17967	-93
2.18333	-94
2.18700	-94
2.19067	-93
2.19433	-93
2.19800	-93
2.20167	-93
2.20533	-93
2.20900	-92
2.21267	-91
2.21633	-90
2.22000	-89
2.22367	-88
2.22733	-88
2.23100	-88
2.23467	-87
2.23833	-87
2.24200	-87
2.24567	-86
2.24933	-86
2.25300	-86
2.25667	-86
2.26033	-87
2.26400	-88
2.26767	-89
2.27133	-89
2.27500	-89
2.27867	-88
2.28233	-87
2.28600	-86
2.28967	-85
2.29333	-84
2.29700	-84
2.30067	-84
2.30433	-84
2.30800	-83
2.31167	-83
2.31533	-82
2.31900	-81
2.32267	-80
2.32633	-79
2.33000	-79
2.33367	-79
2.33733	-78
2.34100	-78
2.34467	-78
2.34833	-78
2.35200	-77
2.35567	-76
2.35933	-75
2.36300	-74
2.36667	-72
2.37033	-71
2.37400	-68
2.37767	-66
2.38133	-63
2.38500	-60
2.38867	-57
2.39233	-53
2.39600	-49
2.39967	-46
2.40333	-42
2.40700	-38
2.41067	-34
2.41433	-30
2.41800	-27
2.42167	-24
2.42533	-21
2.42900	-18
2.43267	-16
2.43633	-15
2.44000	-13
2.44367	-11
2.44733	-9
2.45100	-8
2.45467	-6
2.45833	-4
2.46200	-2
2.46567	-1
2.46933	0
2.47300	1
2.47667	2
2.48033	4
2.48400	5
2.48767	6
2.49133	7
2.49500	8
2.49867	9
2.50233	10
2.50600	10
2.50967	11
2.51333	12
2.51700	13
2.52067	13
2.52433	14
2.52800	15
2.53167	16
2.53533	16
2.53900	17
2.54267	18
2.54633	18
2.55000	18
2.55367	17
2.55733	17
2.56100	17
2.56467	17
2.56833	17
2.57200	18
2.57567	18
2.57933	18
2.58300	19
2.58667	19
2.59033	20
2.59400	20
2.59767	20
2.60133	20
2.60500	20
2.60867	20
2.61233	20
2.61600	20
2.61967	20
2.62333	21
2.62700	21
2.63067	21
2.63433	21
2.63800	21
2.64167	21
2.64533	21
2.64900	21
2.65267	21
2.65633	22
2.66000	22
2.66367	22
2.66733	22
2.67100	23
2.67467	23
2.67833	24
2.68200	25
2.68567	25
2.68933	25
2.69300	25
2.69667	25
2.70033	25
2.70400	25
2.70767	24
2.71133	24
2.71500	24
2.71867	24
2.72233	24
2.72600	24
2.72967	24
2.73333	24
2.73700	25
2.74067	26
2.74433	27
2.74800	28
2.75167	29
2.75533	29
2.75900	29
2.76267	29
2.76633	29
2.77000	29
2.77367	28
2.77733	27
2.78100	26
2.78467	26
2.78833	25
2.79200	25
2.79567	25
2.79933	25
2.80300	25
2.80667	25
2.81033	25
2.81400	25
2.81767	26
2.82133	26
2.82500	27
2.82867	27
2.83233	28
2.83600	27
2.83967	27
2.84333	24
2.84700	20
2.85067	14
2.85433	4
2.85800	-9
2.86167	-26
2.86533	-47
2.86900	-72
2.87267	-101
2.87633	-135
2.88000	-172
2.88367	-212
2.88733	-256
2.89100	-302
2.89467	-351
2.89833	-401
2.90200	-453
2.90567	-505
2.90933	-558
2.91300	-611
2.91667	-664
2.92033	-717
2.92400	-769
2.92767	-820
2.93133	-873
2.93500	-930
2.93867	-991
2.94233	-1047
2.94600	-1089
2.94967	-1108
2.95333	-1100
2.95700	-1067
2.96067	-1014
2.96433	-946
2.96800	-869
2.97167	-789
2.97533	-708
2.97900	-629
2.98267	-555
2.98633	-486
2.99000	-424
2.99367	-367
2.99733	-316
3.00100	-271
3.00467	-232
3.00833	-197
3.01200	-167
3.01567	-142
3.01933	-119
3.02300	-100
3.02667	-83
3.03033	-69
3.03400	-57
3.03767	-46
3.04133	-37
3.04500	-29
3.04867	-23
3.05233	-17
3.05600	-12
3.05967	-8
3.06333	-4
3.06700	-1
3.07067	2
3.07433	5
3.07800	7
3.08167	9
3.08533	10
3.08900	12
3.09267	13
3.09633	14
3.10000	15
3.10367	16
3.10733	17
3.11100	18
3.11467	18
3.11833	19
3.12200	19
3.12567	20
3.12933	20
3.13300	21
3.13667	21
3.14033	21
3.14400	21
3.14767	21
3.15133	21
3.15500	21
3.15867	21
3.16233	22
3.16600	22
3.16967	22
3.17333	22
3.17700	22
3.18067	22
3.18433	22
3.18800	22
3.19167	22
3.19533	22
3.19900	22
3.20267	22
3.20633	22
3.21000	22
3.21367	22
3.21733	22
3.22100	22
3.22467	22
3.22833	22
3.23200	22
3.23567	22
3.23933	22
3.24300	22
3.24667	22
3.25033	22
3.25400	22
3.25767	23
3.26133	23
3.26500	23
3.26867	23
3.27233	23
3.27600	23
3.27967	23
3.28333	23
3.28700	24
3.29067	24
3.29433	24
3.29800	24
3.30167	25
3.30533	25
3.30900	25
3.31267	26
3.31633	26
3.32000	26
3.32367	27
3.32733	27
3.33100	27
3.33467	28
3.33833	28
3.34200	29
3.34567	29
3.34933	29
3.35300	29
3.35667	29
3.36033	30
3.36400	30
3.36767	30
3.37133	30
3.37500	30
3.37867	30
3.38233	30
3.38600	29
3.38967	29
3.39333	29
3.39700	29
3.40067	29
3.40433	29
3.40800	29
3.41167	29
3.41533	29
3.41900	30
3.42267	30
3.42633	30
3.43000	30
3.43367	30
3.43733	30
3.44100	30
3.44467	30
3.44833	30
3.45200	29
3.45567	29
3.45933	29
3.46300	29
3.46667	29
3.47033	29
3.47400	29
3.47767	30
3.48133	30
3.48500	30
3.48867	30
3.49233	30
3.49600	31
3.49967	31
3.50333	31
3.50700	31
3.51067	31
3.51433	31
3.51800	31
3.52167	31
3.52533	31
3.52900	31
3.53267	31
3.53633	31
3.54000	32
3.54367	31
3.54733	31
3.55100	31
3.55467	31
3.55833	31
3.56200	31
3.56567	31
3.56933	31
3.57300	31
3.57667	31
3.58033	31
3.58400	31
3.58767	31
3.59133	30
3.59500	30
3.59867	30
3.60233	29
3.60600	29
3.60967	29
3.61333	29
3.61700	29
3.62067	28
3.62433	28
3.62800	28
3.63167	28
3.63533	28
3.63900	28
3.64267	28
3.64633	28
3.65000	28
3.65367	28
3.65733	28
3.66100	28
3.66467	28
3.66833	28
3.67200	28
3.67567	28
3.67933	28
3.68300	28
3.68667	28
3.69033	27
3.69400	27
3.69767	27
3.70133	27
3.70500	27
3.70867	27
3.71233	27
3.71600	27
3.71967	27
3.72333	27
3.72700	27
3.73067	27
3.73433	27
3.73800	27
3.74167	27
3.74533	27
3.74900	28
3.75267	28
3.75633	28
3.76000	28
3.76367	28
3.76733	28
3.77100	28
3.77467	28
3.77833	28
3.78200	28
3.78567	28
3.78933	28
3.79300	28
3.79667	28
3.80033	28
3.80400	28
3.80767	28
3.81133	28
3.81500	28
3.81867	28
3.82233	28
3.82600	28
3.82967	28
3.83333	28
3.83700	28
3.84067	28
3.84433	28
3.84800	28
3.85167	28
3.85533	28
3.85900	28
3.86267	28
3.86633	28
3.87000	29
3.87367	29
3.87733	29
3.88100	29
3.88467	29
3.88833	29
3.89200	29
3.89567	29
3.89933	29
3.90300	29
3.90667	29
3.91033	29
3.91400	29
3.91767	29
3.92133	29
3.92500	28
3.92867	28
3.93233	28
3.93600	28
3.93967	28
3.94333	28
3.94700	28
3.95067	27
3.95433	27
3.95800	27
3.96167	27
3.96533	27
3.96900	27
3.97267	27
3.97633	27
3.98000	26
3.98367	26
3.98733	26
3.99100	26
3.99467	26
3.99833	25

[Chromatogram (Ch3)]
Interval(msec)	220
# of Points	1091
Start Time(min)	0.002
End Time(min)	3.998
R.Time (min)	Intensity
0.00167	1
0.00533	4
0.00900	5
0.01267	5
0.01633	5
0.02000	6
0.02367	7
0.02733	9
0.03100	9
0.03467	10
0.03833	9
0.04200	7
0.04567	7
0.04933	6
0.05300	5
0.05667	7
0.06033	7
0.06400	7
0.06767	5
0.07133	4
0.07500	4
0.07867	3
0.08233	2
0.08600	2
0.08967	1
0.09333	0
0.09700	-0
0.10067	1
0.10433	4
0.10800	4
0.11167	3
0.11533	1
0.11900	-0
0.12267	-2
0.12633	-3
0.13000	0
0.13367	1
0.13733	2
0.14100	2
0.14467	2
0.14833	6
0.15200	9
0.15567	9
0.15933	8
0.16300	6
0.16667	5
0.17033	7
0.17400	9
0.17767	11
0.18133	12
0.18500	11
0.18867	8
0.19233	7
0.19600	6
0.19967	9
0.20333	10
0.20700	11
0.21067	11
0.21433	12
0.21800	13
0.22167	14
0.22533	15
0.22900	15
0.23267	14
0.23633	12
0.24000	10
0.24367	11
0.24733	11
0.25100	11
0.25467	8
0.25833	6
0.26200	6
0.26567	5
0.26933	2
0.27300	2
0.27667	4
0.28033	5
0.28400	5
0.28767	5
0.29133	8
0.29500	10
0.29867	11
0.30233	13
0.30600	15
0.30967	16
0.31333	17
0.31700	16
0.32067	14
0.32433	13
0.32800	12
0.33167	10
0.33533	10
0.33900	9
0.34267	7
0.34633	6
0.35000	6
0.35367	6
0.35733	5
0.36100	5
0.36467	5
0.36833	4
0.37200	4
0.37567	5
0.37933	6
0.38300	8
0.38667	10
0.39033	10
0.39400	12
0.39767	13
0.40133	12
0.40500	12
0.40867	13
0.41233	13
0.41600	12
0.41967	11
0.42333	11
0.42700	10
0.43067	8
0.43433	9
0.43800	10
0.44167	13
0.44533	13
0.44900	13
0.45267	12
0.45633	11
0.46000	10
0.46367	9
0.46733	10
0.47100	10
0.47467	11
0.47833	12
0.48200	12
0.48567	9
0.48933	6
0.49300	7
0.49667	10
0.50033	11
0.50400	12
0.50767	13
0.51133	13
0.51500	14
0.51867	15
0.52233	15
0.52600	14
0.52967	13
0.53333	12
0.53700	11
0.54067	12
0.54433	11
0.54800	11
0.55167	11
0.55533	11
0.55900	10
0.56267	11
0.56633	12
0.57000	14
0.57367	18
0.57733	19
0.58100	20
0.58467	19
0.58833	18
0.59200	17
0.59567	16
0.59933	18
0.60300	21
0.60667	20
0.61033	17
0.61400	17
0.61767	18
0.62133	18
0.62500	17
0.62867	16
0.63233	14
0.63600	13
0.63967	12
0.64333	12
0.64700	14
0.65067	16
0.65433	16
0.65800	15
0.66167	15
0.66533	13
0.66900	14
0.67267	15
0.67633	14
0.68000	15
0.68367	15
0.68733	15
0.69100	17
0.69467	18
0.69833	18
0.70200	20
0.70567	21
0.70933	20
0.71300	18
0.71667	15
0.72033	14
0.72400	12
0.72767	13
0.73133	13
0.73500	13
0.73867	15
0.74233	14
0.74600	14
0.74967	15
0.75333	16
0.75700	17
0.76067	20
0.76433	21
0.76800	20
0.77167	19
0.77533	21
0.77900	22
0.78267	23
0.78633	24
0.79000	25
0.79367	27
0.79733	26
0.80100	23
0.80467	23
0.80833	23
0.81200	22
0.81567	22
0.81933	22
0.82300	22
0.82667	20
0.83033	20
0.83400	21
0.83767	22
0.84133	22
0.84500	22
0.84867	21
0.85233	21
0.85600	21
0.85967	20
0.86333	21
0.86700	22
0.87067	23
0.87433	23
0.87800	23
0.88167	22
0.88533	22
0.88900	20
0.89267	20
0.89633	19
0.90000	18
0.90367	18
0.90733	18
0.91100	18
0.91467	17
0.91833	17
0.92200	18
0.92567	17
0.92933	18
0.93300	21
0.93667	23
0.94033	25
0.94400	24
0.94767	23
0.95133	21
0.95500	21
0.95867	22
0.96233	24
0.96600	25
0.96967	26
0.97333	25
0.97700	22
0.98067	19
0.98433	20
0.98800	22
0.99167	20
0.99533	19
0.99900	18
1.00267	20
1.00633	21
1.01000	22
1.01367	22
1.01733	21
1.02100	21
1.02467	22
1.02833	24
1.03200	25
1.03567	26
1.03933	27
1.04300	24
1.04667	21
1.05033	21
1.05400	21
1.05767	23
1.06133	24
1.06500	25
1.06867	26
1.07233	24
1.07600	24
1.07967	26
1.08333	26
1.08700	24
1.09067	22
1.09433	21
1.09800	22
1.10167	22
1.10533	21
1.10900	22
1.11267	21
1.11633	21
1.12000	22
1.12367	23
1.12733	24
1.13100	23
1.13467	22
1.13833	24
1.14200	25
1.14567	23
1.14933	24
1.15300	26
1.15667	25
1.16033	25
1.16400	24
1.16767	22
1.17133	21
1.17500	20
1.17867	18
1.18233	18
1.18600	19
1.18967	20
1.19333	21
1.19700	20
1.20067	19
1.20433	18
1.20800	17
1.21167	18
1.21533	20
1.21900	20
1.22267	21
1.22633	23
1.23000	23
1.23367	21
1.23733	18
1.24100	17
1.24467	16
1.24833	15
1.25200	15
1.25567	19
1.25933	22
1.26300	22
1.26667	21
1.27033	22
1.27400	20
1.27767	18
1.28133	18
1.28500	18
1.28867	16
1.29233	16
1.29600	17
1.29967	16
1.30333	16
1.30700	18
1.31067	18
1.31433	18
1.31800	17
1.32167	18
1.32533	18
1.32900	15
1.33267	14
1.33633	15
1.34000	16
1.34367	16
1.34733	15
1.35100	15
1.35467	17
1.35833	17
1.36200	17
1.36567	18
1.36933	20
1.37300	20
1.37667	19
1.38033	17
1.38400	17
1.38767	17
1.39133	18
1.39500	19
1.39867	20
1.40233	20
1.40600	20
1.40967	18
1.41333	18
1.41700	21
1.42067	24
1.42433	25
1.42800	22
1.43167	19
1.43533	18
1.43900	17
1.44267	19
1.44633	19
1.45000	18
1.45367	17
1.45733	16
1.46100	16
1.46467	16
1.46833	18
1.47200	19
1.47567	18
1.47933	19
1.48300	20
1.48667	21
1.49033	20
1.49400	20
1.49767	20
1.50133	19
1.50500	16
1.50867	16
1.51233	16
1.51600	16
1.51967	17
1.52333	20
1.52700	21
1.53067	20
1.53433	18
1.53800	16
1.54167	16
1.54533	18
1.54900	19
1.55267	18
1.55633	17
1.56000	19
1.56367	17
1.56733	14
1.57100	14
1.57467	15
1.57833	17
1.58200	18
1.58567	18
1.58933	19
1.59300	18
1.59667	18
1.60033	19
1.60400	19
1.60767	19
1.61133	21
1.61500	22
1.61867	20
1.62233	20
1.62600	22
1.62967	24
1.63333	26
1.63700	25
1.64067	26
1.64433	24
1.64800	23
1.65167	23
1.65533	23
1.65900	25
1.66267	27
1.66633	29
1.67000	29
1.67367	29
1.67733	30
1.68100	30
1.68467	31
1.68833	30
1.69200	27
1.69567	25
1.69933	24
1.70300	24
1.70667	27
1.71033	31
1.71400	34
1.71767	36
1.72133	35
1.72500	36
1.72867	37
1.73233	37
1.73600	39
1.73967	38
1.74333	39
1.74700	39
1.75067	39
1.75433	39
1.75800	41
1.76167	44
1.76533	45
1.76900	46
1.77267	47
1.77633	46
1.78000	44
1.78367	42
1.78733	43
1.79100	46
1.79467	50
1.79833	52
1.80200	51
1.80567	50
1.80933	50
1.81300	52
1.81667	55
1.82033	56
1.82400	55
1.82767	54
1.83133	55
1.83500	56
1.83867	55
1.84233	54
1.84600	52
1.84967	53
1.85333	55
1.85700	54
1.86067	52
1.86433	51
1.86800	54
1.87167	55
1.87533	57
1.87900	58
1.88267	57
1.88633	58
1.89000	62
1.89367	63
1.89733	61
1.90100	59
1.90467	60
1.90833	61
1.91200	62
1.91567	61
1.91933	59
1.92300	60
1.92667	60
1.93033	59
1.93400	58
1.93767	61
1.94133	63
1.94500	64
1.94867	64
1.95233	64
1.95600	67
1.95967	70
1.96333	70
1.96700	69
1.97067	69
1.97433	70
1.97800	71
1.98167	71
1.98533	71
1.98900	69
1.99267	68
1.99633	67
2.00000	68
2.00367	70
2.00733	71
2.01100	71
2.01467	73
2.01833	74
2.02200	77
2.02567	80
2.02933	82
2.03300	83
2.03667	85
2.04033	85
2.04400	85
2.04767	84
2.05133	83
2.05500	85
2.05867	89
2.06233	91
2.06600	94
2.06967	97
2.07333	99
2.07700	100
2.08067	99
2.08433	96
2.08800	93
2.09167	92
2.09533	91
2.09900	93
2.10267	94
2.10633	95
2.11000	95
2.11367	95
2.11733	97
2.12100	98
2.12467	99
2.12833	99
2.13200	96
2.13567	95
2.13933	97
2.14300	98
2.14667	99
2.15033	101
2.15400	99
2.15767	99
2.16133	101
2.16500	104
2.16867	106
2.17233	105
2.17600	105
2.17967	105
2.18333	106
2.18700	109
2.19067	111
2.19433	113
2.19800	114
2.20167	114
2.20533	115
2.20900	117
2.21267	117
2.21633	117
2.22000	118
2.22367	120
2.22733	120
2.23100	119
2.23467	121
2.23833	122
2.24200	124
2.24567	127
2.24933	129
2.25300	131
2.25667	133
2.26033	136
2.26400	135
2.26767	135
2.27133	136
2.27500	137
2.27867	138
2.28233	141
2.28600	141
2.28967	141
2.29333	142
2.29700	143
2.30067	144
2.30433	146
2.30800	149
2.31167	152
2.31533	153
2.31900	153
2.32267	153
2.32633	153
2.33000	154
2.33367	153
2.33733	152
2.34100	153
2.34467	153
2.34833	153
2.35200	154
2.35567	157
2.35933	159
2.36300	163
2.36667	167
2.37033	170
2.37400	172
2.37767	171
2.38133	171
2.38500	171
2.38867	171
2.39233	171
2.39600	176
2.39967	180
2.40333	182
2.40700	183
2.41067	185
2.41433	185
2.41800	186
2.42167	187
2.42533	187
2.42900	187
2.43267	191
2.43633	197
2.44000	202
2.44367	225
2.44733	286
2.45100	353
2.45467	407
2.45833	446
2.46200	462
2.46567	458
2.46933	447
2.47300	436
2.47667	425
2.48033	418
2.48400	413
2.48767	409
2.49133	399
2.49500	385
2.49867	371
2.50233	356
2.50600	346
2.50967	338
2.51333	332
2.51700	325
2.52067	319
2.52433	317
2.52800	320
2.53167	324
2.53533	330
2.53900	336
2.54267	343
2.54633	348
2.55000	349
2.55367	347
2.55733	342
2.56100	336
2.56467	330
2.56833	325
2.57200	321
2.57567	317
2.57933	314
2.58300	311
2.58667	308
2.59033	304
2.59400	299
2.59767	295
2.60133	289
2.60500	281
2.60867	267
2.61233	248
2.61600	228
2.61967	208
2.62333	189
2.62700	172
2.63067	162
2.63433	153
2.63800	147
2.64167	144
2.64533	144
2.64900	146
2.65267	151
2.65633	160
2.66000	168
2.66367	178
2.66733	188
2.67100	199
2.67467	206
2.67833	216
2.68200	227
2.68567	236
2.68933	244
2.69300	252
2.69667	257
2.70033	261
2.70400	268
2.70767	269
2.71133	267
2.71500	267
2.71867	266
2.72233	267
2.72600	268
2.72967	271
2.73333	275
2.73700	277
2.74067	279
2.74433	282
2.74800	284
2.75167	285
2.75533	288
2.75900	288
2.76267	286
2.76633	284
2.77000	284
2.77367	286
2.77733	288
2.78100	290
2.78467	293
2.78833	295
2.79200	297
2.79567	298
2.79933	296
2.80300	293
2.80667	293
2.81033	293
2.81400	293
2.81767	296
2.82133	312
2.82500	345
2.82867	412
2.83233	532
2.83600	727
2.83967	1020
2.84333	1417
2.84700	1906
2.85067	2464
2.85433	3055
2.85800	3634
2.86167	4150
2.86533	4562
2.86900	4839
2.87267	4971
2.87633	4964
2.88000	4837
2.88367	4613
2.88733	4327
2.89100	4002
2.89467	3657
2.89833	3310
2.90200	2973
2.90567	2656
2.90933	2366
2.91300	2104
2.91667	1871
2.92033	1663
2.92400	1479
2.92767	1318
2.93133	1176
2.93500	1053
2.93867	947
2.94233	853
2.94600	771
2.94967	702
2.95333	644
2.95700	597
2.96067	557
2.96433	520
2.96800	488
2.97167	459
2.97533	435
2.97900	416
2.98267	400
2.98633	387
2.99000	375
2.99367	360
2.99733	347
3.00100	336
3.00467	331
3.00833	326
3.01200	320
3.01567	316
3.01933	311
3.02300	306
3.02667	300
3.03033	296
3.03400	294
3.03767	292
3.04133	290
3.04500	289
3.04867	286
3.05233	285
3.05600	282
3.05967	280
3.06333	280
3.06700	278
3.07067	275
3.07433	272
3.07800	271
3.08167	269
3.08533	266
3.08900	265
3.09267	267
3.09633	267
3.10000	266
3.10367	263
3.10733	262
3.11100	261
3.11467	260
3.11833	259
3.12200	258
3.12567	256
3.12933	254
3.13300	254
3.13667	253
3.14033	250
3.14400	248
3.14767	248
3.15133	248
3.15500	250
3.15867	252
3.16233	253
3.16600	253
3.16967	251
3.17333	251
3.17700	251
3.18067	252
3.18433	253
3.18800	256
3.19167	255
3.19533	254
3.19900	255
3.20267	255
3.20633	251
3.21000	250
3.21367	249
3.21733	249
3.22100	250
3.22467	250
3.22833	252
3.23200	247
3.23567	235
3.23933	228
3.24300	236
3.24667	259
3.25033	292
3.25400	325
3.25767	356
3.26133	387
3.26500	419
3.26867	452
3.27233	485
3.27600	519
3.27967	553
3.28333	586
3.28700	617
3.29067	645
3.29433	672
3.29800	699
3.30167	722
3.30533	740
3.30900	754
3.31267	766
3.31633	778
3.32000	787
3.32367	794
3.32733	803
3.33100	809
3.33467	817
3.33833	823
3.34200	827
3.34567	831
3.34933	834
3.35300	839
3.35667	845
3.36033	852
3.36400	859
3.36767	867
3.37133	874
3.37500	880
3.37867	890
3.38233	901
3.38600	910
3.38967	919
3.39333	929
3.39700	940
3.40067	949
3.40433	959
3.40800	968
3.41167	977
3.41533	986
3.41900	996
3.42267	1005
3.42633	1013
3.43000	1019
3.43367	1022
3.43733	1025
3.44100	1029
3.44467	1031
3.44833	1032
3.45200	1031
3.45567	1028
3.45933	1026
3.46300	1024
3.46667	1019
3.47033	1012
3.47400	1000
3.47767	987
3.48133	976
3.48500	964
3.48867	953
3.49233	940
3.49600	926
3.49967	911
3.50333	895
3.50700	880
3.51067	867
3.51433	851
3.51800	840
3.52167	830
3.52533	820
3.52900	811
3.53267	800
3.53633	790
3.54000	780
3.54367	770
3.54733	759
3.55100	752
3.55467	745
3.55833	742
3.56200	738
3.56567	736
3.56933	731
3.57300	724
3.57667	715
3.58033	705
3.58400	699
3.58767	695
3.59133	691
3.59500	691
3.59867	690
3.60233	684
3.60600	679
3.60967	675
3.61333	671
3.61700	670
3.62067	669
3.62433	668
3.62800	665
3.63167	661
3.63533	656
3.63900	651
3.64267	649
3.64633	646
3.65000	644
3.65367	643
3.65733	643
3.66100	642
3.66467	639
3.66833	638
3.67200	636
3.67567	632
3.67933	629
3.68300	626
3.68667	623
3.69033	620
3.69400	617
3.69767	615
3.70133	614
3.70500	612
3.70867	609
3.71233	606
3.71600	603
3.71967	600
3.72333	596
3.72700	594
3.73067	592
3.73433	591
3.73800	589
3.74167	588
3.74533	588
3.74900	586
3.75267	584
3.75633	581
3.76000	577
3.76367	572
3.76733	569
3.77100	568
3.77467	568
3.77833	568
3.78200	564
3.78567	561
3.78933	561
3.79300	560
3.79667	557
3.80033	556
3.80400	555
3.80767	555
3.81133	552
3.81500	549
3.81867	549
3.82233	546
3.82600	544
3.82967	543
3.83333	541
3.83700	540
3.84067	542
3.84433	542
3.84800	540
3.85167	539
3.85533	537
3.85900	536
3.86267	535
3.86633	533
3.87000	531
3.87367	529
3.87733	528
3.88100	525
3.88467	526
3.88833	526
3.89200	525
3.89567	524
3.89933	524
3.90300	524
3.90667	522
3.91033	522
3.91400	520
3.91767	520
3.92133	518
3.92500	517
3.92867	516
3.93233	514
3.93600	515
3.93967	514
3.94333	510
3.94700	506
3.95067	507
3.95433	509
3.95800	508
3.96167	509
3.96533	511
3.96900	513
3.97267	512
3.97633	509
3.98000	506
3.98367	504
3.98733	502
3.99100	501
3.99467	501
3.99833	498

[Status Trace (Column Oven Temperature)]
Interval(msec)	1000
# of Points	240
Start Time(min)	0.013
End Time(min)	3.996
Intensity Units	
Intensity Multiplier	1
R.Time (min)	Intensity
0.01250	35.03
0.02917	35.03
0.04583	35.03
0.06250	35.01
0.07917	35.01
0.09583	35.00
0.11250	35.00
0.12917	34.99
0.14583	34.99
0.16250	34.99
0.17917	34.99
0.19583	34.98
0.21250	34.99
0.22917	35.00
0.24583	35.00
0.26250	34.99
0.27917	34.98
0.29583	34.97
0.31250	34.97
0.32917	34.97
0.34583	34.97
0.36250	34.97
0.37917	34.98
0.39583	35.00
0.41250	35.01
0.42917	35.02
0.44583	35.01
0.46250	35.00
0.47917	34.99
0.49583	35.01
0.51250	35.02
0.52917	35.02
0.54583	35.03
0.56250	35.03
0.57917	35.03
0.59583	35.02
0.61250	35.01
0.62917	34.99
0.64583	35.00
0.66250	34.99
0.67917	34.98
0.69583	34.99
0.71250	34.99
0.72917	34.99
0.74583	34.99
0.76250	34.98
0.77917	34.99
0.79583	34.99
0.81250	35.00
0.82917	35.00
0.84583	34.99
0.86250	35.01
0.87917	35.02
0.89583	35.02
0.91250	35.01
0.92917	35.00
0.94583	35.00
0.96250	35.00
0.97917	34.99
0.99583	34.99
1.01250	34.98
1.02917	34.97
1.04583	34.97
1.06250	34.97
1.07917	34.96
1.09583	34.97
1.11250	34.96
1.12917	34.96
1.14583	34.96
1.16250	34.95
1.17917	34.95
1.19583	34.96
1.21250	34.97
1.22917	34.98
1.24583	34.99
1.26250	34.98
1.27917	34.98
1.29583	34.96
1.31250	34.96
1.32917	34.97
1.34583	34.98
1.36250	35.00
1.37917	35.01
1.39583	35.01
1.41250	35.00
1.42917	35.00
1.44583	34.99
1.46250	34.98
1.47917	34.99
1.49583	34.99
1.51250	34.99
1.52917	34.98
1.54583	34.97
1.56250	34.97
1.57917	34.96
1.59583	34.99
1.61250	35.06
1.62917	35.21
1.64583	35.43
1.66250	35.72
1.67917	36.08
1.69583	36.43
1.71250	36.76
1.72917	37.11
1.74583	37.45
1.76250	37.76
1.77917	38.10
1.79583	38.44
1.81250	38.75
1.82917	39.09
1.84583	39.41
1.86250	39.74
1.87917	40.07
1.89583	40.41
1.91250	40.74
1.92917	41.07
1.94583	41.39
1.96250	41.71
1.97917	42.03
1.99583	42.36
2.01250	42.68
2.02917	43.01
2.04583	43.31
2.06250	43.63
2.07917	43.98
2.09583	44.30
2.11250	44.62
2.12917	44.94
2.14583	45.27
2.16250	45.59
2.17917	45.93
2.19583	46.27
2.21250	46.60
2.22917	46.93
2.24583	47.23
2.26250	47.63
2.27917	47.94
2.29583	48.27
2.31250	48.59
2.32917	48.92
2.34583	49.23
2.36250	49.52
2.37917	49.69
2.39583	49.74
2.41250	49.73
2.42917	49.73
2.44583	49.75
2.46250	49.75
2.47917	49.77
2.49583	49.78
2.51250	49.79
2.52917	49.78
2.54583	49.79
2.56250	49.81
2.57917	49.80
2.59583	49.81
2.61250	49.83
2.62917	49.83
2.64583	49.83
2.66250	49.85
2.67917	49.84
2.69583	49.85
2.71250	49.87
2.72917	49.88
2.74583	49.84
2.76250	49.84
2.77917	49.86
2.79583	49.88
2.81250	49.90
2.82917	49.89
2.84583	49.88
2.86250	49.88
2.87917	49.88
2.89583	49.88
2.91250	49.88
2.92917	49.91
2.94583	49.94
2.96250	49.95
2.97917	49.98
2.99583	50.00
3.01250	50.01
3.02917	50.02
3.04583	50.02
3.06250	50.01
3.07917	50.02
3.09583	50.01
3.11250	50.00
3.12917	49.99
3.14583	50.00
3.16250	50.01
3.17917	50.02
3.19583	50.04
3.21250	50.05
3.22917	50.07
3.24583	50.08
3.26250	50.09
3.27917	50.10
3.29583	50.11
3.31250	50.10
3.32917	50.09
3.34583	50.08
3.36250	50.07
3.37917	50.07
3.39583	50.07
3.41250	50.06
3.42917	50.05
3.44583	50.05
3.46250	50.05
3.47917	50.04
3.49583	50.03
3.51250	50.02
3.52917	50.01
3.54583	50.00
3.56250	50.00
3.57917	50.01
3.59583	50.01
3.61250	50.02
3.62917	50.03
3.64583	50.04
3.66250	50.04
3.67917	50.05
3.69583	50.06
3.71250	50.05
3.72917	50.06
3.74583	50.05
3.76250	50.05
3.77917	50.04
3.79583	50.04
3.81250	50.03
3.82917	50.04
3.84583	50.03
3.86250	50.03
3.87917	50.02
3.89583	50.02
3.91250	50.02
3.92917	50.02
3.94583	50.03
3.96250	50.04
3.97917	50.06
3.99583	50.07

[Status Trace (Injection Unit Temperature)]
Interval(msec)	1000
# of Points	240
Start Time(min)	0.013
End Time(min)	3.996
Intensity Units	
Intensity Multiplier	1
R.Time (min)	Intensity
0.01250	99.98
0.02917	99.98
0.04583	99.98
0.06250	99.98
0.07917	99.98
0.09583	99.98
0.11250	99.98
0.12917	99.98
0.14583	99.98
0.16250	99.98
0.17917	99.98
0.19583	99.98
0.21250	99.98
0.22917	99.98
0.24583	99.98
0.26250	99.97
0.27917	99.97
0.29583	99.97
0.31250	99.98
0.32917	99.97
0.34583	99.98
0.36250	99.97
0.37917	99.97
0.39583	99.98
0.41250	99.97
0.42917	99.98
0.44583	99.97
0.46250	99.98
0.47917	99.97
0.49583	99.97
0.51250	99.97
0.52917	99.98
0.54583	99.98
0.56250	99.97
0.57917	99.97
0.59583	99.97
0.61250	99.97
0.62917	99.97
0.64583	99.97
0.66250	99.98
0.67917	99.98
0.69583	99.98
0.71250	99.98
0.72917	99.98
0.74583	99.98
0.76250	99.98
0.77917	99.97
0.79583	99.98
0.81250	99.98
0.82917	99.98
0.84583	99.98
0.86250	99.98
0.87917	99.98
0.89583	99.98
0.91250	99.98
0.92917	99.98
0.94583	99.98
0.96250	99.99
0.97917	99.98
0.99583	99.98
1.01250	99.98
1.02917	99.98
1.04583	99.98
1.06250	99.98
1.07917	99.99
1.09583	99.98
1.11250	99.98
1.12917	99.98
1.14583	99.98
1.16250	99.98
1.17917	99.98
1.19583	99.98
1.21250	99.98
1.22917	99.98
1.24583	99.98
1.26250	99.99
1.27917	99.98
1.29583	99.98
1.31250	99.98
1.32917	99.98
1.34583	99.98
1.36250	99.98
1.37917	99.98
1.39583	99.97
1.41250	99.98
1.42917	99.98
1.44583	99.98
1.46250	99.98
1.47917	99.98
1.49583	99.98
1.51250	99.98
1.52917	99.98
1.54583	99.98
1.56250	99.98
1.57917	99.98
1.59583	99.98
1.61250	99.98
1.62917	99.99
1.64583	99.98
1.66250	99.98
1.67917	99.98
1.69583	99.98
1.71250	99.98
1.72917	99.98
1.74583	99.98
1.76250	99.98
1.77917	99.98
1.79583	99.98
1.81250	99.98
1.82917	99.98
1.84583	99.98
1.86250	99.98
1.87917	99.98
1.89583	99.98
1.91250	99.97
1.92917	99.97
1.94583	99.98
1.96250	99.97
1.97917	99.98
1.99583	99.98
2.01250	99.97
2.02917	99.97
2.04583	99.97
2.06250	99.97
2.07917	99.97
2.09583	99.97
2.11250	99.97
2.12917	99.97
2.14583	99.97
2.16250	99.97
2.17917	99.97
2.19583	99.97
2.21250	99.97
2.22917	99.96
2.24583	99.97
2.26250	99.97
2.27917	99.97
2.29583	99.96
2.31250	99.97
2.32917	99.97
2.34583	99.97
2.36250	99.97
2.37917	99.96
2.39583	99.97
2.41250	99.96
2.42917	99.96
2.44583	99.96
2.46250	99.96
2.47917	99.96
2.49583	99.96
2.51250	99.97
2.52917	99.97
2.54583	99.97
2.56250	99.97
2.57917	99.97
2.59583	99.97
2.61250	99.96
2.62917	99.97
2.64583	99.97
2.66250	99.97
2.67917	99.98
2.69583	99.97
2.71250	99.98
2.72917	99.98
2.74583	99.98
2.76250	99.98
2.77917	99.99
2.79583	99.99
2.81250	99.98
2.82917	99.99
2.84583	99.99
2.86250	100.00
2.87917	99.99
2.89583	99.99
2.91250	100.00
2.92917	100.00
2.94583	100.00
2.96250	100.00
2.97917	100.00
2.99583	100.01
3.01250	100.01
3.02917	100.01
3.04583	100.01
3.06250	100.01
3.07917	100.01
3.09583	100.01
3.11250	100.01
3.12917	100.02
3.14583	100.02
3.16250	100.02
3.17917	100.02
3.19583	100.02
3.21250	100.02
3.22917	100.02
3.24583	100.03
3.26250	100.03
3.27917	100.03
3.29583	100.03
3.31250	100.03
3.32917	100.03
3.34583	100.03
3.36250	100.03
3.37917	100.04
3.39583	100.04
3.41250	100.03
3.42917	100.04
3.44583	100.04
3.46250	100.04
3.47917	100.04
3.49583	100.04
3.51250	100.03
3.52917	100.04
3.54583	100.04
3.56250	100.04
3.57917	100.04
3.59583	100.04
3.61250	100.04
3.62917	100.04
3.64583	100.04
3.66250	100.04
3.67917	100.04
3.69583	100.04
3.71250	100.04
3.72917	100.04
3.74583	100.04
3.76250	100.04
3.77917	100.04
3.79583	100.04
3.81250	100.04
3.82917	100.04
3.84583	100.05
3.86250	100.05
3.87917	100.05
3.89583	100.05
3.91250	100.04
3.92917	100.05
3.94583	100.05
3.96250	100.04
3.97917	100.03
3.99583	100.05

[Status Trace (Carrier Gas Pressure)]
Interval(msec)	1000
# of Points	240
Start Time(min)	0.013
End Time(min)	3.996
Intensity Units	
Intensity Multiplier	1
R.Time (min)	Intensity
0.01250	57.96
0.02917	54.96
0.04583	57.73
0.06250	59.75
0.07917	58.90
0.09583	57.99
0.11250	57.99
0.12917	58.01
0.14583	58.01
0.16250	58.00
0.17917	58.00
0.19583	58.00
0.21250	58.00
0.22917	58.00
0.24583	58.00
0.26250	58.00
0.27917	58.00
0.29583	58.00
0.31250	58.00
0.32917	58.00
0.34583	58.00
0.36250	58.00
0.37917	58.00
0.39583	58.00
0.41250	58.00
0.42917	58.00
0.44583	58.00
0.46250	58.00
0.47917	58.00
0.49583	58.00
0.51250	58.00
0.52917	58.00
0.54583	58.00
0.56250	58.00
0.57917	58.00
0.59583	58.00
0.61250	58.00
0.62917	58.00
0.64583	58.00
0.66250	58.00
0.67917	58.00
0.69583	58.00
0.71250	58.00
0.72917	58.00
0.74583	58.00
0.76250	58.00
0.77917	58.00
0.79583	58.00
0.81250	58.00
0.82917	58.00
0.84583	58.00
0.86250	58.00
0.87917	58.00
0.89583	58.00
0.91250	58.00
0.92917	58.00
0.94583	58.00
0.96250	58.00
0.97917	58.00
0.99583	58.00
1.01250	58.00
1.02917	58.00
1.04583	58.00
1.06250	58.00
1.07917	58.00
1.09583	58.00
1.11250	58.00
1.12917	58.00
1.14583	58.00
1.16250	58.00
1.17917	58.00
1.19583	58.00
1.21250	58.00
1.22917	58.00
1.24583	58.00
1.26250	58.00
1.27917	58.00
1.29583	58.00
1.31250	58.00
1.32917	58.00
1.34583	58.00
1.36250	58.00
1.37917	58.00
1.39583	58.00
1.41250	58.00
1.42917	58.00
1.44583	58.00
1.46250	58.00
1.47917	58.00
1.49583	58.00
1.51250	58.00
1.52917	58.00
1.54583	58.00
1.56250	58.00
1.57917	58.00
1.59583	58.00
1.61250	58.00
1.62917	58.00
1.64583	58.01
1.66250	58.01
1.67917	58.01
1.69583	58.00
1.71250	58.00
1.72917	58.00
1.74583	58.00
1.76250	58.00
1.77917	58.00
1.79583	58.00
1.81250	58.00
1.82917	58.00
1.84583	58.00
1.86250	58.00
1.87917	58.00
1.89583	58.00
1.91250	58.00
1.92917	58.00
1.94583	58.00
1.96250	58.00
1.97917	58.00
1.99583	58.00
2.01250	58.00
2.02917	58.00
2.04583	58.00
2.06250	58.00
2.07917	58.00
2.09583	58.00
2.11250	58.00
2.12917	58.00
2.14583	58.00
2.16250	58.00
2.17917	58.00
2.19583	58.00
2.21250	58.00
2.22917	58.00
2.24583	58.00
2.26250	58.00
2.27917	58.00
2.29583	58.00
2.31250	58.00
2.32917	58.00
2.34583	58.00
2.36250	58.00
2.37917	58.00
2.39583	57.99
2.41250	57.99
2.42917	58.00
2.44583	58.00
2.46250	58.00
2.47917	58.00
2.49583	58.00
2.51250	57.99
2.52917	57.98
2.54583	58.00
2.56250	58.00
2.57917	58.00
2.59583	58.00
2.61250	58.00
2.62917	58.00
2.64583	58.00
2.66250	58.00
2.67917	58.00
2.69583	58.00
2.71250	58.00
2.72917	58.00
2.74583	58.00
2.76250	58.00
2.77917	58.00
2.79583	58.00
2.81250	58.00
2.82917	58.00
2.84583	58.00
2.86250	58.00
2.87917	58.00
2.89583	58.00
2.91250	58.00
2.92917	58.00
2.94583	58.00
2.96250	58.00
2.97917	58.00
2.99583	58.00
3.01250	58.00
3.02917	58.00
3.04583	58.00
3.06250	58.00
3.07917	58.00
3.09583	58.00
3.11250	58.00
3.12917	58.00
3.14583	58.00
3.16250	58.00
3.17917	58.00
3.19583	58.00
3.21250	58.00
3.22917	58.00
3.24583	58.00
3.26250	58.00
3.27917	58.00
3.29583	58.00
3.31250	58.00
3.32917	58.00
3.34583	58.00
3.36250	58.00
3.37917	58.00
3.39583	58.00
3.41250	58.00
3.42917	58.00
3.44583	58.00
3.46250	58.00
3.47917	58.00
3.49583	58.00
3.51250	58.00
3.52917	58.00
3.54583	58.00
3.56250	58.00
3.57917	58.00
3.59583	58.00
3.61250	58.00
3.62917	58.00
3.64583	58.00
3.66250	58.00
3.67917	58.00
3.69583	58.00
3.71250	58.00
3.72917	58.00
3.74583	58.00
3.76250	58.00
3.77917	58.00
3.79583	58.00
3.81250	58.00
3.82917	58.00
3.84583	58.00
3.86250	58.00
3.87917	58.00
3.89583	58.00
3.91250	58.00
3.92917	58.00
3.94583	58.00
3.96250	58.00
3.97917	58.00
3.99583	58.00

[Status Trace (Carrier Gas Flow)]
Interval(msec)	1000
# of Points	240
Start Time(min)	0.013
End Time(min)	3.996
Intensity Units	
Intensity Multiplier	1
R.Time (min)	Intensity
0.01250	34.65
0.02917	34.53
0.04583	34.55
0.06250	34.53
0.07917	34.51
0.09583	34.52
0.11250	34.52
0.12917	34.52
0.14583	34.52
0.16250	34.52
0.17917	34.52
0.19583	34.52
0.21250	34.52
0.22917	34.52
0.24583	34.52
0.26250	34.52
0.27917	34.52
0.29583	34.52
0.31250	34.52
0.32917	34.51
0.34583	34.52
0.36250	34.52
0.37917	34.52
0.39583	34.52
0.41250	34.52
0.42917	34.52
0.44583	34.52
0.46250	34.52
0.47917	34.52
0.49583	34.52
0.51250	34.52
0.52917	34.52
0.54583	34.52
0.56250	34.52
0.57917	34.52
0.59583	34.52
0.61250	34.52
0.62917	34.53
0.64583	34.52
0.66250	34.52
0.67917	34.52
0.69583	34.52
0.71250	34.52
0.72917	34.52
0.74583	34.52
0.76250	34.51
0.77917	34.52
0.79583	34.52
0.81250	34.52
0.82917	34.52
0.84583	34.52
0.86250	34.52
0.87917	34.52
0.89583	34.52
0.91250	34.52
0.92917	34.52
0.94583	34.52
0.96250	34.52
0.97917	34.52
0.99583	34.52
1.01250	34.52
1.02917	34.52
1.04583	34.52
1.06250	34.52
1.07917	34.52
1.09583	34.52
1.11250	34.52
1.12917	34.52
1.14583	34.51
1.16250	34.52
1.17917	34.52
1.19583	34.52
1.21250	34.52
1.22917	34.52
1.24583	34.52
1.26250	34.52
1.27917	34.52
1.29583	34.52
1.31250	34.52
1.32917	34.52
1.34583	34.52
1.36250	34.52
1.37917	34.52
1.39583	34.52
1.41250	34.52
1.42917	34.52
1.44583	34.52
1.46250	34.52
1.47917	34.52
1.49583	34.52
1.51250	34.52
1.52917	34.52
1.54583	34.52
1.56250	34.52
1.57917	34.52
1.59583	34.52
1.61250	34.52
1.62917	34.52
1.64583	34.52
1.66250	34.52
1.67917	34.52
1.69583	34.52
1.71250	34.52
1.72917	34.52
1.74583	34.52
1.76250	34.52
1.77917	34.52
1.79583	34.52
1.81250	34.52
1.82917	34.52
1.84583	34.52
1.86250	34.52
1.87917	34.52
1.89583	34.52
1.91250	34.52
1.92917	34.52
1.94583	34.52
1.96250	34.52
1.97917	34.52
1.99583	34.52
2.01250	34.52
2.02917	34.52
2.04583	34.52
2.06250	34.52
2.07917	34.52
2.09583	34.52
2.11250	34.52
2.12917	34.52
2.14583	34.52
2.16250	34.52
2.17917	34.52
2.19583	34.52
2.21250	34.52
2.22917	34.52
2.24583	34.52
2.26250	34.52
2.27917	34.52
2.29583	34.52
2.31250	34.52
2.32917	34.52
2.34583	34.52
2.36250	34.52
2.37917	34.52
2.39583	34.52
2.41250	34.52
2.42917	34.51
2.44583	34.52
2.46250	34.52
2.47917	34.52
2.49583	34.52
2.51250	34.52
2.52917	34.52
2.54583	34.52
2.56250	34.52
2.57917	34.52
2.59583	34.52
2.61250	34.52
2.62917	34.52
2.64583	34.52
2.66250	34.52
2.67917	34.52
2.69583	34.52
2.71250	34.52
2.72917	34.52
2.74583	34.52
2.76250	34.52
2.77917	34.51
2.79583	34.52
2.81250	34.52
2.82917	34.52
2.84583	34.52
2.86250	34.52
2.87917	34.52
2.89583	34.51
2.91250	34.52
2.92917	34.52
2.94583	34.52
2.96250	34.52
2.97917	34.52
2.99583	34.52
3.01250	34.52
3.02917	34.52
3.04583	34.52
3.06250	34.52
3.07917	34.52
3.09583	34.52
3.11250	34.52
3.12917	34.52
3.14583	34.52
3.16250	34.52
3.17917	34.51
3.19583	34.52
3.21250	34.52
3.22917	34.52
3.24583	34.52
3.26250	34.52
3.27917	34.52
3.29583	34.52
3.31250	34.52
3.32917	34.52
3.34583	34.52
3.36250	34.52
3.37917	34.52
3.39583	34.52
3.41250	34.52
3.42917	34.52
3.44583	34.52
3.46250	34.52
3.47917	34.51
3.49583	34.52
3.51250	34.52
3.52917	34.52
3.54583	34.51
3.56250	34.52
3.57917	34.52
3.59583	34.52
3.61250	34.52
3.62917	34.52
3.64583	34.52
3.66250	34.52
3.67917	34.52
3.69583	34.52
3.71250	34.52
3.72917	34.52
3.74583	34.52
3.76250	34.52
3.77917	34.52
3.79583	34.52
3.81250	34.52
3.82917	34.52
3.84583	34.52
3.86250	34.52
3.87917	34.52
3.89583	34.52
3.91250	34.52
3.92917	34.52
3.94583	34.52
3.96250	34.52
3.97917	34.52
3.99583	34.52

[Status Trace (Column Flow)]
Interval(msec)	1000
# of Points	240
Start Time(min)	0.013
End Time(min)	3.996
Intensity Units	
Intensity Multiplier	1
R.Time (min)	Intensity
0.01250	5.57
0.02917	5.22
0.04583	5.54
0.06250	5.78
0.07917	5.68
0.09583	5.57
0.11250	5.57
0.12917	5.57
0.14583	5.57
0.16250	5.57
0.17917	5.57
0.19583	5.57
0.21250	5.57
0.22917	5.57
0.24583	5.57
0.26250	5.57
0.27917	5.57
0.29583	5.57
0.31250	5.57
0.32917	5.57
0.34583	5.57
0.36250	5.57
0.37917	5.57
0.39583	5.57
0.41250	5.57
0.42917	5.57
0.44583	5.57
0.46250	5.57
0.47917	5.57
0.49583	5.57
0.51250	5.57
0.52917	5.57
0.54583	5.57
0.56250	5.57
0.57917	5.57
0.59583	5.57
0.61250	5.57
0.62917	5.57
0.64583	5.57
0.66250	5.57
0.67917	5.57
0.69583	5.57
0.71250	5.57
0.72917	5.57
0.74583	5.57
0.76250	5.57
0.77917	5.57
0.79583	5.57
0.81250	5.57
0.82917	5.57
0.84583	5.57
0.86250	5.57
0.87917	5.57
0.89583	5.57
0.91250	5.57
0.92917	5.57
0.94583	5.57
0.96250	5.57
0.97917	5.57
0.99583	5.57
1.01250	5.57
1.02917	5.57
1.04583	5.57
1.06250	5.57
1.07917	5.57
1.09583	5.57
1.11250	5.57
1.12917	5.57
1.14583	5.57
1.16250	5.57
1.17917	5.57
1.19583	5.57
1.21250	5.57
1.22917	5.57
1.24583	5.57
1.26250	5.57
1.27917	5.57
1.29583	5.57
1.31250	5.57
1.32917	5.57
1.34583	5.57
1.36250	5.57
1.37917	5.57
1.39583	5.57
1.41250	5.57
1.42917	5.57
1.44583	5.57
1.46250	5.57
1.47917	5.57
1.49583	5.57
1.51250	5.57
1.52917	5.57
1.54583	5.57
1.56250	5.57
1.57917	5.57
1.59583	5.57
1.61250	5.57
1.62917	5.57
1.64583	5.56
1.66250	5.55
1.67917	5.54
1.69583	5.53
1.71250	5.52
1.72917	5.51
1.74583	5.50
1.76250	5.49
1.77917	5.48
1.79583	5.46
1.81250	5.46
1.82917	5.45
1.84583	5.44
1.86250	5.43
1.87917	5.42
1.89583	5.40
1.91250	5.39
1.92917	5.39
1.94583	5.37
1.96250	5.37
1.97917	5.36
1.99583	5.35
2.01250	5.34
2.02917	5.33
2.04583	5.32
2.06250	5.31
2.07917	5.30
2.09583	5.29
2.11250	5.28
2.12917	5.27
2.14583	5.26
2.16250	5.25
2.17917	5.24
2.19583	5.23
2.21250	5.22
2.22917	5.21
2.24583	5.20
2.26250	5.19
2.27917	5.18
2.29583	5.17
2.31250	5.17
2.32917	5.16
2.34583	5.15
2.36250	5.14
2.37917	5.13
2.39583	5.13
2.41250	5.13
2.42917	5.13
2.44583	5.13
2.46250	5.13
2.47917	5.13
2.49583	5.13
2.51250	5.13
2.52917	5.13
2.54583	5.13
2.56250	5.13
2.57917	5.13
2.59583	5.13
2.61250	5.13
2.62917	5.13
2.64583	5.13
2.66250	5.13
2.67917	5.13
2.69583	5.13
2.71250	5.13
2.72917	5.13
2.74583	5.13
2.76250	5.13
2.77917	5.13
2.79583	5.13
2.81250	5.13
2.82917	5.13
2.84583	5.13
2.86250	5.13
2.87917	5.13
2.89583	5.13
2.91250	5.13
2.92917	5.13
2.94583	5.13
2.96250	5.13
2.97917	5.13
2.99583	5.13
3.01250	5.13
3.02917	5.13
3.04583	5.12
3.06250	5.12
3.07917	5.12
3.09583	5.13
3.11250	5.13
3.12917	5.13
3.14583	5.13
3.16250	5.13
3.17917	5.13
3.19583	5.12
3.21250	5.12
3.22917	5.12
3.24583	5.12
3.26250	5.12
3.27917	5.12
3.29583	5.12
3.31250	5.12
3.32917	5.12
3.34583	5.12
3.36250	5.12
3.37917	5.12
3.39583	5.12
3.41250	5.12
3.42917	5.12
3.44583	5.12
3.46250	5.12
3.47917	5.12
3.49583	5.12
3.51250	5.12
3.52917	5.13
3.54583	5.13
3.56250	5.13
3.57917	5.13
3.59583	5.13
3.61250	5.12
3.62917	5.12
3.64583	5.12
3.66250	5.12
3.67917	5.12
3.69583	5.12
3.71250	5.12
3.72917	5.12
3.74583	5.12
3.76250	5.12
3.77917	5.12
3.79583	5.12
3.81250	5.12
3.82917	5.12
3.84583	5.12
3.86250	5.12
3.87917	5.12
3.89583	5.13
3.91250	5.12
3.92917	5.12
3.94583	5.12
3.96250	5.12
3.97917	5.12
3.99583	5.12

[Status Trace (Linear Velocity)]
Interval(msec)	1000
# of Points	240
Start Time(min)	0.013
End Time(min)	3.996
Intensity Units	
Intensity Multiplier	1
R.Time (min)	Intensity
0.01250	39.00
0.02917	37.03
0.04583	38.85
0.06250	40.18
0.07917	39.62
0.09583	39.02
0.11250	39.02
0.12917	39.04
0.14583	39.04
0.16250	39.03
0.17917	39.03
0.19583	39.03
0.21250	39.03
0.22917	39.03
0.24583	39.03
0.26250	39.03
0.27917	39.03
0.29583	39.03
0.31250	39.03
0.32917	39.03
0.34583	39.03
0.36250	39.03
0.37917	39.03
0.39583	39.03
0.41250	39.03
0.42917	39.03
0.44583	39.03
0.46250	39.03
0.47917	39.03
0.49583	39.03
0.51250	39.03
0.52917	39.03
0.54583	39.03
0.56250	39.03
0.57917	39.02
0.59583	39.03
0.61250	39.03
0.62917	39.03
0.64583	39.03
0.66250	39.03
0.67917	39.03
0.69583	39.03
0.71250	39.03
0.72917	39.03
0.74583	39.03
0.76250	39.03
0.77917	39.03
0.79583	39.03
0.81250	39.03
0.82917	39.03
0.84583	39.03
0.86250	39.03
0.87917	39.03
0.89583	39.03
0.91250	39.03
0.92917	39.03
0.94583	39.03
0.96250	39.03
0.97917	39.03
0.99583	39.03
1.01250	39.03
1.02917	39.03
1.04583	39.03
1.06250	39.03
1.07917	39.03
1.09583	39.03
1.11250	39.03
1.12917	39.03
1.14583	39.03
1.16250	39.03
1.17917	39.03
1.19583	39.03
1.21250	39.03
1.22917	39.03
1.24583	39.03
1.26250	39.03
1.27917	39.03
1.29583	39.03
1.31250	39.03
1.32917	39.03
1.34583	39.03
1.36250	39.03
1.37917	39.03
1.39583	39.03
1.41250	39.03
1.42917	39.03
1.44583	39.03
1.46250	39.03
1.47917	39.03
1.49583	39.03
1.51250	39.03
1.52917	39.03
1.54583	39.03
1.56250	39.03
1.57917	39.03
1.59583	39.03
1.61250	39.02
1.62917	39.01
1.64583	38.99
1.66250	38.96
1.67917	38.93
1.69583	38.89
1.71250	38.86
1.72917	38.83
1.74583	38.79
1.76250	38.76
1.77917	38.74
1.79583	38.70
1.81250	38.67
1.82917	38.64
1.84583	38.61
1.86250	38.58
1.87917	38.55
1.89583	38.52
1.91250	38.48
1.92917	38.46
1.94583	38.42
1.96250	38.39
1.97917	38.37
1.99583	38.33
2.01250	38.30
2.02917	38.28
2.04583	38.25
2.06250	38.22
2.07917	38.19
2.09583	38.16
2.11250	38.13
2.12917	38.10
2.14583	38.07
2.16250	38.04
2.17917	38.01
2.19583	37.98
2.21250	37.95
2.22917	37.92
2.24583	37.89
2.26250	37.86
2.27917	37.83
2.29583	37.80
2.31250	37.77
2.32917	37.74
2.34583	37.71
2.36250	37.69
2.37917	37.67
2.39583	37.66
2.41250	37.66
2.42917	37.67
2.44583	37.67
2.46250	37.66
2.47917	37.66
2.49583	37.66
2.51250	37.66
2.52917	37.65
2.54583	37.66
2.56250	37.66
2.57917	37.66
2.59583	37.66
2.61250	37.66
2.62917	37.66
2.64583	37.66
2.66250	37.66
2.67917	37.66
2.69583	37.66
2.71250	37.66
2.72917	37.65
2.74583	37.66
2.76250	37.66
2.77917	37.66
2.79583	37.65
2.81250	37.65
2.82917	37.65
2.84583	37.65
2.86250	37.65
2.87917	37.65
2.89583	37.65
2.91250	37.66
2.92917	37.65
2.94583	37.65
2.96250	37.65
2.97917	37.65
2.99583	37.64
3.01250	37.64
3.02917	37.64
3.04583	37.64
3.06250	37.64
3.07917	37.64
3.09583	37.64
3.11250	37.64
3.12917	37.64
3.14583	37.64
3.16250	37.64
3.17917	37.64
3.19583	37.64
3.21250	37.64
3.22917	37.64
3.24583	37.64
3.26250	37.64
3.27917	37.64
3.29583	37.63
3.31250	37.63
3.32917	37.64
3.34583	37.64
3.36250	37.64
3.37917	37.64
3.39583	37.64
3.41250	37.64
3.42917	37.64
3.44583	37.64
3.46250	37.64
3.47917	37.64
3.49583	37.64
3.51250	37.64
3.52917	37.64
3.54583	37.64
3.56250	37.64
3.57917	37.64
3.59583	37.64
3.61250	37.64
3.62917	37.64
3.64583	37.64
3.66250	37.64
3.67917	37.64
3.69583	37.64
3.71250	37.64
3.72917	37.64
3.74583	37.64
3.76250	37.64
3.77917	37.64
3.79583	37.64
3.81250	37.64
3.82917	37.64
3.84583	37.64
3.86250	37.64
3.87917	37.64
3.89583	37.64
3.91250	37.64
3.92917	37.64
3.94583	37.64
3.96250	37.64
3.97917	37.64
3.99583	37.64

