[Header]
Application Name	LabSolutions
Version	5.110
Data File Name	C:\Users\User\Desktop\GC Analyses\Jack\Nachusa Grasslands Sampling\T0 Timepoint July 12th\T0_07122022_069.gcd
Output Date	3/14/2023
Output Time	3:40:38 PM

[File Information]
Type	Data File
Generated	3/7/2023 9:28:21 PM
Generated by	System Administrator
Modified	3/7/2023 9:35:13 PM
Modified by	System Administrator

[Sample Information]
Operator Name	System Administrator
Acquired	3/7/2023 9:31:12 PM
Sample Type	0:Unknown
Level	0
Sample Name	069
Sample ID	069
ISTD Amount1	1
ISTD Amount2	1
ISTD Amount3	1
ISTD Amount4	1
ISTD Amount5	1
ISTD Amount6	1
ISTD Amount7	1
ISTD Amount8	1
ISTD Amount9	1
ISTD Amount10	1
ISTD Amount11	1
ISTD Amount12	1
ISTD Amount13	1
ISTD Amount14	1
ISTD Amount15	1
ISTD Amount16	1
ISTD Amount17	1
ISTD Amount18	1
ISTD Amount19	1
ISTD Amount20	1
ISTD Amount21	1
ISTD Amount22	1
ISTD Amount23	1
ISTD Amount24	1
ISTD Amount25	1
ISTD Amount26	1
ISTD Amount27	1
ISTD Amount28	1
ISTD Amount29	1
ISTD Amount30	1
ISTD Amount31	1
ISTD Amount32	1
Sample Amount	1
Dilution Factor	1
Vial#	68
Injection Volume	1
Injection Count	1
Bar Code	

[Original Files]
Data File	C:\Users\User\Desktop\GC Analyses\Jack\Nachusa Grasslands Sampling\T0 Timepoint July 12th\T0_07122022_069.gcd
Method File	C:\LabSolutions\Data\GHG_4min_2022\ghg3_togas_w_acet_4 min_new_int.gcm
Batch File	C:\LabSolutions\Data\AutoSamplerTesting\T0_07122022.gcb
Report Format File	c:\LabSolutions\System\DEFAULT.lsr

[File Description]


[Configuration]
Instrument Name	C0B7VH3-Instrument1
Instrument #	1
Line #	1
# of Detectors	3
Detector ID	DET#1	DET#2	DET#3
Detector Name	FID	PTCD	ECD
# of Channels	1	1	1

[Peak Table(Ch1)]
# of Peaks	3
Peak#	R.Time	I.Time	F.Time	Area	Height	A/H	Conc.	Mark	ID#	Name	k'	Plate #	Plate Ht.	Tailing	Resolution	Sep.Factor	Area Ratio	Height Ratio	Conc. %	Norm Conc.
1	1.476	1.439	1.538	59203	28584	2.071	417.978	   	1	CO	0.000	9657	15.533	1.311	0.000	0.000	0	0	51.427	51.427
2	1.567	1.538	1.637	5204	2427	2.144	100.626	 V 	2	CH4	0.062	9737	15.405	0.000	1.483	0.000	0	0	12.381	12.381
3	1.996	1.952	2.400	1172070	555206	2.111	294.158	   	3	CO2	0.353	17278	8.682	1.297	6.904	5.680	0	0	36.192	36.192

[Peak Table(Ch2)]
# of Peaks	0

[Peak Table(Ch3)]
# of Peaks	5
Peak#	R.Time	I.Time	F.Time	Area	Height	A/H	Conc.	Mark	ID#	Name	k'	Plate #	Plate Ht.	Tailing	Resolution	Sep.Factor	Area Ratio	Height Ratio	Conc. %	Norm Conc.
1	2.458	2.308	2.521	1705	428	3.985	0.000	   			0.000	8219	18.251	0.000	0.000	0.000	0	0	0.000	0.000
2	2.546	2.521	2.631	858	203	4.231	0.000	 V 			0.036	3477	43.141	0.000	0.626	0.000	0	0	0.000	0.000
3	2.704	2.653	2.719	278	97	2.855	0.000	   			0.100	2916	51.434	0.000	0.845	2.792	0	0	0.000	0.000
4	2.873	2.719	3.045	19917	4887	4.076	0.509	 V 	1	N2O	0.169	13008	11.532	1.767	1.121	1.687	0	0	100.000	100.000
5	3.192	3.049	3.995	16397	583	28.127	0.000	   	2	SF6	0.298	284	528.966	3.158	0.743	1.770	0	0	0.000	0.000

[Compound Results(Ch1)]
# of IDs	6
ID#	Name	R.Time	Area	Height	Conc.	Curve	3rd	2nd	1st	Constant	Area Ratio	Height Ratio	Conc. %	Norm Conc.
1	CO	1.476	59203	28584	417.978	Linear	0.000000e+00	0.000000e+00	1.416423e+002	0.000000e+00	0	0	51.427	51.427
2	CH4	1.567	5204	2427	100.626	Linear	0.000000e+00	0.000000e+00	5.171738e+001	0.000000e+00	0	0	12.381	12.381
3	CO2	1.996	1172070	555206	294.158	Linear	0.000000e+00	0.000000e+00	3.984494e+003	0.000000e+00	0	0	36.192	36.192
4	Ethylene	0.000	0	0	0.000	Linear	0.000000e+00	0.000000e+00	0.000000e+00	0.000000e+00	0	0	0.000	0.000
5	Acetylene	0.000	0	0	0.000	Linear	0.000000e+00	0.000000e+00	0.000000e+00	0.000000e+00	0	0	0.000	0.000
6	Ethane	0.000	0	0	0.000	Linear	0.000000e+00	0.000000e+00	0.000000e+00	0.000000e+00	0	0	0.000	0.000

[Compound Results(Ch2)]
# of IDs	5
ID#	Name	R.Time	Area	Height	Conc.	Curve	3rd	2nd	1st	Constant	Area Ratio	Height Ratio	Conc. %	Norm Conc.
1	Hydrogen	0.000	0	0	0.000	Linear	0.000000e+00	0.000000e+00	0.000000e+00	0.000000e+00	0	0	0.000	0.000
2	Oxygen	0.000	0	0	0.000	Linear	0.000000e+00	0.000000e+00	0.000000e+00	0.000000e+00	0	0	0.000	0.000
3	Nitrogen	0.000	0	0	0.000	Linear	0.000000e+00	0.000000e+00	0.000000e+00	0.000000e+00	0	0	0.000	0.000
4	Methane	0.000	0	0	0.000	Linear	0.000000e+00	0.000000e+00	0.000000e+00	0.000000e+00	0	0	0.000	0.000
5	Carbon Monoxide	0.000	0	0	0.000	Linear	0.000000e+00	0.000000e+00	0.000000e+00	0.000000e+00	0	0	0.000	0.000

[Compound Results(Ch3)]
# of IDs	2
ID#	Name	R.Time	Area	Height	Conc.	Curve	3rd	2nd	1st	Constant	Area Ratio	Height Ratio	Conc. %	Norm Conc.
1	N2O	2.873	19917	4887	0.509	Linear	0.000000e+00	0.000000e+00	3.915173e+004	0.000000e+00	0	0	100.000	100.000
2	SF6	3.192	16397	583	0.000	Linear	0.000000e+00	0.000000e+00	0.000000e+00	0.000000e+00	0	0	0.000	0.000

[Group Results(Ch1)]
# of Groups	0

[Group Results(Ch2)]
# of Groups	0

[Group Results(Ch3)]
# of Groups	0

[Chromatogram (Ch1)]
Interval(msec)	220
# of Points	1091
Start Time(min)	0.002
End Time(min)	3.998
R.Time (min)	Intensity
0.00167	14
0.00533	18
0.00900	21
0.01267	20
0.01633	17
0.02000	10
0.02367	5
0.02733	1
0.03100	-0
0.03467	2
0.03833	2
0.04200	5
0.04567	8
0.04933	13
0.05300	21
0.05667	32
0.06033	40
0.06400	45
0.06767	50
0.07133	55
0.07500	57
0.07867	57
0.08233	58
0.08600	58
0.08967	59
0.09333	58
0.09700	56
0.10067	55
0.10433	56
0.10800	60
0.11167	62
0.11533	59
0.11900	54
0.12267	46
0.12633	37
0.13000	31
0.13367	27
0.13733	23
0.14100	19
0.14467	19
0.14833	21
0.15200	22
0.15567	23
0.15933	23
0.16300	25
0.16667	28
0.17033	29
0.17400	23
0.17767	18
0.18133	15
0.18500	14
0.18867	13
0.19233	11
0.19600	9
0.19967	6
0.20333	6
0.20700	6
0.21067	5
0.21433	2
0.21800	1
0.22167	2
0.22533	5
0.22900	9
0.23267	13
0.23633	17
0.24000	20
0.24367	19
0.24733	15
0.25100	10
0.25467	5
0.25833	2
0.26200	-0
0.26567	-2
0.26933	-0
0.27300	6
0.27667	17
0.28033	25
0.28400	24
0.28767	16
0.29133	4
0.29500	-6
0.29867	-12
0.30233	-14
0.30600	-16
0.30967	-19
0.31333	-21
0.31700	-18
0.32067	-12
0.32433	-5
0.32800	-0
0.33167	3
0.33533	5
0.33900	10
0.34267	16
0.34633	21
0.35000	23
0.35367	23
0.35733	22
0.36100	22
0.36467	19
0.36833	10
0.37200	-3
0.37567	-17
0.37933	-26
0.38300	-29
0.38667	-27
0.39033	-20
0.39400	-9
0.39767	11
0.40133	29
0.40500	34
0.40867	31
0.41233	23
0.41600	15
0.41967	9
0.42333	6
0.42700	11
0.43067	16
0.43433	20
0.43800	22
0.44167	20
0.44533	10
0.44900	-2
0.45267	-14
0.45633	-23
0.46000	-25
0.46367	-22
0.46733	-21
0.47100	-21
0.47467	-19
0.47833	-12
0.48200	-6
0.48567	-2
0.48933	-0
0.49300	-2
0.49667	-4
0.50033	-3
0.50400	1
0.50767	3
0.51133	3
0.51500	3
0.51867	2
0.52233	-1
0.52600	-3
0.52967	3
0.53333	13
0.53700	21
0.54067	22
0.54433	19
0.54800	16
0.55167	13
0.55533	8
0.55900	4
0.56267	6
0.56633	13
0.57000	19
0.57367	22
0.57733	18
0.58100	9
0.58467	-3
0.58833	-14
0.59200	-19
0.59567	-19
0.59933	-15
0.60300	-9
0.60667	-3
0.61033	4
0.61400	9
0.61767	14
0.62133	16
0.62500	15
0.62867	10
0.63233	5
0.63600	3
0.63967	2
0.64333	6
0.64700	11
0.65067	11
0.65433	9
0.65800	7
0.66167	6
0.66533	5
0.66900	5
0.67267	7
0.67633	12
0.68000	18
0.68367	23
0.68733	25
0.69100	29
0.69467	34
0.69833	41
0.70200	42
0.70567	33
0.70933	18
0.71300	5
0.71667	-5
0.72033	-13
0.72400	-22
0.72767	-30
0.73133	-32
0.73500	-32
0.73867	-32
0.74233	-30
0.74600	-25
0.74967	-16
0.75333	-2
0.75700	12
0.76067	19
0.76433	15
0.76800	4
0.77167	-10
0.77533	-23
0.77900	-29
0.78267	-26
0.78633	-22
0.79000	-18
0.79367	-14
0.79733	-11
0.80100	-9
0.80467	-10
0.80833	-13
0.81200	-14
0.81567	-11
0.81933	-6
0.82300	1
0.82667	7
0.83033	9
0.83400	10
0.83767	12
0.84133	8
0.84500	0
0.84867	-10
0.85233	-19
0.85600	-26
0.85967	-33
0.86333	-36
0.86700	-34
0.87067	-28
0.87433	-20
0.87800	-15
0.88167	-11
0.88533	-10
0.88900	-10
0.89267	-10
0.89633	-7
0.90000	0
0.90367	12
0.90733	26
0.91100	46
0.91467	63
0.91833	70
0.92200	69
0.92567	64
0.92933	57
0.93300	51
0.93667	46
0.94033	44
0.94400	43
0.94767	40
0.95133	36
0.95500	33
0.95867	29
0.96233	23
0.96600	14
0.96967	7
0.97333	7
0.97700	7
0.98067	7
0.98433	5
0.98800	4
0.99167	9
0.99533	20
0.99900	33
1.00267	38
1.00633	36
1.01000	29
1.01367	19
1.01733	10
1.02100	3
1.02467	-0
1.02833	1
1.03200	7
1.03567	13
1.03933	15
1.04300	15
1.04667	17
1.05033	20
1.05400	21
1.05767	23
1.06133	25
1.06500	30
1.06867	36
1.07233	36
1.07600	31
1.07967	22
1.08333	13
1.08700	7
1.09067	4
1.09433	4
1.09800	5
1.10167	7
1.10533	7
1.10900	4
1.11267	2
1.11633	2
1.12000	2
1.12367	2
1.12733	3
1.13100	7
1.13467	16
1.13833	23
1.14200	28
1.14567	32
1.14933	33
1.15300	28
1.15667	18
1.16033	11
1.16400	9
1.16767	9
1.17133	8
1.17500	4
1.17867	3
1.18233	6
1.18600	10
1.18967	14
1.19333	19
1.19700	25
1.20067	27
1.20433	25
1.20800	16
1.21167	7
1.21533	0
1.21900	-4
1.22267	-9
1.22633	-15
1.23000	-19
1.23367	-23
1.23733	-26
1.24100	-30
1.24467	-32
1.24833	-29
1.25200	-22
1.25567	-14
1.25933	-7
1.26300	-2
1.26667	2
1.27033	8
1.27400	16
1.27767	27
1.28133	35
1.28500	32
1.28867	21
1.29233	9
1.29600	2
1.29967	-5
1.30333	-8
1.30700	-5
1.31067	-2
1.31433	-0
1.31800	-0
1.32167	1
1.32533	2
1.32900	-2
1.33267	-7
1.33633	-10
1.34000	-8
1.34367	-2
1.34733	3
1.35100	7
1.35467	4
1.35833	-1
1.36200	-3
1.36567	-2
1.36933	0
1.37300	1
1.37667	-2
1.38033	-10
1.38400	-18
1.38767	-21
1.39133	-19
1.39500	-16
1.39867	-14
1.40233	-15
1.40600	-17
1.40967	-19
1.41333	-22
1.41700	-22
1.42067	-18
1.42433	-12
1.42800	-8
1.43167	-10
1.43533	-9
1.43900	20
1.44267	139
1.44633	489
1.45000	1610
1.45367	4453
1.45733	9184
1.46100	14812
1.46467	20137
1.46833	24434
1.47200	27349
1.47567	28612
1.47933	27985
1.48300	25503
1.48667	21666
1.49033	17285
1.49400	13113
1.49767	9598
1.50133	6867
1.50500	4857
1.50867	3425
1.51233	2426
1.51600	1738
1.51967	1267
1.52333	946
1.52700	729
1.53067	582
1.53433	484
1.53800	432
1.54167	459
1.54533	622
1.54900	941
1.55267	1356
1.55633	1772
1.56000	2115
1.56367	2352
1.56733	2472
1.57100	2442
1.57467	2242
1.57833	1909
1.58200	1520
1.58567	1150
1.58933	841
1.59300	610
1.59667	447
1.60033	334
1.60400	252
1.60767	193
1.61133	153
1.61500	126
1.61867	107
1.62233	93
1.62600	83
1.62967	76
1.63333	68
1.63700	59
1.64067	53
1.64433	51
1.64800	48
1.65167	44
1.65533	40
1.65900	38
1.66267	36
1.66633	34
1.67000	33
1.67367	34
1.67733	31
1.68100	26
1.68467	20
1.68833	18
1.69200	21
1.69567	24
1.69933	24
1.70300	20
1.70667	17
1.71033	14
1.71400	14
1.71767	19
1.72133	25
1.72500	27
1.72867	26
1.73233	25
1.73600	27
1.73967	28
1.74333	29
1.74700	27
1.75067	21
1.75433	15
1.75800	8
1.76167	3
1.76533	4
1.76900	9
1.77267	13
1.77633	12
1.78000	4
1.78367	-3
1.78733	-8
1.79100	-13
1.79467	-15
1.79833	-14
1.80200	-7
1.80567	5
1.80933	19
1.81300	27
1.81667	27
1.82033	23
1.82400	17
1.82767	13
1.83133	11
1.83500	12
1.83867	14
1.84233	16
1.84600	14
1.84967	8
1.85333	5
1.85700	4
1.86067	6
1.86433	8
1.86800	11
1.87167	16
1.87533	26
1.87900	35
1.88267	34
1.88633	28
1.89000	22
1.89367	17
1.89733	14
1.90100	16
1.90467	21
1.90833	26
1.91200	29
1.91567	30
1.91933	32
1.92300	31
1.92667	30
1.93033	32
1.93400	29
1.93767	21
1.94133	13
1.94500	9
1.94867	12
1.95233	31
1.95600	146
1.95967	770
1.96333	3508
1.96700	12703
1.97067	36462
1.97433	84328
1.97800	160616
1.98167	258848
1.98533	363499
1.98900	456782
1.99267	523938
1.99633	555282
2.00000	546900
2.00367	502190
2.00733	431443
2.01100	348872
2.01467	267918
2.01833	197598
2.02200	141634
2.02567	99809
2.02933	69891
2.03300	49104
2.03667	34914
2.04033	25313
2.04400	18827
2.04767	14422
2.05133	11394
2.05500	9271
2.05867	7749
2.06233	6632
2.06600	5788
2.06967	5133
2.07333	4612
2.07700	4191
2.08067	3844
2.08433	3554
2.08800	3307
2.09167	3093
2.09533	2907
2.09900	2742
2.10267	2597
2.10633	2464
2.11000	2341
2.11367	2226
2.11733	2121
2.12100	2022
2.12467	1930
2.12833	1847
2.13200	1776
2.13567	1712
2.13933	1652
2.14300	1600
2.14667	1555
2.15033	1509
2.15400	1459
2.15767	1407
2.16133	1359
2.16500	1319
2.16867	1281
2.17233	1244
2.17600	1206
2.17967	1168
2.18333	1129
2.18700	1089
2.19067	1052
2.19433	1022
2.19800	998
2.20167	981
2.20533	967
2.20900	953
2.21267	936
2.21633	917
2.22000	900
2.22367	886
2.22733	875
2.23100	863
2.23467	845
2.23833	826
2.24200	806
2.24567	789
2.24933	772
2.25300	756
2.25667	739
2.26033	722
2.26400	707
2.26767	695
2.27133	684
2.27500	675
2.27867	666
2.28233	659
2.28600	652
2.28967	645
2.29333	640
2.29700	634
2.30067	623
2.30433	613
2.30800	601
2.31167	591
2.31533	587
2.31900	590
2.32267	593
2.32633	592
2.33000	586
2.33367	578
2.33733	568
2.34100	555
2.34467	542
2.34833	532
2.35200	523
2.35567	515
2.35933	509
2.36300	505
2.36667	505
2.37033	507
2.37400	508
2.37767	507
2.38133	505
2.38500	499
2.38867	494
2.39233	490
2.39600	487
2.39967	487
2.40333	491
2.40700	496
2.41067	497
2.41433	499
2.41800	499
2.42167	496
2.42533	489
2.42900	479
2.43267	467
2.43633	457
2.44000	450
2.44367	443
2.44733	436
2.45100	426
2.45467	415
2.45833	406
2.46200	399
2.46567	395
2.46933	394
2.47300	396
2.47667	398
2.48033	399
2.48400	399
2.48767	400
2.49133	406
2.49500	411
2.49867	410
2.50233	403
2.50600	394
2.50967	388
2.51333	385
2.51700	387
2.52067	390
2.52433	394
2.52800	398
2.53167	400
2.53533	401
2.53900	399
2.54267	398
2.54633	399
2.55000	402
2.55367	404
2.55733	399
2.56100	393
2.56467	388
2.56833	380
2.57200	369
2.57567	359
2.57933	353
2.58300	348
2.58667	345
2.59033	347
2.59400	351
2.59767	351
2.60133	349
2.60500	346
2.60867	345
2.61233	350
2.61600	354
2.61967	359
2.62333	363
2.62700	362
2.63067	358
2.63433	352
2.63800	348
2.64167	345
2.64533	349
2.64900	358
2.65267	366
2.65633	371
2.66000	374
2.66367	373
2.66733	370
2.67100	367
2.67467	369
2.67833	373
2.68200	374
2.68567	368
2.68933	358
2.69300	350
2.69667	344
2.70033	339
2.70400	335
2.70767	332
2.71133	332
2.71500	330
2.71867	329
2.72233	335
2.72600	346
2.72967	354
2.73333	358
2.73700	358
2.74067	351
2.74433	340
2.74800	328
2.75167	322
2.75533	320
2.75900	320
2.76267	320
2.76633	322
2.77000	327
2.77367	332
2.77733	336
2.78100	339
2.78467	339
2.78833	339
2.79200	339
2.79567	339
2.79933	340
2.80300	340
2.80667	338
2.81033	333
2.81400	332
2.81767	338
2.82133	343
2.82500	347
2.82867	350
2.83233	352
2.83600	351
2.83967	350
2.84333	347
2.84700	342
2.85067	336
2.85433	332
2.85800	329
2.86167	327
2.86533	330
2.86900	336
2.87267	340
2.87633	343
2.88000	344
2.88367	344
2.88733	343
2.89100	342
2.89467	341
2.89833	340
2.90200	337
2.90567	335
2.90933	334
2.91300	335
2.91667	338
2.92033	343
2.92400	348
2.92767	351
2.93133	351
2.93500	348
2.93867	347
2.94233	347
2.94600	347
2.94967	349
2.95333	350
2.95700	345
2.96067	334
2.96433	325
2.96800	327
2.97167	340
2.97533	355
2.97900	362
2.98267	355
2.98633	339
2.99000	321
2.99367	309
2.99733	304
3.00100	303
3.00467	302
3.00833	300
3.01200	303
3.01567	311
3.01933	318
3.02300	322
3.02667	324
3.03033	322
3.03400	320
3.03767	317
3.04133	317
3.04500	323
3.04867	333
3.05233	342
3.05600	345
3.05967	345
3.06333	345
3.06700	346
3.07067	346
3.07433	346
3.07800	344
3.08167	342
3.08533	339
3.08900	336
3.09267	332
3.09633	332
3.10000	333
3.10367	332
3.10733	330
3.11100	330
3.11467	333
3.11833	337
3.12200	342
3.12567	345
3.12933	342
3.13300	333
3.13667	326
3.14033	319
3.14400	311
3.14767	306
3.15133	305
3.15500	309
3.15867	313
3.16233	316
3.16600	316
3.16967	315
3.17333	320
3.17700	328
3.18067	336
3.18433	339
3.18800	337
3.19167	333
3.19533	325
3.19900	317
3.20267	315
3.20633	315
3.21000	315
3.21367	316
3.21733	315
3.22100	310
3.22467	305
3.22833	303
3.23200	303
3.23567	304
3.23933	302
3.24300	300
3.24667	299
3.25033	303
3.25400	309
3.25767	310
3.26133	303
3.26500	293
3.26867	286
3.27233	285
3.27600	286
3.27967	292
3.28333	297
3.28700	298
3.29067	293
3.29433	287
3.29800	282
3.30167	282
3.30533	286
3.30900	289
3.31267	290
3.31633	288
3.32000	287
3.32367	289
3.32733	294
3.33100	296
3.33467	297
3.33833	298
3.34200	298
3.34567	299
3.34933	301
3.35300	303
3.35667	306
3.36033	306
3.36400	301
3.36767	292
3.37133	284
3.37500	278
3.37867	274
3.38233	268
3.38600	265
3.38967	268
3.39333	274
3.39700	279
3.40067	283
3.40433	284
3.40800	285
3.41167	288
3.41533	293
3.41900	296
3.42267	295
3.42633	291
3.43000	284
3.43367	281
3.43733	281
3.44100	281
3.44467	279
3.44833	273
3.45200	265
3.45567	259
3.45933	254
3.46300	251
3.46667	250
3.47033	252
3.47400	257
3.47767	263
3.48133	269
3.48500	273
3.48867	273
3.49233	271
3.49600	267
3.49967	264
3.50333	264
3.50700	265
3.51067	265
3.51433	268
3.51800	274
3.52167	280
3.52533	284
3.52900	281
3.53267	274
3.53633	266
3.54000	262
3.54367	262
3.54733	259
3.55100	256
3.55467	252
3.55833	249
3.56200	247
3.56567	247
3.56933	249
3.57300	255
3.57667	263
3.58033	271
3.58400	274
3.58767	266
3.59133	253
3.59500	242
3.59867	238
3.60233	239
3.60600	243
3.60967	247
3.61333	251
3.61700	253
3.62067	252
3.62433	252
3.62800	250
3.63167	250
3.63533	250
3.63900	252
3.64267	254
3.64633	250
3.65000	242
3.65367	234
3.65733	229
3.66100	224
3.66467	221
3.66833	219
3.67200	218
3.67567	221
3.67933	227
3.68300	233
3.68667	235
3.69033	232
3.69400	230
3.69767	230
3.70133	233
3.70500	238
3.70867	246
3.71233	250
3.71600	250
3.71967	251
3.72333	252
3.72700	253
3.73067	248
3.73433	235
3.73800	221
3.74167	213
3.74533	210
3.74900	206
3.75267	201
3.75633	198
3.76000	195
3.76367	193
3.76733	192
3.77100	191
3.77467	193
3.77833	202
3.78200	214
3.78567	224
3.78933	226
3.79300	220
3.79667	214
3.80033	212
3.80400	213
3.80767	214
3.81133	213
3.81500	209
3.81867	205
3.82233	205
3.82600	208
3.82967	210
3.83333	210
3.83700	207
3.84067	205
3.84433	206
3.84800	206
3.85167	209
3.85533	217
3.85900	225
3.86267	228
3.86633	228
3.87000	222
3.87367	212
3.87733	202
3.88100	193
3.88467	188
3.88833	189
3.89200	194
3.89567	202
3.89933	210
3.90300	215
3.90667	213
3.91033	202
3.91400	189
3.91767	176
3.92133	169
3.92500	169
3.92867	170
3.93233	168
3.93600	166
3.93967	166
3.94333	171
3.94700	178
3.95067	179
3.95433	178
3.95800	178
3.96167	180
3.96533	182
3.96900	184
3.97267	187
3.97633	189
3.98000	188
3.98367	188
3.98733	193
3.99100	200
3.99467	202
3.99833	200

[Chromatogram (Ch2)]
Interval(msec)	220
# of Points	1091
Start Time(min)	0.002
End Time(min)	3.998
R.Time (min)	Intensity
0.00167	0
0.00533	0
0.00900	-0
0.01267	-0
0.01633	-0
0.02000	-1
0.02367	-1
0.02733	-1
0.03100	-1
0.03467	-2
0.03833	-2
0.04200	-2
0.04567	-2
0.04933	-2
0.05300	-2
0.05667	-2
0.06033	-2
0.06400	-1
0.06767	-1
0.07133	-0
0.07500	-0
0.07867	0
0.08233	0
0.08600	1
0.08967	1
0.09333	1
0.09700	1
0.10067	1
0.10433	1
0.10800	1
0.11167	1
0.11533	0
0.11900	0
0.12267	1
0.12633	1
0.13000	1
0.13367	1
0.13733	1
0.14100	1
0.14467	1
0.14833	0
0.15200	0
0.15567	-0
0.15933	-0
0.16300	-1
0.16667	-1
0.17033	-1
0.17400	-1
0.17767	-1
0.18133	-1
0.18500	-1
0.18867	-1
0.19233	-1
0.19600	-1
0.19967	-1
0.20333	-1
0.20700	-1
0.21067	-1
0.21433	-1
0.21800	-1
0.22167	-1
0.22533	-2
0.22900	-2
0.23267	-2
0.23633	-2
0.24000	-2
0.24367	-2
0.24733	-2
0.25100	-2
0.25467	-1
0.25833	-1
0.26200	-1
0.26567	-1
0.26933	-1
0.27300	-1
0.27667	-1
0.28033	-1
0.28400	-1
0.28767	-1
0.29133	-1
0.29500	-1
0.29867	-2
0.30233	-2
0.30600	-2
0.30967	-1
0.31333	-1
0.31700	-1
0.32067	-1
0.32433	-1
0.32800	-1
0.33167	-1
0.33533	-1
0.33900	-1
0.34267	-1
0.34633	-1
0.35000	-1
0.35367	-1
0.35733	-1
0.36100	-1
0.36467	-1
0.36833	-1
0.37200	-1
0.37567	-1
0.37933	-1
0.38300	-1
0.38667	-1
0.39033	-1
0.39400	-1
0.39767	-1
0.40133	-1
0.40500	-1
0.40867	-1
0.41233	-1
0.41600	-1
0.41967	-1
0.42333	-2
0.42700	-2
0.43067	-2
0.43433	-2
0.43800	-2
0.44167	-2
0.44533	-2
0.44900	-2
0.45267	-2
0.45633	-2
0.46000	-1
0.46367	-1
0.46733	-1
0.47100	-1
0.47467	-1
0.47833	-1
0.48200	-1
0.48567	-2
0.48933	-2
0.49300	-2
0.49667	-2
0.50033	-1
0.50400	-1
0.50767	-1
0.51133	-1
0.51500	-1
0.51867	-1
0.52233	-1
0.52600	-1
0.52967	-2
0.53333	-2
0.53700	-2
0.54067	-2
0.54433	-2
0.54800	-2
0.55167	-2
0.55533	-2
0.55900	-3
0.56267	-3
0.56633	-3
0.57000	-3
0.57367	-3
0.57733	-3
0.58100	-3
0.58467	-3
0.58833	-3
0.59200	-3
0.59567	-3
0.59933	-3
0.60300	-3
0.60667	-3
0.61033	-3
0.61400	-3
0.61767	-3
0.62133	-3
0.62500	-3
0.62867	-3
0.63233	-2
0.63600	-2
0.63967	-2
0.64333	-2
0.64700	-2
0.65067	-1
0.65433	-1
0.65800	-1
0.66167	-1
0.66533	-1
0.66900	-1
0.67267	-0
0.67633	-0
0.68000	-0
0.68367	-0
0.68733	0
0.69100	0
0.69467	1
0.69833	1
0.70200	1
0.70567	1
0.70933	1
0.71300	0
0.71667	-0
0.72033	-1
0.72400	-1
0.72767	-2
0.73133	-2
0.73500	-3
0.73867	-3
0.74233	-3
0.74600	-3
0.74967	-3
0.75333	-3
0.75700	-3
0.76067	-3
0.76433	-3
0.76800	-3
0.77167	-3
0.77533	-3
0.77900	-3
0.78267	-3
0.78633	-3
0.79000	-3
0.79367	-3
0.79733	-3
0.80100	-3
0.80467	-3
0.80833	-3
0.81200	-2
0.81567	-2
0.81933	-2
0.82300	-1
0.82667	-1
0.83033	-1
0.83400	-1
0.83767	-1
0.84133	-0
0.84500	-0
0.84867	-1
0.85233	-1
0.85600	-1
0.85967	-1
0.86333	-2
0.86700	-2
0.87067	-2
0.87433	-2
0.87800	-2
0.88167	-3
0.88533	-3
0.88900	-3
0.89267	-3
0.89633	-2
0.90000	-2
0.90367	-2
0.90733	-2
0.91100	-2
0.91467	-3
0.91833	-3
0.92200	-3
0.92567	-3
0.92933	-3
0.93300	-3
0.93667	-3
0.94033	-3
0.94400	-3
0.94767	-3
0.95133	-3
0.95500	-3
0.95867	-3
0.96233	-4
0.96600	-4
0.96967	-4
0.97333	-4
0.97700	-4
0.98067	-4
0.98433	-3
0.98800	-3
0.99167	-3
0.99533	-3
0.99900	-2
1.00267	-2
1.00633	-2
1.01000	-2
1.01367	-2
1.01733	-2
1.02100	-2
1.02467	-2
1.02833	-2
1.03200	-2
1.03567	-2
1.03933	-2
1.04300	-2
1.04667	-2
1.05033	-2
1.05400	-2
1.05767	-2
1.06133	-2
1.06500	-2
1.06867	-3
1.07233	-3
1.07600	-2
1.07967	-2
1.08333	-2
1.08700	-2
1.09067	-2
1.09433	-1
1.09800	-1
1.10167	-1
1.10533	-1
1.10900	-1
1.11267	-1
1.11633	-1
1.12000	-1
1.12367	-1
1.12733	-1
1.13100	-1
1.13467	-1
1.13833	-2
1.14200	-2
1.14567	-3
1.14933	-3
1.15300	-3
1.15667	-4
1.16033	-4
1.16400	-4
1.16767	-4
1.17133	-4
1.17500	-3
1.17867	-3
1.18233	-3
1.18600	-2
1.18967	-2
1.19333	-2
1.19700	-2
1.20067	-2
1.20433	-2
1.20800	-2
1.21167	-2
1.21533	-2
1.21900	-2
1.22267	-2
1.22633	-2
1.23000	-2
1.23367	-3
1.23733	-3
1.24100	-3
1.24467	-3
1.24833	-3
1.25200	-3
1.25567	-3
1.25933	-3
1.26300	-2
1.26667	-2
1.27033	-2
1.27400	-2
1.27767	-2
1.28133	-2
1.28500	-2
1.28867	-2
1.29233	-2
1.29600	-2
1.29967	-2
1.30333	-2
1.30700	-3
1.31067	-3
1.31433	-3
1.31800	-3
1.32167	-3
1.32533	-3
1.32900	-3
1.33267	-3
1.33633	-3
1.34000	-3
1.34367	-3
1.34733	-2
1.35100	-2
1.35467	-2
1.35833	-2
1.36200	-2
1.36567	-2
1.36933	-2
1.37300	-2
1.37667	-3
1.38033	-3
1.38400	-3
1.38767	-3
1.39133	-2
1.39500	-2
1.39867	-2
1.40233	-2
1.40600	-2
1.40967	-2
1.41333	-3
1.41700	-3
1.42067	-3
1.42433	-4
1.42800	-4
1.43167	-4
1.43533	-5
1.43900	-5
1.44267	-5
1.44633	-4
1.45000	-4
1.45367	-3
1.45733	-3
1.46100	-3
1.46467	-2
1.46833	-2
1.47200	-2
1.47567	-2
1.47933	-1
1.48300	-1
1.48667	-1
1.49033	-1
1.49400	-1
1.49767	-1
1.50133	-2
1.50500	-2
1.50867	-2
1.51233	-2
1.51600	-2
1.51967	-2
1.52333	-3
1.52700	-3
1.53067	-3
1.53433	-3
1.53800	-2
1.54167	-3
1.54533	-3
1.54900	-3
1.55267	-3
1.55633	-4
1.56000	-4
1.56367	-4
1.56733	-4
1.57100	-4
1.57467	-4
1.57833	-4
1.58200	-4
1.58567	-5
1.58933	-5
1.59300	-6
1.59667	-7
1.60033	-8
1.60400	-9
1.60767	-10
1.61133	-11
1.61500	-13
1.61867	-15
1.62233	-17
1.62600	-19
1.62967	-22
1.63333	-26
1.63700	-29
1.64067	-32
1.64433	-35
1.64800	-39
1.65167	-42
1.65533	-46
1.65900	-49
1.66267	-53
1.66633	-57
1.67000	-62
1.67367	-67
1.67733	-72
1.68100	-77
1.68467	-82
1.68833	-86
1.69200	-91
1.69567	-95
1.69933	-98
1.70300	-101
1.70667	-103
1.71033	-105
1.71400	-107
1.71767	-108
1.72133	-109
1.72500	-110
1.72867	-111
1.73233	-111
1.73600	-112
1.73967	-112
1.74333	-112
1.74700	-112
1.75067	-112
1.75433	-113
1.75800	-113
1.76167	-114
1.76533	-114
1.76900	-115
1.77267	-115
1.77633	-115
1.78000	-116
1.78367	-116
1.78733	-117
1.79100	-118
1.79467	-118
1.79833	-118
1.80200	-119
1.80567	-119
1.80933	-119
1.81300	-119
1.81667	-120
1.82033	-120
1.82400	-121
1.82767	-120
1.83133	-120
1.83500	-119
1.83867	-118
1.84233	-117
1.84600	-115
1.84967	-115
1.85333	-115
1.85700	-115
1.86067	-115
1.86433	-116
1.86800	-116
1.87167	-117
1.87533	-117
1.87900	-118
1.88267	-118
1.88633	-118
1.89000	-118
1.89367	-117
1.89733	-117
1.90100	-117
1.90467	-116
1.90833	-115
1.91200	-115
1.91567	-114
1.91933	-114
1.92300	-114
1.92667	-114
1.93033	-114
1.93400	-114
1.93767	-114
1.94133	-113
1.94500	-113
1.94867	-113
1.95233	-113
1.95600	-114
1.95967	-114
1.96333	-114
1.96700	-114
1.97067	-113
1.97433	-113
1.97800	-113
1.98167	-112
1.98533	-111
1.98900	-111
1.99267	-110
1.99633	-110
2.00000	-109
2.00367	-109
2.00733	-110
2.01100	-110
2.01467	-110
2.01833	-110
2.02200	-110
2.02567	-109
2.02933	-109
2.03300	-109
2.03667	-109
2.04033	-109
2.04400	-109
2.04767	-109
2.05133	-109
2.05500	-109
2.05867	-108
2.06233	-108
2.06600	-108
2.06967	-107
2.07333	-107
2.07700	-106
2.08067	-106
2.08433	-106
2.08800	-106
2.09167	-106
2.09533	-105
2.09900	-104
2.10267	-103
2.10633	-102
2.11000	-102
2.11367	-101
2.11733	-101
2.12100	-101
2.12467	-101
2.12833	-102
2.13200	-101
2.13567	-101
2.13933	-100
2.14300	-100
2.14667	-99
2.15033	-99
2.15400	-99
2.15767	-99
2.16133	-99
2.16500	-99
2.16867	-99
2.17233	-99
2.17600	-99
2.17967	-99
2.18333	-99
2.18700	-99
2.19067	-99
2.19433	-98
2.19800	-98
2.20167	-98
2.20533	-98
2.20900	-97
2.21267	-97
2.21633	-96
2.22000	-96
2.22367	-95
2.22733	-95
2.23100	-95
2.23467	-95
2.23833	-95
2.24200	-94
2.24567	-94
2.24933	-93
2.25300	-93
2.25667	-92
2.26033	-91
2.26400	-90
2.26767	-90
2.27133	-90
2.27500	-90
2.27867	-90
2.28233	-90
2.28600	-90
2.28967	-90
2.29333	-90
2.29700	-90
2.30067	-89
2.30433	-88
2.30800	-88
2.31167	-87
2.31533	-86
2.31900	-86
2.32267	-85
2.32633	-84
2.33000	-84
2.33367	-83
2.33733	-83
2.34100	-82
2.34467	-82
2.34833	-81
2.35200	-80
2.35567	-78
2.35933	-77
2.36300	-75
2.36667	-73
2.37033	-71
2.37400	-68
2.37767	-65
2.38133	-62
2.38500	-58
2.38867	-55
2.39233	-51
2.39600	-47
2.39967	-43
2.40333	-39
2.40700	-35
2.41067	-32
2.41433	-29
2.41800	-27
2.42167	-25
2.42533	-23
2.42900	-22
2.43267	-20
2.43633	-18
2.44000	-16
2.44367	-14
2.44733	-12
2.45100	-10
2.45467	-8
2.45833	-7
2.46200	-6
2.46567	-4
2.46933	-3
2.47300	-1
2.47667	-0
2.48033	1
2.48400	2
2.48767	2
2.49133	3
2.49500	4
2.49867	5
2.50233	6
2.50600	7
2.50967	8
2.51333	8
2.51700	8
2.52067	8
2.52433	9
2.52800	9
2.53167	10
2.53533	10
2.53900	11
2.54267	11
2.54633	11
2.55000	11
2.55367	11
2.55733	11
2.56100	12
2.56467	13
2.56833	13
2.57200	13
2.57567	13
2.57933	13
2.58300	13
2.58667	13
2.59033	13
2.59400	13
2.59767	13
2.60133	13
2.60500	13
2.60867	12
2.61233	12
2.61600	12
2.61967	12
2.62333	12
2.62700	12
2.63067	12
2.63433	13
2.63800	13
2.64167	13
2.64533	13
2.64900	13
2.65267	14
2.65633	14
2.66000	14
2.66367	15
2.66733	16
2.67100	16
2.67467	17
2.67833	17
2.68200	17
2.68567	18
2.68933	18
2.69300	18
2.69667	18
2.70033	18
2.70400	19
2.70767	19
2.71133	19
2.71500	20
2.71867	20
2.72233	20
2.72600	20
2.72967	20
2.73333	21
2.73700	21
2.74067	21
2.74433	21
2.74800	22
2.75167	22
2.75533	22
2.75900	23
2.76267	23
2.76633	24
2.77000	24
2.77367	24
2.77733	24
2.78100	24
2.78467	24
2.78833	23
2.79200	23
2.79567	22
2.79933	22
2.80300	22
2.80667	22
2.81033	22
2.81400	22
2.81767	22
2.82133	22
2.82500	23
2.82867	23
2.83233	23
2.83600	22
2.83967	21
2.84333	19
2.84700	14
2.85067	7
2.85433	-3
2.85800	-17
2.86167	-35
2.86533	-56
2.86900	-82
2.87267	-112
2.87633	-146
2.88000	-184
2.88367	-225
2.88733	-270
2.89100	-317
2.89467	-366
2.89833	-418
2.90200	-470
2.90567	-523
2.90933	-577
2.91300	-630
2.91667	-683
2.92033	-736
2.92400	-787
2.92767	-838
2.93133	-890
2.93500	-947
2.93867	-1007
2.94233	-1060
2.94600	-1097
2.94967	-1109
2.95333	-1095
2.95700	-1057
2.96067	-1001
2.96433	-931
2.96800	-854
2.97167	-773
2.97533	-693
2.97900	-615
2.98267	-542
2.98633	-475
2.99000	-414
2.99367	-359
2.99733	-310
3.00100	-267
3.00467	-229
3.00833	-195
3.01200	-166
3.01567	-141
3.01933	-120
3.02300	-101
3.02667	-85
3.03033	-71
3.03400	-59
3.03767	-49
3.04133	-41
3.04500	-33
3.04867	-27
3.05233	-21
3.05600	-16
3.05967	-12
3.06333	-8
3.06700	-5
3.07067	-3
3.07433	-0
3.07800	2
3.08167	3
3.08533	5
3.08900	6
3.09267	7
3.09633	8
3.10000	9
3.10367	9
3.10733	10
3.11100	11
3.11467	11
3.11833	11
3.12200	12
3.12567	12
3.12933	13
3.13300	13
3.13667	14
3.14033	14
3.14400	15
3.14767	15
3.15133	15
3.15500	16
3.15867	16
3.16233	16
3.16600	17
3.16967	17
3.17333	17
3.17700	18
3.18067	18
3.18433	18
3.18800	19
3.19167	19
3.19533	20
3.19900	20
3.20267	20
3.20633	21
3.21000	21
3.21367	21
3.21733	22
3.22100	22
3.22467	22
3.22833	22
3.23200	22
3.23567	22
3.23933	22
3.24300	22
3.24667	22
3.25033	22
3.25400	22
3.25767	22
3.26133	22
3.26500	22
3.26867	22
3.27233	22
3.27600	22
3.27967	22
3.28333	22
3.28700	22
3.29067	22
3.29433	22
3.29800	22
3.30167	22
3.30533	22
3.30900	22
3.31267	22
3.31633	22
3.32000	22
3.32367	22
3.32733	22
3.33100	22
3.33467	22
3.33833	22
3.34200	22
3.34567	22
3.34933	22
3.35300	22
3.35667	22
3.36033	22
3.36400	22
3.36767	22
3.37133	22
3.37500	22
3.37867	21
3.38233	21
3.38600	21
3.38967	21
3.39333	21
3.39700	21
3.40067	21
3.40433	21
3.40800	22
3.41167	22
3.41533	23
3.41900	23
3.42267	24
3.42633	24
3.43000	24
3.43367	24
3.43733	25
3.44100	25
3.44467	25
3.44833	25
3.45200	25
3.45567	25
3.45933	25
3.46300	26
3.46667	26
3.47033	27
3.47400	27
3.47767	27
3.48133	28
3.48500	28
3.48867	28
3.49233	28
3.49600	28
3.49967	28
3.50333	28
3.50700	27
3.51067	27
3.51433	27
3.51800	27
3.52167	27
3.52533	26
3.52900	26
3.53267	26
3.53633	26
3.54000	26
3.54367	26
3.54733	26
3.55100	26
3.55467	26
3.55833	26
3.56200	26
3.56567	26
3.56933	26
3.57300	26
3.57667	26
3.58033	26
3.58400	26
3.58767	26
3.59133	26
3.59500	26
3.59867	26
3.60233	26
3.60600	26
3.60967	26
3.61333	26
3.61700	26
3.62067	26
3.62433	26
3.62800	26
3.63167	26
3.63533	26
3.63900	26
3.64267	26
3.64633	26
3.65000	26
3.65367	25
3.65733	25
3.66100	25
3.66467	25
3.66833	25
3.67200	25
3.67567	25
3.67933	25
3.68300	25
3.68667	25
3.69033	25
3.69400	25
3.69767	25
3.70133	25
3.70500	25
3.70867	26
3.71233	26
3.71600	26
3.71967	26
3.72333	27
3.72700	27
3.73067	26
3.73433	26
3.73800	26
3.74167	26
3.74533	25
3.74900	25
3.75267	25
3.75633	24
3.76000	24
3.76367	23
3.76733	23
3.77100	23
3.77467	23
3.77833	22
3.78200	22
3.78567	22
3.78933	22
3.79300	22
3.79667	22
3.80033	22
3.80400	21
3.80767	21
3.81133	22
3.81500	22
3.81867	22
3.82233	22
3.82600	22
3.82967	22
3.83333	22
3.83700	22
3.84067	23
3.84433	23
3.84800	23
3.85167	23
3.85533	23
3.85900	23
3.86267	23
3.86633	23
3.87000	23
3.87367	24
3.87733	24
3.88100	24
3.88467	23
3.88833	23
3.89200	23
3.89567	23
3.89933	23
3.90300	23
3.90667	23
3.91033	24
3.91400	24
3.91767	24
3.92133	25
3.92500	25
3.92867	25
3.93233	25
3.93600	26
3.93967	26
3.94333	26
3.94700	26
3.95067	27
3.95433	27
3.95800	27
3.96167	26
3.96533	26
3.96900	26
3.97267	26
3.97633	25
3.98000	25
3.98367	24
3.98733	24
3.99100	24
3.99467	23
3.99833	23

[Chromatogram (Ch3)]
Interval(msec)	220
# of Points	1091
Start Time(min)	0.002
End Time(min)	3.998
R.Time (min)	Intensity
0.00167	1
0.00533	0
0.00900	-1
0.01267	-1
0.01633	1
0.02000	2
0.02367	4
0.02733	5
0.03100	7
0.03467	7
0.03833	6
0.04200	4
0.04567	4
0.04933	3
0.05300	5
0.05667	7
0.06033	6
0.06400	4
0.06767	4
0.07133	5
0.07500	7
0.07867	6
0.08233	6
0.08600	6
0.08967	6
0.09333	6
0.09700	8
0.10067	10
0.10433	10
0.10800	9
0.11167	10
0.11533	10
0.11900	7
0.12267	6
0.12633	7
0.13000	8
0.13367	9
0.13733	10
0.14100	11
0.14467	13
0.14833	10
0.15200	9
0.15567	8
0.15933	7
0.16300	6
0.16667	9
0.17033	10
0.17400	10
0.17767	9
0.18133	6
0.18500	3
0.18867	2
0.19233	3
0.19600	5
0.19967	7
0.20333	9
0.20700	10
0.21067	11
0.21433	11
0.21800	10
0.22167	10
0.22533	10
0.22900	10
0.23267	10
0.23633	10
0.24000	9
0.24367	8
0.24733	9
0.25100	10
0.25467	10
0.25833	9
0.26200	7
0.26567	4
0.26933	2
0.27300	3
0.27667	4
0.28033	6
0.28400	8
0.28767	7
0.29133	7
0.29500	8
0.29867	9
0.30233	10
0.30600	10
0.30967	8
0.31333	7
0.31700	8
0.32067	9
0.32433	10
0.32800	12
0.33167	14
0.33533	15
0.33900	13
0.34267	12
0.34633	11
0.35000	9
0.35367	8
0.35733	8
0.36100	8
0.36467	9
0.36833	8
0.37200	8
0.37567	7
0.37933	5
0.38300	6
0.38667	7
0.39033	9
0.39400	11
0.39767	14
0.40133	12
0.40500	11
0.40867	11
0.41233	10
0.41600	11
0.41967	12
0.42333	12
0.42700	9
0.43067	7
0.43433	9
0.43800	9
0.44167	8
0.44533	7
0.44900	8
0.45267	10
0.45633	9
0.46000	11
0.46367	11
0.46733	12
0.47100	13
0.47467	14
0.47833	13
0.48200	11
0.48567	11
0.48933	11
0.49300	12
0.49667	11
0.50033	10
0.50400	10
0.50767	10
0.51133	11
0.51500	11
0.51867	10
0.52233	9
0.52600	8
0.52967	6
0.53333	7
0.53700	10
0.54067	13
0.54433	14
0.54800	13
0.55167	10
0.55533	8
0.55900	9
0.56267	7
0.56633	5
0.57000	5
0.57367	7
0.57733	8
0.58100	10
0.58467	12
0.58833	14
0.59200	13
0.59567	13
0.59933	15
0.60300	14
0.60667	12
0.61033	9
0.61400	7
0.61767	8
0.62133	9
0.62500	9
0.62867	11
0.63233	12
0.63600	12
0.63967	11
0.64333	11
0.64700	10
0.65067	9
0.65433	9
0.65800	8
0.66167	9
0.66533	9
0.66900	11
0.67267	12
0.67633	11
0.68000	11
0.68367	11
0.68733	9
0.69100	7
0.69467	4
0.69833	2
0.70200	1
0.70567	4
0.70933	7
0.71300	6
0.71667	4
0.72033	2
0.72400	2
0.72767	3
0.73133	6
0.73500	7
0.73867	5
0.74233	1
0.74600	2
0.74967	4
0.75333	4
0.75700	4
0.76067	4
0.76433	4
0.76800	6
0.77167	4
0.77533	1
0.77900	-1
0.78267	-3
0.78633	-2
0.79000	2
0.79367	2
0.79733	2
0.80100	-0
0.80467	0
0.80833	2
0.81200	4
0.81567	2
0.81933	-1
0.82300	-2
0.82667	-3
0.83033	-5
0.83400	-4
0.83767	-3
0.84133	-5
0.84500	-6
0.84867	-5
0.85233	-3
0.85600	-2
0.85967	-1
0.86333	0
0.86700	2
0.87067	4
0.87433	3
0.87800	3
0.88167	2
0.88533	0
0.88900	-3
0.89267	-1
0.89633	3
0.90000	5
0.90367	4
0.90733	4
0.91100	3
0.91467	3
0.91833	3
0.92200	6
0.92567	8
0.92933	7
0.93300	6
0.93667	8
0.94033	8
0.94400	9
0.94767	9
0.95133	10
0.95500	10
0.95867	11
0.96233	12
0.96600	14
0.96967	14
0.97333	16
0.97700	17
0.98067	16
0.98433	15
0.98800	14
0.99167	11
0.99533	10
0.99900	8
1.00267	6
1.00633	7
1.01000	8
1.01367	9
1.01733	9
1.02100	8
1.02467	9
1.02833	11
1.03200	11
1.03567	10
1.03933	10
1.04300	10
1.04667	9
1.05033	7
1.05400	7
1.05767	7
1.06133	7
1.06500	7
1.06867	7
1.07233	7
1.07600	8
1.07967	9
1.08333	9
1.08700	8
1.09067	6
1.09433	7
1.09800	10
1.10167	14
1.10533	14
1.10900	12
1.11267	9
1.11633	9
1.12000	10
1.12367	12
1.12733	11
1.13100	10
1.13467	10
1.13833	10
1.14200	10
1.14567	11
1.14933	10
1.15300	9
1.15667	8
1.16033	7
1.16400	7
1.16767	8
1.17133	11
1.17500	13
1.17867	11
1.18233	10
1.18600	9
1.18967	7
1.19333	6
1.19700	7
1.20067	7
1.20433	9
1.20800	9
1.21167	10
1.21533	10
1.21900	10
1.22267	10
1.22633	11
1.23000	13
1.23367	14
1.23733	13
1.24100	11
1.24467	11
1.24833	12
1.25200	12
1.25567	12
1.25933	12
1.26300	11
1.26667	11
1.27033	11
1.27400	13
1.27767	15
1.28133	16
1.28500	17
1.28867	17
1.29233	17
1.29600	16
1.29967	15
1.30333	14
1.30700	16
1.31067	17
1.31433	18
1.31800	20
1.32167	21
1.32533	22
1.32900	23
1.33267	21
1.33633	22
1.34000	23
1.34367	24
1.34733	25
1.35100	27
1.35467	28
1.35833	26
1.36200	23
1.36567	21
1.36933	22
1.37300	24
1.37667	25
1.38033	25
1.38400	25
1.38767	24
1.39133	24
1.39500	22
1.39867	21
1.40233	20
1.40600	19
1.40967	21
1.41333	23
1.41700	24
1.42067	25
1.42433	27
1.42800	28
1.43167	27
1.43533	28
1.43900	30
1.44267	32
1.44633	33
1.45000	31
1.45367	29
1.45733	27
1.46100	27
1.46467	26
1.46833	25
1.47200	24
1.47567	23
1.47933	23
1.48300	24
1.48667	23
1.49033	23
1.49400	23
1.49767	21
1.50133	20
1.50500	20
1.50867	19
1.51233	19
1.51600	17
1.51967	15
1.52333	14
1.52700	16
1.53067	18
1.53433	18
1.53800	16
1.54167	16
1.54533	18
1.54900	17
1.55267	15
1.55633	14
1.56000	13
1.56367	15
1.56733	14
1.57100	12
1.57467	10
1.57833	11
1.58200	13
1.58567	15
1.58933	18
1.59300	19
1.59667	18
1.60033	15
1.60400	13
1.60767	12
1.61133	13
1.61500	17
1.61867	22
1.62233	24
1.62600	21
1.62967	19
1.63333	20
1.63700	21
1.64067	21
1.64433	21
1.64800	22
1.65167	23
1.65533	22
1.65900	19
1.66267	18
1.66633	18
1.67000	19
1.67367	21
1.67733	22
1.68100	23
1.68467	25
1.68833	25
1.69200	25
1.69567	26
1.69933	26
1.70300	27
1.70667	28
1.71033	28
1.71400	27
1.71767	28
1.72133	28
1.72500	29
1.72867	31
1.73233	32
1.73600	33
1.73967	33
1.74333	34
1.74700	33
1.75067	34
1.75433	35
1.75800	36
1.76167	40
1.76533	41
1.76900	40
1.77267	39
1.77633	37
1.78000	34
1.78367	32
1.78733	32
1.79100	35
1.79467	38
1.79833	41
1.80200	44
1.80567	44
1.80933	43
1.81300	43
1.81667	45
1.82033	44
1.82400	43
1.82767	42
1.83133	43
1.83500	42
1.83867	40
1.84233	41
1.84600	42
1.84967	43
1.85333	44
1.85700	47
1.86067	49
1.86433	50
1.86800	52
1.87167	54
1.87533	56
1.87900	56
1.88267	56
1.88633	55
1.89000	55
1.89367	55
1.89733	56
1.90100	59
1.90467	61
1.90833	61
1.91200	57
1.91567	54
1.91933	54
1.92300	57
1.92667	59
1.93033	61
1.93400	61
1.93767	62
1.94133	64
1.94500	66
1.94867	67
1.95233	68
1.95600	69
1.95967	69
1.96333	68
1.96700	68
1.97067	68
1.97433	69
1.97800	70
1.98167	72
1.98533	74
1.98900	75
1.99267	77
1.99633	76
2.00000	76
2.00367	76
2.00733	78
2.01100	79
2.01467	79
2.01833	78
2.02200	78
2.02567	79
2.02933	81
2.03300	82
2.03667	83
2.04033	86
2.04400	86
2.04767	85
2.05133	86
2.05500	87
2.05867	88
2.06233	86
2.06600	86
2.06967	87
2.07333	90
2.07700	92
2.08067	92
2.08433	92
2.08800	93
2.09167	94
2.09533	96
2.09900	96
2.10267	96
2.10633	98
2.11000	100
2.11367	103
2.11733	104
2.12100	106
2.12467	107
2.12833	108
2.13200	109
2.13567	109
2.13933	107
2.14300	104
2.14667	104
2.15033	106
2.15400	110
2.15767	114
2.16133	116
2.16500	118
2.16867	120
2.17233	123
2.17600	124
2.17967	125
2.18333	123
2.18700	122
2.19067	122
2.19433	123
2.19800	125
2.20167	126
2.20533	125
2.20900	125
2.21267	127
2.21633	130
2.22000	131
2.22367	135
2.22733	136
2.23100	137
2.23467	136
2.23833	137
2.24200	141
2.24567	142
2.24933	141
2.25300	142
2.25667	142
2.26033	144
2.26400	146
2.26767	146
2.27133	147
2.27500	146
2.27867	147
2.28233	148
2.28600	152
2.28967	153
2.29333	156
2.29700	158
2.30067	159
2.30433	160
2.30800	162
2.31167	162
2.31533	164
2.31900	164
2.32267	166
2.32633	166
2.33000	166
2.33367	167
2.33733	168
2.34100	169
2.34467	168
2.34833	169
2.35200	170
2.35567	170
2.35933	172
2.36300	173
2.36667	175
2.37033	177
2.37400	179
2.37767	179
2.38133	181
2.38500	184
2.38867	182
2.39233	182
2.39600	183
2.39967	184
2.40333	187
2.40700	189
2.41067	193
2.41433	197
2.41800	199
2.42167	202
2.42533	205
2.42900	206
2.43267	208
2.43633	209
2.44000	211
2.44367	238
2.44733	315
2.45100	401
2.45467	471
2.45833	513
2.46200	509
2.46567	477
2.46933	442
2.47300	412
2.47667	389
2.48033	373
2.48400	362
2.48767	347
2.49133	324
2.49500	299
2.49867	274
2.50233	253
2.50600	236
2.50967	224
2.51333	215
2.51700	209
2.52067	207
2.52433	208
2.52800	213
2.53167	219
2.53533	227
2.53900	235
2.54267	242
2.54633	244
2.55000	239
2.55367	230
2.55733	218
2.56100	205
2.56467	192
2.56833	182
2.57200	173
2.57567	162
2.57933	156
2.58300	151
2.58667	149
2.59033	145
2.59400	140
2.59767	132
2.60133	122
2.60500	110
2.60867	93
2.61233	73
2.61600	52
2.61967	35
2.62333	21
2.62700	8
2.63067	-2
2.63433	-9
2.63800	-12
2.64167	-13
2.64533	-11
2.64900	-7
2.65267	-2
2.65633	7
2.66000	16
2.66367	26
2.66733	36
2.67100	47
2.67467	58
2.67833	65
2.68200	73
2.68567	80
2.68933	85
2.69300	85
2.69667	85
2.70033	85
2.70400	86
2.70767	85
2.71133	83
2.71500	81
2.71867	78
2.72233	75
2.72600	73
2.72967	73
2.73333	75
2.73700	74
2.74067	74
2.74433	75
2.74800	76
2.75167	74
2.75533	75
2.75900	75
2.76267	75
2.76633	76
2.77000	77
2.77367	77
2.77733	76
2.78100	73
2.78467	72
2.78833	70
2.79200	70
2.79567	72
2.79933	75
2.80300	77
2.80667	77
2.81033	76
2.81400	79
2.81767	87
2.82133	111
2.82500	157
2.82867	246
2.83233	398
2.83600	634
2.83967	971
2.84333	1408
2.84700	1931
2.85067	2515
2.85433	3118
2.85800	3689
2.86167	4175
2.86533	4538
2.86900	4763
2.87267	4843
2.87633	4788
2.88000	4617
2.88367	4365
2.88733	4056
2.89100	3715
2.89467	3363
2.89833	3019
2.90200	2685
2.90567	2375
2.90933	2095
2.91300	1841
2.91667	1615
2.92033	1417
2.92400	1242
2.92767	1085
2.93133	950
2.93500	833
2.93867	731
2.94233	642
2.94600	568
2.94967	503
2.95333	445
2.95700	395
2.96067	353
2.96433	316
2.96800	284
2.97167	258
2.97533	236
2.97900	218
2.98267	201
2.98633	185
2.99000	171
2.99367	160
2.99733	151
3.00100	143
3.00467	133
3.00833	125
3.01200	118
3.01567	113
3.01933	111
3.02300	110
3.02667	108
3.03033	104
3.03400	73
3.03767	11
3.04133	-47
3.04500	-76
3.04867	-69
3.05233	-33
3.05600	20
3.05967	77
3.06333	130
3.06700	181
3.07067	228
3.07433	271
3.07800	310
3.08167	346
3.08533	380
3.08900	412
3.09267	439
3.09633	461
3.10000	478
3.10367	492
3.10733	501
3.11100	510
3.11467	516
3.11833	520
3.12200	524
3.12567	528
3.12933	531
3.13300	537
3.13667	541
3.14033	544
3.14400	546
3.14767	548
3.15133	551
3.15500	555
3.15867	558
3.16233	561
3.16600	564
3.16967	565
3.17333	566
3.17700	568
3.18067	568
3.18433	569
3.18800	573
3.19167	576
3.19533	577
3.19900	578
3.20267	579
3.20633	576
3.21000	573
3.21367	573
3.21733	572
3.22100	570
3.22467	567
3.22833	567
3.23200	565
3.23567	565
3.23933	565
3.24300	565
3.24667	564
3.25033	561
3.25400	558
3.25767	555
3.26133	552
3.26500	547
3.26867	542
3.27233	539
3.27600	536
3.27967	533
3.28333	531
3.28700	528
3.29067	523
3.29433	519
3.29800	516
3.30167	513
3.30533	511
3.30900	507
3.31267	504
3.31633	503
3.32000	501
3.32367	497
3.32733	496
3.33100	496
3.33467	496
3.33833	495
3.34200	493
3.34567	491
3.34933	488
3.35300	488
3.35667	486
3.36033	484
3.36400	480
3.36767	479
3.37133	479
3.37500	480
3.37867	479
3.38233	480
3.38600	481
3.38967	481
3.39333	477
3.39700	474
3.40067	474
3.40433	470
3.40800	469
3.41167	469
3.41533	472
3.41900	474
3.42267	475
3.42633	475
3.43000	474
3.43367	472
3.43733	469
3.44100	467
3.44467	466
3.44833	463
3.45200	460
3.45567	460
3.45933	461
3.46300	462
3.46667	462
3.47033	460
3.47400	458
3.47767	456
3.48133	454
3.48500	452
3.48867	450
3.49233	450
3.49600	448
3.49967	443
3.50333	441
3.50700	442
3.51067	442
3.51433	440
3.51800	436
3.52167	433
3.52533	431
3.52900	427
3.53267	425
3.53633	424
3.54000	420
3.54367	415
3.54733	412
3.55100	410
3.55467	409
3.55833	409
3.56200	409
3.56567	410
3.56933	410
3.57300	409
3.57667	406
3.58033	402
3.58400	400
3.58767	400
3.59133	399
3.59500	396
3.59867	393
3.60233	392
3.60600	392
3.60967	392
3.61333	391
3.61700	390
3.62067	389
3.62433	388
3.62800	386
3.63167	385
3.63533	384
3.63900	384
3.64267	383
3.64633	382
3.65000	382
3.65367	379
3.65733	378
3.66100	377
3.66467	377
3.66833	377
3.67200	378
3.67567	379
3.67933	380
3.68300	379
3.68667	378
3.69033	377
3.69400	376
3.69767	377
3.70133	377
3.70500	376
3.70867	372
3.71233	369
3.71600	369
3.71967	370
3.72333	370
3.72700	370
3.73067	368
3.73433	366
3.73800	363
3.74167	363
3.74533	364
3.74900	366
3.75267	367
3.75633	367
3.76000	367
3.76367	366
3.76733	364
3.77100	361
3.77467	359
3.77833	358
3.78200	360
3.78567	363
3.78933	365
3.79300	365
3.79667	365
3.80033	362
3.80400	362
3.80767	361
3.81133	361
3.81500	363
3.81867	363
3.82233	362
3.82600	361
3.82967	360
3.83333	359
3.83700	359
3.84067	359
3.84433	360
3.84800	358
3.85167	358
3.85533	358
3.85900	358
3.86267	358
3.86633	358
3.87000	357
3.87367	359
3.87733	359
3.88100	358
3.88467	359
3.88833	359
3.89200	358
3.89567	358
3.89933	358
3.90300	356
3.90667	355
3.91033	354
3.91400	352
3.91767	351
3.92133	350
3.92500	351
3.92867	350
3.93233	348
3.93600	348
3.93967	349
3.94333	350
3.94700	350
3.95067	349
3.95433	345
3.95800	343
3.96167	341
3.96533	340
3.96900	340
3.97267	341
3.97633	345
3.98000	349
3.98367	352
3.98733	351
3.99100	348
3.99467	344
3.99833	342

[Status Trace (Column Oven Temperature)]
Interval(msec)	1000
# of Points	240
Start Time(min)	0.007
End Time(min)	3.991
Intensity Units	
Intensity Multiplier	1
R.Time (min)	Intensity
0.00745	35.04
0.02412	35.05
0.04078	35.05
0.05745	35.05
0.07412	35.05
0.09078	35.04
0.10745	35.04
0.12412	35.03
0.14078	35.03
0.15745	35.02
0.17412	35.01
0.19078	35.01
0.20745	35.02
0.22412	35.02
0.24078	35.03
0.25745	35.02
0.27412	35.02
0.29078	35.02
0.30745	35.02
0.32412	35.02
0.34078	35.02
0.35745	35.03
0.37412	35.02
0.39078	35.02
0.40745	35.01
0.42412	35.01
0.44078	35.02
0.45745	35.02
0.47412	35.01
0.49078	35.00
0.50745	35.01
0.52412	35.02
0.54078	35.02
0.55745	35.02
0.57412	35.03
0.59078	35.02
0.60745	35.03
0.62412	35.03
0.64078	35.03
0.65745	35.01
0.67412	35.01
0.69078	35.00
0.70745	34.99
0.72412	35.00
0.74078	35.01
0.75745	35.01
0.77412	35.01
0.79078	35.02
0.80745	35.01
0.82412	35.00
0.84078	34.99
0.85745	35.00
0.87412	35.00
0.89078	35.00
0.90745	35.00
0.92412	35.00
0.94078	35.01
0.95745	35.01
0.97412	35.01
0.99078	35.00
1.00745	35.01
1.02412	35.01
1.04078	35.01
1.05745	35.00
1.07412	35.00
1.09078	34.99
1.10745	34.98
1.12412	34.99
1.14078	34.99
1.15745	34.99
1.17412	35.00
1.19078	34.99
1.20745	34.99
1.22412	34.99
1.24078	35.00
1.25745	35.01
1.27412	35.00
1.29078	35.00
1.30745	35.00
1.32412	35.00
1.34078	35.00
1.35745	35.00
1.37412	34.99
1.39078	35.00
1.40745	34.99
1.42412	35.00
1.44078	35.01
1.45745	34.99
1.47412	34.98
1.49078	34.97
1.50745	34.97
1.52412	34.98
1.54078	34.98
1.55745	34.98
1.57412	35.00
1.59078	35.02
1.60745	35.07
1.62412	35.19
1.64078	35.37
1.65745	35.61
1.67412	35.93
1.69078	36.30
1.70745	36.67
1.72412	37.02
1.74078	37.34
1.75745	37.66
1.77412	37.99
1.79078	38.34
1.80745	38.68
1.82412	39.02
1.84078	39.31
1.85745	39.64
1.87412	39.97
1.89078	40.31
1.90745	40.62
1.92412	40.95
1.94078	41.27
1.95745	41.60
1.97412	41.93
1.99078	42.24
2.00745	42.56
2.02412	42.89
2.04078	43.23
2.05745	43.55
2.07412	43.89
2.09078	44.22
2.10745	44.53
2.12412	44.88
2.14078	45.18
2.15745	45.53
2.17412	45.83
2.19078	46.18
2.20745	46.51
2.22412	46.85
2.24078	47.17
2.25745	47.49
2.27412	47.84
2.29078	48.18
2.30745	48.51
2.32412	48.84
2.34078	49.16
2.35745	49.43
2.37412	49.61
2.39078	49.66
2.40745	49.63
2.42412	49.65
2.44078	49.67
2.45745	49.68
2.47412	49.69
2.49078	49.70
2.50745	49.70
2.52412	49.71
2.54078	49.74
2.55745	49.75
2.57412	49.77
2.59078	49.79
2.60745	49.80
2.62412	49.81
2.64078	49.81
2.65745	49.82
2.67412	49.82
2.69078	49.84
2.70745	49.85
2.72412	49.86
2.74078	49.86
2.75745	49.85
2.77412	49.86
2.79078	49.89
2.80745	49.90
2.82412	49.91
2.84078	49.90
2.85745	49.90
2.87412	49.90
2.89078	49.90
2.90745	49.90
2.92412	49.89
2.94078	49.91
2.95745	49.93
2.97412	49.95
2.99078	49.98
3.00745	50.01
3.02412	50.02
3.04078	50.03
3.05745	50.03
3.07412	50.04
3.09078	50.04
3.10745	50.05
3.12412	50.07
3.14078	50.08
3.15745	50.08
3.17412	50.07
3.19078	50.07
3.20745	50.06
3.22412	50.05
3.24078	50.06
3.25745	50.07
3.27412	50.07
3.29078	50.07
3.30745	50.08
3.32412	50.08
3.34078	50.08
3.35745	50.09
3.37412	50.10
3.39078	50.12
3.40745	50.11
3.42412	50.10
3.44078	50.10
3.45745	50.09
3.47412	50.06
3.49078	50.05
3.50745	50.05
3.52412	50.04
3.54078	50.03
3.55745	50.03
3.57412	50.03
3.59078	50.03
3.60745	50.03
3.62412	50.03
3.64078	50.02
3.65745	50.03
3.67412	50.03
3.69078	50.02
3.70745	50.01
3.72412	50.00
3.74078	50.01
3.75745	50.03
3.77412	50.05
3.79078	50.07
3.80745	50.08
3.82412	50.08
3.84078	50.09
3.85745	50.09
3.87412	50.09
3.89078	50.09
3.90745	50.09
3.92412	50.08
3.94078	50.07
3.95745	50.06
3.97412	50.07
3.99078	50.06

[Status Trace (Injection Unit Temperature)]
Interval(msec)	1000
# of Points	240
Start Time(min)	0.007
End Time(min)	3.991
Intensity Units	
Intensity Multiplier	1
R.Time (min)	Intensity
0.00745	99.98
0.02412	99.98
0.04078	99.98
0.05745	99.98
0.07412	99.98
0.09078	99.98
0.10745	99.98
0.12412	99.98
0.14078	99.98
0.15745	99.98
0.17412	99.98
0.19078	99.98
0.20745	99.98
0.22412	99.98
0.24078	99.98
0.25745	99.98
0.27412	99.98
0.29078	99.98
0.30745	99.98
0.32412	99.97
0.34078	99.98
0.35745	99.98
0.37412	99.98
0.39078	99.98
0.40745	99.98
0.42412	99.98
0.44078	99.98
0.45745	99.98
0.47412	99.98
0.49078	99.97
0.50745	99.98
0.52412	99.98
0.54078	99.97
0.55745	99.98
0.57412	99.97
0.59078	99.98
0.60745	99.98
0.62412	99.98
0.64078	99.97
0.65745	99.98
0.67412	99.97
0.69078	99.97
0.70745	99.98
0.72412	99.98
0.74078	99.98
0.75745	99.98
0.77412	99.98
0.79078	99.98
0.80745	99.98
0.82412	99.98
0.84078	99.98
0.85745	99.98
0.87412	99.98
0.89078	99.98
0.90745	99.98
0.92412	99.98
0.94078	99.98
0.95745	99.98
0.97412	99.98
0.99078	99.98
1.00745	99.98
1.02412	99.98
1.04078	99.98
1.05745	99.98
1.07412	99.98
1.09078	99.99
1.10745	99.98
1.12412	99.98
1.14078	99.98
1.15745	99.98
1.17412	99.98
1.19078	99.98
1.20745	99.98
1.22412	99.99
1.24078	99.98
1.25745	99.99
1.27412	99.99
1.29078	99.99
1.30745	99.99
1.32412	99.98
1.34078	99.99
1.35745	99.99
1.37412	99.98
1.39078	99.99
1.40745	99.99
1.42412	99.98
1.44078	99.99
1.45745	99.99
1.47412	99.99
1.49078	99.98
1.50745	99.98
1.52412	99.99
1.54078	99.99
1.55745	99.99
1.57412	99.98
1.59078	99.98
1.60745	99.99
1.62412	99.98
1.64078	99.98
1.65745	99.99
1.67412	99.99
1.69078	99.98
1.70745	99.99
1.72412	99.98
1.74078	99.98
1.75745	99.99
1.77412	99.99
1.79078	99.98
1.80745	99.98
1.82412	99.98
1.84078	99.99
1.85745	99.98
1.87412	99.98
1.89078	99.98
1.90745	99.98
1.92412	99.98
1.94078	99.98
1.95745	99.98
1.97412	99.98
1.99078	99.98
2.00745	99.98
2.02412	99.97
2.04078	99.98
2.05745	99.98
2.07412	99.97
2.09078	99.97
2.10745	99.97
2.12412	99.97
2.14078	99.97
2.15745	99.97
2.17412	99.97
2.19078	99.97
2.20745	99.97
2.22412	99.97
2.24078	99.97
2.25745	99.97
2.27412	99.97
2.29078	99.96
2.30745	99.97
2.32412	99.96
2.34078	99.97
2.35745	99.97
2.37412	99.97
2.39078	99.97
2.40745	99.97
2.42412	99.97
2.44078	99.97
2.45745	99.97
2.47412	99.97
2.49078	99.97
2.50745	99.97
2.52412	99.97
2.54078	99.97
2.55745	99.97
2.57412	99.97
2.59078	99.98
2.60745	99.97
2.62412	99.97
2.64078	99.98
2.65745	99.98
2.67412	99.98
2.69078	99.98
2.70745	99.98
2.72412	99.98
2.74078	99.99
2.75745	99.98
2.77412	99.99
2.79078	99.99
2.80745	99.99
2.82412	99.99
2.84078	99.99
2.85745	100.00
2.87412	100.00
2.89078	100.00
2.90745	100.00
2.92412	100.00
2.94078	100.00
2.95745	100.00
2.97412	100.01
2.99078	100.01
3.00745	100.01
3.02412	100.01
3.04078	100.01
3.05745	100.01
3.07412	100.02
3.09078	100.01
3.10745	100.02
3.12412	100.02
3.14078	100.02
3.15745	100.02
3.17412	100.02
3.19078	100.02
3.20745	100.02
3.22412	100.03
3.24078	100.03
3.25745	100.03
3.27412	100.03
3.29078	100.03
3.30745	100.03
3.32412	100.03
3.34078	100.03
3.35745	100.04
3.37412	100.04
3.39078	100.04
3.40745	100.04
3.42412	100.04
3.44078	100.04
3.45745	100.04
3.47412	100.04
3.49078	100.05
3.50745	100.04
3.52412	100.05
3.54078	100.05
3.55745	100.05
3.57412	100.05
3.59078	100.05
3.60745	100.05
3.62412	100.05
3.64078	100.05
3.65745	100.05
3.67412	100.05
3.69078	100.05
3.70745	100.05
3.72412	100.05
3.74078	100.05
3.75745	100.05
3.77412	100.05
3.79078	100.05
3.80745	100.05
3.82412	100.05
3.84078	100.05
3.85745	100.05
3.87412	100.06
3.89078	100.05
3.90745	100.05
3.92412	100.06
3.94078	100.05
3.95745	100.05
3.97412	100.05
3.99078	100.05

[Status Trace (Carrier Gas Pressure)]
Interval(msec)	1000
# of Points	240
Start Time(min)	0.007
End Time(min)	3.991
Intensity Units	
Intensity Multiplier	1
R.Time (min)	Intensity
0.00745	58.00
0.02412	55.44
0.04078	57.11
0.05745	59.16
0.07412	59.47
0.09078	58.07
0.10745	57.98
0.12412	58.01
0.14078	58.01
0.15745	58.01
0.17412	58.00
0.19078	58.00
0.20745	58.00
0.22412	58.00
0.24078	58.00
0.25745	58.00
0.27412	58.00
0.29078	58.00
0.30745	58.00
0.32412	58.00
0.34078	58.00
0.35745	58.00
0.37412	58.00
0.39078	58.00
0.40745	58.00
0.42412	58.00
0.44078	58.00
0.45745	58.00
0.47412	58.00
0.49078	58.00
0.50745	58.00
0.52412	58.00
0.54078	58.00
0.55745	58.00
0.57412	58.00
0.59078	58.00
0.60745	58.00
0.62412	58.00
0.64078	58.00
0.65745	58.00
0.67412	58.00
0.69078	58.00
0.70745	58.00
0.72412	58.00
0.74078	58.00
0.75745	58.00
0.77412	58.00
0.79078	58.00
0.80745	58.00
0.82412	58.00
0.84078	58.00
0.85745	58.00
0.87412	58.00
0.89078	58.00
0.90745	58.00
0.92412	58.00
0.94078	58.00
0.95745	58.00
0.97412	58.00
0.99078	58.00
1.00745	58.00
1.02412	58.00
1.04078	58.00
1.05745	58.00
1.07412	58.00
1.09078	58.00
1.10745	58.00
1.12412	58.00
1.14078	58.00
1.15745	58.00
1.17412	58.00
1.19078	58.00
1.20745	58.00
1.22412	58.00
1.24078	58.00
1.25745	58.00
1.27412	58.00
1.29078	58.00
1.30745	58.00
1.32412	58.00
1.34078	58.00
1.35745	58.00
1.37412	58.00
1.39078	58.00
1.40745	58.00
1.42412	58.00
1.44078	58.00
1.45745	58.00
1.47412	58.00
1.49078	58.00
1.50745	58.00
1.52412	58.00
1.54078	58.00
1.55745	58.00
1.57412	58.00
1.59078	58.00
1.60745	58.00
1.62412	58.00
1.64078	58.00
1.65745	58.00
1.67412	58.01
1.69078	58.01
1.70745	58.00
1.72412	58.00
1.74078	58.00
1.75745	58.00
1.77412	58.00
1.79078	58.00
1.80745	58.00
1.82412	58.00
1.84078	58.00
1.85745	58.00
1.87412	58.00
1.89078	58.00
1.90745	58.00
1.92412	58.00
1.94078	58.00
1.95745	58.00
1.97412	58.00
1.99078	58.00
2.00745	58.00
2.02412	58.00
2.04078	58.00
2.05745	58.00
2.07412	58.00
2.09078	58.00
2.10745	58.00
2.12412	58.00
2.14078	58.00
2.15745	58.00
2.17412	58.00
2.19078	58.00
2.20745	58.00
2.22412	58.00
2.24078	58.00
2.25745	58.00
2.27412	58.00
2.29078	58.00
2.30745	58.00
2.32412	58.00
2.34078	58.00
2.35745	58.00
2.37412	58.00
2.39078	57.99
2.40745	57.99
2.42412	58.00
2.44078	58.00
2.45745	58.00
2.47412	58.00
2.49078	58.00
2.50745	57.99
2.52412	57.98
2.54078	58.00
2.55745	58.00
2.57412	58.00
2.59078	58.00
2.60745	58.00
2.62412	58.00
2.64078	58.00
2.65745	58.00
2.67412	58.00
2.69078	58.00
2.70745	58.00
2.72412	58.00
2.74078	58.00
2.75745	58.00
2.77412	58.00
2.79078	58.00
2.80745	58.00
2.82412	58.00
2.84078	58.00
2.85745	58.00
2.87412	58.00
2.89078	58.00
2.90745	58.00
2.92412	58.00
2.94078	58.00
2.95745	58.00
2.97412	58.00
2.99078	58.00
3.00745	58.00
3.02412	58.00
3.04078	58.00
3.05745	58.00
3.07412	58.00
3.09078	58.00
3.10745	58.00
3.12412	58.00
3.14078	58.00
3.15745	58.00
3.17412	58.00
3.19078	58.00
3.20745	58.00
3.22412	58.00
3.24078	58.00
3.25745	58.00
3.27412	58.00
3.29078	58.00
3.30745	58.00
3.32412	58.00
3.34078	58.00
3.35745	58.00
3.37412	58.00
3.39078	58.00
3.40745	58.00
3.42412	58.00
3.44078	58.00
3.45745	58.00
3.47412	58.00
3.49078	58.00
3.50745	58.00
3.52412	58.00
3.54078	58.00
3.55745	58.00
3.57412	58.00
3.59078	58.00
3.60745	58.00
3.62412	58.00
3.64078	58.00
3.65745	58.00
3.67412	58.00
3.69078	58.00
3.70745	58.00
3.72412	58.00
3.74078	58.00
3.75745	58.00
3.77412	58.00
3.79078	58.00
3.80745	58.00
3.82412	58.00
3.84078	58.00
3.85745	58.00
3.87412	58.00
3.89078	58.00
3.90745	58.00
3.92412	58.00
3.94078	58.00
3.95745	58.00
3.97412	58.00
3.99078	58.00

[Status Trace (Carrier Gas Flow)]
Interval(msec)	1000
# of Points	240
Start Time(min)	0.007
End Time(min)	3.991
Intensity Units	
Intensity Multiplier	1
R.Time (min)	Intensity
0.00745	34.52
0.02412	34.54
0.04078	34.55
0.05745	34.55
0.07412	34.50
0.09078	34.51
0.10745	34.52
0.12412	34.52
0.14078	34.52
0.15745	34.52
0.17412	34.52
0.19078	34.52
0.20745	34.52
0.22412	34.51
0.24078	34.52
0.25745	34.52
0.27412	34.52
0.29078	34.52
0.30745	34.52
0.32412	34.52
0.34078	34.52
0.35745	34.52
0.37412	34.52
0.39078	34.52
0.40745	34.52
0.42412	34.52
0.44078	34.52
0.45745	34.52
0.47412	34.52
0.49078	34.52
0.50745	34.52
0.52412	34.52
0.54078	34.52
0.55745	34.52
0.57412	34.52
0.59078	34.52
0.60745	34.52
0.62412	34.52
0.64078	34.52
0.65745	34.52
0.67412	34.52
0.69078	34.52
0.70745	34.52
0.72412	34.52
0.74078	34.52
0.75745	34.52
0.77412	34.52
0.79078	34.52
0.80745	34.52
0.82412	34.52
0.84078	34.52
0.85745	34.52
0.87412	34.52
0.89078	34.52
0.90745	34.52
0.92412	34.52
0.94078	34.52
0.95745	34.52
0.97412	34.52
0.99078	34.52
1.00745	34.52
1.02412	34.52
1.04078	34.52
1.05745	34.52
1.07412	34.52
1.09078	34.52
1.10745	34.52
1.12412	34.52
1.14078	34.52
1.15745	34.52
1.17412	34.52
1.19078	34.52
1.20745	34.51
1.22412	34.51
1.24078	34.52
1.25745	34.52
1.27412	34.52
1.29078	34.52
1.30745	34.52
1.32412	34.52
1.34078	34.52
1.35745	34.52
1.37412	34.53
1.39078	34.52
1.40745	34.52
1.42412	34.52
1.44078	34.52
1.45745	34.52
1.47412	34.51
1.49078	34.52
1.50745	34.52
1.52412	34.51
1.54078	34.52
1.55745	34.52
1.57412	34.52
1.59078	34.52
1.60745	34.52
1.62412	34.52
1.64078	34.52
1.65745	34.52
1.67412	34.52
1.69078	34.52
1.70745	34.52
1.72412	34.52
1.74078	34.52
1.75745	34.52
1.77412	34.52
1.79078	34.51
1.80745	34.52
1.82412	34.52
1.84078	34.52
1.85745	34.52
1.87412	34.52
1.89078	34.52
1.90745	34.52
1.92412	34.52
1.94078	34.52
1.95745	34.52
1.97412	34.52
1.99078	34.52
2.00745	34.52
2.02412	34.52
2.04078	34.52
2.05745	34.52
2.07412	34.52
2.09078	34.52
2.10745	34.52
2.12412	34.52
2.14078	34.52
2.15745	34.52
2.17412	34.52
2.19078	34.52
2.20745	34.52
2.22412	34.52
2.24078	34.52
2.25745	34.52
2.27412	34.52
2.29078	34.52
2.30745	34.52
2.32412	34.52
2.34078	34.52
2.35745	34.52
2.37412	34.52
2.39078	34.52
2.40745	34.52
2.42412	34.52
2.44078	34.52
2.45745	34.52
2.47412	34.52
2.49078	34.52
2.50745	34.33
2.52412	34.52
2.54078	34.52
2.55745	34.52
2.57412	34.52
2.59078	34.53
2.60745	34.52
2.62412	34.52
2.64078	34.52
2.65745	34.52
2.67412	34.52
2.69078	34.52
2.70745	34.51
2.72412	34.52
2.74078	34.52
2.75745	34.52
2.77412	34.52
2.79078	34.52
2.80745	34.52
2.82412	34.51
2.84078	34.52
2.85745	34.52
2.87412	34.52
2.89078	34.52
2.90745	34.52
2.92412	34.52
2.94078	34.51
2.95745	34.52
2.97412	34.52
2.99078	34.52
3.00745	34.52
3.02412	34.52
3.04078	34.52
3.05745	34.52
3.07412	34.52
3.09078	34.52
3.10745	34.52
3.12412	34.52
3.14078	34.52
3.15745	34.52
3.17412	34.52
3.19078	34.52
3.20745	34.52
3.22412	34.52
3.24078	34.52
3.25745	34.52
3.27412	34.52
3.29078	34.52
3.30745	34.52
3.32412	34.52
3.34078	34.52
3.35745	34.52
3.37412	34.52
3.39078	34.52
3.40745	34.52
3.42412	34.52
3.44078	34.52
3.45745	34.52
3.47412	34.52
3.49078	34.52
3.50745	34.52
3.52412	34.52
3.54078	34.52
3.55745	34.52
3.57412	34.52
3.59078	34.52
3.60745	34.52
3.62412	34.52
3.64078	34.52
3.65745	34.52
3.67412	34.52
3.69078	34.52
3.70745	34.52
3.72412	34.52
3.74078	34.52
3.75745	34.52
3.77412	34.52
3.79078	34.52
3.80745	34.52
3.82412	34.52
3.84078	34.52
3.85745	34.52
3.87412	34.52
3.89078	34.52
3.90745	34.52
3.92412	34.52
3.94078	34.52
3.95745	34.52
3.97412	34.52
3.99078	34.52

[Status Trace (Column Flow)]
Interval(msec)	1000
# of Points	240
Start Time(min)	0.007
End Time(min)	3.991
Intensity Units	
Intensity Multiplier	1
R.Time (min)	Intensity
0.00745	5.57
0.02412	5.28
0.04078	5.47
0.05745	5.71
0.07412	5.75
0.09078	5.58
0.10745	5.57
0.12412	5.57
0.14078	5.57
0.15745	5.57
0.17412	5.57
0.19078	5.57
0.20745	5.57
0.22412	5.57
0.24078	5.57
0.25745	5.57
0.27412	5.57
0.29078	5.57
0.30745	5.57
0.32412	5.57
0.34078	5.57
0.35745	5.57
0.37412	5.57
0.39078	5.57
0.40745	5.57
0.42412	5.57
0.44078	5.57
0.45745	5.57
0.47412	5.57
0.49078	5.57
0.50745	5.57
0.52412	5.57
0.54078	5.57
0.55745	5.57
0.57412	5.57
0.59078	5.57
0.60745	5.57
0.62412	5.57
0.64078	5.57
0.65745	5.57
0.67412	5.57
0.69078	5.57
0.70745	5.57
0.72412	5.57
0.74078	5.57
0.75745	5.57
0.77412	5.57
0.79078	5.57
0.80745	5.57
0.82412	5.57
0.84078	5.57
0.85745	5.57
0.87412	5.57
0.89078	5.57
0.90745	5.57
0.92412	5.57
0.94078	5.57
0.95745	5.57
0.97412	5.57
0.99078	5.57
1.00745	5.57
1.02412	5.57
1.04078	5.57
1.05745	5.57
1.07412	5.57
1.09078	5.57
1.10745	5.58
1.12412	5.57
1.14078	5.58
1.15745	5.57
1.17412	5.57
1.19078	5.57
1.20745	5.57
1.22412	5.57
1.24078	5.57
1.25745	5.57
1.27412	5.57
1.29078	5.57
1.30745	5.57
1.32412	5.57
1.34078	5.57
1.35745	5.57
1.37412	5.57
1.39078	5.57
1.40745	5.57
1.42412	5.57
1.44078	5.57
1.45745	5.57
1.47412	5.58
1.49078	5.58
1.50745	5.58
1.52412	5.58
1.54078	5.58
1.55745	5.58
1.57412	5.57
1.59078	5.57
1.60745	5.57
1.62412	5.57
1.64078	5.56
1.65745	5.56
1.67412	5.55
1.69078	5.53
1.70745	5.52
1.72412	5.51
1.74078	5.50
1.75745	5.49
1.77412	5.48
1.79078	5.47
1.80745	5.46
1.82412	5.45
1.84078	5.44
1.85745	5.43
1.87412	5.42
1.89078	5.41
1.90745	5.40
1.92412	5.39
1.94078	5.38
1.95745	5.37
1.97412	5.36
1.99078	5.35
2.00745	5.34
2.02412	5.33
2.04078	5.32
2.05745	5.31
2.07412	5.30
2.09078	5.29
2.10745	5.28
2.12412	5.27
2.14078	5.26
2.15745	5.26
2.17412	5.25
2.19078	5.24
2.20745	5.23
2.22412	5.22
2.24078	5.21
2.25745	5.20
2.27412	5.19
2.29078	5.18
2.30745	5.17
2.32412	5.16
2.34078	5.15
2.35745	5.14
2.37412	5.14
2.39078	5.14
2.40745	5.14
2.42412	5.14
2.44078	5.14
2.45745	5.14
2.47412	5.14
2.49078	5.14
2.50745	5.13
2.52412	5.13
2.54078	5.13
2.55745	5.13
2.57412	5.13
2.59078	5.13
2.60745	5.13
2.62412	5.13
2.64078	5.13
2.65745	5.13
2.67412	5.13
2.69078	5.13
2.70745	5.13
2.72412	5.13
2.74078	5.13
2.75745	5.13
2.77412	5.13
2.79078	5.13
2.80745	5.13
2.82412	5.13
2.84078	5.13
2.85745	5.13
2.87412	5.13
2.89078	5.13
2.90745	5.13
2.92412	5.13
2.94078	5.13
2.95745	5.13
2.97412	5.13
2.99078	5.13
3.00745	5.13
3.02412	5.13
3.04078	5.13
3.05745	5.13
3.07412	5.13
3.09078	5.13
3.10745	5.13
3.12412	5.13
3.14078	5.13
3.15745	5.13
3.17412	5.13
3.19078	5.13
3.20745	5.13
3.22412	5.13
3.24078	5.13
3.25745	5.13
3.27412	5.13
3.29078	5.13
3.30745	5.13
3.32412	5.13
3.34078	5.12
3.35745	5.12
3.37412	5.12
3.39078	5.12
3.40745	5.12
3.42412	5.12
3.44078	5.12
3.45745	5.12
3.47412	5.13
3.49078	5.13
3.50745	5.13
3.52412	5.13
3.54078	5.13
3.55745	5.13
3.57412	5.13
3.59078	5.13
3.60745	5.13
3.62412	5.13
3.64078	5.13
3.65745	5.13
3.67412	5.13
3.69078	5.13
3.70745	5.13
3.72412	5.13
3.74078	5.13
3.75745	5.13
3.77412	5.13
3.79078	5.13
3.80745	5.13
3.82412	5.12
3.84078	5.12
3.85745	5.12
3.87412	5.12
3.89078	5.12
3.90745	5.12
3.92412	5.13
3.94078	5.13
3.95745	5.13
3.97412	5.13
3.99078	5.13

[Status Trace (Linear Velocity)]
Interval(msec)	1000
# of Points	240
Start Time(min)	0.007
End Time(min)	3.991
Intensity Units	
Intensity Multiplier	1
R.Time (min)	Intensity
0.00745	39.02
0.02412	37.35
0.04078	38.44
0.05745	39.78
0.07412	39.99
0.09078	39.07
0.10745	39.01
0.12412	39.03
0.14078	39.03
0.15745	39.03
0.17412	39.03
0.19078	39.03
0.20745	39.03
0.22412	39.03
0.24078	39.03
0.25745	39.03
0.27412	39.03
0.29078	39.03
0.30745	39.03
0.32412	39.03
0.34078	39.03
0.35745	39.03
0.37412	39.03
0.39078	39.03
0.40745	39.03
0.42412	39.03
0.44078	39.03
0.45745	39.03
0.47412	39.03
0.49078	39.03
0.50745	39.03
0.52412	39.03
0.54078	39.03
0.55745	39.03
0.57412	39.03
0.59078	39.03
0.60745	39.03
0.62412	39.03
0.64078	39.03
0.65745	39.03
0.67412	39.03
0.69078	39.03
0.70745	39.03
0.72412	39.03
0.74078	39.03
0.75745	39.03
0.77412	39.03
0.79078	39.03
0.80745	39.03
0.82412	39.03
0.84078	39.03
0.85745	39.03
0.87412	39.03
0.89078	39.03
0.90745	39.03
0.92412	39.03
0.94078	39.03
0.95745	39.03
0.97412	39.03
0.99078	39.03
1.00745	39.03
1.02412	39.03
1.04078	39.03
1.05745	39.03
1.07412	39.03
1.09078	39.03
1.10745	39.03
1.12412	39.03
1.14078	39.03
1.15745	39.03
1.17412	39.03
1.19078	39.03
1.20745	39.03
1.22412	39.03
1.24078	39.03
1.25745	39.03
1.27412	39.03
1.29078	39.03
1.30745	39.03
1.32412	39.03
1.34078	39.03
1.35745	39.03
1.37412	39.03
1.39078	39.03
1.40745	39.03
1.42412	39.03
1.44078	39.03
1.45745	39.03
1.47412	39.03
1.49078	39.03
1.50745	39.03
1.52412	39.03
1.54078	39.03
1.55745	39.03
1.57412	39.03
1.59078	39.03
1.60745	39.02
1.62412	39.01
1.64078	39.00
1.65745	38.98
1.67412	38.94
1.69078	38.91
1.70745	38.87
1.72412	38.84
1.74078	38.81
1.75745	38.78
1.77412	38.74
1.79078	38.71
1.80745	38.68
1.82412	38.65
1.84078	38.62
1.85745	38.59
1.87412	38.56
1.89078	38.53
1.90745	38.50
1.92412	38.47
1.94078	38.44
1.95745	38.41
1.97412	38.37
1.99078	38.35
2.00745	38.32
2.02412	38.29
2.04078	38.25
2.05745	38.23
2.07412	38.19
2.09078	38.16
2.10745	38.14
2.12412	38.10
2.14078	38.08
2.15745	38.05
2.17412	38.02
2.19078	37.99
2.20745	37.96
2.22412	37.93
2.24078	37.90
2.25745	37.87
2.27412	37.84
2.29078	37.81
2.30745	37.78
2.32412	37.75
2.34078	37.72
2.35745	37.70
2.37412	37.68
2.39078	37.67
2.40745	37.67
2.42412	37.67
2.44078	37.67
2.45745	37.67
2.47412	37.67
2.49078	37.67
2.50745	37.67
2.52412	37.66
2.54078	37.67
2.55745	37.67
2.57412	37.66
2.59078	37.66
2.60745	37.66
2.62412	37.66
2.64078	37.66
2.65745	37.66
2.67412	37.66
2.69078	37.66
2.70745	37.66
2.72412	37.66
2.74078	37.66
2.75745	37.66
2.77412	37.66
2.79078	37.66
2.80745	37.65
2.82412	37.65
2.84078	37.65
2.85745	37.65
2.87412	37.65
2.89078	37.65
2.90745	37.65
2.92412	37.65
2.94078	37.65
2.95745	37.65
2.97412	37.65
2.99078	37.65
3.00745	37.64
3.02412	37.64
3.04078	37.64
3.05745	37.64
3.07412	37.64
3.09078	37.64
3.10745	37.64
3.12412	37.64
3.14078	37.64
3.15745	37.64
3.17412	37.64
3.19078	37.64
3.20745	37.64
3.22412	37.64
3.24078	37.64
3.25745	37.64
3.27412	37.64
3.29078	37.64
3.30745	37.64
3.32412	37.64
3.34078	37.64
3.35745	37.64
3.37412	37.64
3.39078	37.63
3.40745	37.63
3.42412	37.63
3.44078	37.64
3.45745	37.64
3.47412	37.64
3.49078	37.64
3.50745	37.64
3.52412	37.64
3.54078	37.64
3.55745	37.64
3.57412	37.64
3.59078	37.64
3.60745	37.64
3.62412	37.64
3.64078	37.64
3.65745	37.64
3.67412	37.64
3.69078	37.64
3.70745	37.64
3.72412	37.64
3.74078	37.64
3.75745	37.64
3.77412	37.64
3.79078	37.64
3.80745	37.64
3.82412	37.64
3.84078	37.64
3.85745	37.64
3.87412	37.64
3.89078	37.64
3.90745	37.64
3.92412	37.64
3.94078	37.64
3.95745	37.64
3.97412	37.64
3.99078	37.64

