[Header]
Application Name	LabSolutions
Version	5.110
Data File Name	C:\Users\User\Desktop\GC Analyses\Jack\Nachusa Grasslands Sampling\T0 Timepoint July 12th\T0_07122022_088.gcd
Output Date	3/14/2023
Output Time	3:40:39 PM

[File Information]
Type	Data File
Generated	3/7/2023 11:37:49 PM
Generated by	System Administrator
Modified	3/7/2023 11:44:21 PM
Modified by	System Administrator

[Sample Information]
Operator Name	System Administrator
Acquired	3/7/2023 11:40:20 PM
Sample Type	0:Unknown
Level	0
Sample Name	088
Sample ID	088
ISTD Amount1	1
ISTD Amount2	1
ISTD Amount3	1
ISTD Amount4	1
ISTD Amount5	1
ISTD Amount6	1
ISTD Amount7	1
ISTD Amount8	1
ISTD Amount9	1
ISTD Amount10	1
ISTD Amount11	1
ISTD Amount12	1
ISTD Amount13	1
ISTD Amount14	1
ISTD Amount15	1
ISTD Amount16	1
ISTD Amount17	1
ISTD Amount18	1
ISTD Amount19	1
ISTD Amount20	1
ISTD Amount21	1
ISTD Amount22	1
ISTD Amount23	1
ISTD Amount24	1
ISTD Amount25	1
ISTD Amount26	1
ISTD Amount27	1
ISTD Amount28	1
ISTD Amount29	1
ISTD Amount30	1
ISTD Amount31	1
ISTD Amount32	1
Sample Amount	1
Dilution Factor	1
Vial#	87
Injection Volume	1
Injection Count	1
Bar Code	

[Original Files]
Data File	C:\Users\User\Desktop\GC Analyses\Jack\Nachusa Grasslands Sampling\T0 Timepoint July 12th\T0_07122022_088.gcd
Method File	C:\LabSolutions\Data\GHG_4min_2022\ghg3_togas_w_acet_4 min_new_int.gcm
Batch File	C:\LabSolutions\Data\AutoSamplerTesting\T0_07122022.gcb
Report Format File	c:\LabSolutions\System\DEFAULT.lsr

[File Description]


[Configuration]
Instrument Name	C0B7VH3-Instrument1
Instrument #	1
Line #	1
# of Detectors	3
Detector ID	DET#1	DET#2	DET#3
Detector Name	FID	PTCD	ECD
# of Channels	1	1	1

[Peak Table(Ch1)]
# of Peaks	3
Peak#	R.Time	I.Time	F.Time	Area	Height	A/H	Conc.	Mark	ID#	Name	k'	Plate #	Plate Ht.	Tailing	Resolution	Sep.Factor	Area Ratio	Height Ratio	Conc. %	Norm Conc.
1	1.476	1.435	1.538	30493	14350	2.125	215.279	   	1	CO	0.000	9313	16.107	1.310	0.000	0.000	0	0	36.207	36.207
2	1.567	1.538	1.630	4936	2365	2.087	95.439	 V 	2	CH4	0.062	10336	14.513	0.000	1.493	0.000	0	0	16.052	16.052
3	1.996	1.949	2.462	1131042	532598	2.124	283.861	   	3	CO2	0.353	17240	8.701	1.310	7.005	5.680	0	0	47.742	47.742

[Peak Table(Ch2)]
# of Peaks	0

[Peak Table(Ch3)]
# of Peaks	6
Peak#	R.Time	I.Time	F.Time	Area	Height	A/H	Conc.	Mark	ID#	Name	k'	Plate #	Plate Ht.	Tailing	Resolution	Sep.Factor	Area Ratio	Height Ratio	Conc. %	Norm Conc.
1	2.458	2.334	2.517	1495	434	3.443	0.000	   			0.000	17069	8.788	0.000	0.000	0.000	0	0	0.000	0.000
2	2.546	2.517	2.631	698	166	4.209	0.000	 V 			0.036	5077	29.547	0.000	0.807	0.000	0	0	0.000	0.000
3	2.700	2.645	2.759	489	95	5.130	0.000	   			0.098	2716	55.224	0.000	0.879	2.750	0	0	0.000	0.000
4	2.873	2.759	3.170	19360	4887	3.961	0.494	 V 	1	N2O	0.169	13112	11.440	1.660	1.121	1.712	0	0	100.000	100.000
5	3.276	3.195	3.386	6128	645	9.498	0.000	   	2	SF6	0.333	110	1369.207	0.000	0.597	1.973	0	0	0.000	0.000
6	3.426	3.386	3.995	9958	596	16.696	0.000	 V 	2	SF6	0.394	54	2777.004	0.000	0.096	1.184	0	0	0.000	0.000

[Compound Results(Ch1)]
# of IDs	6
ID#	Name	R.Time	Area	Height	Conc.	Curve	3rd	2nd	1st	Constant	Area Ratio	Height Ratio	Conc. %	Norm Conc.
1	CO	1.476	30493	14350	215.279	Linear	0.000000e+00	0.000000e+00	1.416423e+002	0.000000e+00	0	0	36.207	36.207
2	CH4	1.567	4936	2365	95.439	Linear	0.000000e+00	0.000000e+00	5.171738e+001	0.000000e+00	0	0	16.052	16.052
3	CO2	1.996	1131042	532598	283.861	Linear	0.000000e+00	0.000000e+00	3.984494e+003	0.000000e+00	0	0	47.742	47.742
4	Ethylene	0.000	0	0	0.000	Linear	0.000000e+00	0.000000e+00	0.000000e+00	0.000000e+00	0	0	0.000	0.000
5	Acetylene	0.000	0	0	0.000	Linear	0.000000e+00	0.000000e+00	0.000000e+00	0.000000e+00	0	0	0.000	0.000
6	Ethane	0.000	0	0	0.000	Linear	0.000000e+00	0.000000e+00	0.000000e+00	0.000000e+00	0	0	0.000	0.000

[Compound Results(Ch2)]
# of IDs	5
ID#	Name	R.Time	Area	Height	Conc.	Curve	3rd	2nd	1st	Constant	Area Ratio	Height Ratio	Conc. %	Norm Conc.
1	Hydrogen	0.000	0	0	0.000	Linear	0.000000e+00	0.000000e+00	0.000000e+00	0.000000e+00	0	0	0.000	0.000
2	Oxygen	0.000	0	0	0.000	Linear	0.000000e+00	0.000000e+00	0.000000e+00	0.000000e+00	0	0	0.000	0.000
3	Nitrogen	0.000	0	0	0.000	Linear	0.000000e+00	0.000000e+00	0.000000e+00	0.000000e+00	0	0	0.000	0.000
4	Methane	0.000	0	0	0.000	Linear	0.000000e+00	0.000000e+00	0.000000e+00	0.000000e+00	0	0	0.000	0.000
5	Carbon Monoxide	0.000	0	0	0.000	Linear	0.000000e+00	0.000000e+00	0.000000e+00	0.000000e+00	0	0	0.000	0.000

[Compound Results(Ch3)]
# of IDs	2
ID#	Name	R.Time	Area	Height	Conc.	Curve	3rd	2nd	1st	Constant	Area Ratio	Height Ratio	Conc. %	Norm Conc.
1	N2O	2.873	19360	4887	0.494	Linear	0.000000e+00	0.000000e+00	3.915173e+004	0.000000e+00	0	0	100.000	100.000
2	SF6	3.276	16086	1242	0.000	Linear	0.000000e+00	0.000000e+00	0.000000e+00	0.000000e+00	0	0	0.000	0.000

[Group Results(Ch1)]
# of Groups	0

[Group Results(Ch2)]
# of Groups	0

[Group Results(Ch3)]
# of Groups	0

[Chromatogram (Ch1)]
Interval(msec)	220
# of Points	1091
Start Time(min)	0.002
End Time(min)	3.998
R.Time (min)	Intensity
0.00167	17
0.00533	21
0.00900	23
0.01267	23
0.01633	23
0.02000	21
0.02367	20
0.02733	21
0.03100	23
0.03467	28
0.03833	34
0.04200	36
0.04567	32
0.04933	26
0.05300	20
0.05667	16
0.06033	14
0.06400	14
0.06767	18
0.07133	23
0.07500	27
0.07867	33
0.08233	39
0.08600	42
0.08967	46
0.09333	50
0.09700	49
0.10067	42
0.10433	30
0.10800	16
0.11167	-1
0.11533	-13
0.11900	-19
0.12267	-23
0.12633	-24
0.13000	-22
0.13367	-15
0.13733	-6
0.14100	1
0.14467	7
0.14833	9
0.15200	7
0.15567	5
0.15933	3
0.16300	3
0.16667	5
0.17033	8
0.17400	12
0.17767	17
0.18133	19
0.18500	17
0.18867	12
0.19233	10
0.19600	11
0.19967	15
0.20333	23
0.20700	30
0.21067	32
0.21433	31
0.21800	28
0.22167	27
0.22533	25
0.22900	22
0.23267	16
0.23633	8
0.24000	4
0.24367	3
0.24733	4
0.25100	3
0.25467	3
0.25833	4
0.26200	7
0.26567	9
0.26933	8
0.27300	6
0.27667	3
0.28033	-3
0.28400	-7
0.28767	-10
0.29133	-8
0.29500	-2
0.29867	3
0.30233	7
0.30600	13
0.30967	17
0.31333	17
0.31700	17
0.32067	20
0.32433	22
0.32800	23
0.33167	23
0.33533	23
0.33900	25
0.34267	26
0.34633	23
0.35000	22
0.35367	23
0.35733	25
0.36100	29
0.36467	35
0.36833	42
0.37200	49
0.37567	54
0.37933	57
0.38300	61
0.38667	62
0.39033	62
0.39400	61
0.39767	62
0.40133	62
0.40500	63
0.40867	64
0.41233	65
0.41600	67
0.41967	70
0.42333	76
0.42700	81
0.43067	85
0.43433	88
0.43800	92
0.44167	97
0.44533	103
0.44900	107
0.45267	103
0.45633	95
0.46000	89
0.46367	87
0.46733	85
0.47100	86
0.47467	93
0.47833	99
0.48200	97
0.48567	88
0.48933	72
0.49300	55
0.49667	41
0.50033	34
0.50400	29
0.50767	26
0.51133	24
0.51500	24
0.51867	28
0.52233	33
0.52600	33
0.52967	31
0.53333	32
0.53700	34
0.54067	32
0.54433	26
0.54800	19
0.55167	16
0.55533	14
0.55900	14
0.56267	15
0.56633	18
0.57000	20
0.57367	18
0.57733	15
0.58100	11
0.58467	7
0.58833	5
0.59200	7
0.59567	11
0.59933	16
0.60300	21
0.60667	23
0.61033	22
0.61400	15
0.61767	3
0.62133	-7
0.62500	-11
0.62867	-9
0.63233	-6
0.63600	-9
0.63967	-15
0.64333	-14
0.64700	-10
0.65067	-10
0.65433	-10
0.65800	-9
0.66167	-13
0.66533	-18
0.66900	-20
0.67267	-19
0.67633	-15
0.68000	-12
0.68367	-15
0.68733	-19
0.69100	-23
0.69467	-25
0.69833	-27
0.70200	-31
0.70567	-34
0.70933	-35
0.71300	-29
0.71667	-22
0.72033	-19
0.72400	-18
0.72767	-17
0.73133	-16
0.73500	-15
0.73867	-14
0.74233	-13
0.74600	-13
0.74967	-16
0.75333	-21
0.75700	-22
0.76067	-16
0.76433	-10
0.76800	-9
0.77167	-11
0.77533	-17
0.77900	-26
0.78267	-33
0.78633	-36
0.79000	-35
0.79367	-30
0.79733	-29
0.80100	-31
0.80467	-31
0.80833	-31
0.81200	-32
0.81567	-34
0.81933	-33
0.82300	-33
0.82667	-32
0.83033	-27
0.83400	-22
0.83767	-19
0.84133	-20
0.84500	-23
0.84867	-26
0.85233	-25
0.85600	-24
0.85967	-26
0.86333	-28
0.86700	-30
0.87067	-31
0.87433	-28
0.87800	-23
0.88167	-19
0.88533	-19
0.88900	-22
0.89267	-30
0.89633	-39
0.90000	-48
0.90367	-54
0.90733	-55
0.91100	-51
0.91467	-48
0.91833	-48
0.92200	-49
0.92567	-46
0.92933	-39
0.93300	-32
0.93667	-30
0.94033	-32
0.94400	-37
0.94767	-37
0.95133	-35
0.95500	-32
0.95867	-32
0.96233	-37
0.96600	-45
0.96967	-53
0.97333	-57
0.97700	-55
0.98067	-51
0.98433	-49
0.98800	-53
0.99167	-58
0.99533	-61
0.99900	-58
1.00267	-50
1.00633	-43
1.01000	-42
1.01367	-44
1.01733	-49
1.02100	-56
1.02467	-61
1.02833	-66
1.03200	-72
1.03567	-74
1.03933	-73
1.04300	-68
1.04667	-61
1.05033	-51
1.05400	-37
1.05767	-28
1.06133	-24
1.06500	-22
1.06867	-24
1.07233	-26
1.07600	-28
1.07967	-34
1.08333	-35
1.08700	-35
1.09067	-36
1.09433	-38
1.09800	-40
1.10167	-39
1.10533	-35
1.10900	-33
1.11267	-34
1.11633	-35
1.12000	-33
1.12367	-30
1.12733	-25
1.13100	-20
1.13467	-19
1.13833	-20
1.14200	-23
1.14567	-28
1.14933	-35
1.15300	-40
1.15667	-41
1.16033	-39
1.16400	-39
1.16767	-40
1.17133	-42
1.17500	-44
1.17867	-45
1.18233	-45
1.18600	-43
1.18967	-40
1.19333	-38
1.19700	-35
1.20067	-34
1.20433	-34
1.20800	-34
1.21167	-32
1.21533	-29
1.21900	-26
1.22267	-25
1.22633	-22
1.23000	-22
1.23367	-24
1.23733	-22
1.24100	-20
1.24467	-22
1.24833	-24
1.25200	-26
1.25567	-26
1.25933	-26
1.26300	-30
1.26667	-37
1.27033	-46
1.27400	-52
1.27767	-50
1.28133	-47
1.28500	-47
1.28867	-47
1.29233	-44
1.29600	-43
1.29967	-46
1.30333	-47
1.30700	-46
1.31067	-42
1.31433	-40
1.31800	-39
1.32167	-39
1.32533	-40
1.32900	-40
1.33267	-40
1.33633	-40
1.34000	-37
1.34367	-35
1.34733	-38
1.35100	-44
1.35467	-52
1.35833	-58
1.36200	-63
1.36567	-65
1.36933	-61
1.37300	-49
1.37667	-36
1.38033	-27
1.38400	-28
1.38767	-37
1.39133	-48
1.39500	-57
1.39867	-61
1.40233	-61
1.40600	-59
1.40967	-54
1.41333	-49
1.41700	-46
1.42067	-42
1.42433	-40
1.42800	-43
1.43167	-51
1.43533	-53
1.43900	-25
1.44267	84
1.44633	341
1.45000	949
1.45367	2340
1.45733	4642
1.46100	7402
1.46467	10031
1.46833	12164
1.47200	13629
1.47567	14304
1.47933	14068
1.48300	12916
1.48667	11066
1.49033	8909
1.49400	6824
1.49767	5047
1.50133	3653
1.50500	2612
1.50867	1861
1.51233	1330
1.51600	956
1.51967	694
1.52333	514
1.52700	392
1.53067	306
1.53433	250
1.53800	227
1.54167	266
1.54533	428
1.54900	744
1.55267	1163
1.55633	1586
1.56000	1943
1.56367	2199
1.56733	2332
1.57100	2314
1.57467	2128
1.57833	1806
1.58200	1423
1.58567	1056
1.58933	749
1.59300	515
1.59667	345
1.60033	230
1.60400	154
1.60767	104
1.61133	67
1.61500	34
1.61867	10
1.62233	-3
1.62600	-14
1.62967	-23
1.63333	-25
1.63700	-20
1.64067	-13
1.64433	-7
1.64800	-4
1.65167	-5
1.65533	-12
1.65900	-20
1.66267	-28
1.66633	-38
1.67000	-48
1.67367	-57
1.67733	-65
1.68100	-70
1.68467	-70
1.68833	-64
1.69200	-59
1.69567	-53
1.69933	-48
1.70300	-45
1.70667	-46
1.71033	-45
1.71400	-43
1.71767	-42
1.72133	-40
1.72500	-40
1.72867	-42
1.73233	-43
1.73600	-49
1.73967	-61
1.74333	-72
1.74700	-77
1.75067	-82
1.75433	-87
1.75800	-91
1.76167	-91
1.76533	-87
1.76900	-81
1.77267	-74
1.77633	-69
1.78000	-69
1.78367	-73
1.78733	-77
1.79100	-75
1.79467	-73
1.79833	-72
1.80200	-75
1.80567	-77
1.80933	-77
1.81300	-78
1.81667	-75
1.82033	-69
1.82400	-65
1.82767	-63
1.83133	-63
1.83500	-61
1.83867	-61
1.84233	-62
1.84600	-61
1.84967	-60
1.85333	-62
1.85700	-68
1.86067	-73
1.86433	-78
1.86800	-79
1.87167	-74
1.87533	-69
1.87900	-67
1.88267	-69
1.88633	-70
1.89000	-70
1.89367	-69
1.89733	-67
1.90100	-64
1.90467	-65
1.90833	-67
1.91200	-65
1.91567	-58
1.91933	-52
1.92300	-50
1.92667	-55
1.93033	-62
1.93400	-66
1.93767	-68
1.94133	-67
1.94500	-65
1.94867	-58
1.95233	-39
1.95600	61
1.95967	614
1.96333	3068
1.96700	11410
1.97067	33209
1.97433	77620
1.97800	149105
1.98167	242156
1.98533	342400
1.98900	432895
1.99267	499475
1.99633	532575
2.00000	527912
2.00367	487830
2.00733	421495
2.01100	342499
2.01467	264107
2.01833	195411
2.02200	140378
2.02567	99048
2.02933	69384
2.03300	48727
2.03667	34605
2.04033	25035
2.04400	18560
2.04767	14155
2.05133	11125
2.05500	9006
2.05867	7495
2.06233	6390
2.06600	5558
2.06967	4913
2.07333	4402
2.07700	3988
2.08067	3646
2.08433	3362
2.08800	3119
2.09167	2904
2.09533	2714
2.09900	2546
2.10267	2400
2.10633	2269
2.11000	2149
2.11367	2044
2.11733	1951
2.12100	1865
2.12467	1784
2.12833	1703
2.13200	1626
2.13567	1555
2.13933	1496
2.14300	1447
2.14667	1405
2.15033	1363
2.15400	1318
2.15767	1270
2.16133	1222
2.16500	1178
2.16867	1135
2.17233	1093
2.17600	1054
2.17967	1019
2.18333	988
2.18700	956
2.19067	925
2.19433	897
2.19800	874
2.20167	859
2.20533	845
2.20900	828
2.21267	809
2.21633	790
2.22000	771
2.22367	752
2.22733	734
2.23100	717
2.23467	701
2.23833	684
2.24200	669
2.24567	660
2.24933	653
2.25300	650
2.25667	645
2.26033	638
2.26400	626
2.26767	609
2.27133	590
2.27500	572
2.27867	558
2.28233	547
2.28600	537
2.28967	527
2.29333	516
2.29700	508
2.30067	501
2.30433	491
2.30800	480
2.31167	470
2.31533	458
2.31900	446
2.32267	438
2.32633	436
2.33000	435
2.33367	430
2.33733	423
2.34100	416
2.34467	410
2.34833	409
2.35200	411
2.35567	413
2.35933	412
2.36300	408
2.36667	402
2.37033	395
2.37400	389
2.37767	385
2.38133	382
2.38500	376
2.38867	369
2.39233	362
2.39600	356
2.39967	352
2.40333	353
2.40700	354
2.41067	352
2.41433	348
2.41800	343
2.42167	341
2.42533	343
2.42900	345
2.43267	343
2.43633	340
2.44000	338
2.44367	335
2.44733	330
2.45100	324
2.45467	318
2.45833	314
2.46200	315
2.46567	314
2.46933	313
2.47300	317
2.47667	325
2.48033	330
2.48400	329
2.48767	326
2.49133	323
2.49500	322
2.49867	324
2.50233	324
2.50600	321
2.50967	313
2.51333	306
2.51700	301
2.52067	299
2.52433	301
2.52800	302
2.53167	304
2.53533	306
2.53900	308
2.54267	308
2.54633	306
2.55000	301
2.55367	294
2.55733	291
2.56100	288
2.56467	284
2.56833	279
2.57200	276
2.57567	276
2.57933	278
2.58300	282
2.58667	288
2.59033	296
2.59400	301
2.59767	302
2.60133	302
2.60500	298
2.60867	290
2.61233	281
2.61600	273
2.61967	269
2.62333	265
2.62700	262
2.63067	262
2.63433	264
2.63800	266
2.64167	268
2.64533	270
2.64900	272
2.65267	273
2.65633	275
2.66000	280
2.66367	286
2.66733	283
2.67100	278
2.67467	274
2.67833	271
2.68200	269
2.68567	270
2.68933	272
2.69300	272
2.69667	272
2.70033	271
2.70400	272
2.70767	274
2.71133	275
2.71500	276
2.71867	276
2.72233	276
2.72600	280
2.72967	286
2.73333	293
2.73700	300
2.74067	303
2.74433	308
2.74800	313
2.75167	315
2.75533	314
2.75900	310
2.76267	304
2.76633	300
2.77000	299
2.77367	302
2.77733	309
2.78100	313
2.78467	313
2.78833	307
2.79200	297
2.79567	288
2.79933	281
2.80300	279
2.80667	280
2.81033	283
2.81400	284
2.81767	283
2.82133	280
2.82500	276
2.82867	278
2.83233	287
2.83600	296
2.83967	301
2.84333	301
2.84700	299
2.85067	299
2.85433	304
2.85800	312
2.86167	318
2.86533	319
2.86900	315
2.87267	311
2.87633	309
2.88000	308
2.88367	306
2.88733	304
2.89100	303
2.89467	304
2.89833	306
2.90200	308
2.90567	312
2.90933	318
2.91300	324
2.91667	328
2.92033	327
2.92400	325
2.92767	323
2.93133	323
2.93500	322
2.93867	322
2.94233	325
2.94600	331
2.94967	337
2.95333	344
2.95700	350
2.96067	351
2.96433	349
2.96800	345
2.97167	338
2.97533	331
2.97900	328
2.98267	325
2.98633	323
2.99000	326
2.99367	335
2.99733	345
3.00100	352
3.00467	352
3.00833	353
3.01200	352
3.01567	350
3.01933	348
3.02300	344
3.02667	339
3.03033	333
3.03400	327
3.03767	323
3.04133	319
3.04500	316
3.04867	314
3.05233	313
3.05600	311
3.05967	310
3.06333	311
3.06700	313
3.07067	311
3.07433	308
3.07800	307
3.08167	307
3.08533	308
3.08900	310
3.09267	315
3.09633	324
3.10000	334
3.10367	343
3.10733	351
3.11100	354
3.11467	351
3.11833	344
3.12200	333
3.12567	322
3.12933	315
3.13300	311
3.13667	308
3.14033	307
3.14400	306
3.14767	303
3.15133	302
3.15500	303
3.15867	306
3.16233	315
3.16600	326
3.16967	335
3.17333	340
3.17700	340
3.18067	336
3.18433	332
3.18800	329
3.19167	327
3.19533	328
3.19900	332
3.20267	337
3.20633	340
3.21000	340
3.21367	335
3.21733	330
3.22100	328
3.22467	330
3.22833	332
3.23200	328
3.23567	319
3.23933	315
3.24300	320
3.24667	333
3.25033	341
3.25400	342
3.25767	336
3.26133	326
3.26500	321
3.26867	323
3.27233	329
3.27600	335
3.27967	340
3.28333	344
3.28700	343
3.29067	339
3.29433	337
3.29800	337
3.30167	341
3.30533	344
3.30900	344
3.31267	342
3.31633	341
3.32000	342
3.32367	343
3.32733	343
3.33100	342
3.33467	340
3.33833	340
3.34200	344
3.34567	347
3.34933	347
3.35300	345
3.35667	340
3.36033	330
3.36400	318
3.36767	308
3.37133	303
3.37500	300
3.37867	297
3.38233	296
3.38600	297
3.38967	301
3.39333	303
3.39700	306
3.40067	312
3.40433	317
3.40800	321
3.41167	320
3.41533	317
3.41900	312
3.42267	308
3.42633	307
3.43000	307
3.43367	311
3.43733	319
3.44100	327
3.44467	328
3.44833	327
3.45200	326
3.45567	323
3.45933	318
3.46300	314
3.46667	314
3.47033	315
3.47400	314
3.47767	312
3.48133	310
3.48500	311
3.48867	314
3.49233	312
3.49600	307
3.49967	303
3.50333	302
3.50700	304
3.51067	304
3.51433	304
3.51800	308
3.52167	313
3.52533	319
3.52900	322
3.53267	318
3.53633	306
3.54000	293
3.54367	283
3.54733	281
3.55100	283
3.55467	286
3.55833	290
3.56200	295
3.56567	297
3.56933	298
3.57300	301
3.57667	308
3.58033	314
3.58400	317
3.58767	319
3.59133	321
3.59500	324
3.59867	325
3.60233	319
3.60600	308
3.60967	302
3.61333	303
3.61700	308
3.62067	311
3.62433	313
3.62800	307
3.63167	297
3.63533	288
3.63900	283
3.64267	283
3.64633	286
3.65000	289
3.65367	291
3.65733	291
3.66100	288
3.66467	280
3.66833	271
3.67200	267
3.67567	270
3.67933	276
3.68300	285
3.68667	292
3.69033	291
3.69400	284
3.69767	277
3.70133	270
3.70500	265
3.70867	259
3.71233	260
3.71600	269
3.71967	283
3.72333	294
3.72700	298
3.73067	295
3.73433	286
3.73800	274
3.74167	264
3.74533	253
3.74900	243
3.75267	240
3.75633	248
3.76000	258
3.76367	264
3.76733	265
3.77100	264
3.77467	261
3.77833	258
3.78200	257
3.78567	257
3.78933	259
3.79300	261
3.79667	262
3.80033	263
3.80400	264
3.80767	261
3.81133	257
3.81500	256
3.81867	254
3.82233	251
3.82600	249
3.82967	247
3.83333	248
3.83700	253
3.84067	260
3.84433	265
3.84800	272
3.85167	278
3.85533	277
3.85900	270
3.86267	262
3.86633	257
3.87000	255
3.87367	252
3.87733	252
3.88100	256
3.88467	259
3.88833	260
3.89200	258
3.89567	255
3.89933	252
3.90300	250
3.90667	248
3.91033	246
3.91400	245
3.91767	246
3.92133	250
3.92500	253
3.92867	255
3.93233	257
3.93600	260
3.93967	262
3.94333	258
3.94700	249
3.95067	241
3.95433	237
3.95800	237
3.96167	239
3.96533	242
3.96900	243
3.97267	244
3.97633	241
3.98000	236
3.98367	234
3.98733	235
3.99100	237
3.99467	240
3.99833	245

[Chromatogram (Ch2)]
Interval(msec)	220
# of Points	1091
Start Time(min)	0.002
End Time(min)	3.998
R.Time (min)	Intensity
0.00167	-0
0.00533	-0
0.00900	-0
0.01267	0
0.01633	0
0.02000	0
0.02367	0
0.02733	0
0.03100	1
0.03467	1
0.03833	1
0.04200	1
0.04567	1
0.04933	1
0.05300	1
0.05667	1
0.06033	1
0.06400	2
0.06767	2
0.07133	2
0.07500	2
0.07867	2
0.08233	1
0.08600	1
0.08967	1
0.09333	1
0.09700	1
0.10067	2
0.10433	2
0.10800	3
0.11167	3
0.11533	3
0.11900	4
0.12267	4
0.12633	4
0.13000	4
0.13367	4
0.13733	4
0.14100	4
0.14467	4
0.14833	4
0.15200	3
0.15567	3
0.15933	2
0.16300	2
0.16667	1
0.17033	1
0.17400	1
0.17767	1
0.18133	0
0.18500	0
0.18867	0
0.19233	0
0.19600	0
0.19967	1
0.20333	1
0.20700	1
0.21067	1
0.21433	1
0.21800	2
0.22167	2
0.22533	2
0.22900	3
0.23267	3
0.23633	4
0.24000	4
0.24367	4
0.24733	4
0.25100	4
0.25467	3
0.25833	3
0.26200	2
0.26567	1
0.26933	1
0.27300	1
0.27667	0
0.28033	0
0.28400	-0
0.28767	-0
0.29133	0
0.29500	0
0.29867	1
0.30233	1
0.30600	2
0.30967	2
0.31333	2
0.31700	3
0.32067	3
0.32433	3
0.32800	3
0.33167	3
0.33533	3
0.33900	3
0.34267	2
0.34633	2
0.35000	2
0.35367	1
0.35733	1
0.36100	1
0.36467	1
0.36833	1
0.37200	1
0.37567	1
0.37933	1
0.38300	1
0.38667	1
0.39033	1
0.39400	1
0.39767	1
0.40133	1
0.40500	0
0.40867	0
0.41233	0
0.41600	-0
0.41967	-0
0.42333	-1
0.42700	-1
0.43067	-1
0.43433	-1
0.43800	-1
0.44167	-1
0.44533	-1
0.44900	-1
0.45267	-2
0.45633	-1
0.46000	-1
0.46367	-1
0.46733	-1
0.47100	-1
0.47467	-1
0.47833	-1
0.48200	-1
0.48567	-1
0.48933	-1
0.49300	-1
0.49667	-1
0.50033	-0
0.50400	-0
0.50767	0
0.51133	1
0.51500	1
0.51867	1
0.52233	2
0.52600	2
0.52967	2
0.53333	2
0.53700	2
0.54067	2
0.54433	2
0.54800	2
0.55167	1
0.55533	1
0.55900	1
0.56267	1
0.56633	1
0.57000	1
0.57367	1
0.57733	1
0.58100	1
0.58467	1
0.58833	1
0.59200	1
0.59567	1
0.59933	1
0.60300	1
0.60667	1
0.61033	1
0.61400	1
0.61767	-0
0.62133	-1
0.62500	-1
0.62867	-2
0.63233	-2
0.63600	-2
0.63967	-2
0.64333	-2
0.64700	-2
0.65067	-2
0.65433	-2
0.65800	-2
0.66167	-2
0.66533	-2
0.66900	-2
0.67267	-2
0.67633	-2
0.68000	-2
0.68367	-2
0.68733	-1
0.69100	-1
0.69467	-1
0.69833	-1
0.70200	-0
0.70567	0
0.70933	1
0.71300	1
0.71667	2
0.72033	2
0.72400	3
0.72767	3
0.73133	4
0.73500	4
0.73867	4
0.74233	4
0.74600	4
0.74967	4
0.75333	4
0.75700	4
0.76067	4
0.76433	4
0.76800	4
0.77167	4
0.77533	3
0.77900	3
0.78267	2
0.78633	1
0.79000	1
0.79367	1
0.79733	1
0.80100	0
0.80467	0
0.80833	0
0.81200	0
0.81567	0
0.81933	0
0.82300	1
0.82667	1
0.83033	1
0.83400	1
0.83767	1
0.84133	1
0.84500	1
0.84867	1
0.85233	1
0.85600	1
0.85967	1
0.86333	0
0.86700	0
0.87067	0
0.87433	0
0.87800	-0
0.88167	0
0.88533	0
0.88900	0
0.89267	0
0.89633	1
0.90000	1
0.90367	0
0.90733	0
0.91100	-0
0.91467	-1
0.91833	-1
0.92200	-1
0.92567	-2
0.92933	-2
0.93300	-2
0.93667	-2
0.94033	-2
0.94400	-1
0.94767	-1
0.95133	-1
0.95500	-1
0.95867	-0
0.96233	0
0.96600	1
0.96967	1
0.97333	1
0.97700	1
0.98067	0
0.98433	-0
0.98800	-1
0.99167	-1
0.99533	-1
0.99900	-1
1.00267	-1
1.00633	-1
1.01000	-1
1.01367	-2
1.01733	-2
1.02100	-2
1.02467	-2
1.02833	-2
1.03200	-2
1.03567	-2
1.03933	-2
1.04300	-2
1.04667	-2
1.05033	-2
1.05400	-2
1.05767	-2
1.06133	-2
1.06500	-2
1.06867	-2
1.07233	-2
1.07600	-2
1.07967	-1
1.08333	-1
1.08700	-1
1.09067	-0
1.09433	-0
1.09800	-0
1.10167	-1
1.10533	-1
1.10900	-1
1.11267	-1
1.11633	-0
1.12000	0
1.12367	0
1.12733	1
1.13100	1
1.13467	1
1.13833	1
1.14200	1
1.14567	1
1.14933	1
1.15300	1
1.15667	1
1.16033	1
1.16400	1
1.16767	1
1.17133	1
1.17500	1
1.17867	2
1.18233	2
1.18600	2
1.18967	2
1.19333	2
1.19700	2
1.20067	2
1.20433	2
1.20800	2
1.21167	2
1.21533	2
1.21900	2
1.22267	2
1.22633	2
1.23000	2
1.23367	2
1.23733	2
1.24100	2
1.24467	3
1.24833	3
1.25200	3
1.25567	3
1.25933	4
1.26300	4
1.26667	4
1.27033	4
1.27400	4
1.27767	4
1.28133	3
1.28500	3
1.28867	3
1.29233	2
1.29600	2
1.29967	2
1.30333	2
1.30700	2
1.31067	2
1.31433	2
1.31800	2
1.32167	1
1.32533	1
1.32900	0
1.33267	-0
1.33633	-0
1.34000	-0
1.34367	-0
1.34733	-0
1.35100	-0
1.35467	-1
1.35833	-1
1.36200	-1
1.36567	-1
1.36933	-2
1.37300	-2
1.37667	-2
1.38033	-2
1.38400	-2
1.38767	-2
1.39133	-2
1.39500	-2
1.39867	-2
1.40233	-2
1.40600	-1
1.40967	-1
1.41333	-1
1.41700	-1
1.42067	-1
1.42433	-1
1.42800	-1
1.43167	-1
1.43533	-1
1.43900	-1
1.44267	-1
1.44633	-1
1.45000	-1
1.45367	-2
1.45733	-2
1.46100	-2
1.46467	-2
1.46833	-3
1.47200	-3
1.47567	-3
1.47933	-3
1.48300	-3
1.48667	-3
1.49033	-3
1.49400	-2
1.49767	-2
1.50133	-1
1.50500	-1
1.50867	-0
1.51233	0
1.51600	0
1.51967	1
1.52333	1
1.52700	1
1.53067	1
1.53433	1
1.53800	1
1.54167	1
1.54533	1
1.54900	1
1.55267	2
1.55633	2
1.56000	2
1.56367	2
1.56733	2
1.57100	3
1.57467	3
1.57833	3
1.58200	3
1.58567	3
1.58933	3
1.59300	2
1.59667	2
1.60033	1
1.60400	0
1.60767	-1
1.61133	-3
1.61500	-5
1.61867	-7
1.62233	-11
1.62600	-14
1.62967	-18
1.63333	-22
1.63700	-26
1.64067	-30
1.64433	-34
1.64800	-38
1.65167	-42
1.65533	-46
1.65900	-51
1.66267	-55
1.66633	-60
1.67000	-65
1.67367	-70
1.67733	-76
1.68100	-81
1.68467	-86
1.68833	-90
1.69200	-94
1.69567	-97
1.69933	-100
1.70300	-103
1.70667	-105
1.71033	-106
1.71400	-107
1.71767	-108
1.72133	-109
1.72500	-109
1.72867	-109
1.73233	-109
1.73600	-109
1.73967	-109
1.74333	-108
1.74700	-108
1.75067	-108
1.75433	-108
1.75800	-108
1.76167	-109
1.76533	-110
1.76900	-111
1.77267	-113
1.77633	-114
1.78000	-115
1.78367	-115
1.78733	-116
1.79100	-116
1.79467	-117
1.79833	-117
1.80200	-118
1.80567	-118
1.80933	-117
1.81300	-117
1.81667	-116
1.82033	-115
1.82400	-114
1.82767	-114
1.83133	-113
1.83500	-113
1.83867	-113
1.84233	-113
1.84600	-114
1.84967	-114
1.85333	-115
1.85700	-116
1.86067	-116
1.86433	-116
1.86800	-117
1.87167	-117
1.87533	-117
1.87900	-117
1.88267	-117
1.88633	-116
1.89000	-116
1.89367	-116
1.89733	-115
1.90100	-115
1.90467	-115
1.90833	-115
1.91200	-115
1.91567	-116
1.91933	-116
1.92300	-115
1.92667	-115
1.93033	-114
1.93400	-114
1.93767	-114
1.94133	-113
1.94500	-113
1.94867	-113
1.95233	-112
1.95600	-112
1.95967	-111
1.96333	-111
1.96700	-111
1.97067	-112
1.97433	-112
1.97800	-112
1.98167	-111
1.98533	-111
1.98900	-110
1.99267	-109
1.99633	-109
2.00000	-109
2.00367	-109
2.00733	-109
2.01100	-108
2.01467	-108
2.01833	-107
2.02200	-106
2.02567	-106
2.02933	-105
2.03300	-105
2.03667	-105
2.04033	-105
2.04400	-105
2.04767	-105
2.05133	-106
2.05500	-106
2.05867	-106
2.06233	-106
2.06600	-105
2.06967	-105
2.07333	-104
2.07700	-104
2.08067	-103
2.08433	-103
2.08800	-103
2.09167	-103
2.09533	-104
2.09900	-103
2.10267	-103
2.10633	-102
2.11000	-101
2.11367	-100
2.11733	-99
2.12100	-98
2.12467	-97
2.12833	-96
2.13200	-96
2.13567	-96
2.13933	-96
2.14300	-96
2.14667	-96
2.15033	-95
2.15400	-95
2.15767	-95
2.16133	-94
2.16500	-94
2.16867	-94
2.17233	-94
2.17600	-94
2.17967	-94
2.18333	-94
2.18700	-94
2.19067	-95
2.19433	-95
2.19800	-94
2.20167	-94
2.20533	-94
2.20900	-93
2.21267	-93
2.21633	-92
2.22000	-92
2.22367	-92
2.22733	-91
2.23100	-91
2.23467	-91
2.23833	-90
2.24200	-90
2.24567	-89
2.24933	-88
2.25300	-88
2.25667	-87
2.26033	-87
2.26400	-87
2.26767	-87
2.27133	-87
2.27500	-87
2.27867	-88
2.28233	-88
2.28600	-88
2.28967	-87
2.29333	-87
2.29700	-87
2.30067	-86
2.30433	-86
2.30800	-85
2.31167	-84
2.31533	-84
2.31900	-84
2.32267	-83
2.32633	-82
2.33000	-81
2.33367	-80
2.33733	-79
2.34100	-78
2.34467	-77
2.34833	-77
2.35200	-76
2.35567	-76
2.35933	-76
2.36300	-75
2.36667	-74
2.37033	-73
2.37400	-70
2.37767	-67
2.38133	-64
2.38500	-60
2.38867	-56
2.39233	-52
2.39600	-47
2.39967	-43
2.40333	-39
2.40700	-35
2.41067	-31
2.41433	-28
2.41800	-25
2.42167	-23
2.42533	-21
2.42900	-19
2.43267	-18
2.43633	-16
2.44000	-14
2.44367	-12
2.44733	-10
2.45100	-9
2.45467	-7
2.45833	-5
2.46200	-4
2.46567	-3
2.46933	-1
2.47300	0
2.47667	2
2.48033	2
2.48400	3
2.48767	4
2.49133	4
2.49500	5
2.49867	6
2.50233	7
2.50600	7
2.50967	8
2.51333	8
2.51700	9
2.52067	10
2.52433	10
2.52800	11
2.53167	11
2.53533	12
2.53900	12
2.54267	12
2.54633	12
2.55000	12
2.55367	13
2.55733	13
2.56100	13
2.56467	14
2.56833	15
2.57200	16
2.57567	16
2.57933	17
2.58300	17
2.58667	17
2.59033	17
2.59400	17
2.59767	17
2.60133	17
2.60500	18
2.60867	18
2.61233	18
2.61600	18
2.61967	18
2.62333	19
2.62700	19
2.63067	19
2.63433	19
2.63800	19
2.64167	20
2.64533	20
2.64900	20
2.65267	21
2.65633	21
2.66000	21
2.66367	21
2.66733	21
2.67100	21
2.67467	21
2.67833	20
2.68200	21
2.68567	21
2.68933	22
2.69300	22
2.69667	23
2.70033	23
2.70400	24
2.70767	25
2.71133	25
2.71500	26
2.71867	27
2.72233	27
2.72600	27
2.72967	27
2.73333	27
2.73700	26
2.74067	26
2.74433	25
2.74800	25
2.75167	24
2.75533	24
2.75900	24
2.76267	24
2.76633	24
2.77000	24
2.77367	24
2.77733	25
2.78100	25
2.78467	25
2.78833	25
2.79200	26
2.79567	26
2.79933	26
2.80300	27
2.80667	27
2.81033	28
2.81400	28
2.81767	28
2.82133	28
2.82500	28
2.82867	28
2.83233	28
2.83600	27
2.83967	25
2.84333	21
2.84700	16
2.85067	8
2.85433	-3
2.85800	-18
2.86167	-37
2.86533	-60
2.86900	-87
2.87267	-118
2.87633	-153
2.88000	-193
2.88367	-235
2.88733	-281
2.89100	-330
2.89467	-380
2.89833	-432
2.90200	-486
2.90567	-540
2.90933	-594
2.91300	-648
2.91667	-702
2.92033	-755
2.92400	-807
2.92767	-859
2.93133	-914
2.93500	-973
2.93867	-1032
2.94233	-1081
2.94600	-1109
2.94967	-1111
2.95333	-1088
2.95700	-1042
2.96067	-979
2.96433	-905
2.96800	-825
2.97167	-743
2.97533	-663
2.97900	-587
2.98267	-515
2.98633	-449
2.99000	-389
2.99367	-336
2.99733	-289
3.00100	-247
3.00467	-211
3.00833	-179
3.01200	-151
3.01567	-128
3.01933	-107
3.02300	-90
3.02667	-75
3.03033	-62
3.03400	-51
3.03767	-41
3.04133	-33
3.04500	-26
3.04867	-20
3.05233	-15
3.05600	-10
3.05967	-6
3.06333	-3
3.06700	0
3.07067	3
3.07433	5
3.07800	7
3.08167	9
3.08533	10
3.08900	12
3.09267	13
3.09633	14
3.10000	15
3.10367	15
3.10733	16
3.11100	17
3.11467	17
3.11833	18
3.12200	18
3.12567	19
3.12933	19
3.13300	19
3.13667	19
3.14033	19
3.14400	19
3.14767	19
3.15133	19
3.15500	19
3.15867	19
3.16233	19
3.16600	19
3.16967	20
3.17333	20
3.17700	20
3.18067	19
3.18433	19
3.18800	20
3.19167	20
3.19533	21
3.19900	22
3.20267	22
3.20633	23
3.21000	24
3.21367	24
3.21733	25
3.22100	25
3.22467	25
3.22833	26
3.23200	26
3.23567	26
3.23933	26
3.24300	27
3.24667	27
3.25033	27
3.25400	28
3.25767	28
3.26133	28
3.26500	28
3.26867	28
3.27233	28
3.27600	28
3.27967	28
3.28333	28
3.28700	28
3.29067	28
3.29433	29
3.29800	29
3.30167	29
3.30533	29
3.30900	28
3.31267	28
3.31633	28
3.32000	28
3.32367	28
3.32733	28
3.33100	29
3.33467	29
3.33833	29
3.34200	29
3.34567	29
3.34933	29
3.35300	29
3.35667	29
3.36033	29
3.36400	29
3.36767	29
3.37133	29
3.37500	29
3.37867	29
3.38233	29
3.38600	29
3.38967	29
3.39333	29
3.39700	29
3.40067	29
3.40433	29
3.40800	29
3.41167	29
3.41533	29
3.41900	29
3.42267	29
3.42633	29
3.43000	29
3.43367	29
3.43733	29
3.44100	29
3.44467	29
3.44833	29
3.45200	29
3.45567	29
3.45933	29
3.46300	29
3.46667	29
3.47033	29
3.47400	29
3.47767	28
3.48133	28
3.48500	27
3.48867	27
3.49233	27
3.49600	27
3.49967	27
3.50333	27
3.50700	27
3.51067	27
3.51433	27
3.51800	27
3.52167	27
3.52533	27
3.52900	27
3.53267	27
3.53633	27
3.54000	27
3.54367	27
3.54733	27
3.55100	28
3.55467	28
3.55833	28
3.56200	28
3.56567	28
3.56933	28
3.57300	28
3.57667	28
3.58033	28
3.58400	27
3.58767	27
3.59133	27
3.59500	27
3.59867	27
3.60233	26
3.60600	26
3.60967	26
3.61333	26
3.61700	26
3.62067	26
3.62433	27
3.62800	27
3.63167	27
3.63533	27
3.63900	26
3.64267	26
3.64633	26
3.65000	26
3.65367	26
3.65733	26
3.66100	26
3.66467	27
3.66833	27
3.67200	27
3.67567	27
3.67933	27
3.68300	27
3.68667	27
3.69033	27
3.69400	27
3.69767	27
3.70133	27
3.70500	27
3.70867	26
3.71233	26
3.71600	26
3.71967	27
3.72333	27
3.72700	27
3.73067	27
3.73433	27
3.73800	27
3.74167	27
3.74533	27
3.74900	27
3.75267	27
3.75633	27
3.76000	27
3.76367	27
3.76733	27
3.77100	27
3.77467	26
3.77833	26
3.78200	26
3.78567	26
3.78933	26
3.79300	26
3.79667	26
3.80033	27
3.80400	27
3.80767	27
3.81133	27
3.81500	27
3.81867	27
3.82233	27
3.82600	28
3.82967	28
3.83333	28
3.83700	28
3.84067	28
3.84433	27
3.84800	27
3.85167	27
3.85533	28
3.85900	28
3.86267	28
3.86633	28
3.87000	28
3.87367	28
3.87733	27
3.88100	27
3.88467	27
3.88833	27
3.89200	27
3.89567	27
3.89933	27
3.90300	28
3.90667	28
3.91033	28
3.91400	28
3.91767	29
3.92133	29
3.92500	29
3.92867	29
3.93233	30
3.93600	30
3.93967	30
3.94333	30
3.94700	30
3.95067	30
3.95433	30
3.95800	30
3.96167	30
3.96533	30
3.96900	31
3.97267	31
3.97633	31
3.98000	30
3.98367	30
3.98733	30
3.99100	30
3.99467	30
3.99833	29

[Chromatogram (Ch3)]
Interval(msec)	220
# of Points	1091
Start Time(min)	0.002
End Time(min)	3.998
R.Time (min)	Intensity
0.00167	-1
0.00533	-2
0.00900	-1
0.01267	1
0.01633	3
0.02000	3
0.02367	2
0.02733	0
0.03100	-3
0.03467	-3
0.03833	-2
0.04200	-3
0.04567	-4
0.04933	-4
0.05300	-6
0.05667	-6
0.06033	-5
0.06400	-6
0.06767	-8
0.07133	-8
0.07500	-9
0.07867	-9
0.08233	-8
0.08600	-5
0.08967	-3
0.09333	-4
0.09700	-5
0.10067	-4
0.10433	-5
0.10800	-7
0.11167	-9
0.11533	-11
0.11900	-12
0.12267	-10
0.12633	-7
0.13000	-6
0.13367	-4
0.13733	-5
0.14100	-7
0.14467	-10
0.14833	-11
0.15200	-11
0.15567	-10
0.15933	-10
0.16300	-11
0.16667	-12
0.17033	-13
0.17400	-12
0.17767	-11
0.18133	-11
0.18500	-12
0.18867	-12
0.19233	-12
0.19600	-11
0.19967	-11
0.20333	-12
0.20700	-14
0.21067	-15
0.21433	-16
0.21800	-15
0.22167	-17
0.22533	-19
0.22900	-18
0.23267	-18
0.23633	-16
0.24000	-15
0.24367	-15
0.24733	-16
0.25100	-16
0.25467	-13
0.25833	-10
0.26200	-9
0.26567	-10
0.26933	-11
0.27300	-12
0.27667	-13
0.28033	-12
0.28400	-15
0.28767	-18
0.29133	-20
0.29500	-20
0.29867	-21
0.30233	-20
0.30600	-18
0.30967	-18
0.31333	-16
0.31700	-15
0.32067	-16
0.32433	-17
0.32800	-18
0.33167	-19
0.33533	-18
0.33900	-19
0.34267	-21
0.34633	-22
0.35000	-22
0.35367	-21
0.35733	-20
0.36100	-22
0.36467	-23
0.36833	-24
0.37200	-24
0.37567	-24
0.37933	-24
0.38300	-23
0.38667	-22
0.39033	-21
0.39400	-19
0.39767	-19
0.40133	-20
0.40500	-21
0.40867	-22
0.41233	-19
0.41600	-18
0.41967	-18
0.42333	-20
0.42700	-22
0.43067	-23
0.43433	-23
0.43800	-23
0.44167	-23
0.44533	-24
0.44900	-25
0.45267	-25
0.45633	-25
0.46000	-24
0.46367	-23
0.46733	-22
0.47100	-22
0.47467	-23
0.47833	-24
0.48200	-26
0.48567	-26
0.48933	-25
0.49300	-25
0.49667	-27
0.50033	-27
0.50400	-27
0.50767	-29
0.51133	-29
0.51500	-29
0.51867	-31
0.52233	-32
0.52600	-31
0.52967	-32
0.53333	-33
0.53700	-33
0.54067	-30
0.54433	-27
0.54800	-27
0.55167	-29
0.55533	-30
0.55900	-30
0.56267	-28
0.56633	-27
0.57000	-26
0.57367	-26
0.57733	-27
0.58100	-28
0.58467	-29
0.58833	-29
0.59200	-28
0.59567	-26
0.59933	-25
0.60300	-26
0.60667	-27
0.61033	-27
0.61400	-28
0.61767	-27
0.62133	-26
0.62500	-25
0.62867	-23
0.63233	-22
0.63600	-24
0.63967	-26
0.64333	-29
0.64700	-29
0.65067	-29
0.65433	-25
0.65800	-22
0.66167	-21
0.66533	-23
0.66900	-24
0.67267	-24
0.67633	-24
0.68000	-24
0.68367	-24
0.68733	-24
0.69100	-25
0.69467	-25
0.69833	-25
0.70200	-23
0.70567	-23
0.70933	-23
0.71300	-21
0.71667	-21
0.72033	-24
0.72400	-27
0.72767	-27
0.73133	-26
0.73500	-25
0.73867	-24
0.74233	-22
0.74600	-22
0.74967	-22
0.75333	-25
0.75700	-28
0.76067	-29
0.76433	-28
0.76800	-27
0.77167	-23
0.77533	-22
0.77900	-23
0.78267	-23
0.78633	-21
0.79000	-20
0.79367	-21
0.79733	-22
0.80100	-22
0.80467	-23
0.80833	-23
0.81200	-24
0.81567	-25
0.81933	-26
0.82300	-25
0.82667	-26
0.83033	-24
0.83400	-22
0.83767	-19
0.84133	-18
0.84500	-18
0.84867	-19
0.85233	-17
0.85600	-15
0.85967	-16
0.86333	-18
0.86700	-19
0.87067	-18
0.87433	-18
0.87800	-18
0.88167	-16
0.88533	-15
0.88900	-15
0.89267	-17
0.89633	-18
0.90000	-19
0.90367	-20
0.90733	-18
0.91100	-16
0.91467	-15
0.91833	-15
0.92200	-14
0.92567	-15
0.92933	-15
0.93300	-13
0.93667	-12
0.94033	-12
0.94400	-12
0.94767	-12
0.95133	-12
0.95500	-10
0.95867	-8
0.96233	-9
0.96600	-9
0.96967	-9
0.97333	-9
0.97700	-9
0.98067	-9
0.98433	-10
0.98800	-11
0.99167	-12
0.99533	-13
0.99900	-11
1.00267	-11
1.00633	-12
1.01000	-12
1.01367	-12
1.01733	-12
1.02100	-13
1.02467	-14
1.02833	-16
1.03200	-19
1.03567	-20
1.03933	-17
1.04300	-13
1.04667	-11
1.05033	-9
1.05400	-8
1.05767	-8
1.06133	-9
1.06500	-8
1.06867	-7
1.07233	-6
1.07600	-4
1.07967	-4
1.08333	-6
1.08700	-9
1.09067	-9
1.09433	-8
1.09800	-8
1.10167	-8
1.10533	-9
1.10900	-9
1.11267	-9
1.11633	-9
1.12000	-8
1.12367	-6
1.12733	-6
1.13100	-5
1.13467	-3
1.13833	-4
1.14200	-7
1.14567	-7
1.14933	-7
1.15300	-7
1.15667	-9
1.16033	-10
1.16400	-12
1.16767	-9
1.17133	-7
1.17500	-7
1.17867	-7
1.18233	-7
1.18600	-6
1.18967	-4
1.19333	-6
1.19700	-7
1.20067	-8
1.20433	-8
1.20800	-9
1.21167	-11
1.21533	-10
1.21900	-9
1.22267	-9
1.22633	-9
1.23000	-9
1.23367	-8
1.23733	-5
1.24100	-5
1.24467	-3
1.24833	-2
1.25200	-1
1.25567	-1
1.25933	-3
1.26300	-5
1.26667	-7
1.27033	-6
1.27400	-6
1.27767	-6
1.28133	-5
1.28500	-4
1.28867	-3
1.29233	-1
1.29600	-1
1.29967	-2
1.30333	-0
1.30700	2
1.31067	0
1.31433	-2
1.31800	-3
1.32167	-2
1.32533	-0
1.32900	0
1.33267	-1
1.33633	-0
1.34000	2
1.34367	1
1.34733	-0
1.35100	0
1.35467	1
1.35833	3
1.36200	5
1.36567	6
1.36933	8
1.37300	9
1.37667	8
1.38033	7
1.38400	6
1.38767	5
1.39133	4
1.39500	3
1.39867	2
1.40233	-1
1.40600	-1
1.40967	-0
1.41333	0
1.41700	-0
1.42067	1
1.42433	3
1.42800	4
1.43167	5
1.43533	4
1.43900	4
1.44267	3
1.44633	5
1.45000	6
1.45367	6
1.45733	7
1.46100	7
1.46467	5
1.46833	1
1.47200	-2
1.47567	-2
1.47933	-0
1.48300	2
1.48667	3
1.49033	2
1.49400	3
1.49767	2
1.50133	3
1.50500	5
1.50867	7
1.51233	6
1.51600	6
1.51967	4
1.52333	2
1.52700	1
1.53067	1
1.53433	1
1.53800	2
1.54167	3
1.54533	2
1.54900	3
1.55267	4
1.55633	6
1.56000	6
1.56367	5
1.56733	5
1.57100	6
1.57467	6
1.57833	6
1.58200	5
1.58567	4
1.58933	4
1.59300	5
1.59667	4
1.60033	4
1.60400	4
1.60767	5
1.61133	5
1.61500	6
1.61867	6
1.62233	5
1.62600	4
1.62967	6
1.63333	10
1.63700	12
1.64067	13
1.64433	13
1.64800	14
1.65167	15
1.65533	13
1.65900	10
1.66267	9
1.66633	9
1.67000	9
1.67367	12
1.67733	14
1.68100	14
1.68467	14
1.68833	15
1.69200	16
1.69567	17
1.69933	17
1.70300	17
1.70667	16
1.71033	15
1.71400	17
1.71767	20
1.72133	19
1.72500	17
1.72867	16
1.73233	16
1.73600	17
1.73967	20
1.74333	24
1.74700	25
1.75067	24
1.75433	23
1.75800	23
1.76167	23
1.76533	24
1.76900	26
1.77267	26
1.77633	26
1.78000	28
1.78367	31
1.78733	32
1.79100	32
1.79467	32
1.79833	32
1.80200	33
1.80567	35
1.80933	31
1.81300	30
1.81667	29
1.82033	28
1.82400	26
1.82767	26
1.83133	29
1.83500	32
1.83867	33
1.84233	35
1.84600	37
1.84967	36
1.85333	36
1.85700	35
1.86067	36
1.86433	37
1.86800	36
1.87167	33
1.87533	33
1.87900	35
1.88267	37
1.88633	37
1.89000	37
1.89367	37
1.89733	38
1.90100	38
1.90467	40
1.90833	41
1.91200	43
1.91567	43
1.91933	44
1.92300	45
1.92667	50
1.93033	52
1.93400	53
1.93767	53
1.94133	54
1.94500	56
1.94867	59
1.95233	59
1.95600	57
1.95967	54
1.96333	53
1.96700	53
1.97067	53
1.97433	54
1.97800	55
1.98167	54
1.98533	54
1.98900	54
1.99267	54
1.99633	55
2.00000	56
2.00367	58
2.00733	60
2.01100	62
2.01467	66
2.01833	69
2.02200	72
2.02567	73
2.02933	72
2.03300	71
2.03667	71
2.04033	71
2.04400	71
2.04767	71
2.05133	72
2.05500	72
2.05867	74
2.06233	77
2.06600	80
2.06967	82
2.07333	82
2.07700	84
2.08067	85
2.08433	82
2.08800	79
2.09167	76
2.09533	76
2.09900	79
2.10267	81
2.10633	82
2.11000	83
2.11367	84
2.11733	85
2.12100	87
2.12467	88
2.12833	90
2.13200	92
2.13567	91
2.13933	90
2.14300	91
2.14667	91
2.15033	92
2.15400	95
2.15767	98
2.16133	103
2.16500	105
2.16867	106
2.17233	108
2.17600	109
2.17967	108
2.18333	109
2.18700	110
2.19067	112
2.19433	112
2.19800	113
2.20167	113
2.20533	114
2.20900	114
2.21267	117
2.21633	120
2.22000	122
2.22367	123
2.22733	122
2.23100	121
2.23467	120
2.23833	120
2.24200	121
2.24567	125
2.24933	126
2.25300	129
2.25667	131
2.26033	133
2.26400	135
2.26767	138
2.27133	140
2.27500	140
2.27867	140
2.28233	140
2.28600	141
2.28967	140
2.29333	140
2.29700	143
2.30067	147
2.30433	150
2.30800	153
2.31167	154
2.31533	155
2.31900	158
2.32267	160
2.32633	162
2.33000	164
2.33367	164
2.33733	167
2.34100	169
2.34467	171
2.34833	173
2.35200	174
2.35567	174
2.35933	172
2.36300	174
2.36667	175
2.37033	177
2.37400	178
2.37767	180
2.38133	183
2.38500	183
2.38867	182
2.39233	182
2.39600	185
2.39967	189
2.40333	192
2.40700	196
2.41067	199
2.41433	202
2.41800	205
2.42167	209
2.42533	212
2.42900	213
2.43267	214
2.43633	215
2.44000	217
2.44367	244
2.44733	325
2.45100	413
2.45467	484
2.45833	521
2.46200	509
2.46567	465
2.46933	417
2.47300	379
2.47667	354
2.48033	338
2.48400	324
2.48767	306
2.49133	281
2.49500	252
2.49867	223
2.50233	201
2.50600	184
2.50967	173
2.51333	164
2.51700	159
2.52067	161
2.52433	165
2.52800	172
2.53167	181
2.53533	190
2.53900	196
2.54267	199
2.54633	199
2.55000	193
2.55367	183
2.55733	172
2.56100	159
2.56467	145
2.56833	132
2.57200	124
2.57567	117
2.57933	112
2.58300	109
2.58667	104
2.59033	100
2.59400	96
2.59767	90
2.60133	81
2.60500	71
2.60867	58
2.61233	45
2.61600	30
2.61967	15
2.62333	3
2.62700	-10
2.63067	-19
2.63433	-25
2.63800	-27
2.64167	-26
2.64533	-22
2.64900	-15
2.65267	-7
2.65633	4
2.66000	16
2.66367	29
2.66733	40
2.67100	49
2.67467	55
2.67833	61
2.68200	66
2.68567	69
2.68933	72
2.69300	74
2.69667	75
2.70033	76
2.70400	74
2.70767	71
2.71133	69
2.71500	67
2.71867	66
2.72233	64
2.72600	61
2.72967	61
2.73333	60
2.73700	58
2.74067	58
2.74433	58
2.74800	59
2.75167	59
2.75533	57
2.75900	54
2.76267	54
2.76633	56
2.77000	59
2.77367	61
2.77733	61
2.78100	62
2.78467	63
2.78833	63
2.79200	62
2.79567	62
2.79933	62
2.80300	61
2.80667	59
2.81033	61
2.81400	66
2.81767	75
2.82133	96
2.82500	144
2.82867	234
2.83233	389
2.83600	631
2.83967	975
2.84333	1418
2.84700	1951
2.85067	2542
2.85433	3144
2.85800	3710
2.86167	4195
2.86533	4563
2.86900	4792
2.87267	4874
2.87633	4817
2.88000	4646
2.88367	4393
2.88733	4083
2.89100	3742
2.89467	3391
2.89833	3041
2.90200	2708
2.90567	2400
2.90933	2117
2.91300	1863
2.91667	1636
2.92033	1431
2.92400	1251
2.92767	1094
2.93133	956
2.93500	837
2.93867	735
2.94233	650
2.94600	576
2.94967	511
2.95333	455
2.95700	406
2.96067	362
2.96433	323
2.96800	290
2.97167	261
2.97533	234
2.97900	211
2.98267	194
2.98633	179
2.99000	165
2.99367	153
2.99733	141
3.00100	130
3.00467	120
3.00833	115
3.01200	111
3.01567	104
3.01933	100
3.02300	94
3.02667	90
3.03033	86
3.03400	82
3.03767	78
3.04133	73
3.04500	67
3.04867	63
3.05233	59
3.05600	56
3.05967	54
3.06333	51
3.06700	46
3.07067	42
3.07433	39
3.07800	36
3.08167	34
3.08533	32
3.08900	30
3.09267	27
3.09633	27
3.10000	24
3.10367	21
3.10733	20
3.11100	21
3.11467	22
3.11833	19
3.12200	15
3.12567	9
3.12933	5
3.13300	2
3.13667	1
3.14033	0
3.14400	0
3.14767	-0
3.15133	-1
3.15500	-1
3.15867	-0
3.16233	0
3.16600	-1
3.16967	-2
3.17333	-1
3.17700	-1
3.18067	-21
3.18433	-77
3.18800	-133
3.19167	-157
3.19533	-144
3.19900	-106
3.20267	-58
3.20633	-3
3.21000	56
3.21367	115
3.21733	171
3.22100	223
3.22467	273
3.22833	319
3.23200	357
3.23567	390
3.23933	420
3.24300	446
3.24667	468
3.25033	485
3.25400	499
3.25767	511
3.26133	523
3.26500	533
3.26867	543
3.27233	549
3.27600	552
3.27967	552
3.28333	553
3.28700	553
3.29067	554
3.29433	555
3.29800	556
3.30167	557
3.30533	556
3.30900	555
3.31267	554
3.31633	552
3.32000	550
3.32367	546
3.32733	546
3.33100	547
3.33467	550
3.33833	550
3.34200	549
3.34567	549
3.34933	550
3.35300	551
3.35667	553
3.36033	553
3.36400	552
3.36767	549
3.37133	549
3.37500	552
3.37867	558
3.38233	562
3.38600	563
3.38967	562
3.39333	564
3.39700	566
3.40067	569
3.40433	574
3.40800	580
3.41167	584
3.41533	586
3.41900	590
3.42267	595
3.42633	598
3.43000	600
3.43367	602
3.43733	603
3.44100	603
3.44467	604
3.44833	603
3.45200	603
3.45567	600
3.45933	598
3.46300	596
3.46667	593
3.47033	590
3.47400	587
3.47767	583
3.48133	578
3.48500	574
3.48867	569
3.49233	564
3.49600	557
3.49967	550
3.50333	543
3.50700	537
3.51067	533
3.51433	529
3.51800	523
3.52167	518
3.52533	513
3.52900	510
3.53267	506
3.53633	503
3.54000	500
3.54367	496
3.54733	491
3.55100	487
3.55467	484
3.55833	480
3.56200	478
3.56567	476
3.56933	472
3.57300	469
3.57667	465
3.58033	459
3.58400	456
3.58767	453
3.59133	448
3.59500	444
3.59867	440
3.60233	437
3.60600	433
3.60967	431
3.61333	430
3.61700	427
3.62067	425
3.62433	423
3.62800	422
3.63167	421
3.63533	421
3.63900	418
3.64267	416
3.64633	415
3.65000	414
3.65367	412
3.65733	410
3.66100	408
3.66467	405
3.66833	402
3.67200	400
3.67567	399
3.67933	398
3.68300	396
3.68667	394
3.69033	394
3.69400	396
3.69767	397
3.70133	397
3.70500	395
3.70867	394
3.71233	395
3.71600	394
3.71967	391
3.72333	392
3.72700	394
3.73067	394
3.73433	394
3.73800	394
3.74167	393
3.74533	393
3.74900	392
3.75267	391
3.75633	392
3.76000	391
3.76367	390
3.76733	388
3.77100	387
3.77467	387
3.77833	386
3.78200	387
3.78567	388
3.78933	389
3.79300	389
3.79667	389
3.80033	389
3.80400	389
3.80767	387
3.81133	384
3.81500	384
3.81867	385
3.82233	384
3.82600	383
3.82967	382
3.83333	381
3.83700	379
3.84067	378
3.84433	376
3.84800	373
3.85167	372
3.85533	372
3.85900	373
3.86267	373
3.86633	372
3.87000	373
3.87367	374
3.87733	377
3.88100	377
3.88467	377
3.88833	377
3.89200	377
3.89567	376
3.89933	375
3.90300	373
3.90667	372
3.91033	372
3.91400	370
3.91767	369
3.92133	368
3.92500	370
3.92867	370
3.93233	369
3.93600	369
3.93967	369
3.94333	369
3.94700	368
3.95067	366
3.95433	365
3.95800	368
3.96167	370
3.96533	370
3.96900	369
3.97267	367
3.97633	366
3.98000	365
3.98367	365
3.98733	364
3.99100	364
3.99467	362
3.99833	358

[Status Trace (Column Oven Temperature)]
Interval(msec)	1000
# of Points	240
Start Time(min)	0.007
End Time(min)	3.991
Intensity Units	
Intensity Multiplier	1
R.Time (min)	Intensity
0.00718	35.07
0.02385	35.06
0.04052	35.06
0.05718	35.06
0.07385	35.06
0.09052	35.06
0.10718	35.05
0.12385	35.02
0.14052	35.03
0.15718	35.04
0.17385	35.04
0.19052	35.03
0.20718	35.02
0.22385	35.01
0.24052	35.00
0.25718	34.99
0.27385	35.00
0.29052	34.99
0.30718	34.99
0.32385	34.98
0.34052	34.99
0.35718	34.99
0.37385	34.98
0.39052	34.98
0.40718	34.99
0.42385	34.99
0.44052	35.00
0.45718	35.01
0.47385	35.01
0.49052	35.00
0.50718	34.99
0.52385	34.99
0.54052	34.98
0.55718	34.98
0.57385	34.98
0.59052	34.98
0.60718	34.99
0.62385	35.00
0.64052	35.01
0.65718	35.03
0.67385	35.03
0.69052	35.02
0.70718	35.01
0.72385	35.00
0.74052	34.99
0.75718	34.99
0.77385	34.98
0.79052	34.98
0.80718	34.98
0.82385	34.98
0.84052	34.99
0.85718	34.97
0.87385	34.98
0.89052	34.97
0.90718	34.98
0.92385	34.99
0.94052	34.99
0.95718	34.99
0.97385	35.00
0.99052	35.01
1.00718	35.02
1.02385	35.03
1.04052	35.03
1.05718	35.03
1.07385	35.03
1.09052	35.03
1.10718	35.03
1.12385	35.01
1.14052	35.01
1.15718	35.01
1.17385	35.00
1.19052	34.99
1.20718	34.98
1.22385	34.97
1.24052	34.97
1.25718	34.97
1.27385	34.97
1.29052	34.97
1.30718	34.97
1.32385	34.98
1.34052	34.97
1.35718	34.98
1.37385	34.99
1.39052	35.00
1.40718	34.99
1.42385	34.99
1.44052	35.01
1.45718	35.02
1.47385	35.02
1.49052	35.02
1.50718	35.01
1.52385	35.00
1.54052	34.99
1.55718	34.99
1.57385	34.98
1.59052	34.98
1.60718	35.03
1.62385	35.15
1.64052	35.35
1.65718	35.60
1.67385	35.96
1.69052	36.34
1.70718	36.69
1.72385	37.01
1.74052	37.32
1.75718	37.65
1.77385	38.00
1.79052	38.34
1.80718	38.67
1.82385	38.98
1.84052	39.31
1.85718	39.66
1.87385	39.98
1.89052	40.31
1.90718	40.65
1.92385	40.98
1.94052	41.31
1.95718	41.63
1.97385	41.97
1.99052	42.28
2.00718	42.61
2.02385	42.91
2.04052	43.24
2.05718	43.57
2.07385	43.89
2.09052	44.24
2.10718	44.56
2.12385	44.85
2.14052	45.19
2.15718	45.50
2.17385	45.84
2.19052	46.17
2.20718	46.50
2.22385	46.83
2.24052	47.17
2.25718	47.50
2.27385	47.83
2.29052	48.16
2.30718	48.50
2.32385	48.82
2.34052	49.11
2.35718	49.42
2.37385	49.63
2.39052	49.70
2.40718	49.69
2.42385	49.71
2.44052	49.71
2.45718	49.73
2.47385	49.73
2.49052	49.75
2.50718	49.77
2.52385	49.77
2.54052	49.82
2.55718	49.83
2.57385	49.83
2.59052	49.83
2.60718	49.84
2.62385	49.84
2.64052	49.84
2.65718	49.85
2.67385	49.87
2.69052	49.87
2.70718	49.85
2.72385	49.86
2.74052	49.88
2.75718	49.91
2.77385	49.92
2.79052	49.92
2.80718	49.91
2.82385	49.92
2.84052	49.93
2.85718	49.92
2.87385	49.93
2.89052	49.95
2.90718	49.97
2.92385	49.98
2.94052	49.99
2.95718	50.01
2.97385	50.02
2.99052	50.03
3.00718	50.04
3.02385	50.05
3.04052	50.06
3.05718	50.07
3.07385	50.07
3.09052	50.07
3.10718	50.08
3.12385	50.07
3.14052	50.07
3.15718	50.09
3.17385	50.11
3.19052	50.12
3.20718	50.11
3.22385	50.10
3.24052	50.08
3.25718	50.08
3.27385	50.07
3.29052	50.06
3.30718	50.05
3.32385	50.05
3.34052	50.04
3.35718	50.03
3.37385	50.03
3.39052	50.02
3.40718	50.02
3.42385	50.01
3.44052	50.01
3.45718	50.00
3.47385	50.01
3.49052	50.02
3.50718	50.02
3.52385	50.03
3.54052	50.04
3.55718	50.03
3.57385	50.03
3.59052	50.04
3.60718	50.04
3.62385	50.04
3.64052	50.05
3.65718	50.06
3.67385	50.06
3.69052	50.06
3.70718	50.07
3.72385	50.08
3.74052	50.07
3.75718	50.08
3.77385	50.08
3.79052	50.09
3.80718	50.10
3.82385	50.10
3.84052	50.09
3.85718	50.09
3.87385	50.08
3.89052	50.09
3.90718	50.08
3.92385	50.07
3.94052	50.06
3.95718	50.06
3.97385	50.05
3.99052	50.05

[Status Trace (Injection Unit Temperature)]
Interval(msec)	1000
# of Points	240
Start Time(min)	0.007
End Time(min)	3.991
Intensity Units	
Intensity Multiplier	1
R.Time (min)	Intensity
0.00718	99.97
0.02385	99.97
0.04052	99.97
0.05718	99.97
0.07385	99.97
0.09052	99.97
0.10718	99.97
0.12385	99.98
0.14052	99.97
0.15718	99.98
0.17385	99.98
0.19052	99.98
0.20718	99.98
0.22385	99.98
0.24052	99.98
0.25718	99.98
0.27385	99.98
0.29052	99.98
0.30718	99.99
0.32385	99.98
0.34052	99.98
0.35718	99.98
0.37385	99.98
0.39052	99.98
0.40718	99.99
0.42385	99.99
0.44052	99.99
0.45718	99.98
0.47385	99.99
0.49052	99.98
0.50718	99.98
0.52385	99.99
0.54052	99.99
0.55718	99.99
0.57385	99.98
0.59052	99.99
0.60718	99.98
0.62385	99.99
0.64052	99.99
0.65718	99.99
0.67385	99.98
0.69052	99.99
0.70718	99.99
0.72385	99.98
0.74052	99.99
0.75718	99.99
0.77385	99.99
0.79052	99.99
0.80718	99.99
0.82385	99.98
0.84052	99.99
0.85718	99.99
0.87385	99.98
0.89052	99.98
0.90718	99.99
0.92385	99.98
0.94052	99.99
0.95718	99.99
0.97385	99.98
0.99052	99.98
1.00718	99.98
1.02385	99.99
1.04052	99.99
1.05718	99.99
1.07385	99.99
1.09052	99.98
1.10718	99.99
1.12385	99.98
1.14052	99.98
1.15718	99.99
1.17385	99.99
1.19052	99.98
1.20718	99.98
1.22385	99.99
1.24052	99.98
1.25718	99.98
1.27385	99.98
1.29052	99.98
1.30718	99.98
1.32385	99.98
1.34052	99.98
1.35718	99.98
1.37385	99.98
1.39052	99.98
1.40718	99.98
1.42385	99.98
1.44052	99.98
1.45718	99.98
1.47385	99.97
1.49052	99.98
1.50718	99.98
1.52385	99.98
1.54052	99.99
1.55718	99.98
1.57385	99.98
1.59052	99.98
1.60718	99.99
1.62385	99.99
1.64052	99.98
1.65718	99.99
1.67385	99.98
1.69052	99.99
1.70718	99.99
1.72385	99.98
1.74052	99.98
1.75718	99.99
1.77385	99.98
1.79052	99.98
1.80718	99.98
1.82385	99.99
1.84052	99.98
1.85718	99.98
1.87385	99.98
1.89052	99.98
1.90718	99.98
1.92385	99.98
1.94052	99.98
1.95718	99.97
1.97385	99.98
1.99052	99.97
2.00718	99.97
2.02385	99.98
2.04052	99.97
2.05718	99.97
2.07385	99.97
2.09052	99.97
2.10718	99.97
2.12385	99.97
2.14052	99.97
2.15718	99.97
2.17385	99.97
2.19052	99.97
2.20718	99.97
2.22385	99.97
2.24052	99.97
2.25718	99.97
2.27385	99.97
2.29052	99.97
2.30718	99.97
2.32385	99.97
2.34052	99.97
2.35718	99.97
2.37385	99.96
2.39052	99.97
2.40718	99.97
2.42385	99.96
2.44052	99.96
2.45718	99.97
2.47385	99.97
2.49052	99.97
2.50718	99.96
2.52385	99.97
2.54052	99.97
2.55718	99.97
2.57385	99.97
2.59052	99.96
2.60718	99.97
2.62385	99.97
2.64052	99.97
2.65718	99.98
2.67385	99.97
2.69052	99.97
2.70718	99.98
2.72385	99.98
2.74052	99.98
2.75718	99.98
2.77385	99.98
2.79052	99.98
2.80718	99.99
2.82385	99.99
2.84052	99.99
2.85718	99.99
2.87385	99.99
2.89052	99.99
2.90718	100.00
2.92385	99.99
2.94052	100.00
2.95718	100.00
2.97385	100.00
2.99052	100.00
3.00718	100.01
3.02385	100.01
3.04052	100.01
3.05718	100.00
3.07385	100.01
3.09052	100.01
3.10718	100.02
3.12385	100.01
3.14052	100.02
3.15718	100.02
3.17385	100.02
3.19052	100.03
3.20718	100.03
3.22385	100.03
3.24052	100.02
3.25718	100.02
3.27385	100.03
3.29052	100.03
3.30718	100.03
3.32385	100.03
3.34052	100.03
3.35718	100.03
3.37385	100.03
3.39052	100.03
3.40718	100.03
3.42385	100.02
3.44052	100.03
3.45718	100.03
3.47385	100.03
3.49052	100.04
3.50718	100.04
3.52385	100.03
3.54052	100.04
3.55718	100.03
3.57385	100.04
3.59052	100.04
3.60718	100.03
3.62385	100.04
3.64052	100.04
3.65718	100.04
3.67385	100.04
3.69052	100.04
3.70718	100.04
3.72385	100.04
3.74052	100.04
3.75718	100.04
3.77385	100.04
3.79052	100.03
3.80718	100.04
3.82385	100.04
3.84052	100.04
3.85718	100.04
3.87385	100.04
3.89052	100.04
3.90718	100.04
3.92385	100.04
3.94052	100.04
3.95718	100.04
3.97385	100.04
3.99052	100.04

[Status Trace (Carrier Gas Pressure)]
Interval(msec)	1000
# of Points	240
Start Time(min)	0.007
End Time(min)	3.991
Intensity Units	
Intensity Multiplier	1
R.Time (min)	Intensity
0.00718	58.00
0.02385	55.54
0.04052	57.01
0.05718	59.19
0.07385	59.56
0.09052	58.09
0.10718	57.98
0.12385	58.01
0.14052	58.01
0.15718	58.01
0.17385	58.00
0.19052	58.00
0.20718	58.00
0.22385	58.00
0.24052	58.00
0.25718	58.00
0.27385	58.00
0.29052	58.00
0.30718	58.00
0.32385	58.00
0.34052	58.00
0.35718	58.00
0.37385	58.00
0.39052	58.00
0.40718	58.00
0.42385	58.00
0.44052	58.00
0.45718	58.00
0.47385	58.00
0.49052	58.00
0.50718	58.00
0.52385	58.00
0.54052	58.00
0.55718	58.00
0.57385	58.00
0.59052	58.00
0.60718	58.00
0.62385	58.00
0.64052	58.00
0.65718	58.00
0.67385	58.00
0.69052	58.00
0.70718	58.00
0.72385	58.00
0.74052	58.00
0.75718	58.00
0.77385	58.00
0.79052	58.00
0.80718	58.00
0.82385	58.00
0.84052	58.00
0.85718	58.00
0.87385	58.00
0.89052	58.00
0.90718	58.00
0.92385	58.00
0.94052	58.00
0.95718	58.00
0.97385	58.00
0.99052	58.00
1.00718	58.00
1.02385	58.00
1.04052	58.00
1.05718	58.00
1.07385	58.00
1.09052	58.00
1.10718	58.00
1.12385	58.00
1.14052	58.00
1.15718	58.00
1.17385	58.00
1.19052	58.00
1.20718	58.00
1.22385	58.00
1.24052	58.00
1.25718	58.00
1.27385	58.00
1.29052	58.00
1.30718	58.00
1.32385	58.00
1.34052	58.00
1.35718	58.00
1.37385	58.00
1.39052	58.00
1.40718	58.00
1.42385	58.00
1.44052	58.00
1.45718	58.00
1.47385	58.00
1.49052	58.00
1.50718	58.00
1.52385	58.00
1.54052	58.00
1.55718	58.00
1.57385	58.00
1.59052	58.00
1.60718	58.00
1.62385	58.00
1.64052	58.01
1.65718	58.01
1.67385	58.01
1.69052	58.00
1.70718	58.00
1.72385	58.00
1.74052	58.00
1.75718	58.00
1.77385	58.00
1.79052	58.00
1.80718	58.00
1.82385	58.00
1.84052	58.00
1.85718	58.00
1.87385	58.00
1.89052	58.00
1.90718	58.00
1.92385	58.00
1.94052	58.00
1.95718	58.00
1.97385	58.00
1.99052	58.00
2.00718	58.00
2.02385	58.00
2.04052	58.00
2.05718	58.00
2.07385	58.00
2.09052	58.00
2.10718	58.00
2.12385	58.00
2.14052	58.00
2.15718	58.00
2.17385	58.00
2.19052	58.00
2.20718	58.00
2.22385	58.00
2.24052	58.00
2.25718	58.00
2.27385	58.00
2.29052	58.00
2.30718	58.00
2.32385	58.00
2.34052	58.00
2.35718	58.00
2.37385	58.00
2.39052	57.99
2.40718	57.99
2.42385	58.00
2.44052	58.00
2.45718	58.00
2.47385	58.00
2.49052	58.00
2.50718	58.00
2.52385	57.99
2.54052	58.00
2.55718	58.00
2.57385	58.00
2.59052	58.00
2.60718	58.00
2.62385	58.00
2.64052	58.00
2.65718	58.00
2.67385	58.00
2.69052	58.00
2.70718	58.00
2.72385	58.00
2.74052	58.00
2.75718	58.00
2.77385	58.00
2.79052	58.00
2.80718	58.00
2.82385	58.00
2.84052	58.00
2.85718	58.00
2.87385	58.00
2.89052	58.00
2.90718	58.00
2.92385	58.00
2.94052	58.00
2.95718	58.00
2.97385	58.00
2.99052	58.00
3.00718	58.00
3.02385	58.00
3.04052	58.00
3.05718	58.00
3.07385	58.00
3.09052	58.00
3.10718	58.00
3.12385	58.00
3.14052	58.00
3.15718	58.00
3.17385	58.00
3.19052	58.00
3.20718	58.00
3.22385	58.00
3.24052	58.00
3.25718	58.00
3.27385	58.00
3.29052	58.00
3.30718	58.00
3.32385	58.00
3.34052	58.00
3.35718	58.00
3.37385	58.00
3.39052	58.00
3.40718	58.00
3.42385	58.00
3.44052	58.00
3.45718	58.00
3.47385	58.00
3.49052	58.00
3.50718	58.00
3.52385	58.00
3.54052	58.00
3.55718	58.00
3.57385	58.00
3.59052	58.00
3.60718	58.00
3.62385	58.00
3.64052	58.00
3.65718	58.00
3.67385	58.00
3.69052	58.00
3.70718	58.00
3.72385	58.00
3.74052	58.00
3.75718	58.00
3.77385	58.00
3.79052	58.00
3.80718	58.00
3.82385	58.00
3.84052	58.00
3.85718	58.00
3.87385	58.00
3.89052	58.00
3.90718	58.00
3.92385	58.00
3.94052	58.00
3.95718	58.00
3.97385	58.00
3.99052	58.00

[Status Trace (Carrier Gas Flow)]
Interval(msec)	1000
# of Points	240
Start Time(min)	0.007
End Time(min)	3.991
Intensity Units	
Intensity Multiplier	1
R.Time (min)	Intensity
0.00718	34.52
0.02385	34.53
0.04052	34.54
0.05718	34.55
0.07385	34.50
0.09052	34.52
0.10718	34.52
0.12385	34.52
0.14052	34.52
0.15718	34.52
0.17385	34.52
0.19052	34.52
0.20718	34.52
0.22385	34.52
0.24052	34.52
0.25718	34.52
0.27385	34.52
0.29052	34.52
0.30718	34.52
0.32385	34.52
0.34052	34.52
0.35718	34.52
0.37385	34.52
0.39052	34.52
0.40718	34.53
0.42385	34.52
0.44052	34.52
0.45718	34.51
0.47385	34.52
0.49052	34.51
0.50718	34.53
0.52385	34.52
0.54052	34.52
0.55718	34.52
0.57385	34.51
0.59052	34.52
0.60718	34.51
0.62385	34.52
0.64052	34.52
0.65718	34.52
0.67385	34.52
0.69052	34.52
0.70718	34.52
0.72385	34.52
0.74052	34.52
0.75718	34.52
0.77385	34.52
0.79052	34.52
0.80718	34.52
0.82385	34.52
0.84052	34.52
0.85718	34.52
0.87385	34.52
0.89052	34.52
0.90718	34.52
0.92385	34.52
0.94052	34.51
0.95718	34.52
0.97385	34.52
0.99052	34.51
1.00718	34.52
1.02385	34.51
1.04052	34.51
1.05718	34.51
1.07385	34.52
1.09052	34.52
1.10718	34.52
1.12385	34.52
1.14052	34.52
1.15718	34.52
1.17385	34.52
1.19052	34.52
1.20718	34.52
1.22385	34.52
1.24052	34.52
1.25718	34.52
1.27385	34.52
1.29052	34.52
1.30718	34.52
1.32385	34.52
1.34052	34.51
1.35718	34.52
1.37385	34.52
1.39052	34.52
1.40718	34.52
1.42385	34.52
1.44052	34.52
1.45718	34.52
1.47385	34.52
1.49052	34.53
1.50718	34.52
1.52385	34.52
1.54052	34.52
1.55718	34.52
1.57385	34.52
1.59052	34.52
1.60718	34.52
1.62385	34.52
1.64052	34.52
1.65718	34.52
1.67385	34.52
1.69052	34.52
1.70718	34.52
1.72385	34.51
1.74052	34.52
1.75718	34.52
1.77385	34.52
1.79052	34.52
1.80718	34.52
1.82385	34.51
1.84052	34.52
1.85718	34.52
1.87385	34.52
1.89052	34.51
1.90718	34.52
1.92385	34.52
1.94052	34.52
1.95718	34.52
1.97385	34.52
1.99052	34.52
2.00718	34.52
2.02385	34.52
2.04052	34.52
2.05718	34.52
2.07385	34.52
2.09052	34.52
2.10718	34.52
2.12385	34.51
2.14052	34.52
2.15718	34.52
2.17385	34.51
2.19052	34.51
2.20718	34.52
2.22385	34.52
2.24052	34.52
2.25718	34.52
2.27385	34.52
2.29052	34.51
2.30718	34.53
2.32385	34.52
2.34052	34.52
2.35718	34.52
2.37385	34.52
2.39052	34.52
2.40718	34.52
2.42385	34.52
2.44052	34.52
2.45718	34.52
2.47385	34.52
2.49052	34.52
2.50718	34.35
2.52385	34.52
2.54052	34.52
2.55718	34.52
2.57385	34.52
2.59052	34.52
2.60718	34.52
2.62385	34.52
2.64052	34.52
2.65718	34.51
2.67385	34.52
2.69052	34.52
2.70718	34.52
2.72385	34.52
2.74052	34.52
2.75718	34.52
2.77385	34.52
2.79052	34.52
2.80718	34.52
2.82385	34.52
2.84052	34.52
2.85718	34.52
2.87385	34.52
2.89052	34.52
2.90718	34.52
2.92385	34.52
2.94052	34.52
2.95718	34.52
2.97385	34.52
2.99052	34.52
3.00718	34.51
3.02385	34.52
3.04052	34.52
3.05718	34.52
3.07385	34.52
3.09052	34.52
3.10718	34.52
3.12385	34.51
3.14052	34.52
3.15718	34.52
3.17385	34.52
3.19052	34.52
3.20718	34.52
3.22385	34.52
3.24052	34.52
3.25718	34.52
3.27385	34.52
3.29052	34.52
3.30718	34.52
3.32385	34.52
3.34052	34.52
3.35718	34.52
3.37385	34.52
3.39052	34.51
3.40718	34.52
3.42385	34.52
3.44052	34.52
3.45718	34.52
3.47385	34.52
3.49052	34.52
3.50718	34.52
3.52385	34.52
3.54052	34.52
3.55718	34.52
3.57385	34.52
3.59052	34.52
3.60718	34.52
3.62385	34.52
3.64052	34.52
3.65718	34.52
3.67385	34.52
3.69052	34.52
3.70718	34.52
3.72385	34.52
3.74052	34.52
3.75718	34.52
3.77385	34.52
3.79052	34.52
3.80718	34.53
3.82385	34.52
3.84052	34.52
3.85718	34.52
3.87385	34.52
3.89052	34.52
3.90718	34.52
3.92385	34.52
3.94052	34.52
3.95718	34.52
3.97385	34.52
3.99052	34.52

[Status Trace (Column Flow)]
Interval(msec)	1000
# of Points	240
Start Time(min)	0.007
End Time(min)	3.991
Intensity Units	
Intensity Multiplier	1
R.Time (min)	Intensity
0.00718	5.58
0.02385	5.29
0.04052	5.46
0.05718	5.72
0.07385	5.76
0.09052	5.59
0.10718	5.58
0.12385	5.58
0.14052	5.58
0.15718	5.58
0.17385	5.58
0.19052	5.58
0.20718	5.58
0.22385	5.58
0.24052	5.58
0.25718	5.58
0.27385	5.58
0.29052	5.58
0.30718	5.58
0.32385	5.58
0.34052	5.58
0.35718	5.58
0.37385	5.58
0.39052	5.58
0.40718	5.58
0.42385	5.58
0.44052	5.58
0.45718	5.58
0.47385	5.58
0.49052	5.58
0.50718	5.58
0.52385	5.58
0.54052	5.58
0.55718	5.58
0.57385	5.58
0.59052	5.58
0.60718	5.58
0.62385	5.58
0.64052	5.58
0.65718	5.58
0.67385	5.58
0.69052	5.58
0.70718	5.58
0.72385	5.58
0.74052	5.58
0.75718	5.58
0.77385	5.58
0.79052	5.58
0.80718	5.58
0.82385	5.58
0.84052	5.58
0.85718	5.58
0.87385	5.58
0.89052	5.58
0.90718	5.58
0.92385	5.58
0.94052	5.58
0.95718	5.58
0.97385	5.58
0.99052	5.58
1.00718	5.58
1.02385	5.58
1.04052	5.58
1.05718	5.58
1.07385	5.58
1.09052	5.58
1.10718	5.58
1.12385	5.58
1.14052	5.58
1.15718	5.58
1.17385	5.58
1.19052	5.58
1.20718	5.58
1.22385	5.58
1.24052	5.58
1.25718	5.58
1.27385	5.58
1.29052	5.58
1.30718	5.58
1.32385	5.58
1.34052	5.58
1.35718	5.58
1.37385	5.58
1.39052	5.58
1.40718	5.58
1.42385	5.58
1.44052	5.58
1.45718	5.58
1.47385	5.58
1.49052	5.58
1.50718	5.58
1.52385	5.58
1.54052	5.58
1.55718	5.58
1.57385	5.58
1.59052	5.58
1.60718	5.58
1.62385	5.58
1.64052	5.57
1.65718	5.56
1.67385	5.55
1.69052	5.54
1.70718	5.53
1.72385	5.52
1.74052	5.51
1.75718	5.50
1.77385	5.49
1.79052	5.48
1.80718	5.47
1.82385	5.46
1.84052	5.45
1.85718	5.44
1.87385	5.43
1.89052	5.42
1.90718	5.40
1.92385	5.40
1.94052	5.39
1.95718	5.38
1.97385	5.37
1.99052	5.36
2.00718	5.35
2.02385	5.34
2.04052	5.33
2.05718	5.32
2.07385	5.31
2.09052	5.30
2.10718	5.29
2.12385	5.28
2.14052	5.27
2.15718	5.26
2.17385	5.25
2.19052	5.24
2.20718	5.23
2.22385	5.22
2.24052	5.21
2.25718	5.20
2.27385	5.19
2.29052	5.18
2.30718	5.17
2.32385	5.17
2.34052	5.16
2.35718	5.15
2.37385	5.14
2.39052	5.14
2.40718	5.14
2.42385	5.14
2.44052	5.14
2.45718	5.14
2.47385	5.14
2.49052	5.14
2.50718	5.14
2.52385	5.14
2.54052	5.14
2.55718	5.14
2.57385	5.14
2.59052	5.14
2.60718	5.14
2.62385	5.14
2.64052	5.14
2.65718	5.14
2.67385	5.14
2.69052	5.14
2.70718	5.14
2.72385	5.14
2.74052	5.14
2.75718	5.14
2.77385	5.13
2.79052	5.14
2.80718	5.14
2.82385	5.14
2.84052	5.13
2.85718	5.13
2.87385	5.13
2.89052	5.13
2.90718	5.13
2.92385	5.13
2.94052	5.13
2.95718	5.13
2.97385	5.13
2.99052	5.13
3.00718	5.13
3.02385	5.13
3.04052	5.13
3.05718	5.13
3.07385	5.13
3.09052	5.13
3.10718	5.13
3.12385	5.13
3.14052	5.13
3.15718	5.13
3.17385	5.13
3.19052	5.13
3.20718	5.13
3.22385	5.13
3.24052	5.13
3.25718	5.13
3.27385	5.13
3.29052	5.13
3.30718	5.13
3.32385	5.13
3.34052	5.13
3.35718	5.13
3.37385	5.13
3.39052	5.13
3.40718	5.13
3.42385	5.13
3.44052	5.13
3.45718	5.13
3.47385	5.13
3.49052	5.13
3.50718	5.13
3.52385	5.13
3.54052	5.13
3.55718	5.13
3.57385	5.13
3.59052	5.13
3.60718	5.13
3.62385	5.13
3.64052	5.13
3.65718	5.13
3.67385	5.13
3.69052	5.13
3.70718	5.13
3.72385	5.13
3.74052	5.13
3.75718	5.13
3.77385	5.13
3.79052	5.13
3.80718	5.13
3.82385	5.13
3.84052	5.13
3.85718	5.13
3.87385	5.13
3.89052	5.13
3.90718	5.13
3.92385	5.13
3.94052	5.13
3.95718	5.13
3.97385	5.13
3.99052	5.13

[Status Trace (Linear Velocity)]
Interval(msec)	1000
# of Points	240
Start Time(min)	0.007
End Time(min)	3.991
Intensity Units	
Intensity Multiplier	1
R.Time (min)	Intensity
0.00718	39.02
0.02385	37.41
0.04052	38.37
0.05718	39.80
0.07385	40.05
0.09052	39.08
0.10718	39.01
0.12385	39.03
0.14052	39.03
0.15718	39.03
0.17385	39.03
0.19052	39.03
0.20718	39.03
0.22385	39.03
0.24052	39.03
0.25718	39.03
0.27385	39.03
0.29052	39.03
0.30718	39.03
0.32385	39.03
0.34052	39.03
0.35718	39.03
0.37385	39.03
0.39052	39.03
0.40718	39.03
0.42385	39.03
0.44052	39.03
0.45718	39.03
0.47385	39.03
0.49052	39.03
0.50718	39.03
0.52385	39.03
0.54052	39.03
0.55718	39.03
0.57385	39.03
0.59052	39.03
0.60718	39.03
0.62385	39.03
0.64052	39.03
0.65718	39.03
0.67385	39.03
0.69052	39.03
0.70718	39.03
0.72385	39.03
0.74052	39.03
0.75718	39.03
0.77385	39.03
0.79052	39.03
0.80718	39.03
0.82385	39.03
0.84052	39.03
0.85718	39.03
0.87385	39.03
0.89052	39.03
0.90718	39.03
0.92385	39.03
0.94052	39.03
0.95718	39.03
0.97385	39.03
0.99052	39.03
1.00718	39.03
1.02385	39.03
1.04052	39.03
1.05718	39.03
1.07385	39.03
1.09052	39.03
1.10718	39.03
1.12385	39.03
1.14052	39.03
1.15718	39.03
1.17385	39.03
1.19052	39.03
1.20718	39.03
1.22385	39.03
1.24052	39.03
1.25718	39.03
1.27385	39.03
1.29052	39.03
1.30718	39.03
1.32385	39.03
1.34052	39.03
1.35718	39.03
1.37385	39.03
1.39052	39.03
1.40718	39.03
1.42385	39.03
1.44052	39.03
1.45718	39.03
1.47385	39.03
1.49052	39.03
1.50718	39.03
1.52385	39.03
1.54052	39.03
1.55718	39.03
1.57385	39.03
1.59052	39.03
1.60718	39.03
1.62385	39.02
1.64052	39.00
1.65718	38.98
1.67385	38.95
1.69052	38.90
1.70718	38.87
1.72385	38.84
1.74052	38.81
1.75718	38.78
1.77385	38.75
1.79052	38.71
1.80718	38.68
1.82385	38.65
1.84052	38.62
1.85718	38.59
1.87385	38.56
1.89052	38.53
1.90718	38.49
1.92385	38.47
1.94052	38.43
1.95718	38.40
1.97385	38.38
1.99052	38.34
2.00718	38.31
2.02385	38.29
2.04052	38.26
2.05718	38.22
2.07385	38.20
2.09052	38.16
2.10718	38.13
2.12385	38.11
2.14052	38.08
2.15718	38.05
2.17385	38.02
2.19052	37.99
2.20718	37.96
2.22385	37.93
2.24052	37.90
2.25718	37.87
2.27385	37.84
2.29052	37.81
2.30718	37.78
2.32385	37.75
2.34052	37.72
2.35718	37.70
2.37385	37.68
2.39052	37.67
2.40718	37.67
2.42385	37.67
2.44052	37.67
2.45718	37.67
2.47385	37.67
2.49052	37.67
2.50718	37.66
2.52385	37.66
2.54052	37.66
2.55718	37.66
2.57385	37.66
2.59052	37.66
2.60718	37.66
2.62385	37.66
2.64052	37.66
2.65718	37.66
2.67385	37.66
2.69052	37.66
2.70718	37.66
2.72385	37.66
2.74052	37.66
2.75718	37.65
2.77385	37.65
2.79052	37.65
2.80718	37.65
2.82385	37.65
2.84052	37.65
2.85718	37.65
2.87385	37.65
2.89052	37.65
2.90718	37.65
2.92385	37.65
2.94052	37.65
2.95718	37.64
2.97385	37.64
2.99052	37.64
3.00718	37.64
3.02385	37.64
3.04052	37.64
3.05718	37.64
3.07385	37.64
3.09052	37.64
3.10718	37.64
3.12385	37.64
3.14052	37.64
3.15718	37.64
3.17385	37.64
3.19052	37.63
3.20718	37.64
3.22385	37.64
3.24052	37.64
3.25718	37.64
3.27385	37.64
3.29052	37.64
3.30718	37.64
3.32385	37.64
3.34052	37.64
3.35718	37.64
3.37385	37.64
3.39052	37.64
3.40718	37.64
3.42385	37.64
3.44052	37.64
3.45718	37.65
3.47385	37.65
3.49052	37.64
3.50718	37.64
3.52385	37.64
3.54052	37.64
3.55718	37.64
3.57385	37.64
3.59052	37.64
3.60718	37.64
3.62385	37.64
3.64052	37.64
3.65718	37.64
3.67385	37.64
3.69052	37.64
3.70718	37.64
3.72385	37.64
3.74052	37.64
3.75718	37.64
3.77385	37.64
3.79052	37.64
3.80718	37.64
3.82385	37.64
3.84052	37.64
3.85718	37.64
3.87385	37.64
3.89052	37.64
3.90718	37.64
3.92385	37.64
3.94052	37.64
3.95718	37.64
3.97385	37.64
3.99052	37.64

