[Header]
Application Name	LabSolutions
Version	5.110
Data File Name	C:\Users\User\Desktop\GC Analyses\Jack\Nachusa Grasslands Sampling\T0 Timepoint July 12th\T0_07122022_018.gcd
Output Date	3/14/2023
Output Time	3:40:34 PM

[File Information]
Type	Data File
Generated	3/7/2023 3:40:50 PM
Generated by	System Administrator
Modified	3/7/2023 3:47:37 PM
Modified by	System Administrator

[Sample Information]
Operator Name	System Administrator
Acquired	3/7/2023 3:43:37 PM
Sample Type	0:Unknown
Level	0
Sample Name	018
Sample ID	018
ISTD Amount1	1
ISTD Amount2	1
ISTD Amount3	1
ISTD Amount4	1
ISTD Amount5	1
ISTD Amount6	1
ISTD Amount7	1
ISTD Amount8	1
ISTD Amount9	1
ISTD Amount10	1
ISTD Amount11	1
ISTD Amount12	1
ISTD Amount13	1
ISTD Amount14	1
ISTD Amount15	1
ISTD Amount16	1
ISTD Amount17	1
ISTD Amount18	1
ISTD Amount19	1
ISTD Amount20	1
ISTD Amount21	1
ISTD Amount22	1
ISTD Amount23	1
ISTD Amount24	1
ISTD Amount25	1
ISTD Amount26	1
ISTD Amount27	1
ISTD Amount28	1
ISTD Amount29	1
ISTD Amount30	1
ISTD Amount31	1
ISTD Amount32	1
Sample Amount	1
Dilution Factor	1
Vial#	17
Injection Volume	1
Injection Count	1
Bar Code	

[Original Files]
Data File	C:\Users\User\Desktop\GC Analyses\Jack\Nachusa Grasslands Sampling\T0 Timepoint July 12th\T0_07122022_018.gcd
Method File	C:\LabSolutions\Data\GHG_4min_2022\ghg3_togas_w_acet_4 min_new_int.gcm
Batch File	C:\LabSolutions\Data\AutoSamplerTesting\T0_07122022.gcb
Report Format File	c:\LabSolutions\System\DEFAULT.lsr

[File Description]


[Configuration]
Instrument Name	C0B7VH3-Instrument1
Instrument #	1
Line #	1
# of Detectors	3
Detector ID	DET#1	DET#2	DET#3
Detector Name	FID	PTCD	ECD
# of Channels	1	1	1

[Peak Table(Ch1)]
# of Peaks	3
Peak#	R.Time	I.Time	F.Time	Area	Height	A/H	Conc.	Mark	ID#	Name	k'	Plate #	Plate Ht.	Tailing	Resolution	Sep.Factor	Area Ratio	Height Ratio	Conc. %	Norm Conc.
1	1.476	1.439	1.538	29698	14060	2.112	209.668	   	1	CO	0.000	9162	16.372	1.345	0.000	0.000	0	0	35.371	35.371
2	1.567	1.538	1.637	5038	2387	2.110	97.419	 V 	2	CH4	0.062	10330	14.521	0.000	1.486	0.000	0	0	16.435	16.435
3	1.996	1.949	2.480	1138289	536950	2.120	285.680	   	3	CO2	0.353	17373	8.634	1.322	7.017	5.680	0	0	48.194	48.194

[Peak Table(Ch2)]
# of Peaks	0

[Peak Table(Ch3)]
# of Peaks	5
Peak#	R.Time	I.Time	F.Time	Area	Height	A/H	Conc.	Mark	ID#	Name	k'	Plate #	Plate Ht.	Tailing	Resolution	Sep.Factor	Area Ratio	Height Ratio	Conc. %	Norm Conc.
1	0.955	0.665	1.083	248	20	12.711	0.000	   			0.000	443	338.500	0.721	0.000	0.000	0	0	0.000	0.000
2	2.462	2.374	2.528	1261	323	3.908	0.000	   			1.578	5439	27.579	0.000	9.568	0.000	0	0	0.000	0.000
3	2.546	2.528	2.638	939	204	4.598	0.000	 V 			1.666	2534	59.194	0.000	0.502	1.056	0	0	0.000	0.000
4	2.726	2.653	2.766	544	109	4.990	0.014	   	1	N2O	1.854	396	378.816	0.000	0.479	1.113	0	0	2.820	2.820
5	2.873	2.766	3.159	18735	4795	3.908	0.479	 V 	1	N2O	2.008	13386	11.206	1.621	0.453	1.083	0	0	97.180	97.180

[Compound Results(Ch1)]
# of IDs	6
ID#	Name	R.Time	Area	Height	Conc.	Curve	3rd	2nd	1st	Constant	Area Ratio	Height Ratio	Conc. %	Norm Conc.
1	CO	1.476	29698	14060	209.668	Linear	0.000000e+00	0.000000e+00	1.416423e+002	0.000000e+00	0	0	35.371	35.371
2	CH4	1.567	5038	2387	97.419	Linear	0.000000e+00	0.000000e+00	5.171738e+001	0.000000e+00	0	0	16.435	16.435
3	CO2	1.996	1138289	536950	285.680	Linear	0.000000e+00	0.000000e+00	3.984494e+003	0.000000e+00	0	0	48.194	48.194
4	Ethylene	0.000	0	0	0.000	Linear	0.000000e+00	0.000000e+00	0.000000e+00	0.000000e+00	0	0	0.000	0.000
5	Acetylene	0.000	0	0	0.000	Linear	0.000000e+00	0.000000e+00	0.000000e+00	0.000000e+00	0	0	0.000	0.000
6	Ethane	0.000	0	0	0.000	Linear	0.000000e+00	0.000000e+00	0.000000e+00	0.000000e+00	0	0	0.000	0.000

[Compound Results(Ch2)]
# of IDs	5
ID#	Name	R.Time	Area	Height	Conc.	Curve	3rd	2nd	1st	Constant	Area Ratio	Height Ratio	Conc. %	Norm Conc.
1	Hydrogen	0.000	0	0	0.000	Linear	0.000000e+00	0.000000e+00	0.000000e+00	0.000000e+00	0	0	0.000	0.000
2	Oxygen	0.000	0	0	0.000	Linear	0.000000e+00	0.000000e+00	0.000000e+00	0.000000e+00	0	0	0.000	0.000
3	Nitrogen	0.000	0	0	0.000	Linear	0.000000e+00	0.000000e+00	0.000000e+00	0.000000e+00	0	0	0.000	0.000
4	Methane	0.000	0	0	0.000	Linear	0.000000e+00	0.000000e+00	0.000000e+00	0.000000e+00	0	0	0.000	0.000
5	Carbon Monoxide	0.000	0	0	0.000	Linear	0.000000e+00	0.000000e+00	0.000000e+00	0.000000e+00	0	0	0.000	0.000

[Compound Results(Ch3)]
# of IDs	2
ID#	Name	R.Time	Area	Height	Conc.	Curve	3rd	2nd	1st	Constant	Area Ratio	Height Ratio	Conc. %	Norm Conc.
1	N2O	2.873	19279	4903	0.492	Linear	0.000000e+00	0.000000e+00	3.915173e+004	0.000000e+00	0	0	100.000	100.000
2	SF6	0.000	0	0	0.000	Linear	0.000000e+00	0.000000e+00	0.000000e+00	0.000000e+00	0	0	0.000	0.000

[Group Results(Ch1)]
# of Groups	0

[Group Results(Ch2)]
# of Groups	0

[Group Results(Ch3)]
# of Groups	0

[Chromatogram (Ch1)]
Interval(msec)	220
# of Points	1091
Start Time(min)	0.002
End Time(min)	3.998
R.Time (min)	Intensity
0.00167	23
0.00533	27
0.00900	24
0.01267	18
0.01633	14
0.02000	9
0.02367	4
0.02733	2
0.03100	2
0.03467	4
0.03833	8
0.04200	14
0.04567	24
0.04933	37
0.05300	47
0.05667	48
0.06033	41
0.06400	32
0.06767	23
0.07133	19
0.07500	19
0.07867	21
0.08233	25
0.08600	29
0.08967	30
0.09333	30
0.09700	27
0.10067	25
0.10433	25
0.10800	26
0.11167	27
0.11533	29
0.11900	30
0.12267	32
0.12633	31
0.13000	30
0.13367	31
0.13733	34
0.14100	38
0.14467	45
0.14833	51
0.15200	53
0.15567	50
0.15933	44
0.16300	35
0.16667	26
0.17033	20
0.17400	18
0.17767	20
0.18133	25
0.18500	30
0.18867	32
0.19233	30
0.19600	28
0.19967	29
0.20333	34
0.20700	41
0.21067	45
0.21433	46
0.21800	47
0.22167	48
0.22533	44
0.22900	38
0.23267	30
0.23633	22
0.24000	17
0.24367	15
0.24733	17
0.25100	21
0.25467	28
0.25833	35
0.26200	39
0.26567	41
0.26933	43
0.27300	42
0.27667	39
0.28033	36
0.28400	34
0.28767	34
0.29133	34
0.29500	37
0.29867	38
0.30233	37
0.30600	36
0.30967	36
0.31333	38
0.31700	43
0.32067	47
0.32433	48
0.32800	47
0.33167	43
0.33533	33
0.33900	29
0.34267	19
0.34633	15
0.35000	16
0.35367	16
0.35733	19
0.36100	23
0.36467	26
0.36833	26
0.37200	27
0.37567	31
0.37933	36
0.38300	39
0.38667	43
0.39033	50
0.39400	54
0.39767	55
0.40133	50
0.40500	42
0.40867	33
0.41233	31
0.41600	34
0.41967	36
0.42333	35
0.42700	29
0.43067	24
0.43433	23
0.43800	23
0.44167	24
0.44533	28
0.44900	33
0.45267	39
0.45633	44
0.46000	44
0.46367	43
0.46733	41
0.47100	40
0.47467	38
0.47833	33
0.48200	24
0.48567	18
0.48933	17
0.49300	21
0.49667	26
0.50033	32
0.50400	39
0.50767	46
0.51133	54
0.51500	58
0.51867	60
0.52233	60
0.52600	60
0.52967	55
0.53333	48
0.53700	42
0.54067	40
0.54433	38
0.54800	36
0.55167	37
0.55533	38
0.55900	38
0.56267	35
0.56633	30
0.57000	25
0.57367	21
0.57733	17
0.58100	15
0.58467	17
0.58833	19
0.59200	22
0.59567	27
0.59933	32
0.60300	37
0.60667	40
0.61033	43
0.61400	43
0.61767	41
0.62133	36
0.62500	31
0.62867	30
0.63233	31
0.63600	32
0.63967	35
0.64333	43
0.64700	51
0.65067	57
0.65433	57
0.65800	49
0.66167	38
0.66533	32
0.66900	33
0.67267	36
0.67633	35
0.68000	30
0.68367	24
0.68733	22
0.69100	24
0.69467	25
0.69833	25
0.70200	27
0.70567	30
0.70933	36
0.71300	42
0.71667	45
0.72033	42
0.72400	37
0.72767	32
0.73133	29
0.73500	29
0.73867	34
0.74233	38
0.74600	40
0.74967	39
0.75333	34
0.75700	32
0.76067	35
0.76433	41
0.76800	46
0.77167	50
0.77533	53
0.77900	53
0.78267	56
0.78633	61
0.79000	64
0.79367	67
0.79733	69
0.80100	68
0.80467	66
0.80833	64
0.81200	64
0.81567	65
0.81933	70
0.82300	76
0.82667	83
0.83033	89
0.83400	93
0.83767	95
0.84133	95
0.84500	95
0.84867	94
0.85233	90
0.85600	86
0.85967	83
0.86333	78
0.86700	74
0.87067	73
0.87433	74
0.87800	73
0.88167	74
0.88533	73
0.88900	75
0.89267	79
0.89633	90
0.90000	101
0.90367	105
0.90733	100
0.91100	89
0.91467	76
0.91833	67
0.92200	65
0.92567	67
0.92933	75
0.93300	82
0.93667	83
0.94033	83
0.94400	80
0.94767	80
0.95133	84
0.95500	88
0.95867	92
0.96233	97
0.96600	100
0.96967	101
0.97333	99
0.97700	95
0.98067	91
0.98433	91
0.98800	93
0.99167	95
0.99533	96
0.99900	98
1.00267	101
1.00633	102
1.01000	101
1.01367	100
1.01733	99
1.02100	95
1.02467	89
1.02833	81
1.03200	74
1.03567	73
1.03933	78
1.04300	88
1.04667	94
1.05033	93
1.05400	87
1.05767	84
1.06133	83
1.06500	79
1.06867	75
1.07233	76
1.07600	81
1.07967	86
1.08333	88
1.08700	91
1.09067	97
1.09433	102
1.09800	104
1.10167	103
1.10533	100
1.10900	94
1.11267	85
1.11633	74
1.12000	65
1.12367	60
1.12733	56
1.13100	52
1.13467	51
1.13833	51
1.14200	53
1.14567	55
1.14933	57
1.15300	61
1.15667	65
1.16033	70
1.16400	72
1.16767	69
1.17133	67
1.17500	69
1.17867	74
1.18233	78
1.18600	81
1.18967	82
1.19333	80
1.19700	78
1.20067	77
1.20433	77
1.20800	76
1.21167	77
1.21533	78
1.21900	81
1.22267	82
1.22633	84
1.23000	85
1.23367	84
1.23733	83
1.24100	79
1.24467	75
1.24833	73
1.25200	73
1.25567	73
1.25933	70
1.26300	66
1.26667	62
1.27033	61
1.27400	62
1.27767	66
1.28133	69
1.28500	74
1.28867	77
1.29233	80
1.29600	82
1.29967	78
1.30333	70
1.30700	61
1.31067	56
1.31433	54
1.31800	52
1.32167	54
1.32533	58
1.32900	63
1.33267	69
1.33633	71
1.34000	67
1.34367	62
1.34733	56
1.35100	49
1.35467	45
1.35833	46
1.36200	50
1.36567	53
1.36933	56
1.37300	58
1.37667	56
1.38033	52
1.38400	48
1.38767	44
1.39133	44
1.39500	47
1.39867	52
1.40233	58
1.40600	65
1.40967	70
1.41333	75
1.41700	80
1.42067	82
1.42433	74
1.42800	59
1.43167	42
1.43533	30
1.43900	40
1.44267	120
1.44633	335
1.45000	884
1.45367	2196
1.45733	4430
1.46100	7158
1.46467	9780
1.46833	11920
1.47200	13406
1.47567	14107
1.47933	13903
1.48300	12786
1.48667	10973
1.49033	8851
1.49400	6796
1.49767	5040
1.50133	3665
1.50500	2648
1.50867	1920
1.51233	1407
1.51600	1049
1.51967	803
1.52333	635
1.52700	517
1.53067	433
1.53433	371
1.53800	335
1.54167	359
1.54533	508
1.54900	817
1.55267	1233
1.55633	1663
1.56000	2033
1.56367	2304
1.56733	2451
1.57100	2442
1.57467	2264
1.57833	1949
1.58200	1568
1.58567	1195
1.58933	878
1.59300	636
1.59667	465
1.60033	349
1.60400	273
1.60767	221
1.61133	187
1.61500	164
1.61867	146
1.62233	126
1.62600	108
1.62967	93
1.63333	84
1.63700	77
1.64067	74
1.64433	76
1.64800	77
1.65167	72
1.65533	61
1.65900	51
1.66267	45
1.66633	42
1.67000	39
1.67367	39
1.67733	39
1.68100	41
1.68467	41
1.68833	40
1.69200	43
1.69567	48
1.69933	56
1.70300	65
1.70667	71
1.71033	75
1.71400	75
1.71767	70
1.72133	62
1.72500	55
1.72867	49
1.73233	43
1.73600	37
1.73967	34
1.74333	32
1.74700	32
1.75067	33
1.75433	38
1.75800	46
1.76167	49
1.76533	49
1.76900	50
1.77267	56
1.77633	62
1.78000	68
1.78367	71
1.78733	72
1.79100	71
1.79467	69
1.79833	65
1.80200	65
1.80567	68
1.80933	72
1.81300	72
1.81667	68
1.82033	63
1.82400	62
1.82767	62
1.83133	64
1.83500	66
1.83867	67
1.84233	65
1.84600	62
1.84967	58
1.85333	56
1.85700	55
1.86067	56
1.86433	57
1.86800	55
1.87167	54
1.87533	53
1.87900	55
1.88267	59
1.88633	68
1.89000	79
1.89367	86
1.89733	86
1.90100	82
1.90467	79
1.90833	79
1.91200	84
1.91567	90
1.91933	91
1.92300	86
1.92667	80
1.93033	77
1.93400	78
1.93767	80
1.94133	82
1.94500	83
1.94867	86
1.95233	103
1.95600	199
1.95967	704
1.96333	2954
1.96700	10756
1.97067	31519
1.97433	74581
1.97800	145191
1.98167	238350
1.98533	339883
1.98900	432590
1.99267	501695
1.99633	537071
2.00000	533876
2.00367	494350
2.00733	427877
2.01100	348169
2.01467	268746
2.01833	199001
2.02200	143062
2.02567	101026
2.02933	70838
2.03300	49806
2.03667	35423
2.04033	25675
2.04400	19077
2.04767	14588
2.05133	11498
2.05500	9338
2.05867	7802
2.06233	6681
2.06600	5838
2.06967	5185
2.07333	4663
2.07700	4237
2.08067	3884
2.08433	3586
2.08800	3328
2.09167	3106
2.09533	2914
2.09900	2745
2.10267	2592
2.10633	2453
2.11000	2329
2.11367	2217
2.11733	2115
2.12100	2020
2.12467	1928
2.12833	1846
2.13200	1775
2.13567	1712
2.13933	1653
2.14300	1597
2.14667	1548
2.15033	1502
2.15400	1456
2.15767	1411
2.16133	1371
2.16500	1335
2.16867	1302
2.17233	1272
2.17600	1242
2.17967	1211
2.18333	1178
2.18700	1143
2.19067	1110
2.19433	1080
2.19800	1050
2.20167	1024
2.20533	1003
2.20900	986
2.21267	970
2.21633	955
2.22000	941
2.22367	926
2.22733	910
2.23100	894
2.23467	875
2.23833	855
2.24200	837
2.24567	823
2.24933	810
2.25300	796
2.25667	782
2.26033	767
2.26400	753
2.26767	736
2.27133	722
2.27500	712
2.27867	707
2.28233	704
2.28600	699
2.28967	692
2.29333	684
2.29700	676
2.30067	666
2.30433	657
2.30800	647
2.31167	637
2.31533	624
2.31900	615
2.32267	612
2.32633	612
2.33000	612
2.33367	608
2.33733	603
2.34100	601
2.34467	600
2.34833	599
2.35200	593
2.35567	590
2.35933	589
2.36300	584
2.36667	578
2.37033	572
2.37400	567
2.37767	564
2.38133	562
2.38500	560
2.38867	557
2.39233	553
2.39600	548
2.39967	543
2.40333	537
2.40700	530
2.41067	526
2.41433	525
2.41800	528
2.42167	534
2.42533	538
2.42900	538
2.43267	531
2.43633	518
2.44000	506
2.44367	498
2.44733	491
2.45100	488
2.45467	487
2.45833	488
2.46200	488
2.46567	487
2.46933	484
2.47300	482
2.47667	480
2.48033	482
2.48400	485
2.48767	488
2.49133	488
2.49500	483
2.49867	475
2.50233	467
2.50600	465
2.50967	466
2.51333	470
2.51700	477
2.52067	486
2.52433	493
2.52800	495
2.53167	492
2.53533	490
2.53900	490
2.54267	488
2.54633	483
2.55000	486
2.55367	487
2.55733	479
2.56100	464
2.56467	452
2.56833	445
2.57200	440
2.57567	435
2.57933	432
2.58300	432
2.58667	434
2.59033	440
2.59400	447
2.59767	451
2.60133	454
2.60500	454
2.60867	455
2.61233	456
2.61600	459
2.61967	461
2.62333	461
2.62700	459
2.63067	457
2.63433	456
2.63800	455
2.64167	452
2.64533	449
2.64900	445
2.65267	444
2.65633	445
2.66000	452
2.66367	457
2.66733	456
2.67100	453
2.67467	451
2.67833	449
2.68200	447
2.68567	449
2.68933	455
2.69300	460
2.69667	459
2.70033	451
2.70400	440
2.70767	433
2.71133	431
2.71500	433
2.71867	436
2.72233	441
2.72600	446
2.72967	445
2.73333	441
2.73700	437
2.74067	433
2.74433	434
2.74800	441
2.75167	452
2.75533	465
2.75900	470
2.76267	466
2.76633	457
2.77000	448
2.77367	443
2.77733	442
2.78100	440
2.78467	441
2.78833	444
2.79200	447
2.79567	449
2.79933	455
2.80300	460
2.80667	462
2.81033	460
2.81400	458
2.81767	456
2.82133	455
2.82500	453
2.82867	453
2.83233	455
2.83600	453
2.83967	448
2.84333	441
2.84700	436
2.85067	435
2.85433	437
2.85800	440
2.86167	445
2.86533	451
2.86900	459
2.87267	468
2.87633	473
2.88000	473
2.88367	470
2.88733	467
2.89100	465
2.89467	462
2.89833	463
2.90200	468
2.90567	470
2.90933	466
2.91300	458
2.91667	448
2.92033	438
2.92400	432
2.92767	430
2.93133	431
2.93500	433
2.93867	435
2.94233	441
2.94600	449
2.94967	456
2.95333	459
2.95700	461
2.96067	463
2.96433	467
2.96800	470
2.97167	473
2.97533	476
2.97900	475
2.98267	470
2.98633	465
2.99000	459
2.99367	450
2.99733	445
3.00100	446
3.00467	454
3.00833	470
3.01200	487
3.01567	499
3.01933	509
3.02300	517
3.02667	518
3.03033	510
3.03400	494
3.03767	474
3.04133	458
3.04500	447
3.04867	438
3.05233	432
3.05600	426
3.05967	424
3.06333	427
3.06700	431
3.07067	435
3.07433	440
3.07800	444
3.08167	446
3.08533	443
3.08900	440
3.09267	439
3.09633	444
3.10000	454
3.10367	461
3.10733	463
3.11100	458
3.11467	453
3.11833	450
3.12200	446
3.12567	444
3.12933	445
3.13300	448
3.13667	451
3.14033	450
3.14400	449
3.14767	449
3.15133	451
3.15500	452
3.15867	454
3.16233	455
3.16600	458
3.16967	460
3.17333	462
3.17700	463
3.18067	459
3.18433	451
3.18800	442
3.19167	437
3.19533	440
3.19900	446
3.20267	453
3.20633	458
3.21000	460
3.21367	462
3.21733	465
3.22100	469
3.22467	468
3.22833	458
3.23200	446
3.23567	434
3.23933	428
3.24300	428
3.24667	433
3.25033	440
3.25400	445
3.25767	445
3.26133	438
3.26500	430
3.26867	427
3.27233	425
3.27600	424
3.27967	426
3.28333	427
3.28700	426
3.29067	425
3.29433	424
3.29800	423
3.30167	422
3.30533	420
3.30900	420
3.31267	425
3.31633	432
3.32000	439
3.32367	441
3.32733	440
3.33100	439
3.33467	436
3.33833	434
3.34200	437
3.34567	442
3.34933	444
3.35300	445
3.35667	444
3.36033	436
3.36400	428
3.36767	425
3.37133	426
3.37500	426
3.37867	425
3.38233	423
3.38600	423
3.38967	427
3.39333	433
3.39700	437
3.40067	436
3.40433	431
3.40800	428
3.41167	428
3.41533	433
3.41900	436
3.42267	434
3.42633	429
3.43000	421
3.43367	414
3.43733	410
3.44100	409
3.44467	411
3.44833	413
3.45200	412
3.45567	410
3.45933	407
3.46300	402
3.46667	396
3.47033	391
3.47400	391
3.47767	395
3.48133	400
3.48500	404
3.48867	404
3.49233	397
3.49600	387
3.49967	380
3.50333	377
3.50700	375
3.51067	373
3.51433	372
3.51800	371
3.52167	371
3.52533	377
3.52900	384
3.53267	390
3.53633	393
3.54000	395
3.54367	399
3.54733	401
3.55100	401
3.55467	398
3.55833	394
3.56200	389
3.56567	382
3.56933	374
3.57300	365
3.57667	358
3.58033	354
3.58400	354
3.58767	355
3.59133	359
3.59500	364
3.59867	369
3.60233	374
3.60600	379
3.60967	381
3.61333	381
3.61700	379
3.62067	377
3.62433	378
3.62800	381
3.63167	382
3.63533	379
3.63900	374
3.64267	371
3.64633	369
3.65000	368
3.65367	369
3.65733	368
3.66100	366
3.66467	366
3.66833	363
3.67200	359
3.67567	356
3.67933	354
3.68300	351
3.68667	350
3.69033	347
3.69400	346
3.69767	348
3.70133	351
3.70500	352
3.70867	349
3.71233	347
3.71600	345
3.71967	345
3.72333	345
3.72700	343
3.73067	339
3.73433	336
3.73800	336
3.74167	337
3.74533	337
3.74900	336
3.75267	337
3.75633	340
3.76000	341
3.76367	341
3.76733	339
3.77100	338
3.77467	334
3.77833	331
3.78200	330
3.78567	331
3.78933	332
3.79300	332
3.79667	327
3.80033	319
3.80400	315
3.80767	319
3.81133	326
3.81500	333
3.81867	340
3.82233	347
3.82600	350
3.82967	348
3.83333	342
3.83700	334
3.84067	324
3.84433	311
3.84800	301
3.85167	296
3.85533	294
3.85900	294
3.86267	294
3.86633	293
3.87000	293
3.87367	290
3.87733	286
3.88100	283
3.88467	280
3.88833	279
3.89200	281
3.89567	286
3.89933	287
3.90300	284
3.90667	282
3.91033	282
3.91400	286
3.91767	293
3.92133	299
3.92500	303
3.92867	305
3.93233	308
3.93600	310
3.93967	312
3.94333	311
3.94700	305
3.95067	297
3.95433	290
3.95800	284
3.96167	281
3.96533	283
3.96900	285
3.97267	283
3.97633	279
3.98000	276
3.98367	274
3.98733	276
3.99100	281
3.99467	289
3.99833	297

[Chromatogram (Ch2)]
Interval(msec)	220
# of Points	1091
Start Time(min)	0.002
End Time(min)	3.998
R.Time (min)	Intensity
0.00167	-1
0.00533	-1
0.00900	-1
0.01267	-1
0.01633	-1
0.02000	-2
0.02367	-2
0.02733	-2
0.03100	-2
0.03467	-2
0.03833	-2
0.04200	-1
0.04567	-1
0.04933	-1
0.05300	-0
0.05667	0
0.06033	0
0.06400	1
0.06767	1
0.07133	1
0.07500	1
0.07867	1
0.08233	1
0.08600	0
0.08967	0
0.09333	0
0.09700	0
0.10067	0
0.10433	0
0.10800	-0
0.11167	-0
0.11533	-0
0.11900	-0
0.12267	-0
0.12633	-0
0.13000	-0
0.13367	-0
0.13733	-0
0.14100	-0
0.14467	0
0.14833	-0
0.15200	-0
0.15567	-0
0.15933	-0
0.16300	-0
0.16667	0
0.17033	1
0.17400	1
0.17767	1
0.18133	1
0.18500	1
0.18867	0
0.19233	0
0.19600	0
0.19967	0
0.20333	0
0.20700	0
0.21067	-0
0.21433	-0
0.21800	-0
0.22167	-1
0.22533	-1
0.22900	-1
0.23267	-1
0.23633	-1
0.24000	-1
0.24367	-0
0.24733	-0
0.25100	-0
0.25467	0
0.25833	0
0.26200	0
0.26567	0
0.26933	0
0.27300	0
0.27667	0
0.28033	0
0.28400	1
0.28767	1
0.29133	1
0.29500	1
0.29867	1
0.30233	1
0.30600	1
0.30967	1
0.31333	1
0.31700	1
0.32067	2
0.32433	2
0.32800	2
0.33167	2
0.33533	2
0.33900	2
0.34267	2
0.34633	1
0.35000	1
0.35367	1
0.35733	1
0.36100	0
0.36467	0
0.36833	-0
0.37200	-0
0.37567	-0
0.37933	-0
0.38300	-0
0.38667	-0
0.39033	-0
0.39400	-0
0.39767	-0
0.40133	-0
0.40500	-0
0.40867	-0
0.41233	-0
0.41600	0
0.41967	0
0.42333	0
0.42700	0
0.43067	0
0.43433	0
0.43800	-0
0.44167	-0
0.44533	-1
0.44900	-1
0.45267	-1
0.45633	-1
0.46000	-1
0.46367	-1
0.46733	-1
0.47100	-1
0.47467	-1
0.47833	-1
0.48200	-1
0.48567	-1
0.48933	-1
0.49300	-1
0.49667	-0
0.50033	-0
0.50400	0
0.50767	0
0.51133	0
0.51500	0
0.51867	0
0.52233	0
0.52600	0
0.52967	1
0.53333	0
0.53700	0
0.54067	0
0.54433	0
0.54800	-0
0.55167	-1
0.55533	-1
0.55900	-1
0.56267	-1
0.56633	-2
0.57000	-2
0.57367	-2
0.57733	-2
0.58100	-2
0.58467	-1
0.58833	-1
0.59200	-1
0.59567	-1
0.59933	-0
0.60300	-0
0.60667	-0
0.61033	-0
0.61400	-0
0.61767	0
0.62133	1
0.62500	1
0.62867	1
0.63233	1
0.63600	1
0.63967	1
0.64333	1
0.64700	1
0.65067	1
0.65433	2
0.65800	2
0.66167	1
0.66533	1
0.66900	1
0.67267	1
0.67633	1
0.68000	1
0.68367	1
0.68733	1
0.69100	0
0.69467	1
0.69833	1
0.70200	1
0.70567	1
0.70933	1
0.71300	1
0.71667	1
0.72033	1
0.72400	1
0.72767	1
0.73133	1
0.73500	0
0.73867	-0
0.74233	-1
0.74600	-1
0.74967	-1
0.75333	-1
0.75700	-1
0.76067	-1
0.76433	-1
0.76800	-2
0.77167	-2
0.77533	-1
0.77900	-1
0.78267	-2
0.78633	-2
0.79000	-2
0.79367	-2
0.79733	-2
0.80100	-2
0.80467	-1
0.80833	-1
0.81200	-1
0.81567	-1
0.81933	-1
0.82300	-1
0.82667	-1
0.83033	-1
0.83400	-1
0.83767	-1
0.84133	-1
0.84500	-1
0.84867	-1
0.85233	-1
0.85600	-1
0.85967	-1
0.86333	-1
0.86700	-1
0.87067	-1
0.87433	-1
0.87800	-0
0.88167	-0
0.88533	-0
0.88900	-0
0.89267	0
0.89633	0
0.90000	0
0.90367	0
0.90733	0
0.91100	0
0.91467	0
0.91833	0
0.92200	-0
0.92567	-0
0.92933	-0
0.93300	-0
0.93667	-0
0.94033	-1
0.94400	-1
0.94767	-1
0.95133	-1
0.95500	-1
0.95867	-1
0.96233	-1
0.96600	-1
0.96967	-1
0.97333	-2
0.97700	-2
0.98067	-2
0.98433	-2
0.98800	-2
0.99167	-2
0.99533	-2
0.99900	-1
1.00267	-1
1.00633	-1
1.01000	-1
1.01367	-1
1.01733	-1
1.02100	-0
1.02467	-0
1.02833	0
1.03200	1
1.03567	1
1.03933	1
1.04300	1
1.04667	1
1.05033	1
1.05400	1
1.05767	1
1.06133	2
1.06500	2
1.06867	2
1.07233	2
1.07600	2
1.07967	2
1.08333	1
1.08700	1
1.09067	1
1.09433	1
1.09800	1
1.10167	0
1.10533	-0
1.10900	-0
1.11267	-1
1.11633	-1
1.12000	-1
1.12367	-2
1.12733	-2
1.13100	-2
1.13467	-2
1.13833	-3
1.14200	-3
1.14567	-3
1.14933	-3
1.15300	-2
1.15667	-2
1.16033	-2
1.16400	-2
1.16767	-2
1.17133	-2
1.17500	-2
1.17867	-2
1.18233	-2
1.18600	-2
1.18967	-2
1.19333	-2
1.19700	-3
1.20067	-3
1.20433	-3
1.20800	-3
1.21167	-3
1.21533	-4
1.21900	-4
1.22267	-4
1.22633	-4
1.23000	-4
1.23367	-4
1.23733	-4
1.24100	-4
1.24467	-4
1.24833	-4
1.25200	-4
1.25567	-4
1.25933	-3
1.26300	-3
1.26667	-3
1.27033	-2
1.27400	-2
1.27767	-2
1.28133	-2
1.28500	-2
1.28867	-2
1.29233	-1
1.29600	-1
1.29967	-1
1.30333	-1
1.30700	-1
1.31067	-1
1.31433	-1
1.31800	-2
1.32167	-2
1.32533	-2
1.32900	-1
1.33267	-2
1.33633	-2
1.34000	-2
1.34367	-2
1.34733	-2
1.35100	-2
1.35467	-2
1.35833	-2
1.36200	-2
1.36567	-2
1.36933	-2
1.37300	-2
1.37667	-2
1.38033	-2
1.38400	-3
1.38767	-3
1.39133	-3
1.39500	-3
1.39867	-3
1.40233	-3
1.40600	-3
1.40967	-3
1.41333	-2
1.41700	-2
1.42067	-2
1.42433	-2
1.42800	-1
1.43167	-1
1.43533	-1
1.43900	-1
1.44267	-1
1.44633	-2
1.45000	-2
1.45367	-2
1.45733	-1
1.46100	-1
1.46467	-1
1.46833	-1
1.47200	-0
1.47567	0
1.47933	0
1.48300	0
1.48667	0
1.49033	-0
1.49400	-0
1.49767	-1
1.50133	-1
1.50500	-1
1.50867	-1
1.51233	-1
1.51600	-1
1.51967	-1
1.52333	-1
1.52700	-1
1.53067	-1
1.53433	-0
1.53800	0
1.54167	0
1.54533	1
1.54900	1
1.55267	0
1.55633	0
1.56000	0
1.56367	0
1.56733	-0
1.57100	-0
1.57467	-1
1.57833	-1
1.58200	-1
1.58567	-2
1.58933	-2
1.59300	-3
1.59667	-4
1.60033	-5
1.60400	-6
1.60767	-7
1.61133	-9
1.61500	-11
1.61867	-14
1.62233	-16
1.62600	-19
1.62967	-22
1.63333	-25
1.63700	-29
1.64067	-32
1.64433	-35
1.64800	-39
1.65167	-42
1.65533	-46
1.65900	-49
1.66267	-53
1.66633	-58
1.67000	-63
1.67367	-68
1.67733	-73
1.68100	-78
1.68467	-83
1.68833	-88
1.69200	-92
1.69567	-96
1.69933	-99
1.70300	-102
1.70667	-104
1.71033	-105
1.71400	-107
1.71767	-108
1.72133	-109
1.72500	-110
1.72867	-111
1.73233	-111
1.73600	-112
1.73967	-112
1.74333	-113
1.74700	-113
1.75067	-113
1.75433	-114
1.75800	-114
1.76167	-114
1.76533	-114
1.76900	-115
1.77267	-115
1.77633	-115
1.78000	-116
1.78367	-116
1.78733	-117
1.79100	-117
1.79467	-117
1.79833	-117
1.80200	-117
1.80567	-118
1.80933	-118
1.81300	-118
1.81667	-118
1.82033	-118
1.82400	-118
1.82767	-117
1.83133	-117
1.83500	-117
1.83867	-117
1.84233	-117
1.84600	-117
1.84967	-117
1.85333	-117
1.85700	-117
1.86067	-117
1.86433	-117
1.86800	-117
1.87167	-117
1.87533	-117
1.87900	-118
1.88267	-118
1.88633	-118
1.89000	-119
1.89367	-119
1.89733	-118
1.90100	-118
1.90467	-118
1.90833	-118
1.91200	-117
1.91567	-117
1.91933	-116
1.92300	-116
1.92667	-116
1.93033	-116
1.93400	-115
1.93767	-115
1.94133	-115
1.94500	-115
1.94867	-114
1.95233	-114
1.95600	-114
1.95967	-114
1.96333	-114
1.96700	-114
1.97067	-114
1.97433	-113
1.97800	-113
1.98167	-113
1.98533	-112
1.98900	-112
1.99267	-111
1.99633	-110
2.00000	-109
2.00367	-109
2.00733	-109
2.01100	-108
2.01467	-108
2.01833	-107
2.02200	-107
2.02567	-107
2.02933	-106
2.03300	-106
2.03667	-106
2.04033	-105
2.04400	-105
2.04767	-104
2.05133	-104
2.05500	-104
2.05867	-103
2.06233	-103
2.06600	-103
2.06967	-103
2.07333	-103
2.07700	-103
2.08067	-102
2.08433	-102
2.08800	-102
2.09167	-102
2.09533	-102
2.09900	-102
2.10267	-102
2.10633	-101
2.11000	-101
2.11367	-100
2.11733	-100
2.12100	-99
2.12467	-98
2.12833	-98
2.13200	-97
2.13567	-97
2.13933	-98
2.14300	-98
2.14667	-98
2.15033	-98
2.15400	-98
2.15767	-97
2.16133	-97
2.16500	-97
2.16867	-96
2.17233	-96
2.17600	-96
2.17967	-96
2.18333	-96
2.18700	-95
2.19067	-96
2.19433	-97
2.19800	-98
2.20167	-100
2.20533	-100
2.20900	-101
2.21267	-100
2.21633	-99
2.22000	-98
2.22367	-96
2.22733	-94
2.23100	-93
2.23467	-91
2.23833	-91
2.24200	-90
2.24567	-90
2.24933	-91
2.25300	-91
2.25667	-91
2.26033	-91
2.26400	-90
2.26767	-90
2.27133	-90
2.27500	-90
2.27867	-90
2.28233	-89
2.28600	-89
2.28967	-89
2.29333	-89
2.29700	-89
2.30067	-88
2.30433	-88
2.30800	-87
2.31167	-86
2.31533	-86
2.31900	-86
2.32267	-86
2.32633	-86
2.33000	-86
2.33367	-85
2.33733	-84
2.34100	-83
2.34467	-82
2.34833	-81
2.35200	-80
2.35567	-78
2.35933	-77
2.36300	-75
2.36667	-74
2.37033	-72
2.37400	-69
2.37767	-67
2.38133	-63
2.38500	-60
2.38867	-56
2.39233	-52
2.39600	-48
2.39967	-44
2.40333	-40
2.40700	-37
2.41067	-33
2.41433	-30
2.41800	-27
2.42167	-24
2.42533	-22
2.42900	-20
2.43267	-18
2.43633	-16
2.44000	-15
2.44367	-13
2.44733	-12
2.45100	-10
2.45467	-8
2.45833	-6
2.46200	-5
2.46567	-3
2.46933	-2
2.47300	-1
2.47667	0
2.48033	1
2.48400	2
2.48767	3
2.49133	4
2.49500	5
2.49867	6
2.50233	6
2.50600	7
2.50967	8
2.51333	8
2.51700	10
2.52067	11
2.52433	12
2.52800	12
2.53167	13
2.53533	13
2.53900	13
2.54267	13
2.54633	12
2.55000	12
2.55367	12
2.55733	13
2.56100	13
2.56467	14
2.56833	14
2.57200	14
2.57567	14
2.57933	13
2.58300	13
2.58667	13
2.59033	12
2.59400	12
2.59767	12
2.60133	13
2.60500	13
2.60867	13
2.61233	14
2.61600	15
2.61967	15
2.62333	16
2.62700	17
2.63067	17
2.63433	18
2.63800	18
2.64167	19
2.64533	19
2.64900	19
2.65267	20
2.65633	20
2.66000	21
2.66367	21
2.66733	21
2.67100	21
2.67467	20
2.67833	20
2.68200	21
2.68567	21
2.68933	21
2.69300	21
2.69667	21
2.70033	22
2.70400	23
2.70767	23
2.71133	24
2.71500	24
2.71867	24
2.72233	25
2.72600	25
2.72967	25
2.73333	26
2.73700	25
2.74067	25
2.74433	25
2.74800	25
2.75167	25
2.75533	24
2.75900	24
2.76267	24
2.76633	24
2.77000	24
2.77367	24
2.77733	25
2.78100	25
2.78467	25
2.78833	25
2.79200	26
2.79567	26
2.79933	26
2.80300	26
2.80667	26
2.81033	27
2.81400	27
2.81767	28
2.82133	28
2.82500	28
2.82867	28
2.83233	27
2.83600	27
2.83967	25
2.84333	22
2.84700	17
2.85067	10
2.85433	0
2.85800	-13
2.86167	-30
2.86533	-50
2.86900	-75
2.87267	-104
2.87633	-138
2.88000	-175
2.88367	-215
2.88733	-259
2.89100	-305
2.89467	-354
2.89833	-405
2.90200	-458
2.90567	-511
2.90933	-564
2.91300	-618
2.91667	-671
2.92033	-724
2.92400	-776
2.92767	-827
2.93133	-879
2.93500	-936
2.93867	-996
2.94233	-1052
2.94600	-1092
2.94967	-1110
2.95333	-1100
2.95700	-1067
2.96067	-1013
2.96433	-945
2.96800	-869
2.97167	-788
2.97533	-707
2.97900	-629
2.98267	-554
2.98633	-486
2.99000	-423
2.99367	-367
2.99733	-317
3.00100	-272
3.00467	-233
3.00833	-199
3.01200	-170
3.01567	-144
3.01933	-122
3.02300	-103
3.02667	-86
3.03033	-72
3.03400	-60
3.03767	-49
3.04133	-40
3.04500	-32
3.04867	-25
3.05233	-20
3.05600	-15
3.05967	-11
3.06333	-7
3.06700	-4
3.07067	-2
3.07433	1
3.07800	2
3.08167	4
3.08533	5
3.08900	7
3.09267	8
3.09633	10
3.10000	11
3.10367	12
3.10733	12
3.11100	13
3.11467	14
3.11833	14
3.12200	15
3.12567	15
3.12933	16
3.13300	16
3.13667	17
3.14033	17
3.14400	17
3.14767	18
3.15133	18
3.15500	18
3.15867	18
3.16233	19
3.16600	19
3.16967	19
3.17333	19
3.17700	19
3.18067	19
3.18433	19
3.18800	19
3.19167	19
3.19533	19
3.19900	20
3.20267	20
3.20633	20
3.21000	20
3.21367	20
3.21733	20
3.22100	20
3.22467	20
3.22833	21
3.23200	21
3.23567	21
3.23933	21
3.24300	22
3.24667	22
3.25033	22
3.25400	22
3.25767	22
3.26133	22
3.26500	22
3.26867	22
3.27233	22
3.27600	22
3.27967	22
3.28333	22
3.28700	22
3.29067	22
3.29433	22
3.29800	22
3.30167	22
3.30533	22
3.30900	22
3.31267	22
3.31633	22
3.32000	22
3.32367	22
3.32733	22
3.33100	22
3.33467	22
3.33833	23
3.34200	23
3.34567	24
3.34933	24
3.35300	25
3.35667	25
3.36033	26
3.36400	26
3.36767	26
3.37133	26
3.37500	27
3.37867	27
3.38233	27
3.38600	27
3.38967	27
3.39333	27
3.39700	27
3.40067	27
3.40433	27
3.40800	27
3.41167	26
3.41533	26
3.41900	26
3.42267	26
3.42633	26
3.43000	26
3.43367	26
3.43733	26
3.44100	26
3.44467	26
3.44833	26
3.45200	26
3.45567	27
3.45933	27
3.46300	27
3.46667	27
3.47033	27
3.47400	27
3.47767	27
3.48133	27
3.48500	27
3.48867	27
3.49233	27
3.49600	27
3.49967	27
3.50333	27
3.50700	26
3.51067	26
3.51433	26
3.51800	26
3.52167	26
3.52533	26
3.52900	26
3.53267	26
3.53633	26
3.54000	25
3.54367	25
3.54733	25
3.55100	24
3.55467	24
3.55833	24
3.56200	24
3.56567	24
3.56933	24
3.57300	24
3.57667	24
3.58033	24
3.58400	24
3.58767	24
3.59133	24
3.59500	24
3.59867	24
3.60233	24
3.60600	24
3.60967	24
3.61333	24
3.61700	24
3.62067	24
3.62433	25
3.62800	25
3.63167	25
3.63533	26
3.63900	26
3.64267	26
3.64633	26
3.65000	26
3.65367	26
3.65733	26
3.66100	26
3.66467	26
3.66833	26
3.67200	26
3.67567	26
3.67933	26
3.68300	26
3.68667	26
3.69033	26
3.69400	26
3.69767	26
3.70133	26
3.70500	26
3.70867	26
3.71233	26
3.71600	26
3.71967	26
3.72333	26
3.72700	26
3.73067	26
3.73433	25
3.73800	25
3.74167	25
3.74533	25
3.74900	25
3.75267	25
3.75633	25
3.76000	25
3.76367	25
3.76733	25
3.77100	25
3.77467	25
3.77833	25
3.78200	24
3.78567	24
3.78933	24
3.79300	24
3.79667	25
3.80033	25
3.80400	24
3.80767	24
3.81133	24
3.81500	24
3.81867	24
3.82233	24
3.82600	24
3.82967	24
3.83333	24
3.83700	24
3.84067	25
3.84433	25
3.84800	25
3.85167	24
3.85533	24
3.85900	24
3.86267	24
3.86633	24
3.87000	24
3.87367	23
3.87733	23
3.88100	23
3.88467	23
3.88833	23
3.89200	23
3.89567	23
3.89933	23
3.90300	23
3.90667	23
3.91033	24
3.91400	24
3.91767	24
3.92133	24
3.92500	24
3.92867	24
3.93233	24
3.93600	24
3.93967	25
3.94333	25
3.94700	25
3.95067	25
3.95433	25
3.95800	25
3.96167	25
3.96533	24
3.96900	24
3.97267	24
3.97633	24
3.98000	24
3.98367	24
3.98733	24
3.99100	24
3.99467	24
3.99833	24

[Chromatogram (Ch3)]
Interval(msec)	220
# of Points	1091
Start Time(min)	0.002
End Time(min)	3.998
R.Time (min)	Intensity
0.00167	0
0.00533	1
0.00900	1
0.01267	-0
0.01633	-1
0.02000	-1
0.02367	2
0.02733	4
0.03100	6
0.03467	4
0.03833	2
0.04200	2
0.04567	1
0.04933	0
0.05300	1
0.05667	2
0.06033	3
0.06400	4
0.06767	5
0.07133	4
0.07500	4
0.07867	4
0.08233	2
0.08600	1
0.08967	-0
0.09333	2
0.09700	4
0.10067	5
0.10433	7
0.10800	6
0.11167	5
0.11533	3
0.11900	4
0.12267	5
0.12633	3
0.13000	2
0.13367	1
0.13733	-1
0.14100	-2
0.14467	-1
0.14833	2
0.15200	5
0.15567	6
0.15933	8
0.16300	10
0.16667	10
0.17033	10
0.17400	12
0.17767	12
0.18133	11
0.18500	12
0.18867	12
0.19233	10
0.19600	9
0.19967	9
0.20333	10
0.20700	8
0.21067	9
0.21433	11
0.21800	11
0.22167	11
0.22533	10
0.22900	11
0.23267	9
0.23633	11
0.24000	11
0.24367	9
0.24733	8
0.25100	7
0.25467	5
0.25833	3
0.26200	4
0.26567	6
0.26933	8
0.27300	7
0.27667	5
0.28033	5
0.28400	6
0.28767	9
0.29133	11
0.29500	14
0.29867	14
0.30233	11
0.30600	9
0.30967	8
0.31333	8
0.31700	5
0.32067	4
0.32433	6
0.32800	8
0.33167	10
0.33533	12
0.33900	11
0.34267	10
0.34633	8
0.35000	8
0.35367	8
0.35733	9
0.36100	11
0.36467	11
0.36833	8
0.37200	4
0.37567	3
0.37933	5
0.38300	7
0.38667	4
0.39033	-0
0.39400	-3
0.39767	-5
0.40133	-5
0.40500	-5
0.40867	-3
0.41233	-1
0.41600	-2
0.41967	-1
0.42333	3
0.42700	4
0.43067	5
0.43433	4
0.43800	4
0.44167	5
0.44533	4
0.44900	2
0.45267	1
0.45633	4
0.46000	6
0.46367	5
0.46733	4
0.47100	5
0.47467	4
0.47833	3
0.48200	1
0.48567	3
0.48933	3
0.49300	2
0.49667	2
0.50033	2
0.50400	2
0.50767	2
0.51133	2
0.51500	1
0.51867	-2
0.52233	-6
0.52600	-8
0.52967	-8
0.53333	-5
0.53700	0
0.54067	2
0.54433	0
0.54800	-3
0.55167	-4
0.55533	-2
0.55900	1
0.56267	3
0.56633	4
0.57000	2
0.57367	3
0.57733	4
0.58100	5
0.58467	6
0.58833	5
0.59200	3
0.59567	2
0.59933	1
0.60300	1
0.60667	1
0.61033	2
0.61400	2
0.61767	0
0.62133	-1
0.62500	-3
0.62867	-2
0.63233	-1
0.63600	0
0.63967	-0
0.64333	-2
0.64700	-2
0.65067	-3
0.65433	-3
0.65800	-3
0.66167	-1
0.66533	1
0.66900	2
0.67267	4
0.67633	8
0.68000	9
0.68367	7
0.68733	9
0.69100	9
0.69467	10
0.69833	11
0.70200	12
0.70567	12
0.70933	11
0.71300	12
0.71667	12
0.72033	12
0.72400	11
0.72767	10
0.73133	9
0.73500	10
0.73867	11
0.74233	12
0.74600	14
0.74967	14
0.75333	13
0.75700	12
0.76067	11
0.76433	11
0.76800	11
0.77167	12
0.77533	13
0.77900	15
0.78267	16
0.78633	15
0.79000	12
0.79367	11
0.79733	9
0.80100	9
0.80467	10
0.80833	11
0.81200	11
0.81567	14
0.81933	12
0.82300	11
0.82667	12
0.83033	15
0.83400	17
0.83767	21
0.84133	21
0.84500	18
0.84867	16
0.85233	17
0.85600	17
0.85967	16
0.86333	15
0.86700	15
0.87067	17
0.87433	19
0.87800	21
0.88167	19
0.88533	17
0.88900	16
0.89267	16
0.89633	16
0.90000	17
0.90367	18
0.90733	18
0.91100	20
0.91467	20
0.91833	21
0.92200	23
0.92567	22
0.92933	20
0.93300	20
0.93667	21
0.94033	21
0.94400	23
0.94767	25
0.95133	26
0.95500	26
0.95867	24
0.96233	22
0.96600	21
0.96967	23
0.97333	24
0.97700	20
0.98067	20
0.98433	20
0.98800	21
0.99167	21
0.99533	21
0.99900	19
1.00267	18
1.00633	17
1.01000	15
1.01367	13
1.01733	13
1.02100	13
1.02467	13
1.02833	15
1.03200	14
1.03567	14
1.03933	15
1.04300	14
1.04667	14
1.05033	12
1.05400	14
1.05767	15
1.06133	15
1.06500	14
1.06867	13
1.07233	12
1.07600	12
1.07967	11
1.08333	9
1.08700	9
1.09067	12
1.09433	12
1.09800	13
1.10167	14
1.10533	11
1.10900	10
1.11267	9
1.11633	9
1.12000	8
1.12367	8
1.12733	11
1.13100	11
1.13467	10
1.13833	10
1.14200	10
1.14567	12
1.14933	14
1.15300	14
1.15667	14
1.16033	13
1.16400	12
1.16767	11
1.17133	9
1.17500	7
1.17867	6
1.18233	7
1.18600	8
1.18967	9
1.19333	11
1.19700	13
1.20067	14
1.20433	14
1.20800	13
1.21167	12
1.21533	11
1.21900	9
1.22267	8
1.22633	11
1.23000	12
1.23367	12
1.23733	12
1.24100	12
1.24467	11
1.24833	12
1.25200	11
1.25567	11
1.25933	12
1.26300	11
1.26667	10
1.27033	10
1.27400	14
1.27767	16
1.28133	16
1.28500	15
1.28867	12
1.29233	11
1.29600	11
1.29967	11
1.30333	11
1.30700	13
1.31067	15
1.31433	17
1.31800	17
1.32167	15
1.32533	14
1.32900	13
1.33267	11
1.33633	11
1.34000	9
1.34367	9
1.34733	9
1.35100	8
1.35467	7
1.35833	6
1.36200	9
1.36567	10
1.36933	10
1.37300	11
1.37667	13
1.38033	14
1.38400	14
1.38767	13
1.39133	10
1.39500	7
1.39867	7
1.40233	4
1.40600	3
1.40967	4
1.41333	6
1.41700	8
1.42067	8
1.42433	8
1.42800	9
1.43167	8
1.43533	5
1.43900	3
1.44267	3
1.44633	2
1.45000	2
1.45367	4
1.45733	4
1.46100	5
1.46467	7
1.46833	7
1.47200	5
1.47567	5
1.47933	8
1.48300	8
1.48667	6
1.49033	3
1.49400	3
1.49767	2
1.50133	2
1.50500	4
1.50867	7
1.51233	9
1.51600	8
1.51967	6
1.52333	2
1.52700	2
1.53067	6
1.53433	11
1.53800	12
1.54167	12
1.54533	12
1.54900	10
1.55267	6
1.55633	3
1.56000	3
1.56367	2
1.56733	1
1.57100	3
1.57467	5
1.57833	8
1.58200	7
1.58567	5
1.58933	5
1.59300	8
1.59667	10
1.60033	14
1.60400	15
1.60767	15
1.61133	14
1.61500	13
1.61867	13
1.62233	13
1.62600	13
1.62967	10
1.63333	8
1.63700	8
1.64067	9
1.64433	10
1.64800	14
1.65167	17
1.65533	18
1.65900	18
1.66267	17
1.66633	17
1.67000	16
1.67367	17
1.67733	20
1.68100	21
1.68467	22
1.68833	26
1.69200	28
1.69567	30
1.69933	30
1.70300	29
1.70667	28
1.71033	27
1.71400	26
1.71767	27
1.72133	30
1.72500	30
1.72867	30
1.73233	30
1.73600	32
1.73967	34
1.74333	38
1.74700	41
1.75067	41
1.75433	41
1.75800	39
1.76167	36
1.76533	34
1.76900	37
1.77267	41
1.77633	43
1.78000	49
1.78367	52
1.78733	51
1.79100	49
1.79467	48
1.79833	50
1.80200	53
1.80567	53
1.80933	53
1.81300	52
1.81667	50
1.82033	47
1.82400	46
1.82767	48
1.83133	50
1.83500	49
1.83867	51
1.84233	52
1.84600	53
1.84967	54
1.85333	57
1.85700	61
1.86067	62
1.86433	59
1.86800	58
1.87167	59
1.87533	60
1.87900	60
1.88267	60
1.88633	60
1.89000	63
1.89367	65
1.89733	65
1.90100	65
1.90467	65
1.90833	65
1.91200	64
1.91567	64
1.91933	65
1.92300	65
1.92667	66
1.93033	65
1.93400	64
1.93767	63
1.94133	63
1.94500	65
1.94867	66
1.95233	65
1.95600	65
1.95967	65
1.96333	64
1.96700	66
1.97067	69
1.97433	72
1.97800	73
1.98167	70
1.98533	65
1.98900	64
1.99267	66
1.99633	68
2.00000	68
2.00367	69
2.00733	70
2.01100	69
2.01467	70
2.01833	70
2.02200	70
2.02567	69
2.02933	67
2.03300	65
2.03667	65
2.04033	67
2.04400	69
2.04767	69
2.05133	70
2.05500	73
2.05867	76
2.06233	81
2.06600	82
2.06967	82
2.07333	81
2.07700	82
2.08067	81
2.08433	82
2.08800	81
2.09167	83
2.09533	86
2.09900	87
2.10267	89
2.10633	92
2.11000	92
2.11367	91
2.11733	89
2.12100	88
2.12467	90
2.12833	95
2.13200	99
2.13567	100
2.13933	100
2.14300	100
2.14667	102
2.15033	103
2.15400	104
2.15767	104
2.16133	103
2.16500	102
2.16867	100
2.17233	100
2.17600	101
2.17967	106
2.18333	108
2.18700	109
2.19067	109
2.19433	110
2.19800	113
2.20167	114
2.20533	116
2.20900	119
2.21267	123
2.21633	125
2.22000	124
2.22367	121
2.22733	120
2.23100	121
2.23467	121
2.23833	122
2.24200	123
2.24567	124
2.24933	127
2.25300	131
2.25667	132
2.26033	135
2.26400	136
2.26767	137
2.27133	136
2.27500	136
2.27867	137
2.28233	138
2.28600	139
2.28967	140
2.29333	141
2.29700	141
2.30067	142
2.30433	145
2.30800	148
2.31167	149
2.31533	150
2.31900	152
2.32267	156
2.32633	158
2.33000	158
2.33367	159
2.33733	161
2.34100	164
2.34467	164
2.34833	166
2.35200	166
2.35567	166
2.35933	168
2.36300	171
2.36667	174
2.37033	175
2.37400	176
2.37767	178
2.38133	181
2.38500	180
2.38867	178
2.39233	178
2.39600	180
2.39967	184
2.40333	188
2.40700	190
2.41067	191
2.41433	193
2.41800	194
2.42167	194
2.42533	194
2.42900	194
2.43267	196
2.43633	197
2.44000	197
2.44367	219
2.44733	284
2.45100	359
2.45467	423
2.45833	469
2.46200	484
2.46567	477
2.46933	463
2.47300	447
2.47667	436
2.48033	430
2.48400	426
2.48767	422
2.49133	415
2.49500	401
2.49867	384
2.50233	369
2.50600	356
2.50967	345
2.51333	338
2.51700	333
2.52067	330
2.52433	327
2.52800	327
2.53167	332
2.53533	339
2.53900	345
2.54267	349
2.54633	351
2.55000	350
2.55367	348
2.55733	346
2.56100	341
2.56467	336
2.56833	329
2.57200	324
2.57567	318
2.57933	313
2.58300	308
2.58667	301
2.59033	296
2.59400	292
2.59767	286
2.60133	277
2.60500	265
2.60867	250
2.61233	231
2.61600	211
2.61967	193
2.62333	177
2.62700	162
2.63067	148
2.63433	137
2.63800	131
2.64167	128
2.64533	129
2.64900	131
2.65267	137
2.65633	143
2.66000	150
2.66367	159
2.66733	168
2.67100	176
2.67467	184
2.67833	194
2.68200	204
2.68567	213
2.68933	221
2.69300	229
2.69667	233
2.70033	237
2.70400	242
2.70767	245
2.71133	245
2.71500	246
2.71867	249
2.72233	253
2.72600	255
2.72967	253
2.73333	250
2.73700	248
2.74067	248
2.74433	249
2.74800	249
2.75167	247
2.75533	248
2.75900	248
2.76267	247
2.76633	247
2.77000	249
2.77367	251
2.77733	250
2.78100	250
2.78467	251
2.78833	255
2.79200	256
2.79567	255
2.79933	256
2.80300	257
2.80667	257
2.81033	255
2.81400	254
2.81767	257
2.82133	273
2.82500	311
2.82867	383
2.83233	514
2.83600	724
2.83967	1033
2.84333	1443
2.84700	1945
2.85067	2513
2.85433	3108
2.85800	3682
2.86167	4186
2.86533	4583
2.86900	4844
2.87267	4958
2.87633	4935
2.88000	4791
2.88367	4554
2.88733	4253
2.89100	3916
2.89467	3564
2.89833	3218
2.90200	2887
2.90567	2576
2.90933	2291
2.91300	2034
2.91667	1801
2.92033	1594
2.92400	1411
2.92767	1252
2.93133	1114
2.93500	994
2.93867	889
2.94233	797
2.94600	719
2.94967	653
2.95333	597
2.95700	549
2.96067	505
2.96433	468
2.96800	435
2.97167	406
2.97533	380
2.97900	361
2.98267	346
2.98633	332
2.99000	320
2.99367	308
2.99733	298
3.00100	289
3.00467	282
3.00833	275
3.01200	270
3.01567	268
3.01933	265
3.02300	263
3.02667	262
3.03033	258
3.03400	255
3.03767	253
3.04133	252
3.04500	248
3.04867	245
3.05233	244
3.05600	241
3.05967	236
3.06333	235
3.06700	235
3.07067	233
3.07433	230
3.07800	227
3.08167	224
3.08533	224
3.08900	226
3.09267	227
3.09633	226
3.10000	223
3.10367	218
3.10733	217
3.11100	218
3.11467	218
3.11833	216
3.12200	212
3.12567	211
3.12933	211
3.13300	210
3.13667	209
3.14033	206
3.14400	202
3.14767	202
3.15133	203
3.15500	201
3.15867	199
3.16233	202
3.16600	203
3.16967	204
3.17333	205
3.17700	205
3.18067	203
3.18433	202
3.18800	201
3.19167	202
3.19533	204
3.19900	205
3.20267	204
3.20633	205
3.21000	206
3.21367	206
3.21733	205
3.22100	206
3.22467	209
3.22833	211
3.23200	212
3.23567	211
3.23933	209
3.24300	207
3.24667	206
3.25033	207
3.25400	208
3.25767	207
3.26133	206
3.26500	205
3.26867	204
3.27233	202
3.27600	203
3.27967	206
3.28333	205
3.28700	204
3.29067	203
3.29433	206
3.29800	209
3.30167	207
3.30533	205
3.30900	204
3.31267	201
3.31633	196
3.32000	193
3.32367	193
3.32733	193
3.33100	193
3.33467	193
3.33833	196
3.34200	198
3.34567	199
3.34933	198
3.35300	196
3.35667	194
3.36033	193
3.36400	192
3.36767	191
3.37133	191
3.37500	191
3.37867	191
3.38233	189
3.38600	189
3.38967	189
3.39333	189
3.39700	187
3.40067	185
3.40433	184
3.40800	185
3.41167	188
3.41533	188
3.41900	189
3.42267	189
3.42633	189
3.43000	188
3.43367	186
3.43733	185
3.44100	187
3.44467	187
3.44833	186
3.45200	187
3.45567	186
3.45933	187
3.46300	190
3.46667	193
3.47033	193
3.47400	191
3.47767	189
3.48133	189
3.48500	189
3.48867	188
3.49233	188
3.49600	186
3.49967	184
3.50333	184
3.50700	184
3.51067	184
3.51433	184
3.51800	182
3.52167	180
3.52533	179
3.52900	179
3.53267	177
3.53633	176
3.54000	176
3.54367	177
3.54733	179
3.55100	181
3.55467	182
3.55833	183
3.56200	185
3.56567	185
3.56933	186
3.57300	185
3.57667	184
3.58033	184
3.58400	182
3.58767	182
3.59133	183
3.59500	184
3.59867	184
3.60233	186
3.60600	187
3.60967	188
3.61333	186
3.61700	175
3.62067	161
3.62433	144
3.62800	127
3.63167	112
3.63533	102
3.63900	99
3.64267	103
3.64633	114
3.65000	127
3.65367	142
3.65733	160
3.66100	176
3.66467	192
3.66833	207
3.67200	222
3.67567	236
3.67933	247
3.68300	258
3.68667	268
3.69033	279
3.69400	290
3.69767	299
3.70133	308
3.70500	317
3.70867	329
3.71233	340
3.71600	349
3.71967	357
3.72333	365
3.72700	375
3.73067	383
3.73433	388
3.73800	393
3.74167	397
3.74533	402
3.74900	405
3.75267	409
3.75633	414
3.76000	420
3.76367	423
3.76733	425
3.77100	425
3.77467	427
3.77833	429
3.78200	433
3.78567	434
3.78933	434
3.79300	433
3.79667	431
3.80033	432
3.80400	433
3.80767	435
3.81133	437
3.81500	437
3.81867	437
3.82233	437
3.82600	441
3.82967	441
3.83333	439
3.83700	437
3.84067	438
3.84433	437
3.84800	436
3.85167	436
3.85533	436
3.85900	437
3.86267	437
3.86633	436
3.87000	435
3.87367	434
3.87733	434
3.88100	434
3.88467	432
3.88833	431
3.89200	430
3.89567	430
3.89933	429
3.90300	428
3.90667	427
3.91033	426
3.91400	423
3.91767	419
3.92133	415
3.92500	414
3.92867	413
3.93233	411
3.93600	411
3.93967	411
3.94333	411
3.94700	411
3.95067	408
3.95433	407
3.95800	407
3.96167	408
3.96533	411
3.96900	411
3.97267	413
3.97633	413
3.98000	411
3.98367	408
3.98733	406
3.99100	406
3.99467	406
3.99833	403

[Status Trace (Column Oven Temperature)]
Interval(msec)	1000
# of Points	240
Start Time(min)	0.010
End Time(min)	3.994
Intensity Units	
Intensity Multiplier	1
R.Time (min)	Intensity
0.01045	35.05
0.02712	35.05
0.04378	35.06
0.06045	35.05
0.07712	35.05
0.09378	35.05
0.11045	35.05
0.12712	35.05
0.14378	35.05
0.16045	35.05
0.17712	35.04
0.19378	35.04
0.21045	35.05
0.22712	35.05
0.24378	35.05
0.26045	35.04
0.27712	35.03
0.29378	35.02
0.31045	35.01
0.32712	35.01
0.34378	35.01
0.36045	35.01
0.37712	35.01
0.39378	35.01
0.41045	35.01
0.42712	35.01
0.44378	35.02
0.46045	35.02
0.47712	35.01
0.49378	35.01
0.51045	35.00
0.52712	35.01
0.54378	35.01
0.56045	35.02
0.57712	35.02
0.59378	35.02
0.61045	35.00
0.62712	35.00
0.64378	35.00
0.66045	35.00
0.67712	34.99
0.69378	35.00
0.71045	35.01
0.72712	35.01
0.74378	35.01
0.76045	35.01
0.77712	35.01
0.79378	35.00
0.81045	35.01
0.82712	35.01
0.84378	35.01
0.86045	35.01
0.87712	35.01
0.89378	35.00
0.91045	35.00
0.92712	35.00
0.94378	34.99
0.96045	34.99
0.97712	35.00
0.99378	35.01
1.01045	35.01
1.02712	35.00
1.04378	34.99
1.06045	34.97
1.07712	34.98
1.09378	34.98
1.11045	34.99
1.12712	34.99
1.14378	34.99
1.16045	34.99
1.17712	35.00
1.19378	35.00
1.21045	35.00
1.22712	35.01
1.24378	35.02
1.26045	35.02
1.27712	35.02
1.29378	35.00
1.31045	35.01
1.32712	35.00
1.34378	35.01
1.36045	35.01
1.37712	35.02
1.39378	35.02
1.41045	35.01
1.42712	35.01
1.44378	35.00
1.46045	34.99
1.47712	34.99
1.49378	34.99
1.51045	34.99
1.52712	34.98
1.54378	34.97
1.56045	34.97
1.57712	34.98
1.59378	35.00
1.61045	35.07
1.62712	35.21
1.64378	35.39
1.66045	35.65
1.67712	36.00
1.69378	36.37
1.71045	36.71
1.72712	37.05
1.74378	37.39
1.76045	37.72
1.77712	38.06
1.79378	38.38
1.81045	38.72
1.82712	39.04
1.84378	39.37
1.86045	39.69
1.87712	40.03
1.89378	40.36
1.91045	40.69
1.92712	41.01
1.94378	41.34
1.96045	41.67
1.97712	42.00
1.99378	42.32
2.01045	42.63
2.02712	42.95
2.04378	43.27
2.06045	43.60
2.07712	43.91
2.09378	44.24
2.11045	44.56
2.12712	44.88
2.14378	45.21
2.16045	45.54
2.17712	45.86
2.19378	46.24
2.21045	46.59
2.22712	46.90
2.24378	47.22
2.26045	47.55
2.27712	47.88
2.29378	48.21
2.31045	48.53
2.32712	48.91
2.34378	49.21
2.36045	49.49
2.37712	49.65
2.39378	49.69
2.41045	49.67
2.42712	49.68
2.44378	49.70
2.46045	49.70
2.47712	49.73
2.49378	49.73
2.51045	49.75
2.52712	49.75
2.54378	49.79
2.56045	49.79
2.57712	49.81
2.59378	49.83
2.61045	49.82
2.62712	49.82
2.64378	49.82
2.66045	49.83
2.67712	49.85
2.69378	49.86
2.71045	49.85
2.72712	49.85
2.74378	49.86
2.76045	49.86
2.77712	49.86
2.79378	49.87
2.81045	49.85
2.82712	49.85
2.84378	49.88
2.86045	49.90
2.87712	49.92
2.89378	49.93
2.91045	49.93
2.92712	49.93
2.94378	49.96
2.96045	49.98
2.97712	49.98
2.99378	50.00
3.01045	50.02
3.02712	50.03
3.04378	50.03
3.06045	50.04
3.07712	50.04
3.09378	50.04
3.11045	50.04
3.12712	50.05
3.14378	50.05
3.16045	50.05
3.17712	50.06
3.19378	50.06
3.21045	50.07
3.22712	50.07
3.24378	50.08
3.26045	50.09
3.27712	50.09
3.29378	50.10
3.31045	50.11
3.32712	50.11
3.34378	50.09
3.36045	50.08
3.37712	50.07
3.39378	50.07
3.41045	50.07
3.42712	50.07
3.44378	50.06
3.46045	50.04
3.47712	50.04
3.49378	50.03
3.51045	50.03
3.52712	50.03
3.54378	50.04
3.56045	50.06
3.57712	50.06
3.59378	50.06
3.61045	50.07
3.62712	50.07
3.64378	50.06
3.66045	50.06
3.67712	50.05
3.69378	50.04
3.71045	50.04
3.72712	50.04
3.74378	50.05
3.76045	50.04
3.77712	50.06
3.79378	50.06
3.81045	50.06
3.82712	50.05
3.84378	50.05
3.86045	50.05
3.87712	50.06
3.89378	50.06
3.91045	50.07
3.92712	50.06
3.94378	50.06
3.96045	50.06
3.97712	50.08
3.99378	50.07

[Status Trace (Injection Unit Temperature)]
Interval(msec)	1000
# of Points	240
Start Time(min)	0.010
End Time(min)	3.994
Intensity Units	
Intensity Multiplier	1
R.Time (min)	Intensity
0.01045	99.98
0.02712	99.97
0.04378	99.97
0.06045	99.98
0.07712	99.98
0.09378	99.98
0.11045	99.98
0.12712	99.98
0.14378	99.98
0.16045	99.97
0.17712	99.98
0.19378	99.98
0.21045	99.97
0.22712	99.98
0.24378	99.98
0.26045	99.98
0.27712	99.98
0.29378	99.98
0.31045	99.98
0.32712	99.98
0.34378	99.98
0.36045	99.98
0.37712	99.98
0.39378	99.98
0.41045	99.98
0.42712	99.98
0.44378	99.98
0.46045	99.98
0.47712	99.98
0.49378	99.98
0.51045	99.98
0.52712	99.98
0.54378	99.98
0.56045	99.98
0.57712	99.98
0.59378	99.98
0.61045	99.98
0.62712	99.99
0.64378	99.98
0.66045	99.98
0.67712	99.98
0.69378	99.98
0.71045	99.99
0.72712	99.99
0.74378	99.98
0.76045	99.99
0.77712	99.98
0.79378	99.98
0.81045	99.98
0.82712	99.98
0.84378	99.98
0.86045	99.98
0.87712	99.98
0.89378	99.98
0.91045	99.98
0.92712	99.98
0.94378	99.98
0.96045	99.98
0.97712	99.98
0.99378	99.98
1.01045	99.98
1.02712	99.98
1.04378	99.98
1.06045	99.97
1.07712	99.98
1.09378	99.98
1.11045	99.98
1.12712	99.97
1.14378	99.98
1.16045	99.98
1.17712	99.98
1.19378	99.98
1.21045	99.98
1.22712	99.98
1.24378	99.98
1.26045	99.98
1.27712	99.97
1.29378	99.98
1.31045	99.98
1.32712	99.98
1.34378	99.98
1.36045	99.98
1.37712	99.98
1.39378	99.98
1.41045	99.98
1.42712	99.98
1.44378	99.98
1.46045	99.98
1.47712	99.98
1.49378	99.98
1.51045	99.98
1.52712	99.98
1.54378	99.98
1.56045	99.99
1.57712	99.98
1.59378	99.98
1.61045	99.99
1.62712	99.98
1.64378	99.99
1.66045	99.98
1.67712	99.99
1.69378	99.98
1.71045	99.99
1.72712	99.98
1.74378	99.98
1.76045	99.98
1.77712	99.98
1.79378	99.98
1.81045	99.98
1.82712	99.98
1.84378	99.98
1.86045	99.98
1.87712	99.98
1.89378	99.98
1.91045	99.98
1.92712	99.98
1.94378	99.98
1.96045	99.98
1.97712	99.97
1.99378	99.97
2.01045	99.97
2.02712	99.97
2.04378	99.97
2.06045	99.97
2.07712	99.97
2.09378	99.97
2.11045	99.97
2.12712	99.97
2.14378	99.97
2.16045	99.97
2.17712	99.97
2.19378	99.97
2.21045	99.97
2.22712	99.97
2.24378	99.96
2.26045	99.96
2.27712	99.96
2.29378	99.96
2.31045	99.97
2.32712	99.96
2.34378	99.97
2.36045	99.96
2.37712	99.96
2.39378	99.97
2.41045	99.97
2.42712	99.97
2.44378	99.97
2.46045	99.97
2.47712	99.96
2.49378	99.97
2.51045	99.97
2.52712	99.97
2.54378	99.97
2.56045	99.97
2.57712	99.97
2.59378	99.97
2.61045	99.97
2.62712	99.98
2.64378	99.98
2.66045	99.98
2.67712	99.98
2.69378	99.98
2.71045	99.99
2.72712	99.99
2.74378	99.99
2.76045	99.99
2.77712	99.99
2.79378	99.99
2.81045	99.99
2.82712	99.99
2.84378	99.99
2.86045	100.00
2.87712	100.00
2.89378	100.00
2.91045	100.00
2.92712	100.01
2.94378	100.01
2.96045	100.01
2.97712	100.01
2.99378	100.01
3.01045	100.02
3.02712	100.02
3.04378	100.02
3.06045	100.02
3.07712	100.02
3.09378	100.01
3.11045	100.02
3.12712	100.02
3.14378	100.03
3.16045	100.03
3.17712	100.02
3.19378	100.03
3.21045	100.03
3.22712	100.03
3.24378	100.03
3.26045	100.03
3.27712	100.03
3.29378	100.04
3.31045	100.04
3.32712	100.04
3.34378	100.04
3.36045	100.04
3.37712	100.04
3.39378	100.04
3.41045	100.04
3.42712	100.05
3.44378	100.04
3.46045	100.04
3.47712	100.04
3.49378	100.04
3.51045	100.04
3.52712	100.04
3.54378	100.05
3.56045	100.04
3.57712	100.04
3.59378	100.05
3.61045	100.05
3.62712	100.05
3.64378	100.05
3.66045	100.05
3.67712	100.05
3.69378	100.05
3.71045	100.05
3.72712	100.04
3.74378	100.05
3.76045	100.05
3.77712	100.05
3.79378	100.05
3.81045	100.05
3.82712	100.05
3.84378	100.05
3.86045	100.05
3.87712	100.05
3.89378	100.05
3.91045	100.05
3.92712	100.05
3.94378	100.04
3.96045	100.05
3.97712	100.04
3.99378	100.04

[Status Trace (Carrier Gas Pressure)]
Interval(msec)	1000
# of Points	240
Start Time(min)	0.010
End Time(min)	3.994
Intensity Units	
Intensity Multiplier	1
R.Time (min)	Intensity
0.01045	58.00
0.02712	55.05
0.04378	57.43
0.06045	59.55
0.07712	59.05
0.09378	58.02
0.11045	57.99
0.12712	58.01
0.14378	58.01
0.16045	58.00
0.17712	58.00
0.19378	58.00
0.21045	58.00
0.22712	58.00
0.24378	58.00
0.26045	58.00
0.27712	58.00
0.29378	58.00
0.31045	58.00
0.32712	58.00
0.34378	58.00
0.36045	58.00
0.37712	58.00
0.39378	58.00
0.41045	58.00
0.42712	58.00
0.44378	58.00
0.46045	58.00
0.47712	58.00
0.49378	58.00
0.51045	58.00
0.52712	58.00
0.54378	58.00
0.56045	58.00
0.57712	58.00
0.59378	58.00
0.61045	58.00
0.62712	58.00
0.64378	58.00
0.66045	58.00
0.67712	58.00
0.69378	58.00
0.71045	58.00
0.72712	58.00
0.74378	58.00
0.76045	58.00
0.77712	58.00
0.79378	58.00
0.81045	58.00
0.82712	58.00
0.84378	58.00
0.86045	58.00
0.87712	58.00
0.89378	58.00
0.91045	58.00
0.92712	58.00
0.94378	58.00
0.96045	58.00
0.97712	58.00
0.99378	58.00
1.01045	58.00
1.02712	58.00
1.04378	58.00
1.06045	58.00
1.07712	58.00
1.09378	58.00
1.11045	58.00
1.12712	58.00
1.14378	58.00
1.16045	58.00
1.17712	58.00
1.19378	58.00
1.21045	58.00
1.22712	58.00
1.24378	58.00
1.26045	58.00
1.27712	58.00
1.29378	58.00
1.31045	58.00
1.32712	58.00
1.34378	58.00
1.36045	58.00
1.37712	58.00
1.39378	58.00
1.41045	58.00
1.42712	58.00
1.44378	58.00
1.46045	58.00
1.47712	58.00
1.49378	58.00
1.51045	58.00
1.52712	58.00
1.54378	58.00
1.56045	58.00
1.57712	58.00
1.59378	58.00
1.61045	58.00
1.62712	58.00
1.64378	58.00
1.66045	58.00
1.67712	58.01
1.69378	58.00
1.71045	58.00
1.72712	58.00
1.74378	58.00
1.76045	58.00
1.77712	58.00
1.79378	58.00
1.81045	58.00
1.82712	58.00
1.84378	58.00
1.86045	58.00
1.87712	58.00
1.89378	58.00
1.91045	58.00
1.92712	58.00
1.94378	58.00
1.96045	58.00
1.97712	58.00
1.99378	58.00
2.01045	58.00
2.02712	58.00
2.04378	58.00
2.06045	58.00
2.07712	58.00
2.09378	58.00
2.11045	58.00
2.12712	58.00
2.14378	58.00
2.16045	58.00
2.17712	58.00
2.19378	58.00
2.21045	58.00
2.22712	58.00
2.24378	58.00
2.26045	58.00
2.27712	58.00
2.29378	58.00
2.31045	58.00
2.32712	58.00
2.34378	58.00
2.36045	58.00
2.37712	58.00
2.39378	57.99
2.41045	57.99
2.42712	58.00
2.44378	58.00
2.46045	58.00
2.47712	58.00
2.49378	58.00
2.51045	57.99
2.52712	57.98
2.54378	58.00
2.56045	58.00
2.57712	58.00
2.59378	58.00
2.61045	58.00
2.62712	58.00
2.64378	58.00
2.66045	58.00
2.67712	58.00
2.69378	58.00
2.71045	58.00
2.72712	58.00
2.74378	58.00
2.76045	58.00
2.77712	58.00
2.79378	58.00
2.81045	58.00
2.82712	58.00
2.84378	58.00
2.86045	58.00
2.87712	58.00
2.89378	58.00
2.91045	58.00
2.92712	58.00
2.94378	58.00
2.96045	58.00
2.97712	58.00
2.99378	58.00
3.01045	58.00
3.02712	58.00
3.04378	58.00
3.06045	58.00
3.07712	58.00
3.09378	58.00
3.11045	58.00
3.12712	58.00
3.14378	58.00
3.16045	58.00
3.17712	58.00
3.19378	58.00
3.21045	58.00
3.22712	58.00
3.24378	58.00
3.26045	58.00
3.27712	58.00
3.29378	58.00
3.31045	58.00
3.32712	58.00
3.34378	58.00
3.36045	58.00
3.37712	58.00
3.39378	58.00
3.41045	58.00
3.42712	58.00
3.44378	58.00
3.46045	58.00
3.47712	58.00
3.49378	58.00
3.51045	58.00
3.52712	58.00
3.54378	58.00
3.56045	58.00
3.57712	58.00
3.59378	58.00
3.61045	58.00
3.62712	58.00
3.64378	58.00
3.66045	58.00
3.67712	58.00
3.69378	58.00
3.71045	58.00
3.72712	58.00
3.74378	58.00
3.76045	58.00
3.77712	58.00
3.79378	58.00
3.81045	58.00
3.82712	58.00
3.84378	58.00
3.86045	58.00
3.87712	58.00
3.89378	58.00
3.91045	58.00
3.92712	58.00
3.94378	58.00
3.96045	58.00
3.97712	58.00
3.99378	58.00

[Status Trace (Carrier Gas Flow)]
Interval(msec)	1000
# of Points	240
Start Time(min)	0.010
End Time(min)	3.994
Intensity Units	
Intensity Multiplier	1
R.Time (min)	Intensity
0.01045	34.52
0.02712	34.53
0.04378	34.54
0.06045	34.54
0.07712	34.50
0.09378	34.52
0.11045	34.52
0.12712	34.51
0.14378	34.51
0.16045	34.52
0.17712	34.52
0.19378	34.51
0.21045	34.52
0.22712	34.52
0.24378	34.52
0.26045	34.52
0.27712	34.52
0.29378	34.52
0.31045	34.52
0.32712	34.52
0.34378	34.52
0.36045	34.52
0.37712	34.52
0.39378	34.52
0.41045	34.52
0.42712	34.52
0.44378	34.52
0.46045	34.52
0.47712	34.51
0.49378	34.52
0.51045	34.52
0.52712	34.52
0.54378	34.52
0.56045	34.52
0.57712	34.52
0.59378	34.52
0.61045	34.52
0.62712	34.52
0.64378	34.52
0.66045	34.52
0.67712	34.52
0.69378	34.52
0.71045	34.52
0.72712	34.52
0.74378	34.52
0.76045	34.52
0.77712	34.52
0.79378	34.52
0.81045	34.52
0.82712	34.52
0.84378	34.52
0.86045	34.52
0.87712	34.52
0.89378	34.52
0.91045	34.52
0.92712	34.52
0.94378	34.52
0.96045	34.52
0.97712	34.52
0.99378	34.52
1.01045	34.52
1.02712	34.52
1.04378	34.52
1.06045	34.52
1.07712	34.52
1.09378	34.52
1.11045	34.52
1.12712	34.52
1.14378	34.52
1.16045	34.52
1.17712	34.52
1.19378	34.52
1.21045	34.52
1.22712	34.52
1.24378	34.52
1.26045	34.52
1.27712	34.52
1.29378	34.52
1.31045	34.52
1.32712	34.51
1.34378	34.52
1.36045	34.52
1.37712	34.52
1.39378	34.52
1.41045	34.52
1.42712	34.52
1.44378	34.52
1.46045	34.52
1.47712	34.52
1.49378	34.52
1.51045	34.52
1.52712	34.52
1.54378	34.51
1.56045	34.52
1.57712	34.51
1.59378	34.52
1.61045	34.52
1.62712	34.53
1.64378	34.52
1.66045	34.52
1.67712	34.53
1.69378	34.52
1.71045	34.52
1.72712	34.52
1.74378	34.52
1.76045	34.53
1.77712	34.51
1.79378	34.51
1.81045	34.52
1.82712	34.52
1.84378	34.52
1.86045	34.52
1.87712	34.51
1.89378	34.52
1.91045	34.52
1.92712	34.51
1.94378	34.52
1.96045	34.52
1.97712	34.52
1.99378	34.52
2.01045	34.52
2.02712	34.52
2.04378	34.52
2.06045	34.52
2.07712	34.52
2.09378	34.52
2.11045	34.52
2.12712	34.52
2.14378	34.52
2.16045	34.52
2.17712	34.52
2.19378	34.52
2.21045	34.52
2.22712	34.52
2.24378	34.52
2.26045	34.52
2.27712	34.52
2.29378	34.52
2.31045	34.52
2.32712	34.52
2.34378	34.52
2.36045	34.52
2.37712	34.52
2.39378	34.52
2.41045	34.52
2.42712	34.52
2.44378	34.52
2.46045	34.52
2.47712	34.52
2.49378	34.52
2.51045	34.51
2.52712	34.53
2.54378	34.52
2.56045	34.52
2.57712	34.52
2.59378	34.52
2.61045	34.52
2.62712	34.52
2.64378	34.52
2.66045	34.52
2.67712	34.52
2.69378	34.52
2.71045	34.52
2.72712	34.52
2.74378	34.52
2.76045	34.52
2.77712	34.52
2.79378	34.52
2.81045	34.52
2.82712	34.52
2.84378	34.52
2.86045	34.52
2.87712	34.52
2.89378	34.52
2.91045	34.52
2.92712	34.52
2.94378	34.52
2.96045	34.52
2.97712	34.52
2.99378	34.52
3.01045	34.52
3.02712	34.52
3.04378	34.52
3.06045	34.52
3.07712	34.52
3.09378	34.52
3.11045	34.52
3.12712	34.52
3.14378	34.52
3.16045	34.52
3.17712	34.52
3.19378	34.52
3.21045	34.52
3.22712	34.51
3.24378	34.52
3.26045	34.52
3.27712	34.52
3.29378	34.52
3.31045	34.52
3.32712	34.52
3.34378	34.52
3.36045	34.52
3.37712	34.52
3.39378	34.52
3.41045	34.52
3.42712	34.52
3.44378	34.52
3.46045	34.52
3.47712	34.52
3.49378	34.51
3.51045	34.51
3.52712	34.52
3.54378	34.52
3.56045	34.52
3.57712	34.52
3.59378	34.52
3.61045	34.52
3.62712	34.52
3.64378	34.52
3.66045	34.52
3.67712	34.52
3.69378	34.52
3.71045	34.52
3.72712	34.52
3.74378	34.52
3.76045	34.52
3.77712	34.52
3.79378	34.52
3.81045	34.52
3.82712	34.52
3.84378	34.52
3.86045	34.52
3.87712	34.52
3.89378	34.52
3.91045	34.52
3.92712	34.52
3.94378	34.52
3.96045	34.52
3.97712	34.52
3.99378	34.52

[Status Trace (Column Flow)]
Interval(msec)	1000
# of Points	240
Start Time(min)	0.010
End Time(min)	3.994
Intensity Units	
Intensity Multiplier	1
R.Time (min)	Intensity
0.01045	5.57
0.02712	5.23
0.04378	5.50
0.06045	5.75
0.07712	5.70
0.09378	5.57
0.11045	5.57
0.12712	5.57
0.14378	5.57
0.16045	5.57
0.17712	5.57
0.19378	5.57
0.21045	5.57
0.22712	5.57
0.24378	5.57
0.26045	5.57
0.27712	5.57
0.29378	5.57
0.31045	5.57
0.32712	5.57
0.34378	5.57
0.36045	5.57
0.37712	5.57
0.39378	5.57
0.41045	5.57
0.42712	5.57
0.44378	5.57
0.46045	5.57
0.47712	5.57
0.49378	5.57
0.51045	5.57
0.52712	5.57
0.54378	5.57
0.56045	5.57
0.57712	5.57
0.59378	5.57
0.61045	5.57
0.62712	5.57
0.64378	5.57
0.66045	5.57
0.67712	5.57
0.69378	5.57
0.71045	5.57
0.72712	5.57
0.74378	5.57
0.76045	5.57
0.77712	5.57
0.79378	5.57
0.81045	5.57
0.82712	5.57
0.84378	5.57
0.86045	5.57
0.87712	5.57
0.89378	5.57
0.91045	5.57
0.92712	5.57
0.94378	5.57
0.96045	5.57
0.97712	5.57
0.99378	5.57
1.01045	5.57
1.02712	5.57
1.04378	5.57
1.06045	5.57
1.07712	5.57
1.09378	5.57
1.11045	5.57
1.12712	5.57
1.14378	5.57
1.16045	5.57
1.17712	5.57
1.19378	5.57
1.21045	5.57
1.22712	5.57
1.24378	5.57
1.26045	5.57
1.27712	5.57
1.29378	5.57
1.31045	5.57
1.32712	5.57
1.34378	5.57
1.36045	5.57
1.37712	5.57
1.39378	5.57
1.41045	5.57
1.42712	5.57
1.44378	5.57
1.46045	5.57
1.47712	5.57
1.49378	5.57
1.51045	5.57
1.52712	5.57
1.54378	5.57
1.56045	5.57
1.57712	5.57
1.59378	5.57
1.61045	5.57
1.62712	5.57
1.64378	5.56
1.66045	5.55
1.67712	5.54
1.69378	5.53
1.71045	5.52
1.72712	5.51
1.74378	5.50
1.76045	5.49
1.77712	5.48
1.79378	5.47
1.81045	5.46
1.82712	5.45
1.84378	5.44
1.86045	5.43
1.87712	5.42
1.89378	5.41
1.91045	5.40
1.92712	5.39
1.94378	5.38
1.96045	5.37
1.97712	5.36
1.99378	5.35
2.01045	5.34
2.02712	5.33
2.04378	5.32
2.06045	5.31
2.07712	5.30
2.09378	5.29
2.11045	5.28
2.12712	5.27
2.14378	5.26
2.16045	5.25
2.17712	5.24
2.19378	5.23
2.21045	5.22
2.22712	5.21
2.24378	5.21
2.26045	5.19
2.27712	5.19
2.29378	5.18
2.31045	5.17
2.32712	5.16
2.34378	5.15
2.36045	5.14
2.37712	5.13
2.39378	5.13
2.41045	5.13
2.42712	5.13
2.44378	5.13
2.46045	5.13
2.47712	5.13
2.49378	5.13
2.51045	5.13
2.52712	5.13
2.54378	5.13
2.56045	5.13
2.57712	5.13
2.59378	5.13
2.61045	5.13
2.62712	5.13
2.64378	5.13
2.66045	5.13
2.67712	5.13
2.69378	5.13
2.71045	5.13
2.72712	5.13
2.74378	5.13
2.76045	5.13
2.77712	5.13
2.79378	5.13
2.81045	5.13
2.82712	5.13
2.84378	5.13
2.86045	5.13
2.87712	5.13
2.89378	5.13
2.91045	5.13
2.92712	5.13
2.94378	5.13
2.96045	5.13
2.97712	5.13
2.99378	5.13
3.01045	5.13
3.02712	5.12
3.04378	5.12
3.06045	5.12
3.07712	5.12
3.09378	5.12
3.11045	5.12
3.12712	5.12
3.14378	5.12
3.16045	5.12
3.17712	5.12
3.19378	5.12
3.21045	5.12
3.22712	5.12
3.24378	5.12
3.26045	5.12
3.27712	5.12
3.29378	5.12
3.31045	5.12
3.32712	5.12
3.34378	5.12
3.36045	5.12
3.37712	5.12
3.39378	5.12
3.41045	5.12
3.42712	5.12
3.44378	5.12
3.46045	5.12
3.47712	5.12
3.49378	5.12
3.51045	5.12
3.52712	5.12
3.54378	5.12
3.56045	5.12
3.57712	5.12
3.59378	5.12
3.61045	5.12
3.62712	5.12
3.64378	5.12
3.66045	5.12
3.67712	5.12
3.69378	5.12
3.71045	5.12
3.72712	5.12
3.74378	5.12
3.76045	5.12
3.77712	5.12
3.79378	5.12
3.81045	5.12
3.82712	5.12
3.84378	5.12
3.86045	5.12
3.87712	5.12
3.89378	5.12
3.91045	5.12
3.92712	5.12
3.94378	5.12
3.96045	5.12
3.97712	5.12
3.99378	5.12

[Status Trace (Linear Velocity)]
Interval(msec)	1000
# of Points	240
Start Time(min)	0.010
End Time(min)	3.994
Intensity Units	
Intensity Multiplier	1
R.Time (min)	Intensity
0.01045	39.02
0.02712	37.09
0.04378	38.65
0.06045	40.04
0.07712	39.71
0.09378	39.03
0.11045	39.02
0.12712	39.03
0.14378	39.03
0.16045	39.03
0.17712	39.03
0.19378	39.03
0.21045	39.02
0.22712	39.02
0.24378	39.02
0.26045	39.03
0.27712	39.03
0.29378	39.03
0.31045	39.03
0.32712	39.03
0.34378	39.03
0.36045	39.03
0.37712	39.03
0.39378	39.03
0.41045	39.03
0.42712	39.03
0.44378	39.03
0.46045	39.03
0.47712	39.03
0.49378	39.03
0.51045	39.03
0.52712	39.03
0.54378	39.03
0.56045	39.03
0.57712	39.03
0.59378	39.03
0.61045	39.03
0.62712	39.03
0.64378	39.03
0.66045	39.03
0.67712	39.03
0.69378	39.03
0.71045	39.03
0.72712	39.03
0.74378	39.03
0.76045	39.03
0.77712	39.03
0.79378	39.03
0.81045	39.03
0.82712	39.03
0.84378	39.03
0.86045	39.03
0.87712	39.03
0.89378	39.03
0.91045	39.03
0.92712	39.03
0.94378	39.03
0.96045	39.03
0.97712	39.03
0.99378	39.03
1.01045	39.03
1.02712	39.03
1.04378	39.03
1.06045	39.03
1.07712	39.03
1.09378	39.03
1.11045	39.03
1.12712	39.03
1.14378	39.03
1.16045	39.03
1.17712	39.03
1.19378	39.03
1.21045	39.03
1.22712	39.03
1.24378	39.03
1.26045	39.03
1.27712	39.03
1.29378	39.03
1.31045	39.03
1.32712	39.03
1.34378	39.03
1.36045	39.03
1.37712	39.03
1.39378	39.03
1.41045	39.03
1.42712	39.03
1.44378	39.03
1.46045	39.03
1.47712	39.03
1.49378	39.03
1.51045	39.03
1.52712	39.03
1.54378	39.03
1.56045	39.03
1.57712	39.03
1.59378	39.03
1.61045	39.02
1.62712	39.01
1.64378	39.00
1.66045	38.97
1.67712	38.94
1.69378	38.90
1.71045	38.86
1.72712	38.83
1.74378	38.80
1.76045	38.77
1.77712	38.74
1.79378	38.71
1.81045	38.67
1.82712	38.64
1.84378	38.62
1.86045	38.58
1.87712	38.55
1.89378	38.52
1.91045	38.49
1.92712	38.46
1.94378	38.43
1.96045	38.40
1.97712	38.37
1.99378	38.34
2.01045	38.31
2.02712	38.28
2.04378	38.25
2.06045	38.22
2.07712	38.19
2.09378	38.16
2.11045	38.13
2.12712	38.10
2.14378	38.08
2.16045	38.04
2.17712	38.01
2.19378	37.98
2.21045	37.95
2.22712	37.92
2.24378	37.90
2.26045	37.86
2.27712	37.83
2.29378	37.81
2.31045	37.77
2.32712	37.74
2.34378	37.72
2.36045	37.69
2.37712	37.67
2.39378	37.67
2.41045	37.67
2.42712	37.67
2.44378	37.67
2.46045	37.67
2.47712	37.67
2.49378	37.67
2.51045	37.66
2.52712	37.66
2.54378	37.66
2.56045	37.66
2.57712	37.66
2.59378	37.66
2.61045	37.66
2.62712	37.66
2.64378	37.66
2.66045	37.66
2.67712	37.66
2.69378	37.66
2.71045	37.66
2.72712	37.66
2.74378	37.66
2.76045	37.66
2.77712	37.66
2.79378	37.66
2.81045	37.66
2.82712	37.66
2.84378	37.66
2.86045	37.65
2.87712	37.65
2.89378	37.65
2.91045	37.65
2.92712	37.65
2.94378	37.65
2.96045	37.65
2.97712	37.64
2.99378	37.64
3.01045	37.64
3.02712	37.64
3.04378	37.64
3.06045	37.64
3.07712	37.64
3.09378	37.64
3.11045	37.64
3.12712	37.64
3.14378	37.64
3.16045	37.64
3.17712	37.64
3.19378	37.64
3.21045	37.64
3.22712	37.64
3.24378	37.64
3.26045	37.64
3.27712	37.64
3.29378	37.64
3.31045	37.63
3.32712	37.63
3.34378	37.64
3.36045	37.64
3.37712	37.64
3.39378	37.64
3.41045	37.64
3.42712	37.64
3.44378	37.64
3.46045	37.64
3.47712	37.64
3.49378	37.64
3.51045	37.64
3.52712	37.64
3.54378	37.64
3.56045	37.64
3.57712	37.64
3.59378	37.64
3.61045	37.64
3.62712	37.64
3.64378	37.64
3.66045	37.64
3.67712	37.64
3.69378	37.64
3.71045	37.64
3.72712	37.64
3.74378	37.64
3.76045	37.64
3.77712	37.64
3.79378	37.64
3.81045	37.64
3.82712	37.64
3.84378	37.64
3.86045	37.64
3.87712	37.64
3.89378	37.64
3.91045	37.64
3.92712	37.64
3.94378	37.64
3.96045	37.64
3.97712	37.64
3.99378	37.64

