[Header]
Application Name	LabSolutions
Version	5.110
Data File Name	C:\Users\User\Desktop\GC Analyses\Jack\Nachusa Grasslands Sampling\T0 Timepoint July 12th\T0_07122022_081.gcd
Output Date	3/14/2023
Output Time	3:40:39 PM

[File Information]
Type	Data File
Generated	3/7/2023 10:49:58 PM
Generated by	System Administrator
Modified	3/7/2023 10:56:36 PM
Modified by	System Administrator

[Sample Information]
Operator Name	System Administrator
Acquired	3/7/2023 10:52:36 PM
Sample Type	0:Unknown
Level	0
Sample Name	081
Sample ID	081
ISTD Amount1	1
ISTD Amount2	1
ISTD Amount3	1
ISTD Amount4	1
ISTD Amount5	1
ISTD Amount6	1
ISTD Amount7	1
ISTD Amount8	1
ISTD Amount9	1
ISTD Amount10	1
ISTD Amount11	1
ISTD Amount12	1
ISTD Amount13	1
ISTD Amount14	1
ISTD Amount15	1
ISTD Amount16	1
ISTD Amount17	1
ISTD Amount18	1
ISTD Amount19	1
ISTD Amount20	1
ISTD Amount21	1
ISTD Amount22	1
ISTD Amount23	1
ISTD Amount24	1
ISTD Amount25	1
ISTD Amount26	1
ISTD Amount27	1
ISTD Amount28	1
ISTD Amount29	1
ISTD Amount30	1
ISTD Amount31	1
ISTD Amount32	1
Sample Amount	1
Dilution Factor	1
Vial#	80
Injection Volume	1
Injection Count	1
Bar Code	

[Original Files]
Data File	C:\Users\User\Desktop\GC Analyses\Jack\Nachusa Grasslands Sampling\T0 Timepoint July 12th\T0_07122022_081.gcd
Method File	C:\LabSolutions\Data\GHG_4min_2022\ghg3_togas_w_acet_4 min_new_int.gcm
Batch File	C:\LabSolutions\Data\AutoSamplerTesting\T0_07122022.gcb
Report Format File	c:\LabSolutions\System\DEFAULT.lsr

[File Description]


[Configuration]
Instrument Name	C0B7VH3-Instrument1
Instrument #	1
Line #	1
# of Detectors	3
Detector ID	DET#1	DET#2	DET#3
Detector Name	FID	PTCD	ECD
# of Channels	1	1	1

[Peak Table(Ch1)]
# of Peaks	4
Peak#	R.Time	I.Time	F.Time	Area	Height	A/H	Conc.	Mark	ID#	Name	k'	Plate #	Plate Ht.	Tailing	Resolution	Sep.Factor	Area Ratio	Height Ratio	Conc. %	Norm Conc.
1	0.346	0.170	0.478	1163	133	8.773	0.000	   			0.000	58	2599.878	0.874	0.000	0.000	0	0	0.000	0.000
2	1.476	1.435	1.538	58059	27952	2.077	409.897	   	1	CO	3.261	9358	16.028	1.331	9.280	0.000	0	0	49.354	49.354
3	1.567	1.538	1.626	5208	2481	2.099	100.710	 V 	2	CH4	3.526	9913	15.131	0.000	1.479	1.081	0	0	12.126	12.126
4	1.996	1.941	2.484	1274691	602032	2.117	319.913	   	3	CO2	4.764	17259	8.691	1.300	6.933	1.351	0	0	38.520	38.520

[Peak Table(Ch2)]
# of Peaks	0

[Peak Table(Ch3)]
# of Peaks	4
Peak#	R.Time	I.Time	F.Time	Area	Height	A/H	Conc.	Mark	ID#	Name	k'	Plate #	Plate Ht.	Tailing	Resolution	Sep.Factor	Area Ratio	Height Ratio	Conc. %	Norm Conc.
1	2.458	2.301	2.517	1731	446	3.885	0.000	   			0.000	9312	16.108	0.000	0.000	0.000	0	0	0.000	0.000
2	2.546	2.517	2.631	849	189	4.493	0.000	 V 			0.036	3407	44.028	0.000	0.637	0.000	0	0	0.000	0.000
3	2.873	2.645	3.137	22207	4984	4.456	0.567	   	1	N2O	0.169	12799	11.719	1.855	2.364	4.708	0	0	100.000	100.000
4	3.228	3.140	3.749	12947	620	20.897	0.000	   	2	SF6	0.313	586	255.834	3.427	1.120	1.858	0	0	0.000	0.000

[Compound Results(Ch1)]
# of IDs	6
ID#	Name	R.Time	Area	Height	Conc.	Curve	3rd	2nd	1st	Constant	Area Ratio	Height Ratio	Conc. %	Norm Conc.
1	CO	1.476	58059	27952	409.897	Linear	0.000000e+00	0.000000e+00	1.416423e+002	0.000000e+00	0	0	49.354	49.354
2	CH4	1.567	5208	2481	100.710	Linear	0.000000e+00	0.000000e+00	5.171738e+001	0.000000e+00	0	0	12.126	12.126
3	CO2	1.996	1274691	602032	319.913	Linear	0.000000e+00	0.000000e+00	3.984494e+003	0.000000e+00	0	0	38.520	38.520
4	Ethylene	0.000	0	0	0.000	Linear	0.000000e+00	0.000000e+00	0.000000e+00	0.000000e+00	0	0	0.000	0.000
5	Acetylene	0.000	0	0	0.000	Linear	0.000000e+00	0.000000e+00	0.000000e+00	0.000000e+00	0	0	0.000	0.000
6	Ethane	0.000	0	0	0.000	Linear	0.000000e+00	0.000000e+00	0.000000e+00	0.000000e+00	0	0	0.000	0.000

[Compound Results(Ch2)]
# of IDs	5
ID#	Name	R.Time	Area	Height	Conc.	Curve	3rd	2nd	1st	Constant	Area Ratio	Height Ratio	Conc. %	Norm Conc.
1	Hydrogen	0.000	0	0	0.000	Linear	0.000000e+00	0.000000e+00	0.000000e+00	0.000000e+00	0	0	0.000	0.000
2	Oxygen	0.000	0	0	0.000	Linear	0.000000e+00	0.000000e+00	0.000000e+00	0.000000e+00	0	0	0.000	0.000
3	Nitrogen	0.000	0	0	0.000	Linear	0.000000e+00	0.000000e+00	0.000000e+00	0.000000e+00	0	0	0.000	0.000
4	Methane	0.000	0	0	0.000	Linear	0.000000e+00	0.000000e+00	0.000000e+00	0.000000e+00	0	0	0.000	0.000
5	Carbon Monoxide	0.000	0	0	0.000	Linear	0.000000e+00	0.000000e+00	0.000000e+00	0.000000e+00	0	0	0.000	0.000

[Compound Results(Ch3)]
# of IDs	2
ID#	Name	R.Time	Area	Height	Conc.	Curve	3rd	2nd	1st	Constant	Area Ratio	Height Ratio	Conc. %	Norm Conc.
1	N2O	2.873	22207	4984	0.567	Linear	0.000000e+00	0.000000e+00	3.915173e+004	0.000000e+00	0	0	100.000	100.000
2	SF6	3.228	12947	620	0.000	Linear	0.000000e+00	0.000000e+00	0.000000e+00	0.000000e+00	0	0	0.000	0.000

[Group Results(Ch1)]
# of Groups	0

[Group Results(Ch2)]
# of Groups	0

[Group Results(Ch3)]
# of Groups	0

[Chromatogram (Ch1)]
Interval(msec)	220
# of Points	1091
Start Time(min)	0.002
End Time(min)	3.998
R.Time (min)	Intensity
0.00167	-7
0.00533	-13
0.00900	-17
0.01267	-21
0.01633	-22
0.02000	-16
0.02367	-7
0.02733	1
0.03100	2
0.03467	-5
0.03833	-11
0.04200	-13
0.04567	-10
0.04933	-5
0.05300	0
0.05667	-0
0.06033	-0
0.06400	1
0.06767	2
0.07133	5
0.07500	9
0.07867	13
0.08233	18
0.08600	19
0.08967	21
0.09333	24
0.09700	28
0.10067	34
0.10433	37
0.10800	37
0.11167	33
0.11533	29
0.11900	22
0.12267	10
0.12633	-2
0.13000	-9
0.13367	-13
0.13733	-16
0.14100	-16
0.14467	-13
0.14833	-11
0.15200	-12
0.15567	-13
0.15933	-10
0.16300	-5
0.16667	-3
0.17033	-0
0.17400	7
0.17767	14
0.18133	18
0.18500	17
0.18867	16
0.19233	17
0.19600	19
0.19967	20
0.20333	24
0.20700	30
0.21067	38
0.21433	45
0.21800	52
0.22167	57
0.22533	57
0.22900	53
0.23267	47
0.23633	42
0.24000	38
0.24367	32
0.24733	33
0.25100	40
0.25467	45
0.25833	53
0.26200	63
0.26567	71
0.26933	79
0.27300	89
0.27667	99
0.28033	109
0.28400	118
0.28767	121
0.29133	122
0.29500	117
0.29867	112
0.30233	110
0.30600	110
0.30967	114
0.31333	115
0.31700	118
0.32067	122
0.32433	122
0.32800	121
0.33167	124
0.33533	131
0.33900	138
0.34267	143
0.34633	145
0.35000	141
0.35367	134
0.35733	131
0.36100	131
0.36467	132
0.36833	126
0.37200	115
0.37567	104
0.37933	97
0.38300	89
0.38667	86
0.39033	85
0.39400	86
0.39767	89
0.40133	93
0.40500	94
0.40867	89
0.41233	77
0.41600	65
0.41967	55
0.42333	47
0.42700	42
0.43067	41
0.43433	38
0.43800	35
0.44167	38
0.44533	43
0.44900	48
0.45267	54
0.45633	55
0.46000	53
0.46367	48
0.46733	42
0.47100	35
0.47467	30
0.47833	22
0.48200	15
0.48567	11
0.48933	6
0.49300	4
0.49667	6
0.50033	14
0.50400	24
0.50767	27
0.51133	28
0.51500	28
0.51867	27
0.52233	27
0.52600	26
0.52967	23
0.53333	18
0.53700	15
0.54067	15
0.54433	15
0.54800	17
0.55167	22
0.55533	25
0.55900	26
0.56267	26
0.56633	27
0.57000	29
0.57367	32
0.57733	38
0.58100	46
0.58467	54
0.58833	55
0.59200	49
0.59567	37
0.59933	24
0.60300	13
0.60667	6
0.61033	3
0.61400	1
0.61767	4
0.62133	7
0.62500	7
0.62867	4
0.63233	2
0.63600	4
0.63967	11
0.64333	20
0.64700	25
0.65067	24
0.65433	20
0.65800	12
0.66167	4
0.66533	1
0.66900	4
0.67267	7
0.67633	12
0.68000	15
0.68367	16
0.68733	17
0.69100	20
0.69467	25
0.69833	27
0.70200	28
0.70567	24
0.70933	16
0.71300	7
0.71667	3
0.72033	4
0.72400	8
0.72767	13
0.73133	16
0.73500	16
0.73867	16
0.74233	14
0.74600	11
0.74967	13
0.75333	13
0.75700	12
0.76067	10
0.76433	10
0.76800	10
0.77167	8
0.77533	3
0.77900	-2
0.78267	-6
0.78633	-6
0.79000	1
0.79367	9
0.79733	15
0.80100	19
0.80467	18
0.80833	14
0.81200	9
0.81567	6
0.81933	4
0.82300	3
0.82667	5
0.83033	11
0.83400	16
0.83767	18
0.84133	17
0.84500	18
0.84867	21
0.85233	23
0.85600	19
0.85967	10
0.86333	2
0.86700	-1
0.87067	0
0.87433	5
0.87800	10
0.88167	13
0.88533	13
0.88900	12
0.89267	12
0.89633	11
0.90000	8
0.90367	8
0.90733	9
0.91100	12
0.91467	11
0.91833	6
0.92200	-1
0.92567	-3
0.92933	-3
0.93300	-1
0.93667	-1
0.94033	-3
0.94400	-3
0.94767	1
0.95133	6
0.95500	7
0.95867	8
0.96233	5
0.96600	-1
0.96967	-6
0.97333	-9
0.97700	-11
0.98067	-12
0.98433	-13
0.98800	-11
0.99167	-6
0.99533	-6
0.99900	-5
1.00267	-3
1.00633	-2
1.01000	-3
1.01367	1
1.01733	8
1.02100	14
1.02467	16
1.02833	13
1.03200	5
1.03567	-6
1.03933	-17
1.04300	-22
1.04667	-22
1.05033	-14
1.05400	2
1.05767	21
1.06133	33
1.06500	35
1.06867	33
1.07233	29
1.07600	22
1.07967	14
1.08333	12
1.08700	13
1.09067	19
1.09433	27
1.09800	32
1.10167	36
1.10533	36
1.10900	38
1.11267	40
1.11633	40
1.12000	41
1.12367	42
1.12733	39
1.13100	32
1.13467	28
1.13833	28
1.14200	30
1.14567	27
1.14933	23
1.15300	18
1.15667	17
1.16033	17
1.16400	15
1.16767	13
1.17133	13
1.17500	13
1.17867	14
1.18233	17
1.18600	22
1.18967	28
1.19333	36
1.19700	41
1.20067	40
1.20433	37
1.20800	38
1.21167	42
1.21533	44
1.21900	44
1.22267	41
1.22633	37
1.23000	30
1.23367	22
1.23733	16
1.24100	12
1.24467	8
1.24833	6
1.25200	5
1.25567	6
1.25933	10
1.26300	17
1.26667	24
1.27033	31
1.27400	37
1.27767	37
1.28133	34
1.28500	28
1.28867	21
1.29233	14
1.29600	8
1.29967	8
1.30333	13
1.30700	20
1.31067	27
1.31433	31
1.31800	32
1.32167	32
1.32533	31
1.32900	30
1.33267	31
1.33633	32
1.34000	32
1.34367	31
1.34733	33
1.35100	35
1.35467	33
1.35833	27
1.36200	22
1.36567	17
1.36933	10
1.37300	2
1.37667	-4
1.38033	-9
1.38400	-16
1.38767	-20
1.39133	-20
1.39500	-17
1.39867	-13
1.40233	-9
1.40600	-5
1.40967	-2
1.41333	-1
1.41700	-1
1.42067	-0
1.42433	4
1.42800	12
1.43167	20
1.43533	27
1.43900	51
1.44267	156
1.44633	480
1.45000	1517
1.45367	4185
1.45733	8729
1.46100	14224
1.46467	19473
1.46833	23736
1.47200	26663
1.47567	27992
1.47933	27484
1.48300	25146
1.48667	21437
1.49033	17151
1.49400	13039
1.49767	9561
1.50133	6857
1.50500	4869
1.50867	3462
1.51233	2484
1.51600	1811
1.51967	1348
1.52333	1033
1.52700	814
1.53067	656
1.53433	541
1.53800	472
1.54167	485
1.54533	639
1.54900	954
1.55267	1374
1.55633	1797
1.56000	2157
1.56367	2420
1.56733	2554
1.57100	2528
1.57467	2329
1.57833	1990
1.58200	1592
1.58567	1211
1.58933	893
1.59300	645
1.59667	462
1.60033	331
1.60400	241
1.60767	183
1.61133	144
1.61500	119
1.61867	105
1.62233	98
1.62600	93
1.62967	90
1.63333	87
1.63700	82
1.64067	78
1.64433	73
1.64800	69
1.65167	66
1.65533	65
1.65900	61
1.66267	55
1.66633	52
1.67000	51
1.67367	50
1.67733	47
1.68100	45
1.68467	44
1.68833	43
1.69200	43
1.69567	43
1.69933	42
1.70300	40
1.70667	40
1.71033	42
1.71400	46
1.71767	46
1.72133	41
1.72500	34
1.72867	30
1.73233	28
1.73600	26
1.73967	29
1.74333	30
1.74700	30
1.75067	30
1.75433	31
1.75800	31
1.76167	29
1.76533	26
1.76900	23
1.77267	23
1.77633	26
1.78000	31
1.78367	41
1.78733	49
1.79100	54
1.79467	53
1.79833	47
1.80200	37
1.80567	26
1.80933	21
1.81300	22
1.81667	26
1.82033	25
1.82400	20
1.82767	12
1.83133	8
1.83500	10
1.83867	17
1.84233	25
1.84600	31
1.84967	30
1.85333	25
1.85700	20
1.86067	11
1.86433	3
1.86800	1
1.87167	4
1.87533	9
1.87900	14
1.88267	18
1.88633	21
1.89000	28
1.89367	36
1.89733	41
1.90100	44
1.90467	45
1.90833	43
1.91200	39
1.91567	37
1.91933	34
1.92300	33
1.92667	31
1.93033	30
1.93400	32
1.93767	35
1.94133	40
1.94500	48
1.94867	59
1.95233	81
1.95600	195
1.95967	842
1.96333	3736
1.96700	13535
1.97067	38967
1.97433	90475
1.97800	173030
1.98167	279696
1.98533	393438
1.98900	494746
1.99267	567775
1.99633	602119
2.00000	593693
2.00367	545856
2.00733	469586
2.01100	380222
2.01467	292327
2.01833	215791
2.02200	154769
2.02567	109102
2.02933	76406
2.03300	53680
2.03667	38168
2.04033	27673
2.04400	20580
2.04767	15757
2.05133	12438
2.05500	10111
2.05867	8443
2.06233	7217
2.06600	6293
2.06967	5579
2.07333	5015
2.07700	4562
2.08067	4191
2.08433	3878
2.08800	3607
2.09167	3371
2.09533	3165
2.09900	2981
2.10267	2818
2.10633	2673
2.11000	2546
2.11367	2429
2.11733	2321
2.12100	2218
2.12467	2122
2.12833	2036
2.13200	1960
2.13567	1893
2.13933	1829
2.14300	1769
2.14667	1711
2.15033	1650
2.15400	1587
2.15767	1531
2.16133	1487
2.16500	1447
2.16867	1407
2.17233	1369
2.17600	1335
2.17967	1305
2.18333	1280
2.18700	1253
2.19067	1222
2.19433	1190
2.19800	1160
2.20167	1133
2.20533	1108
2.20900	1085
2.21267	1062
2.21633	1038
2.22000	1012
2.22367	989
2.22733	967
2.23100	944
2.23467	922
2.23833	902
2.24200	884
2.24567	868
2.24933	855
2.25300	845
2.25667	839
2.26033	833
2.26400	826
2.26767	818
2.27133	804
2.27500	790
2.27867	780
2.28233	772
2.28600	764
2.28967	756
2.29333	747
2.29700	737
2.30067	725
2.30433	712
2.30800	701
2.31167	695
2.31533	692
2.31900	690
2.32267	688
2.32633	684
2.33000	679
2.33367	673
2.33733	666
2.34100	655
2.34467	638
2.34833	616
2.35200	594
2.35567	580
2.35933	575
2.36300	575
2.36667	578
2.37033	581
2.37400	587
2.37767	590
2.38133	592
2.38500	591
2.38867	587
2.39233	576
2.39600	565
2.39967	556
2.40333	551
2.40700	547
2.41067	544
2.41433	541
2.41800	538
2.42167	535
2.42533	532
2.42900	529
2.43267	527
2.43633	527
2.44000	526
2.44367	526
2.44733	527
2.45100	530
2.45467	529
2.45833	522
2.46200	516
2.46567	512
2.46933	511
2.47300	510
2.47667	508
2.48033	507
2.48400	505
2.48767	501
2.49133	499
2.49500	500
2.49867	501
2.50233	500
2.50600	499
2.50967	499
2.51333	500
2.51700	502
2.52067	506
2.52433	512
2.52800	517
2.53167	522
2.53533	528
2.53900	530
2.54267	528
2.54633	520
2.55000	509
2.55367	497
2.55733	486
2.56100	479
2.56467	471
2.56833	464
2.57200	460
2.57567	456
2.57933	454
2.58300	457
2.58667	462
2.59033	465
2.59400	465
2.59767	463
2.60133	463
2.60500	463
2.60867	461
2.61233	458
2.61600	454
2.61967	450
2.62333	447
2.62700	444
2.63067	438
2.63433	431
2.63800	425
2.64167	424
2.64533	429
2.64900	438
2.65267	450
2.65633	463
2.66000	472
2.66367	472
2.66733	466
2.67100	460
2.67467	457
2.67833	455
2.68200	451
2.68567	446
2.68933	442
2.69300	439
2.69667	438
2.70033	435
2.70400	433
2.70767	432
2.71133	433
2.71500	434
2.71867	434
2.72233	436
2.72600	437
2.72967	439
2.73333	444
2.73700	451
2.74067	455
2.74433	460
2.74800	463
2.75167	460
2.75533	454
2.75900	449
2.76267	448
2.76633	448
2.77000	447
2.77367	451
2.77733	455
2.78100	456
2.78467	457
2.78833	458
2.79200	459
2.79567	461
2.79933	463
2.80300	462
2.80667	457
2.81033	450
2.81400	442
2.81767	437
2.82133	436
2.82500	436
2.82867	435
2.83233	435
2.83600	435
2.83967	435
2.84333	435
2.84700	433
2.85067	432
2.85433	430
2.85800	426
2.86167	427
2.86533	431
2.86900	436
2.87267	436
2.87633	434
2.88000	433
2.88367	435
2.88733	443
2.89100	451
2.89467	455
2.89833	455
2.90200	453
2.90567	453
2.90933	453
2.91300	449
2.91667	446
2.92033	444
2.92400	446
2.92767	451
2.93133	454
2.93500	452
2.93867	448
2.94233	443
2.94600	436
2.94967	430
2.95333	429
2.95700	430
2.96067	431
2.96433	430
2.96800	430
2.97167	430
2.97533	430
2.97900	435
2.98267	441
2.98633	452
2.99000	463
2.99367	471
2.99733	475
3.00100	474
3.00467	470
3.00833	461
3.01200	455
3.01567	450
3.01933	447
3.02300	441
3.02667	431
3.03033	423
3.03400	421
3.03767	425
3.04133	432
3.04500	440
3.04867	444
3.05233	445
3.05600	448
3.05967	450
3.06333	451
3.06700	450
3.07067	449
3.07433	451
3.07800	451
3.08167	445
3.08533	438
3.08900	432
3.09267	426
3.09633	426
3.10000	430
3.10367	433
3.10733	439
3.11100	443
3.11467	444
3.11833	447
3.12200	449
3.12567	449
3.12933	443
3.13300	434
3.13667	425
3.14033	417
3.14400	412
3.14767	411
3.15133	411
3.15500	412
3.15867	415
3.16233	421
3.16600	426
3.16967	428
3.17333	427
3.17700	422
3.18067	413
3.18433	406
3.18800	401
3.19167	400
3.19533	403
3.19900	406
3.20267	408
3.20633	409
3.21000	407
3.21367	406
3.21733	403
3.22100	398
3.22467	390
3.22833	381
3.23200	375
3.23567	375
3.23933	377
3.24300	375
3.24667	374
3.25033	376
3.25400	376
3.25767	375
3.26133	376
3.26500	382
3.26867	392
3.27233	401
3.27600	405
3.27967	404
3.28333	400
3.28700	393
3.29067	387
3.29433	384
3.29800	382
3.30167	381
3.30533	380
3.30900	382
3.31267	385
3.31633	389
3.32000	389
3.32367	393
3.32733	402
3.33100	407
3.33467	407
3.33833	407
3.34200	406
3.34567	405
3.34933	404
3.35300	405
3.35667	405
3.36033	405
3.36400	405
3.36767	410
3.37133	416
3.37500	415
3.37867	408
3.38233	399
3.38600	391
3.38967	386
3.39333	384
3.39700	385
3.40067	391
3.40433	391
3.40800	384
3.41167	376
3.41533	371
3.41900	369
3.42267	370
3.42633	374
3.43000	379
3.43367	382
3.43733	381
3.44100	377
3.44467	373
3.44833	374
3.45200	377
3.45567	376
3.45933	375
3.46300	373
3.46667	369
3.47033	364
3.47400	359
3.47767	356
3.48133	357
3.48500	362
3.48867	369
3.49233	372
3.49600	371
3.49967	368
3.50333	367
3.50700	365
3.51067	363
3.51433	360
3.51800	356
3.52167	355
3.52533	358
3.52900	361
3.53267	359
3.53633	354
3.54000	349
3.54367	350
3.54733	355
3.55100	359
3.55467	361
3.55833	362
3.56200	363
3.56567	365
3.56933	363
3.57300	356
3.57667	347
3.58033	340
3.58400	337
3.58767	337
3.59133	336
3.59500	337
3.59867	338
3.60233	341
3.60600	346
3.60967	355
3.61333	361
3.61700	361
3.62067	356
3.62433	348
3.62800	344
3.63167	343
3.63533	345
3.63900	346
3.64267	343
3.64633	337
3.65000	330
3.65367	321
3.65733	311
3.66100	301
3.66467	297
3.66833	297
3.67200	303
3.67567	313
3.67933	323
3.68300	331
3.68667	335
3.69033	331
3.69400	326
3.69767	319
3.70133	311
3.70500	308
3.70867	308
3.71233	309
3.71600	313
3.71967	320
3.72333	328
3.72700	336
3.73067	337
3.73433	334
3.73800	329
3.74167	321
3.74533	312
3.74900	305
3.75267	298
3.75633	291
3.76000	286
3.76367	282
3.76733	278
3.77100	277
3.77467	276
3.77833	277
3.78200	280
3.78567	285
3.78933	291
3.79300	292
3.79667	291
3.80033	292
3.80400	292
3.80767	293
3.81133	296
3.81500	303
3.81867	312
3.82233	319
3.82600	322
3.82967	319
3.83333	314
3.83700	305
3.84067	294
3.84433	288
3.84800	285
3.85167	286
3.85533	290
3.85900	294
3.86267	298
3.86633	298
3.87000	293
3.87367	290
3.87733	287
3.88100	286
3.88467	287
3.88833	287
3.89200	285
3.89567	282
3.89933	279
3.90300	277
3.90667	277
3.91033	276
3.91400	274
3.91767	272
3.92133	271
3.92500	275
3.92867	282
3.93233	286
3.93600	285
3.93967	285
3.94333	286
3.94700	289
3.95067	293
3.95433	298
3.95800	300
3.96167	292
3.96533	278
3.96900	265
3.97267	254
3.97633	249
3.98000	250
3.98367	252
3.98733	253
3.99100	255
3.99467	261
3.99833	268

[Chromatogram (Ch2)]
Interval(msec)	220
# of Points	1091
Start Time(min)	0.002
End Time(min)	3.998
R.Time (min)	Intensity
0.00167	1
0.00533	1
0.00900	1
0.01267	1
0.01633	1
0.02000	1
0.02367	2
0.02733	2
0.03100	2
0.03467	2
0.03833	2
0.04200	2
0.04567	2
0.04933	2
0.05300	2
0.05667	1
0.06033	1
0.06400	1
0.06767	1
0.07133	1
0.07500	1
0.07867	2
0.08233	2
0.08600	2
0.08967	3
0.09333	3
0.09700	3
0.10067	4
0.10433	4
0.10800	4
0.11167	5
0.11533	5
0.11900	4
0.12267	4
0.12633	3
0.13000	3
0.13367	2
0.13733	2
0.14100	1
0.14467	1
0.14833	0
0.15200	0
0.15567	-0
0.15933	-0
0.16300	-1
0.16667	-1
0.17033	-1
0.17400	-2
0.17767	-2
0.18133	-2
0.18500	-2
0.18867	-2
0.19233	-2
0.19600	-2
0.19967	-2
0.20333	-2
0.20700	-2
0.21067	-2
0.21433	-2
0.21800	-1
0.22167	-1
0.22533	-1
0.22900	-1
0.23267	-2
0.23633	-2
0.24000	-2
0.24367	-1
0.24733	-1
0.25100	-1
0.25467	-0
0.25833	-0
0.26200	0
0.26567	1
0.26933	1
0.27300	1
0.27667	1
0.28033	1
0.28400	1
0.28767	2
0.29133	1
0.29500	1
0.29867	1
0.30233	1
0.30600	1
0.30967	0
0.31333	0
0.31700	0
0.32067	0
0.32433	0
0.32800	0
0.33167	0
0.33533	0
0.33900	0
0.34267	1
0.34633	1
0.35000	1
0.35367	1
0.35733	1
0.36100	1
0.36467	1
0.36833	1
0.37200	1
0.37567	0
0.37933	0
0.38300	0
0.38667	0
0.39033	1
0.39400	1
0.39767	1
0.40133	1
0.40500	1
0.40867	1
0.41233	1
0.41600	1
0.41967	1
0.42333	1
0.42700	1
0.43067	1
0.43433	1
0.43800	2
0.44167	2
0.44533	2
0.44900	1
0.45267	1
0.45633	0
0.46000	-0
0.46367	-0
0.46733	-0
0.47100	-1
0.47467	-1
0.47833	-1
0.48200	-0
0.48567	0
0.48933	1
0.49300	1
0.49667	1
0.50033	1
0.50400	2
0.50767	2
0.51133	2
0.51500	2
0.51867	1
0.52233	1
0.52600	1
0.52967	2
0.53333	2
0.53700	2
0.54067	1
0.54433	1
0.54800	1
0.55167	1
0.55533	2
0.55900	2
0.56267	2
0.56633	2
0.57000	2
0.57367	2
0.57733	2
0.58100	2
0.58467	2
0.58833	2
0.59200	2
0.59567	2
0.59933	2
0.60300	2
0.60667	2
0.61033	2
0.61400	1
0.61767	1
0.62133	1
0.62500	0
0.62867	0
0.63233	-1
0.63600	-1
0.63967	-2
0.64333	-2
0.64700	-2
0.65067	-2
0.65433	-2
0.65800	-2
0.66167	-2
0.66533	-2
0.66900	-1
0.67267	-1
0.67633	-1
0.68000	-0
0.68367	0
0.68733	0
0.69100	1
0.69467	0
0.69833	0
0.70200	0
0.70567	-0
0.70933	-1
0.71300	-1
0.71667	-1
0.72033	-1
0.72400	-0
0.72767	0
0.73133	1
0.73500	1
0.73867	1
0.74233	1
0.74600	2
0.74967	2
0.75333	2
0.75700	2
0.76067	2
0.76433	2
0.76800	2
0.77167	3
0.77533	3
0.77900	3
0.78267	3
0.78633	3
0.79000	3
0.79367	3
0.79733	3
0.80100	2
0.80467	2
0.80833	2
0.81200	1
0.81567	1
0.81933	0
0.82300	-0
0.82667	-0
0.83033	-0
0.83400	-0
0.83767	-0
0.84133	-0
0.84500	-0
0.84867	-0
0.85233	-0
0.85600	-0
0.85967	-0
0.86333	0
0.86700	0
0.87067	0
0.87433	1
0.87800	1
0.88167	0
0.88533	0
0.88900	-0
0.89267	-1
0.89633	-1
0.90000	-2
0.90367	-2
0.90733	-2
0.91100	-2
0.91467	-2
0.91833	-2
0.92200	-2
0.92567	-2
0.92933	-2
0.93300	-2
0.93667	-1
0.94033	-2
0.94400	-2
0.94767	-1
0.95133	-1
0.95500	-1
0.95867	-1
0.96233	-1
0.96600	-1
0.96967	-1
0.97333	-1
0.97700	-1
0.98067	-1
0.98433	-1
0.98800	-1
0.99167	-1
0.99533	-1
0.99900	-1
1.00267	-1
1.00633	-1
1.01000	-1
1.01367	-1
1.01733	-1
1.02100	-1
1.02467	-0
1.02833	-0
1.03200	-0
1.03567	-0
1.03933	0
1.04300	0
1.04667	0
1.05033	1
1.05400	1
1.05767	1
1.06133	1
1.06500	1
1.06867	1
1.07233	1
1.07600	1
1.07967	0
1.08333	0
1.08700	0
1.09067	0
1.09433	0
1.09800	1
1.10167	1
1.10533	1
1.10900	1
1.11267	1
1.11633	1
1.12000	1
1.12367	1
1.12733	0
1.13100	0
1.13467	-0
1.13833	-0
1.14200	-0
1.14567	-1
1.14933	-1
1.15300	-1
1.15667	-1
1.16033	-1
1.16400	-1
1.16767	-2
1.17133	-2
1.17500	-2
1.17867	-2
1.18233	-2
1.18600	-2
1.18967	-2
1.19333	-2
1.19700	-2
1.20067	-2
1.20433	-3
1.20800	-3
1.21167	-3
1.21533	-3
1.21900	-3
1.22267	-3
1.22633	-3
1.23000	-4
1.23367	-4
1.23733	-3
1.24100	-3
1.24467	-3
1.24833	-3
1.25200	-2
1.25567	-2
1.25933	-2
1.26300	-1
1.26667	-1
1.27033	-1
1.27400	-1
1.27767	-1
1.28133	-1
1.28500	-1
1.28867	-1
1.29233	-1
1.29600	-1
1.29967	-1
1.30333	-1
1.30700	-2
1.31067	-2
1.31433	-2
1.31800	-2
1.32167	-2
1.32533	-2
1.32900	-3
1.33267	-3
1.33633	-3
1.34000	-3
1.34367	-3
1.34733	-3
1.35100	-3
1.35467	-3
1.35833	-3
1.36200	-3
1.36567	-3
1.36933	-3
1.37300	-3
1.37667	-3
1.38033	-3
1.38400	-4
1.38767	-4
1.39133	-4
1.39500	-4
1.39867	-4
1.40233	-3
1.40600	-3
1.40967	-2
1.41333	-1
1.41700	-1
1.42067	-0
1.42433	0
1.42800	1
1.43167	1
1.43533	1
1.43900	1
1.44267	1
1.44633	2
1.45000	2
1.45367	1
1.45733	1
1.46100	1
1.46467	1
1.46833	1
1.47200	1
1.47567	1
1.47933	1
1.48300	2
1.48667	2
1.49033	2
1.49400	2
1.49767	2
1.50133	2
1.50500	2
1.50867	2
1.51233	2
1.51600	2
1.51967	1
1.52333	1
1.52700	1
1.53067	1
1.53433	0
1.53800	0
1.54167	0
1.54533	0
1.54900	0
1.55267	-0
1.55633	-1
1.56000	-1
1.56367	-2
1.56733	-2
1.57100	-3
1.57467	-3
1.57833	-3
1.58200	-3
1.58567	-3
1.58933	-3
1.59300	-4
1.59667	-4
1.60033	-5
1.60400	-6
1.60767	-7
1.61133	-8
1.61500	-10
1.61867	-13
1.62233	-15
1.62600	-18
1.62967	-21
1.63333	-25
1.63700	-28
1.64067	-32
1.64433	-35
1.64800	-39
1.65167	-43
1.65533	-47
1.65900	-51
1.66267	-55
1.66633	-59
1.67000	-64
1.67367	-69
1.67733	-74
1.68100	-79
1.68467	-84
1.68833	-89
1.69200	-92
1.69567	-96
1.69933	-99
1.70300	-101
1.70667	-103
1.71033	-104
1.71400	-105
1.71767	-106
1.72133	-106
1.72500	-106
1.72867	-106
1.73233	-106
1.73600	-106
1.73967	-107
1.74333	-108
1.74700	-109
1.75067	-110
1.75433	-111
1.75800	-112
1.76167	-112
1.76533	-112
1.76900	-113
1.77267	-113
1.77633	-114
1.78000	-115
1.78367	-115
1.78733	-116
1.79100	-116
1.79467	-116
1.79833	-116
1.80200	-116
1.80567	-116
1.80933	-116
1.81300	-116
1.81667	-116
1.82033	-116
1.82400	-117
1.82767	-117
1.83133	-116
1.83500	-116
1.83867	-116
1.84233	-116
1.84600	-116
1.84967	-116
1.85333	-116
1.85700	-116
1.86067	-116
1.86433	-116
1.86800	-116
1.87167	-116
1.87533	-117
1.87900	-117
1.88267	-118
1.88633	-118
1.89000	-118
1.89367	-117
1.89733	-117
1.90100	-116
1.90467	-116
1.90833	-115
1.91200	-115
1.91567	-115
1.91933	-116
1.92300	-116
1.92667	-116
1.93033	-115
1.93400	-114
1.93767	-114
1.94133	-113
1.94500	-113
1.94867	-113
1.95233	-113
1.95600	-113
1.95967	-113
1.96333	-113
1.96700	-113
1.97067	-113
1.97433	-113
1.97800	-112
1.98167	-112
1.98533	-111
1.98900	-111
1.99267	-110
1.99633	-110
2.00000	-109
2.00367	-108
2.00733	-107
2.01100	-107
2.01467	-107
2.01833	-107
2.02200	-107
2.02567	-107
2.02933	-107
2.03300	-107
2.03667	-106
2.04033	-106
2.04400	-106
2.04767	-106
2.05133	-106
2.05500	-105
2.05867	-105
2.06233	-104
2.06600	-104
2.06967	-104
2.07333	-104
2.07700	-104
2.08067	-103
2.08433	-103
2.08800	-103
2.09167	-103
2.09533	-103
2.09900	-103
2.10267	-103
2.10633	-102
2.11000	-102
2.11367	-101
2.11733	-101
2.12100	-101
2.12467	-100
2.12833	-100
2.13200	-99
2.13567	-99
2.13933	-99
2.14300	-98
2.14667	-98
2.15033	-97
2.15400	-96
2.15767	-96
2.16133	-96
2.16500	-96
2.16867	-95
2.17233	-95
2.17600	-95
2.17967	-95
2.18333	-95
2.18700	-95
2.19067	-95
2.19433	-95
2.19800	-94
2.20167	-93
2.20533	-92
2.20900	-92
2.21267	-91
2.21633	-90
2.22000	-90
2.22367	-90
2.22733	-90
2.23100	-89
2.23467	-89
2.23833	-89
2.24200	-89
2.24567	-88
2.24933	-88
2.25300	-88
2.25667	-88
2.26033	-88
2.26400	-88
2.26767	-88
2.27133	-89
2.27500	-89
2.27867	-89
2.28233	-89
2.28600	-89
2.28967	-88
2.29333	-87
2.29700	-86
2.30067	-85
2.30433	-85
2.30800	-84
2.31167	-84
2.31533	-84
2.31900	-84
2.32267	-84
2.32633	-83
2.33000	-83
2.33367	-82
2.33733	-82
2.34100	-81
2.34467	-81
2.34833	-80
2.35200	-79
2.35567	-78
2.35933	-77
2.36300	-76
2.36667	-75
2.37033	-73
2.37400	-71
2.37767	-68
2.38133	-65
2.38500	-61
2.38867	-57
2.39233	-52
2.39600	-48
2.39967	-44
2.40333	-40
2.40700	-37
2.41067	-34
2.41433	-31
2.41800	-28
2.42167	-26
2.42533	-23
2.42900	-20
2.43267	-17
2.43633	-15
2.44000	-13
2.44367	-12
2.44733	-11
2.45100	-9
2.45467	-8
2.45833	-6
2.46200	-5
2.46567	-3
2.46933	-1
2.47300	1
2.47667	2
2.48033	3
2.48400	4
2.48767	5
2.49133	5
2.49500	6
2.49867	6
2.50233	7
2.50600	7
2.50967	8
2.51333	8
2.51700	8
2.52067	9
2.52433	9
2.52800	10
2.53167	10
2.53533	11
2.53900	12
2.54267	12
2.54633	12
2.55000	13
2.55367	13
2.55733	14
2.56100	14
2.56467	14
2.56833	14
2.57200	14
2.57567	14
2.57933	15
2.58300	15
2.58667	15
2.59033	15
2.59400	15
2.59767	15
2.60133	14
2.60500	14
2.60867	13
2.61233	13
2.61600	13
2.61967	13
2.62333	13
2.62700	13
2.63067	14
2.63433	14
2.63800	15
2.64167	15
2.64533	15
2.64900	16
2.65267	16
2.65633	17
2.66000	17
2.66367	18
2.66733	18
2.67100	19
2.67467	19
2.67833	20
2.68200	20
2.68567	21
2.68933	22
2.69300	22
2.69667	23
2.70033	24
2.70400	25
2.70767	25
2.71133	25
2.71500	25
2.71867	25
2.72233	25
2.72600	25
2.72967	24
2.73333	24
2.73700	24
2.74067	24
2.74433	24
2.74800	24
2.75167	24
2.75533	24
2.75900	24
2.76267	25
2.76633	25
2.77000	25
2.77367	26
2.77733	26
2.78100	27
2.78467	27
2.78833	28
2.79200	28
2.79567	28
2.79933	28
2.80300	27
2.80667	27
2.81033	26
2.81400	26
2.81767	25
2.82133	25
2.82500	25
2.82867	25
2.83233	24
2.83600	23
2.83967	22
2.84333	19
2.84700	14
2.85067	6
2.85433	-5
2.85800	-20
2.86167	-38
2.86533	-61
2.86900	-88
2.87267	-118
2.87633	-153
2.88000	-192
2.88367	-234
2.88733	-280
2.89100	-328
2.89467	-378
2.89833	-429
2.90200	-482
2.90567	-535
2.90933	-588
2.91300	-642
2.91667	-695
2.92033	-747
2.92400	-798
2.92767	-849
2.93133	-902
2.93500	-959
2.93867	-1018
2.94233	-1069
2.94600	-1100
2.94967	-1106
2.95333	-1086
2.95700	-1044
2.96067	-983
2.96433	-911
2.96800	-833
2.97167	-751
2.97533	-671
2.97900	-595
2.98267	-523
2.98633	-457
2.99000	-397
2.99367	-343
2.99733	-295
3.00100	-253
3.00467	-216
3.00833	-183
3.01200	-156
3.01567	-131
3.01933	-111
3.02300	-93
3.02667	-78
3.03033	-65
3.03400	-53
3.03767	-44
3.04133	-35
3.04500	-28
3.04867	-22
3.05233	-17
3.05600	-12
3.05967	-9
3.06333	-5
3.06700	-2
3.07067	1
3.07433	3
3.07800	5
3.08167	6
3.08533	8
3.08900	9
3.09267	10
3.09633	11
3.10000	11
3.10367	12
3.10733	13
3.11100	14
3.11467	14
3.11833	15
3.12200	16
3.12567	16
3.12933	17
3.13300	17
3.13667	17
3.14033	17
3.14400	18
3.14767	18
3.15133	18
3.15500	18
3.15867	18
3.16233	18
3.16600	18
3.16967	18
3.17333	18
3.17700	19
3.18067	19
3.18433	20
3.18800	20
3.19167	20
3.19533	21
3.19900	21
3.20267	21
3.20633	21
3.21000	22
3.21367	22
3.21733	22
3.22100	22
3.22467	22
3.22833	22
3.23200	23
3.23567	23
3.23933	23
3.24300	23
3.24667	24
3.25033	24
3.25400	24
3.25767	24
3.26133	24
3.26500	24
3.26867	24
3.27233	23
3.27600	23
3.27967	23
3.28333	23
3.28700	23
3.29067	23
3.29433	23
3.29800	23
3.30167	23
3.30533	23
3.30900	23
3.31267	24
3.31633	24
3.32000	24
3.32367	25
3.32733	25
3.33100	25
3.33467	25
3.33833	25
3.34200	26
3.34567	26
3.34933	26
3.35300	27
3.35667	27
3.36033	27
3.36400	27
3.36767	27
3.37133	27
3.37500	27
3.37867	26
3.38233	26
3.38600	26
3.38967	26
3.39333	25
3.39700	25
3.40067	25
3.40433	25
3.40800	25
3.41167	25
3.41533	25
3.41900	25
3.42267	25
3.42633	26
3.43000	26
3.43367	27
3.43733	27
3.44100	27
3.44467	27
3.44833	27
3.45200	28
3.45567	28
3.45933	28
3.46300	28
3.46667	29
3.47033	29
3.47400	29
3.47767	29
3.48133	29
3.48500	29
3.48867	29
3.49233	30
3.49600	30
3.49967	30
3.50333	30
3.50700	30
3.51067	29
3.51433	29
3.51800	29
3.52167	29
3.52533	29
3.52900	29
3.53267	29
3.53633	28
3.54000	28
3.54367	28
3.54733	28
3.55100	28
3.55467	28
3.55833	28
3.56200	28
3.56567	28
3.56933	28
3.57300	28
3.57667	27
3.58033	27
3.58400	27
3.58767	27
3.59133	27
3.59500	27
3.59867	27
3.60233	27
3.60600	27
3.60967	27
3.61333	27
3.61700	27
3.62067	27
3.62433	27
3.62800	27
3.63167	27
3.63533	27
3.63900	27
3.64267	27
3.64633	27
3.65000	27
3.65367	27
3.65733	27
3.66100	27
3.66467	27
3.66833	27
3.67200	27
3.67567	27
3.67933	27
3.68300	27
3.68667	27
3.69033	27
3.69400	27
3.69767	27
3.70133	28
3.70500	28
3.70867	28
3.71233	28
3.71600	28
3.71967	28
3.72333	28
3.72700	28
3.73067	28
3.73433	28
3.73800	28
3.74167	28
3.74533	28
3.74900	27
3.75267	27
3.75633	27
3.76000	27
3.76367	27
3.76733	26
3.77100	26
3.77467	26
3.77833	26
3.78200	26
3.78567	26
3.78933	26
3.79300	26
3.79667	26
3.80033	26
3.80400	26
3.80767	26
3.81133	26
3.81500	27
3.81867	27
3.82233	27
3.82600	27
3.82967	26
3.83333	26
3.83700	26
3.84067	26
3.84433	26
3.84800	27
3.85167	27
3.85533	27
3.85900	27
3.86267	27
3.86633	27
3.87000	27
3.87367	27
3.87733	27
3.88100	27
3.88467	27
3.88833	28
3.89200	28
3.89567	28
3.89933	28
3.90300	28
3.90667	28
3.91033	28
3.91400	28
3.91767	27
3.92133	27
3.92500	27
3.92867	27
3.93233	27
3.93600	27
3.93967	26
3.94333	26
3.94700	26
3.95067	27
3.95433	27
3.95800	27
3.96167	27
3.96533	27
3.96900	27
3.97267	27
3.97633	27
3.98000	27
3.98367	27
3.98733	27
3.99100	27
3.99467	27
3.99833	27

[Chromatogram (Ch3)]
Interval(msec)	220
# of Points	1091
Start Time(min)	0.002
End Time(min)	3.998
R.Time (min)	Intensity
0.00167	1
0.00533	2
0.00900	1
0.01267	-0
0.01633	-1
0.02000	-1
0.02367	-1
0.02733	-2
0.03100	-3
0.03467	-5
0.03833	-6
0.04200	-7
0.04567	-7
0.04933	-8
0.05300	-8
0.05667	-7
0.06033	-5
0.06400	-6
0.06767	-6
0.07133	-7
0.07500	-8
0.07867	-10
0.08233	-10
0.08600	-10
0.08967	-10
0.09333	-10
0.09700	-10
0.10067	-7
0.10433	-6
0.10800	-6
0.11167	-7
0.11533	-8
0.11900	-8
0.12267	-10
0.12633	-11
0.13000	-10
0.13367	-10
0.13733	-12
0.14100	-10
0.14467	-9
0.14833	-7
0.15200	-7
0.15567	-7
0.15933	-6
0.16300	-6
0.16667	-8
0.17033	-11
0.17400	-11
0.17767	-9
0.18133	-9
0.18500	-8
0.18867	-6
0.19233	-5
0.19600	-5
0.19967	-8
0.20333	-8
0.20700	-5
0.21067	-4
0.21433	-6
0.21800	-7
0.22167	-8
0.22533	-7
0.22900	-7
0.23267	-9
0.23633	-10
0.24000	-11
0.24367	-12
0.24733	-14
0.25100	-13
0.25467	-12
0.25833	-13
0.26200	-12
0.26567	-11
0.26933	-9
0.27300	-7
0.27667	-8
0.28033	-10
0.28400	-11
0.28767	-11
0.29133	-9
0.29500	-7
0.29867	-6
0.30233	-7
0.30600	-10
0.30967	-12
0.31333	-9
0.31700	-6
0.32067	-4
0.32433	-3
0.32800	-3
0.33167	-3
0.33533	-3
0.33900	-4
0.34267	-5
0.34633	-3
0.35000	-2
0.35367	-3
0.35733	-3
0.36100	-3
0.36467	-4
0.36833	-5
0.37200	-6
0.37567	-6
0.37933	-4
0.38300	-4
0.38667	-4
0.39033	-4
0.39400	-2
0.39767	-2
0.40133	-3
0.40500	-2
0.40867	-1
0.41233	-2
0.41600	-4
0.41967	-4
0.42333	-4
0.42700	-4
0.43067	-4
0.43433	-3
0.43800	-4
0.44167	-6
0.44533	-6
0.44900	-5
0.45267	-5
0.45633	-6
0.46000	-8
0.46367	-7
0.46733	-7
0.47100	-6
0.47467	-5
0.47833	-5
0.48200	-4
0.48567	-3
0.48933	-2
0.49300	-2
0.49667	-3
0.50033	-3
0.50400	-5
0.50767	-7
0.51133	-6
0.51500	-4
0.51867	-3
0.52233	-3
0.52600	-3
0.52967	-3
0.53333	-1
0.53700	2
0.54067	3
0.54433	1
0.54800	-0
0.55167	0
0.55533	1
0.55900	2
0.56267	3
0.56633	3
0.57000	3
0.57367	1
0.57733	-1
0.58100	-1
0.58467	-3
0.58833	-4
0.59200	-3
0.59567	-3
0.59933	1
0.60300	3
0.60667	3
0.61033	1
0.61400	-2
0.61767	-3
0.62133	-2
0.62500	1
0.62867	3
0.63233	4
0.63600	6
0.63967	8
0.64333	8
0.64700	7
0.65067	5
0.65433	2
0.65800	0
0.66167	-1
0.66533	-1
0.66900	-2
0.67267	-3
0.67633	-2
0.68000	2
0.68367	6
0.68733	7
0.69100	6
0.69467	5
0.69833	2
0.70200	1
0.70567	0
0.70933	0
0.71300	3
0.71667	9
0.72033	12
0.72400	11
0.72767	8
0.73133	5
0.73500	6
0.73867	7
0.74233	8
0.74600	10
0.74967	10
0.75333	11
0.75700	11
0.76067	12
0.76433	12
0.76800	8
0.77167	6
0.77533	8
0.77900	10
0.78267	13
0.78633	15
0.79000	16
0.79367	15
0.79733	13
0.80100	13
0.80467	14
0.80833	15
0.81200	15
0.81567	15
0.81933	16
0.82300	17
0.82667	17
0.83033	16
0.83400	16
0.83767	17
0.84133	17
0.84500	15
0.84867	13
0.85233	13
0.85600	13
0.85967	15
0.86333	15
0.86700	16
0.87067	17
0.87433	16
0.87800	15
0.88167	16
0.88533	16
0.88900	15
0.89267	17
0.89633	17
0.90000	18
0.90367	17
0.90733	16
0.91100	15
0.91467	16
0.91833	16
0.92200	16
0.92567	15
0.92933	14
0.93300	14
0.93667	15
0.94033	17
0.94400	19
0.94767	22
0.95133	22
0.95500	22
0.95867	20
0.96233	19
0.96600	17
0.96967	16
0.97333	15
0.97700	17
0.98067	18
0.98433	16
0.98800	14
0.99167	14
0.99533	16
0.99900	17
1.00267	19
1.00633	18
1.01000	16
1.01367	15
1.01733	16
1.02100	16
1.02467	16
1.02833	18
1.03200	21
1.03567	22
1.03933	22
1.04300	22
1.04667	22
1.05033	20
1.05400	19
1.05767	18
1.06133	17
1.06500	17
1.06867	18
1.07233	19
1.07600	22
1.07967	23
1.08333	22
1.08700	21
1.09067	22
1.09433	21
1.09800	19
1.10167	17
1.10533	16
1.10900	17
1.11267	18
1.11633	20
1.12000	22
1.12367	23
1.12733	24
1.13100	26
1.13467	26
1.13833	26
1.14200	24
1.14567	21
1.14933	20
1.15300	20
1.15667	21
1.16033	21
1.16400	22
1.16767	23
1.17133	22
1.17500	21
1.17867	22
1.18233	23
1.18600	23
1.18967	23
1.19333	25
1.19700	27
1.20067	28
1.20433	27
1.20800	26
1.21167	26
1.21533	27
1.21900	28
1.22267	30
1.22633	31
1.23000	30
1.23367	28
1.23733	27
1.24100	28
1.24467	28
1.24833	27
1.25200	24
1.25567	23
1.25933	23
1.26300	23
1.26667	26
1.27033	29
1.27400	29
1.27767	30
1.28133	28
1.28500	27
1.28867	28
1.29233	30
1.29600	30
1.29967	30
1.30333	30
1.30700	31
1.31067	32
1.31433	32
1.31800	32
1.32167	31
1.32533	29
1.32900	28
1.33267	30
1.33633	31
1.34000	29
1.34367	29
1.34733	30
1.35100	31
1.35467	32
1.35833	32
1.36200	32
1.36567	32
1.36933	30
1.37300	30
1.37667	32
1.38033	34
1.38400	34
1.38767	34
1.39133	34
1.39500	33
1.39867	31
1.40233	31
1.40600	32
1.40967	34
1.41333	38
1.41700	40
1.42067	40
1.42433	37
1.42800	35
1.43167	35
1.43533	35
1.43900	37
1.44267	38
1.44633	37
1.45000	35
1.45367	34
1.45733	34
1.46100	33
1.46467	33
1.46833	34
1.47200	34
1.47567	32
1.47933	31
1.48300	32
1.48667	34
1.49033	36
1.49400	36
1.49767	37
1.50133	36
1.50500	37
1.50867	39
1.51233	38
1.51600	38
1.51967	37
1.52333	38
1.52700	38
1.53067	39
1.53433	41
1.53800	42
1.54167	42
1.54533	41
1.54900	39
1.55267	38
1.55633	39
1.56000	41
1.56367	40
1.56733	39
1.57100	40
1.57467	40
1.57833	39
1.58200	38
1.58567	37
1.58933	36
1.59300	35
1.59667	34
1.60033	36
1.60400	37
1.60767	39
1.61133	39
1.61500	39
1.61867	42
1.62233	45
1.62600	46
1.62967	44
1.63333	42
1.63700	40
1.64067	39
1.64433	40
1.64800	40
1.65167	39
1.65533	40
1.65900	41
1.66267	43
1.66633	45
1.67000	48
1.67367	49
1.67733	48
1.68100	46
1.68467	46
1.68833	48
1.69200	50
1.69567	50
1.69933	49
1.70300	46
1.70667	44
1.71033	46
1.71400	47
1.71767	47
1.72133	47
1.72500	48
1.72867	50
1.73233	51
1.73600	53
1.73967	52
1.74333	52
1.74700	52
1.75067	54
1.75433	54
1.75800	54
1.76167	52
1.76533	51
1.76900	52
1.77267	53
1.77633	56
1.78000	61
1.78367	64
1.78733	64
1.79100	61
1.79467	58
1.79833	55
1.80200	54
1.80567	55
1.80933	56
1.81300	58
1.81667	59
1.82033	60
1.82400	64
1.82767	65
1.83133	65
1.83500	66
1.83867	67
1.84233	66
1.84600	65
1.84967	64
1.85333	63
1.85700	65
1.86067	66
1.86433	64
1.86800	65
1.87167	66
1.87533	67
1.87900	69
1.88267	70
1.88633	71
1.89000	70
1.89367	70
1.89733	74
1.90100	77
1.90467	77
1.90833	75
1.91200	70
1.91567	71
1.91933	73
1.92300	73
1.92667	73
1.93033	74
1.93400	73
1.93767	74
1.94133	76
1.94500	77
1.94867	76
1.95233	75
1.95600	76
1.95967	78
1.96333	80
1.96700	81
1.97067	83
1.97433	85
1.97800	85
1.98167	84
1.98533	84
1.98900	84
1.99267	85
1.99633	85
2.00000	86
2.00367	86
2.00733	86
2.01100	88
2.01467	91
2.01833	93
2.02200	93
2.02567	91
2.02933	91
2.03300	92
2.03667	93
2.04033	95
2.04400	95
2.04767	94
2.05133	94
2.05500	96
2.05867	99
2.06233	102
2.06600	103
2.06967	105
2.07333	104
2.07700	103
2.08067	105
2.08433	106
2.08800	107
2.09167	110
2.09533	113
2.09900	114
2.10267	115
2.10633	115
2.11000	116
2.11367	118
2.11733	119
2.12100	120
2.12467	118
2.12833	117
2.13200	117
2.13567	118
2.13933	118
2.14300	118
2.14667	117
2.15033	118
2.15400	121
2.15767	126
2.16133	129
2.16500	133
2.16867	138
2.17233	142
2.17600	143
2.17967	143
2.18333	143
2.18700	145
2.19067	146
2.19433	146
2.19800	144
2.20167	147
2.20533	149
2.20900	152
2.21267	153
2.21633	153
2.22000	154
2.22367	155
2.22733	156
2.23100	159
2.23467	162
2.23833	163
2.24200	165
2.24567	167
2.24933	171
2.25300	173
2.25667	175
2.26033	175
2.26400	174
2.26767	174
2.27133	176
2.27500	177
2.27867	177
2.28233	179
2.28600	181
2.28967	183
2.29333	186
2.29700	188
2.30067	186
2.30433	186
2.30800	188
2.31167	189
2.31533	188
2.31900	189
2.32267	190
2.32633	191
2.33000	193
2.33367	193
2.33733	193
2.34100	195
2.34467	197
2.34833	200
2.35200	203
2.35567	206
2.35933	207
2.36300	206
2.36667	207
2.37033	211
2.37400	215
2.37767	217
2.38133	217
2.38500	214
2.38867	212
2.39233	212
2.39600	214
2.39967	220
2.40333	225
2.40700	230
2.41067	234
2.41433	235
2.41800	235
2.42167	235
2.42533	235
2.42900	235
2.43267	237
2.43633	241
2.44000	244
2.44367	274
2.44733	355
2.45100	443
2.45467	514
2.45833	552
2.46200	541
2.46567	503
2.46933	462
2.47300	428
2.47667	402
2.48033	383
2.48400	367
2.48767	349
2.49133	324
2.49500	297
2.49867	271
2.50233	251
2.50600	236
2.50967	225
2.51333	217
2.51700	213
2.52067	213
2.52433	215
2.52800	219
2.53167	227
2.53533	235
2.53900	245
2.54267	251
2.54633	251
2.55000	246
2.55367	239
2.55733	230
2.56100	219
2.56467	206
2.56833	195
2.57200	186
2.57567	180
2.57933	176
2.58300	172
2.58667	166
2.59033	160
2.59400	156
2.59767	150
2.60133	139
2.60500	127
2.60867	114
2.61233	97
2.61600	79
2.61967	60
2.62333	43
2.62700	31
2.63067	19
2.63433	13
2.63800	11
2.64167	11
2.64533	16
2.64900	23
2.65267	34
2.65633	44
2.66000	52
2.66367	62
2.66733	73
2.67100	84
2.67467	94
2.67833	102
2.68200	108
2.68567	111
2.68933	116
2.69300	120
2.69667	124
2.70033	122
2.70400	121
2.70767	121
2.71133	121
2.71500	122
2.71867	124
2.72233	125
2.72600	125
2.72967	125
2.73333	125
2.73700	124
2.74067	123
2.74433	121
2.74800	120
2.75167	121
2.75533	121
2.75900	122
2.76267	122
2.76633	122
2.77000	122
2.77367	124
2.77733	127
2.78100	128
2.78467	128
2.78833	129
2.79200	130
2.79567	132
2.79933	133
2.80300	135
2.80667	139
2.81033	141
2.81400	142
2.81767	148
2.82133	168
2.82500	215
2.82867	302
2.83233	452
2.83600	688
2.83967	1027
2.84333	1468
2.84700	2000
2.85067	2591
2.85433	3196
2.85800	3771
2.86167	4266
2.86533	4642
2.86900	4878
2.87267	4964
2.87633	4914
2.88000	4751
2.88367	4499
2.88733	4189
2.89100	3846
2.89467	3491
2.89833	3139
2.90200	2804
2.90567	2491
2.90933	2204
2.91300	1943
2.91667	1712
2.92033	1510
2.92400	1332
2.92767	1175
2.93133	1036
2.93500	916
2.93867	811
2.94233	719
2.94600	643
2.94967	576
2.95333	519
2.95700	471
2.96067	428
2.96433	391
2.96800	359
2.97167	331
2.97533	307
2.97900	288
2.98267	269
2.98633	253
2.99000	239
2.99367	225
2.99733	215
3.00100	206
3.00467	198
3.00833	192
3.01200	188
3.01567	184
3.01933	180
3.02300	173
3.02667	169
3.03033	165
3.03400	161
3.03767	159
3.04133	155
3.04500	148
3.04867	143
3.05233	142
3.05600	140
3.05967	137
3.06333	136
3.06700	135
3.07067	133
3.07433	131
3.07800	128
3.08167	124
3.08533	121
3.08900	120
3.09267	117
3.09633	116
3.10000	117
3.10367	116
3.10733	113
3.11100	111
3.11467	110
3.11833	109
3.12200	108
3.12567	85
3.12933	27
3.13300	-33
3.13667	-61
3.14033	-54
3.14400	-25
3.14767	16
3.15133	65
3.15500	118
3.15867	172
3.16233	227
3.16600	280
3.16967	329
3.17333	375
3.17700	419
3.18067	458
3.18433	491
3.18800	518
3.19167	541
3.19533	560
3.19900	578
3.20267	591
3.20633	601
3.21000	610
3.21367	617
3.21733	626
3.22100	632
3.22467	636
3.22833	639
3.23200	641
3.23567	642
3.23933	643
3.24300	643
3.24667	644
3.25033	646
3.25400	646
3.25767	646
3.26133	644
3.26500	644
3.26867	646
3.27233	648
3.27600	648
3.27967	648
3.28333	651
3.28700	654
3.29067	657
3.29433	658
3.29800	661
3.30167	665
3.30533	668
3.30900	672
3.31267	677
3.31633	679
3.32000	680
3.32367	683
3.32733	688
3.33100	692
3.33467	694
3.33833	699
3.34200	702
3.34567	705
3.34933	708
3.35300	708
3.35667	709
3.36033	709
3.36400	708
3.36767	709
3.37133	707
3.37500	706
3.37867	706
3.38233	707
3.38600	706
3.38967	704
3.39333	699
3.39700	692
3.40067	686
3.40433	682
3.40800	678
3.41167	675
3.41533	671
3.41900	665
3.42267	659
3.42633	654
3.43000	652
3.43367	648
3.43733	642
3.44100	635
3.44467	628
3.44833	624
3.45200	618
3.45567	613
3.45933	607
3.46300	601
3.46667	595
3.47033	591
3.47400	587
3.47767	583
3.48133	581
3.48500	578
3.48867	572
3.49233	568
3.49600	565
3.49967	564
3.50333	560
3.50700	556
3.51067	553
3.51433	553
3.51800	553
3.52167	552
3.52533	550
3.52900	548
3.53267	542
3.53633	537
3.54000	535
3.54367	535
3.54733	534
3.55100	533
3.55467	530
3.55833	528
3.56200	526
3.56567	526
3.56933	527
3.57300	526
3.57667	522
3.58033	518
3.58400	513
3.58767	510
3.59133	508
3.59500	509
3.59867	509
3.60233	508
3.60600	505
3.60967	504
3.61333	501
3.61700	499
3.62067	498
3.62433	494
3.62800	490
3.63167	488
3.63533	484
3.63900	481
3.64267	479
3.64633	479
3.65000	478
3.65367	476
3.65733	475
3.66100	472
3.66467	468
3.66833	465
3.67200	464
3.67567	464
3.67933	464
3.68300	465
3.68667	467
3.69033	468
3.69400	467
3.69767	467
3.70133	463
3.70500	461
3.70867	460
3.71233	461
3.71600	461
3.71967	460
3.72333	459
3.72700	459
3.73067	456
3.73433	453
3.73800	451
3.74167	450
3.74533	452
3.74900	454
3.75267	455
3.75633	455
3.76000	454
3.76367	453
3.76733	453
3.77100	452
3.77467	455
3.77833	454
3.78200	452
3.78567	452
3.78933	451
3.79300	452
3.79667	453
3.80033	450
3.80400	448
3.80767	448
3.81133	448
3.81500	449
3.81867	450
3.82233	450
3.82600	449
3.82967	447
3.83333	445
3.83700	445
3.84067	445
3.84433	445
3.84800	444
3.85167	445
3.85533	444
3.85900	441
3.86267	440
3.86633	441
3.87000	442
3.87367	443
3.87733	443
3.88100	442
3.88467	442
3.88833	441
3.89200	440
3.89567	439
3.89933	436
3.90300	435
3.90667	437
3.91033	438
3.91400	439
3.91767	439
3.92133	438
3.92500	439
3.92867	438
3.93233	437
3.93600	436
3.93967	435
3.94333	434
3.94700	433
3.95067	433
3.95433	434
3.95800	436
3.96167	436
3.96533	434
3.96900	433
3.97267	435
3.97633	435
3.98000	435
3.98367	434
3.98733	433
3.99100	431
3.99467	429
3.99833	427

[Status Trace (Column Oven Temperature)]
Interval(msec)	1000
# of Points	240
Start Time(min)	0.015
End Time(min)	3.999
Intensity Units	
Intensity Multiplier	1
R.Time (min)	Intensity
0.01545	35.05
0.03212	35.05
0.04878	35.04
0.06545	35.03
0.08212	35.02
0.09878	35.01
0.11545	35.01
0.13212	35.03
0.14878	35.04
0.16545	35.04
0.18212	35.04
0.19878	35.05
0.21545	35.06
0.23212	35.07
0.24878	35.06
0.26545	35.05
0.28212	35.05
0.29878	35.05
0.31545	35.03
0.33212	35.03
0.34878	35.03
0.36545	35.03
0.38212	35.03
0.39878	35.02
0.41545	35.02
0.43212	35.02
0.44878	35.02
0.46545	35.03
0.48212	35.02
0.49878	35.02
0.51545	35.01
0.53212	35.01
0.54878	35.00
0.56545	35.00
0.58212	34.99
0.59878	34.99
0.61545	34.99
0.63212	35.00
0.64878	35.00
0.66545	35.01
0.68212	35.01
0.69878	35.01
0.71545	35.01
0.73212	35.00
0.74878	34.98
0.76545	34.98
0.78212	34.97
0.79878	34.97
0.81545	34.97
0.83212	34.97
0.84878	34.97
0.86545	34.98
0.88212	34.99
0.89878	35.00
0.91545	35.01
0.93212	35.01
0.94878	35.01
0.96545	35.01
0.98212	35.01
0.99878	35.01
1.01545	35.02
1.03212	35.01
1.04878	35.00
1.06545	34.99
1.08212	34.99
1.09878	34.98
1.11545	34.98
1.13212	34.98
1.14878	34.98
1.16545	34.98
1.18212	34.99
1.19878	35.00
1.21545	35.00
1.23212	35.01
1.24878	35.01
1.26545	35.00
1.28212	34.99
1.29878	34.99
1.31545	34.99
1.33212	35.01
1.34878	35.01
1.36545	35.01
1.38212	35.02
1.39878	35.02
1.41545	35.01
1.43212	35.00
1.44878	34.99
1.46545	34.99
1.48212	34.98
1.49878	34.97
1.51545	34.96
1.53212	34.96
1.54878	34.96
1.56545	34.97
1.58212	34.98
1.59878	35.00
1.61545	35.09
1.63212	35.26
1.64878	35.48
1.66545	35.78
1.68212	36.14
1.69878	36.50
1.71545	36.83
1.73212	37.16
1.74878	37.50
1.76545	37.83
1.78212	38.17
1.79878	38.50
1.81545	38.82
1.83212	39.15
1.84878	39.47
1.86545	39.81
1.88212	40.15
1.89878	40.46
1.91545	40.81
1.93212	41.12
1.94878	41.45
1.96545	41.79
1.98212	42.11
1.99878	42.42
2.01545	42.75
2.03212	43.07
2.04878	43.39
2.06545	43.71
2.08212	44.04
2.09878	44.37
2.11545	44.69
2.13212	45.02
2.14878	45.34
2.16545	45.68
2.18212	46.02
2.19878	46.34
2.21545	46.66
2.23212	46.98
2.24878	47.30
2.26545	47.65
2.28212	47.99
2.29878	48.31
2.31545	48.65
2.33212	48.97
2.34878	49.29
2.36545	49.55
2.38212	49.68
2.39878	49.70
2.41545	49.69
2.43212	49.68
2.44878	49.71
2.46545	49.71
2.48212	49.72
2.49878	49.73
2.51545	49.76
2.53212	49.76
2.54878	49.78
2.56545	49.79
2.58212	49.79
2.59878	49.82
2.61545	49.84
2.63212	49.85
2.64878	49.84
2.66545	49.86
2.68212	49.86
2.69878	49.84
2.71545	49.84
2.73212	49.86
2.74878	49.86
2.76545	49.85
2.78212	49.85
2.79878	49.87
2.81545	49.89
2.83212	49.91
2.84878	49.92
2.86545	49.94
2.88212	49.95
2.89878	49.95
2.91545	49.95
2.93212	49.95
2.94878	49.94
2.96545	49.94
2.98212	49.94
2.99878	49.95
3.01545	49.97
3.03212	49.98
3.04878	49.99
3.06545	49.99
3.08212	50.00
3.09878	50.01
3.11545	50.00
3.13212	50.01
3.14878	50.02
3.16545	50.05
3.18212	50.05
3.19878	50.05
3.21545	50.06
3.23212	50.06
3.24878	50.06
3.26545	50.08
3.28212	50.09
3.29878	50.10
3.31545	50.09
3.33212	50.09
3.34878	50.09
3.36545	50.09
3.38212	50.10
3.39878	50.11
3.41545	50.11
3.43212	50.10
3.44878	50.08
3.46545	50.07
3.48212	50.05
3.49878	50.05
3.51545	50.06
3.53212	50.05
3.54878	50.06
3.56545	50.05
3.58212	50.05
3.59878	50.06
3.61545	50.06
3.63212	50.06
3.64878	50.06
3.66545	50.06
3.68212	50.06
3.69878	50.05
3.71545	50.04
3.73212	50.05
3.74878	50.05
3.76545	50.06
3.78212	50.07
3.79878	50.07
3.81545	50.08
3.83212	50.08
3.84878	50.09
3.86545	50.09
3.88212	50.09
3.89878	50.09
3.91545	50.09
3.93212	50.08
3.94878	50.09
3.96545	50.09
3.98212	50.09
3.99878	50.09

[Status Trace (Injection Unit Temperature)]
Interval(msec)	1000
# of Points	240
Start Time(min)	0.015
End Time(min)	3.999
Intensity Units	
Intensity Multiplier	1
R.Time (min)	Intensity
0.01545	99.98
0.03212	99.98
0.04878	99.98
0.06545	99.98
0.08212	99.98
0.09878	99.98
0.11545	99.98
0.13212	99.98
0.14878	99.99
0.16545	99.98
0.18212	99.98
0.19878	99.99
0.21545	99.98
0.23212	99.99
0.24878	99.98
0.26545	99.99
0.28212	99.99
0.29878	99.99
0.31545	99.99
0.33212	99.99
0.34878	99.98
0.36545	99.99
0.38212	99.99
0.39878	99.99
0.41545	99.98
0.43212	99.98
0.44878	99.99
0.46545	99.99
0.48212	99.99
0.49878	99.99
0.51545	99.99
0.53212	99.99
0.54878	99.99
0.56545	99.99
0.58212	99.98
0.59878	99.98
0.61545	99.99
0.63212	99.99
0.64878	99.99
0.66545	99.99
0.68212	99.98
0.69878	99.98
0.71545	99.99
0.73212	99.99
0.74878	99.99
0.76545	99.99
0.78212	99.98
0.79878	99.98
0.81545	99.99
0.83212	99.99
0.84878	99.98
0.86545	99.99
0.88212	99.98
0.89878	99.99
0.91545	99.98
0.93212	99.99
0.94878	99.98
0.96545	99.99
0.98212	99.99
0.99878	99.99
1.01545	99.98
1.03212	99.99
1.04878	99.99
1.06545	99.99
1.08212	99.99
1.09878	99.99
1.11545	99.99
1.13212	99.98
1.14878	99.99
1.16545	99.98
1.18212	99.99
1.19878	99.99
1.21545	99.98
1.23212	99.99
1.24878	99.98
1.26545	99.98
1.28212	99.99
1.29878	99.99
1.31545	99.99
1.33212	99.99
1.34878	99.99
1.36545	99.99
1.38212	99.99
1.39878	99.99
1.41545	99.99
1.43212	99.99
1.44878	99.99
1.46545	99.99
1.48212	99.99
1.49878	99.99
1.51545	99.99
1.53212	99.99
1.54878	99.99
1.56545	99.98
1.58212	99.98
1.59878	99.98
1.61545	99.99
1.63212	99.99
1.64878	99.99
1.66545	99.98
1.68212	99.98
1.69878	99.99
1.71545	99.98
1.73212	99.98
1.74878	99.99
1.76545	99.99
1.78212	99.98
1.79878	99.99
1.81545	99.99
1.83212	99.98
1.84878	99.98
1.86545	99.98
1.88212	99.98
1.89878	99.98
1.91545	99.98
1.93212	99.98
1.94878	99.99
1.96545	99.98
1.98212	99.98
1.99878	99.98
2.01545	99.98
2.03212	99.98
2.04878	99.98
2.06545	99.98
2.08212	99.97
2.09878	99.97
2.11545	99.97
2.13212	99.98
2.14878	99.97
2.16545	99.97
2.18212	99.97
2.19878	99.97
2.21545	99.97
2.23212	99.97
2.24878	99.97
2.26545	99.97
2.28212	99.97
2.29878	99.97
2.31545	99.97
2.33212	99.97
2.34878	99.97
2.36545	99.97
2.38212	99.97
2.39878	99.97
2.41545	99.96
2.43212	99.96
2.44878	99.97
2.46545	99.97
2.48212	99.97
2.49878	99.97
2.51545	99.97
2.53212	99.97
2.54878	99.97
2.56545	99.97
2.58212	99.97
2.59878	99.97
2.61545	99.97
2.63212	99.97
2.64878	99.97
2.66545	99.97
2.68212	99.97
2.69878	99.97
2.71545	99.97
2.73212	99.98
2.74878	99.98
2.76545	99.98
2.78212	99.97
2.79878	99.98
2.81545	99.99
2.83212	99.99
2.84878	99.99
2.86545	99.99
2.88212	99.99
2.89878	99.99
2.91545	99.99
2.93212	100.00
2.94878	100.00
2.96545	100.00
2.98212	100.00
2.99878	100.00
3.01545	100.00
3.03212	100.00
3.04878	100.01
3.06545	100.01
3.08212	100.01
3.09878	100.01
3.11545	100.01
3.13212	100.01
3.14878	100.02
3.16545	100.02
3.18212	100.02
3.19878	100.02
3.21545	100.03
3.23212	100.02
3.24878	100.03
3.26545	100.03
3.28212	100.03
3.29878	100.03
3.31545	100.03
3.33212	100.03
3.34878	100.03
3.36545	100.03
3.38212	100.04
3.39878	100.04
3.41545	100.04
3.43212	100.04
3.44878	100.04
3.46545	100.04
3.48212	100.04
3.49878	100.04
3.51545	100.04
3.53212	100.04
3.54878	100.05
3.56545	100.05
3.58212	100.05
3.59878	100.05
3.61545	100.05
3.63212	100.05
3.64878	100.04
3.66545	100.05
3.68212	100.05
3.69878	100.05
3.71545	100.05
3.73212	100.05
3.74878	100.05
3.76545	100.05
3.78212	100.05
3.79878	100.05
3.81545	100.05
3.83212	100.05
3.84878	100.05
3.86545	100.05
3.88212	100.05
3.89878	100.05
3.91545	100.05
3.93212	100.05
3.94878	100.05
3.96545	100.05
3.98212	100.05
3.99878	100.05

[Status Trace (Carrier Gas Pressure)]
Interval(msec)	1000
# of Points	240
Start Time(min)	0.015
End Time(min)	3.999
Intensity Units	
Intensity Multiplier	1
R.Time (min)	Intensity
0.01545	57.16
0.03212	55.75
0.04878	58.16
0.06545	59.87
0.08212	58.56
0.09878	57.97
0.11545	58.00
0.13212	58.01
0.14878	58.01
0.16545	58.00
0.18212	58.00
0.19878	58.00
0.21545	58.00
0.23212	58.00
0.24878	58.00
0.26545	58.00
0.28212	58.00
0.29878	58.00
0.31545	58.00
0.33212	58.00
0.34878	58.00
0.36545	58.00
0.38212	58.00
0.39878	58.00
0.41545	58.00
0.43212	58.00
0.44878	58.00
0.46545	58.00
0.48212	58.00
0.49878	58.00
0.51545	58.00
0.53212	58.00
0.54878	58.00
0.56545	58.00
0.58212	58.00
0.59878	58.00
0.61545	58.00
0.63212	58.00
0.64878	58.00
0.66545	58.00
0.68212	58.00
0.69878	58.00
0.71545	58.00
0.73212	58.00
0.74878	58.00
0.76545	58.00
0.78212	58.00
0.79878	58.00
0.81545	58.00
0.83212	58.00
0.84878	58.00
0.86545	58.00
0.88212	58.00
0.89878	58.00
0.91545	58.00
0.93212	58.00
0.94878	58.00
0.96545	58.00
0.98212	58.00
0.99878	58.00
1.01545	58.00
1.03212	58.00
1.04878	58.00
1.06545	58.00
1.08212	58.00
1.09878	58.00
1.11545	58.00
1.13212	58.00
1.14878	58.00
1.16545	58.00
1.18212	58.00
1.19878	58.00
1.21545	58.00
1.23212	58.00
1.24878	58.00
1.26545	58.00
1.28212	58.00
1.29878	58.00
1.31545	58.00
1.33212	58.00
1.34878	58.00
1.36545	58.00
1.38212	58.00
1.39878	58.00
1.41545	58.00
1.43212	58.00
1.44878	58.00
1.46545	58.00
1.48212	58.00
1.49878	58.00
1.51545	58.00
1.53212	58.00
1.54878	58.00
1.56545	58.00
1.58212	58.00
1.59878	58.00
1.61545	58.00
1.63212	58.01
1.64878	58.00
1.66545	58.01
1.68212	58.01
1.69878	58.00
1.71545	58.00
1.73212	58.00
1.74878	58.00
1.76545	58.00
1.78212	58.00
1.79878	58.00
1.81545	58.00
1.83212	58.00
1.84878	58.00
1.86545	58.00
1.88212	58.00
1.89878	58.00
1.91545	58.00
1.93212	58.00
1.94878	58.00
1.96545	58.00
1.98212	58.00
1.99878	58.00
2.01545	58.00
2.03212	58.00
2.04878	58.00
2.06545	58.00
2.08212	58.00
2.09878	58.00
2.11545	58.00
2.13212	58.00
2.14878	58.00
2.16545	58.00
2.18212	58.00
2.19878	58.00
2.21545	58.00
2.23212	58.00
2.24878	58.00
2.26545	58.00
2.28212	58.00
2.29878	58.00
2.31545	58.00
2.33212	58.00
2.34878	58.00
2.36545	58.00
2.38212	57.99
2.39878	57.99
2.41545	58.00
2.43212	58.00
2.44878	58.00
2.46545	58.00
2.48212	58.00
2.49878	58.00
2.51545	57.99
2.53212	57.99
2.54878	58.00
2.56545	58.00
2.58212	58.00
2.59878	58.00
2.61545	58.00
2.63212	58.00
2.64878	58.00
2.66545	58.00
2.68212	58.00
2.69878	58.00
2.71545	58.00
2.73212	58.00
2.74878	58.00
2.76545	58.00
2.78212	58.00
2.79878	58.00
2.81545	58.00
2.83212	58.00
2.84878	58.00
2.86545	58.00
2.88212	58.00
2.89878	58.00
2.91545	58.00
2.93212	58.00
2.94878	58.00
2.96545	58.00
2.98212	58.00
2.99878	58.00
3.01545	58.00
3.03212	58.00
3.04878	58.00
3.06545	58.00
3.08212	58.00
3.09878	58.00
3.11545	58.00
3.13212	58.00
3.14878	58.00
3.16545	58.00
3.18212	58.00
3.19878	58.00
3.21545	58.00
3.23212	58.00
3.24878	58.00
3.26545	58.00
3.28212	58.00
3.29878	58.00
3.31545	58.00
3.33212	58.00
3.34878	58.00
3.36545	58.00
3.38212	58.00
3.39878	58.00
3.41545	58.00
3.43212	58.00
3.44878	58.00
3.46545	58.00
3.48212	58.00
3.49878	58.00
3.51545	58.00
3.53212	58.00
3.54878	58.00
3.56545	58.00
3.58212	58.00
3.59878	58.00
3.61545	58.00
3.63212	58.00
3.64878	58.00
3.66545	58.00
3.68212	58.00
3.69878	58.00
3.71545	58.00
3.73212	58.00
3.74878	58.00
3.76545	58.00
3.78212	58.00
3.79878	58.00
3.81545	58.00
3.83212	58.00
3.84878	58.00
3.86545	58.00
3.88212	58.00
3.89878	58.00
3.91545	58.00
3.93212	58.00
3.94878	58.00
3.96545	58.00
3.98212	58.00
3.99878	58.00

[Status Trace (Carrier Gas Flow)]
Interval(msec)	1000
# of Points	240
Start Time(min)	0.015
End Time(min)	3.999
Intensity Units	
Intensity Multiplier	1
R.Time (min)	Intensity
0.01545	33.85
0.03212	34.55
0.04878	34.55
0.06545	34.51
0.08212	34.51
0.09878	34.52
0.11545	34.52
0.13212	34.52
0.14878	34.52
0.16545	34.52
0.18212	34.52
0.19878	34.52
0.21545	34.52
0.23212	34.52
0.24878	34.52
0.26545	34.52
0.28212	34.52
0.29878	34.52
0.31545	34.52
0.33212	34.52
0.34878	34.52
0.36545	34.52
0.38212	34.52
0.39878	34.52
0.41545	34.52
0.43212	34.52
0.44878	34.52
0.46545	34.51
0.48212	34.53
0.49878	34.52
0.51545	34.53
0.53212	34.52
0.54878	34.52
0.56545	34.51
0.58212	34.53
0.59878	34.52
0.61545	34.52
0.63212	34.52
0.64878	34.52
0.66545	34.52
0.68212	34.52
0.69878	34.52
0.71545	34.52
0.73212	34.52
0.74878	34.52
0.76545	34.52
0.78212	34.52
0.79878	34.52
0.81545	34.52
0.83212	34.52
0.84878	34.52
0.86545	34.52
0.88212	34.52
0.89878	34.52
0.91545	34.52
0.93212	34.52
0.94878	34.52
0.96545	34.52
0.98212	34.52
0.99878	34.52
1.01545	34.52
1.03212	34.52
1.04878	34.52
1.06545	34.52
1.08212	34.52
1.09878	34.52
1.11545	34.52
1.13212	34.52
1.14878	34.52
1.16545	34.52
1.18212	34.52
1.19878	34.52
1.21545	34.52
1.23212	34.52
1.24878	34.52
1.26545	34.52
1.28212	34.52
1.29878	34.52
1.31545	34.52
1.33212	34.52
1.34878	34.52
1.36545	34.51
1.38212	34.52
1.39878	34.52
1.41545	34.52
1.43212	34.52
1.44878	34.52
1.46545	34.52
1.48212	34.52
1.49878	34.52
1.51545	34.52
1.53212	34.52
1.54878	34.52
1.56545	34.52
1.58212	34.52
1.59878	34.52
1.61545	34.52
1.63212	34.52
1.64878	34.52
1.66545	34.52
1.68212	34.52
1.69878	34.52
1.71545	34.52
1.73212	34.52
1.74878	34.52
1.76545	34.52
1.78212	34.52
1.79878	34.52
1.81545	34.51
1.83212	34.52
1.84878	34.52
1.86545	34.52
1.88212	34.52
1.89878	34.52
1.91545	34.52
1.93212	34.52
1.94878	34.52
1.96545	34.52
1.98212	34.52
1.99878	34.52
2.01545	34.52
2.03212	34.52
2.04878	34.52
2.06545	34.52
2.08212	34.52
2.09878	34.52
2.11545	34.52
2.13212	34.52
2.14878	34.52
2.16545	34.52
2.18212	34.52
2.19878	34.52
2.21545	34.53
2.23212	34.51
2.24878	34.51
2.26545	34.52
2.28212	34.51
2.29878	34.51
2.31545	34.53
2.33212	34.52
2.34878	34.52
2.36545	34.51
2.38212	34.52
2.39878	34.51
2.41545	34.52
2.43212	34.52
2.44878	34.52
2.46545	34.52
2.48212	34.52
2.49878	34.52
2.51545	34.52
2.53212	34.52
2.54878	34.52
2.56545	34.52
2.58212	34.52
2.59878	34.52
2.61545	34.52
2.63212	34.52
2.64878	34.52
2.66545	34.52
2.68212	34.52
2.69878	34.52
2.71545	34.52
2.73212	34.52
2.74878	34.52
2.76545	34.52
2.78212	34.52
2.79878	34.52
2.81545	34.52
2.83212	34.52
2.84878	34.52
2.86545	34.52
2.88212	34.52
2.89878	34.52
2.91545	34.52
2.93212	34.52
2.94878	34.52
2.96545	34.52
2.98212	34.52
2.99878	34.51
3.01545	34.52
3.03212	34.52
3.04878	34.52
3.06545	34.52
3.08212	34.52
3.09878	34.52
3.11545	34.51
3.13212	34.52
3.14878	34.52
3.16545	34.52
3.18212	34.52
3.19878	34.52
3.21545	34.52
3.23212	34.52
3.24878	34.52
3.26545	34.52
3.28212	34.52
3.29878	34.52
3.31545	34.52
3.33212	34.52
3.34878	34.52
3.36545	34.52
3.38212	34.52
3.39878	34.52
3.41545	34.52
3.43212	34.52
3.44878	34.52
3.46545	34.52
3.48212	34.52
3.49878	34.52
3.51545	34.52
3.53212	34.51
3.54878	34.52
3.56545	34.52
3.58212	34.53
3.59878	34.52
3.61545	34.52
3.63212	34.52
3.64878	34.53
3.66545	34.52
3.68212	34.52
3.69878	34.52
3.71545	34.52
3.73212	34.51
3.74878	34.52
3.76545	34.51
3.78212	34.52
3.79878	34.52
3.81545	34.53
3.83212	34.52
3.84878	34.51
3.86545	34.52
3.88212	34.51
3.89878	34.53
3.91545	34.52
3.93212	34.52
3.94878	34.53
3.96545	34.51
3.98212	34.52
3.99878	34.52

[Status Trace (Column Flow)]
Interval(msec)	1000
# of Points	240
Start Time(min)	0.015
End Time(min)	3.999
Intensity Units	
Intensity Multiplier	1
R.Time (min)	Intensity
0.01545	5.48
0.03212	5.31
0.04878	5.59
0.06545	5.80
0.08212	5.64
0.09878	5.57
0.11545	5.58
0.13212	5.58
0.14878	5.58
0.16545	5.58
0.18212	5.57
0.19878	5.57
0.21545	5.57
0.23212	5.57
0.24878	5.57
0.26545	5.57
0.28212	5.57
0.29878	5.57
0.31545	5.57
0.33212	5.58
0.34878	5.57
0.36545	5.57
0.38212	5.57
0.39878	5.58
0.41545	5.58
0.43212	5.58
0.44878	5.58
0.46545	5.58
0.48212	5.58
0.49878	5.58
0.51545	5.58
0.53212	5.58
0.54878	5.58
0.56545	5.58
0.58212	5.58
0.59878	5.58
0.61545	5.58
0.63212	5.58
0.64878	5.58
0.66545	5.58
0.68212	5.58
0.69878	5.58
0.71545	5.58
0.73212	5.58
0.74878	5.58
0.76545	5.58
0.78212	5.58
0.79878	5.58
0.81545	5.58
0.83212	5.58
0.84878	5.58
0.86545	5.58
0.88212	5.58
0.89878	5.58
0.91545	5.58
0.93212	5.58
0.94878	5.58
0.96545	5.58
0.98212	5.58
0.99878	5.58
1.01545	5.58
1.03212	5.58
1.04878	5.58
1.06545	5.58
1.08212	5.58
1.09878	5.58
1.11545	5.58
1.13212	5.58
1.14878	5.58
1.16545	5.58
1.18212	5.58
1.19878	5.58
1.21545	5.58
1.23212	5.58
1.24878	5.58
1.26545	5.58
1.28212	5.58
1.29878	5.58
1.31545	5.58
1.33212	5.58
1.34878	5.58
1.36545	5.58
1.38212	5.58
1.39878	5.58
1.41545	5.58
1.43212	5.58
1.44878	5.58
1.46545	5.58
1.48212	5.58
1.49878	5.58
1.51545	5.58
1.53212	5.58
1.54878	5.58
1.56545	5.58
1.58212	5.58
1.59878	5.58
1.61545	5.57
1.63212	5.57
1.64878	5.56
1.66545	5.55
1.68212	5.54
1.69878	5.53
1.71545	5.52
1.73212	5.51
1.74878	5.50
1.76545	5.49
1.78212	5.48
1.79878	5.47
1.81545	5.46
1.83212	5.45
1.84878	5.44
1.86545	5.43
1.88212	5.42
1.89878	5.41
1.91545	5.40
1.93212	5.39
1.94878	5.38
1.96545	5.37
1.98212	5.36
1.99878	5.35
2.01545	5.34
2.03212	5.33
2.04878	5.32
2.06545	5.31
2.08212	5.30
2.09878	5.29
2.11545	5.28
2.13212	5.27
2.14878	5.26
2.16545	5.25
2.18212	5.24
2.19878	5.23
2.21545	5.22
2.23212	5.21
2.24878	5.20
2.26545	5.20
2.28212	5.19
2.29878	5.18
2.31545	5.17
2.33212	5.16
2.34878	5.15
2.36545	5.14
2.38212	5.14
2.39878	5.14
2.41545	5.14
2.43212	5.14
2.44878	5.14
2.46545	5.14
2.48212	5.14
2.49878	5.14
2.51545	5.13
2.53212	5.13
2.54878	5.13
2.56545	5.13
2.58212	5.13
2.59878	5.13
2.61545	5.13
2.63212	5.13
2.64878	5.13
2.66545	5.13
2.68212	5.13
2.69878	5.13
2.71545	5.13
2.73212	5.13
2.74878	5.13
2.76545	5.13
2.78212	5.13
2.79878	5.13
2.81545	5.13
2.83212	5.13
2.84878	5.13
2.86545	5.13
2.88212	5.13
2.89878	5.13
2.91545	5.13
2.93212	5.13
2.94878	5.13
2.96545	5.13
2.98212	5.13
2.99878	5.13
3.01545	5.13
3.03212	5.13
3.04878	5.13
3.06545	5.13
3.08212	5.13
3.09878	5.13
3.11545	5.13
3.13212	5.13
3.14878	5.13
3.16545	5.13
3.18212	5.13
3.19878	5.13
3.21545	5.13
3.23212	5.13
3.24878	5.13
3.26545	5.13
3.28212	5.13
3.29878	5.13
3.31545	5.13
3.33212	5.13
3.34878	5.13
3.36545	5.13
3.38212	5.13
3.39878	5.13
3.41545	5.13
3.43212	5.13
3.44878	5.13
3.46545	5.13
3.48212	5.13
3.49878	5.13
3.51545	5.13
3.53212	5.13
3.54878	5.13
3.56545	5.13
3.58212	5.13
3.59878	5.13
3.61545	5.13
3.63212	5.13
3.64878	5.13
3.66545	5.13
3.68212	5.13
3.69878	5.13
3.71545	5.13
3.73212	5.13
3.74878	5.13
3.76545	5.13
3.78212	5.13
3.79878	5.13
3.81545	5.13
3.83212	5.13
3.84878	5.13
3.86545	5.13
3.88212	5.13
3.89878	5.13
3.91545	5.13
3.93212	5.13
3.94878	5.13
3.96545	5.13
3.98212	5.13
3.99878	5.13

[Status Trace (Linear Velocity)]
Interval(msec)	1000
# of Points	240
Start Time(min)	0.015
End Time(min)	3.999
Intensity Units	
Intensity Multiplier	1
R.Time (min)	Intensity
0.01545	38.48
0.03212	37.55
0.04878	39.13
0.06545	40.25
0.08212	39.39
0.09878	39.01
0.11545	39.03
0.13212	39.04
0.14878	39.03
0.16545	39.03
0.18212	39.03
0.19878	39.03
0.21545	39.03
0.23212	39.02
0.24878	39.02
0.26545	39.02
0.28212	39.03
0.29878	39.03
0.31545	39.03
0.33212	39.03
0.34878	39.03
0.36545	39.03
0.38212	39.03
0.39878	39.03
0.41545	39.03
0.43212	39.03
0.44878	39.03
0.46545	39.03
0.48212	39.03
0.49878	39.03
0.51545	39.03
0.53212	39.03
0.54878	39.03
0.56545	39.03
0.58212	39.03
0.59878	39.03
0.61545	39.03
0.63212	39.03
0.64878	39.03
0.66545	39.03
0.68212	39.03
0.69878	39.03
0.71545	39.03
0.73212	39.03
0.74878	39.03
0.76545	39.03
0.78212	39.03
0.79878	39.03
0.81545	39.03
0.83212	39.03
0.84878	39.03
0.86545	39.03
0.88212	39.03
0.89878	39.03
0.91545	39.03
0.93212	39.03
0.94878	39.03
0.96545	39.03
0.98212	39.03
0.99878	39.03
1.01545	39.03
1.03212	39.03
1.04878	39.03
1.06545	39.03
1.08212	39.03
1.09878	39.03
1.11545	39.03
1.13212	39.03
1.14878	39.03
1.16545	39.03
1.18212	39.03
1.19878	39.03
1.21545	39.03
1.23212	39.03
1.24878	39.03
1.26545	39.03
1.28212	39.03
1.29878	39.03
1.31545	39.03
1.33212	39.03
1.34878	39.03
1.36545	39.03
1.38212	39.03
1.39878	39.03
1.41545	39.03
1.43212	39.03
1.44878	39.03
1.46545	39.03
1.48212	39.03
1.49878	39.03
1.51545	39.03
1.53212	39.03
1.54878	39.03
1.56545	39.03
1.58212	39.03
1.59878	39.03
1.61545	39.02
1.63212	39.01
1.64878	38.99
1.66545	38.96
1.68212	38.92
1.69878	38.89
1.71545	38.86
1.73212	38.82
1.74878	38.79
1.76545	38.76
1.78212	38.73
1.79878	38.70
1.81545	38.67
1.83212	38.63
1.84878	38.60
1.86545	38.58
1.88212	38.54
1.89878	38.51
1.91545	38.48
1.93212	38.45
1.94878	38.42
1.96545	38.39
1.98212	38.36
1.99878	38.33
2.01545	38.30
2.03212	38.27
2.04878	38.24
2.06545	38.21
2.08212	38.18
2.09878	38.15
2.11545	38.12
2.13212	38.09
2.14878	38.06
2.16545	38.03
2.18212	38.00
2.19878	37.97
2.21545	37.95
2.23212	37.91
2.24878	37.89
2.26545	37.86
2.28212	37.82
2.29878	37.79
2.31545	37.77
2.33212	37.74
2.34878	37.71
2.36545	37.69
2.38212	37.67
2.39878	37.67
2.41545	37.67
2.43212	37.67
2.44878	37.67
2.46545	37.67
2.48212	37.67
2.49878	37.67
2.51545	37.66
2.53212	37.66
2.54878	37.67
2.56545	37.66
2.58212	37.66
2.59878	37.66
2.61545	37.66
2.63212	37.66
2.64878	37.66
2.66545	37.66
2.68212	37.66
2.69878	37.66
2.71545	37.66
2.73212	37.66
2.74878	37.66
2.76545	37.66
2.78212	37.66
2.79878	37.66
2.81545	37.65
2.83212	37.65
2.84878	37.65
2.86545	37.65
2.88212	37.65
2.89878	37.65
2.91545	37.65
2.93212	37.65
2.94878	37.65
2.96545	37.65
2.98212	37.65
2.99878	37.65
3.01545	37.65
3.03212	37.65
3.04878	37.65
3.06545	37.65
3.08212	37.64
3.09878	37.64
3.11545	37.64
3.13212	37.64
3.14878	37.64
3.16545	37.64
3.18212	37.64
3.19878	37.64
3.21545	37.64
3.23212	37.64
3.24878	37.64
3.26545	37.64
3.28212	37.64
3.29878	37.64
3.31545	37.64
3.33212	37.64
3.34878	37.64
3.36545	37.64
3.38212	37.64
3.39878	37.64
3.41545	37.64
3.43212	37.64
3.44878	37.64
3.46545	37.64
3.48212	37.64
3.49878	37.64
3.51545	37.64
3.53212	37.64
3.54878	37.64
3.56545	37.64
3.58212	37.64
3.59878	37.64
3.61545	37.64
3.63212	37.64
3.64878	37.64
3.66545	37.64
3.68212	37.64
3.69878	37.64
3.71545	37.64
3.73212	37.64
3.74878	37.64
3.76545	37.64
3.78212	37.64
3.79878	37.64
3.81545	37.64
3.83212	37.64
3.84878	37.64
3.86545	37.64
3.88212	37.64
3.89878	37.64
3.91545	37.64
3.93212	37.64
3.94878	37.64
3.96545	37.64
3.98212	37.64
3.99878	37.64

