[Header]
Application Name	LabSolutions
Version	5.110
Data File Name	C:\Users\User\Desktop\GC Analyses\Jack\Nachusa Grasslands Sampling\T0 Timepoint July 12th\T0_07122022_001.gcd
Output Date	3/14/2023
Output Time	3:40:33 PM

[File Information]
Type	Data File
Generated	3/7/2023 1:50:21 PM
Generated by	System Administrator
Modified	3/7/2023 1:54:37 PM
Modified by	System Administrator

[Sample Information]
Operator Name	System Administrator
Acquired	3/7/2023 1:50:36 PM
Sample Type	0:Unknown
Level	0
Sample Name	001
Sample ID	001
ISTD Amount1	1
ISTD Amount2	1
ISTD Amount3	1
ISTD Amount4	1
ISTD Amount5	1
ISTD Amount6	1
ISTD Amount7	1
ISTD Amount8	1
ISTD Amount9	1
ISTD Amount10	1
ISTD Amount11	1
ISTD Amount12	1
ISTD Amount13	1
ISTD Amount14	1
ISTD Amount15	1
ISTD Amount16	1
ISTD Amount17	1
ISTD Amount18	1
ISTD Amount19	1
ISTD Amount20	1
ISTD Amount21	1
ISTD Amount22	1
ISTD Amount23	1
ISTD Amount24	1
ISTD Amount25	1
ISTD Amount26	1
ISTD Amount27	1
ISTD Amount28	1
ISTD Amount29	1
ISTD Amount30	1
ISTD Amount31	1
ISTD Amount32	1
Sample Amount	1
Dilution Factor	1
Vial#	0
Injection Volume	1
Injection Count	1
Bar Code	

[Original Files]
Data File	C:\Users\User\Desktop\GC Analyses\Jack\Nachusa Grasslands Sampling\T0 Timepoint July 12th\T0_07122022_001.gcd
Method File	C:\LabSolutions\Data\GHG_4min_2022\ghg3_togas_w_acet_4 min_new_int.gcm
Batch File	C:\LabSolutions\Data\AutoSamplerTesting\T0_07122022.gcb
Report Format File	c:\LabSolutions\System\DEFAULT.lsr

[File Description]


[Configuration]
Instrument Name	C0B7VH3-Instrument1
Instrument #	1
Line #	1
# of Detectors	3
Detector ID	DET#1	DET#2	DET#3
Detector Name	FID	PTCD	ECD
# of Channels	1	1	1

[Peak Table(Ch1)]
# of Peaks	3
Peak#	R.Time	I.Time	F.Time	Area	Height	A/H	Conc.	Mark	ID#	Name	k'	Plate #	Plate Ht.	Tailing	Resolution	Sep.Factor	Area Ratio	Height Ratio	Conc. %	Norm Conc.
1	1.457	1.432	1.531	3139	944	3.326	22.160	   	1	CO	0.000	4123	36.380	0.000	0.000	0.000	0	0	2.050	2.050
2	1.567	1.531	1.652	23608	11032	2.140	456.488	 V 	2	CH4	0.075	10208	14.694	1.173	1.439	0.000	0	0	42.235	42.235
3	1.996	1.949	2.535	2399392	1075949	2.230	602.182	   	3	CO2	0.370	15881	9.446	1.228	6.841	4.900	0	0	55.715	55.715

[Peak Table(Ch2)]
# of Peaks	0

[Peak Table(Ch3)]
# of Peaks	4
Peak#	R.Time	I.Time	F.Time	Area	Height	A/H	Conc.	Mark	ID#	Name	k'	Plate #	Plate Ht.	Tailing	Resolution	Sep.Factor	Area Ratio	Height Ratio	Conc. %	Norm Conc.
1	2.007	1.890	2.341	1477911	379163	3.898	0.000	   			0.000	6087	24.644	1.708	0.000	0.000	0	0	0.000	0.000
2	2.590	2.341	2.645	3312	234	14.173	0.000	 V 			0.290	41	3665.239	0.000	0.677	0.000	0	0	0.000	0.000
3	2.730	2.686	2.770	81	26	3.040	0.002	   	1	N2O	0.360	16903	8.874	0.966	0.164	1.239	0	0	0.133	0.133
4	2.880	2.803	3.067	60683	15880	3.821	1.550	   	1	N2O	0.435	12722	11.790	1.572	1.615	1.208	0	0	99.867	99.867

[Compound Results(Ch1)]
# of IDs	6
ID#	Name	R.Time	Area	Height	Conc.	Curve	3rd	2nd	1st	Constant	Area Ratio	Height Ratio	Conc. %	Norm Conc.
1	CO	1.457	3139	944	22.160	Linear	0.000000e+00	0.000000e+00	1.416423e+002	0.000000e+00	0	0	2.050	2.050
2	CH4	1.567	23608	11032	456.488	Linear	0.000000e+00	0.000000e+00	5.171738e+001	0.000000e+00	0	0	42.235	42.235
3	CO2	1.996	2399392	1075949	602.182	Linear	0.000000e+00	0.000000e+00	3.984494e+003	0.000000e+00	0	0	55.715	55.715
4	Ethylene	0.000	0	0	0.000	Linear	0.000000e+00	0.000000e+00	0.000000e+00	0.000000e+00	0	0	0.000	0.000
5	Acetylene	0.000	0	0	0.000	Linear	0.000000e+00	0.000000e+00	0.000000e+00	0.000000e+00	0	0	0.000	0.000
6	Ethane	0.000	0	0	0.000	Linear	0.000000e+00	0.000000e+00	0.000000e+00	0.000000e+00	0	0	0.000	0.000

[Compound Results(Ch2)]
# of IDs	5
ID#	Name	R.Time	Area	Height	Conc.	Curve	3rd	2nd	1st	Constant	Area Ratio	Height Ratio	Conc. %	Norm Conc.
1	Hydrogen	0.000	0	0	0.000	Linear	0.000000e+00	0.000000e+00	0.000000e+00	0.000000e+00	0	0	0.000	0.000
2	Oxygen	0.000	0	0	0.000	Linear	0.000000e+00	0.000000e+00	0.000000e+00	0.000000e+00	0	0	0.000	0.000
3	Nitrogen	0.000	0	0	0.000	Linear	0.000000e+00	0.000000e+00	0.000000e+00	0.000000e+00	0	0	0.000	0.000
4	Methane	0.000	0	0	0.000	Linear	0.000000e+00	0.000000e+00	0.000000e+00	0.000000e+00	0	0	0.000	0.000
5	Carbon Monoxide	0.000	0	0	0.000	Linear	0.000000e+00	0.000000e+00	0.000000e+00	0.000000e+00	0	0	0.000	0.000

[Compound Results(Ch3)]
# of IDs	2
ID#	Name	R.Time	Area	Height	Conc.	Curve	3rd	2nd	1st	Constant	Area Ratio	Height Ratio	Conc. %	Norm Conc.
1	N2O	2.880	60763	15907	1.552	Linear	0.000000e+00	0.000000e+00	3.915173e+004	0.000000e+00	0	0	100.000	100.000
2	SF6	0.000	0	0	0.000	Linear	0.000000e+00	0.000000e+00	0.000000e+00	0.000000e+00	0	0	0.000	0.000

[Group Results(Ch1)]
# of Groups	0

[Group Results(Ch2)]
# of Groups	0

[Group Results(Ch3)]
# of Groups	0

[Chromatogram (Ch1)]
Interval(msec)	220
# of Points	1091
Start Time(min)	0.002
End Time(min)	3.998
R.Time (min)	Intensity
0.00167	-12
0.00533	-17
0.00900	-18
0.01267	-12
0.01633	-2
0.02000	4
0.02367	9
0.02733	13
0.03100	14
0.03467	12
0.03833	5
0.04200	-2
0.04567	-5
0.04933	-4
0.05300	-4
0.05667	-7
0.06033	-12
0.06400	-16
0.06767	-16
0.07133	-10
0.07500	-0
0.07867	9
0.08233	16
0.08600	22
0.08967	30
0.09333	32
0.09700	24
0.10067	11
0.10433	-3
0.10800	-12
0.11167	-15
0.11533	-17
0.11900	-18
0.12267	-18
0.12633	-18
0.13000	-16
0.13367	-13
0.13733	-9
0.14100	-4
0.14467	-0
0.14833	5
0.15200	13
0.15567	21
0.15933	28
0.16300	31
0.16667	29
0.17033	23
0.17400	19
0.17767	18
0.18133	17
0.18500	11
0.18867	4
0.19233	-3
0.19600	-11
0.19967	-16
0.20333	-16
0.20700	-12
0.21067	-8
0.21433	-8
0.21800	-12
0.22167	-18
0.22533	-21
0.22900	-22
0.23267	-19
0.23633	-9
0.24000	5
0.24367	11
0.24733	11
0.25100	9
0.25467	9
0.25833	11
0.26200	9
0.26567	5
0.26933	-0
0.27300	-3
0.27667	-4
0.28033	-6
0.28400	-8
0.28767	-11
0.29133	-12
0.29500	-12
0.29867	-11
0.30233	-11
0.30600	-14
0.30967	-15
0.31333	-13
0.31700	-11
0.32067	-7
0.32433	-1
0.32800	2
0.33167	4
0.33533	8
0.33900	14
0.34267	20
0.34633	24
0.35000	22
0.35367	14
0.35733	6
0.36100	1
0.36467	-1
0.36833	-2
0.37200	-3
0.37567	-4
0.37933	-3
0.38300	-2
0.38667	1
0.39033	6
0.39400	8
0.39767	6
0.40133	3
0.40500	1
0.40867	2
0.41233	6
0.41600	12
0.41967	15
0.42333	14
0.42700	9
0.43067	1
0.43433	-5
0.43800	-11
0.44167	-15
0.44533	-16
0.44900	-11
0.45267	-3
0.45633	6
0.46000	14
0.46367	17
0.46733	17
0.47100	15
0.47467	10
0.47833	6
0.48200	3
0.48567	4
0.48933	7
0.49300	13
0.49667	19
0.50033	21
0.50400	25
0.50767	31
0.51133	34
0.51500	32
0.51867	29
0.52233	23
0.52600	16
0.52967	7
0.53333	0
0.53700	-5
0.54067	-9
0.54433	-13
0.54800	-15
0.55167	-14
0.55533	-9
0.55900	-3
0.56267	4
0.56633	8
0.57000	10
0.57367	10
0.57733	6
0.58100	1
0.58467	1
0.58833	2
0.59200	4
0.59567	5
0.59933	4
0.60300	4
0.60667	4
0.61033	7
0.61400	9
0.61767	8
0.62133	5
0.62500	3
0.62867	0
0.63233	-1
0.63600	0
0.63967	3
0.64333	4
0.64700	2
0.65067	1
0.65433	1
0.65800	2
0.66167	6
0.66533	11
0.66900	20
0.67267	28
0.67633	28
0.68000	21
0.68367	15
0.68733	8
0.69100	1
0.69467	-8
0.69833	-16
0.70200	-19
0.70567	-15
0.70933	-7
0.71300	2
0.71667	7
0.72033	9
0.72400	8
0.72767	3
0.73133	-2
0.73500	-3
0.73867	-2
0.74233	2
0.74600	9
0.74967	15
0.75333	16
0.75700	14
0.76067	9
0.76433	1
0.76800	-3
0.77167	-6
0.77533	-7
0.77900	-6
0.78267	-4
0.78633	0
0.79000	3
0.79367	6
0.79733	8
0.80100	10
0.80467	13
0.80833	19
0.81200	29
0.81567	34
0.81933	33
0.82300	28
0.82667	21
0.83033	9
0.83400	-1
0.83767	-9
0.84133	-13
0.84500	-16
0.84867	-19
0.85233	-20
0.85600	-16
0.85967	-10
0.86333	-5
0.86700	-2
0.87067	3
0.87433	8
0.87800	13
0.88167	15
0.88533	17
0.88900	21
0.89267	23
0.89633	23
0.90000	20
0.90367	16
0.90733	12
0.91100	4
0.91467	-6
0.91833	-12
0.92200	-13
0.92567	-10
0.92933	-9
0.93300	-10
0.93667	-10
0.94033	-8
0.94400	-5
0.94767	-3
0.95133	1
0.95500	8
0.95867	11
0.96233	13
0.96600	14
0.96967	16
0.97333	20
0.97700	25
0.98067	23
0.98433	14
0.98800	-3
0.99167	-21
0.99533	-35
0.99900	-43
1.00267	-43
1.00633	-38
1.01000	-29
1.01367	-19
1.01733	-11
1.02100	-4
1.02467	0
1.02833	4
1.03200	9
1.03567	15
1.03933	19
1.04300	20
1.04667	18
1.05033	17
1.05400	19
1.05767	18
1.06133	11
1.06500	3
1.06867	-3
1.07233	-3
1.07600	1
1.07967	4
1.08333	6
1.08700	8
1.09067	8
1.09433	5
1.09800	0
1.10167	-4
1.10533	-8
1.10900	-11
1.11267	-11
1.11633	-7
1.12000	0
1.12367	11
1.12733	18
1.13100	20
1.13467	19
1.13833	15
1.14200	7
1.14567	-3
1.14933	-9
1.15300	-13
1.15667	-12
1.16033	-3
1.16400	13
1.16767	26
1.17133	32
1.17500	31
1.17867	22
1.18233	9
1.18600	-1
1.18967	-9
1.19333	-17
1.19700	-27
1.20067	-33
1.20433	-34
1.20800	-33
1.21167	-26
1.21533	-18
1.21900	-9
1.22267	-0
1.22633	6
1.23000	11
1.23367	16
1.23733	17
1.24100	15
1.24467	8
1.24833	-1
1.25200	1
1.25567	5
1.25933	8
1.26300	11
1.26667	14
1.27033	17
1.27400	16
1.27767	14
1.28133	11
1.28500	6
1.28867	0
1.29233	-7
1.29600	-13
1.29967	-14
1.30333	-12
1.30700	-11
1.31067	-13
1.31433	-18
1.31800	-22
1.32167	-22
1.32533	-18
1.32900	-11
1.33267	-3
1.33633	4
1.34000	7
1.34367	6
1.34733	3
1.35100	2
1.35467	4
1.35833	9
1.36200	13
1.36567	13
1.36933	11
1.37300	8
1.37667	6
1.38033	3
1.38400	-0
1.38767	-4
1.39133	-6
1.39500	-3
1.39867	4
1.40233	11
1.40600	15
1.40967	12
1.41333	4
1.41700	-2
1.42067	-5
1.42433	-5
1.42800	-3
1.43167	5
1.43533	30
1.43900	135
1.44267	368
1.44633	633
1.45000	827
1.45367	926
1.45733	951
1.46100	930
1.46467	887
1.46833	841
1.47200	805
1.47567	786
1.47933	781
1.48300	773
1.48667	743
1.49033	688
1.49400	615
1.49767	536
1.50133	458
1.50500	387
1.50867	327
1.51233	276
1.51600	234
1.51967	199
1.52333	171
1.52700	146
1.53067	133
1.53433	180
1.53800	457
1.54167	1251
1.54533	2729
1.54900	4689
1.55267	6703
1.55633	8435
1.56000	9752
1.56367	10637
1.56733	11049
1.57100	10857
1.57467	9959
1.57833	8461
1.58200	6681
1.58567	4962
1.58933	3521
1.59300	2419
1.59667	1626
1.60033	1078
1.60400	712
1.60767	472
1.61133	320
1.61500	228
1.61867	166
1.62233	122
1.62600	92
1.62967	73
1.63333	63
1.63700	55
1.64067	46
1.64433	36
1.64800	28
1.65167	24
1.65533	25
1.65900	28
1.66267	30
1.66633	30
1.67000	26
1.67367	20
1.67733	16
1.68100	15
1.68467	16
1.68833	18
1.69200	19
1.69567	20
1.69933	23
1.70300	28
1.70667	28
1.71033	20
1.71400	10
1.71767	2
1.72133	-1
1.72500	-1
1.72867	2
1.73233	5
1.73600	8
1.73967	11
1.74333	14
1.74700	18
1.75067	22
1.75433	26
1.75800	24
1.76167	19
1.76533	17
1.76900	15
1.77267	15
1.77633	16
1.78000	17
1.78367	18
1.78733	20
1.79100	22
1.79467	27
1.79833	33
1.80200	39
1.80567	46
1.80933	51
1.81300	54
1.81667	51
1.82033	41
1.82400	29
1.82767	20
1.83133	12
1.83500	5
1.83867	1
1.84233	-0
1.84600	2
1.84967	9
1.85333	17
1.85700	25
1.86067	34
1.86433	44
1.86800	47
1.87167	42
1.87533	32
1.87900	23
1.88267	19
1.88633	17
1.89000	15
1.89367	12
1.89733	11
1.90100	11
1.90467	16
1.90833	23
1.91200	30
1.91567	32
1.91933	31
1.92300	32
1.92667	36
1.93033	42
1.93400	47
1.93767	48
1.94133	46
1.94500	49
1.94867	65
1.95233	185
1.95600	935
1.95967	4551
1.96333	17693
1.96700	54225
1.97067	132674
1.97433	263969
1.97800	439366
1.98167	631831
1.98533	810661
1.98900	952872
1.99267	1044431
1.99633	1076058
2.00000	1043760
2.00367	952532
2.00733	817984
2.01100	663060
2.01467	510772
2.01833	377545
2.02200	270795
2.02567	190656
2.02933	133229
2.03300	93346
2.03667	66182
2.04033	47859
2.04400	35515
2.04767	27148
2.05133	21406
2.05500	17388
2.05867	14510
2.06233	12394
2.06600	10798
2.06967	9562
2.07333	8579
2.07700	7775
2.08067	7107
2.08433	6545
2.08800	6065
2.09167	5652
2.09533	5293
2.09900	4978
2.10267	4699
2.10633	4446
2.11000	4212
2.11367	3999
2.11733	3804
2.12100	3626
2.12467	3465
2.12833	3321
2.13200	3188
2.13567	3065
2.13933	2948
2.14300	2838
2.14667	2738
2.15033	2645
2.15400	2557
2.15767	2471
2.16133	2386
2.16500	2306
2.16867	2233
2.17233	2166
2.17600	2105
2.17967	2048
2.18333	1994
2.18700	1945
2.19067	1900
2.19433	1853
2.19800	1801
2.20167	1750
2.20533	1701
2.20900	1656
2.21267	1616
2.21633	1581
2.22000	1545
2.22367	1507
2.22733	1472
2.23100	1440
2.23467	1413
2.23833	1385
2.24200	1356
2.24567	1325
2.24933	1294
2.25300	1265
2.25667	1238
2.26033	1216
2.26400	1199
2.26767	1183
2.27133	1168
2.27500	1155
2.27867	1140
2.28233	1124
2.28600	1105
2.28967	1084
2.29333	1060
2.29700	1035
2.30067	1014
2.30433	993
2.30800	977
2.31167	967
2.31533	959
2.31900	953
2.32267	949
2.32633	944
2.33000	934
2.33367	925
2.33733	917
2.34100	913
2.34467	910
2.34833	901
2.35200	886
2.35567	869
2.35933	854
2.36300	835
2.36667	815
2.37033	799
2.37400	788
2.37767	780
2.38133	774
2.38500	767
2.38867	759
2.39233	750
2.39600	744
2.39967	741
2.40333	737
2.40700	733
2.41067	730
2.41433	732
2.41800	735
2.42167	733
2.42533	727
2.42900	719
2.43267	714
2.43633	715
2.44000	716
2.44367	712
2.44733	702
2.45100	691
2.45467	680
2.45833	669
2.46200	663
2.46567	659
2.46933	657
2.47300	653
2.47667	651
2.48033	650
2.48400	646
2.48767	639
2.49133	629
2.49500	620
2.49867	611
2.50233	608
2.50600	612
2.50967	618
2.51333	620
2.51700	619
2.52067	616
2.52433	615
2.52800	611
2.53167	602
2.53533	599
2.53900	601
2.54267	599
2.54633	593
2.55000	585
2.55367	580
2.55733	579
2.56100	582
2.56467	587
2.56833	590
2.57200	590
2.57567	589
2.57933	586
2.58300	582
2.58667	572
2.59033	554
2.59400	535
2.59767	518
2.60133	507
2.60500	502
2.60867	502
2.61233	503
2.61600	506
2.61967	508
2.62333	510
2.62700	514
2.63067	516
2.63433	520
2.63800	524
2.64167	526
2.64533	528
2.64900	529
2.65267	528
2.65633	527
2.66000	526
2.66367	526
2.66733	530
2.67100	534
2.67467	536
2.67833	538
2.68200	542
2.68567	543
2.68933	537
2.69300	531
2.69667	527
2.70033	526
2.70400	526
2.70767	526
2.71133	526
2.71500	527
2.71867	526
2.72233	524
2.72600	522
2.72967	517
2.73333	512
2.73700	509
2.74067	509
2.74433	512
2.74800	516
2.75167	519
2.75533	522
2.75900	523
2.76267	520
2.76633	517
2.77000	512
2.77367	507
2.77733	506
2.78100	508
2.78467	511
2.78833	509
2.79200	508
2.79567	510
2.79933	518
2.80300	524
2.80667	527
2.81033	525
2.81400	520
2.81767	518
2.82133	519
2.82500	526
2.82867	536
2.83233	545
2.83600	546
2.83967	538
2.84333	529
2.84700	524
2.85067	523
2.85433	525
2.85800	527
2.86167	529
2.86533	530
2.86900	535
2.87267	544
2.87633	546
2.88000	542
2.88367	534
2.88733	524
2.89100	515
2.89467	510
2.89833	509
2.90200	513
2.90567	518
2.90933	521
2.91300	524
2.91667	526
2.92033	528
2.92400	531
2.92767	533
2.93133	532
2.93500	533
2.93867	534
2.94233	534
2.94600	536
2.94967	539
2.95333	540
2.95700	541
2.96067	543
2.96433	544
2.96800	545
2.97167	540
2.97533	532
2.97900	524
2.98267	520
2.98633	521
2.99000	522
2.99367	524
2.99733	526
3.00100	526
3.00467	527
3.00833	529
3.01200	535
3.01567	541
3.01933	544
3.02300	544
3.02667	542
3.03033	542
3.03400	543
3.03767	545
3.04133	546
3.04500	544
3.04867	543
3.05233	543
3.05600	541
3.05967	538
3.06333	534
3.06700	532
3.07067	533
3.07433	535
3.07800	537
3.08167	542
3.08533	552
3.08900	559
3.09267	564
3.09633	567
3.10000	568
3.10367	564
3.10733	561
3.11100	558
3.11467	559
3.11833	563
3.12200	568
3.12567	569
3.12933	568
3.13300	565
3.13667	562
3.14033	560
3.14400	559
3.14767	559
3.15133	558
3.15500	554
3.15867	548
3.16233	542
3.16600	537
3.16967	538
3.17333	546
3.17700	557
3.18067	564
3.18433	568
3.18800	571
3.19167	574
3.19533	575
3.19900	576
3.20267	572
3.20633	570
3.21000	572
3.21367	573
3.21733	574
3.22100	574
3.22467	571
3.22833	565
3.23200	557
3.23567	555
3.23933	557
3.24300	557
3.24667	556
3.25033	553
3.25400	551
3.25767	549
3.26133	551
3.26500	556
3.26867	563
3.27233	571
3.27600	578
3.27967	583
3.28333	580
3.28700	570
3.29067	559
3.29433	547
3.29800	537
3.30167	533
3.30533	537
3.30900	543
3.31267	548
3.31633	549
3.32000	552
3.32367	557
3.32733	561
3.33100	560
3.33467	554
3.33833	548
3.34200	543
3.34567	539
3.34933	537
3.35300	538
3.35667	541
3.36033	546
3.36400	551
3.36767	556
3.37133	565
3.37500	573
3.37867	577
3.38233	578
3.38600	576
3.38967	571
3.39333	566
3.39700	562
3.40067	558
3.40433	552
3.40800	547
3.41167	541
3.41533	537
3.41900	537
3.42267	540
3.42633	545
3.43000	552
3.43367	561
3.43733	571
3.44100	576
3.44467	575
3.44833	570
3.45200	563
3.45567	554
3.45933	548
3.46300	545
3.46667	543
3.47033	539
3.47400	534
3.47767	527
3.48133	523
3.48500	522
3.48867	525
3.49233	533
3.49600	543
3.49967	549
3.50333	552
3.50700	553
3.51067	555
3.51433	557
3.51800	556
3.52167	553
3.52533	549
3.52900	545
3.53267	540
3.53633	536
3.54000	534
3.54367	534
3.54733	534
3.55100	534
3.55467	537
3.55833	541
3.56200	545
3.56567	550
3.56933	555
3.57300	554
3.57667	551
3.58033	547
3.58400	543
3.58767	541
3.59133	541
3.59500	542
3.59867	546
3.60233	549
3.60600	552
3.60967	555
3.61333	554
3.61700	548
3.62067	542
3.62433	537
3.62800	531
3.63167	525
3.63533	523
3.63900	526
3.64267	530
3.64633	533
3.65000	535
3.65367	536
3.65733	536
3.66100	534
3.66467	531
3.66833	531
3.67200	530
3.67567	528
3.67933	529
3.68300	531
3.68667	534
3.69033	540
3.69400	545
3.69767	546
3.70133	543
3.70500	539
3.70867	538
3.71233	536
3.71600	531
3.71967	524
3.72333	523
3.72700	525
3.73067	526
3.73433	528
3.73800	528
3.74167	528
3.74533	525
3.74900	522
3.75267	518
3.75633	514
3.76000	512
3.76367	512
3.76733	514
3.77100	518
3.77467	526
3.77833	533
3.78200	538
3.78567	543
3.78933	542
3.79300	539
3.79667	536
3.80033	532
3.80400	526
3.80767	521
3.81133	515
3.81500	509
3.81867	506
3.82233	507
3.82600	512
3.82967	518
3.83333	521
3.83700	521
3.84067	520
3.84433	519
3.84800	517
3.85167	519
3.85533	524
3.85900	532
3.86267	536
3.86633	532
3.87000	521
3.87367	510
3.87733	501
3.88100	494
3.88467	488
3.88833	483
3.89200	482
3.89567	482
3.89933	485
3.90300	492
3.90667	498
3.91033	502
3.91400	506
3.91767	507
3.92133	512
3.92500	517
3.92867	521
3.93233	526
3.93600	529
3.93967	532
3.94333	530
3.94700	520
3.95067	512
3.95433	507
3.95800	503
3.96167	500
3.96533	498
3.96900	501
3.97267	506
3.97633	510
3.98000	510
3.98367	510
3.98733	508
3.99100	507
3.99467	506
3.99833	502

[Chromatogram (Ch2)]
Interval(msec)	220
# of Points	1091
Start Time(min)	0.002
End Time(min)	3.998
R.Time (min)	Intensity
0.00167	0
0.00533	0
0.00900	1
0.01267	1
0.01633	1
0.02000	1
0.02367	1
0.02733	1
0.03100	1
0.03467	1
0.03833	1
0.04200	1
0.04567	1
0.04933	1
0.05300	1
0.05667	0
0.06033	0
0.06400	-0
0.06767	-1
0.07133	-1
0.07500	-1
0.07867	-2
0.08233	-2
0.08600	-2
0.08967	-3
0.09333	-3
0.09700	-3
0.10067	-3
0.10433	-3
0.10800	-3
0.11167	-3
0.11533	-3
0.11900	-3
0.12267	-2
0.12633	-3
0.13000	-3
0.13367	-3
0.13733	-3
0.14100	-2
0.14467	-2
0.14833	-2
0.15200	-2
0.15567	-2
0.15933	-2
0.16300	-2
0.16667	-2
0.17033	-2
0.17400	-3
0.17767	-3
0.18133	-3
0.18500	-3
0.18867	-3
0.19233	-3
0.19600	-3
0.19967	-3
0.20333	-3
0.20700	-3
0.21067	-3
0.21433	-3
0.21800	-3
0.22167	-3
0.22533	-3
0.22900	-3
0.23267	-3
0.23633	-3
0.24000	-3
0.24367	-3
0.24733	-3
0.25100	-2
0.25467	-2
0.25833	-2
0.26200	-1
0.26567	-1
0.26933	-1
0.27300	-1
0.27667	-1
0.28033	-1
0.28400	-0
0.28767	-0
0.29133	-0
0.29500	0
0.29867	0
0.30233	1
0.30600	1
0.30967	1
0.31333	0
0.31700	-0
0.32067	-0
0.32433	-1
0.32800	-1
0.33167	-1
0.33533	-1
0.33900	-2
0.34267	-2
0.34633	-2
0.35000	-2
0.35367	-2
0.35733	-2
0.36100	-2
0.36467	-2
0.36833	-2
0.37200	-2
0.37567	-2
0.37933	-2
0.38300	-2
0.38667	-3
0.39033	-3
0.39400	-3
0.39767	-3
0.40133	-3
0.40500	-3
0.40867	-3
0.41233	-3
0.41600	-3
0.41967	-3
0.42333	-2
0.42700	-2
0.43067	-2
0.43433	-2
0.43800	-1
0.44167	-1
0.44533	-1
0.44900	-0
0.45267	-0
0.45633	-0
0.46000	-0
0.46367	-0
0.46733	-1
0.47100	-1
0.47467	-1
0.47833	-0
0.48200	-0
0.48567	-0
0.48933	-1
0.49300	-1
0.49667	-0
0.50033	-0
0.50400	-0
0.50767	0
0.51133	0
0.51500	0
0.51867	1
0.52233	1
0.52600	1
0.52967	1
0.53333	1
0.53700	1
0.54067	1
0.54433	1
0.54800	1
0.55167	1
0.55533	1
0.55900	1
0.56267	1
0.56633	1
0.57000	1
0.57367	1
0.57733	1
0.58100	0
0.58467	0
0.58833	0
0.59200	-0
0.59567	-0
0.59933	-0
0.60300	0
0.60667	0
0.61033	0
0.61400	1
0.61767	1
0.62133	1
0.62500	1
0.62867	0
0.63233	0
0.63600	1
0.63967	1
0.64333	1
0.64700	1
0.65067	1
0.65433	1
0.65800	1
0.66167	1
0.66533	1
0.66900	1
0.67267	1
0.67633	1
0.68000	1
0.68367	1
0.68733	1
0.69100	1
0.69467	1
0.69833	1
0.70200	1
0.70567	0
0.70933	0
0.71300	-0
0.71667	-1
0.72033	-1
0.72400	-2
0.72767	-2
0.73133	-3
0.73500	-3
0.73867	-4
0.74233	-4
0.74600	-4
0.74967	-4
0.75333	-4
0.75700	-4
0.76067	-4
0.76433	-3
0.76800	-3
0.77167	-3
0.77533	-3
0.77900	-2
0.78267	-2
0.78633	-1
0.79000	-1
0.79367	0
0.79733	0
0.80100	1
0.80467	1
0.80833	1
0.81200	1
0.81567	1
0.81933	1
0.82300	1
0.82667	0
0.83033	-0
0.83400	-0
0.83767	-1
0.84133	-1
0.84500	-1
0.84867	-1
0.85233	-1
0.85600	-1
0.85967	-2
0.86333	-2
0.86700	-2
0.87067	-3
0.87433	-3
0.87800	-3
0.88167	-3
0.88533	-3
0.88900	-2
0.89267	-2
0.89633	-2
0.90000	-3
0.90367	-3
0.90733	-3
0.91100	-3
0.91467	-3
0.91833	-3
0.92200	-3
0.92567	-3
0.92933	-2
0.93300	-2
0.93667	-2
0.94033	-2
0.94400	-2
0.94767	-1
0.95133	-1
0.95500	-1
0.95867	-0
0.96233	0
0.96600	1
0.96967	1
0.97333	1
0.97700	1
0.98067	1
0.98433	1
0.98800	1
0.99167	1
0.99533	0
0.99900	0
1.00267	0
1.00633	-0
1.01000	-0
1.01367	-0
1.01733	-1
1.02100	-1
1.02467	-1
1.02833	-2
1.03200	-2
1.03567	-2
1.03933	-3
1.04300	-3
1.04667	-3
1.05033	-3
1.05400	-3
1.05767	-3
1.06133	-4
1.06500	-4
1.06867	-4
1.07233	-4
1.07600	-4
1.07967	-4
1.08333	-4
1.08700	-4
1.09067	-3
1.09433	-3
1.09800	-3
1.10167	-3
1.10533	-3
1.10900	-2
1.11267	-2
1.11633	-2
1.12000	-1
1.12367	-1
1.12733	-0
1.13100	0
1.13467	1
1.13833	1
1.14200	2
1.14567	2
1.14933	2
1.15300	2
1.15667	2
1.16033	2
1.16400	2
1.16767	2
1.17133	2
1.17500	2
1.17867	2
1.18233	1
1.18600	1
1.18967	1
1.19333	1
1.19700	1
1.20067	1
1.20433	1
1.20800	1
1.21167	0
1.21533	0
1.21900	1
1.22267	1
1.22633	1
1.23000	1
1.23367	0
1.23733	-0
1.24100	-0
1.24467	-1
1.24833	-1
1.25200	-1
1.25567	-2
1.25933	-2
1.26300	-2
1.26667	-2
1.27033	-1
1.27400	-1
1.27767	-1
1.28133	-1
1.28500	-1
1.28867	-1
1.29233	-1
1.29600	-1
1.29967	-0
1.30333	-0
1.30700	-0
1.31067	-1
1.31433	-1
1.31800	-1
1.32167	-1
1.32533	-1
1.32900	-1
1.33267	-1
1.33633	-1
1.34000	-1
1.34367	-1
1.34733	-1
1.35100	-1
1.35467	-1
1.35833	-1
1.36200	-1
1.36567	-2
1.36933	-2
1.37300	-2
1.37667	-2
1.38033	-2
1.38400	-2
1.38767	-2
1.39133	-2
1.39500	-2
1.39867	-2
1.40233	-2
1.40600	-2
1.40967	-2
1.41333	-2
1.41700	-2
1.42067	-2
1.42433	-2
1.42800	-2
1.43167	-2
1.43533	-2
1.43900	-3
1.44267	-3
1.44633	-3
1.45000	-3
1.45367	-3
1.45733	-3
1.46100	-3
1.46467	-3
1.46833	-3
1.47200	-3
1.47567	-4
1.47933	-4
1.48300	-4
1.48667	-4
1.49033	-4
1.49400	-4
1.49767	-4
1.50133	-4
1.50500	-4
1.50867	-4
1.51233	-4
1.51600	-4
1.51967	-4
1.52333	-4
1.52700	-4
1.53067	-4
1.53433	-4
1.53800	-4
1.54167	-4
1.54533	-4
1.54900	-3
1.55267	-3
1.55633	-3
1.56000	-3
1.56367	-3
1.56733	-3
1.57100	-2
1.57467	-1
1.57833	-1
1.58200	-1
1.58567	-1
1.58933	-1
1.59300	-0
1.59667	-1
1.60033	-1
1.60400	-2
1.60767	-3
1.61133	-5
1.61500	-7
1.61867	-10
1.62233	-12
1.62600	-15
1.62967	-18
1.63333	-22
1.63700	-26
1.64067	-29
1.64433	-33
1.64800	-37
1.65167	-41
1.65533	-45
1.65900	-49
1.66267	-53
1.66633	-57
1.67000	-62
1.67367	-67
1.67733	-72
1.68100	-77
1.68467	-82
1.68833	-86
1.69200	-90
1.69567	-93
1.69933	-96
1.70300	-99
1.70667	-101
1.71033	-102
1.71400	-103
1.71767	-104
1.72133	-104
1.72500	-104
1.72867	-104
1.73233	-104
1.73600	-104
1.73967	-104
1.74333	-105
1.74700	-106
1.75067	-107
1.75433	-107
1.75800	-108
1.76167	-108
1.76533	-108
1.76900	-108
1.77267	-108
1.77633	-108
1.78000	-107
1.78367	-107
1.78733	-106
1.79100	-106
1.79467	-106
1.79833	-106
1.80200	-107
1.80567	-106
1.80933	-106
1.81300	-106
1.81667	-106
1.82033	-106
1.82400	-106
1.82767	-106
1.83133	-106
1.83500	-106
1.83867	-106
1.84233	-106
1.84600	-106
1.84967	-106
1.85333	-106
1.85700	-106
1.86067	-106
1.86433	-106
1.86800	-105
1.87167	-104
1.87533	-103
1.87900	-103
1.88267	-103
1.88633	-102
1.89000	-102
1.89367	-102
1.89733	-102
1.90100	-102
1.90467	-102
1.90833	-102
1.91200	-102
1.91567	-102
1.91933	-101
1.92300	-101
1.92667	-100
1.93033	-100
1.93400	-99
1.93767	-98
1.94133	-97
1.94500	-97
1.94867	-97
1.95233	-98
1.95600	-98
1.95967	-98
1.96333	-97
1.96700	-97
1.97067	-97
1.97433	-97
1.97800	-96
1.98167	-96
1.98533	-95
1.98900	-95
1.99267	-95
1.99633	-95
2.00000	-95
2.00367	-95
2.00733	-95
2.01100	-94
2.01467	-94
2.01833	-93
2.02200	-92
2.02567	-91
2.02933	-91
2.03300	-91
2.03667	-92
2.04033	-92
2.04400	-92
2.04767	-92
2.05133	-92
2.05500	-91
2.05867	-91
2.06233	-91
2.06600	-91
2.06967	-91
2.07333	-91
2.07700	-90
2.08067	-90
2.08433	-89
2.08800	-89
2.09167	-89
2.09533	-89
2.09900	-90
2.10267	-90
2.10633	-90
2.11000	-90
2.11367	-89
2.11733	-89
2.12100	-88
2.12467	-87
2.12833	-86
2.13200	-85
2.13567	-84
2.13933	-84
2.14300	-84
2.14667	-84
2.15033	-83
2.15400	-83
2.15767	-83
2.16133	-82
2.16500	-82
2.16867	-81
2.17233	-81
2.17600	-81
2.17967	-81
2.18333	-81
2.18700	-82
2.19067	-82
2.19433	-82
2.19800	-82
2.20167	-81
2.20533	-81
2.20900	-81
2.21267	-80
2.21633	-80
2.22000	-80
2.22367	-80
2.22733	-80
2.23100	-80
2.23467	-80
2.23833	-79
2.24200	-79
2.24567	-79
2.24933	-78
2.25300	-78
2.25667	-77
2.26033	-77
2.26400	-76
2.26767	-76
2.27133	-75
2.27500	-74
2.27867	-74
2.28233	-73
2.28600	-72
2.28967	-72
2.29333	-71
2.29700	-71
2.30067	-71
2.30433	-70
2.30800	-70
2.31167	-70
2.31533	-70
2.31900	-70
2.32267	-69
2.32633	-69
2.33000	-69
2.33367	-69
2.33733	-69
2.34100	-68
2.34467	-68
2.34833	-68
2.35200	-67
2.35567	-67
2.35933	-66
2.36300	-66
2.36667	-65
2.37033	-64
2.37400	-63
2.37767	-61
2.38133	-58
2.38500	-55
2.38867	-51
2.39233	-46
2.39600	-42
2.39967	-37
2.40333	-33
2.40700	-28
2.41067	-23
2.41433	-18
2.41800	-14
2.42167	-11
2.42533	-8
2.42900	-6
2.43267	-4
2.43633	-2
2.44000	-0
2.44367	1
2.44733	3
2.45100	4
2.45467	5
2.45833	5
2.46200	5
2.46567	5
2.46933	5
2.47300	5
2.47667	6
2.48033	7
2.48400	7
2.48767	8
2.49133	8
2.49500	9
2.49867	9
2.50233	9
2.50600	9
2.50967	10
2.51333	10
2.51700	11
2.52067	12
2.52433	13
2.52800	13
2.53167	14
2.53533	14
2.53900	15
2.54267	15
2.54633	15
2.55000	15
2.55367	15
2.55733	15
2.56100	15
2.56467	15
2.56833	14
2.57200	14
2.57567	14
2.57933	14
2.58300	14
2.58667	14
2.59033	15
2.59400	15
2.59767	15
2.60133	15
2.60500	15
2.60867	15
2.61233	15
2.61600	15
2.61967	15
2.62333	15
2.62700	15
2.63067	15
2.63433	16
2.63800	16
2.64167	17
2.64533	18
2.64900	19
2.65267	19
2.65633	20
2.66000	20
2.66367	20
2.66733	20
2.67100	19
2.67467	19
2.67833	19
2.68200	18
2.68567	18
2.68933	18
2.69300	18
2.69667	18
2.70033	18
2.70400	18
2.70767	19
2.71133	19
2.71500	19
2.71867	19
2.72233	20
2.72600	20
2.72967	20
2.73333	20
2.73700	20
2.74067	21
2.74433	21
2.74800	21
2.75167	21
2.75533	21
2.75900	21
2.76267	21
2.76633	20
2.77000	20
2.77367	19
2.77733	19
2.78100	19
2.78467	19
2.78833	18
2.79200	18
2.79567	18
2.79933	18
2.80300	18
2.80667	18
2.81033	18
2.81400	18
2.81767	18
2.82133	18
2.82500	18
2.82867	18
2.83233	18
2.83600	17
2.83967	17
2.84333	17
2.84700	17
2.85067	17
2.85433	17
2.85800	17
2.86167	17
2.86533	17
2.86900	17
2.87267	18
2.87633	18
2.88000	18
2.88367	19
2.88733	19
2.89100	19
2.89467	20
2.89833	20
2.90200	20
2.90567	20
2.90933	20
2.91300	20
2.91667	20
2.92033	20
2.92400	20
2.92767	20
2.93133	20
2.93500	20
2.93867	20
2.94233	20
2.94600	20
2.94967	19
2.95333	19
2.95700	19
2.96067	18
2.96433	18
2.96800	18
2.97167	17
2.97533	17
2.97900	17
2.98267	16
2.98633	16
2.99000	16
2.99367	16
2.99733	17
3.00100	17
3.00467	17
3.00833	17
3.01200	17
3.01567	17
3.01933	17
3.02300	17
3.02667	17
3.03033	18
3.03400	18
3.03767	18
3.04133	18
3.04500	18
3.04867	19
3.05233	19
3.05600	19
3.05967	19
3.06333	19
3.06700	19
3.07067	19
3.07433	18
3.07800	18
3.08167	18
3.08533	18
3.08900	18
3.09267	18
3.09633	17
3.10000	17
3.10367	17
3.10733	18
3.11100	18
3.11467	18
3.11833	18
3.12200	18
3.12567	19
3.12933	19
3.13300	19
3.13667	20
3.14033	20
3.14400	20
3.14767	21
3.15133	21
3.15500	21
3.15867	22
3.16233	22
3.16600	22
3.16967	22
3.17333	22
3.17700	22
3.18067	23
3.18433	23
3.18800	23
3.19167	23
3.19533	24
3.19900	24
3.20267	24
3.20633	24
3.21000	24
3.21367	23
3.21733	23
3.22100	23
3.22467	23
3.22833	24
3.23200	24
3.23567	24
3.23933	24
3.24300	24
3.24667	24
3.25033	25
3.25400	25
3.25767	25
3.26133	25
3.26500	25
3.26867	25
3.27233	24
3.27600	24
3.27967	24
3.28333	24
3.28700	24
3.29067	24
3.29433	24
3.29800	24
3.30167	24
3.30533	24
3.30900	24
3.31267	24
3.31633	24
3.32000	24
3.32367	24
3.32733	24
3.33100	24
3.33467	24
3.33833	23
3.34200	23
3.34567	23
3.34933	23
3.35300	23
3.35667	22
3.36033	22
3.36400	22
3.36767	22
3.37133	22
3.37500	22
3.37867	22
3.38233	22
3.38600	22
3.38967	22
3.39333	22
3.39700	22
3.40067	22
3.40433	21
3.40800	21
3.41167	21
3.41533	21
3.41900	21
3.42267	21
3.42633	21
3.43000	21
3.43367	21
3.43733	21
3.44100	21
3.44467	21
3.44833	21
3.45200	21
3.45567	21
3.45933	21
3.46300	21
3.46667	21
3.47033	21
3.47400	21
3.47767	21
3.48133	21
3.48500	21
3.48867	21
3.49233	21
3.49600	21
3.49967	21
3.50333	21
3.50700	21
3.51067	21
3.51433	21
3.51800	21
3.52167	22
3.52533	22
3.52900	22
3.53267	22
3.53633	22
3.54000	22
3.54367	22
3.54733	21
3.55100	21
3.55467	21
3.55833	21
3.56200	21
3.56567	20
3.56933	20
3.57300	20
3.57667	20
3.58033	20
3.58400	20
3.58767	20
3.59133	20
3.59500	20
3.59867	20
3.60233	21
3.60600	21
3.60967	22
3.61333	22
3.61700	22
3.62067	22
3.62433	23
3.62800	23
3.63167	23
3.63533	23
3.63900	23
3.64267	23
3.64633	23
3.65000	23
3.65367	23
3.65733	22
3.66100	22
3.66467	22
3.66833	22
3.67200	22
3.67567	21
3.67933	21
3.68300	21
3.68667	21
3.69033	21
3.69400	21
3.69767	21
3.70133	21
3.70500	21
3.70867	21
3.71233	20
3.71600	20
3.71967	20
3.72333	20
3.72700	20
3.73067	20
3.73433	20
3.73800	20
3.74167	20
3.74533	20
3.74900	20
3.75267	21
3.75633	21
3.76000	21
3.76367	21
3.76733	21
3.77100	21
3.77467	21
3.77833	21
3.78200	21
3.78567	21
3.78933	20
3.79300	21
3.79667	21
3.80033	21
3.80400	21
3.80767	21
3.81133	21
3.81500	21
3.81867	21
3.82233	21
3.82600	21
3.82967	21
3.83333	22
3.83700	22
3.84067	22
3.84433	22
3.84800	23
3.85167	23
3.85533	23
3.85900	24
3.86267	25
3.86633	25
3.87000	25
3.87367	26
3.87733	26
3.88100	26
3.88467	26
3.88833	26
3.89200	25
3.89567	25
3.89933	25
3.90300	25
3.90667	25
3.91033	25
3.91400	25
3.91767	25
3.92133	25
3.92500	25
3.92867	25
3.93233	26
3.93600	26
3.93967	25
3.94333	25
3.94700	25
3.95067	25
3.95433	25
3.95800	25
3.96167	25
3.96533	25
3.96900	25
3.97267	25
3.97633	25
3.98000	25
3.98367	25
3.98733	25
3.99100	25
3.99467	25
3.99833	25

[Chromatogram (Ch3)]
Interval(msec)	220
# of Points	1091
Start Time(min)	0.002
End Time(min)	3.998
R.Time (min)	Intensity
0.00167	-1
0.00533	-0
0.00900	1
0.01267	2
0.01633	3
0.02000	2
0.02367	-2
0.02733	-4
0.03100	-3
0.03467	-2
0.03833	0
0.04200	-0
0.04567	-1
0.04933	-2
0.05300	-4
0.05667	-4
0.06033	-4
0.06400	-4
0.06767	-3
0.07133	-4
0.07500	-4
0.07867	-3
0.08233	-0
0.08600	1
0.08967	-0
0.09333	-3
0.09700	-4
0.10067	-4
0.10433	-4
0.10800	-3
0.11167	-2
0.11533	-2
0.11900	-1
0.12267	3
0.12633	3
0.13000	2
0.13367	2
0.13733	3
0.14100	1
0.14467	1
0.14833	1
0.15200	2
0.15567	2
0.15933	2
0.16300	4
0.16667	4
0.17033	2
0.17400	3
0.17767	2
0.18133	1
0.18500	-0
0.18867	1
0.19233	4
0.19600	4
0.19967	4
0.20333	4
0.20700	5
0.21067	2
0.21433	-0
0.21800	-2
0.22167	-4
0.22533	-4
0.22900	-4
0.23267	-3
0.23633	-0
0.24000	1
0.24367	-1
0.24733	-2
0.25100	-1
0.25467	-2
0.25833	-2
0.26200	-1
0.26567	-1
0.26933	-3
0.27300	-4
0.27667	-5
0.28033	-4
0.28400	-2
0.28767	-2
0.29133	-2
0.29500	-1
0.29867	-1
0.30233	-1
0.30600	0
0.30967	-0
0.31333	1
0.31700	-1
0.32067	-1
0.32433	-2
0.32800	-1
0.33167	-2
0.33533	-2
0.33900	-0
0.34267	0
0.34633	-2
0.35000	-1
0.35367	2
0.35733	3
0.36100	1
0.36467	-3
0.36833	-5
0.37200	-4
0.37567	-3
0.37933	-3
0.38300	-3
0.38667	-1
0.39033	2
0.39400	2
0.39767	1
0.40133	0
0.40500	0
0.40867	-1
0.41233	-1
0.41600	-2
0.41967	0
0.42333	4
0.42700	4
0.43067	1
0.43433	-0
0.43800	1
0.44167	-0
0.44533	-1
0.44900	-0
0.45267	1
0.45633	1
0.46000	1
0.46367	2
0.46733	4
0.47100	8
0.47467	9
0.47833	9
0.48200	6
0.48567	5
0.48933	6
0.49300	8
0.49667	8
0.50033	8
0.50400	9
0.50767	8
0.51133	7
0.51500	7
0.51867	6
0.52233	7
0.52600	7
0.52967	7
0.53333	6
0.53700	7
0.54067	9
0.54433	8
0.54800	9
0.55167	11
0.55533	12
0.55900	9
0.56267	7
0.56633	6
0.57000	6
0.57367	6
0.57733	5
0.58100	6
0.58467	8
0.58833	7
0.59200	7
0.59567	9
0.59933	11
0.60300	12
0.60667	13
0.61033	13
0.61400	11
0.61767	10
0.62133	9
0.62500	7
0.62867	9
0.63233	9
0.63600	10
0.63967	10
0.64333	8
0.64700	8
0.65067	13
0.65433	15
0.65800	15
0.66167	13
0.66533	10
0.66900	8
0.67267	8
0.67633	7
0.68000	7
0.68367	7
0.68733	9
0.69100	11
0.69467	10
0.69833	12
0.70200	13
0.70567	14
0.70933	15
0.71300	13
0.71667	11
0.72033	10
0.72400	9
0.72767	9
0.73133	10
0.73500	10
0.73867	11
0.74233	11
0.74600	11
0.74967	11
0.75333	13
0.75700	15
0.76067	15
0.76433	17
0.76800	17
0.77167	15
0.77533	14
0.77900	14
0.78267	15
0.78633	16
0.79000	16
0.79367	14
0.79733	16
0.80100	17
0.80467	17
0.80833	15
0.81200	15
0.81567	12
0.81933	9
0.82300	8
0.82667	9
0.83033	11
0.83400	10
0.83767	11
0.84133	13
0.84500	13
0.84867	13
0.85233	11
0.85600	10
0.85967	11
0.86333	14
0.86700	15
0.87067	16
0.87433	17
0.87800	19
0.88167	19
0.88533	18
0.88900	17
0.89267	16
0.89633	15
0.90000	16
0.90367	16
0.90733	15
0.91100	14
0.91467	15
0.91833	19
0.92200	19
0.92567	15
0.92933	12
0.93300	9
0.93667	8
0.94033	9
0.94400	9
0.94767	11
0.95133	14
0.95500	14
0.95867	12
0.96233	12
0.96600	13
0.96967	13
0.97333	12
0.97700	11
0.98067	9
0.98433	7
0.98800	6
0.99167	7
0.99533	7
0.99900	7
1.00267	7
1.00633	5
1.01000	5
1.01367	7
1.01733	8
1.02100	7
1.02467	7
1.02833	7
1.03200	7
1.03567	8
1.03933	8
1.04300	8
1.04667	6
1.05033	4
1.05400	4
1.05767	4
1.06133	5
1.06500	6
1.06867	6
1.07233	6
1.07600	6
1.07967	6
1.08333	5
1.08700	6
1.09067	8
1.09433	8
1.09800	8
1.10167	7
1.10533	6
1.10900	5
1.11267	2
1.11633	-2
1.12000	-1
1.12367	-2
1.12733	-2
1.13100	-1
1.13467	1
1.13833	2
1.14200	3
1.14567	1
1.14933	-0
1.15300	0
1.15667	1
1.16033	3
1.16400	4
1.16767	1
1.17133	-2
1.17500	-2
1.17867	0
1.18233	1
1.18600	-0
1.18967	-0
1.19333	0
1.19700	0
1.20067	0
1.20433	1
1.20800	0
1.21167	1
1.21533	2
1.21900	3
1.22267	3
1.22633	1
1.23000	-1
1.23367	-2
1.23733	-2
1.24100	-1
1.24467	1
1.24833	1
1.25200	1
1.25567	1
1.25933	3
1.26300	4
1.26667	5
1.27033	4
1.27400	5
1.27767	5
1.28133	4
1.28500	4
1.28867	7
1.29233	9
1.29600	8
1.29967	7
1.30333	7
1.30700	6
1.31067	2
1.31433	-0
1.31800	-3
1.32167	-3
1.32533	-1
1.32900	0
1.33267	1
1.33633	1
1.34000	2
1.34367	2
1.34733	1
1.35100	2
1.35467	4
1.35833	4
1.36200	4
1.36567	4
1.36933	4
1.37300	3
1.37667	3
1.38033	5
1.38400	6
1.38767	6
1.39133	7
1.39500	6
1.39867	5
1.40233	3
1.40600	1
1.40967	-1
1.41333	-3
1.41700	-6
1.42067	-6
1.42433	-5
1.42800	-3
1.43167	-2
1.43533	-1
1.43900	-0
1.44267	-0
1.44633	-1
1.45000	-1
1.45367	-2
1.45733	-4
1.46100	-5
1.46467	-5
1.46833	-4
1.47200	-4
1.47567	-3
1.47933	-2
1.48300	-0
1.48667	-1
1.49033	-2
1.49400	-1
1.49767	-3
1.50133	-3
1.50500	-5
1.50867	-6
1.51233	-6
1.51600	-7
1.51967	-7
1.52333	-6
1.52700	-4
1.53067	-1
1.53433	2
1.53800	2
1.54167	2
1.54533	2
1.54900	2
1.55267	1
1.55633	-1
1.56000	-1
1.56367	-3
1.56733	-4
1.57100	-4
1.57467	-3
1.57833	-3
1.58200	-2
1.58567	-2
1.58933	-3
1.59300	-1
1.59667	2
1.60033	-0
1.60400	-3
1.60767	-3
1.61133	1
1.61500	2
1.61867	0
1.62233	-1
1.62600	-2
1.62967	-4
1.63333	-4
1.63700	-5
1.64067	-5
1.64433	-5
1.64800	-4
1.65167	-4
1.65533	-4
1.65900	-3
1.66267	-2
1.66633	0
1.67000	2
1.67367	2
1.67733	3
1.68100	4
1.68467	3
1.68833	4
1.69200	4
1.69567	2
1.69933	-1
1.70300	-3
1.70667	-1
1.71033	1
1.71400	3
1.71767	6
1.72133	8
1.72500	10
1.72867	10
1.73233	10
1.73600	11
1.73967	12
1.74333	11
1.74700	8
1.75067	6
1.75433	5
1.75800	4
1.76167	5
1.76533	5
1.76900	4
1.77267	4
1.77633	5
1.78000	5
1.78367	3
1.78733	2
1.79100	2
1.79467	3
1.79833	4
1.80200	5
1.80567	6
1.80933	7
1.81300	10
1.81667	13
1.82033	13
1.82400	11
1.82767	7
1.83133	6
1.83500	5
1.83867	6
1.84233	7
1.84600	7
1.84967	5
1.85333	3
1.85700	3
1.86067	2
1.86433	-0
1.86800	0
1.87167	2
1.87533	1
1.87900	0
1.88267	-0
1.88633	-1
1.89000	-1
1.89367	-2
1.89733	-2
1.90100	-1
1.90467	-0
1.90833	-2
1.91200	-1
1.91567	-1
1.91933	-4
1.92300	-3
1.92667	-2
1.93033	-2
1.93400	-1
1.93767	-1
1.94133	-2
1.94500	-0
1.94867	13
1.95233	93
1.95600	518
1.95967	2145
1.96333	6923
1.96700	17975
1.97067	38384
1.97433	69327
1.97800	109379
1.98167	155344
1.98533	203446
1.98900	250070
1.99267	292146
1.99633	327339
2.00000	354045
2.00367	371392
2.00733	379134
2.01100	377731
2.01467	368241
2.01833	352160
2.02200	331144
2.02567	306871
2.02933	280840
2.03300	254314
2.03667	228251
2.04033	203346
2.04400	180087
2.04767	158743
2.05133	139410
2.05500	122069
2.05867	106647
2.06233	93030
2.06600	81057
2.06967	70567
2.07333	61405
2.07700	53410
2.08067	46450
2.08433	40393
2.08800	35128
2.09167	30552
2.09533	26578
2.09900	23127
2.10267	20131
2.10633	17531
2.11000	15274
2.11367	13312
2.11733	11607
2.12100	10125
2.12467	8836
2.12833	7716
2.13200	6741
2.13567	5894
2.13933	5156
2.14300	4513
2.14667	3954
2.15033	3468
2.15400	3044
2.15767	2676
2.16133	2353
2.16500	2069
2.16867	1821
2.17233	1603
2.17600	1414
2.17967	1250
2.18333	1104
2.18700	976
2.19067	866
2.19433	771
2.19800	683
2.20167	608
2.20533	545
2.20900	490
2.21267	441
2.21633	398
2.22000	360
2.22367	324
2.22733	292
2.23100	265
2.23467	246
2.23833	225
2.24200	206
2.24567	189
2.24933	174
2.25300	160
2.25667	148
2.26033	137
2.26400	126
2.26767	116
2.27133	109
2.27500	103
2.27867	100
2.28233	98
2.28600	94
2.28967	92
2.29333	89
2.29700	84
2.30067	82
2.30433	78
2.30800	73
2.31167	70
2.31533	67
2.31900	64
2.32267	60
2.32633	56
2.33000	54
2.33367	54
2.33733	54
2.34100	54
2.34467	55
2.34833	55
2.35200	52
2.35567	49
2.35933	49
2.36300	49
2.36667	50
2.37033	50
2.37400	50
2.37767	50
2.38133	46
2.38500	43
2.38867	43
2.39233	46
2.39600	48
2.39967	50
2.40333	48
2.40700	47
2.41067	47
2.41433	47
2.41800	47
2.42167	46
2.42533	46
2.42900	44
2.43267	43
2.43633	43
2.44000	42
2.44367	44
2.44733	46
2.45100	48
2.45467	54
2.45833	56
2.46200	54
2.46567	54
2.46933	53
2.47300	51
2.47667	51
2.48033	52
2.48400	55
2.48767	57
2.49133	59
2.49500	61
2.49867	61
2.50233	62
2.50600	62
2.50967	62
2.51333	60
2.51700	60
2.52067	62
2.52433	63
2.52800	63
2.53167	61
2.53533	59
2.53900	58
2.54267	59
2.54633	59
2.55000	61
2.55367	63
2.55733	62
2.56100	61
2.56467	62
2.56833	64
2.57200	66
2.57567	67
2.57933	68
2.58300	67
2.58667	67
2.59033	67
2.59400	65
2.59767	61
2.60133	55
2.60500	44
2.60867	30
2.61233	10
2.61600	-15
2.61967	-41
2.62333	-67
2.62700	-92
2.63067	-115
2.63433	-138
2.63800	-158
2.64167	-171
2.64533	-180
2.64900	-184
2.65267	-185
2.65633	-184
2.66000	-180
2.66367	-175
2.66733	-170
2.67100	-160
2.67467	-150
2.67833	-140
2.68200	-132
2.68567	-123
2.68933	-115
2.69300	-106
2.69667	-97
2.70033	-87
2.70400	-75
2.70767	-65
2.71133	-59
2.71500	-53
2.71867	-46
2.72233	-39
2.72600	-33
2.72967	-26
2.73333	-21
2.73700	-18
2.74067	-14
2.74433	-11
2.74800	-6
2.75167	-3
2.75533	-1
2.75900	1
2.76267	7
2.76633	10
2.77000	12
2.77367	16
2.77733	22
2.78100	25
2.78467	28
2.78833	31
2.79200	34
2.79567	37
2.79933	37
2.80300	38
2.80667	40
2.81033	44
2.81400	50
2.81767	56
2.82133	73
2.82500	114
2.82867	211
2.83233	411
2.83600	781
2.83967	1394
2.84333	2306
2.84700	3537
2.85067	5074
2.85433	6845
2.85800	8744
2.86167	10644
2.86533	12407
2.86900	13901
2.87267	15019
2.87633	15707
2.88000	15947
2.88367	15769
2.88733	15243
2.89100	14453
2.89467	13480
2.89833	12399
2.90200	11277
2.90567	10163
2.90933	9095
2.91300	8090
2.91667	7164
2.92033	6320
2.92400	5556
2.92767	4870
2.93133	4262
2.93500	3727
2.93867	3256
2.94233	2837
2.94600	2470
2.94967	2151
2.95333	1874
2.95700	1633
2.96067	1424
2.96433	1243
2.96800	1089
2.97167	955
2.97533	839
2.97900	739
2.98267	651
2.98633	575
2.99000	511
2.99367	454
2.99733	403
3.00100	361
3.00467	329
3.00833	299
3.01200	271
3.01567	249
3.01933	229
3.02300	214
3.02667	200
3.03033	191
3.03400	182
3.03767	175
3.04133	170
3.04500	163
3.04867	157
3.05233	152
3.05600	147
3.05967	141
3.06333	139
3.06700	137
3.07067	135
3.07433	132
3.07800	129
3.08167	127
3.08533	126
3.08900	126
3.09267	125
3.09633	123
3.10000	120
3.10367	120
3.10733	121
3.11100	121
3.11467	121
3.11833	122
3.12200	121
3.12567	119
3.12933	118
3.13300	120
3.13667	124
3.14033	126
3.14400	128
3.14767	128
3.15133	127
3.15500	125
3.15867	124
3.16233	122
3.16600	121
3.16967	120
3.17333	119
3.17700	120
3.18067	122
3.18433	121
3.18800	119
3.19167	119
3.19533	119
3.19900	122
3.20267	125
3.20633	126
3.21000	125
3.21367	124
3.21733	126
3.22100	126
3.22467	126
3.22833	124
3.23200	124
3.23567	125
3.23933	128
3.24300	130
3.24667	132
3.25033	133
3.25400	132
3.25767	130
3.26133	130
3.26500	128
3.26867	125
3.27233	123
3.27600	122
3.27967	120
3.28333	121
3.28700	124
3.29067	127
3.29433	130
3.29800	133
3.30167	133
3.30533	130
3.30900	128
3.31267	129
3.31633	132
3.32000	131
3.32367	129
3.32733	128
3.33100	128
3.33467	127
3.33833	127
3.34200	128
3.34567	129
3.34933	130
3.35300	131
3.35667	131
3.36033	132
3.36400	132
3.36767	133
3.37133	134
3.37500	135
3.37867	135
3.38233	135
3.38600	137
3.38967	138
3.39333	137
3.39700	136
3.40067	136
3.40433	136
3.40800	137
3.41167	136
3.41533	136
3.41900	137
3.42267	136
3.42633	136
3.43000	137
3.43367	135
3.43733	132
3.44100	130
3.44467	132
3.44833	133
3.45200	134
3.45567	132
3.45933	131
3.46300	131
3.46667	133
3.47033	134
3.47400	135
3.47767	134
3.48133	136
3.48500	137
3.48867	136
3.49233	135
3.49600	134
3.49967	134
3.50333	135
3.50700	134
3.51067	133
3.51433	136
3.51800	138
3.52167	136
3.52533	134
3.52900	133
3.53267	134
3.53633	134
3.54000	136
3.54367	135
3.54733	133
3.55100	132
3.55467	131
3.55833	131
3.56200	131
3.56567	132
3.56933	133
3.57300	136
3.57667	137
3.58033	135
3.58400	137
3.58767	139
3.59133	140
3.59500	141
3.59867	142
3.60233	143
3.60600	143
3.60967	142
3.61333	141
3.61700	141
3.62067	140
3.62433	139
3.62800	138
3.63167	139
3.63533	141
3.63900	140
3.64267	141
3.64633	143
3.65000	141
3.65367	139
3.65733	138
3.66100	138
3.66467	140
3.66833	140
3.67200	139
3.67567	140
3.67933	141
3.68300	142
3.68667	143
3.69033	143
3.69400	142
3.69767	141
3.70133	141
3.70500	141
3.70867	141
3.71233	143
3.71600	145
3.71967	146
3.72333	147
3.72700	148
3.73067	146
3.73433	144
3.73800	143
3.74167	142
3.74533	141
3.74900	141
3.75267	143
3.75633	149
3.76000	152
3.76367	151
3.76733	150
3.77100	150
3.77467	148
3.77833	146
3.78200	145
3.78567	146
3.78933	147
3.79300	145
3.79667	143
3.80033	143
3.80400	143
3.80767	143
3.81133	146
3.81500	151
3.81867	153
3.82233	154
3.82600	155
3.82967	154
3.83333	153
3.83700	154
3.84067	152
3.84433	151
3.84800	149
3.85167	149
3.85533	151
3.85900	151
3.86267	150
3.86633	149
3.87000	148
3.87367	148
3.87733	148
3.88100	148
3.88467	148
3.88833	147
3.89200	150
3.89567	153
3.89933	153
3.90300	153
3.90667	152
3.91033	149
3.91400	146
3.91767	145
3.92133	146
3.92500	148
3.92867	149
3.93233	149
3.93600	149
3.93967	151
3.94333	150
3.94700	151
3.95067	152
3.95433	152
3.95800	153
3.96167	155
3.96533	155
3.96900	155
3.97267	154
3.97633	152
3.98000	152
3.98367	153
3.98733	153
3.99100	151
3.99467	149
3.99833	149

[Status Trace (Column Oven Temperature)]
Interval(msec)	1000
# of Points	240
Start Time(min)	0.002
End Time(min)	3.985
Intensity Units	
Intensity Multiplier	1
R.Time (min)	Intensity
0.00195	34.98
0.01862	34.98
0.03528	34.97
0.05195	34.97
0.06862	34.98
0.08528	34.98
0.10195	34.99
0.11862	35.00
0.13528	35.00
0.15195	35.00
0.16862	35.01
0.18528	35.02
0.20195	35.04
0.21862	35.03
0.23528	35.03
0.25195	35.03
0.26862	35.02
0.28528	35.02
0.30195	35.01
0.31862	35.01
0.33528	35.01
0.35195	35.02
0.36862	35.02
0.38528	35.03
0.40195	35.03
0.41862	35.03
0.43528	35.03
0.45195	35.03
0.46862	35.02
0.48528	35.02
0.50195	35.01
0.51862	35.00
0.53528	35.00
0.55195	34.99
0.56862	34.99
0.58528	34.99
0.60195	34.98
0.61862	34.98
0.63528	34.99
0.65195	34.98
0.66862	34.97
0.68528	34.97
0.70195	34.98
0.71862	34.99
0.73528	35.00
0.75195	35.02
0.76862	35.02
0.78528	35.00
0.80195	34.99
0.81862	34.99
0.83528	34.99
0.85195	34.99
0.86862	35.00
0.88528	35.00
0.90195	35.01
0.91862	35.02
0.93528	35.02
0.95195	35.00
0.96862	34.99
0.98528	34.98
1.00195	34.98
1.01862	34.98
1.03528	34.99
1.05195	35.00
1.06862	35.01
1.08528	35.02
1.10195	35.02
1.11862	35.00
1.13528	34.99
1.15195	34.97
1.16862	34.96
1.18528	34.96
1.20195	34.97
1.21862	34.96
1.23528	34.96
1.25195	34.97
1.26862	34.97
1.28528	34.96
1.30195	34.96
1.31862	34.96
1.33528	34.96
1.35195	34.97
1.36862	34.97
1.38528	34.97
1.40195	34.97
1.41862	34.98
1.43528	34.98
1.45195	34.98
1.46862	34.98
1.48528	34.99
1.50195	35.00
1.51862	35.01
1.53528	35.02
1.55195	35.02
1.56862	35.02
1.58528	35.01
1.60195	35.04
1.61862	35.13
1.63528	35.29
1.65195	35.52
1.66862	35.84
1.68528	36.21
1.70195	36.57
1.71862	36.89
1.73528	37.22
1.75195	37.57
1.76862	37.89
1.78528	38.22
1.80195	38.56
1.81862	38.89
1.83528	39.22
1.85195	39.57
1.86862	39.87
1.88528	40.20
1.90195	40.54
1.91862	40.87
1.93528	41.17
1.95195	41.50
1.96862	41.81
1.98528	42.13
2.00195	42.47
2.01862	42.78
2.03528	43.13
2.05195	43.45
2.06862	43.79
2.08528	44.11
2.10195	44.47
2.11862	44.79
2.13528	45.10
2.15195	45.42
2.16862	45.75
2.18528	46.10
2.20195	46.42
2.21862	46.74
2.23528	47.08
2.25195	47.41
2.26862	47.74
2.28528	48.06
2.30195	48.40
2.31862	48.71
2.33528	49.04
2.35195	49.34
2.36862	49.62
2.38528	49.76
2.40195	49.80
2.41862	49.79
2.43528	49.77
2.45195	49.77
2.46862	49.79
2.48528	49.79
2.50195	49.82
2.51862	49.80
2.53528	49.80
2.55195	49.80
2.56862	49.84
2.58528	49.83
2.60195	49.84
2.61862	49.87
2.63528	49.85
2.65195	49.84
2.66862	49.85
2.68528	49.86
2.70195	49.88
2.71862	49.86
2.73528	49.86
2.75195	49.85
2.76862	49.86
2.78528	49.86
2.80195	49.87
2.81862	49.89
2.83528	49.91
2.85195	49.93
2.86862	49.93
2.88528	49.92
2.90195	49.93
2.91862	49.94
2.93528	49.95
2.95195	49.96
2.96862	49.99
2.98528	50.01
3.00195	50.03
3.01862	50.04
3.03528	50.05
3.05195	50.06
3.06862	50.08
3.08528	50.08
3.10195	50.10
3.11862	50.11
3.13528	50.11
3.15195	50.10
3.16862	50.09
3.18528	50.07
3.20195	50.07
3.21862	50.06
3.23528	50.05
3.25195	50.04
3.26862	50.04
3.28528	50.02
3.30195	50.01
3.31862	50.01
3.33528	50.01
3.35195	50.01
3.36862	50.01
3.38528	50.02
3.40195	50.03
3.41862	50.04
3.43528	50.04
3.45195	50.04
3.46862	50.05
3.48528	50.05
3.50195	50.05
3.51862	50.06
3.53528	50.06
3.55195	50.07
3.56862	50.08
3.58528	50.09
3.60195	50.08
3.61862	50.08
3.63528	50.06
3.65195	50.06
3.66862	50.06
3.68528	50.07
3.70195	50.08
3.71862	50.08
3.73528	50.09
3.75195	50.09
3.76862	50.10
3.78528	50.10
3.80195	50.11
3.81862	50.11
3.83528	50.11
3.85195	50.09
3.86862	50.07
3.88528	50.06
3.90195	50.05
3.91862	50.03
3.93528	50.02
3.95195	50.01
3.96862	50.00
3.98528	49.99

[Status Trace (Injection Unit Temperature)]
Interval(msec)	1000
# of Points	240
Start Time(min)	0.002
End Time(min)	3.985
Intensity Units	
Intensity Multiplier	1
R.Time (min)	Intensity
0.00195	99.98
0.01862	99.99
0.03528	99.99
0.05195	99.99
0.06862	99.99
0.08528	99.98
0.10195	99.98
0.11862	99.99
0.13528	99.99
0.15195	99.99
0.16862	99.99
0.18528	99.99
0.20195	99.99
0.21862	99.99
0.23528	99.99
0.25195	99.99
0.26862	99.99
0.28528	99.99
0.30195	99.99
0.31862	99.99
0.33528	99.99
0.35195	99.99
0.36862	99.99
0.38528	100.00
0.40195	99.99
0.41862	99.99
0.43528	100.00
0.45195	100.00
0.46862	100.00
0.48528	100.00
0.50195	100.00
0.51862	99.99
0.53528	100.00
0.55195	100.00
0.56862	100.00
0.58528	100.00
0.60195	100.00
0.61862	99.99
0.63528	100.00
0.65195	100.00
0.66862	100.00
0.68528	100.00
0.70195	100.00
0.71862	100.00
0.73528	100.00
0.75195	100.00
0.76862	100.00
0.78528	100.00
0.80195	100.00
0.81862	100.00
0.83528	100.00
0.85195	100.00
0.86862	100.00
0.88528	100.00
0.90195	100.00
0.91862	100.00
0.93528	100.00
0.95195	100.00
0.96862	100.00
0.98528	100.00
1.00195	100.00
1.01862	100.00
1.03528	100.00
1.05195	100.00
1.06862	99.99
1.08528	100.00
1.10195	100.00
1.11862	99.99
1.13528	100.00
1.15195	100.00
1.16862	100.00
1.18528	100.00
1.20195	99.99
1.21862	100.00
1.23528	100.00
1.25195	100.00
1.26862	100.00
1.28528	99.99
1.30195	99.99
1.31862	99.99
1.33528	100.00
1.35195	100.00
1.36862	100.00
1.38528	100.00
1.40195	100.00
1.41862	99.99
1.43528	99.99
1.45195	99.99
1.46862	99.99
1.48528	99.99
1.50195	99.99
1.51862	99.99
1.53528	99.99
1.55195	99.99
1.56862	99.99
1.58528	100.00
1.60195	99.99
1.61862	100.00
1.63528	99.99
1.65195	100.00
1.66862	100.00
1.68528	99.99
1.70195	99.99
1.71862	99.99
1.73528	99.99
1.75195	100.00
1.76862	100.00
1.78528	100.00
1.80195	100.00
1.81862	99.99
1.83528	100.00
1.85195	99.99
1.86862	99.99
1.88528	99.99
1.90195	99.99
1.91862	100.00
1.93528	99.99
1.95195	99.99
1.96862	99.99
1.98528	99.99
2.00195	99.99
2.01862	99.99
2.03528	99.99
2.05195	99.99
2.06862	99.99
2.08528	99.99
2.10195	99.99
2.11862	99.99
2.13528	99.99
2.15195	99.99
2.16862	99.99
2.18528	99.98
2.20195	99.99
2.21862	99.99
2.23528	99.99
2.25195	99.99
2.26862	99.98
2.28528	99.99
2.30195	99.98
2.31862	99.98
2.33528	99.98
2.35195	99.99
2.36862	99.98
2.38528	99.98
2.40195	99.99
2.41862	99.98
2.43528	99.98
2.45195	99.98
2.46862	99.98
2.48528	99.98
2.50195	99.98
2.51862	99.98
2.53528	99.98
2.55195	99.98
2.56862	99.99
2.58528	99.99
2.60195	99.99
2.61862	99.99
2.63528	99.99
2.65195	99.99
2.66862	99.99
2.68528	99.99
2.70195	100.00
2.71862	99.99
2.73528	100.00
2.75195	100.00
2.76862	100.01
2.78528	100.01
2.80195	100.00
2.81862	100.00
2.83528	100.01
2.85195	100.01
2.86862	100.01
2.88528	100.02
2.90195	100.01
2.91862	100.02
2.93528	100.02
2.95195	100.02
2.96862	100.02
2.98528	100.03
3.00195	100.03
3.01862	100.03
3.03528	100.03
3.05195	100.03
3.06862	100.04
3.08528	100.04
3.10195	100.03
3.11862	100.04
3.13528	100.04
3.15195	100.04
3.16862	100.04
3.18528	100.04
3.20195	100.04
3.21862	100.04
3.23528	100.05
3.25195	100.05
3.26862	100.05
3.28528	100.05
3.30195	100.05
3.31862	100.06
3.33528	100.05
3.35195	100.06
3.36862	100.06
3.38528	100.06
3.40195	100.06
3.41862	100.06
3.43528	100.05
3.45195	100.06
3.46862	100.06
3.48528	100.06
3.50195	100.06
3.51862	100.06
3.53528	100.06
3.55195	100.06
3.56862	100.06
3.58528	100.06
3.60195	100.06
3.61862	100.06
3.63528	100.05
3.65195	100.06
3.66862	100.05
3.68528	100.06
3.70195	100.06
3.71862	100.05
3.73528	100.06
3.75195	100.06
3.76862	100.06
3.78528	100.05
3.80195	100.05
3.81862	100.06
3.83528	100.05
3.85195	100.05
3.86862	100.05
3.88528	100.05
3.90195	100.05
3.91862	100.05
3.93528	100.05
3.95195	100.05
3.96862	100.05
3.98528	100.05

[Status Trace (Carrier Gas Pressure)]
Interval(msec)	1000
# of Points	240
Start Time(min)	0.002
End Time(min)	3.985
Intensity Units	
Intensity Multiplier	1
R.Time (min)	Intensity
0.00195	58.00
0.01862	56.56
0.03528	56.74
0.05195	58.89
0.06862	59.32
0.08528	58.05
0.10195	57.98
0.11862	58.01
0.13528	58.01
0.15195	58.00
0.16862	58.00
0.18528	58.00
0.20195	58.00
0.21862	58.00
0.23528	58.00
0.25195	58.00
0.26862	58.00
0.28528	58.00
0.30195	58.00
0.31862	58.00
0.33528	58.00
0.35195	58.00
0.36862	58.00
0.38528	58.00
0.40195	58.00
0.41862	58.00
0.43528	58.00
0.45195	58.00
0.46862	58.00
0.48528	58.00
0.50195	58.00
0.51862	58.00
0.53528	58.00
0.55195	58.00
0.56862	58.00
0.58528	58.00
0.60195	58.00
0.61862	58.00
0.63528	58.00
0.65195	58.00
0.66862	58.00
0.68528	58.00
0.70195	58.00
0.71862	58.00
0.73528	58.00
0.75195	58.00
0.76862	58.00
0.78528	58.00
0.80195	58.00
0.81862	58.00
0.83528	58.00
0.85195	58.00
0.86862	58.00
0.88528	58.00
0.90195	58.00
0.91862	58.00
0.93528	58.00
0.95195	58.00
0.96862	58.00
0.98528	58.00
1.00195	58.00
1.01862	58.00
1.03528	58.00
1.05195	58.00
1.06862	58.00
1.08528	58.00
1.10195	58.00
1.11862	58.00
1.13528	58.00
1.15195	58.00
1.16862	58.00
1.18528	58.00
1.20195	58.00
1.21862	58.00
1.23528	58.00
1.25195	58.00
1.26862	58.00
1.28528	58.00
1.30195	58.00
1.31862	58.00
1.33528	58.00
1.35195	58.00
1.36862	58.00
1.38528	58.00
1.40195	58.00
1.41862	58.00
1.43528	58.00
1.45195	58.00
1.46862	58.00
1.48528	58.00
1.50195	58.00
1.51862	58.00
1.53528	58.00
1.55195	58.00
1.56862	58.00
1.58528	58.00
1.60195	58.00
1.61862	58.00
1.63528	58.01
1.65195	58.01
1.66862	58.01
1.68528	58.01
1.70195	58.00
1.71862	58.00
1.73528	58.00
1.75195	58.00
1.76862	58.00
1.78528	58.00
1.80195	58.00
1.81862	58.00
1.83528	58.00
1.85195	58.00
1.86862	58.00
1.88528	58.00
1.90195	58.00
1.91862	58.00
1.93528	58.00
1.95195	58.00
1.96862	58.00
1.98528	58.00
2.00195	58.00
2.01862	58.00
2.03528	58.00
2.05195	58.00
2.06862	58.00
2.08528	58.00
2.10195	58.00
2.11862	58.00
2.13528	58.00
2.15195	58.00
2.16862	58.00
2.18528	58.00
2.20195	58.00
2.21862	58.00
2.23528	58.00
2.25195	58.00
2.26862	58.00
2.28528	58.00
2.30195	58.00
2.31862	58.00
2.33528	58.00
2.35195	58.00
2.36862	58.00
2.38528	57.99
2.40195	57.99
2.41862	58.00
2.43528	58.00
2.45195	58.00
2.46862	58.00
2.48528	58.00
2.50195	58.00
2.51862	58.01
2.53528	57.99
2.55195	58.00
2.56862	58.00
2.58528	58.00
2.60195	58.00
2.61862	58.00
2.63528	58.00
2.65195	58.00
2.66862	58.00
2.68528	58.00
2.70195	58.00
2.71862	58.00
2.73528	58.00
2.75195	58.00
2.76862	58.00
2.78528	58.00
2.80195	58.00
2.81862	58.00
2.83528	58.00
2.85195	58.00
2.86862	58.00
2.88528	58.00
2.90195	58.00
2.91862	58.00
2.93528	58.00
2.95195	58.00
2.96862	58.00
2.98528	58.00
3.00195	58.00
3.01862	58.00
3.03528	58.00
3.05195	58.00
3.06862	58.00
3.08528	58.00
3.10195	58.00
3.11862	58.00
3.13528	58.00
3.15195	58.00
3.16862	58.00
3.18528	58.00
3.20195	58.00
3.21862	58.00
3.23528	58.00
3.25195	58.00
3.26862	58.00
3.28528	58.00
3.30195	58.00
3.31862	58.00
3.33528	58.00
3.35195	58.00
3.36862	58.00
3.38528	58.00
3.40195	58.00
3.41862	58.00
3.43528	58.00
3.45195	58.00
3.46862	58.00
3.48528	58.00
3.50195	58.00
3.51862	58.00
3.53528	58.00
3.55195	58.00
3.56862	58.00
3.58528	58.00
3.60195	58.00
3.61862	58.00
3.63528	58.00
3.65195	58.00
3.66862	58.00
3.68528	58.00
3.70195	58.00
3.71862	58.00
3.73528	58.00
3.75195	58.00
3.76862	58.00
3.78528	58.00
3.80195	58.00
3.81862	58.00
3.83528	58.00
3.85195	58.00
3.86862	58.00
3.88528	58.00
3.90195	58.00
3.91862	58.00
3.93528	58.00
3.95195	58.00
3.96862	58.00
3.98528	58.00

[Status Trace (Carrier Gas Flow)]
Interval(msec)	1000
# of Points	240
Start Time(min)	0.002
End Time(min)	3.985
Intensity Units	
Intensity Multiplier	1
R.Time (min)	Intensity
0.00195	34.52
0.01862	34.55
0.03528	34.55
0.05195	34.55
0.06862	34.50
0.08528	34.51
0.10195	34.52
0.11862	34.52
0.13528	34.52
0.15195	34.52
0.16862	34.52
0.18528	34.52
0.20195	34.52
0.21862	34.52
0.23528	34.52
0.25195	34.52
0.26862	34.52
0.28528	34.52
0.30195	34.52
0.31862	34.51
0.33528	34.52
0.35195	34.52
0.36862	34.52
0.38528	34.52
0.40195	34.52
0.41862	34.52
0.43528	34.52
0.45195	34.52
0.46862	34.52
0.48528	34.52
0.50195	34.52
0.51862	34.52
0.53528	34.52
0.55195	34.52
0.56862	34.52
0.58528	34.52
0.60195	34.52
0.61862	34.52
0.63528	34.52
0.65195	34.52
0.66862	34.52
0.68528	34.52
0.70195	34.52
0.71862	34.52
0.73528	34.52
0.75195	34.52
0.76862	34.52
0.78528	34.52
0.80195	34.52
0.81862	34.52
0.83528	34.52
0.85195	34.52
0.86862	34.52
0.88528	34.52
0.90195	34.52
0.91862	34.52
0.93528	34.52
0.95195	34.52
0.96862	34.52
0.98528	34.52
1.00195	34.52
1.01862	34.52
1.03528	34.52
1.05195	34.52
1.06862	34.52
1.08528	34.52
1.10195	34.52
1.11862	34.52
1.13528	34.52
1.15195	34.52
1.16862	34.52
1.18528	34.52
1.20195	34.52
1.21862	34.52
1.23528	34.52
1.25195	34.52
1.26862	34.52
1.28528	34.51
1.30195	34.52
1.31862	34.52
1.33528	34.52
1.35195	34.52
1.36862	34.52
1.38528	34.52
1.40195	34.52
1.41862	34.52
1.43528	34.52
1.45195	34.52
1.46862	34.52
1.48528	34.52
1.50195	34.52
1.51862	34.52
1.53528	34.51
1.55195	34.52
1.56862	34.52
1.58528	34.52
1.60195	34.52
1.61862	34.51
1.63528	34.52
1.65195	34.51
1.66862	34.52
1.68528	34.52
1.70195	34.52
1.71862	34.52
1.73528	34.52
1.75195	34.51
1.76862	34.52
1.78528	34.52
1.80195	34.52
1.81862	34.52
1.83528	34.52
1.85195	34.52
1.86862	34.52
1.88528	34.52
1.90195	34.52
1.91862	34.52
1.93528	34.52
1.95195	34.52
1.96862	34.52
1.98528	34.52
2.00195	34.52
2.01862	34.52
2.03528	34.52
2.05195	34.52
2.06862	34.52
2.08528	34.52
2.10195	34.52
2.11862	34.52
2.13528	34.52
2.15195	34.52
2.16862	34.52
2.18528	34.52
2.20195	34.52
2.21862	34.52
2.23528	34.52
2.25195	34.51
2.26862	34.52
2.28528	34.52
2.30195	34.52
2.31862	34.52
2.33528	34.52
2.35195	34.51
2.36862	34.52
2.38528	34.52
2.40195	34.52
2.41862	34.52
2.43528	34.52
2.45195	34.52
2.46862	34.52
2.48528	34.52
2.50195	34.52
2.51862	34.52
2.53528	34.52
2.55195	34.52
2.56862	34.52
2.58528	34.52
2.60195	34.52
2.61862	34.53
2.63528	34.52
2.65195	34.52
2.66862	34.52
2.68528	34.51
2.70195	34.52
2.71862	34.52
2.73528	34.52
2.75195	34.52
2.76862	34.52
2.78528	34.52
2.80195	34.52
2.81862	34.52
2.83528	34.52
2.85195	34.52
2.86862	34.52
2.88528	34.52
2.90195	34.52
2.91862	34.52
2.93528	34.52
2.95195	34.52
2.96862	34.52
2.98528	34.52
3.00195	34.52
3.01862	34.52
3.03528	34.52
3.05195	34.52
3.06862	34.52
3.08528	34.52
3.10195	34.52
3.11862	34.52
3.13528	34.52
3.15195	34.52
3.16862	34.52
3.18528	34.52
3.20195	34.52
3.21862	34.52
3.23528	34.52
3.25195	34.52
3.26862	34.52
3.28528	34.52
3.30195	34.51
3.31862	34.52
3.33528	34.52
3.35195	34.52
3.36862	34.52
3.38528	34.52
3.40195	34.51
3.41862	34.52
3.43528	34.52
3.45195	34.52
3.46862	34.51
3.48528	34.52
3.50195	34.52
3.51862	34.52
3.53528	34.52
3.55195	34.52
3.56862	34.51
3.58528	34.52
3.60195	34.52
3.61862	34.52
3.63528	34.52
3.65195	34.52
3.66862	34.52
3.68528	34.52
3.70195	34.52
3.71862	34.52
3.73528	34.52
3.75195	34.52
3.76862	34.52
3.78528	34.52
3.80195	34.52
3.81862	34.52
3.83528	34.52
3.85195	34.52
3.86862	34.52
3.88528	34.52
3.90195	34.52
3.91862	34.52
3.93528	34.52
3.95195	34.52
3.96862	34.52
3.98528	34.52

[Status Trace (Column Flow)]
Interval(msec)	1000
# of Points	240
Start Time(min)	0.002
End Time(min)	3.985
Intensity Units	
Intensity Multiplier	1
R.Time (min)	Intensity
0.00195	5.57
0.01862	5.40
0.03528	5.43
0.05195	5.68
0.06862	5.73
0.08528	5.58
0.10195	5.57
0.11862	5.57
0.13528	5.57
0.15195	5.57
0.16862	5.57
0.18528	5.57
0.20195	5.57
0.21862	5.57
0.23528	5.57
0.25195	5.57
0.26862	5.57
0.28528	5.57
0.30195	5.57
0.31862	5.57
0.33528	5.57
0.35195	5.57
0.36862	5.57
0.38528	5.57
0.40195	5.57
0.41862	5.57
0.43528	5.57
0.45195	5.57
0.46862	5.57
0.48528	5.57
0.50195	5.57
0.51862	5.57
0.53528	5.57
0.55195	5.57
0.56862	5.57
0.58528	5.57
0.60195	5.57
0.61862	5.57
0.63528	5.57
0.65195	5.57
0.66862	5.57
0.68528	5.57
0.70195	5.57
0.71862	5.57
0.73528	5.57
0.75195	5.57
0.76862	5.57
0.78528	5.57
0.80195	5.57
0.81862	5.57
0.83528	5.57
0.85195	5.57
0.86862	5.57
0.88528	5.57
0.90195	5.57
0.91862	5.57
0.93528	5.57
0.95195	5.57
0.96862	5.57
0.98528	5.57
1.00195	5.57
1.01862	5.57
1.03528	5.57
1.05195	5.57
1.06862	5.57
1.08528	5.57
1.10195	5.57
1.11862	5.57
1.13528	5.57
1.15195	5.57
1.16862	5.57
1.18528	5.57
1.20195	5.57
1.21862	5.57
1.23528	5.57
1.25195	5.57
1.26862	5.57
1.28528	5.57
1.30195	5.57
1.31862	5.57
1.33528	5.57
1.35195	5.57
1.36862	5.57
1.38528	5.57
1.40195	5.57
1.41862	5.57
1.43528	5.57
1.45195	5.57
1.46862	5.57
1.48528	5.57
1.50195	5.57
1.51862	5.57
1.53528	5.57
1.55195	5.57
1.56862	5.57
1.58528	5.57
1.60195	5.57
1.61862	5.57
1.63528	5.56
1.65195	5.56
1.66862	5.55
1.68528	5.53
1.70195	5.52
1.71862	5.51
1.73528	5.50
1.75195	5.49
1.76862	5.48
1.78528	5.47
1.80195	5.46
1.81862	5.45
1.83528	5.44
1.85195	5.43
1.86862	5.42
1.88528	5.41
1.90195	5.40
1.91862	5.39
1.93528	5.38
1.95195	5.37
1.96862	5.36
1.98528	5.35
2.00195	5.34
2.01862	5.33
2.03528	5.32
2.05195	5.31
2.06862	5.30
2.08528	5.29
2.10195	5.28
2.11862	5.27
2.13528	5.26
2.15195	5.26
2.16862	5.25
2.18528	5.24
2.20195	5.23
2.21862	5.22
2.23528	5.21
2.25195	5.20
2.26862	5.19
2.28528	5.18
2.30195	5.17
2.31862	5.16
2.33528	5.15
2.35195	5.14
2.36862	5.14
2.38528	5.13
2.40195	5.13
2.41862	5.13
2.43528	5.13
2.45195	5.13
2.46862	5.13
2.48528	5.13
2.50195	5.13
2.51862	5.13
2.53528	5.13
2.55195	5.13
2.56862	5.13
2.58528	5.13
2.60195	5.13
2.61862	5.13
2.63528	5.13
2.65195	5.13
2.66862	5.13
2.68528	5.13
2.70195	5.13
2.71862	5.13
2.73528	5.13
2.75195	5.13
2.76862	5.13
2.78528	5.13
2.80195	5.13
2.81862	5.13
2.83528	5.13
2.85195	5.13
2.86862	5.13
2.88528	5.13
2.90195	5.13
2.91862	5.13
2.93528	5.13
2.95195	5.13
2.96862	5.13
2.98528	5.12
3.00195	5.12
3.01862	5.12
3.03528	5.12
3.05195	5.12
3.06862	5.12
3.08528	5.12
3.10195	5.12
3.11862	5.12
3.13528	5.12
3.15195	5.12
3.16862	5.12
3.18528	5.12
3.20195	5.12
3.21862	5.12
3.23528	5.12
3.25195	5.12
3.26862	5.12
3.28528	5.12
3.30195	5.12
3.31862	5.12
3.33528	5.12
3.35195	5.12
3.36862	5.12
3.38528	5.12
3.40195	5.12
3.41862	5.12
3.43528	5.12
3.45195	5.12
3.46862	5.12
3.48528	5.12
3.50195	5.12
3.51862	5.12
3.53528	5.12
3.55195	5.12
3.56862	5.12
3.58528	5.12
3.60195	5.12
3.61862	5.12
3.63528	5.12
3.65195	5.12
3.66862	5.12
3.68528	5.12
3.70195	5.12
3.71862	5.12
3.73528	5.12
3.75195	5.12
3.76862	5.12
3.78528	5.12
3.80195	5.12
3.81862	5.12
3.83528	5.12
3.85195	5.12
3.86862	5.12
3.88528	5.12
3.90195	5.12
3.91862	5.12
3.93528	5.12
3.95195	5.12
3.96862	5.12
3.98528	5.12

[Status Trace (Linear Velocity)]
Interval(msec)	1000
# of Points	240
Start Time(min)	0.002
End Time(min)	3.985
Intensity Units	
Intensity Multiplier	1
R.Time (min)	Intensity
0.00195	39.03
0.01862	38.08
0.03528	38.20
0.05195	39.61
0.06862	39.90
0.08528	39.07
0.10195	39.01
0.11862	39.03
0.13528	39.03
0.15195	39.03
0.16862	39.03
0.18528	39.03
0.20195	39.03
0.21862	39.03
0.23528	39.03
0.25195	39.03
0.26862	39.03
0.28528	39.03
0.30195	39.03
0.31862	39.03
0.33528	39.03
0.35195	39.03
0.36862	39.03
0.38528	39.03
0.40195	39.03
0.41862	39.03
0.43528	39.03
0.45195	39.03
0.46862	39.03
0.48528	39.03
0.50195	39.03
0.51862	39.03
0.53528	39.03
0.55195	39.03
0.56862	39.03
0.58528	39.03
0.60195	39.03
0.61862	39.03
0.63528	39.03
0.65195	39.03
0.66862	39.03
0.68528	39.03
0.70195	39.03
0.71862	39.03
0.73528	39.03
0.75195	39.03
0.76862	39.03
0.78528	39.03
0.80195	39.03
0.81862	39.03
0.83528	39.03
0.85195	39.03
0.86862	39.03
0.88528	39.03
0.90195	39.03
0.91862	39.03
0.93528	39.03
0.95195	39.03
0.96862	39.03
0.98528	39.03
1.00195	39.03
1.01862	39.03
1.03528	39.03
1.05195	39.03
1.06862	39.03
1.08528	39.03
1.10195	39.03
1.11862	39.03
1.13528	39.03
1.15195	39.03
1.16862	39.03
1.18528	39.03
1.20195	39.03
1.21862	39.03
1.23528	39.03
1.25195	39.03
1.26862	39.03
1.28528	39.03
1.30195	39.03
1.31862	39.03
1.33528	39.03
1.35195	39.03
1.36862	39.03
1.38528	39.03
1.40195	39.03
1.41862	39.03
1.43528	39.03
1.45195	39.03
1.46862	39.03
1.48528	39.03
1.50195	39.03
1.51862	39.03
1.53528	39.03
1.55195	39.03
1.56862	39.03
1.58528	39.03
1.60195	39.03
1.61862	39.02
1.63528	39.00
1.65195	38.98
1.66862	38.95
1.68528	38.92
1.70195	38.88
1.71862	38.85
1.73528	38.82
1.75195	38.79
1.76862	38.75
1.78528	38.72
1.80195	38.69
1.81862	38.66
1.83528	38.63
1.85195	38.60
1.86862	38.56
1.88528	38.54
1.90195	38.51
1.91862	38.47
1.93528	38.44
1.95195	38.42
1.96862	38.39
1.98528	38.36
2.00195	38.33
2.01862	38.29
2.03528	38.26
2.05195	38.24
2.06862	38.20
2.08528	38.17
2.10195	38.14
2.11862	38.11
2.13528	38.08
2.15195	38.06
2.16862	38.02
2.18528	37.99
2.20195	37.97
2.21862	37.93
2.23528	37.90
2.25195	37.88
2.26862	37.85
2.28528	37.82
2.30195	37.79
2.31862	37.76
2.33528	37.73
2.35195	37.71
2.36862	37.68
2.38528	37.66
2.40195	37.66
2.41862	37.66
2.43528	37.66
2.45195	37.66
2.46862	37.66
2.48528	37.66
2.50195	37.66
2.51862	37.67
2.53528	37.66
2.55195	37.66
2.56862	37.66
2.58528	37.66
2.60195	37.66
2.61862	37.66
2.63528	37.66
2.65195	37.66
2.66862	37.66
2.68528	37.66
2.70195	37.65
2.71862	37.66
2.73528	37.66
2.75195	37.66
2.76862	37.66
2.78528	37.66
2.80195	37.66
2.81862	37.65
2.83528	37.65
2.85195	37.65
2.86862	37.65
2.88528	37.65
2.90195	37.65
2.91862	37.65
2.93528	37.65
2.95195	37.65
2.96862	37.65
2.98528	37.64
3.00195	37.64
3.01862	37.64
3.03528	37.64
3.05195	37.64
3.06862	37.64
3.08528	37.64
3.10195	37.64
3.11862	37.63
3.13528	37.63
3.15195	37.63
3.16862	37.64
3.18528	37.64
3.20195	37.64
3.21862	37.64
3.23528	37.64
3.25195	37.64
3.26862	37.64
3.28528	37.64
3.30195	37.64
3.31862	37.64
3.33528	37.64
3.35195	37.64
3.36862	37.64
3.38528	37.64
3.40195	37.64
3.41862	37.64
3.43528	37.64
3.45195	37.64
3.46862	37.64
3.48528	37.64
3.50195	37.64
3.51862	37.64
3.53528	37.64
3.55195	37.64
3.56862	37.64
3.58528	37.64
3.60195	37.64
3.61862	37.64
3.63528	37.64
3.65195	37.64
3.66862	37.64
3.68528	37.64
3.70195	37.64
3.71862	37.64
3.73528	37.64
3.75195	37.64
3.76862	37.64
3.78528	37.64
3.80195	37.63
3.81862	37.63
3.83528	37.63
3.85195	37.64
3.86862	37.64
3.88528	37.64
3.90195	37.64
3.91862	37.64
3.93528	37.64
3.95195	37.64
3.96862	37.64
3.98528	37.64

