[Header]
Application Name	LabSolutions
Version	5.110
Data File Name	C:\Users\User\Desktop\GC Analyses\Jack\Nachusa Grasslands Sampling\T0 Timepoint July 12th\T0_07122022_070.gcd
Output Date	3/14/2023
Output Time	3:40:38 PM

[File Information]
Type	Data File
Generated	3/7/2023 9:35:18 PM
Generated by	System Administrator
Modified	3/7/2023 9:42:04 PM
Modified by	System Administrator

[Sample Information]
Operator Name	System Administrator
Acquired	3/7/2023 9:38:03 PM
Sample Type	0:Unknown
Level	0
Sample Name	070
Sample ID	070
ISTD Amount1	1
ISTD Amount2	1
ISTD Amount3	1
ISTD Amount4	1
ISTD Amount5	1
ISTD Amount6	1
ISTD Amount7	1
ISTD Amount8	1
ISTD Amount9	1
ISTD Amount10	1
ISTD Amount11	1
ISTD Amount12	1
ISTD Amount13	1
ISTD Amount14	1
ISTD Amount15	1
ISTD Amount16	1
ISTD Amount17	1
ISTD Amount18	1
ISTD Amount19	1
ISTD Amount20	1
ISTD Amount21	1
ISTD Amount22	1
ISTD Amount23	1
ISTD Amount24	1
ISTD Amount25	1
ISTD Amount26	1
ISTD Amount27	1
ISTD Amount28	1
ISTD Amount29	1
ISTD Amount30	1
ISTD Amount31	1
ISTD Amount32	1
Sample Amount	1
Dilution Factor	1
Vial#	69
Injection Volume	1
Injection Count	1
Bar Code	

[Original Files]
Data File	C:\Users\User\Desktop\GC Analyses\Jack\Nachusa Grasslands Sampling\T0 Timepoint July 12th\T0_07122022_070.gcd
Method File	C:\LabSolutions\Data\GHG_4min_2022\ghg3_togas_w_acet_4 min_new_int.gcm
Batch File	C:\LabSolutions\Data\AutoSamplerTesting\T0_07122022.gcb
Report Format File	c:\LabSolutions\System\DEFAULT.lsr

[File Description]


[Configuration]
Instrument Name	C0B7VH3-Instrument1
Instrument #	1
Line #	1
# of Detectors	3
Detector ID	DET#1	DET#2	DET#3
Detector Name	FID	PTCD	ECD
# of Channels	1	1	1

[Peak Table(Ch1)]
# of Peaks	3
Peak#	R.Time	I.Time	F.Time	Area	Height	A/H	Conc.	Mark	ID#	Name	k'	Plate #	Plate Ht.	Tailing	Resolution	Sep.Factor	Area Ratio	Height Ratio	Conc. %	Norm Conc.
1	1.476	1.439	1.538	29052	13692	2.122	205.107	   	1	CO	0.000	9333	16.072	1.315	0.000	0.000	0	0	32.818	32.818
2	1.567	1.538	1.641	5029	2423	2.075	97.231	 V 	2	CH4	0.062	10557	14.208	0.000	1.501	0.000	0	0	15.558	15.558
3	1.996	1.952	2.491	1285547	607550	2.116	322.638	   	3	CO2	0.353	17316	8.663	1.307	7.050	5.680	0	0	51.624	51.624

[Peak Table(Ch2)]
# of Peaks	0

[Peak Table(Ch3)]
# of Peaks	5
Peak#	R.Time	I.Time	F.Time	Area	Height	A/H	Conc.	Mark	ID#	Name	k'	Plate #	Plate Ht.	Tailing	Resolution	Sep.Factor	Area Ratio	Height Ratio	Conc. %	Norm Conc.
1	2.458	2.286	2.521	1950	448	4.349	0.000	   			0.000	7862	19.079	0.000	0.000	0.000	0	0	0.000	0.000
2	2.546	2.521	2.631	881	200	4.405	0.000	 V 			0.036	2941	50.996	0.000	0.589	0.000	0	0	0.000	0.000
3	2.711	2.645	2.719	348	116	2.991	0.000	   			0.103	835	179.687	0.000	0.586	2.875	0	0	0.000	0.000
4	2.873	2.719	3.074	20531	4946	4.151	0.524	 V 	1	N2O	0.169	12952	11.581	1.751	0.677	1.638	0	0	100.000	100.000
5	3.199	3.078	3.995	16454	598	27.537	0.000	   	2	SF6	0.301	321	467.744	3.661	0.800	1.788	0	0	0.000	0.000

[Compound Results(Ch1)]
# of IDs	6
ID#	Name	R.Time	Area	Height	Conc.	Curve	3rd	2nd	1st	Constant	Area Ratio	Height Ratio	Conc. %	Norm Conc.
1	CO	1.476	29052	13692	205.107	Linear	0.000000e+00	0.000000e+00	1.416423e+002	0.000000e+00	0	0	32.818	32.818
2	CH4	1.567	5029	2423	97.231	Linear	0.000000e+00	0.000000e+00	5.171738e+001	0.000000e+00	0	0	15.558	15.558
3	CO2	1.996	1285547	607550	322.638	Linear	0.000000e+00	0.000000e+00	3.984494e+003	0.000000e+00	0	0	51.624	51.624
4	Ethylene	0.000	0	0	0.000	Linear	0.000000e+00	0.000000e+00	0.000000e+00	0.000000e+00	0	0	0.000	0.000
5	Acetylene	0.000	0	0	0.000	Linear	0.000000e+00	0.000000e+00	0.000000e+00	0.000000e+00	0	0	0.000	0.000
6	Ethane	0.000	0	0	0.000	Linear	0.000000e+00	0.000000e+00	0.000000e+00	0.000000e+00	0	0	0.000	0.000

[Compound Results(Ch2)]
# of IDs	5
ID#	Name	R.Time	Area	Height	Conc.	Curve	3rd	2nd	1st	Constant	Area Ratio	Height Ratio	Conc. %	Norm Conc.
1	Hydrogen	0.000	0	0	0.000	Linear	0.000000e+00	0.000000e+00	0.000000e+00	0.000000e+00	0	0	0.000	0.000
2	Oxygen	0.000	0	0	0.000	Linear	0.000000e+00	0.000000e+00	0.000000e+00	0.000000e+00	0	0	0.000	0.000
3	Nitrogen	0.000	0	0	0.000	Linear	0.000000e+00	0.000000e+00	0.000000e+00	0.000000e+00	0	0	0.000	0.000
4	Methane	0.000	0	0	0.000	Linear	0.000000e+00	0.000000e+00	0.000000e+00	0.000000e+00	0	0	0.000	0.000
5	Carbon Monoxide	0.000	0	0	0.000	Linear	0.000000e+00	0.000000e+00	0.000000e+00	0.000000e+00	0	0	0.000	0.000

[Compound Results(Ch3)]
# of IDs	2
ID#	Name	R.Time	Area	Height	Conc.	Curve	3rd	2nd	1st	Constant	Area Ratio	Height Ratio	Conc. %	Norm Conc.
1	N2O	2.873	20531	4946	0.524	Linear	0.000000e+00	0.000000e+00	3.915173e+004	0.000000e+00	0	0	100.000	100.000
2	SF6	3.199	16454	598	0.000	Linear	0.000000e+00	0.000000e+00	0.000000e+00	0.000000e+00	0	0	0.000	0.000

[Group Results(Ch1)]
# of Groups	0

[Group Results(Ch2)]
# of Groups	0

[Group Results(Ch3)]
# of Groups	0

[Chromatogram (Ch1)]
Interval(msec)	220
# of Points	1091
Start Time(min)	0.002
End Time(min)	3.998
R.Time (min)	Intensity
0.00167	-17
0.00533	-15
0.00900	-12
0.01267	-10
0.01633	-10
0.02000	-9
0.02367	-6
0.02733	-2
0.03100	-2
0.03467	-5
0.03833	-4
0.04200	2
0.04567	10
0.04933	16
0.05300	21
0.05667	21
0.06033	18
0.06400	18
0.06767	19
0.07133	19
0.07500	16
0.07867	8
0.08233	-1
0.08600	-6
0.08967	-5
0.09333	1
0.09700	10
0.10067	21
0.10433	28
0.10800	28
0.11167	26
0.11533	23
0.11900	20
0.12267	18
0.12633	20
0.13000	25
0.13367	28
0.13733	29
0.14100	27
0.14467	26
0.14833	29
0.15200	34
0.15567	41
0.15933	48
0.16300	51
0.16667	51
0.17033	48
0.17400	44
0.17767	45
0.18133	49
0.18500	53
0.18867	59
0.19233	63
0.19600	63
0.19967	60
0.20333	59
0.20700	63
0.21067	70
0.21433	81
0.21800	91
0.22167	94
0.22533	81
0.22900	64
0.23267	50
0.23633	38
0.24000	29
0.24367	24
0.24733	20
0.25100	15
0.25467	11
0.25833	9
0.26200	10
0.26567	12
0.26933	10
0.27300	9
0.27667	7
0.28033	5
0.28400	4
0.28767	8
0.29133	17
0.29500	25
0.29867	32
0.30233	35
0.30600	34
0.30967	26
0.31333	18
0.31700	14
0.32067	10
0.32433	6
0.32800	2
0.33167	-3
0.33533	-7
0.33900	-10
0.34267	-12
0.34633	-10
0.35000	-5
0.35367	-1
0.35733	-1
0.36100	-5
0.36467	-6
0.36833	-3
0.37200	2
0.37567	6
0.37933	4
0.38300	1
0.38667	0
0.39033	4
0.39400	10
0.39767	12
0.40133	9
0.40500	4
0.40867	1
0.41233	1
0.41600	1
0.41967	0
0.42333	-2
0.42700	-3
0.43067	-4
0.43433	-7
0.43800	-8
0.44167	-9
0.44533	-8
0.44900	-5
0.45267	-2
0.45633	-4
0.46000	-6
0.46367	-10
0.46733	-16
0.47100	-24
0.47467	-29
0.47833	-33
0.48200	-34
0.48567	-32
0.48933	-28
0.49300	-21
0.49667	-14
0.50033	-12
0.50400	-14
0.50767	-18
0.51133	-17
0.51500	-12
0.51867	-6
0.52233	-5
0.52600	-6
0.52967	-8
0.53333	-13
0.53700	-20
0.54067	-24
0.54433	-25
0.54800	-21
0.55167	-17
0.55533	-13
0.55900	-14
0.56267	-19
0.56633	-27
0.57000	-34
0.57367	-40
0.57733	-46
0.58100	-47
0.58467	-43
0.58833	-35
0.59200	-22
0.59567	-9
0.59933	-5
0.60300	-6
0.60667	-10
0.61033	-17
0.61400	-22
0.61767	-24
0.62133	-24
0.62500	-25
0.62867	-25
0.63233	-24
0.63600	-27
0.63967	-29
0.64333	-29
0.64700	-33
0.65067	-39
0.65433	-45
0.65800	-53
0.66167	-58
0.66533	-60
0.66900	-59
0.67267	-55
0.67633	-47
0.68000	-37
0.68367	-32
0.68733	-31
0.69100	-28
0.69467	-19
0.69833	-10
0.70200	-7
0.70567	-15
0.70933	-27
0.71300	-35
0.71667	-41
0.72033	-44
0.72400	-43
0.72767	-36
0.73133	-28
0.73500	-27
0.73867	-32
0.74233	-38
0.74600	-43
0.74967	-47
0.75333	-48
0.75700	-44
0.76067	-37
0.76433	-31
0.76800	-31
0.77167	-34
0.77533	-37
0.77900	-40
0.78267	-43
0.78633	-47
0.79000	-51
0.79367	-53
0.79733	-55
0.80100	-57
0.80467	-56
0.80833	-54
0.81200	-53
0.81567	-50
0.81933	-45
0.82300	-43
0.82667	-46
0.83033	-52
0.83400	-57
0.83767	-58
0.84133	-59
0.84500	-54
0.84867	-43
0.85233	-31
0.85600	-24
0.85967	-20
0.86333	-22
0.86700	-25
0.87067	-25
0.87433	-25
0.87800	-28
0.88167	-32
0.88533	-23
0.88900	-9
0.89267	5
0.89633	17
0.90000	24
0.90367	22
0.90733	16
0.91100	10
0.91467	5
0.91833	2
0.92200	1
0.92567	-5
0.92933	-11
0.93300	-11
0.93667	-7
0.94033	-6
0.94400	-8
0.94767	-9
0.95133	-12
0.95500	-17
0.95867	-22
0.96233	-22
0.96600	-18
0.96967	-15
0.97333	-15
0.97700	-18
0.98067	-20
0.98433	-22
0.98800	-23
0.99167	-23
0.99533	-22
0.99900	-17
1.00267	-12
1.00633	-7
1.01000	1
1.01367	8
1.01733	12
1.02100	15
1.02467	17
1.02833	21
1.03200	22
1.03567	18
1.03933	6
1.04300	-10
1.04667	-23
1.05033	-31
1.05400	-31
1.05767	-23
1.06133	-16
1.06500	-10
1.06867	-9
1.07233	-10
1.07600	-9
1.07967	-9
1.08333	-10
1.08700	-8
1.09067	-4
1.09433	-1
1.09800	-4
1.10167	-10
1.10533	-13
1.10900	-12
1.11267	-8
1.11633	-4
1.12000	-1
1.12367	-2
1.12733	-5
1.13100	-11
1.13467	-15
1.13833	-17
1.14200	-15
1.14567	-14
1.14933	-14
1.15300	-14
1.15667	-14
1.16033	-17
1.16400	-19
1.16767	-21
1.17133	-24
1.17500	-27
1.17867	-27
1.18233	-26
1.18600	-23
1.18967	-21
1.19333	-22
1.19700	-21
1.20067	-19
1.20433	-22
1.20800	-26
1.21167	-26
1.21533	-23
1.21900	-22
1.22267	-23
1.22633	-24
1.23000	-24
1.23367	-28
1.23733	-34
1.24100	-36
1.24467	-36
1.24833	-33
1.25200	-31
1.25567	-28
1.25933	-22
1.26300	-17
1.26667	-13
1.27033	-5
1.27400	1
1.27767	-2
1.28133	-11
1.28500	-21
1.28867	-30
1.29233	-37
1.29600	-36
1.29967	-29
1.30333	-18
1.30700	-13
1.31067	-12
1.31433	-17
1.31800	-22
1.32167	-30
1.32533	-39
1.32900	-46
1.33267	-50
1.33633	-52
1.34000	-49
1.34367	-44
1.34733	-38
1.35100	-37
1.35467	-38
1.35833	-38
1.36200	-34
1.36567	-31
1.36933	-30
1.37300	-32
1.37667	-37
1.38033	-39
1.38400	-38
1.38767	-36
1.39133	-31
1.39500	-25
1.39867	-20
1.40233	-20
1.40600	-25
1.40967	-32
1.41333	-37
1.41700	-40
1.42067	-40
1.42433	-41
1.42800	-46
1.43167	-53
1.43533	-55
1.43900	-30
1.44267	77
1.44633	332
1.45000	921
1.45367	2251
1.45733	4444
1.46100	7072
1.46467	9577
1.46833	11613
1.47200	13015
1.47567	13663
1.47933	13439
1.48300	12337
1.48667	10568
1.49033	8507
1.49400	6515
1.49767	4815
1.50133	3479
1.50500	2486
1.50867	1776
1.51233	1276
1.51600	926
1.51967	682
1.52333	512
1.52700	389
1.53067	298
1.53433	234
1.53800	203
1.54167	241
1.54533	412
1.54900	744
1.55267	1181
1.55633	1623
1.56000	1993
1.56367	2260
1.56733	2397
1.57100	2375
1.57467	2180
1.57833	1846
1.58200	1450
1.58567	1073
1.58933	760
1.59300	525
1.59667	358
1.60033	244
1.60400	166
1.60767	111
1.61133	73
1.61500	48
1.61867	30
1.62233	14
1.62600	4
1.62967	-4
1.63333	-11
1.63700	-17
1.64067	-23
1.64433	-29
1.64800	-30
1.65167	-29
1.65533	-22
1.65900	-15
1.66267	-9
1.66633	-7
1.67000	-12
1.67367	-19
1.67733	-25
1.68100	-31
1.68467	-36
1.68833	-40
1.69200	-43
1.69567	-44
1.69933	-43
1.70300	-43
1.70667	-41
1.71033	-40
1.71400	-39
1.71767	-37
1.72133	-34
1.72500	-31
1.72867	-29
1.73233	-27
1.73600	-23
1.73967	-23
1.74333	-27
1.74700	-36
1.75067	-45
1.75433	-50
1.75800	-54
1.76167	-58
1.76533	-61
1.76900	-61
1.77267	-62
1.77633	-60
1.78000	-52
1.78367	-42
1.78733	-38
1.79100	-40
1.79467	-43
1.79833	-44
1.80200	-43
1.80567	-41
1.80933	-40
1.81300	-40
1.81667	-42
1.82033	-44
1.82400	-45
1.82767	-43
1.83133	-39
1.83500	-39
1.83867	-49
1.84233	-54
1.84600	-49
1.84967	-48
1.85333	-51
1.85700	-56
1.86067	-64
1.86433	-72
1.86800	-78
1.87167	-80
1.87533	-77
1.87900	-71
1.88267	-67
1.88633	-63
1.89000	-61
1.89367	-59
1.89733	-58
1.90100	-55
1.90467	-52
1.90833	-46
1.91200	-39
1.91567	-32
1.91933	-28
1.92300	-28
1.92667	-32
1.93033	-36
1.93400	-40
1.93767	-44
1.94133	-50
1.94500	-52
1.94867	-50
1.95233	-35
1.95600	74
1.95967	698
1.96333	3480
1.96700	12949
1.97067	37772
1.97433	88542
1.97800	170650
1.98167	277545
1.98533	392311
1.98900	495501
1.99267	570939
1.99633	607546
2.00000	600615
2.00367	553437
2.00733	476969
2.01100	386712
2.01467	297624
2.01833	219859
2.02200	157741
2.02567	111185
2.02933	77820
2.03300	54614
2.03667	38768
2.04033	28046
2.04400	20803
2.04767	15880
2.05133	12490
2.05500	10117
2.05867	8418
2.06233	7172
2.06600	6235
2.06967	5515
2.07333	4948
2.07700	4488
2.08067	4107
2.08433	3788
2.08800	3516
2.09167	3281
2.09533	3075
2.09900	2891
2.10267	2725
2.10633	2576
2.11000	2442
2.11367	2320
2.11733	2208
2.12100	2105
2.12467	2011
2.12833	1927
2.13200	1854
2.13567	1782
2.13933	1713
2.14300	1647
2.14667	1588
2.15033	1533
2.15400	1481
2.15767	1432
2.16133	1385
2.16500	1342
2.16867	1298
2.17233	1256
2.17600	1220
2.17967	1188
2.18333	1154
2.18700	1121
2.19067	1091
2.19433	1062
2.19800	1032
2.20167	1001
2.20533	973
2.20900	945
2.21267	919
2.21633	895
2.22000	873
2.22367	850
2.22733	831
2.23100	817
2.23467	804
2.23833	791
2.24200	775
2.24567	758
2.24933	742
2.25300	727
2.25667	714
2.26033	703
2.26400	695
2.26767	686
2.27133	677
2.27500	668
2.27867	656
2.28233	639
2.28600	622
2.28967	608
2.29333	598
2.29700	590
2.30067	583
2.30433	575
2.30800	567
2.31167	558
2.31533	546
2.31900	535
2.32267	530
2.32633	526
2.33000	522
2.33367	515
2.33733	506
2.34100	496
2.34467	488
2.34833	480
2.35200	476
2.35567	472
2.35933	467
2.36300	462
2.36667	455
2.37033	447
2.37400	444
2.37767	448
2.38133	455
2.38500	457
2.38867	452
2.39233	442
2.39600	431
2.39967	421
2.40333	414
2.40700	410
2.41067	409
2.41433	407
2.41800	405
2.42167	401
2.42533	401
2.42900	402
2.43267	401
2.43633	396
2.44000	386
2.44367	376
2.44733	370
2.45100	370
2.45467	366
2.45833	363
2.46200	365
2.46567	368
2.46933	371
2.47300	370
2.47667	367
2.48033	359
2.48400	351
2.48767	347
2.49133	346
2.49500	347
2.49867	348
2.50233	348
2.50600	348
2.50967	349
2.51333	350
2.51700	351
2.52067	355
2.52433	359
2.52800	362
2.53167	359
2.53533	355
2.53900	355
2.54267	358
2.54633	358
2.55000	350
2.55367	341
2.55733	331
2.56100	324
2.56467	323
2.56833	323
2.57200	322
2.57567	319
2.57933	316
2.58300	312
2.58667	311
2.59033	312
2.59400	313
2.59767	313
2.60133	314
2.60500	317
2.60867	320
2.61233	322
2.61600	324
2.61967	325
2.62333	320
2.62700	312
2.63067	305
2.63433	297
2.63800	290
2.64167	285
2.64533	284
2.64900	288
2.65267	293
2.65633	300
2.66000	309
2.66367	314
2.66733	314
2.67100	311
2.67467	307
2.67833	301
2.68200	295
2.68567	292
2.68933	294
2.69300	297
2.69667	300
2.70033	301
2.70400	300
2.70767	299
2.71133	296
2.71500	291
2.71867	283
2.72233	276
2.72600	275
2.72967	278
2.73333	282
2.73700	288
2.74067	296
2.74433	303
2.74800	304
2.75167	304
2.75533	306
2.75900	308
2.76267	308
2.76633	309
2.77000	306
2.77367	299
2.77733	292
2.78100	289
2.78467	286
2.78833	285
2.79200	287
2.79567	292
2.79933	295
2.80300	299
2.80667	300
2.81033	301
2.81400	302
2.81767	303
2.82133	304
2.82500	310
2.82867	319
2.83233	321
2.83600	316
2.83967	309
2.84333	304
2.84700	300
2.85067	298
2.85433	301
2.85800	310
2.86167	319
2.86533	323
2.86900	317
2.87267	306
2.87633	296
2.88000	287
2.88367	284
2.88733	286
2.89100	288
2.89467	292
2.89833	292
2.90200	289
2.90567	287
2.90933	290
2.91300	297
2.91667	306
2.92033	315
2.92400	319
2.92767	319
2.93133	316
2.93500	312
2.93867	307
2.94233	304
2.94600	302
2.94967	301
2.95333	296
2.95700	290
2.96067	286
2.96433	285
2.96800	289
2.97167	296
2.97533	304
2.97900	310
2.98267	312
2.98633	312
2.99000	310
2.99367	310
2.99733	312
3.00100	317
3.00467	319
3.00833	318
3.01200	317
3.01567	317
3.01933	317
3.02300	320
3.02667	323
3.03033	321
3.03400	315
3.03767	309
3.04133	309
3.04500	310
3.04867	307
3.05233	302
3.05600	297
3.05967	293
3.06333	292
3.06700	294
3.07067	298
3.07433	300
3.07800	298
3.08167	290
3.08533	282
3.08900	278
3.09267	276
3.09633	278
3.10000	281
3.10367	284
3.10733	289
3.11100	293
3.11467	294
3.11833	297
3.12200	302
3.12567	307
3.12933	308
3.13300	309
3.13667	312
3.14033	315
3.14400	315
3.14767	314
3.15133	312
3.15500	310
3.15867	307
3.16233	304
3.16600	306
3.16967	309
3.17333	311
3.17700	315
3.18067	319
3.18433	319
3.18800	315
3.19167	308
3.19533	299
3.19900	296
3.20267	298
3.20633	302
3.21000	307
3.21367	311
3.21733	314
3.22100	315
3.22467	313
3.22833	309
3.23200	308
3.23567	309
3.23933	310
3.24300	309
3.24667	305
3.25033	303
3.25400	306
3.25767	310
3.26133	311
3.26500	305
3.26867	301
3.27233	300
3.27600	299
3.27967	297
3.28333	296
3.28700	295
3.29067	298
3.29433	299
3.29800	298
3.30167	300
3.30533	303
3.30900	305
3.31267	309
3.31633	312
3.32000	312
3.32367	310
3.32733	307
3.33100	298
3.33467	286
3.33833	278
3.34200	271
3.34567	265
3.34933	261
3.35300	260
3.35667	263
3.36033	271
3.36400	275
3.36767	277
3.37133	276
3.37500	278
3.37867	281
3.38233	283
3.38600	289
3.38967	300
3.39333	308
3.39700	313
3.40067	314
3.40433	311
3.40800	307
3.41167	303
3.41533	298
3.41900	294
3.42267	293
3.42633	297
3.43000	301
3.43367	304
3.43733	304
3.44100	300
3.44467	294
3.44833	287
3.45200	283
3.45567	282
3.45933	284
3.46300	287
3.46667	287
3.47033	283
3.47400	276
3.47767	275
3.48133	278
3.48500	280
3.48867	280
3.49233	281
3.49600	282
3.49967	282
3.50333	282
3.50700	281
3.51067	277
3.51433	272
3.51800	270
3.52167	270
3.52533	270
3.52900	271
3.53267	273
3.53633	277
3.54000	279
3.54367	282
3.54733	284
3.55100	284
3.55467	282
3.55833	283
3.56200	286
3.56567	286
3.56933	281
3.57300	273
3.57667	263
3.58033	258
3.58400	257
3.58767	259
3.59133	262
3.59500	266
3.59867	267
3.60233	268
3.60600	269
3.60967	270
3.61333	269
3.61700	269
3.62067	269
3.62433	268
3.62800	263
3.63167	256
3.63533	250
3.63900	249
3.64267	252
3.64633	254
3.65000	254
3.65367	250
3.65733	244
3.66100	239
3.66467	237
3.66833	238
3.67200	243
3.67567	251
3.67933	260
3.68300	269
3.68667	272
3.69033	270
3.69400	262
3.69767	253
3.70133	253
3.70500	257
3.70867	262
3.71233	264
3.71600	262
3.71967	258
3.72333	256
3.72700	253
3.73067	250
3.73433	248
3.73800	249
3.74167	251
3.74533	253
3.74900	252
3.75267	249
3.75633	244
3.76000	240
3.76367	236
3.76733	234
3.77100	230
3.77467	229
3.77833	232
3.78200	241
3.78567	252
3.78933	260
3.79300	263
3.79667	264
3.80033	263
3.80400	256
3.80767	250
3.81133	246
3.81500	243
3.81867	239
3.82233	234
3.82600	227
3.82967	224
3.83333	223
3.83700	224
3.84067	227
3.84433	228
3.84800	228
3.85167	227
3.85533	228
3.85900	229
3.86267	228
3.86633	227
3.87000	225
3.87367	222
3.87733	218
3.88100	216
3.88467	215
3.88833	214
3.89200	215
3.89567	216
3.89933	217
3.90300	219
3.90667	220
3.91033	217
3.91400	219
3.91767	225
3.92133	232
3.92500	238
3.92867	240
3.93233	237
3.93600	229
3.93967	222
3.94333	217
3.94700	217
3.95067	217
3.95433	216
3.95800	214
3.96167	214
3.96533	214
3.96900	215
3.97267	217
3.97633	221
3.98000	223
3.98367	223
3.98733	217
3.99100	210
3.99467	207
3.99833	203

[Chromatogram (Ch2)]
Interval(msec)	220
# of Points	1091
Start Time(min)	0.002
End Time(min)	3.998
R.Time (min)	Intensity
0.00167	0
0.00533	0
0.00900	1
0.01267	1
0.01633	2
0.02000	2
0.02367	3
0.02733	3
0.03100	3
0.03467	4
0.03833	4
0.04200	4
0.04567	5
0.04933	5
0.05300	5
0.05667	5
0.06033	5
0.06400	6
0.06767	6
0.07133	5
0.07500	5
0.07867	5
0.08233	5
0.08600	5
0.08967	4
0.09333	4
0.09700	4
0.10067	3
0.10433	3
0.10800	2
0.11167	1
0.11533	1
0.11900	0
0.12267	-0
0.12633	-1
0.13000	-1
0.13367	-1
0.13733	-1
0.14100	-1
0.14467	-1
0.14833	-1
0.15200	-1
0.15567	-1
0.15933	-1
0.16300	-1
0.16667	-0
0.17033	0
0.17400	0
0.17767	1
0.18133	1
0.18500	2
0.18867	2
0.19233	2
0.19600	3
0.19967	3
0.20333	3
0.20700	4
0.21067	4
0.21433	4
0.21800	5
0.22167	5
0.22533	5
0.22900	5
0.23267	5
0.23633	5
0.24000	5
0.24367	5
0.24733	6
0.25100	6
0.25467	6
0.25833	5
0.26200	5
0.26567	5
0.26933	5
0.27300	5
0.27667	5
0.28033	5
0.28400	5
0.28767	4
0.29133	4
0.29500	4
0.29867	4
0.30233	4
0.30600	4
0.30967	4
0.31333	4
0.31700	4
0.32067	4
0.32433	4
0.32800	4
0.33167	4
0.33533	5
0.33900	5
0.34267	4
0.34633	4
0.35000	4
0.35367	3
0.35733	2
0.36100	2
0.36467	1
0.36833	1
0.37200	1
0.37567	1
0.37933	0
0.38300	0
0.38667	-0
0.39033	-0
0.39400	-0
0.39767	-0
0.40133	0
0.40500	0
0.40867	1
0.41233	1
0.41600	1
0.41967	2
0.42333	2
0.42700	2
0.43067	2
0.43433	3
0.43800	3
0.44167	3
0.44533	2
0.44900	2
0.45267	2
0.45633	2
0.46000	2
0.46367	2
0.46733	1
0.47100	1
0.47467	1
0.47833	0
0.48200	-0
0.48567	-0
0.48933	-1
0.49300	-2
0.49667	-2
0.50033	-2
0.50400	-3
0.50767	-3
0.51133	-3
0.51500	-3
0.51867	-3
0.52233	-3
0.52600	-3
0.52967	-3
0.53333	-2
0.53700	-2
0.54067	-2
0.54433	-2
0.54800	-2
0.55167	-1
0.55533	-1
0.55900	-1
0.56267	-1
0.56633	-1
0.57000	-1
0.57367	-1
0.57733	-0
0.58100	-0
0.58467	0
0.58833	1
0.59200	1
0.59567	2
0.59933	2
0.60300	2
0.60667	2
0.61033	1
0.61400	1
0.61767	1
0.62133	0
0.62500	-0
0.62867	-1
0.63233	-1
0.63600	-1
0.63967	-1
0.64333	-1
0.64700	-1
0.65067	-1
0.65433	-1
0.65800	-0
0.66167	0
0.66533	0
0.66900	1
0.67267	1
0.67633	2
0.68000	2
0.68367	2
0.68733	2
0.69100	3
0.69467	3
0.69833	3
0.70200	3
0.70567	3
0.70933	4
0.71300	4
0.71667	4
0.72033	4
0.72400	4
0.72767	4
0.73133	4
0.73500	3
0.73867	3
0.74233	3
0.74600	3
0.74967	3
0.75333	3
0.75700	4
0.76067	4
0.76433	5
0.76800	5
0.77167	5
0.77533	5
0.77900	5
0.78267	4
0.78633	4
0.79000	3
0.79367	2
0.79733	2
0.80100	2
0.80467	1
0.80833	1
0.81200	1
0.81567	1
0.81933	1
0.82300	1
0.82667	1
0.83033	1
0.83400	1
0.83767	1
0.84133	1
0.84500	1
0.84867	1
0.85233	1
0.85600	1
0.85967	1
0.86333	1
0.86700	1
0.87067	1
0.87433	1
0.87800	0
0.88167	-0
0.88533	-0
0.88900	-1
0.89267	-1
0.89633	-1
0.90000	-1
0.90367	-1
0.90733	-1
0.91100	-1
0.91467	-1
0.91833	-1
0.92200	-1
0.92567	-0
0.92933	0
0.93300	1
0.93667	1
0.94033	2
0.94400	2
0.94767	3
0.95133	3
0.95500	3
0.95867	3
0.96233	3
0.96600	3
0.96967	3
0.97333	3
0.97700	2
0.98067	2
0.98433	2
0.98800	2
0.99167	2
0.99533	2
0.99900	2
1.00267	2
1.00633	2
1.01000	1
1.01367	1
1.01733	1
1.02100	1
1.02467	1
1.02833	1
1.03200	1
1.03567	1
1.03933	1
1.04300	1
1.04667	2
1.05033	2
1.05400	2
1.05767	2
1.06133	2
1.06500	2
1.06867	2
1.07233	2
1.07600	2
1.07967	2
1.08333	2
1.08700	2
1.09067	1
1.09433	1
1.09800	1
1.10167	0
1.10533	0
1.10900	0
1.11267	0
1.11633	0
1.12000	0
1.12367	0
1.12733	-0
1.13100	-0
1.13467	-0
1.13833	-0
1.14200	-0
1.14567	-0
1.14933	-0
1.15300	-0
1.15667	-0
1.16033	-0
1.16400	-0
1.16767	-0
1.17133	-0
1.17500	-0
1.17867	-0
1.18233	-0
1.18600	0
1.18967	0
1.19333	0
1.19700	1
1.20067	1
1.20433	1
1.20800	1
1.21167	1
1.21533	1
1.21900	1
1.22267	1
1.22633	1
1.23000	2
1.23367	2
1.23733	2
1.24100	2
1.24467	2
1.24833	1
1.25200	1
1.25567	1
1.25933	0
1.26300	0
1.26667	0
1.27033	0
1.27400	0
1.27767	0
1.28133	0
1.28500	0
1.28867	0
1.29233	1
1.29600	1
1.29967	1
1.30333	1
1.30700	1
1.31067	1
1.31433	1
1.31800	1
1.32167	1
1.32533	1
1.32900	1
1.33267	1
1.33633	0
1.34000	0
1.34367	-0
1.34733	-0
1.35100	-1
1.35467	-1
1.35833	-1
1.36200	-1
1.36567	-1
1.36933	-1
1.37300	-0
1.37667	-0
1.38033	-0
1.38400	-0
1.38767	-0
1.39133	0
1.39500	0
1.39867	0
1.40233	0
1.40600	0
1.40967	0
1.41333	1
1.41700	1
1.42067	1
1.42433	1
1.42800	1
1.43167	1
1.43533	1
1.43900	1
1.44267	1
1.44633	2
1.45000	2
1.45367	2
1.45733	2
1.46100	2
1.46467	2
1.46833	2
1.47200	2
1.47567	2
1.47933	2
1.48300	1
1.48667	1
1.49033	1
1.49400	0
1.49767	-0
1.50133	-0
1.50500	-0
1.50867	-0
1.51233	-1
1.51600	-0
1.51967	-0
1.52333	0
1.52700	1
1.53067	1
1.53433	1
1.53800	2
1.54167	2
1.54533	2
1.54900	2
1.55267	2
1.55633	1
1.56000	1
1.56367	1
1.56733	2
1.57100	2
1.57467	2
1.57833	2
1.58200	2
1.58567	2
1.58933	2
1.59300	1
1.59667	1
1.60033	-0
1.60400	-1
1.60767	-3
1.61133	-4
1.61500	-7
1.61867	-9
1.62233	-12
1.62600	-15
1.62967	-18
1.63333	-22
1.63700	-25
1.64067	-29
1.64433	-33
1.64800	-37
1.65167	-41
1.65533	-45
1.65900	-49
1.66267	-54
1.66633	-59
1.67000	-64
1.67367	-70
1.67733	-75
1.68100	-80
1.68467	-85
1.68833	-89
1.69200	-93
1.69567	-97
1.69933	-99
1.70300	-101
1.70667	-103
1.71033	-104
1.71400	-105
1.71767	-106
1.72133	-106
1.72500	-107
1.72867	-107
1.73233	-107
1.73600	-108
1.73967	-108
1.74333	-109
1.74700	-110
1.75067	-111
1.75433	-113
1.75800	-114
1.76167	-114
1.76533	-115
1.76900	-115
1.77267	-114
1.77633	-113
1.78000	-112
1.78367	-112
1.78733	-111
1.79100	-111
1.79467	-111
1.79833	-112
1.80200	-113
1.80567	-114
1.80933	-115
1.81300	-116
1.81667	-116
1.82033	-117
1.82400	-117
1.82767	-117
1.83133	-117
1.83500	-117
1.83867	-117
1.84233	-117
1.84600	-116
1.84967	-116
1.85333	-117
1.85700	-117
1.86067	-117
1.86433	-117
1.86800	-117
1.87167	-117
1.87533	-117
1.87900	-116
1.88267	-115
1.88633	-115
1.89000	-114
1.89367	-114
1.89733	-113
1.90100	-113
1.90467	-113
1.90833	-113
1.91200	-113
1.91567	-113
1.91933	-113
1.92300	-113
1.92667	-113
1.93033	-112
1.93400	-111
1.93767	-111
1.94133	-111
1.94500	-110
1.94867	-111
1.95233	-111
1.95600	-112
1.95967	-112
1.96333	-113
1.96700	-113
1.97067	-113
1.97433	-113
1.97800	-112
1.98167	-112
1.98533	-111
1.98900	-110
1.99267	-109
1.99633	-108
2.00000	-108
2.00367	-108
2.00733	-108
2.01100	-108
2.01467	-107
2.01833	-106
2.02200	-106
2.02567	-105
2.02933	-105
2.03300	-104
2.03667	-103
2.04033	-103
2.04400	-103
2.04767	-103
2.05133	-103
2.05500	-104
2.05867	-104
2.06233	-104
2.06600	-104
2.06967	-104
2.07333	-103
2.07700	-103
2.08067	-103
2.08433	-103
2.08800	-103
2.09167	-102
2.09533	-101
2.09900	-101
2.10267	-101
2.10633	-101
2.11000	-101
2.11367	-101
2.11733	-101
2.12100	-100
2.12467	-99
2.12833	-99
2.13200	-98
2.13567	-97
2.13933	-96
2.14300	-96
2.14667	-96
2.15033	-96
2.15400	-96
2.15767	-96
2.16133	-96
2.16500	-95
2.16867	-95
2.17233	-94
2.17600	-94
2.17967	-93
2.18333	-93
2.18700	-93
2.19067	-93
2.19433	-94
2.19800	-94
2.20167	-94
2.20533	-94
2.20900	-94
2.21267	-93
2.21633	-92
2.22000	-92
2.22367	-91
2.22733	-91
2.23100	-90
2.23467	-90
2.23833	-90
2.24200	-90
2.24567	-90
2.24933	-89
2.25300	-89
2.25667	-88
2.26033	-88
2.26400	-87
2.26767	-87
2.27133	-87
2.27500	-87
2.27867	-87
2.28233	-86
2.28600	-86
2.28967	-85
2.29333	-85
2.29700	-84
2.30067	-83
2.30433	-82
2.30800	-81
2.31167	-80
2.31533	-79
2.31900	-78
2.32267	-78
2.32633	-79
2.33000	-79
2.33367	-80
2.33733	-80
2.34100	-80
2.34467	-79
2.34833	-79
2.35200	-78
2.35567	-76
2.35933	-75
2.36300	-73
2.36667	-71
2.37033	-69
2.37400	-66
2.37767	-63
2.38133	-59
2.38500	-55
2.38867	-50
2.39233	-46
2.39600	-42
2.39967	-37
2.40333	-34
2.40700	-30
2.41067	-28
2.41433	-25
2.41800	-23
2.42167	-21
2.42533	-19
2.42900	-17
2.43267	-15
2.43633	-13
2.44000	-11
2.44367	-10
2.44733	-8
2.45100	-6
2.45467	-4
2.45833	-2
2.46200	-1
2.46567	0
2.46933	1
2.47300	1
2.47667	2
2.48033	2
2.48400	3
2.48767	4
2.49133	6
2.49500	7
2.49867	8
2.50233	9
2.50600	10
2.50967	10
2.51333	10
2.51700	11
2.52067	11
2.52433	12
2.52800	13
2.53167	14
2.53533	15
2.53900	15
2.54267	16
2.54633	16
2.55000	16
2.55367	16
2.55733	16
2.56100	17
2.56467	17
2.56833	17
2.57200	17
2.57567	17
2.57933	17
2.58300	16
2.58667	16
2.59033	16
2.59400	16
2.59767	16
2.60133	16
2.60500	17
2.60867	17
2.61233	17
2.61600	17
2.61967	17
2.62333	16
2.62700	16
2.63067	16
2.63433	16
2.63800	17
2.64167	17
2.64533	18
2.64900	19
2.65267	19
2.65633	20
2.66000	20
2.66367	20
2.66733	20
2.67100	21
2.67467	21
2.67833	21
2.68200	22
2.68567	23
2.68933	23
2.69300	23
2.69667	23
2.70033	23
2.70400	23
2.70767	23
2.71133	23
2.71500	23
2.71867	23
2.72233	23
2.72600	23
2.72967	23
2.73333	24
2.73700	24
2.74067	25
2.74433	25
2.74800	25
2.75167	26
2.75533	26
2.75900	27
2.76267	27
2.76633	27
2.77000	27
2.77367	27
2.77733	28
2.78100	28
2.78467	28
2.78833	29
2.79200	29
2.79567	29
2.79933	29
2.80300	29
2.80667	28
2.81033	28
2.81400	28
2.81767	27
2.82133	27
2.82500	26
2.82867	26
2.83233	25
2.83600	24
2.83967	23
2.84333	19
2.84700	14
2.85067	7
2.85433	-4
2.85800	-18
2.86167	-37
2.86533	-59
2.86900	-86
2.87267	-117
2.87633	-152
2.88000	-191
2.88367	-233
2.88733	-278
2.89100	-326
2.89467	-376
2.89833	-427
2.90200	-480
2.90567	-533
2.90933	-586
2.91300	-639
2.91667	-692
2.92033	-744
2.92400	-794
2.92767	-844
2.93133	-896
2.93500	-953
2.93867	-1011
2.94233	-1063
2.94600	-1097
2.94967	-1106
2.95333	-1090
2.95700	-1050
2.96067	-991
2.96433	-921
2.96800	-843
2.97167	-762
2.97533	-681
2.97900	-604
2.98267	-531
2.98633	-464
2.99000	-403
2.99367	-349
2.99733	-300
3.00100	-257
3.00467	-219
3.00833	-186
3.01200	-158
3.01567	-133
3.01933	-111
3.02300	-93
3.02667	-77
3.03033	-64
3.03400	-52
3.03767	-42
3.04133	-34
3.04500	-27
3.04867	-21
3.05233	-16
3.05600	-12
3.05967	-8
3.06333	-5
3.06700	-2
3.07067	1
3.07433	3
3.07800	5
3.08167	6
3.08533	8
3.08900	10
3.09267	11
3.09633	13
3.10000	14
3.10367	14
3.10733	15
3.11100	16
3.11467	17
3.11833	17
3.12200	18
3.12567	18
3.12933	19
3.13300	19
3.13667	19
3.14033	19
3.14400	20
3.14767	20
3.15133	20
3.15500	20
3.15867	20
3.16233	20
3.16600	20
3.16967	20
3.17333	20
3.17700	20
3.18067	20
3.18433	20
3.18800	20
3.19167	20
3.19533	20
3.19900	21
3.20267	21
3.20633	21
3.21000	21
3.21367	21
3.21733	21
3.22100	21
3.22467	21
3.22833	21
3.23200	21
3.23567	21
3.23933	21
3.24300	20
3.24667	20
3.25033	20
3.25400	20
3.25767	20
3.26133	21
3.26500	21
3.26867	21
3.27233	22
3.27600	22
3.27967	23
3.28333	24
3.28700	24
3.29067	24
3.29433	25
3.29800	25
3.30167	25
3.30533	26
3.30900	26
3.31267	26
3.31633	27
3.32000	27
3.32367	27
3.32733	28
3.33100	28
3.33467	28
3.33833	28
3.34200	28
3.34567	28
3.34933	28
3.35300	28
3.35667	28
3.36033	28
3.36400	28
3.36767	28
3.37133	28
3.37500	28
3.37867	28
3.38233	28
3.38600	29
3.38967	29
3.39333	29
3.39700	29
3.40067	29
3.40433	29
3.40800	29
3.41167	29
3.41533	29
3.41900	29
3.42267	29
3.42633	29
3.43000	29
3.43367	29
3.43733	29
3.44100	28
3.44467	28
3.44833	28
3.45200	27
3.45567	27
3.45933	27
3.46300	27
3.46667	27
3.47033	27
3.47400	27
3.47767	27
3.48133	28
3.48500	28
3.48867	28
3.49233	28
3.49600	28
3.49967	28
3.50333	28
3.50700	28
3.51067	28
3.51433	28
3.51800	28
3.52167	28
3.52533	28
3.52900	28
3.53267	28
3.53633	28
3.54000	28
3.54367	28
3.54733	28
3.55100	28
3.55467	29
3.55833	29
3.56200	29
3.56567	29
3.56933	29
3.57300	30
3.57667	30
3.58033	30
3.58400	30
3.58767	30
3.59133	30
3.59500	30
3.59867	30
3.60233	29
3.60600	29
3.60967	29
3.61333	29
3.61700	29
3.62067	29
3.62433	28
3.62800	28
3.63167	28
3.63533	28
3.63900	27
3.64267	27
3.64633	27
3.65000	26
3.65367	26
3.65733	26
3.66100	26
3.66467	26
3.66833	26
3.67200	26
3.67567	26
3.67933	27
3.68300	27
3.68667	27
3.69033	27
3.69400	27
3.69767	27
3.70133	28
3.70500	28
3.70867	28
3.71233	28
3.71600	28
3.71967	28
3.72333	28
3.72700	28
3.73067	28
3.73433	28
3.73800	28
3.74167	28
3.74533	28
3.74900	28
3.75267	28
3.75633	28
3.76000	28
3.76367	28
3.76733	27
3.77100	27
3.77467	27
3.77833	27
3.78200	27
3.78567	27
3.78933	26
3.79300	27
3.79667	27
3.80033	27
3.80400	27
3.80767	27
3.81133	27
3.81500	27
3.81867	27
3.82233	27
3.82600	27
3.82967	27
3.83333	28
3.83700	28
3.84067	28
3.84433	28
3.84800	29
3.85167	29
3.85533	29
3.85900	29
3.86267	29
3.86633	30
3.87000	30
3.87367	31
3.87733	31
3.88100	32
3.88467	32
3.88833	33
3.89200	33
3.89567	33
3.89933	33
3.90300	33
3.90667	33
3.91033	33
3.91400	33
3.91767	33
3.92133	33
3.92500	33
3.92867	33
3.93233	33
3.93600	32
3.93967	32
3.94333	31
3.94700	31
3.95067	30
3.95433	30
3.95800	30
3.96167	29
3.96533	29
3.96900	29
3.97267	29
3.97633	29
3.98000	29
3.98367	29
3.98733	29
3.99100	28
3.99467	28
3.99833	27

[Chromatogram (Ch3)]
Interval(msec)	220
# of Points	1091
Start Time(min)	0.002
End Time(min)	3.998
R.Time (min)	Intensity
0.00167	-0
0.00533	-1
0.00900	-1
0.01267	-1
0.01633	-2
0.02000	-4
0.02367	-5
0.02733	-6
0.03100	-6
0.03467	-7
0.03833	-7
0.04200	-5
0.04567	-3
0.04933	-1
0.05300	-1
0.05667	-3
0.06033	-5
0.06400	-5
0.06767	-4
0.07133	-3
0.07500	-2
0.07867	2
0.08233	2
0.08600	-1
0.08967	-4
0.09333	-4
0.09700	-4
0.10067	-5
0.10433	-3
0.10800	-2
0.11167	-2
0.11533	-1
0.11900	0
0.12267	0
0.12633	0
0.13000	-0
0.13367	-1
0.13733	-2
0.14100	-3
0.14467	-4
0.14833	-1
0.15200	-0
0.15567	-2
0.15933	-4
0.16300	-6
0.16667	-6
0.17033	-6
0.17400	-5
0.17767	-5
0.18133	-4
0.18500	-2
0.18867	-1
0.19233	-1
0.19600	-0
0.19967	-0
0.20333	-2
0.20700	-3
0.21067	-0
0.21433	1
0.21800	2
0.22167	-0
0.22533	-2
0.22900	-3
0.23267	-3
0.23633	-1
0.24000	-3
0.24367	-4
0.24733	-3
0.25100	1
0.25467	4
0.25833	5
0.26200	3
0.26567	-1
0.26933	-2
0.27300	-2
0.27667	-1
0.28033	0
0.28400	1
0.28767	1
0.29133	-1
0.29500	-2
0.29867	-2
0.30233	-1
0.30600	-2
0.30967	-1
0.31333	0
0.31700	-1
0.32067	-2
0.32433	-2
0.32800	-2
0.33167	-4
0.33533	-5
0.33900	-5
0.34267	-5
0.34633	-4
0.35000	-1
0.35367	1
0.35733	2
0.36100	3
0.36467	2
0.36833	-1
0.37200	-1
0.37567	-0
0.37933	-0
0.38300	1
0.38667	2
0.39033	1
0.39400	2
0.39767	3
0.40133	2
0.40500	1
0.40867	0
0.41233	-0
0.41600	-2
0.41967	-3
0.42333	-4
0.42700	-3
0.43067	-1
0.43433	-1
0.43800	-1
0.44167	-2
0.44533	-3
0.44900	-5
0.45267	-6
0.45633	-5
0.46000	-4
0.46367	-5
0.46733	-6
0.47100	-4
0.47467	-3
0.47833	-2
0.48200	-3
0.48567	-1
0.48933	1
0.49300	3
0.49667	2
0.50033	2
0.50400	1
0.50767	0
0.51133	-0
0.51500	-0
0.51867	0
0.52233	2
0.52600	5
0.52967	5
0.53333	5
0.53700	2
0.54067	1
0.54433	3
0.54800	4
0.55167	6
0.55533	8
0.55900	10
0.56267	9
0.56633	7
0.57000	5
0.57367	4
0.57733	4
0.58100	5
0.58467	6
0.58833	8
0.59200	9
0.59567	7
0.59933	5
0.60300	4
0.60667	2
0.61033	3
0.61400	3
0.61767	4
0.62133	6
0.62500	6
0.62867	6
0.63233	6
0.63600	6
0.63967	7
0.64333	8
0.64700	7
0.65067	7
0.65433	6
0.65800	7
0.66167	6
0.66533	7
0.66900	9
0.67267	10
0.67633	11
0.68000	10
0.68367	10
0.68733	11
0.69100	12
0.69467	14
0.69833	13
0.70200	12
0.70567	12
0.70933	13
0.71300	15
0.71667	15
0.72033	16
0.72400	17
0.72767	18
0.73133	19
0.73500	20
0.73867	18
0.74233	15
0.74600	15
0.74967	15
0.75333	14
0.75700	12
0.76067	10
0.76433	11
0.76800	12
0.77167	13
0.77533	14
0.77900	15
0.78267	14
0.78633	12
0.79000	11
0.79367	13
0.79733	14
0.80100	13
0.80467	14
0.80833	16
0.81200	17
0.81567	17
0.81933	15
0.82300	13
0.82667	14
0.83033	16
0.83400	17
0.83767	17
0.84133	17
0.84500	15
0.84867	15
0.85233	16
0.85600	16
0.85967	15
0.86333	14
0.86700	15
0.87067	16
0.87433	17
0.87800	19
0.88167	19
0.88533	20
0.88900	21
0.89267	19
0.89633	18
0.90000	16
0.90367	17
0.90733	17
0.91100	19
0.91467	20
0.91833	19
0.92200	20
0.92567	21
0.92933	23
0.93300	24
0.93667	23
0.94033	23
0.94400	23
0.94767	23
0.95133	22
0.95500	21
0.95867	22
0.96233	24
0.96600	26
0.96967	24
0.97333	23
0.97700	24
0.98067	26
0.98433	26
0.98800	25
0.99167	24
0.99533	23
0.99900	23
1.00267	22
1.00633	21
1.01000	24
1.01367	27
1.01733	29
1.02100	29
1.02467	27
1.02833	24
1.03200	23
1.03567	23
1.03933	23
1.04300	22
1.04667	24
1.05033	24
1.05400	25
1.05767	25
1.06133	24
1.06500	24
1.06867	25
1.07233	25
1.07600	28
1.07967	30
1.08333	30
1.08700	29
1.09067	31
1.09433	33
1.09800	31
1.10167	30
1.10533	30
1.10900	30
1.11267	30
1.11633	30
1.12000	29
1.12367	28
1.12733	29
1.13100	30
1.13467	31
1.13833	31
1.14200	32
1.14567	33
1.14933	34
1.15300	34
1.15667	34
1.16033	35
1.16400	35
1.16767	35
1.17133	34
1.17500	34
1.17867	35
1.18233	37
1.18600	40
1.18967	39
1.19333	34
1.19700	32
1.20067	31
1.20433	32
1.20800	34
1.21167	36
1.21533	38
1.21900	37
1.22267	37
1.22633	38
1.23000	38
1.23367	39
1.23733	38
1.24100	39
1.24467	38
1.24833	37
1.25200	38
1.25567	37
1.25933	38
1.26300	39
1.26667	39
1.27033	40
1.27400	40
1.27767	40
1.28133	41
1.28500	40
1.28867	39
1.29233	38
1.29600	39
1.29967	37
1.30333	37
1.30700	36
1.31067	35
1.31433	34
1.31800	32
1.32167	30
1.32533	32
1.32900	33
1.33267	33
1.33633	34
1.34000	34
1.34367	37
1.34733	40
1.35100	41
1.35467	39
1.35833	38
1.36200	42
1.36567	43
1.36933	42
1.37300	38
1.37667	36
1.38033	36
1.38400	37
1.38767	36
1.39133	34
1.39500	33
1.39867	34
1.40233	37
1.40600	38
1.40967	39
1.41333	39
1.41700	39
1.42067	39
1.42433	39
1.42800	38
1.43167	39
1.43533	41
1.43900	40
1.44267	37
1.44633	36
1.45000	38
1.45367	38
1.45733	40
1.46100	42
1.46467	42
1.46833	43
1.47200	43
1.47567	43
1.47933	43
1.48300	42
1.48667	43
1.49033	44
1.49400	43
1.49767	43
1.50133	42
1.50500	43
1.50867	43
1.51233	43
1.51600	42
1.51967	41
1.52333	43
1.52700	43
1.53067	42
1.53433	41
1.53800	40
1.54167	42
1.54533	43
1.54900	43
1.55267	42
1.55633	43
1.56000	44
1.56367	44
1.56733	45
1.57100	47
1.57467	48
1.57833	48
1.58200	47
1.58567	47
1.58933	48
1.59300	47
1.59667	45
1.60033	45
1.60400	46
1.60767	48
1.61133	48
1.61500	48
1.61867	51
1.62233	53
1.62600	55
1.62967	58
1.63333	59
1.63700	57
1.64067	58
1.64433	60
1.64800	61
1.65167	62
1.65533	60
1.65900	58
1.66267	56
1.66633	57
1.67000	60
1.67367	62
1.67733	64
1.68100	64
1.68467	61
1.68833	59
1.69200	60
1.69567	62
1.69933	62
1.70300	59
1.70667	58
1.71033	57
1.71400	56
1.71767	58
1.72133	61
1.72500	64
1.72867	66
1.73233	65
1.73600	62
1.73967	59
1.74333	58
1.74700	58
1.75067	57
1.75433	56
1.75800	56
1.76167	58
1.76533	59
1.76900	59
1.77267	60
1.77633	61
1.78000	62
1.78367	60
1.78733	59
1.79100	60
1.79467	62
1.79833	66
1.80200	69
1.80567	69
1.80933	68
1.81300	67
1.81667	67
1.82033	69
1.82400	68
1.82767	66
1.83133	65
1.83500	68
1.83867	71
1.84233	69
1.84600	69
1.84967	70
1.85333	71
1.85700	71
1.86067	70
1.86433	69
1.86800	68
1.87167	67
1.87533	67
1.87900	67
1.88267	69
1.88633	72
1.89000	75
1.89367	76
1.89733	77
1.90100	77
1.90467	77
1.90833	78
1.91200	76
1.91567	75
1.91933	76
1.92300	76
1.92667	75
1.93033	76
1.93400	77
1.93767	79
1.94133	81
1.94500	81
1.94867	82
1.95233	81
1.95600	79
1.95967	77
1.96333	75
1.96700	78
1.97067	82
1.97433	82
1.97800	82
1.98167	85
1.98533	86
1.98900	86
1.99267	87
1.99633	86
2.00000	87
2.00367	87
2.00733	86
2.01100	86
2.01467	87
2.01833	86
2.02200	87
2.02567	89
2.02933	93
2.03300	97
2.03667	99
2.04033	97
2.04400	97
2.04767	99
2.05133	103
2.05500	106
2.05867	106
2.06233	105
2.06600	103
2.06967	104
2.07333	107
2.07700	110
2.08067	112
2.08433	112
2.08800	113
2.09167	113
2.09533	112
2.09900	112
2.10267	114
2.10633	117
2.11000	118
2.11367	118
2.11733	118
2.12100	119
2.12467	119
2.12833	120
2.13200	121
2.13567	122
2.13933	121
2.14300	122
2.14667	122
2.15033	122
2.15400	122
2.15767	124
2.16133	126
2.16500	129
2.16867	132
2.17233	133
2.17600	134
2.17967	136
2.18333	138
2.18700	142
2.19067	143
2.19433	143
2.19800	144
2.20167	145
2.20533	147
2.20900	147
2.21267	146
2.21633	146
2.22000	147
2.22367	149
2.22733	153
2.23100	156
2.23467	157
2.23833	159
2.24200	160
2.24567	162
2.24933	163
2.25300	164
2.25667	167
2.26033	168
2.26400	169
2.26767	169
2.27133	168
2.27500	168
2.27867	170
2.28233	174
2.28600	176
2.28967	178
2.29333	179
2.29700	178
2.30067	178
2.30433	178
2.30800	180
2.31167	180
2.31533	180
2.31900	181
2.32267	183
2.32633	185
2.33000	185
2.33367	186
2.33733	190
2.34100	194
2.34467	195
2.34833	196
2.35200	199
2.35567	202
2.35933	203
2.36300	205
2.36667	206
2.37033	206
2.37400	207
2.37767	207
2.38133	209
2.38500	210
2.38867	211
2.39233	211
2.39600	212
2.39967	214
2.40333	218
2.40700	222
2.41067	225
2.41433	227
2.41800	231
2.42167	234
2.42533	236
2.42900	236
2.43267	235
2.43633	236
2.44000	240
2.44367	271
2.44733	351
2.45100	438
2.45467	505
2.45833	540
2.46200	534
2.46567	499
2.46933	459
2.47300	428
2.47667	406
2.48033	390
2.48400	377
2.48767	360
2.49133	337
2.49500	312
2.49867	287
2.50233	267
2.50600	252
2.50967	241
2.51333	231
2.51700	222
2.52067	220
2.52433	221
2.52800	226
2.53167	231
2.53533	238
2.53900	245
2.54267	249
2.54633	249
2.55000	245
2.55367	237
2.55733	228
2.56100	216
2.56467	205
2.56833	195
2.57200	184
2.57567	175
2.57933	169
2.58300	166
2.58667	163
2.59033	157
2.59400	151
2.59767	146
2.60133	137
2.60500	124
2.60867	108
2.61233	87
2.61600	68
2.61967	52
2.62333	36
2.62700	21
2.63067	8
2.63433	-1
2.63800	-4
2.64167	-3
2.64533	-1
2.64900	5
2.65267	13
2.65633	23
2.66000	32
2.66367	42
2.66733	54
2.67100	64
2.67467	74
2.67833	85
2.68200	93
2.68567	99
2.68933	103
2.69300	107
2.69667	109
2.70033	110
2.70400	109
2.70767	109
2.71133	110
2.71500	110
2.71867	108
2.72233	107
2.72600	106
2.72967	106
2.73333	107
2.73700	107
2.74067	107
2.74433	108
2.74800	108
2.75167	107
2.75533	104
2.75900	102
2.76267	103
2.76633	105
2.77000	106
2.77367	106
2.77733	107
2.78100	107
2.78467	106
2.78833	105
2.79200	105
2.79567	106
2.79933	109
2.80300	109
2.80667	109
2.81033	109
2.81400	110
2.81767	118
2.82133	139
2.82500	183
2.82867	269
2.83233	418
2.83600	653
2.83967	990
2.84333	1429
2.84700	1959
2.85067	2551
2.85433	3157
2.85800	3729
2.86167	4222
2.86533	4600
2.86900	4838
2.87267	4928
2.87633	4881
2.88000	4719
2.88367	4470
2.88733	4160
2.89100	3817
2.89467	3463
2.89833	3112
2.90200	2777
2.90567	2464
2.90933	2177
2.91300	1915
2.91667	1682
2.92033	1477
2.92400	1299
2.92767	1141
2.93133	1002
2.93500	882
2.93867	777
2.94233	688
2.94600	611
2.94967	546
2.95333	491
2.95700	441
2.96067	397
2.96433	358
2.96800	326
2.97167	299
2.97533	275
2.97900	254
2.98267	237
2.98633	222
2.99000	209
2.99367	198
2.99733	189
3.00100	179
3.00467	170
3.00833	163
3.01200	155
3.01567	151
3.01933	147
3.02300	142
3.02667	138
3.03033	135
3.03400	131
3.03767	126
3.04133	121
3.04500	118
3.04867	113
3.05233	109
3.05600	106
3.05967	103
3.06333	97
3.06700	66
3.07067	12
3.07433	-33
3.07800	-47
3.08167	-28
3.08533	12
3.08900	62
3.09267	117
3.09633	172
3.10000	226
3.10367	276
3.10733	320
3.11100	359
3.11467	396
3.11833	430
3.12200	460
3.12567	485
3.12933	506
3.13300	522
3.13667	535
3.14033	545
3.14400	554
3.14767	561
3.15133	566
3.15500	571
3.15867	575
3.16233	581
3.16600	584
3.16967	587
3.17333	589
3.17700	592
3.18067	595
3.18433	598
3.18800	600
3.19167	602
3.19533	603
3.19900	606
3.20267	607
3.20633	606
3.21000	606
3.21367	607
3.21733	608
3.22100	607
3.22467	609
3.22833	612
3.23200	613
3.23567	614
3.23933	616
3.24300	617
3.24667	619
3.25033	621
3.25400	622
3.25767	622
3.26133	623
3.26500	623
3.26867	623
3.27233	623
3.27600	624
3.27967	623
3.28333	622
3.28700	621
3.29067	619
3.29433	618
3.29800	614
3.30167	610
3.30533	606
3.30900	606
3.31267	604
3.31633	601
3.32000	596
3.32367	592
3.32733	587
3.33100	583
3.33467	577
3.33833	571
3.34200	568
3.34567	566
3.34933	560
3.35300	556
3.35667	553
3.36033	550
3.36400	547
3.36767	545
3.37133	542
3.37500	537
3.37867	534
3.38233	532
3.38600	530
3.38967	526
3.39333	521
3.39700	518
3.40067	517
3.40433	518
3.40800	517
3.41167	517
3.41533	517
3.41900	517
3.42267	516
3.42633	514
3.43000	514
3.43367	513
3.43733	511
3.44100	510
3.44467	511
3.44833	509
3.45200	507
3.45567	507
3.45933	508
3.46300	507
3.46667	507
3.47033	504
3.47400	499
3.47767	495
3.48133	493
3.48500	492
3.48867	490
3.49233	490
3.49600	487
3.49967	482
3.50333	480
3.50700	478
3.51067	477
3.51433	474
3.51800	471
3.52167	468
3.52533	466
3.52900	464
3.53267	463
3.53633	461
3.54000	460
3.54367	458
3.54733	457
3.55100	454
3.55467	451
3.55833	449
3.56200	446
3.56567	444
3.56933	444
3.57300	442
3.57667	440
3.58033	437
3.58400	432
3.58767	428
3.59133	426
3.59500	427
3.59867	427
3.60233	426
3.60600	426
3.60967	426
3.61333	427
3.61700	427
3.62067	425
3.62433	422
3.62800	419
3.63167	416
3.63533	414
3.63900	413
3.64267	415
3.64633	418
3.65000	417
3.65367	415
3.65733	412
3.66100	408
3.66467	407
3.66833	410
3.67200	410
3.67567	409
3.67933	407
3.68300	406
3.68667	404
3.69033	404
3.69400	404
3.69767	403
3.70133	404
3.70500	405
3.70867	404
3.71233	401
3.71600	399
3.71967	398
3.72333	397
3.72700	396
3.73067	395
3.73433	395
3.73800	395
3.74167	394
3.74533	392
3.74900	393
3.75267	394
3.75633	395
3.76000	394
3.76367	393
3.76733	391
3.77100	390
3.77467	389
3.77833	388
3.78200	390
3.78567	391
3.78933	392
3.79300	393
3.79667	396
3.80033	400
3.80400	402
3.80767	400
3.81133	398
3.81500	396
3.81867	395
3.82233	393
3.82600	392
3.82967	390
3.83333	387
3.83700	386
3.84067	385
3.84433	385
3.84800	384
3.85167	386
3.85533	387
3.85900	387
3.86267	386
3.86633	386
3.87000	386
3.87367	387
3.87733	387
3.88100	386
3.88467	386
3.88833	385
3.89200	384
3.89567	385
3.89933	386
3.90300	387
3.90667	386
3.91033	385
3.91400	383
3.91767	381
3.92133	377
3.92500	374
3.92867	372
3.93233	373
3.93600	371
3.93967	372
3.94333	375
3.94700	377
3.95067	378
3.95433	377
3.95800	376
3.96167	374
3.96533	373
3.96900	371
3.97267	372
3.97633	371
3.98000	372
3.98367	373
3.98733	373
3.99100	372
3.99467	371
3.99833	368

[Status Trace (Column Oven Temperature)]
Interval(msec)	1000
# of Points	240
Start Time(min)	0.012
End Time(min)	3.996
Intensity Units	
Intensity Multiplier	1
R.Time (min)	Intensity
0.01228	35.05
0.02895	35.04
0.04562	35.02
0.06228	35.01
0.07895	35.01
0.09562	35.01
0.11228	35.03
0.12895	35.05
0.14562	35.05
0.16228	35.06
0.17895	35.06
0.19562	35.04
0.21228	35.02
0.22895	35.01
0.24562	35.00
0.26228	34.99
0.27895	34.98
0.29562	34.98
0.31228	34.97
0.32895	34.96
0.34562	34.97
0.36228	34.98
0.37895	34.99
0.39562	34.99
0.41228	34.99
0.42895	34.97
0.44562	34.97
0.46228	34.97
0.47895	34.99
0.49562	35.01
0.51228	35.02
0.52895	35.02
0.54562	35.03
0.56228	35.03
0.57895	35.03
0.59562	35.03
0.61228	35.03
0.62895	35.04
0.64562	35.04
0.66228	35.04
0.67895	35.03
0.69562	35.02
0.71228	35.00
0.72895	35.00
0.74562	34.98
0.76228	34.96
0.77895	34.97
0.79562	34.98
0.81228	34.98
0.82895	34.98
0.84562	34.98
0.86228	34.98
0.87895	34.99
0.89562	35.00
0.91228	35.00
0.92895	34.99
0.94562	34.98
0.96228	34.98
0.97895	34.98
0.99562	34.98
1.01228	35.00
1.02895	34.99
1.04562	34.98
1.06228	34.98
1.07895	34.97
1.09562	34.98
1.11228	34.98
1.12895	34.99
1.14562	34.99
1.16228	34.99
1.17895	34.99
1.19562	34.99
1.21228	35.00
1.22895	34.99
1.24562	34.99
1.26228	34.99
1.27895	34.98
1.29562	34.98
1.31228	34.98
1.32895	34.99
1.34562	34.99
1.36228	35.00
1.37895	35.01
1.39562	35.01
1.41228	35.00
1.42895	35.00
1.44562	34.97
1.46228	34.98
1.47895	34.99
1.49562	34.98
1.51228	34.98
1.52895	34.98
1.54562	34.97
1.56228	34.97
1.57895	34.96
1.59562	34.98
1.61228	35.06
1.62895	35.20
1.64562	35.42
1.66228	35.70
1.67895	36.08
1.69562	36.45
1.71228	36.78
1.72895	37.10
1.74562	37.46
1.76228	37.79
1.77895	38.08
1.79562	38.41
1.81228	38.76
1.82895	39.10
1.84562	39.43
1.86228	39.77
1.87895	40.09
1.89562	40.41
1.91228	40.74
1.92895	41.06
1.94562	41.38
1.96228	41.73
1.97895	42.05
1.99562	42.38
2.01228	42.70
2.02895	43.03
2.04562	43.36
2.06228	43.69
2.07895	44.02
2.09562	44.35
2.11228	44.68
2.12895	44.99
2.14562	45.34
2.16228	45.66
2.17895	45.98
2.19562	46.32
2.21228	46.63
2.22895	46.96
2.24562	47.30
2.26228	47.63
2.27895	47.96
2.29562	48.27
2.31228	48.58
2.32895	48.95
2.34562	49.24
2.36228	49.50
2.37895	49.62
2.39562	49.63
2.41228	49.64
2.42895	49.65
2.44562	49.66
2.46228	49.66
2.47895	49.68
2.49562	49.68
2.51228	49.73
2.52895	49.72
2.54562	49.75
2.56228	49.75
2.57895	49.79
2.59562	49.79
2.61228	49.80
2.62895	49.83
2.64562	49.82
2.66228	49.84
2.67895	49.84
2.69562	49.84
2.71228	49.85
2.72895	49.87
2.74562	49.86
2.76228	49.86
2.77895	49.86
2.79562	49.85
2.81228	49.86
2.82895	49.90
2.84562	49.92
2.86228	49.94
2.87895	49.96
2.89562	49.95
2.91228	49.94
2.92895	49.93
2.94562	49.93
2.96228	49.93
2.97895	49.94
2.99562	49.94
3.01228	49.95
3.02895	49.96
3.04562	49.97
3.06228	49.98
3.07895	49.98
3.09562	49.97
3.11228	49.98
3.12895	49.98
3.14562	49.99
3.16228	50.00
3.17895	50.01
3.19562	50.02
3.21228	50.04
3.22895	50.06
3.24562	50.08
3.26228	50.10
3.27895	50.10
3.29562	50.10
3.31228	50.09
3.32895	50.09
3.34562	50.08
3.36228	50.08
3.37895	50.07
3.39562	50.06
3.41228	50.06
3.42895	50.05
3.44562	50.07
3.46228	50.08
3.47895	50.07
3.49562	50.07
3.51228	50.07
3.52895	50.07
3.54562	50.07
3.56228	50.06
3.57895	50.06
3.59562	50.05
3.61228	50.05
3.62895	50.07
3.64562	50.09
3.66228	50.09
3.67895	50.09
3.69562	50.10
3.71228	50.09
3.72895	50.09
3.74562	50.10
3.76228	50.09
3.77895	50.10
3.79562	50.10
3.81228	50.11
3.82895	50.11
3.84562	50.09
3.86228	50.08
3.87895	50.04
3.89562	50.02
3.91228	50.00
3.92895	49.99
3.94562	49.99
3.96228	49.99
3.97895	49.99
3.99562	49.99

[Status Trace (Injection Unit Temperature)]
Interval(msec)	1000
# of Points	240
Start Time(min)	0.012
End Time(min)	3.996
Intensity Units	
Intensity Multiplier	1
R.Time (min)	Intensity
0.01228	99.98
0.02895	99.98
0.04562	99.97
0.06228	99.98
0.07895	99.99
0.09562	99.99
0.11228	99.99
0.12895	99.98
0.14562	99.99
0.16228	99.98
0.17895	99.99
0.19562	99.98
0.21228	99.98
0.22895	99.98
0.24562	99.98
0.26228	99.98
0.27895	99.99
0.29562	99.99
0.31228	99.98
0.32895	99.99
0.34562	99.99
0.36228	99.98
0.37895	99.98
0.39562	99.98
0.41228	99.98
0.42895	99.98
0.44562	99.98
0.46228	99.98
0.47895	99.98
0.49562	99.98
0.51228	99.98
0.52895	99.98
0.54562	99.98
0.56228	99.98
0.57895	99.98
0.59562	99.98
0.61228	99.98
0.62895	99.98
0.64562	99.98
0.66228	99.98
0.67895	99.98
0.69562	99.98
0.71228	99.98
0.72895	99.98
0.74562	99.98
0.76228	99.98
0.77895	99.98
0.79562	99.98
0.81228	99.98
0.82895	99.98
0.84562	99.98
0.86228	99.98
0.87895	99.98
0.89562	99.98
0.91228	99.98
0.92895	99.98
0.94562	99.98
0.96228	99.97
0.97895	99.98
0.99562	99.98
1.01228	99.98
1.02895	99.98
1.04562	99.98
1.06228	99.98
1.07895	99.98
1.09562	99.97
1.11228	99.98
1.12895	99.98
1.14562	99.98
1.16228	99.98
1.17895	99.97
1.19562	99.98
1.21228	99.98
1.22895	99.98
1.24562	99.98
1.26228	99.98
1.27895	99.98
1.29562	99.98
1.31228	99.98
1.32895	99.97
1.34562	99.98
1.36228	99.98
1.37895	99.97
1.39562	99.98
1.41228	99.97
1.42895	99.98
1.44562	99.98
1.46228	99.98
1.47895	99.97
1.49562	99.98
1.51228	99.98
1.52895	99.98
1.54562	99.98
1.56228	99.98
1.57895	99.98
1.59562	99.98
1.61228	99.98
1.62895	99.98
1.64562	99.98
1.66228	99.97
1.67895	99.98
1.69562	99.97
1.71228	99.98
1.72895	99.98
1.74562	99.98
1.76228	99.98
1.77895	99.98
1.79562	99.98
1.81228	99.98
1.82895	99.98
1.84562	99.98
1.86228	99.98
1.87895	99.98
1.89562	99.98
1.91228	99.98
1.92895	99.98
1.94562	99.98
1.96228	99.97
1.97895	99.98
1.99562	99.97
2.01228	99.97
2.02895	99.97
2.04562	99.97
2.06228	99.98
2.07895	99.97
2.09562	99.97
2.11228	99.97
2.12895	99.97
2.14562	99.97
2.16228	99.97
2.17895	99.97
2.19562	99.97
2.21228	99.98
2.22895	99.96
2.24562	99.97
2.26228	99.97
2.27895	99.97
2.29562	99.97
2.31228	99.97
2.32895	99.97
2.34562	99.96
2.36228	99.97
2.37895	99.97
2.39562	99.97
2.41228	99.97
2.42895	99.97
2.44562	99.96
2.46228	99.97
2.47895	99.97
2.49562	99.97
2.51228	99.97
2.52895	99.97
2.54562	99.97
2.56228	99.97
2.57895	99.97
2.59562	99.97
2.61228	99.97
2.62895	99.97
2.64562	99.97
2.66228	99.97
2.67895	99.98
2.69562	99.98
2.71228	99.98
2.72895	99.97
2.74562	99.98
2.76228	99.98
2.77895	99.99
2.79562	99.99
2.81228	99.99
2.82895	99.99
2.84562	99.99
2.86228	99.99
2.87895	99.99
2.89562	100.00
2.91228	100.00
2.92895	100.00
2.94562	100.00
2.96228	100.00
2.97895	100.00
2.99562	100.01
3.01228	100.01
3.02895	100.01
3.04562	100.01
3.06228	100.01
3.07895	100.01
3.09562	100.01
3.11228	100.01
3.12895	100.02
3.14562	100.01
3.16228	100.02
3.17895	100.02
3.19562	100.02
3.21228	100.02
3.22895	100.02
3.24562	100.02
3.26228	100.02
3.27895	100.02
3.29562	100.03
3.31228	100.02
3.32895	100.03
3.34562	100.03
3.36228	100.02
3.37895	100.03
3.39562	100.02
3.41228	100.02
3.42895	100.03
3.44562	100.03
3.46228	100.03
3.47895	100.03
3.49562	100.03
3.51228	100.03
3.52895	100.03
3.54562	100.03
3.56228	100.03
3.57895	100.03
3.59562	100.03
3.61228	100.03
3.62895	100.03
3.64562	100.03
3.66228	100.03
3.67895	100.03
3.69562	100.03
3.71228	100.03
3.72895	100.03
3.74562	100.03
3.76228	100.03
3.77895	100.04
3.79562	100.03
3.81228	100.03
3.82895	100.04
3.84562	100.04
3.86228	100.04
3.87895	100.04
3.89562	100.04
3.91228	100.04
3.92895	100.04
3.94562	100.03
3.96228	100.04
3.97895	100.04
3.99562	100.04

[Status Trace (Carrier Gas Pressure)]
Interval(msec)	1000
# of Points	240
Start Time(min)	0.012
End Time(min)	3.996
Intensity Units	
Intensity Multiplier	1
R.Time (min)	Intensity
0.01228	57.99
0.02895	54.94
0.04562	57.75
0.06228	59.67
0.07895	58.91
0.09562	57.99
0.11228	57.99
0.12895	58.01
0.14562	58.01
0.16228	58.00
0.17895	58.00
0.19562	58.00
0.21228	58.00
0.22895	58.00
0.24562	58.00
0.26228	58.00
0.27895	58.00
0.29562	58.00
0.31228	58.00
0.32895	58.00
0.34562	58.00
0.36228	58.00
0.37895	58.00
0.39562	58.00
0.41228	58.00
0.42895	58.00
0.44562	58.00
0.46228	58.00
0.47895	58.00
0.49562	58.00
0.51228	58.00
0.52895	58.00
0.54562	58.00
0.56228	58.00
0.57895	58.00
0.59562	58.00
0.61228	58.00
0.62895	58.00
0.64562	58.00
0.66228	58.00
0.67895	58.00
0.69562	58.00
0.71228	58.00
0.72895	58.00
0.74562	58.00
0.76228	58.00
0.77895	58.00
0.79562	58.00
0.81228	58.00
0.82895	58.00
0.84562	58.00
0.86228	58.00
0.87895	58.00
0.89562	58.00
0.91228	58.00
0.92895	58.00
0.94562	58.00
0.96228	58.00
0.97895	58.00
0.99562	58.00
1.01228	58.00
1.02895	58.00
1.04562	58.00
1.06228	58.00
1.07895	58.00
1.09562	58.00
1.11228	58.00
1.12895	58.00
1.14562	58.00
1.16228	58.00
1.17895	58.00
1.19562	58.00
1.21228	58.00
1.22895	58.00
1.24562	58.00
1.26228	58.00
1.27895	58.00
1.29562	58.00
1.31228	58.00
1.32895	58.00
1.34562	58.00
1.36228	58.00
1.37895	58.00
1.39562	58.00
1.41228	58.00
1.42895	58.00
1.44562	58.00
1.46228	58.00
1.47895	58.00
1.49562	58.00
1.51228	58.00
1.52895	58.00
1.54562	58.00
1.56228	58.00
1.57895	58.00
1.59562	58.00
1.61228	58.00
1.62895	58.01
1.64562	58.01
1.66228	58.00
1.67895	58.01
1.69562	58.00
1.71228	58.00
1.72895	58.00
1.74562	58.00
1.76228	58.00
1.77895	58.00
1.79562	58.00
1.81228	58.00
1.82895	58.00
1.84562	58.00
1.86228	58.00
1.87895	58.00
1.89562	58.00
1.91228	58.00
1.92895	58.00
1.94562	58.00
1.96228	58.00
1.97895	58.00
1.99562	58.00
2.01228	58.00
2.02895	58.00
2.04562	58.00
2.06228	58.00
2.07895	58.00
2.09562	58.00
2.11228	58.00
2.12895	58.00
2.14562	58.00
2.16228	58.00
2.17895	58.00
2.19562	58.00
2.21228	58.00
2.22895	58.00
2.24562	58.00
2.26228	58.00
2.27895	58.00
2.29562	58.00
2.31228	58.00
2.32895	58.00
2.34562	58.00
2.36228	58.00
2.37895	57.99
2.39562	57.99
2.41228	58.00
2.42895	58.00
2.44562	58.00
2.46228	58.00
2.47895	58.00
2.49562	58.00
2.51228	57.99
2.52895	57.98
2.54562	58.00
2.56228	58.00
2.57895	58.00
2.59562	58.00
2.61228	58.00
2.62895	58.00
2.64562	58.00
2.66228	58.00
2.67895	58.00
2.69562	58.00
2.71228	58.00
2.72895	58.00
2.74562	58.00
2.76228	58.00
2.77895	58.00
2.79562	58.00
2.81228	58.00
2.82895	58.00
2.84562	58.00
2.86228	58.00
2.87895	58.00
2.89562	58.00
2.91228	58.00
2.92895	58.00
2.94562	58.00
2.96228	58.00
2.97895	58.00
2.99562	58.00
3.01228	58.00
3.02895	58.00
3.04562	58.00
3.06228	58.00
3.07895	58.00
3.09562	58.00
3.11228	58.00
3.12895	58.00
3.14562	58.00
3.16228	58.00
3.17895	58.00
3.19562	58.00
3.21228	58.00
3.22895	58.00
3.24562	58.00
3.26228	58.00
3.27895	58.00
3.29562	58.00
3.31228	58.00
3.32895	58.00
3.34562	58.00
3.36228	58.00
3.37895	58.00
3.39562	58.00
3.41228	58.00
3.42895	58.00
3.44562	58.00
3.46228	58.00
3.47895	58.00
3.49562	58.00
3.51228	58.00
3.52895	58.00
3.54562	58.00
3.56228	58.00
3.57895	58.00
3.59562	58.00
3.61228	58.00
3.62895	58.00
3.64562	58.00
3.66228	58.00
3.67895	58.00
3.69562	58.00
3.71228	58.00
3.72895	58.00
3.74562	58.00
3.76228	58.00
3.77895	58.00
3.79562	58.00
3.81228	58.00
3.82895	58.00
3.84562	58.00
3.86228	58.00
3.87895	58.00
3.89562	58.00
3.91228	58.00
3.92895	58.00
3.94562	58.00
3.96228	58.00
3.97895	58.00
3.99562	58.00

[Status Trace (Carrier Gas Flow)]
Interval(msec)	1000
# of Points	240
Start Time(min)	0.012
End Time(min)	3.996
Intensity Units	
Intensity Multiplier	1
R.Time (min)	Intensity
0.01228	34.54
0.02895	34.54
0.04562	34.54
0.06228	34.53
0.07895	34.50
0.09562	34.52
0.11228	34.52
0.12895	34.52
0.14562	34.52
0.16228	34.52
0.17895	34.52
0.19562	34.52
0.21228	34.52
0.22895	34.52
0.24562	34.52
0.26228	34.52
0.27895	34.52
0.29562	34.52
0.31228	34.52
0.32895	34.52
0.34562	34.52
0.36228	34.52
0.37895	34.52
0.39562	34.52
0.41228	34.52
0.42895	34.52
0.44562	34.52
0.46228	34.52
0.47895	34.52
0.49562	34.52
0.51228	34.52
0.52895	34.52
0.54562	34.52
0.56228	34.52
0.57895	34.52
0.59562	34.52
0.61228	34.52
0.62895	34.52
0.64562	34.52
0.66228	34.52
0.67895	34.52
0.69562	34.52
0.71228	34.52
0.72895	34.52
0.74562	34.52
0.76228	34.52
0.77895	34.52
0.79562	34.52
0.81228	34.52
0.82895	34.52
0.84562	34.52
0.86228	34.52
0.87895	34.52
0.89562	34.52
0.91228	34.52
0.92895	34.52
0.94562	34.52
0.96228	34.52
0.97895	34.52
0.99562	34.52
1.01228	34.52
1.02895	34.52
1.04562	34.52
1.06228	34.52
1.07895	34.52
1.09562	34.52
1.11228	34.52
1.12895	34.51
1.14562	34.52
1.16228	34.52
1.17895	34.52
1.19562	34.52
1.21228	34.52
1.22895	34.52
1.24562	34.52
1.26228	34.52
1.27895	34.52
1.29562	34.52
1.31228	34.52
1.32895	34.52
1.34562	34.51
1.36228	34.52
1.37895	34.52
1.39562	34.52
1.41228	34.52
1.42895	34.51
1.44562	34.52
1.46228	34.52
1.47895	34.52
1.49562	34.52
1.51228	34.52
1.52895	34.52
1.54562	34.52
1.56228	34.52
1.57895	34.52
1.59562	34.51
1.61228	34.52
1.62895	34.52
1.64562	34.51
1.66228	34.52
1.67895	34.52
1.69562	34.51
1.71228	34.52
1.72895	34.52
1.74562	34.52
1.76228	34.52
1.77895	34.52
1.79562	34.52
1.81228	34.52
1.82895	34.51
1.84562	34.52
1.86228	34.52
1.87895	34.52
1.89562	34.52
1.91228	34.52
1.92895	34.52
1.94562	34.51
1.96228	34.53
1.97895	34.51
1.99562	34.53
2.01228	34.52
2.02895	34.51
2.04562	34.52
2.06228	34.52
2.07895	34.52
2.09562	34.51
2.11228	34.51
2.12895	34.52
2.14562	34.52
2.16228	34.52
2.17895	34.52
2.19562	34.52
2.21228	34.51
2.22895	34.52
2.24562	34.51
2.26228	34.52
2.27895	34.52
2.29562	34.52
2.31228	34.52
2.32895	34.52
2.34562	34.52
2.36228	34.52
2.37895	34.52
2.39562	34.52
2.41228	34.52
2.42895	34.52
2.44562	34.52
2.46228	34.52
2.47895	34.52
2.49562	34.52
2.51228	34.51
2.52895	34.52
2.54562	34.52
2.56228	34.52
2.57895	34.52
2.59562	34.52
2.61228	34.52
2.62895	34.52
2.64562	34.52
2.66228	34.52
2.67895	34.52
2.69562	34.52
2.71228	34.52
2.72895	34.51
2.74562	34.52
2.76228	34.52
2.77895	34.52
2.79562	34.52
2.81228	34.52
2.82895	34.52
2.84562	34.52
2.86228	34.52
2.87895	34.52
2.89562	34.52
2.91228	34.52
2.92895	34.52
2.94562	34.52
2.96228	34.52
2.97895	34.52
2.99562	34.52
3.01228	34.52
3.02895	34.52
3.04562	34.51
3.06228	34.51
3.07895	34.52
3.09562	34.52
3.11228	34.51
3.12895	34.52
3.14562	34.52
3.16228	34.52
3.17895	34.52
3.19562	34.52
3.21228	34.52
3.22895	34.52
3.24562	34.52
3.26228	34.52
3.27895	34.52
3.29562	34.51
3.31228	34.51
3.32895	34.53
3.34562	34.53
3.36228	34.53
3.37895	34.52
3.39562	34.52
3.41228	34.51
3.42895	34.52
3.44562	34.52
3.46228	34.51
3.47895	34.52
3.49562	34.52
3.51228	34.52
3.52895	34.52
3.54562	34.52
3.56228	34.52
3.57895	34.52
3.59562	34.52
3.61228	34.51
3.62895	34.52
3.64562	34.52
3.66228	34.52
3.67895	34.52
3.69562	34.52
3.71228	34.52
3.72895	34.52
3.74562	34.52
3.76228	34.52
3.77895	34.52
3.79562	34.52
3.81228	34.52
3.82895	34.52
3.84562	34.52
3.86228	34.52
3.87895	34.51
3.89562	34.52
3.91228	34.52
3.92895	34.52
3.94562	34.52
3.96228	34.52
3.97895	34.52
3.99562	34.52

[Status Trace (Column Flow)]
Interval(msec)	1000
# of Points	240
Start Time(min)	0.012
End Time(min)	3.996
Intensity Units	
Intensity Multiplier	1
R.Time (min)	Intensity
0.01228	5.57
0.02895	5.22
0.04562	5.54
0.06228	5.77
0.07895	5.68
0.09562	5.57
0.11228	5.57
0.12895	5.57
0.14562	5.57
0.16228	5.57
0.17895	5.57
0.19562	5.57
0.21228	5.57
0.22895	5.57
0.24562	5.57
0.26228	5.58
0.27895	5.58
0.29562	5.58
0.31228	5.58
0.32895	5.58
0.34562	5.58
0.36228	5.58
0.37895	5.58
0.39562	5.58
0.41228	5.58
0.42895	5.58
0.44562	5.58
0.46228	5.58
0.47895	5.58
0.49562	5.57
0.51228	5.57
0.52895	5.57
0.54562	5.57
0.56228	5.57
0.57895	5.57
0.59562	5.57
0.61228	5.57
0.62895	5.57
0.64562	5.57
0.66228	5.57
0.67895	5.57
0.69562	5.57
0.71228	5.57
0.72895	5.57
0.74562	5.58
0.76228	5.58
0.77895	5.58
0.79562	5.58
0.81228	5.58
0.82895	5.58
0.84562	5.58
0.86228	5.58
0.87895	5.57
0.89562	5.57
0.91228	5.57
0.92895	5.57
0.94562	5.58
0.96228	5.58
0.97895	5.58
0.99562	5.58
1.01228	5.57
1.02895	5.57
1.04562	5.58
1.06228	5.58
1.07895	5.58
1.09562	5.58
1.11228	5.58
1.12895	5.58
1.14562	5.58
1.16228	5.58
1.17895	5.58
1.19562	5.58
1.21228	5.57
1.22895	5.58
1.24562	5.58
1.26228	5.58
1.27895	5.58
1.29562	5.58
1.31228	5.58
1.32895	5.58
1.34562	5.58
1.36228	5.57
1.37895	5.57
1.39562	5.57
1.41228	5.57
1.42895	5.58
1.44562	5.58
1.46228	5.58
1.47895	5.58
1.49562	5.58
1.51228	5.58
1.52895	5.58
1.54562	5.58
1.56228	5.58
1.57895	5.58
1.59562	5.58
1.61228	5.57
1.62895	5.57
1.64562	5.56
1.66228	5.55
1.67895	5.54
1.69562	5.53
1.71228	5.52
1.72895	5.51
1.74562	5.50
1.76228	5.49
1.77895	5.48
1.79562	5.47
1.81228	5.46
1.82895	5.45
1.84562	5.44
1.86228	5.43
1.87895	5.42
1.89562	5.41
1.91228	5.40
1.92895	5.39
1.94562	5.38
1.96228	5.37
1.97895	5.36
1.99562	5.35
2.01228	5.34
2.02895	5.33
2.04562	5.32
2.06228	5.31
2.07895	5.30
2.09562	5.29
2.11228	5.28
2.12895	5.27
2.14562	5.26
2.16228	5.25
2.17895	5.24
2.19562	5.23
2.21228	5.22
2.22895	5.21
2.24562	5.20
2.26228	5.19
2.27895	5.18
2.29562	5.18
2.31228	5.17
2.32895	5.16
2.34562	5.15
2.36228	5.14
2.37895	5.14
2.39562	5.14
2.41228	5.14
2.42895	5.14
2.44562	5.14
2.46228	5.14
2.47895	5.14
2.49562	5.14
2.51228	5.13
2.52895	5.13
2.54562	5.13
2.56228	5.13
2.57895	5.13
2.59562	5.13
2.61228	5.13
2.62895	5.13
2.64562	5.13
2.66228	5.13
2.67895	5.13
2.69562	5.13
2.71228	5.13
2.72895	5.13
2.74562	5.13
2.76228	5.13
2.77895	5.13
2.79562	5.13
2.81228	5.13
2.82895	5.13
2.84562	5.13
2.86228	5.13
2.87895	5.13
2.89562	5.13
2.91228	5.13
2.92895	5.13
2.94562	5.13
2.96228	5.13
2.97895	5.13
2.99562	5.13
3.01228	5.13
3.02895	5.13
3.04562	5.13
3.06228	5.13
3.07895	5.13
3.09562	5.13
3.11228	5.13
3.12895	5.13
3.14562	5.13
3.16228	5.13
3.17895	5.13
3.19562	5.13
3.21228	5.13
3.22895	5.13
3.24562	5.12
3.26228	5.12
3.27895	5.12
3.29562	5.12
3.31228	5.12
3.32895	5.12
3.34562	5.12
3.36228	5.13
3.37895	5.13
3.39562	5.13
3.41228	5.13
3.42895	5.13
3.44562	5.13
3.46228	5.13
3.47895	5.13
3.49562	5.13
3.51228	5.13
3.52895	5.13
3.54562	5.13
3.56228	5.13
3.57895	5.13
3.59562	5.13
3.61228	5.13
3.62895	5.13
3.64562	5.12
3.66228	5.12
3.67895	5.12
3.69562	5.12
3.71228	5.12
3.72895	5.12
3.74562	5.12
3.76228	5.12
3.77895	5.12
3.79562	5.12
3.81228	5.12
3.82895	5.12
3.84562	5.12
3.86228	5.12
3.87895	5.13
3.89562	5.13
3.91228	5.13
3.92895	5.13
3.94562	5.13
3.96228	5.13
3.97895	5.13
3.99562	5.13

[Status Trace (Linear Velocity)]
Interval(msec)	1000
# of Points	240
Start Time(min)	0.012
End Time(min)	3.996
Intensity Units	
Intensity Multiplier	1
R.Time (min)	Intensity
0.01228	39.02
0.02895	37.01
0.04562	38.86
0.06228	40.12
0.07895	39.63
0.09562	39.02
0.11228	39.02
0.12895	39.03
0.14562	39.03
0.16228	39.03
0.17895	39.03
0.19562	39.03
0.21228	39.03
0.22895	39.03
0.24562	39.03
0.26228	39.03
0.27895	39.03
0.29562	39.03
0.31228	39.03
0.32895	39.03
0.34562	39.03
0.36228	39.03
0.37895	39.03
0.39562	39.03
0.41228	39.03
0.42895	39.03
0.44562	39.03
0.46228	39.03
0.47895	39.03
0.49562	39.03
0.51228	39.03
0.52895	39.03
0.54562	39.03
0.56228	39.03
0.57895	39.03
0.59562	39.03
0.61228	39.03
0.62895	39.03
0.64562	39.02
0.66228	39.03
0.67895	39.03
0.69562	39.03
0.71228	39.03
0.72895	39.03
0.74562	39.03
0.76228	39.03
0.77895	39.03
0.79562	39.03
0.81228	39.03
0.82895	39.03
0.84562	39.03
0.86228	39.03
0.87895	39.03
0.89562	39.03
0.91228	39.03
0.92895	39.03
0.94562	39.03
0.96228	39.03
0.97895	39.03
0.99562	39.03
1.01228	39.03
1.02895	39.03
1.04562	39.03
1.06228	39.03
1.07895	39.03
1.09562	39.03
1.11228	39.03
1.12895	39.03
1.14562	39.03
1.16228	39.03
1.17895	39.03
1.19562	39.03
1.21228	39.03
1.22895	39.03
1.24562	39.03
1.26228	39.03
1.27895	39.03
1.29562	39.03
1.31228	39.03
1.32895	39.03
1.34562	39.03
1.36228	39.03
1.37895	39.03
1.39562	39.03
1.41228	39.03
1.42895	39.03
1.44562	39.03
1.46228	39.03
1.47895	39.03
1.49562	39.03
1.51228	39.03
1.52895	39.03
1.54562	39.03
1.56228	39.03
1.57895	39.03
1.59562	39.03
1.61228	39.03
1.62895	39.01
1.64562	38.99
1.66228	38.97
1.67895	38.93
1.69562	38.89
1.71228	38.86
1.72895	38.83
1.74562	38.80
1.76228	38.77
1.77895	38.73
1.79562	38.70
1.81228	38.68
1.82895	38.64
1.84562	38.61
1.86228	38.58
1.87895	38.54
1.89562	38.52
1.91228	38.49
1.92895	38.45
1.94562	38.42
1.96228	38.40
1.97895	38.36
1.99562	38.33
2.01228	38.31
2.02895	38.27
2.04562	38.24
2.06228	38.22
2.07895	38.18
2.09562	38.15
2.11228	38.12
2.12895	38.09
2.14562	38.06
2.16228	38.04
2.17895	38.00
2.19562	37.97
2.21228	37.95
2.22895	37.92
2.24562	37.89
2.26228	37.86
2.27895	37.83
2.29562	37.80
2.31228	37.77
2.32895	37.74
2.34562	37.71
2.36228	37.69
2.37895	37.67
2.39562	37.67
2.41228	37.67
2.42895	37.67
2.44562	37.67
2.46228	37.67
2.47895	37.67
2.49562	37.67
2.51228	37.66
2.52895	37.66
2.54562	37.67
2.56228	37.67
2.57895	37.66
2.59562	37.66
2.61228	37.66
2.62895	37.66
2.64562	37.66
2.66228	37.66
2.67895	37.66
2.69562	37.66
2.71228	37.66
2.72895	37.66
2.74562	37.66
2.76228	37.66
2.77895	37.66
2.79562	37.66
2.81228	37.66
2.82895	37.65
2.84562	37.65
2.86228	37.65
2.87895	37.65
2.89562	37.65
2.91228	37.65
2.92895	37.65
2.94562	37.65
2.96228	37.65
2.97895	37.65
2.99562	37.65
3.01228	37.65
3.02895	37.65
3.04562	37.65
3.06228	37.65
3.07895	37.65
3.09562	37.65
3.11228	37.65
3.12895	37.65
3.14562	37.65
3.16228	37.64
3.17895	37.64
3.19562	37.64
3.21228	37.64
3.22895	37.64
3.24562	37.64
3.26228	37.64
3.27895	37.64
3.29562	37.64
3.31228	37.64
3.32895	37.64
3.34562	37.64
3.36228	37.64
3.37895	37.64
3.39562	37.64
3.41228	37.64
3.42895	37.64
3.44562	37.64
3.46228	37.64
3.47895	37.64
3.49562	37.64
3.51228	37.64
3.52895	37.64
3.54562	37.64
3.56228	37.64
3.57895	37.64
3.59562	37.64
3.61228	37.64
3.62895	37.64
3.64562	37.64
3.66228	37.64
3.67895	37.64
3.69562	37.64
3.71228	37.64
3.72895	37.64
3.74562	37.64
3.76228	37.64
3.77895	37.64
3.79562	37.63
3.81228	37.63
3.82895	37.63
3.84562	37.64
3.86228	37.64
3.87895	37.64
3.89562	37.64
3.91228	37.64
3.92895	37.65
3.94562	37.65
3.96228	37.65
3.97895	37.65
3.99562	37.65

