[Header]
Application Name	LabSolutions
Version	5.110
Data File Name	C:\Users\User\Desktop\GC Analyses\Jack\Nachusa Grasslands Sampling\T0 Timepoint July 12th\T0_07122022_072.gcd
Output Date	3/14/2023
Output Time	3:40:38 PM

[File Information]
Type	Data File
Generated	3/7/2023 9:48:48 PM
Generated by	System Administrator
Modified	3/7/2023 9:55:24 PM
Modified by	System Administrator

[Sample Information]
Operator Name	System Administrator
Acquired	3/7/2023 9:51:22 PM
Sample Type	0:Unknown
Level	0
Sample Name	072
Sample ID	072
ISTD Amount1	1
ISTD Amount2	1
ISTD Amount3	1
ISTD Amount4	1
ISTD Amount5	1
ISTD Amount6	1
ISTD Amount7	1
ISTD Amount8	1
ISTD Amount9	1
ISTD Amount10	1
ISTD Amount11	1
ISTD Amount12	1
ISTD Amount13	1
ISTD Amount14	1
ISTD Amount15	1
ISTD Amount16	1
ISTD Amount17	1
ISTD Amount18	1
ISTD Amount19	1
ISTD Amount20	1
ISTD Amount21	1
ISTD Amount22	1
ISTD Amount23	1
ISTD Amount24	1
ISTD Amount25	1
ISTD Amount26	1
ISTD Amount27	1
ISTD Amount28	1
ISTD Amount29	1
ISTD Amount30	1
ISTD Amount31	1
ISTD Amount32	1
Sample Amount	1
Dilution Factor	1
Vial#	71
Injection Volume	1
Injection Count	1
Bar Code	

[Original Files]
Data File	C:\Users\User\Desktop\GC Analyses\Jack\Nachusa Grasslands Sampling\T0 Timepoint July 12th\T0_07122022_072.gcd
Method File	C:\LabSolutions\Data\GHG_4min_2022\ghg3_togas_w_acet_4 min_new_int.gcm
Batch File	C:\LabSolutions\Data\AutoSamplerTesting\T0_07122022.gcb
Report Format File	c:\LabSolutions\System\DEFAULT.lsr

[File Description]


[Configuration]
Instrument Name	C0B7VH3-Instrument1
Instrument #	1
Line #	1
# of Detectors	3
Detector ID	DET#1	DET#2	DET#3
Detector Name	FID	PTCD	ECD
# of Channels	1	1	1

[Peak Table(Ch1)]
# of Peaks	3
Peak#	R.Time	I.Time	F.Time	Area	Height	A/H	Conc.	Mark	ID#	Name	k'	Plate #	Plate Ht.	Tailing	Resolution	Sep.Factor	Area Ratio	Height Ratio	Conc. %	Norm Conc.
1	1.476	1.435	1.538	28111	13179	2.133	198.462	   	1	CO	0.000	9049	16.576	1.340	0.000	0.000	0	0	33.418	33.418
2	1.567	1.538	1.622	5053	2438	2.073	97.708	 V 	2	CH4	0.062	10381	14.450	0.000	1.483	0.000	0	0	16.453	16.453
3	1.996	1.945	2.491	1186202	557179	2.129	297.705	   	3	CO2	0.353	17354	8.643	1.337	7.024	5.680	0	0	50.129	50.129

[Peak Table(Ch2)]
# of Peaks	0

[Peak Table(Ch3)]
# of Peaks	5
Peak#	R.Time	I.Time	F.Time	Area	Height	A/H	Conc.	Mark	ID#	Name	k'	Plate #	Plate Ht.	Tailing	Resolution	Sep.Factor	Area Ratio	Height Ratio	Conc. %	Norm Conc.
1	2.458	2.279	2.521	1984	459	4.326	0.000	   			0.000	8329	18.010	0.000	0.000	0.000	0	0	0.000	0.000
2	2.546	2.521	2.634	902	204	4.426	0.000	 V 			0.036	3204	46.813	0.000	0.612	0.000	0	0	0.000	0.000
3	2.704	2.645	2.763	592	108	5.477	0.000	   			0.100	1114	134.698	0.000	0.626	2.792	0	0	0.000	0.000
4	2.873	2.763	3.173	19400	4879	3.976	0.496	 V 	1	N2O	0.169	13147	11.410	1.661	0.795	1.687	0	0	100.000	100.000
5	3.701	3.591	3.716	339	85	3.977	0.000	   			0.506	13608	11.023	0.565	7.297	3.000	0	0	0.000	0.000

[Compound Results(Ch1)]
# of IDs	6
ID#	Name	R.Time	Area	Height	Conc.	Curve	3rd	2nd	1st	Constant	Area Ratio	Height Ratio	Conc. %	Norm Conc.
1	CO	1.476	28111	13179	198.462	Linear	0.000000e+00	0.000000e+00	1.416423e+002	0.000000e+00	0	0	33.418	33.418
2	CH4	1.567	5053	2438	97.708	Linear	0.000000e+00	0.000000e+00	5.171738e+001	0.000000e+00	0	0	16.453	16.453
3	CO2	1.996	1186202	557179	297.705	Linear	0.000000e+00	0.000000e+00	3.984494e+003	0.000000e+00	0	0	50.129	50.129
4	Ethylene	0.000	0	0	0.000	Linear	0.000000e+00	0.000000e+00	0.000000e+00	0.000000e+00	0	0	0.000	0.000
5	Acetylene	0.000	0	0	0.000	Linear	0.000000e+00	0.000000e+00	0.000000e+00	0.000000e+00	0	0	0.000	0.000
6	Ethane	0.000	0	0	0.000	Linear	0.000000e+00	0.000000e+00	0.000000e+00	0.000000e+00	0	0	0.000	0.000

[Compound Results(Ch2)]
# of IDs	5
ID#	Name	R.Time	Area	Height	Conc.	Curve	3rd	2nd	1st	Constant	Area Ratio	Height Ratio	Conc. %	Norm Conc.
1	Hydrogen	0.000	0	0	0.000	Linear	0.000000e+00	0.000000e+00	0.000000e+00	0.000000e+00	0	0	0.000	0.000
2	Oxygen	0.000	0	0	0.000	Linear	0.000000e+00	0.000000e+00	0.000000e+00	0.000000e+00	0	0	0.000	0.000
3	Nitrogen	0.000	0	0	0.000	Linear	0.000000e+00	0.000000e+00	0.000000e+00	0.000000e+00	0	0	0.000	0.000
4	Methane	0.000	0	0	0.000	Linear	0.000000e+00	0.000000e+00	0.000000e+00	0.000000e+00	0	0	0.000	0.000
5	Carbon Monoxide	0.000	0	0	0.000	Linear	0.000000e+00	0.000000e+00	0.000000e+00	0.000000e+00	0	0	0.000	0.000

[Compound Results(Ch3)]
# of IDs	2
ID#	Name	R.Time	Area	Height	Conc.	Curve	3rd	2nd	1st	Constant	Area Ratio	Height Ratio	Conc. %	Norm Conc.
1	N2O	2.873	19400	4879	0.496	Linear	0.000000e+00	0.000000e+00	3.915173e+004	0.000000e+00	0	0	100.000	100.000
2	SF6	0.000	0	0	0.000	Linear	0.000000e+00	0.000000e+00	0.000000e+00	0.000000e+00	0	0	0.000	0.000

[Group Results(Ch1)]
# of Groups	0

[Group Results(Ch2)]
# of Groups	0

[Group Results(Ch3)]
# of Groups	0

[Chromatogram (Ch1)]
Interval(msec)	220
# of Points	1091
Start Time(min)	0.002
End Time(min)	3.998
R.Time (min)	Intensity
0.00167	-9
0.00533	-7
0.00900	-5
0.01267	-4
0.01633	-4
0.02000	-1
0.02367	8
0.02733	22
0.03100	33
0.03467	34
0.03833	27
0.04200	13
0.04567	-3
0.04933	-18
0.05300	-29
0.05667	-36
0.06033	-38
0.06400	-38
0.06767	-36
0.07133	-29
0.07500	-21
0.07867	-13
0.08233	-7
0.08600	-5
0.08967	-8
0.09333	-12
0.09700	-14
0.10067	-13
0.10433	-12
0.10800	-11
0.11167	-9
0.11533	-4
0.11900	1
0.12267	3
0.12633	3
0.13000	0
0.13367	-7
0.13733	-16
0.14100	-21
0.14467	-20
0.14833	-13
0.15200	-2
0.15567	8
0.15933	15
0.16300	19
0.16667	23
0.17033	22
0.17400	15
0.17767	8
0.18133	3
0.18500	-0
0.18867	1
0.19233	4
0.19600	4
0.19967	2
0.20333	3
0.20700	10
0.21067	21
0.21433	29
0.21800	29
0.22167	25
0.22533	20
0.22900	15
0.23267	9
0.23633	0
0.24000	-8
0.24367	-11
0.24733	-8
0.25100	-3
0.25467	3
0.25833	5
0.26200	8
0.26567	12
0.26933	10
0.27300	4
0.27667	-3
0.28033	-9
0.28400	-12
0.28767	-13
0.29133	-10
0.29500	-5
0.29867	-1
0.30233	-2
0.30600	-3
0.30967	-3
0.31333	-2
0.31700	2
0.32067	9
0.32433	19
0.32800	27
0.33167	27
0.33533	21
0.33900	12
0.34267	4
0.34633	-5
0.35000	-13
0.35367	-18
0.35733	-17
0.36100	-13
0.36467	-7
0.36833	-0
0.37200	7
0.37567	12
0.37933	15
0.38300	19
0.38667	20
0.39033	20
0.39400	19
0.39767	18
0.40133	15
0.40500	10
0.40867	5
0.41233	-3
0.41600	-11
0.41967	-16
0.42333	-17
0.42700	-12
0.43067	-3
0.43433	7
0.43800	15
0.44167	23
0.44533	26
0.44900	22
0.45267	17
0.45633	15
0.46000	11
0.46367	5
0.46733	-1
0.47100	-4
0.47467	-4
0.47833	-3
0.48200	-3
0.48567	-4
0.48933	-3
0.49300	-0
0.49667	2
0.50033	4
0.50400	4
0.50767	1
0.51133	-3
0.51500	-6
0.51867	-10
0.52233	-13
0.52600	-13
0.52967	-12
0.53333	-7
0.53700	1
0.54067	8
0.54433	11
0.54800	10
0.55167	6
0.55533	1
0.55900	-2
0.56267	0
0.56633	6
0.57000	14
0.57367	21
0.57733	24
0.58100	24
0.58467	23
0.58833	17
0.59200	9
0.59567	0
0.59933	-7
0.60300	-13
0.60667	-20
0.61033	-24
0.61400	-23
0.61767	-18
0.62133	-8
0.62500	-1
0.62867	0
0.63233	-2
0.63600	-6
0.63967	-10
0.64333	-14
0.64700	-20
0.65067	-25
0.65433	-27
0.65800	-30
0.66167	-32
0.66533	-31
0.66900	-23
0.67267	-10
0.67633	-2
0.68000	4
0.68367	9
0.68733	12
0.69100	9
0.69467	2
0.69833	-3
0.70200	-7
0.70567	-9
0.70933	-13
0.71300	-16
0.71667	-19
0.72033	-18
0.72400	-16
0.72767	-15
0.73133	-13
0.73500	-9
0.73867	-6
0.74233	-4
0.74600	-3
0.74967	-1
0.75333	-0
0.75700	1
0.76067	2
0.76433	4
0.76800	6
0.77167	6
0.77533	4
0.77900	3
0.78267	-0
0.78633	-3
0.79000	-6
0.79367	-8
0.79733	-8
0.80100	-11
0.80467	-12
0.80833	-10
0.81200	-6
0.81567	-1
0.81933	5
0.82300	8
0.82667	8
0.83033	3
0.83400	-6
0.83767	-13
0.84133	-19
0.84500	-24
0.84867	-29
0.85233	-31
0.85600	-31
0.85967	-23
0.86333	-11
0.86700	1
0.87067	8
0.87433	8
0.87800	3
0.88167	-6
0.88533	-16
0.88900	-23
0.89267	-29
0.89633	-32
0.90000	-29
0.90367	-26
0.90733	-23
0.91100	-22
0.91467	-23
0.91833	-26
0.92200	-31
0.92567	-35
0.92933	-33
0.93300	-30
0.93667	-26
0.94033	-19
0.94400	-11
0.94767	-8
0.95133	-12
0.95500	-19
0.95867	-25
0.96233	-30
0.96600	-34
0.96967	-36
0.97333	-34
0.97700	-32
0.98067	-30
0.98433	-29
0.98800	-30
0.99167	-32
0.99533	-36
0.99900	-37
1.00267	-37
1.00633	-36
1.01000	-33
1.01367	-29
1.01733	-27
1.02100	-25
1.02467	-24
1.02833	-23
1.03200	-24
1.03567	-27
1.03933	-28
1.04300	-30
1.04667	-36
1.05033	-45
1.05400	-50
1.05767	-49
1.06133	-44
1.06500	-36
1.06867	-26
1.07233	-16
1.07600	-10
1.07967	-11
1.08333	-12
1.08700	-13
1.09067	-13
1.09433	-14
1.09800	-18
1.10167	-23
1.10533	-26
1.10900	-26
1.11267	-28
1.11633	-30
1.12000	-28
1.12367	-23
1.12733	-16
1.13100	-8
1.13467	-4
1.13833	-6
1.14200	-7
1.14567	-5
1.14933	-4
1.15300	-8
1.15667	-12
1.16033	-16
1.16400	-14
1.16767	-7
1.17133	-0
1.17500	6
1.17867	12
1.18233	14
1.18600	15
1.18967	14
1.19333	13
1.19700	7
1.20067	-4
1.20433	-15
1.20800	-21
1.21167	-24
1.21533	-25
1.21900	-24
1.22267	-23
1.22633	-22
1.23000	-20
1.23367	-18
1.23733	-11
1.24100	-1
1.24467	10
1.24833	18
1.25200	22
1.25567	25
1.25933	28
1.26300	29
1.26667	28
1.27033	28
1.27400	26
1.27767	21
1.28133	16
1.28500	12
1.28867	5
1.29233	2
1.29600	1
1.29967	3
1.30333	5
1.30700	8
1.31067	12
1.31433	15
1.31800	15
1.32167	13
1.32533	13
1.32900	15
1.33267	14
1.33633	10
1.34000	6
1.34367	4
1.34733	2
1.35100	-0
1.35467	-2
1.35833	3
1.36200	13
1.36567	17
1.36933	14
1.37300	9
1.37667	7
1.38033	6
1.38400	7
1.38767	9
1.39133	8
1.39500	6
1.39867	-2
1.40233	-10
1.40600	-15
1.40967	-22
1.41333	-28
1.41700	-32
1.42067	-34
1.42433	-34
1.42800	-35
1.43167	-33
1.43533	-23
1.43900	8
1.44267	107
1.44633	335
1.45000	865
1.45367	2087
1.45733	4153
1.46100	6677
1.46467	9111
1.46833	11104
1.47200	12496
1.47567	13166
1.47933	12999
1.48300	11981
1.48667	10305
1.49033	8328
1.49400	6403
1.49767	4753
1.50133	3455
1.50500	2492
1.50867	1799
1.51233	1309
1.51600	968
1.51967	735
1.52333	573
1.52700	458
1.53067	374
1.53433	315
1.53800	284
1.54167	315
1.54533	469
1.54900	779
1.55267	1201
1.55633	1642
1.56000	2020
1.56367	2296
1.56733	2448
1.57100	2448
1.57467	2272
1.57833	1946
1.58200	1551
1.58567	1171
1.58933	849
1.59300	595
1.59667	405
1.60033	273
1.60400	181
1.60767	116
1.61133	70
1.61500	43
1.61867	30
1.62233	24
1.62600	21
1.62967	17
1.63333	12
1.63700	8
1.64067	3
1.64433	-0
1.64800	0
1.65167	3
1.65533	6
1.65900	9
1.66267	9
1.66633	8
1.67000	8
1.67367	7
1.67733	7
1.68100	9
1.68467	14
1.68833	20
1.69200	24
1.69567	23
1.69933	20
1.70300	16
1.70667	12
1.71033	7
1.71400	2
1.71767	-0
1.72133	-2
1.72500	-5
1.72867	-5
1.73233	-3
1.73600	2
1.73967	9
1.74333	13
1.74700	11
1.75067	2
1.75433	-3
1.75800	-3
1.76167	-2
1.76533	2
1.76900	8
1.77267	14
1.77633	19
1.78000	25
1.78367	33
1.78733	36
1.79100	32
1.79467	18
1.79833	-2
1.80200	-23
1.80567	-40
1.80933	-53
1.81300	-58
1.81667	-56
1.82033	-50
1.82400	-42
1.82767	-33
1.83133	-22
1.83500	-14
1.83867	-9
1.84233	-7
1.84600	-5
1.84967	-1
1.85333	4
1.85700	8
1.86067	8
1.86433	7
1.86800	7
1.87167	8
1.87533	11
1.87900	17
1.88267	20
1.88633	20
1.89000	22
1.89367	29
1.89733	35
1.90100	36
1.90467	31
1.90833	23
1.91200	16
1.91567	10
1.91933	9
1.92300	9
1.92667	8
1.93033	7
1.93400	8
1.93767	8
1.94133	11
1.94500	17
1.94867	26
1.95233	43
1.95600	124
1.95967	582
1.96333	2701
1.96700	10206
1.97067	30538
1.97433	73377
1.97800	144725
1.98167	240476
1.98533	346164
1.98900	443795
1.99267	517805
1.99633	557230
2.00000	556971
2.00367	518672
2.00733	451392
2.01100	369166
2.01467	286159
2.01833	212545
2.02200	153081
2.02567	108169
2.02933	75806
2.03300	53213
2.03667	37748
2.04033	27268
2.04400	20181
2.04767	15365
2.05133	12061
2.05500	9757
2.05867	8117
2.06233	6920
2.06600	6020
2.06967	5324
2.07333	4769
2.07700	4321
2.08067	3953
2.08433	3646
2.08800	3386
2.09167	3160
2.09533	2961
2.09900	2786
2.10267	2632
2.10633	2495
2.11000	2369
2.11367	2253
2.11733	2149
2.12100	2056
2.12467	1971
2.12833	1893
2.13200	1824
2.13567	1760
2.13933	1696
2.14300	1630
2.14667	1565
2.15033	1504
2.15400	1451
2.15767	1411
2.16133	1374
2.16500	1337
2.16867	1301
2.17233	1267
2.17600	1233
2.17967	1201
2.18333	1169
2.18700	1136
2.19067	1100
2.19433	1065
2.19800	1034
2.20167	1006
2.20533	982
2.20900	962
2.21267	944
2.21633	927
2.22000	907
2.22367	884
2.22733	863
2.23100	844
2.23467	828
2.23833	817
2.24200	808
2.24567	797
2.24933	781
2.25300	764
2.25667	750
2.26033	735
2.26400	720
2.26767	707
2.27133	696
2.27500	684
2.27867	673
2.28233	666
2.28600	661
2.28967	654
2.29333	645
2.29700	637
2.30067	632
2.30433	631
2.30800	630
2.31167	625
2.31533	616
2.31900	605
2.32267	598
2.32633	593
2.33000	592
2.33367	589
2.33733	580
2.34100	570
2.34467	563
2.34833	560
2.35200	559
2.35567	553
2.35933	542
2.36300	530
2.36667	517
2.37033	506
2.37400	499
2.37767	493
2.38133	489
2.38500	484
2.38867	480
2.39233	475
2.39600	468
2.39967	459
2.40333	456
2.40700	458
2.41067	461
2.41433	464
2.41800	468
2.42167	469
2.42533	472
2.42900	480
2.43267	485
2.43633	480
2.44000	468
2.44367	456
2.44733	446
2.45100	439
2.45467	431
2.45833	426
2.46200	421
2.46567	414
2.46933	405
2.47300	400
2.47667	398
2.48033	397
2.48400	396
2.48767	394
2.49133	390
2.49500	386
2.49867	381
2.50233	380
2.50600	383
2.50967	391
2.51333	398
2.51700	400
2.52067	399
2.52433	396
2.52800	392
2.53167	391
2.53533	392
2.53900	398
2.54267	403
2.54633	406
2.55000	406
2.55367	400
2.55733	395
2.56100	394
2.56467	395
2.56833	393
2.57200	389
2.57567	388
2.57933	388
2.58300	384
2.58667	377
2.59033	370
2.59400	368
2.59767	368
2.60133	370
2.60500	370
2.60867	368
2.61233	362
2.61600	358
2.61967	357
2.62333	361
2.62700	367
2.63067	373
2.63433	376
2.63800	375
2.64167	371
2.64533	366
2.64900	361
2.65267	358
2.65633	355
2.66000	352
2.66367	354
2.66733	359
2.67100	365
2.67467	368
2.67833	365
2.68200	359
2.68567	353
2.68933	346
2.69300	343
2.69667	345
2.70033	348
2.70400	353
2.70767	355
2.71133	356
2.71500	355
2.71867	352
2.72233	347
2.72600	339
2.72967	329
2.73333	320
2.73700	316
2.74067	318
2.74433	323
2.74800	330
2.75167	338
2.75533	347
2.75900	358
2.76267	366
2.76633	369
2.77000	370
2.77367	371
2.77733	373
2.78100	377
2.78467	375
2.78833	367
2.79200	358
2.79567	352
2.79933	347
2.80300	344
2.80667	342
2.81033	339
2.81400	339
2.81767	339
2.82133	339
2.82500	340
2.82867	340
2.83233	340
2.83600	340
2.83967	341
2.84333	338
2.84700	332
2.85067	327
2.85433	326
2.85800	331
2.86167	342
2.86533	355
2.86900	368
2.87267	378
2.87633	384
2.88000	383
2.88367	374
2.88733	361
2.89100	354
2.89467	352
2.89833	352
2.90200	352
2.90567	351
2.90933	347
2.91300	344
2.91667	345
2.92033	349
2.92400	352
2.92767	356
2.93133	359
2.93500	358
2.93867	355
2.94233	355
2.94600	359
2.94967	363
2.95333	367
2.95700	369
2.96067	369
2.96433	370
2.96800	369
2.97167	367
2.97533	366
2.97900	367
2.98267	373
2.98633	381
2.99000	384
2.99367	381
2.99733	373
3.00100	363
3.00467	356
3.00833	350
3.01200	346
3.01567	344
3.01933	344
3.02300	346
3.02667	351
3.03033	359
3.03400	363
3.03767	367
3.04133	373
3.04500	378
3.04867	374
3.05233	368
3.05600	364
3.05967	359
3.06333	356
3.06700	352
3.07067	347
3.07433	341
3.07800	337
3.08167	334
3.08533	334
3.08900	336
3.09267	340
3.09633	343
3.10000	345
3.10367	344
3.10733	345
3.11100	348
3.11467	349
3.11833	349
3.12200	351
3.12567	353
3.12933	357
3.13300	362
3.13667	365
3.14033	363
3.14400	359
3.14767	359
3.15133	362
3.15500	365
3.15867	364
3.16233	357
3.16600	349
3.16967	342
3.17333	338
3.17700	332
3.18067	324
3.18433	316
3.18800	312
3.19167	313
3.19533	318
3.19900	330
3.20267	344
3.20633	351
3.21000	351
3.21367	347
3.21733	340
3.22100	332
3.22467	323
3.22833	318
3.23200	320
3.23567	325
3.23933	329
3.24300	332
3.24667	333
3.25033	336
3.25400	340
3.25767	340
3.26133	336
3.26500	331
3.26867	328
3.27233	332
3.27600	340
3.27967	346
3.28333	346
3.28700	340
3.29067	336
3.29433	335
3.29800	333
3.30167	332
3.30533	332
3.30900	329
3.31267	326
3.31633	323
3.32000	321
3.32367	323
3.32733	329
3.33100	332
3.33467	330
3.33833	329
3.34200	327
3.34567	328
3.34933	331
3.35300	334
3.35667	333
3.36033	327
3.36400	317
3.36767	311
3.37133	309
3.37500	308
3.37867	310
3.38233	315
3.38600	322
3.38967	330
3.39333	335
3.39700	337
3.40067	336
3.40433	335
3.40800	333
3.41167	328
3.41533	322
3.41900	318
3.42267	316
3.42633	315
3.43000	315
3.43367	314
3.43733	317
3.44100	320
3.44467	318
3.44833	311
3.45200	303
3.45567	297
3.45933	291
3.46300	288
3.46667	289
3.47033	290
3.47400	288
3.47767	286
3.48133	287
3.48500	289
3.48867	289
3.49233	289
3.49600	291
3.49967	296
3.50333	300
3.50700	305
3.51067	313
3.51433	320
3.51800	322
3.52167	318
3.52533	311
3.52900	307
3.53267	307
3.53633	306
3.54000	303
3.54367	295
3.54733	286
3.55100	282
3.55467	280
3.55833	282
3.56200	286
3.56567	291
3.56933	294
3.57300	294
3.57667	295
3.58033	293
3.58400	290
3.58767	289
3.59133	290
3.59500	288
3.59867	282
3.60233	276
3.60600	273
3.60967	268
3.61333	266
3.61700	264
3.62067	265
3.62433	267
3.62800	266
3.63167	265
3.63533	265
3.63900	269
3.64267	272
3.64633	274
3.65000	277
3.65367	280
3.65733	282
3.66100	282
3.66467	284
3.66833	286
3.67200	290
3.67567	298
3.67933	304
3.68300	304
3.68667	298
3.69033	290
3.69400	282
3.69767	276
3.70133	272
3.70500	267
3.70867	259
3.71233	252
3.71600	247
3.71967	245
3.72333	246
3.72700	249
3.73067	254
3.73433	258
3.73800	259
3.74167	261
3.74533	264
3.74900	267
3.75267	267
3.75633	264
3.76000	258
3.76367	252
3.76733	251
3.77100	255
3.77467	259
3.77833	261
3.78200	264
3.78567	269
3.78933	269
3.79300	264
3.79667	256
3.80033	252
3.80400	253
3.80767	256
3.81133	257
3.81500	256
3.81867	258
3.82233	258
3.82600	253
3.82967	246
3.83333	240
3.83700	233
3.84067	226
3.84433	223
3.84800	223
3.85167	227
3.85533	231
3.85900	233
3.86267	232
3.86633	229
3.87000	229
3.87367	232
3.87733	239
3.88100	245
3.88467	247
3.88833	245
3.89200	241
3.89567	236
3.89933	234
3.90300	234
3.90667	239
3.91033	245
3.91400	247
3.91767	249
3.92133	251
3.92500	250
3.92867	246
3.93233	242
3.93600	240
3.93967	237
3.94333	236
3.94700	237
3.95067	237
3.95433	235
3.95800	234
3.96167	235
3.96533	235
3.96900	231
3.97267	227
3.97633	226
3.98000	227
3.98367	228
3.98733	227
3.99100	222
3.99467	216
3.99833	211

[Chromatogram (Ch2)]
Interval(msec)	220
# of Points	1091
Start Time(min)	0.002
End Time(min)	3.998
R.Time (min)	Intensity
0.00167	1
0.00533	1
0.00900	1
0.01267	1
0.01633	1
0.02000	2
0.02367	2
0.02733	2
0.03100	2
0.03467	2
0.03833	2
0.04200	2
0.04567	2
0.04933	2
0.05300	2
0.05667	1
0.06033	1
0.06400	1
0.06767	1
0.07133	0
0.07500	-0
0.07867	-0
0.08233	-0
0.08600	-1
0.08967	-1
0.09333	-1
0.09700	-1
0.10067	-1
0.10433	-1
0.10800	-1
0.11167	-1
0.11533	-0
0.11900	0
0.12267	1
0.12633	1
0.13000	1
0.13367	1
0.13733	1
0.14100	2
0.14467	2
0.14833	2
0.15200	2
0.15567	2
0.15933	2
0.16300	2
0.16667	2
0.17033	2
0.17400	2
0.17767	2
0.18133	2
0.18500	2
0.18867	1
0.19233	1
0.19600	1
0.19967	0
0.20333	-0
0.20700	-1
0.21067	-1
0.21433	-1
0.21800	-1
0.22167	-1
0.22533	-1
0.22900	-1
0.23267	-1
0.23633	-1
0.24000	-1
0.24367	-0
0.24733	-0
0.25100	0
0.25467	-0
0.25833	-0
0.26200	-0
0.26567	-1
0.26933	-1
0.27300	-1
0.27667	-0
0.28033	-0
0.28400	-0
0.28767	-0
0.29133	-0
0.29500	-0
0.29867	-0
0.30233	-1
0.30600	-1
0.30967	-1
0.31333	-1
0.31700	-1
0.32067	-1
0.32433	-1
0.32800	-1
0.33167	-1
0.33533	-1
0.33900	-1
0.34267	-1
0.34633	-1
0.35000	-0
0.35367	-0
0.35733	0
0.36100	0
0.36467	1
0.36833	1
0.37200	1
0.37567	1
0.37933	1
0.38300	1
0.38667	1
0.39033	1
0.39400	1
0.39767	1
0.40133	2
0.40500	2
0.40867	2
0.41233	2
0.41600	2
0.41967	2
0.42333	2
0.42700	1
0.43067	1
0.43433	1
0.43800	1
0.44167	1
0.44533	1
0.44900	1
0.45267	1
0.45633	0
0.46000	-1
0.46367	-1
0.46733	-2
0.47100	-2
0.47467	-3
0.47833	-3
0.48200	-3
0.48567	-4
0.48933	-3
0.49300	-3
0.49667	-3
0.50033	-2
0.50400	-2
0.50767	-1
0.51133	-1
0.51500	-1
0.51867	-1
0.52233	-1
0.52600	-1
0.52967	-1
0.53333	-1
0.53700	-2
0.54067	-2
0.54433	-2
0.54800	-2
0.55167	-2
0.55533	-2
0.55900	-2
0.56267	-2
0.56633	-2
0.57000	-2
0.57367	-2
0.57733	-2
0.58100	-2
0.58467	-1
0.58833	-1
0.59200	-1
0.59567	-0
0.59933	0
0.60300	1
0.60667	1
0.61033	1
0.61400	2
0.61767	2
0.62133	2
0.62500	2
0.62867	2
0.63233	3
0.63600	3
0.63967	3
0.64333	3
0.64700	3
0.65067	2
0.65433	2
0.65800	1
0.66167	0
0.66533	-1
0.66900	-1
0.67267	-2
0.67633	-2
0.68000	-3
0.68367	-3
0.68733	-2
0.69100	-2
0.69467	-3
0.69833	-3
0.70200	-3
0.70567	-2
0.70933	-2
0.71300	-2
0.71667	-2
0.72033	-2
0.72400	-2
0.72767	-1
0.73133	-1
0.73500	-1
0.73867	-1
0.74233	-1
0.74600	-1
0.74967	-1
0.75333	-1
0.75700	-1
0.76067	-1
0.76433	-1
0.76800	-2
0.77167	-2
0.77533	-2
0.77900	-2
0.78267	-2
0.78633	-2
0.79000	-2
0.79367	-2
0.79733	-2
0.80100	-1
0.80467	-1
0.80833	-1
0.81200	-0
0.81567	-0
0.81933	0
0.82300	1
0.82667	1
0.83033	1
0.83400	1
0.83767	1
0.84133	1
0.84500	1
0.84867	1
0.85233	1
0.85600	2
0.85967	2
0.86333	2
0.86700	2
0.87067	3
0.87433	3
0.87800	3
0.88167	3
0.88533	3
0.88900	2
0.89267	2
0.89633	1
0.90000	1
0.90367	0
0.90733	-0
0.91100	-0
0.91467	-0
0.91833	-0
0.92200	-0
0.92567	-0
0.92933	-0
0.93300	-0
0.93667	-0
0.94033	0
0.94400	0
0.94767	1
0.95133	1
0.95500	1
0.95867	1
0.96233	1
0.96600	1
0.96967	1
0.97333	1
0.97700	1
0.98067	1
0.98433	1
0.98800	1
0.99167	0
0.99533	-0
0.99900	-1
1.00267	-1
1.00633	-2
1.01000	-2
1.01367	-3
1.01733	-3
1.02100	-3
1.02467	-3
1.02833	-3
1.03200	-2
1.03567	-2
1.03933	-2
1.04300	-2
1.04667	-1
1.05033	-1
1.05400	-1
1.05767	-1
1.06133	-1
1.06500	-0
1.06867	-0
1.07233	-0
1.07600	-0
1.07967	-0
1.08333	0
1.08700	0
1.09067	0
1.09433	0
1.09800	0
1.10167	0
1.10533	-0
1.10900	-0
1.11267	-0
1.11633	-0
1.12000	-0
1.12367	-0
1.12733	-0
1.13100	-1
1.13467	-1
1.13833	-1
1.14200	-1
1.14567	-2
1.14933	-2
1.15300	-3
1.15667	-3
1.16033	-3
1.16400	-3
1.16767	-3
1.17133	-3
1.17500	-3
1.17867	-3
1.18233	-3
1.18600	-3
1.18967	-3
1.19333	-3
1.19700	-3
1.20067	-2
1.20433	-2
1.20800	-2
1.21167	-1
1.21533	-1
1.21900	-0
1.22267	-0
1.22633	-0
1.23000	-0
1.23367	-1
1.23733	-1
1.24100	-1
1.24467	-1
1.24833	-1
1.25200	-1
1.25567	-1
1.25933	-1
1.26300	-1
1.26667	-1
1.27033	-0
1.27400	-0
1.27767	0
1.28133	1
1.28500	1
1.28867	1
1.29233	0
1.29600	0
1.29967	-0
1.30333	-1
1.30700	-1
1.31067	-2
1.31433	-3
1.31800	-3
1.32167	-3
1.32533	-4
1.32900	-4
1.33267	-4
1.33633	-4
1.34000	-4
1.34367	-4
1.34733	-3
1.35100	-3
1.35467	-2
1.35833	-2
1.36200	-1
1.36567	-1
1.36933	-0
1.37300	0
1.37667	1
1.38033	1
1.38400	1
1.38767	0
1.39133	0
1.39500	-0
1.39867	-0
1.40233	-1
1.40600	-1
1.40967	-1
1.41333	-2
1.41700	-2
1.42067	-2
1.42433	-2
1.42800	-2
1.43167	-2
1.43533	-1
1.43900	-1
1.44267	-1
1.44633	-1
1.45000	-1
1.45367	-1
1.45733	-1
1.46100	-1
1.46467	-1
1.46833	-1
1.47200	-1
1.47567	-1
1.47933	-1
1.48300	-2
1.48667	-2
1.49033	-2
1.49400	-2
1.49767	-2
1.50133	-2
1.50500	-1
1.50867	-1
1.51233	-1
1.51600	-1
1.51967	-1
1.52333	-0
1.52700	-0
1.53067	-0
1.53433	0
1.53800	-0
1.54167	0
1.54533	0
1.54900	0
1.55267	1
1.55633	1
1.56000	1
1.56367	1
1.56733	2
1.57100	2
1.57467	1
1.57833	1
1.58200	1
1.58567	0
1.58933	-0
1.59300	-1
1.59667	-2
1.60033	-3
1.60400	-5
1.60767	-6
1.61133	-8
1.61500	-10
1.61867	-12
1.62233	-14
1.62600	-17
1.62967	-20
1.63333	-24
1.63700	-28
1.64067	-31
1.64433	-36
1.64800	-40
1.65167	-43
1.65533	-47
1.65900	-51
1.66267	-55
1.66633	-60
1.67000	-65
1.67367	-70
1.67733	-75
1.68100	-80
1.68467	-85
1.68833	-89
1.69200	-93
1.69567	-97
1.69933	-100
1.70300	-102
1.70667	-104
1.71033	-105
1.71400	-107
1.71767	-107
1.72133	-108
1.72500	-108
1.72867	-109
1.73233	-109
1.73600	-109
1.73967	-108
1.74333	-108
1.74700	-109
1.75067	-109
1.75433	-110
1.75800	-111
1.76167	-112
1.76533	-113
1.76900	-114
1.77267	-115
1.77633	-116
1.78000	-116
1.78367	-117
1.78733	-118
1.79100	-118
1.79467	-118
1.79833	-118
1.80200	-118
1.80567	-118
1.80933	-117
1.81300	-117
1.81667	-117
1.82033	-117
1.82400	-117
1.82767	-117
1.83133	-117
1.83500	-117
1.83867	-117
1.84233	-118
1.84600	-119
1.84967	-119
1.85333	-119
1.85700	-118
1.86067	-118
1.86433	-118
1.86800	-119
1.87167	-119
1.87533	-119
1.87900	-118
1.88267	-117
1.88633	-117
1.89000	-116
1.89367	-116
1.89733	-116
1.90100	-116
1.90467	-116
1.90833	-116
1.91200	-116
1.91567	-115
1.91933	-115
1.92300	-114
1.92667	-114
1.93033	-114
1.93400	-114
1.93767	-113
1.94133	-114
1.94500	-114
1.94867	-114
1.95233	-114
1.95600	-114
1.95967	-114
1.96333	-113
1.96700	-113
1.97067	-113
1.97433	-113
1.97800	-112
1.98167	-112
1.98533	-112
1.98900	-112
1.99267	-111
1.99633	-111
2.00000	-110
2.00367	-109
2.00733	-108
2.01100	-108
2.01467	-108
2.01833	-108
2.02200	-108
2.02567	-108
2.02933	-109
2.03300	-109
2.03667	-109
2.04033	-109
2.04400	-108
2.04767	-107
2.05133	-106
2.05500	-106
2.05867	-105
2.06233	-105
2.06600	-104
2.06967	-104
2.07333	-103
2.07700	-103
2.08067	-103
2.08433	-103
2.08800	-103
2.09167	-103
2.09533	-103
2.09900	-103
2.10267	-102
2.10633	-102
2.11000	-101
2.11367	-101
2.11733	-101
2.12100	-100
2.12467	-100
2.12833	-100
2.13200	-100
2.13567	-99
2.13933	-99
2.14300	-98
2.14667	-98
2.15033	-98
2.15400	-99
2.15767	-99
2.16133	-99
2.16500	-99
2.16867	-99
2.17233	-99
2.17600	-98
2.17967	-97
2.18333	-97
2.18700	-96
2.19067	-95
2.19433	-95
2.19800	-95
2.20167	-95
2.20533	-94
2.20900	-94
2.21267	-93
2.21633	-93
2.22000	-92
2.22367	-92
2.22733	-92
2.23100	-92
2.23467	-92
2.23833	-92
2.24200	-91
2.24567	-91
2.24933	-90
2.25300	-90
2.25667	-89
2.26033	-89
2.26400	-89
2.26767	-89
2.27133	-90
2.27500	-90
2.27867	-90
2.28233	-89
2.28600	-89
2.28967	-88
2.29333	-88
2.29700	-87
2.30067	-86
2.30433	-86
2.30800	-85
2.31167	-84
2.31533	-83
2.31900	-83
2.32267	-82
2.32633	-81
2.33000	-81
2.33367	-81
2.33733	-81
2.34100	-81
2.34467	-80
2.34833	-79
2.35200	-78
2.35567	-77
2.35933	-76
2.36300	-75
2.36667	-74
2.37033	-72
2.37400	-70
2.37767	-67
2.38133	-64
2.38500	-60
2.38867	-56
2.39233	-52
2.39600	-48
2.39967	-43
2.40333	-39
2.40700	-35
2.41067	-31
2.41433	-29
2.41800	-26
2.42167	-24
2.42533	-22
2.42900	-21
2.43267	-19
2.43633	-17
2.44000	-14
2.44367	-12
2.44733	-9
2.45100	-7
2.45467	-5
2.45833	-4
2.46200	-2
2.46567	-1
2.46933	-0
2.47300	1
2.47667	2
2.48033	3
2.48400	4
2.48767	5
2.49133	6
2.49500	6
2.49867	7
2.50233	8
2.50600	8
2.50967	9
2.51333	9
2.51700	9
2.52067	10
2.52433	10
2.52800	10
2.53167	11
2.53533	12
2.53900	13
2.54267	13
2.54633	14
2.55000	14
2.55367	14
2.55733	14
2.56100	14
2.56467	14
2.56833	14
2.57200	15
2.57567	16
2.57933	16
2.58300	16
2.58667	16
2.59033	16
2.59400	16
2.59767	16
2.60133	16
2.60500	16
2.60867	16
2.61233	16
2.61600	16
2.61967	16
2.62333	16
2.62700	15
2.63067	15
2.63433	15
2.63800	16
2.64167	16
2.64533	17
2.64900	18
2.65267	18
2.65633	19
2.66000	19
2.66367	20
2.66733	21
2.67100	21
2.67467	21
2.67833	21
2.68200	22
2.68567	22
2.68933	23
2.69300	23
2.69667	23
2.70033	23
2.70400	23
2.70767	23
2.71133	24
2.71500	24
2.71867	24
2.72233	24
2.72600	24
2.72967	24
2.73333	24
2.73700	24
2.74067	25
2.74433	25
2.74800	25
2.75167	25
2.75533	25
2.75900	25
2.76267	24
2.76633	24
2.77000	23
2.77367	23
2.77733	23
2.78100	22
2.78467	22
2.78833	22
2.79200	22
2.79567	22
2.79933	22
2.80300	22
2.80667	23
2.81033	23
2.81400	24
2.81767	24
2.82133	25
2.82500	26
2.82867	26
2.83233	26
2.83600	26
2.83967	24
2.84333	21
2.84700	16
2.85067	8
2.85433	-2
2.85800	-16
2.86167	-34
2.86533	-57
2.86900	-83
2.87267	-113
2.87633	-148
2.88000	-186
2.88367	-228
2.88733	-272
2.89100	-319
2.89467	-368
2.89833	-419
2.90200	-472
2.90567	-525
2.90933	-579
2.91300	-632
2.91667	-686
2.92033	-738
2.92400	-790
2.92767	-842
2.93133	-895
2.93500	-953
2.93867	-1013
2.94233	-1066
2.94600	-1101
2.94967	-1110
2.95333	-1094
2.95700	-1053
2.96067	-995
2.96433	-924
2.96800	-845
2.97167	-764
2.97533	-683
2.97900	-606
2.98267	-533
2.98633	-466
2.99000	-405
2.99367	-351
2.99733	-302
3.00100	-259
3.00467	-222
3.00833	-189
3.01200	-160
3.01567	-135
3.01933	-114
3.02300	-96
3.02667	-80
3.03033	-67
3.03400	-55
3.03767	-45
3.04133	-37
3.04500	-29
3.04867	-23
3.05233	-18
3.05600	-14
3.05967	-10
3.06333	-7
3.06700	-4
3.07067	-2
3.07433	0
3.07800	2
3.08167	4
3.08533	5
3.08900	6
3.09267	7
3.09633	9
3.10000	10
3.10367	11
3.10733	11
3.11100	12
3.11467	13
3.11833	13
3.12200	14
3.12567	14
3.12933	14
3.13300	15
3.13667	15
3.14033	15
3.14400	15
3.14767	15
3.15133	15
3.15500	15
3.15867	16
3.16233	16
3.16600	16
3.16967	16
3.17333	16
3.17700	16
3.18067	17
3.18433	17
3.18800	17
3.19167	18
3.19533	18
3.19900	18
3.20267	18
3.20633	19
3.21000	19
3.21367	19
3.21733	20
3.22100	20
3.22467	21
3.22833	21
3.23200	22
3.23567	22
3.23933	23
3.24300	23
3.24667	24
3.25033	24
3.25400	25
3.25767	25
3.26133	25
3.26500	26
3.26867	26
3.27233	26
3.27600	26
3.27967	26
3.28333	26
3.28700	25
3.29067	25
3.29433	25
3.29800	25
3.30167	24
3.30533	24
3.30900	24
3.31267	24
3.31633	24
3.32000	24
3.32367	24
3.32733	24
3.33100	25
3.33467	25
3.33833	25
3.34200	25
3.34567	25
3.34933	25
3.35300	25
3.35667	25
3.36033	26
3.36400	26
3.36767	26
3.37133	26
3.37500	26
3.37867	26
3.38233	26
3.38600	26
3.38967	26
3.39333	26
3.39700	26
3.40067	26
3.40433	26
3.40800	27
3.41167	27
3.41533	27
3.41900	27
3.42267	27
3.42633	27
3.43000	27
3.43367	27
3.43733	26
3.44100	26
3.44467	26
3.44833	26
3.45200	26
3.45567	26
3.45933	26
3.46300	26
3.46667	26
3.47033	26
3.47400	25
3.47767	25
3.48133	25
3.48500	25
3.48867	24
3.49233	24
3.49600	24
3.49967	24
3.50333	24
3.50700	23
3.51067	23
3.51433	23
3.51800	23
3.52167	23
3.52533	23
3.52900	23
3.53267	23
3.53633	24
3.54000	24
3.54367	24
3.54733	25
3.55100	25
3.55467	25
3.55833	26
3.56200	26
3.56567	26
3.56933	27
3.57300	27
3.57667	28
3.58033	28
3.58400	28
3.58767	28
3.59133	29
3.59500	29
3.59867	29
3.60233	30
3.60600	30
3.60967	30
3.61333	30
3.61700	30
3.62067	30
3.62433	30
3.62800	30
3.63167	29
3.63533	29
3.63900	29
3.64267	29
3.64633	29
3.65000	29
3.65367	29
3.65733	29
3.66100	29
3.66467	29
3.66833	29
3.67200	28
3.67567	28
3.67933	28
3.68300	28
3.68667	28
3.69033	28
3.69400	28
3.69767	28
3.70133	28
3.70500	28
3.70867	28
3.71233	28
3.71600	28
3.71967	28
3.72333	28
3.72700	27
3.73067	27
3.73433	26
3.73800	26
3.74167	26
3.74533	25
3.74900	25
3.75267	25
3.75633	25
3.76000	25
3.76367	26
3.76733	26
3.77100	26
3.77467	26
3.77833	26
3.78200	26
3.78567	25
3.78933	25
3.79300	25
3.79667	25
3.80033	25
3.80400	24
3.80767	24
3.81133	24
3.81500	24
3.81867	25
3.82233	25
3.82600	25
3.82967	25
3.83333	25
3.83700	25
3.84067	25
3.84433	26
3.84800	26
3.85167	26
3.85533	26
3.85900	26
3.86267	26
3.86633	26
3.87000	26
3.87367	26
3.87733	26
3.88100	26
3.88467	26
3.88833	26
3.89200	25
3.89567	25
3.89933	25
3.90300	25
3.90667	25
3.91033	25
3.91400	25
3.91767	25
3.92133	25
3.92500	25
3.92867	25
3.93233	25
3.93600	25
3.93967	25
3.94333	25
3.94700	26
3.95067	26
3.95433	26
3.95800	26
3.96167	26
3.96533	26
3.96900	26
3.97267	26
3.97633	26
3.98000	26
3.98367	26
3.98733	26
3.99100	26
3.99467	26
3.99833	26

[Chromatogram (Ch3)]
Interval(msec)	220
# of Points	1091
Start Time(min)	0.002
End Time(min)	3.998
R.Time (min)	Intensity
0.00167	-1
0.00533	-1
0.00900	0
0.01267	1
0.01633	1
0.02000	2
0.02367	2
0.02733	0
0.03100	0
0.03467	-0
0.03833	0
0.04200	2
0.04567	2
0.04933	1
0.05300	2
0.05667	4
0.06033	6
0.06400	5
0.06767	3
0.07133	3
0.07500	3
0.07867	4
0.08233	5
0.08600	4
0.08967	4
0.09333	5
0.09700	6
0.10067	5
0.10433	5
0.10800	4
0.11167	7
0.11533	8
0.11900	9
0.12267	9
0.12633	9
0.13000	8
0.13367	7
0.13733	6
0.14100	6
0.14467	6
0.14833	6
0.15200	8
0.15567	7
0.15933	4
0.16300	1
0.16667	-0
0.17033	1
0.17400	3
0.17767	5
0.18133	5
0.18500	3
0.18867	1
0.19233	1
0.19600	3
0.19967	5
0.20333	7
0.20700	5
0.21067	5
0.21433	4
0.21800	1
0.22167	4
0.22533	6
0.22900	6
0.23267	8
0.23633	9
0.24000	9
0.24367	9
0.24733	6
0.25100	5
0.25467	5
0.25833	5
0.26200	7
0.26567	7
0.26933	6
0.27300	6
0.27667	7
0.28033	6
0.28400	8
0.28767	7
0.29133	6
0.29500	6
0.29867	4
0.30233	0
0.30600	0
0.30967	2
0.31333	4
0.31700	6
0.32067	7
0.32433	9
0.32800	10
0.33167	9
0.33533	6
0.33900	4
0.34267	1
0.34633	1
0.35000	2
0.35367	3
0.35733	2
0.36100	1
0.36467	2
0.36833	6
0.37200	7
0.37567	7
0.37933	6
0.38300	3
0.38667	2
0.39033	0
0.39400	-0
0.39767	1
0.40133	2
0.40500	1
0.40867	0
0.41233	0
0.41600	0
0.41967	0
0.42333	0
0.42700	-1
0.43067	-2
0.43433	-1
0.43800	-0
0.44167	1
0.44533	2
0.44900	3
0.45267	3
0.45633	2
0.46000	1
0.46367	1
0.46733	1
0.47100	2
0.47467	3
0.47833	3
0.48200	5
0.48567	7
0.48933	8
0.49300	9
0.49667	8
0.50033	10
0.50400	13
0.50767	12
0.51133	8
0.51500	5
0.51867	5
0.52233	6
0.52600	6
0.52967	6
0.53333	4
0.53700	3
0.54067	1
0.54433	1
0.54800	4
0.55167	5
0.55533	6
0.55900	7
0.56267	7
0.56633	8
0.57000	6
0.57367	5
0.57733	4
0.58100	2
0.58467	2
0.58833	3
0.59200	5
0.59567	6
0.59933	8
0.60300	9
0.60667	9
0.61033	9
0.61400	10
0.61767	9
0.62133	8
0.62500	10
0.62867	12
0.63233	12
0.63600	9
0.63967	8
0.64333	6
0.64700	5
0.65067	4
0.65433	4
0.65800	4
0.66167	4
0.66533	2
0.66900	3
0.67267	3
0.67633	4
0.68000	4
0.68367	3
0.68733	3
0.69100	2
0.69467	2
0.69833	2
0.70200	3
0.70567	5
0.70933	6
0.71300	6
0.71667	7
0.72033	6
0.72400	4
0.72767	4
0.73133	6
0.73500	6
0.73867	6
0.74233	7
0.74600	6
0.74967	4
0.75333	5
0.75700	6
0.76067	7
0.76433	6
0.76800	6
0.77167	6
0.77533	7
0.77900	10
0.78267	11
0.78633	11
0.79000	10
0.79367	10
0.79733	9
0.80100	8
0.80467	9
0.80833	9
0.81200	9
0.81567	10
0.81933	10
0.82300	9
0.82667	8
0.83033	7
0.83400	8
0.83767	8
0.84133	10
0.84500	9
0.84867	7
0.85233	4
0.85600	5
0.85967	6
0.86333	6
0.86700	5
0.87067	5
0.87433	6
0.87800	7
0.88167	7
0.88533	8
0.88900	9
0.89267	10
0.89633	11
0.90000	13
0.90367	15
0.90733	15
0.91100	13
0.91467	12
0.91833	14
0.92200	15
0.92567	15
0.92933	14
0.93300	16
0.93667	17
0.94033	15
0.94400	14
0.94767	12
0.95133	12
0.95500	14
0.95867	16
0.96233	16
0.96600	16
0.96967	16
0.97333	14
0.97700	12
0.98067	14
0.98433	16
0.98800	16
0.99167	16
0.99533	17
0.99900	18
1.00267	18
1.00633	19
1.01000	17
1.01367	13
1.01733	10
1.02100	9
1.02467	10
1.02833	10
1.03200	10
1.03567	13
1.03933	15
1.04300	15
1.04667	14
1.05033	15
1.05400	14
1.05767	16
1.06133	15
1.06500	13
1.06867	12
1.07233	13
1.07600	12
1.07967	13
1.08333	16
1.08700	18
1.09067	19
1.09433	20
1.09800	20
1.10167	21
1.10533	21
1.10900	20
1.11267	17
1.11633	17
1.12000	17
1.12367	19
1.12733	20
1.13100	20
1.13467	20
1.13833	21
1.14200	23
1.14567	24
1.14933	22
1.15300	22
1.15667	22
1.16033	25
1.16400	25
1.16767	24
1.17133	25
1.17500	25
1.17867	24
1.18233	23
1.18600	22
1.18967	21
1.19333	22
1.19700	23
1.20067	22
1.20433	20
1.20800	18
1.21167	18
1.21533	19
1.21900	18
1.22267	18
1.22633	20
1.23000	21
1.23367	22
1.23733	24
1.24100	26
1.24467	27
1.24833	28
1.25200	27
1.25567	26
1.25933	26
1.26300	27
1.26667	26
1.27033	24
1.27400	24
1.27767	24
1.28133	24
1.28500	23
1.28867	23
1.29233	24
1.29600	25
1.29967	25
1.30333	23
1.30700	21
1.31067	22
1.31433	25
1.31800	27
1.32167	27
1.32533	27
1.32900	26
1.33267	27
1.33633	29
1.34000	31
1.34367	31
1.34733	30
1.35100	30
1.35467	28
1.35833	29
1.36200	30
1.36567	29
1.36933	29
1.37300	30
1.37667	31
1.38033	30
1.38400	29
1.38767	27
1.39133	27
1.39500	29
1.39867	32
1.40233	30
1.40600	26
1.40967	25
1.41333	30
1.41700	35
1.42067	36
1.42433	36
1.42800	33
1.43167	29
1.43533	26
1.43900	25
1.44267	27
1.44633	28
1.45000	29
1.45367	30
1.45733	29
1.46100	29
1.46467	30
1.46833	31
1.47200	33
1.47567	32
1.47933	30
1.48300	28
1.48667	28
1.49033	27
1.49400	27
1.49767	24
1.50133	22
1.50500	22
1.50867	25
1.51233	29
1.51600	30
1.51967	28
1.52333	28
1.52700	28
1.53067	26
1.53433	25
1.53800	25
1.54167	26
1.54533	26
1.54900	23
1.55267	22
1.55633	21
1.56000	21
1.56367	21
1.56733	22
1.57100	23
1.57467	23
1.57833	24
1.58200	23
1.58567	20
1.58933	19
1.59300	21
1.59667	21
1.60033	21
1.60400	22
1.60767	23
1.61133	25
1.61500	27
1.61867	29
1.62233	29
1.62600	27
1.62967	26
1.63333	28
1.63700	29
1.64067	29
1.64433	31
1.64800	31
1.65167	31
1.65533	30
1.65900	30
1.66267	33
1.66633	33
1.67000	34
1.67367	35
1.67733	35
1.68100	36
1.68467	38
1.68833	38
1.69200	40
1.69567	40
1.69933	38
1.70300	38
1.70667	38
1.71033	40
1.71400	41
1.71767	40
1.72133	41
1.72500	41
1.72867	40
1.73233	43
1.73600	44
1.73967	44
1.74333	44
1.74700	43
1.75067	42
1.75433	40
1.75800	39
1.76167	37
1.76533	38
1.76900	43
1.77267	43
1.77633	43
1.78000	43
1.78367	44
1.78733	48
1.79100	49
1.79467	49
1.79833	49
1.80200	48
1.80567	47
1.80933	48
1.81300	50
1.81667	51
1.82033	51
1.82400	52
1.82767	53
1.83133	52
1.83500	52
1.83867	52
1.84233	53
1.84600	51
1.84967	52
1.85333	53
1.85700	53
1.86067	54
1.86433	56
1.86800	58
1.87167	57
1.87533	54
1.87900	54
1.88267	53
1.88633	52
1.89000	50
1.89367	51
1.89733	54
1.90100	55
1.90467	55
1.90833	56
1.91200	59
1.91567	62
1.91933	63
1.92300	62
1.92667	63
1.93033	63
1.93400	61
1.93767	61
1.94133	61
1.94500	61
1.94867	66
1.95233	70
1.95600	72
1.95967	72
1.96333	72
1.96700	74
1.97067	78
1.97433	80
1.97800	79
1.98167	77
1.98533	77
1.98900	78
1.99267	78
1.99633	78
2.00000	79
2.00367	80
2.00733	81
2.01100	84
2.01467	85
2.01833	85
2.02200	82
2.02567	81
2.02933	82
2.03300	80
2.03667	81
2.04033	81
2.04400	82
2.04767	83
2.05133	84
2.05500	87
2.05867	89
2.06233	90
2.06600	92
2.06967	92
2.07333	92
2.07700	92
2.08067	91
2.08433	90
2.08800	89
2.09167	90
2.09533	94
2.09900	95
2.10267	97
2.10633	99
2.11000	99
2.11367	99
2.11733	97
2.12100	96
2.12467	97
2.12833	100
2.13200	101
2.13567	102
2.13933	103
2.14300	104
2.14667	105
2.15033	106
2.15400	108
2.15767	112
2.16133	115
2.16500	117
2.16867	117
2.17233	118
2.17600	118
2.17967	117
2.18333	115
2.18700	118
2.19067	122
2.19433	124
2.19800	124
2.20167	125
2.20533	126
2.20900	125
2.21267	123
2.21633	123
2.22000	125
2.22367	128
2.22733	129
2.23100	131
2.23467	132
2.23833	132
2.24200	131
2.24567	135
2.24933	140
2.25300	143
2.25667	145
2.26033	146
2.26400	148
2.26767	150
2.27133	149
2.27500	149
2.27867	149
2.28233	150
2.28600	152
2.28967	153
2.29333	153
2.29700	154
2.30067	156
2.30433	156
2.30800	158
2.31167	160
2.31533	163
2.31900	166
2.32267	167
2.32633	170
2.33000	173
2.33367	174
2.33733	174
2.34100	174
2.34467	175
2.34833	175
2.35200	175
2.35567	177
2.35933	180
2.36300	181
2.36667	182
2.37033	184
2.37400	186
2.37767	188
2.38133	188
2.38500	190
2.38867	190
2.39233	191
2.39600	195
2.39967	199
2.40333	202
2.40700	204
2.41067	205
2.41433	205
2.41800	205
2.42167	206
2.42533	208
2.42900	210
2.43267	212
2.43633	214
2.44000	218
2.44367	249
2.44733	332
2.45100	422
2.45467	496
2.45833	536
2.46200	526
2.46567	490
2.46933	451
2.47300	418
2.47667	398
2.48033	383
2.48400	370
2.48767	353
2.49133	331
2.49500	304
2.49867	278
2.50233	257
2.50600	240
2.50967	227
2.51333	218
2.51700	211
2.52067	209
2.52433	211
2.52800	218
2.53167	224
2.53533	232
2.53900	241
2.54267	246
2.54633	246
2.55000	243
2.55367	237
2.55733	226
2.56100	214
2.56467	201
2.56833	188
2.57200	176
2.57567	166
2.57933	160
2.58300	158
2.58667	158
2.59033	157
2.59400	153
2.59767	147
2.60133	139
2.60500	130
2.60867	116
2.61233	97
2.61600	77
2.61967	58
2.62333	41
2.62700	27
2.63067	15
2.63433	7
2.63800	3
2.64167	3
2.64533	6
2.64900	13
2.65267	22
2.65633	32
2.66000	45
2.66367	58
2.66733	71
2.67100	80
2.67467	88
2.67833	96
2.68200	104
2.68567	110
2.68933	114
2.69300	117
2.69667	117
2.70033	119
2.70400	121
2.70767	120
2.71133	120
2.71500	118
2.71867	116
2.72233	115
2.72600	115
2.72967	116
2.73333	117
2.73700	117
2.74067	118
2.74433	115
2.74800	112
2.75167	110
2.75533	110
2.75900	110
2.76267	110
2.76633	111
2.77000	112
2.77367	115
2.77733	116
2.78100	116
2.78467	117
2.78833	117
2.79200	120
2.79567	123
2.79933	124
2.80300	124
2.80667	125
2.81033	129
2.81400	134
2.81767	141
2.82133	158
2.82500	196
2.82867	272
2.83233	405
2.83600	619
2.83967	935
2.84333	1356
2.84700	1869
2.85067	2446
2.85433	3049
2.85800	3629
2.86167	4135
2.86533	4531
2.86900	4796
2.87267	4912
2.87633	4887
2.88000	4742
2.88367	4504
2.88733	4203
2.89100	3865
2.89467	3515
2.89833	3168
2.90200	2833
2.90567	2518
2.90933	2228
2.91300	1966
2.91667	1729
2.92033	1518
2.92400	1332
2.92767	1170
2.93133	1031
2.93500	909
2.93867	802
2.94233	710
2.94600	631
2.94967	563
2.95333	505
2.95700	453
2.96067	407
2.96433	368
2.96800	337
2.97167	310
2.97533	286
2.97900	266
2.98267	249
2.98633	234
2.99000	220
2.99367	208
2.99733	196
3.00100	187
3.00467	179
3.00833	170
3.01200	164
3.01567	160
3.01933	156
3.02300	153
3.02667	148
3.03033	144
3.03400	142
3.03767	136
3.04133	131
3.04500	126
3.04867	124
3.05233	122
3.05600	121
3.05967	119
3.06333	115
3.06700	113
3.07067	111
3.07433	107
3.07800	102
3.08167	99
3.08533	95
3.08900	92
3.09267	90
3.09633	90
3.10000	90
3.10367	88
3.10733	88
3.11100	86
3.11467	84
3.11833	82
3.12200	84
3.12567	86
3.12933	84
3.13300	82
3.13667	79
3.14033	79
3.14400	78
3.14767	74
3.15133	71
3.15500	72
3.15867	72
3.16233	71
3.16600	71
3.16967	71
3.17333	69
3.17700	65
3.18067	63
3.18433	63
3.18800	63
3.19167	63
3.19533	63
3.19900	65
3.20267	67
3.20633	70
3.21000	72
3.21367	73
3.21733	71
3.22100	70
3.22467	71
3.22833	71
3.23200	72
3.23567	72
3.23933	72
3.24300	70
3.24667	70
3.25033	68
3.25400	67
3.25767	67
3.26133	66
3.26500	66
3.26867	63
3.27233	63
3.27600	64
3.27967	65
3.28333	64
3.28700	62
3.29067	61
3.29433	61
3.29800	61
3.30167	61
3.30533	61
3.30900	60
3.31267	58
3.31633	57
3.32000	59
3.32367	57
3.32733	56
3.33100	58
3.33467	60
3.33833	60
3.34200	60
3.34567	59
3.34933	58
3.35300	59
3.35667	61
3.36033	59
3.36400	57
3.36767	53
3.37133	50
3.37500	47
3.37867	44
3.38233	46
3.38600	47
3.38967	47
3.39333	47
3.39700	50
3.40067	51
3.40433	50
3.40800	48
3.41167	46
3.41533	45
3.41900	46
3.42267	46
3.42633	46
3.43000	47
3.43367	47
3.43733	46
3.44100	46
3.44467	46
3.44833	48
3.45200	50
3.45567	50
3.45933	50
3.46300	49
3.46667	48
3.47033	47
3.47400	46
3.47767	47
3.48133	46
3.48500	44
3.48867	45
3.49233	48
3.49600	50
3.49967	52
3.50333	53
3.50700	54
3.51067	54
3.51433	52
3.51800	52
3.52167	53
3.52533	52
3.52900	51
3.53267	50
3.53633	50
3.54000	49
3.54367	51
3.54733	52
3.55100	53
3.55467	55
3.55833	56
3.56200	57
3.56567	59
3.56933	60
3.57300	58
3.57667	59
3.58033	60
3.58400	60
3.58767	59
3.59133	60
3.59500	63
3.59867	67
3.60233	67
3.60600	68
3.60967	69
3.61333	70
3.61700	70
3.62067	71
3.62433	72
3.62800	74
3.63167	75
3.63533	74
3.63900	73
3.64267	72
3.64633	71
3.65000	69
3.65367	68
3.65733	68
3.66100	70
3.66467	72
3.66833	73
3.67200	72
3.67567	72
3.67933	72
3.68300	74
3.68667	73
3.69033	73
3.69400	74
3.69767	76
3.70133	78
3.70500	75
3.70867	44
3.71233	6
3.71600	-16
3.71967	-23
3.72333	-24
3.72700	-15
3.73067	-0
3.73433	17
3.73800	37
3.74167	57
3.74533	74
3.74900	90
3.75267	108
3.75633	127
3.76000	148
3.76367	168
3.76733	186
3.77100	202
3.77467	215
3.77833	227
3.78200	237
3.78567	248
3.78933	259
3.79300	271
3.79667	280
3.80033	292
3.80400	302
3.80767	310
3.81133	317
3.81500	322
3.81867	327
3.82233	330
3.82600	333
3.82967	337
3.83333	342
3.83700	344
3.84067	343
3.84433	343
3.84800	347
3.85167	349
3.85533	350
3.85900	350
3.86267	350
3.86633	352
3.87000	354
3.87367	355
3.87733	354
3.88100	352
3.88467	350
3.88833	348
3.89200	346
3.89567	345
3.89933	344
3.90300	345
3.90667	345
3.91033	345
3.91400	344
3.91767	344
3.92133	343
3.92500	343
3.92867	345
3.93233	345
3.93600	345
3.93967	346
3.94333	347
3.94700	347
3.95067	346
3.95433	344
3.95800	341
3.96167	339
3.96533	338
3.96900	336
3.97267	336
3.97633	340
3.98000	341
3.98367	341
3.98733	342
3.99100	342
3.99467	342
3.99833	342

[Status Trace (Column Oven Temperature)]
Interval(msec)	1000
# of Points	240
Start Time(min)	0.001
End Time(min)	3.985
Intensity Units	
Intensity Multiplier	1
R.Time (min)	Intensity
0.00140	35.04
0.01807	35.03
0.03473	35.02
0.05140	35.01
0.06807	35.02
0.08473	35.03
0.10140	35.04
0.11807	35.03
0.13473	35.03
0.15140	35.03
0.16807	35.02
0.18473	35.02
0.20140	35.02
0.21807	35.01
0.23473	35.01
0.25140	35.01
0.26807	35.01
0.28473	35.01
0.30140	35.02
0.31807	35.02
0.33473	35.01
0.35140	35.00
0.36807	35.00
0.38473	34.99
0.40140	34.98
0.41807	34.98
0.43473	34.97
0.45140	34.97
0.46807	34.99
0.48473	35.01
0.50140	35.01
0.51807	35.01
0.53473	35.02
0.55140	35.01
0.56807	35.02
0.58473	35.01
0.60140	35.00
0.61807	34.99
0.63473	34.98
0.65140	34.99
0.66807	35.00
0.68473	35.00
0.70140	35.00
0.71807	35.00
0.73473	35.00
0.75140	35.00
0.76807	35.00
0.78473	35.01
0.80140	35.00
0.81807	34.99
0.83473	34.99
0.85140	34.97
0.86807	34.97
0.88473	34.97
0.90140	34.98
0.91807	34.98
0.93473	34.97
0.95140	34.97
0.96807	34.97
0.98473	34.97
1.00140	34.98
1.01807	34.99
1.03473	34.99
1.05140	34.99
1.06807	34.98
1.08473	34.97
1.10140	34.97
1.11807	34.97
1.13473	34.98
1.15140	35.00
1.16807	35.01
1.18473	35.01
1.20140	35.01
1.21807	35.00
1.23473	35.00
1.25140	34.99
1.26807	34.98
1.28473	34.97
1.30140	34.98
1.31807	35.01
1.33473	35.01
1.35140	35.01
1.36807	35.00
1.38473	34.99
1.40140	35.00
1.41807	35.00
1.43473	35.00
1.45140	35.00
1.46807	35.00
1.48473	35.01
1.50140	35.00
1.51807	35.00
1.53473	35.00
1.55140	34.98
1.56807	34.97
1.58473	34.98
1.60140	35.01
1.61807	35.11
1.63473	35.27
1.65140	35.50
1.66807	35.81
1.68473	36.19
1.70140	36.55
1.71807	36.87
1.73473	37.18
1.75140	37.51
1.76807	37.85
1.78473	38.19
1.80140	38.52
1.81807	38.85
1.83473	39.19
1.85140	39.51
1.86807	39.86
1.88473	40.16
1.90140	40.51
1.91807	40.82
1.93473	41.15
1.95140	41.48
1.96807	41.80
1.98473	42.13
2.00140	42.43
2.01807	42.76
2.03473	43.10
2.05140	43.42
2.06807	43.73
2.08473	44.07
2.10140	44.39
2.11807	44.73
2.13473	45.04
2.15140	45.38
2.16807	45.74
2.18473	46.04
2.20140	46.38
2.21807	46.71
2.23473	47.05
2.25140	47.37
2.26807	47.70
2.28473	48.02
2.30140	48.34
2.31807	48.67
2.33473	49.03
2.35140	49.30
2.36807	49.55
2.38473	49.67
2.40140	49.66
2.41807	49.68
2.43473	49.69
2.45140	49.69
2.46807	49.71
2.48473	49.72
2.50140	49.71
2.51807	49.74
2.53473	49.73
2.55140	49.76
2.56807	49.77
2.58473	49.79
2.60140	49.80
2.61807	49.83
2.63473	49.84
2.65140	49.84
2.66807	49.84
2.68473	49.84
2.70140	49.85
2.71807	49.86
2.73473	49.85
2.75140	49.85
2.76807	49.88
2.78473	49.90
2.80140	49.91
2.81807	49.90
2.83473	49.89
2.85140	49.89
2.86807	49.89
2.88473	49.89
2.90140	49.90
2.91807	49.91
2.93473	49.92
2.95140	49.93
2.96807	49.94
2.98473	49.95
3.00140	49.95
3.01807	49.96
3.03473	49.96
3.05140	49.99
3.06807	50.00
3.08473	50.01
3.10140	50.02
3.11807	50.03
3.13473	50.06
3.15140	50.07
3.16807	50.09
3.18473	50.09
3.20140	50.10
3.21807	50.10
3.23473	50.09
3.25140	50.07
3.26807	50.06
3.28473	50.06
3.30140	50.06
3.31807	50.07
3.33473	50.07
3.35140	50.07
3.36807	50.07
3.38473	50.06
3.40140	50.06
3.41807	50.05
3.43473	50.06
3.45140	50.06
3.46807	50.06
3.48473	50.08
3.50140	50.10
3.51807	50.11
3.53473	50.11
3.55140	50.10
3.56807	50.10
3.58473	50.08
3.60140	50.06
3.61807	50.05
3.63473	50.03
3.65140	50.02
3.66807	50.01
3.68473	50.01
3.70140	50.00
3.71807	50.00
3.73473	50.01
3.75140	50.02
3.76807	50.02
3.78473	50.03
3.80140	50.04
3.81807	50.03
3.83473	50.04
3.85140	50.03
3.86807	50.04
3.88473	50.04
3.90140	50.04
3.91807	50.05
3.93473	50.05
3.95140	50.06
3.96807	50.05
3.98473	50.04

[Status Trace (Injection Unit Temperature)]
Interval(msec)	1000
# of Points	240
Start Time(min)	0.001
End Time(min)	3.985
Intensity Units	
Intensity Multiplier	1
R.Time (min)	Intensity
0.00140	99.98
0.01807	99.98
0.03473	99.98
0.05140	99.98
0.06807	99.98
0.08473	99.98
0.10140	99.98
0.11807	99.98
0.13473	99.98
0.15140	99.98
0.16807	99.98
0.18473	99.98
0.20140	99.98
0.21807	99.98
0.23473	99.99
0.25140	99.98
0.26807	99.98
0.28473	99.98
0.30140	99.99
0.31807	99.98
0.33473	99.99
0.35140	99.98
0.36807	99.99
0.38473	99.99
0.40140	99.98
0.41807	99.98
0.43473	99.99
0.45140	99.99
0.46807	99.98
0.48473	99.98
0.50140	99.99
0.51807	99.98
0.53473	99.98
0.55140	99.98
0.56807	99.99
0.58473	99.98
0.60140	99.99
0.61807	99.99
0.63473	99.98
0.65140	99.99
0.66807	99.98
0.68473	99.98
0.70140	99.98
0.71807	99.99
0.73473	99.99
0.75140	99.99
0.76807	99.98
0.78473	99.98
0.80140	99.98
0.81807	99.98
0.83473	99.99
0.85140	99.98
0.86807	99.99
0.88473	99.99
0.90140	99.98
0.91807	99.99
0.93473	99.99
0.95140	99.98
0.96807	99.98
0.98473	99.98
1.00140	99.98
1.01807	99.98
1.03473	99.98
1.05140	99.98
1.06807	99.98
1.08473	99.98
1.10140	99.98
1.11807	99.98
1.13473	99.98
1.15140	99.98
1.16807	99.98
1.18473	99.98
1.20140	99.98
1.21807	99.98
1.23473	99.98
1.25140	99.98
1.26807	99.98
1.28473	99.97
1.30140	99.98
1.31807	99.98
1.33473	99.98
1.35140	99.98
1.36807	99.98
1.38473	99.97
1.40140	99.97
1.41807	99.98
1.43473	99.98
1.45140	99.98
1.46807	99.98
1.48473	99.98
1.50140	99.98
1.51807	99.98
1.53473	99.98
1.55140	99.98
1.56807	99.98
1.58473	99.98
1.60140	99.99
1.61807	99.99
1.63473	99.99
1.65140	99.98
1.66807	99.98
1.68473	99.98
1.70140	99.98
1.71807	99.98
1.73473	99.99
1.75140	99.98
1.76807	99.98
1.78473	99.99
1.80140	99.98
1.81807	99.98
1.83473	99.98
1.85140	99.98
1.86807	99.98
1.88473	99.98
1.90140	99.98
1.91807	99.97
1.93473	99.98
1.95140	99.98
1.96807	99.98
1.98473	99.98
2.00140	99.98
2.01807	99.98
2.03473	99.98
2.05140	99.97
2.06807	99.97
2.08473	99.97
2.10140	99.97
2.11807	99.98
2.13473	99.97
2.15140	99.97
2.16807	99.97
2.18473	99.97
2.20140	99.97
2.21807	99.97
2.23473	99.96
2.25140	99.97
2.26807	99.97
2.28473	99.96
2.30140	99.97
2.31807	99.97
2.33473	99.97
2.35140	99.97
2.36807	99.97
2.38473	99.97
2.40140	99.97
2.41807	99.97
2.43473	99.97
2.45140	99.97
2.46807	99.97
2.48473	99.97
2.50140	99.97
2.51807	99.97
2.53473	99.97
2.55140	99.97
2.56807	99.97
2.58473	99.97
2.60140	99.98
2.61807	99.98
2.63473	99.97
2.65140	99.97
2.66807	99.97
2.68473	99.97
2.70140	99.98
2.71807	99.98
2.73473	99.98
2.75140	99.98
2.76807	99.99
2.78473	99.99
2.80140	99.99
2.81807	99.99
2.83473	99.99
2.85140	99.99
2.86807	100.00
2.88473	100.00
2.90140	100.00
2.91807	100.00
2.93473	100.00
2.95140	100.00
2.96807	100.01
2.98473	100.01
3.00140	100.01
3.01807	100.01
3.03473	100.01
3.05140	100.01
3.06807	100.01
3.08473	100.01
3.10140	100.02
3.11807	100.02
3.13473	100.01
3.15140	100.02
3.16807	100.02
3.18473	100.02
3.20140	100.02
3.21807	100.02
3.23473	100.02
3.25140	100.02
3.26807	100.02
3.28473	100.02
3.30140	100.02
3.31807	100.03
3.33473	100.02
3.35140	100.03
3.36807	100.03
3.38473	100.03
3.40140	100.03
3.41807	100.02
3.43473	100.02
3.45140	100.03
3.46807	100.03
3.48473	100.03
3.50140	100.02
3.51807	100.03
3.53473	100.02
3.55140	100.02
3.56807	100.02
3.58473	100.02
3.60140	100.02
3.61807	100.02
3.63473	100.02
3.65140	100.02
3.66807	100.02
3.68473	100.02
3.70140	100.02
3.71807	100.02
3.73473	100.02
3.75140	100.03
3.76807	100.03
3.78473	100.02
3.80140	100.03
3.81807	100.03
3.83473	100.03
3.85140	100.03
3.86807	100.03
3.88473	100.03
3.90140	100.03
3.91807	100.03
3.93473	100.03
3.95140	100.03
3.96807	100.03
3.98473	100.04

[Status Trace (Carrier Gas Pressure)]
Interval(msec)	1000
# of Points	240
Start Time(min)	0.001
End Time(min)	3.985
Intensity Units	
Intensity Multiplier	1
R.Time (min)	Intensity
0.00140	58.00
0.01807	56.60
0.03473	55.97
0.05140	58.32
0.06807	59.90
0.08473	58.46
0.10140	57.97
0.11807	58.00
0.13473	58.01
0.15140	58.01
0.16807	58.00
0.18473	58.00
0.20140	58.00
0.21807	58.00
0.23473	58.00
0.25140	58.00
0.26807	58.00
0.28473	58.00
0.30140	58.00
0.31807	58.00
0.33473	58.00
0.35140	58.00
0.36807	58.00
0.38473	58.00
0.40140	58.00
0.41807	58.00
0.43473	58.00
0.45140	58.00
0.46807	58.00
0.48473	58.00
0.50140	58.00
0.51807	58.00
0.53473	58.00
0.55140	58.00
0.56807	58.00
0.58473	58.00
0.60140	58.00
0.61807	58.00
0.63473	58.00
0.65140	58.00
0.66807	58.00
0.68473	58.00
0.70140	58.00
0.71807	58.00
0.73473	58.00
0.75140	58.00
0.76807	58.00
0.78473	58.00
0.80140	58.00
0.81807	58.00
0.83473	58.00
0.85140	58.00
0.86807	58.00
0.88473	58.00
0.90140	58.00
0.91807	58.00
0.93473	58.00
0.95140	58.00
0.96807	58.00
0.98473	58.00
1.00140	58.00
1.01807	58.00
1.03473	58.00
1.05140	58.00
1.06807	58.00
1.08473	58.00
1.10140	58.00
1.11807	58.00
1.13473	58.00
1.15140	58.00
1.16807	58.00
1.18473	58.00
1.20140	58.00
1.21807	58.00
1.23473	58.00
1.25140	58.00
1.26807	58.00
1.28473	58.00
1.30140	58.00
1.31807	58.00
1.33473	58.00
1.35140	58.00
1.36807	58.00
1.38473	58.00
1.40140	58.00
1.41807	58.00
1.43473	58.00
1.45140	58.00
1.46807	58.00
1.48473	58.00
1.50140	58.00
1.51807	58.00
1.53473	58.00
1.55140	58.00
1.56807	58.00
1.58473	58.00
1.60140	58.00
1.61807	58.00
1.63473	58.01
1.65140	58.00
1.66807	58.01
1.68473	58.01
1.70140	58.00
1.71807	58.00
1.73473	58.00
1.75140	58.00
1.76807	58.00
1.78473	58.00
1.80140	58.00
1.81807	58.00
1.83473	58.00
1.85140	58.00
1.86807	58.00
1.88473	58.00
1.90140	58.00
1.91807	58.00
1.93473	58.00
1.95140	58.00
1.96807	58.00
1.98473	58.00
2.00140	58.00
2.01807	58.00
2.03473	58.00
2.05140	58.00
2.06807	58.00
2.08473	58.00
2.10140	58.00
2.11807	58.00
2.13473	58.00
2.15140	58.00
2.16807	58.00
2.18473	58.00
2.20140	58.00
2.21807	58.00
2.23473	58.00
2.25140	58.00
2.26807	58.00
2.28473	58.00
2.30140	58.00
2.31807	58.00
2.33473	58.00
2.35140	58.00
2.36807	58.00
2.38473	57.99
2.40140	57.99
2.41807	58.00
2.43473	58.00
2.45140	58.00
2.46807	58.00
2.48473	58.00
2.50140	58.00
2.51807	57.99
2.53473	57.99
2.55140	58.00
2.56807	58.00
2.58473	58.00
2.60140	58.00
2.61807	58.00
2.63473	58.00
2.65140	58.00
2.66807	58.00
2.68473	58.00
2.70140	58.00
2.71807	58.00
2.73473	58.00
2.75140	58.00
2.76807	58.00
2.78473	58.00
2.80140	58.00
2.81807	58.00
2.83473	58.00
2.85140	58.00
2.86807	58.00
2.88473	58.00
2.90140	58.00
2.91807	58.00
2.93473	58.00
2.95140	58.00
2.96807	58.00
2.98473	58.00
3.00140	58.00
3.01807	58.00
3.03473	58.00
3.05140	58.00
3.06807	58.00
3.08473	58.00
3.10140	58.00
3.11807	58.00
3.13473	58.00
3.15140	58.00
3.16807	58.00
3.18473	58.00
3.20140	58.00
3.21807	58.00
3.23473	58.00
3.25140	58.00
3.26807	58.00
3.28473	58.00
3.30140	58.00
3.31807	58.00
3.33473	58.00
3.35140	58.00
3.36807	58.00
3.38473	58.00
3.40140	58.00
3.41807	58.00
3.43473	58.00
3.45140	58.00
3.46807	58.00
3.48473	58.00
3.50140	58.00
3.51807	58.00
3.53473	58.00
3.55140	58.00
3.56807	58.00
3.58473	58.00
3.60140	58.00
3.61807	58.00
3.63473	58.00
3.65140	58.00
3.66807	58.00
3.68473	58.00
3.70140	58.00
3.71807	58.00
3.73473	58.00
3.75140	58.00
3.76807	58.00
3.78473	58.00
3.80140	58.00
3.81807	58.00
3.83473	58.00
3.85140	58.00
3.86807	58.00
3.88473	58.00
3.90140	58.00
3.91807	58.00
3.93473	58.00
3.95140	58.00
3.96807	58.00
3.98473	58.00

[Status Trace (Carrier Gas Flow)]
Interval(msec)	1000
# of Points	240
Start Time(min)	0.001
End Time(min)	3.985
Intensity Units	
Intensity Multiplier	1
R.Time (min)	Intensity
0.00140	34.52
0.01807	33.92
0.03473	34.54
0.05140	34.55
0.06807	34.50
0.08473	34.50
0.10140	34.52
0.11807	34.52
0.13473	34.52
0.15140	34.52
0.16807	34.51
0.18473	34.52
0.20140	34.52
0.21807	34.52
0.23473	34.52
0.25140	34.52
0.26807	34.52
0.28473	34.52
0.30140	34.51
0.31807	34.51
0.33473	34.52
0.35140	34.52
0.36807	34.52
0.38473	34.52
0.40140	34.53
0.41807	34.52
0.43473	34.52
0.45140	34.51
0.46807	34.52
0.48473	34.53
0.50140	34.53
0.51807	34.51
0.53473	34.51
0.55140	34.52
0.56807	34.51
0.58473	34.52
0.60140	34.52
0.61807	34.51
0.63473	34.52
0.65140	34.52
0.66807	34.52
0.68473	34.51
0.70140	34.52
0.71807	34.51
0.73473	34.52
0.75140	34.52
0.76807	34.52
0.78473	34.52
0.80140	34.52
0.81807	34.52
0.83473	34.52
0.85140	34.52
0.86807	34.51
0.88473	34.52
0.90140	34.52
0.91807	34.52
0.93473	34.52
0.95140	34.52
0.96807	34.52
0.98473	34.52
1.00140	34.52
1.01807	34.52
1.03473	34.52
1.05140	34.52
1.06807	34.52
1.08473	34.53
1.10140	34.52
1.11807	34.52
1.13473	34.52
1.15140	34.52
1.16807	34.52
1.18473	34.52
1.20140	34.52
1.21807	34.52
1.23473	34.52
1.25140	34.52
1.26807	34.52
1.28473	34.51
1.30140	34.51
1.31807	34.52
1.33473	34.52
1.35140	34.52
1.36807	34.51
1.38473	34.52
1.40140	34.52
1.41807	34.52
1.43473	34.52
1.45140	34.52
1.46807	34.51
1.48473	34.52
1.50140	34.52
1.51807	34.52
1.53473	34.51
1.55140	34.52
1.56807	34.51
1.58473	34.52
1.60140	34.52
1.61807	34.52
1.63473	34.52
1.65140	34.52
1.66807	34.52
1.68473	34.52
1.70140	34.52
1.71807	34.52
1.73473	34.52
1.75140	34.52
1.76807	34.51
1.78473	34.52
1.80140	34.51
1.81807	34.52
1.83473	34.52
1.85140	34.52
1.86807	34.52
1.88473	34.53
1.90140	34.51
1.91807	34.51
1.93473	34.52
1.95140	34.52
1.96807	34.51
1.98473	34.52
2.00140	34.52
2.01807	34.51
2.03473	34.53
2.05140	34.51
2.06807	34.52
2.08473	34.51
2.10140	34.52
2.11807	34.52
2.13473	34.52
2.15140	34.52
2.16807	34.53
2.18473	34.52
2.20140	34.52
2.21807	34.52
2.23473	34.51
2.25140	34.52
2.26807	34.53
2.28473	34.52
2.30140	34.52
2.31807	34.52
2.33473	34.52
2.35140	34.52
2.36807	34.51
2.38473	34.54
2.40140	34.53
2.41807	34.52
2.43473	34.52
2.45140	34.52
2.46807	34.52
2.48473	34.52
2.50140	34.52
2.51807	34.52
2.53473	34.52
2.55140	34.52
2.56807	34.52
2.58473	34.52
2.60140	34.52
2.61807	34.52
2.63473	34.51
2.65140	34.51
2.66807	34.51
2.68473	34.52
2.70140	34.52
2.71807	34.52
2.73473	34.52
2.75140	34.52
2.76807	34.52
2.78473	34.52
2.80140	34.51
2.81807	34.52
2.83473	34.52
2.85140	34.52
2.86807	34.52
2.88473	34.52
2.90140	34.52
2.91807	34.52
2.93473	34.52
2.95140	34.52
2.96807	34.52
2.98473	34.52
3.00140	34.51
3.01807	34.52
3.03473	34.52
3.05140	34.52
3.06807	34.52
3.08473	34.52
3.10140	34.52
3.11807	34.52
3.13473	34.52
3.15140	34.51
3.16807	34.52
3.18473	34.52
3.20140	34.52
3.21807	34.52
3.23473	34.52
3.25140	34.52
3.26807	34.52
3.28473	34.51
3.30140	34.52
3.31807	34.52
3.33473	34.51
3.35140	34.51
3.36807	34.52
3.38473	34.52
3.40140	34.51
3.41807	34.51
3.43473	34.51
3.45140	34.52
3.46807	34.51
3.48473	34.53
3.50140	34.51
3.51807	34.52
3.53473	34.52
3.55140	34.52
3.56807	34.51
3.58473	34.52
3.60140	34.52
3.61807	34.52
3.63473	34.52
3.65140	34.52
3.66807	34.52
3.68473	34.52
3.70140	34.52
3.71807	34.52
3.73473	34.52
3.75140	34.52
3.76807	34.52
3.78473	34.52
3.80140	34.52
3.81807	34.51
3.83473	34.52
3.85140	34.52
3.86807	34.52
3.88473	34.52
3.90140	34.52
3.91807	34.52
3.93473	34.52
3.95140	34.52
3.96807	34.52
3.98473	34.52

[Status Trace (Column Flow)]
Interval(msec)	1000
# of Points	240
Start Time(min)	0.001
End Time(min)	3.985
Intensity Units	
Intensity Multiplier	1
R.Time (min)	Intensity
0.00140	5.57
0.01807	5.41
0.03473	5.34
0.05140	5.61
0.06807	5.80
0.08473	5.63
0.10140	5.57
0.11807	5.57
0.13473	5.57
0.15140	5.57
0.16807	5.57
0.18473	5.57
0.20140	5.57
0.21807	5.57
0.23473	5.57
0.25140	5.57
0.26807	5.57
0.28473	5.57
0.30140	5.57
0.31807	5.57
0.33473	5.57
0.35140	5.57
0.36807	5.57
0.38473	5.57
0.40140	5.58
0.41807	5.57
0.43473	5.57
0.45140	5.58
0.46807	5.57
0.48473	5.57
0.50140	5.57
0.51807	5.57
0.53473	5.57
0.55140	5.57
0.56807	5.57
0.58473	5.57
0.60140	5.57
0.61807	5.57
0.63473	5.57
0.65140	5.57
0.66807	5.57
0.68473	5.57
0.70140	5.57
0.71807	5.57
0.73473	5.57
0.75140	5.57
0.76807	5.57
0.78473	5.57
0.80140	5.57
0.81807	5.57
0.83473	5.57
0.85140	5.58
0.86807	5.57
0.88473	5.58
0.90140	5.58
0.91807	5.57
0.93473	5.57
0.95140	5.58
0.96807	5.58
0.98473	5.58
1.00140	5.57
1.01807	5.57
1.03473	5.57
1.05140	5.57
1.06807	5.57
1.08473	5.58
1.10140	5.58
1.11807	5.58
1.13473	5.57
1.15140	5.57
1.16807	5.57
1.18473	5.57
1.20140	5.57
1.21807	5.57
1.23473	5.57
1.25140	5.57
1.26807	5.57
1.28473	5.58
1.30140	5.57
1.31807	5.57
1.33473	5.57
1.35140	5.57
1.36807	5.57
1.38473	5.57
1.40140	5.57
1.41807	5.57
1.43473	5.57
1.45140	5.57
1.46807	5.57
1.48473	5.57
1.50140	5.57
1.51807	5.57
1.53473	5.57
1.55140	5.57
1.56807	5.58
1.58473	5.57
1.60140	5.57
1.61807	5.57
1.63473	5.57
1.65140	5.56
1.66807	5.55
1.68473	5.54
1.70140	5.53
1.71807	5.51
1.73473	5.51
1.75140	5.50
1.76807	5.48
1.78473	5.48
1.80140	5.46
1.81807	5.45
1.83473	5.44
1.85140	5.43
1.86807	5.42
1.88473	5.41
1.90140	5.40
1.91807	5.39
1.93473	5.38
1.95140	5.37
1.96807	5.36
1.98473	5.35
2.00140	5.35
2.01807	5.34
2.03473	5.33
2.05140	5.32
2.06807	5.31
2.08473	5.30
2.10140	5.29
2.11807	5.28
2.13473	5.27
2.15140	5.26
2.16807	5.25
2.18473	5.24
2.20140	5.23
2.21807	5.22
2.23473	5.21
2.25140	5.20
2.26807	5.19
2.28473	5.18
2.30140	5.17
2.31807	5.16
2.33473	5.16
2.35140	5.15
2.36807	5.14
2.38473	5.14
2.40140	5.14
2.41807	5.14
2.43473	5.14
2.45140	5.14
2.46807	5.13
2.48473	5.13
2.50140	5.13
2.51807	5.13
2.53473	5.13
2.55140	5.13
2.56807	5.13
2.58473	5.13
2.60140	5.13
2.61807	5.13
2.63473	5.13
2.65140	5.13
2.66807	5.13
2.68473	5.13
2.70140	5.13
2.71807	5.13
2.73473	5.13
2.75140	5.13
2.76807	5.13
2.78473	5.13
2.80140	5.13
2.81807	5.13
2.83473	5.13
2.85140	5.13
2.86807	5.13
2.88473	5.13
2.90140	5.13
2.91807	5.13
2.93473	5.13
2.95140	5.13
2.96807	5.13
2.98473	5.13
3.00140	5.13
3.01807	5.13
3.03473	5.13
3.05140	5.13
3.06807	5.13
3.08473	5.13
3.10140	5.13
3.11807	5.13
3.13473	5.13
3.15140	5.12
3.16807	5.12
3.18473	5.12
3.20140	5.12
3.21807	5.12
3.23473	5.12
3.25140	5.12
3.26807	5.13
3.28473	5.13
3.30140	5.13
3.31807	5.12
3.33473	5.12
3.35140	5.12
3.36807	5.12
3.38473	5.13
3.40140	5.13
3.41807	5.13
3.43473	5.13
3.45140	5.13
3.46807	5.13
3.48473	5.12
3.50140	5.12
3.51807	5.12
3.53473	5.12
3.55140	5.12
3.56807	5.12
3.58473	5.12
3.60140	5.13
3.61807	5.13
3.63473	5.13
3.65140	5.13
3.66807	5.13
3.68473	5.13
3.70140	5.13
3.71807	5.13
3.73473	5.13
3.75140	5.13
3.76807	5.13
3.78473	5.13
3.80140	5.13
3.81807	5.13
3.83473	5.13
3.85140	5.13
3.86807	5.13
3.88473	5.13
3.90140	5.13
3.91807	5.13
3.93473	5.13
3.95140	5.13
3.96807	5.13
3.98473	5.13

[Status Trace (Linear Velocity)]
Interval(msec)	1000
# of Points	240
Start Time(min)	0.001
End Time(min)	3.985
Intensity Units	
Intensity Multiplier	1
R.Time (min)	Intensity
0.00140	39.02
0.01807	38.10
0.03473	37.70
0.05140	39.24
0.06807	40.27
0.08473	39.33
0.10140	39.00
0.11807	39.03
0.13473	39.03
0.15140	39.03
0.16807	39.03
0.18473	39.03
0.20140	39.03
0.21807	39.03
0.23473	39.03
0.25140	39.03
0.26807	39.03
0.28473	39.03
0.30140	39.03
0.31807	39.03
0.33473	39.03
0.35140	39.03
0.36807	39.03
0.38473	39.03
0.40140	39.03
0.41807	39.03
0.43473	39.03
0.45140	39.03
0.46807	39.03
0.48473	39.03
0.50140	39.03
0.51807	39.03
0.53473	39.03
0.55140	39.03
0.56807	39.03
0.58473	39.03
0.60140	39.03
0.61807	39.03
0.63473	39.03
0.65140	39.03
0.66807	39.03
0.68473	39.03
0.70140	39.03
0.71807	39.03
0.73473	39.03
0.75140	39.03
0.76807	39.03
0.78473	39.03
0.80140	39.03
0.81807	39.03
0.83473	39.03
0.85140	39.03
0.86807	39.03
0.88473	39.03
0.90140	39.03
0.91807	39.03
0.93473	39.03
0.95140	39.03
0.96807	39.03
0.98473	39.03
1.00140	39.03
1.01807	39.03
1.03473	39.03
1.05140	39.03
1.06807	39.03
1.08473	39.03
1.10140	39.03
1.11807	39.03
1.13473	39.03
1.15140	39.03
1.16807	39.03
1.18473	39.03
1.20140	39.03
1.21807	39.03
1.23473	39.03
1.25140	39.03
1.26807	39.03
1.28473	39.03
1.30140	39.03
1.31807	39.03
1.33473	39.03
1.35140	39.03
1.36807	39.03
1.38473	39.03
1.40140	39.03
1.41807	39.03
1.43473	39.03
1.45140	39.03
1.46807	39.03
1.48473	39.03
1.50140	39.03
1.51807	39.03
1.53473	39.03
1.55140	39.03
1.56807	39.03
1.58473	39.03
1.60140	39.03
1.61807	39.02
1.63473	39.01
1.65140	38.98
1.66807	38.96
1.68473	38.92
1.70140	38.88
1.71807	38.85
1.73473	38.82
1.75140	38.79
1.76807	38.76
1.78473	38.73
1.80140	38.69
1.81807	38.66
1.83473	38.63
1.85140	38.60
1.86807	38.57
1.88473	38.54
1.90140	38.51
1.91807	38.48
1.93473	38.45
1.95140	38.42
1.96807	38.39
1.98473	38.36
2.00140	38.33
2.01807	38.30
2.03473	38.27
2.05140	38.24
2.06807	38.21
2.08473	38.18
2.10140	38.15
2.11807	38.12
2.13473	38.09
2.15140	38.06
2.16807	38.03
2.18473	38.00
2.20140	37.97
2.21807	37.94
2.23473	37.91
2.25140	37.88
2.26807	37.85
2.28473	37.82
2.30140	37.79
2.31807	37.76
2.33473	37.73
2.35140	37.71
2.36807	37.68
2.38473	37.67
2.40140	37.67
2.41807	37.67
2.43473	37.67
2.45140	37.67
2.46807	37.67
2.48473	37.67
2.50140	37.67
2.51807	37.66
2.53473	37.66
2.55140	37.67
2.56807	37.66
2.58473	37.66
2.60140	37.66
2.61807	37.66
2.63473	37.66
2.65140	37.66
2.66807	37.66
2.68473	37.66
2.70140	37.66
2.71807	37.66
2.73473	37.66
2.75140	37.66
2.76807	37.66
2.78473	37.65
2.80140	37.65
2.81807	37.65
2.83473	37.65
2.85140	37.65
2.86807	37.65
2.88473	37.65
2.90140	37.65
2.91807	37.65
2.93473	37.65
2.95140	37.65
2.96807	37.65
2.98473	37.65
3.00140	37.65
3.01807	37.65
3.03473	37.65
3.05140	37.65
3.06807	37.64
3.08473	37.64
3.10140	37.64
3.11807	37.64
3.13473	37.64
3.15140	37.64
3.16807	37.64
3.18473	37.64
3.20140	37.63
3.21807	37.64
3.23473	37.64
3.25140	37.64
3.26807	37.64
3.28473	37.64
3.30140	37.64
3.31807	37.64
3.33473	37.64
3.35140	37.64
3.36807	37.64
3.38473	37.64
3.40140	37.64
3.41807	37.64
3.43473	37.64
3.45140	37.64
3.46807	37.64
3.48473	37.64
3.50140	37.64
3.51807	37.63
3.53473	37.63
3.55140	37.63
3.56807	37.64
3.58473	37.64
3.60140	37.64
3.61807	37.64
3.63473	37.64
3.65140	37.64
3.66807	37.64
3.68473	37.64
3.70140	37.64
3.71807	37.64
3.73473	37.64
3.75140	37.64
3.76807	37.64
3.78473	37.64
3.80140	37.64
3.81807	37.64
3.83473	37.64
3.85140	37.64
3.86807	37.64
3.88473	37.64
3.90140	37.64
3.91807	37.64
3.93473	37.64
3.95140	37.64
3.96807	37.64
3.98473	37.64

