[Header]
Application Name	LabSolutions
Version	5.110
Data File Name	C:\Users\User\Desktop\GC Analyses\Jack\Nachusa Grasslands Sampling\T0 Timepoint July 12th\T0_07122022_076.gcd
Output Date	3/14/2023
Output Time	3:40:38 PM

[File Information]
Type	Data File
Generated	3/7/2023 10:15:52 PM
Generated by	System Administrator
Modified	3/7/2023 10:22:41 PM
Modified by	System Administrator

[Sample Information]
Operator Name	System Administrator
Acquired	3/7/2023 10:18:39 PM
Sample Type	0:Unknown
Level	0
Sample Name	076
Sample ID	076
ISTD Amount1	1
ISTD Amount2	1
ISTD Amount3	1
ISTD Amount4	1
ISTD Amount5	1
ISTD Amount6	1
ISTD Amount7	1
ISTD Amount8	1
ISTD Amount9	1
ISTD Amount10	1
ISTD Amount11	1
ISTD Amount12	1
ISTD Amount13	1
ISTD Amount14	1
ISTD Amount15	1
ISTD Amount16	1
ISTD Amount17	1
ISTD Amount18	1
ISTD Amount19	1
ISTD Amount20	1
ISTD Amount21	1
ISTD Amount22	1
ISTD Amount23	1
ISTD Amount24	1
ISTD Amount25	1
ISTD Amount26	1
ISTD Amount27	1
ISTD Amount28	1
ISTD Amount29	1
ISTD Amount30	1
ISTD Amount31	1
ISTD Amount32	1
Sample Amount	1
Dilution Factor	1
Vial#	75
Injection Volume	1
Injection Count	1
Bar Code	

[Original Files]
Data File	C:\Users\User\Desktop\GC Analyses\Jack\Nachusa Grasslands Sampling\T0 Timepoint July 12th\T0_07122022_076.gcd
Method File	C:\LabSolutions\Data\GHG_4min_2022\ghg3_togas_w_acet_4 min_new_int.gcm
Batch File	C:\LabSolutions\Data\AutoSamplerTesting\T0_07122022.gcb
Report Format File	c:\LabSolutions\System\DEFAULT.lsr

[File Description]


[Configuration]
Instrument Name	C0B7VH3-Instrument1
Instrument #	1
Line #	1
# of Detectors	3
Detector ID	DET#1	DET#2	DET#3
Detector Name	FID	PTCD	ECD
# of Channels	1	1	1

[Peak Table(Ch1)]
# of Peaks	3
Peak#	R.Time	I.Time	F.Time	Area	Height	A/H	Conc.	Mark	ID#	Name	k'	Plate #	Plate Ht.	Tailing	Resolution	Sep.Factor	Area Ratio	Height Ratio	Conc. %	Norm Conc.
1	1.476	1.439	1.538	28115	13262	2.120	198.494	   	1	CO	0.000	9333	16.072	1.304	0.000	0.000	0	0	34.443	34.443
2	1.567	1.538	1.633	4950	2388	2.073	95.711	 V 	2	CH4	0.062	10369	14.466	0.000	1.495	0.000	0	0	16.608	16.608
3	1.996	1.952	2.484	1124024	531286	2.116	282.100	   	3	CO2	0.353	17269	8.686	1.294	7.014	5.680	0	0	48.950	48.950

[Peak Table(Ch2)]
# of Peaks	0

[Peak Table(Ch3)]
# of Peaks	5
Peak#	R.Time	I.Time	F.Time	Area	Height	A/H	Conc.	Mark	ID#	Name	k'	Plate #	Plate Ht.	Tailing	Resolution	Sep.Factor	Area Ratio	Height Ratio	Conc. %	Norm Conc.
1	2.458	2.172	2.521	2689	477	5.643	0.000	   			0.000	7955	18.856	0.000	0.000	0.000	0	0	0.000	0.000
2	2.546	2.521	2.631	903	215	4.205	0.000	 V 			0.036	3033	49.451	0.000	0.596	0.000	0	0	0.000	0.000
3	2.711	2.645	2.763	547	103	5.312	0.000	   			0.103	2050	73.171	0.000	0.777	2.875	0	0	0.000	0.000
4	2.873	2.763	3.005	18824	4862	3.872	0.481	 V 	1	N2O	0.169	13142	11.414	1.683	0.950	1.638	0	0	100.000	100.000
5	3.082	3.008	3.602	11423	567	20.133	0.000	   			0.254	637	235.511	4.023	0.710	1.504	0	0	0.000	0.000

[Compound Results(Ch1)]
# of IDs	6
ID#	Name	R.Time	Area	Height	Conc.	Curve	3rd	2nd	1st	Constant	Area Ratio	Height Ratio	Conc. %	Norm Conc.
1	CO	1.476	28115	13262	198.494	Linear	0.000000e+00	0.000000e+00	1.416423e+002	0.000000e+00	0	0	34.443	34.443
2	CH4	1.567	4950	2388	95.711	Linear	0.000000e+00	0.000000e+00	5.171738e+001	0.000000e+00	0	0	16.608	16.608
3	CO2	1.996	1124024	531286	282.100	Linear	0.000000e+00	0.000000e+00	3.984494e+003	0.000000e+00	0	0	48.950	48.950
4	Ethylene	0.000	0	0	0.000	Linear	0.000000e+00	0.000000e+00	0.000000e+00	0.000000e+00	0	0	0.000	0.000
5	Acetylene	0.000	0	0	0.000	Linear	0.000000e+00	0.000000e+00	0.000000e+00	0.000000e+00	0	0	0.000	0.000
6	Ethane	0.000	0	0	0.000	Linear	0.000000e+00	0.000000e+00	0.000000e+00	0.000000e+00	0	0	0.000	0.000

[Compound Results(Ch2)]
# of IDs	5
ID#	Name	R.Time	Area	Height	Conc.	Curve	3rd	2nd	1st	Constant	Area Ratio	Height Ratio	Conc. %	Norm Conc.
1	Hydrogen	0.000	0	0	0.000	Linear	0.000000e+00	0.000000e+00	0.000000e+00	0.000000e+00	0	0	0.000	0.000
2	Oxygen	0.000	0	0	0.000	Linear	0.000000e+00	0.000000e+00	0.000000e+00	0.000000e+00	0	0	0.000	0.000
3	Nitrogen	0.000	0	0	0.000	Linear	0.000000e+00	0.000000e+00	0.000000e+00	0.000000e+00	0	0	0.000	0.000
4	Methane	0.000	0	0	0.000	Linear	0.000000e+00	0.000000e+00	0.000000e+00	0.000000e+00	0	0	0.000	0.000
5	Carbon Monoxide	0.000	0	0	0.000	Linear	0.000000e+00	0.000000e+00	0.000000e+00	0.000000e+00	0	0	0.000	0.000

[Compound Results(Ch3)]
# of IDs	2
ID#	Name	R.Time	Area	Height	Conc.	Curve	3rd	2nd	1st	Constant	Area Ratio	Height Ratio	Conc. %	Norm Conc.
1	N2O	2.873	18824	4862	0.481	Linear	0.000000e+00	0.000000e+00	3.915173e+004	0.000000e+00	0	0	100.000	100.000
2	SF6	0.000	0	0	0.000	Linear	0.000000e+00	0.000000e+00	0.000000e+00	0.000000e+00	0	0	0.000	0.000

[Group Results(Ch1)]
# of Groups	0

[Group Results(Ch2)]
# of Groups	0

[Group Results(Ch3)]
# of Groups	0

[Chromatogram (Ch1)]
Interval(msec)	220
# of Points	1091
Start Time(min)	0.002
End Time(min)	3.998
R.Time (min)	Intensity
0.00167	-27
0.00533	-23
0.00900	-18
0.01267	-11
0.01633	-4
0.02000	2
0.02367	6
0.02733	7
0.03100	8
0.03467	11
0.03833	14
0.04200	18
0.04567	21
0.04933	19
0.05300	16
0.05667	16
0.06033	20
0.06400	24
0.06767	28
0.07133	30
0.07500	31
0.07867	30
0.08233	29
0.08600	31
0.08967	35
0.09333	39
0.09700	44
0.10067	52
0.10433	58
0.10800	58
0.11167	52
0.11533	47
0.11900	43
0.12267	41
0.12633	43
0.13000	50
0.13367	58
0.13733	61
0.14100	61
0.14467	62
0.14833	63
0.15200	60
0.15567	59
0.15933	58
0.16300	60
0.16667	65
0.17033	68
0.17400	64
0.17767	56
0.18133	46
0.18500	37
0.18867	30
0.19233	24
0.19600	20
0.19967	20
0.20333	22
0.20700	22
0.21067	23
0.21433	24
0.21800	26
0.22167	25
0.22533	21
0.22900	13
0.23267	4
0.23633	-5
0.24000	-13
0.24367	-20
0.24733	-23
0.25100	-22
0.25467	-17
0.25833	-10
0.26200	-2
0.26567	4
0.26933	10
0.27300	14
0.27667	12
0.28033	6
0.28400	-1
0.28767	-8
0.29133	-15
0.29500	-21
0.29867	-24
0.30233	-24
0.30600	-21
0.30967	-20
0.31333	-21
0.31700	-23
0.32067	-24
0.32433	-24
0.32800	-23
0.33167	-26
0.33533	-28
0.33900	-27
0.34267	-22
0.34633	-13
0.35000	-10
0.35367	-10
0.35733	-12
0.36100	-13
0.36467	-11
0.36833	-10
0.37200	-10
0.37567	-12
0.37933	-13
0.38300	-10
0.38667	-5
0.39033	-1
0.39400	-5
0.39767	-13
0.40133	-24
0.40500	-33
0.40867	-37
0.41233	-38
0.41600	-37
0.41967	-33
0.42333	-26
0.42700	-19
0.43067	-14
0.43433	-11
0.43800	-10
0.44167	-10
0.44533	-10
0.44900	-7
0.45267	-2
0.45633	2
0.46000	0
0.46367	-5
0.46733	-10
0.47100	-14
0.47467	-18
0.47833	-21
0.48200	-20
0.48567	-20
0.48933	-23
0.49300	-26
0.49667	-27
0.50033	-25
0.50400	-21
0.50767	-17
0.51133	-15
0.51500	-16
0.51867	-20
0.52233	-26
0.52600	-32
0.52967	-33
0.53333	-25
0.53700	-13
0.54067	0
0.54433	6
0.54800	2
0.55167	-6
0.55533	-15
0.55900	-25
0.56267	-34
0.56633	-39
0.57000	-40
0.57367	-38
0.57733	-35
0.58100	-31
0.58467	-24
0.58833	-12
0.59200	-2
0.59567	-0
0.59933	-6
0.60300	-16
0.60667	-24
0.61033	-33
0.61400	-42
0.61767	-46
0.62133	-44
0.62500	-39
0.62867	-33
0.63233	-27
0.63600	-23
0.63967	-20
0.64333	-18
0.64700	-20
0.65067	-25
0.65433	-27
0.65800	-27
0.66167	-28
0.66533	-30
0.66900	-32
0.67267	-33
0.67633	-33
0.68000	-32
0.68367	-31
0.68733	-29
0.69100	-29
0.69467	-30
0.69833	-30
0.70200	-31
0.70567	-36
0.70933	-41
0.71300	-41
0.71667	-36
0.72033	-27
0.72400	-17
0.72767	-10
0.73133	-6
0.73500	2
0.73867	15
0.74233	25
0.74600	29
0.74967	29
0.75333	25
0.75700	19
0.76067	13
0.76433	11
0.76800	16
0.77167	25
0.77533	30
0.77900	29
0.78267	26
0.78633	20
0.79000	14
0.79367	9
0.79733	2
0.80100	-4
0.80467	-7
0.80833	-8
0.81200	-7
0.81567	-6
0.81933	-7
0.82300	-7
0.82667	-5
0.83033	2
0.83400	14
0.83767	22
0.84133	22
0.84500	15
0.84867	6
0.85233	-2
0.85600	-10
0.85967	-11
0.86333	-9
0.86700	-6
0.87067	-2
0.87433	-0
0.87800	1
0.88167	2
0.88533	4
0.88900	5
0.89267	5
0.89633	-0
0.90000	-6
0.90367	-7
0.90733	-7
0.91100	-4
0.91467	1
0.91833	6
0.92200	7
0.92567	4
0.92933	1
0.93300	2
0.93667	7
0.94033	7
0.94400	4
0.94767	2
0.95133	2
0.95500	6
0.95867	13
0.96233	19
0.96600	21
0.96967	22
0.97333	21
0.97700	19
0.98067	19
0.98433	20
0.98800	24
0.99167	26
0.99533	25
0.99900	22
1.00267	15
1.00633	8
1.01000	-1
1.01367	-9
1.01733	-11
1.02100	-13
1.02467	-17
1.02833	-18
1.03200	-15
1.03567	-10
1.03933	-5
1.04300	-2
1.04667	0
1.05033	2
1.05400	1
1.05767	-1
1.06133	-2
1.06500	-2
1.06867	-2
1.07233	-0
1.07600	1
1.07967	-1
1.08333	-8
1.08700	-11
1.09067	-10
1.09433	-9
1.09800	-13
1.10167	-21
1.10533	-25
1.10900	-24
1.11267	-26
1.11633	-28
1.12000	-25
1.12367	-24
1.12733	-24
1.13100	-24
1.13467	-22
1.13833	-18
1.14200	-11
1.14567	-2
1.14933	5
1.15300	7
1.15667	6
1.16033	4
1.16400	-0
1.16767	-9
1.17133	-21
1.17500	-31
1.17867	-38
1.18233	-41
1.18600	-43
1.18967	-45
1.19333	-48
1.19700	-51
1.20067	-52
1.20433	-50
1.20800	-46
1.21167	-41
1.21533	-32
1.21900	-19
1.22267	-8
1.22633	-7
1.23000	-17
1.23367	-30
1.23733	-43
1.24100	-53
1.24467	-58
1.24833	-55
1.25200	-46
1.25567	-37
1.25933	-29
1.26300	-25
1.26667	-25
1.27033	-28
1.27400	-34
1.27767	-38
1.28133	-42
1.28500	-44
1.28867	-46
1.29233	-47
1.29600	-48
1.29967	-49
1.30333	-51
1.30700	-52
1.31067	-52
1.31433	-54
1.31800	-59
1.32167	-61
1.32533	-61
1.32900	-57
1.33267	-54
1.33633	-55
1.34000	-54
1.34367	-51
1.34733	-51
1.35100	-53
1.35467	-55
1.35833	-56
1.36200	-56
1.36567	-55
1.36933	-50
1.37300	-42
1.37667	-37
1.38033	-38
1.38400	-46
1.38767	-56
1.39133	-61
1.39500	-63
1.39867	-63
1.40233	-64
1.40600	-66
1.40967	-62
1.41333	-54
1.41700	-47
1.42067	-46
1.42433	-50
1.42800	-57
1.43167	-66
1.43533	-70
1.43900	-45
1.44267	63
1.44633	323
1.45000	927
1.45367	2259
1.45733	4415
1.46100	6963
1.46467	9364
1.46833	11304
1.47200	12631
1.47567	13221
1.47933	12961
1.48300	11856
1.48667	10119
1.49033	8113
1.49400	6190
1.49767	4562
1.50133	3289
1.50500	2346
1.50867	1672
1.51233	1199
1.51600	869
1.51967	638
1.52333	476
1.52700	363
1.53067	283
1.53433	229
1.53800	208
1.54167	257
1.54533	435
1.54900	764
1.55267	1191
1.55633	1619
1.56000	1975
1.56367	2229
1.56733	2356
1.57100	2326
1.57467	2129
1.57833	1803
1.58200	1420
1.58567	1054
1.58933	744
1.59300	506
1.59667	333
1.60033	214
1.60400	135
1.60767	86
1.61133	51
1.61500	25
1.61867	8
1.62233	-4
1.62600	-14
1.62967	-20
1.63333	-26
1.63700	-29
1.64067	-32
1.64433	-35
1.64800	-40
1.65167	-47
1.65533	-54
1.65900	-60
1.66267	-64
1.66633	-66
1.67000	-70
1.67367	-75
1.67733	-77
1.68100	-76
1.68467	-74
1.68833	-73
1.69200	-75
1.69567	-77
1.69933	-79
1.70300	-81
1.70667	-79
1.71033	-71
1.71400	-61
1.71767	-51
1.72133	-44
1.72500	-44
1.72867	-47
1.73233	-54
1.73600	-62
1.73967	-70
1.74333	-75
1.74700	-79
1.75067	-77
1.75433	-72
1.75800	-67
1.76167	-62
1.76533	-59
1.76900	-58
1.77267	-58
1.77633	-60
1.78000	-66
1.78367	-74
1.78733	-81
1.79100	-84
1.79467	-83
1.79833	-80
1.80200	-76
1.80567	-74
1.80933	-76
1.81300	-80
1.81667	-81
1.82033	-80
1.82400	-76
1.82767	-71
1.83133	-65
1.83500	-63
1.83867	-65
1.84233	-71
1.84600	-79
1.84967	-90
1.85333	-98
1.85700	-102
1.86067	-102
1.86433	-99
1.86800	-99
1.87167	-105
1.87533	-107
1.87900	-103
1.88267	-96
1.88633	-88
1.89000	-78
1.89367	-71
1.89733	-69
1.90100	-71
1.90467	-73
1.90833	-74
1.91200	-75
1.91567	-77
1.91933	-78
1.92300	-74
1.92667	-69
1.93033	-64
1.93400	-62
1.93767	-66
1.94133	-73
1.94500	-79
1.94867	-78
1.95233	-61
1.95600	49
1.95967	660
1.96333	3341
1.96700	12315
1.97067	35328
1.97433	81353
1.97800	154475
1.98167	248510
1.98533	348505
1.98900	437426
1.99267	501394
1.99633	531254
2.00000	523347
2.00367	480562
2.00733	412668
2.01100	333445
2.01467	255868
2.01833	188569
2.02200	135075
2.02567	95136
2.02933	66586
2.03300	46762
2.03667	33237
2.04033	24084
2.04400	17895
2.04767	13690
2.05133	10800
2.05500	8777
2.05867	7331
2.06233	6270
2.06600	5467
2.06967	4843
2.07333	4345
2.07700	3942
2.08067	3613
2.08433	3335
2.08800	3092
2.09167	2884
2.09533	2704
2.09900	2546
2.10267	2404
2.10633	2277
2.11000	2162
2.11367	2051
2.11733	1943
2.12100	1842
2.12467	1746
2.12833	1657
2.13200	1574
2.13567	1500
2.13933	1441
2.14300	1391
2.14667	1343
2.15033	1298
2.15400	1255
2.15767	1214
2.16133	1175
2.16500	1137
2.16867	1099
2.17233	1060
2.17600	1025
2.17967	996
2.18333	977
2.18700	959
2.19067	936
2.19433	907
2.19800	880
2.20167	855
2.20533	830
2.20900	804
2.21267	779
2.21633	755
2.22000	735
2.22367	717
2.22733	704
2.23100	692
2.23467	681
2.23833	669
2.24200	657
2.24567	644
2.24933	634
2.25300	625
2.25667	619
2.26033	616
2.26400	611
2.26767	608
2.27133	602
2.27500	595
2.27867	586
2.28233	574
2.28600	557
2.28967	538
2.29333	521
2.29700	508
2.30067	499
2.30433	493
2.30800	485
2.31167	474
2.31533	460
2.31900	447
2.32267	436
2.32633	429
2.33000	425
2.33367	423
2.33733	420
2.34100	416
2.34467	416
2.34833	417
2.35200	415
2.35567	408
2.35933	393
2.36300	378
2.36667	367
2.37033	362
2.37400	360
2.37767	362
2.38133	364
2.38500	367
2.38867	368
2.39233	367
2.39600	361
2.39967	353
2.40333	346
2.40700	340
2.41067	338
2.41433	342
2.41800	346
2.42167	345
2.42533	342
2.42900	337
2.43267	332
2.43633	329
2.44000	325
2.44367	317
2.44733	311
2.45100	308
2.45467	310
2.45833	312
2.46200	312
2.46567	313
2.46933	316
2.47300	318
2.47667	316
2.48033	307
2.48400	295
2.48767	285
2.49133	278
2.49500	277
2.49867	282
2.50233	289
2.50600	294
2.50967	298
2.51333	299
2.51700	299
2.52067	298
2.52433	296
2.52800	297
2.53167	300
2.53533	304
2.53900	308
2.54267	311
2.54633	312
2.55000	310
2.55367	303
2.55733	297
2.56100	287
2.56467	278
2.56833	271
2.57200	269
2.57567	269
2.57933	271
2.58300	275
2.58667	278
2.59033	279
2.59400	281
2.59767	284
2.60133	285
2.60500	280
2.60867	274
2.61233	267
2.61600	260
2.61967	255
2.62333	251
2.62700	245
2.63067	240
2.63433	240
2.63800	246
2.64167	254
2.64533	259
2.64900	261
2.65267	258
2.65633	255
2.66000	252
2.66367	249
2.66733	246
2.67100	244
2.67467	243
2.67833	250
2.68200	259
2.68567	265
2.68933	267
2.69300	268
2.69667	266
2.70033	261
2.70400	258
2.70767	261
2.71133	269
2.71500	277
2.71867	278
2.72233	273
2.72600	267
2.72967	261
2.73333	250
2.73700	240
2.74067	238
2.74433	242
2.74800	244
2.75167	241
2.75533	237
2.75900	236
2.76267	240
2.76633	246
2.77000	253
2.77367	257
2.77733	261
2.78100	263
2.78467	265
2.78833	268
2.79200	271
2.79567	275
2.79933	279
2.80300	280
2.80667	278
2.81033	279
2.81400	282
2.81767	283
2.82133	282
2.82500	279
2.82867	273
2.83233	268
2.83600	266
2.83967	262
2.84333	259
2.84700	257
2.85067	259
2.85433	262
2.85800	265
2.86167	266
2.86533	267
2.86900	268
2.87267	270
2.87633	274
2.88000	277
2.88367	282
2.88733	288
2.89100	291
2.89467	293
2.89833	291
2.90200	285
2.90567	276
2.90933	267
2.91300	265
2.91667	269
2.92033	273
2.92400	273
2.92767	273
2.93133	277
2.93500	281
2.93867	282
2.94233	283
2.94600	285
2.94967	287
2.95333	287
2.95700	283
2.96067	279
2.96433	278
2.96800	277
2.97167	278
2.97533	283
2.97900	292
2.98267	302
2.98633	311
2.99000	318
2.99367	323
2.99733	323
3.00100	322
3.00467	320
3.00833	315
3.01200	306
3.01567	296
3.01933	287
3.02300	282
3.02667	280
3.03033	278
3.03400	272
3.03767	265
3.04133	257
3.04500	252
3.04867	252
3.05233	253
3.05600	256
3.05967	263
3.06333	271
3.06700	276
3.07067	277
3.07433	280
3.07800	286
3.08167	291
3.08533	291
3.08900	292
3.09267	294
3.09633	293
3.10000	292
3.10367	288
3.10733	282
3.11100	277
3.11467	275
3.11833	276
3.12200	280
3.12567	283
3.12933	285
3.13300	287
3.13667	288
3.14033	291
3.14400	294
3.14767	295
3.15133	294
3.15500	290
3.15867	286
3.16233	282
3.16600	277
3.16967	277
3.17333	278
3.17700	276
3.18067	276
3.18433	280
3.18800	286
3.19167	290
3.19533	293
3.19900	295
3.20267	299
3.20633	301
3.21000	300
3.21367	296
3.21733	292
3.22100	291
3.22467	293
3.22833	297
3.23200	302
3.23567	302
3.23933	299
3.24300	297
3.24667	294
3.25033	292
3.25400	289
3.25767	287
3.26133	289
3.26500	289
3.26867	287
3.27233	288
3.27600	290
3.27967	291
3.28333	292
3.28700	292
3.29067	293
3.29433	292
3.29800	290
3.30167	286
3.30533	284
3.30900	284
3.31267	287
3.31633	287
3.32000	282
3.32367	277
3.32733	276
3.33100	279
3.33467	278
3.33833	274
3.34200	272
3.34567	271
3.34933	272
3.35300	274
3.35667	279
3.36033	285
3.36400	291
3.36767	293
3.37133	290
3.37500	284
3.37867	278
3.38233	275
3.38600	271
3.38967	268
3.39333	267
3.39700	267
3.40067	268
3.40433	268
3.40800	271
3.41167	276
3.41533	282
3.41900	284
3.42267	275
3.42633	261
3.43000	251
3.43367	246
3.43733	251
3.44100	261
3.44467	265
3.44833	262
3.45200	256
3.45567	251
3.45933	250
3.46300	251
3.46667	254
3.47033	255
3.47400	254
3.47767	257
3.48133	265
3.48500	271
3.48867	273
3.49233	275
3.49600	275
3.49967	274
3.50333	271
3.50700	266
3.51067	263
3.51433	259
3.51800	258
3.52167	260
3.52533	262
3.52900	264
3.53267	268
3.53633	273
3.54000	273
3.54367	264
3.54733	252
3.55100	243
3.55467	239
3.55833	239
3.56200	244
3.56567	250
3.56933	258
3.57300	263
3.57667	261
3.58033	256
3.58400	252
3.58767	247
3.59133	242
3.59500	237
3.59867	230
3.60233	227
3.60600	227
3.60967	227
3.61333	229
3.61700	232
3.62067	237
3.62433	240
3.62800	241
3.63167	241
3.63533	239
3.63900	235
3.64267	232
3.64633	230
3.65000	226
3.65367	225
3.65733	224
3.66100	224
3.66467	227
3.66833	231
3.67200	235
3.67567	240
3.67933	243
3.68300	242
3.68667	239
3.69033	237
3.69400	234
3.69767	229
3.70133	224
3.70500	222
3.70867	222
3.71233	224
3.71600	230
3.71967	239
3.72333	249
3.72700	253
3.73067	250
3.73433	243
3.73800	234
3.74167	230
3.74533	232
3.74900	235
3.75267	236
3.75633	234
3.76000	226
3.76367	219
3.76733	213
3.77100	209
3.77467	208
3.77833	210
3.78200	214
3.78567	217
3.78933	217
3.79300	216
3.79667	213
3.80033	209
3.80400	203
3.80767	198
3.81133	195
3.81500	193
3.81867	190
3.82233	188
3.82600	187
3.82967	182
3.83333	180
3.83700	180
3.84067	185
3.84433	194
3.84800	203
3.85167	208
3.85533	211
3.85900	214
3.86267	218
3.86633	217
3.87000	213
3.87367	209
3.87733	205
3.88100	204
3.88467	205
3.88833	209
3.89200	214
3.89567	217
3.89933	216
3.90300	212
3.90667	207
3.91033	207
3.91400	210
3.91767	210
3.92133	210
3.92500	213
3.92867	217
3.93233	220
3.93600	223
3.93967	220
3.94333	215
3.94700	210
3.95067	205
3.95433	200
3.95800	196
3.96167	195
3.96533	194
3.96900	192
3.97267	192
3.97633	193
3.98000	194
3.98367	196
3.98733	196
3.99100	199
3.99467	208
3.99833	218

[Chromatogram (Ch2)]
Interval(msec)	220
# of Points	1091
Start Time(min)	0.002
End Time(min)	3.998
R.Time (min)	Intensity
0.00167	0
0.00533	0
0.00900	0
0.01267	1
0.01633	1
0.02000	1
0.02367	1
0.02733	1
0.03100	1
0.03467	0
0.03833	-0
0.04200	-0
0.04567	-1
0.04933	-1
0.05300	-1
0.05667	-2
0.06033	-2
0.06400	-2
0.06767	-2
0.07133	-2
0.07500	-3
0.07867	-2
0.08233	-2
0.08600	-2
0.08967	-2
0.09333	-2
0.09700	-2
0.10067	-2
0.10433	-2
0.10800	-2
0.11167	-1
0.11533	-1
0.11900	-1
0.12267	-1
0.12633	-0
0.13000	-0
0.13367	-0
0.13733	-0
0.14100	-0
0.14467	-1
0.14833	-1
0.15200	-1
0.15567	-2
0.15933	-2
0.16300	-2
0.16667	-2
0.17033	-3
0.17400	-3
0.17767	-3
0.18133	-3
0.18500	-3
0.18867	-3
0.19233	-3
0.19600	-3
0.19967	-3
0.20333	-3
0.20700	-3
0.21067	-2
0.21433	-2
0.21800	-2
0.22167	-1
0.22533	-1
0.22900	-1
0.23267	-1
0.23633	-1
0.24000	-1
0.24367	-1
0.24733	-2
0.25100	-2
0.25467	-2
0.25833	-3
0.26200	-3
0.26567	-3
0.26933	-3
0.27300	-3
0.27667	-3
0.28033	-3
0.28400	-3
0.28767	-3
0.29133	-3
0.29500	-2
0.29867	-2
0.30233	-2
0.30600	-1
0.30967	-1
0.31333	-1
0.31700	-1
0.32067	-2
0.32433	-2
0.32800	-2
0.33167	-2
0.33533	-2
0.33900	-3
0.34267	-3
0.34633	-2
0.35000	-2
0.35367	-2
0.35733	-2
0.36100	-2
0.36467	-2
0.36833	-2
0.37200	-1
0.37567	-1
0.37933	-1
0.38300	-1
0.38667	-0
0.39033	-0
0.39400	0
0.39767	0
0.40133	0
0.40500	0
0.40867	0
0.41233	-0
0.41600	-1
0.41967	-1
0.42333	-2
0.42700	-3
0.43067	-3
0.43433	-4
0.43800	-4
0.44167	-4
0.44533	-5
0.44900	-5
0.45267	-5
0.45633	-6
0.46000	-6
0.46367	-6
0.46733	-6
0.47100	-6
0.47467	-6
0.47833	-6
0.48200	-7
0.48567	-7
0.48933	-7
0.49300	-7
0.49667	-7
0.50033	-7
0.50400	-7
0.50767	-7
0.51133	-6
0.51500	-6
0.51867	-6
0.52233	-6
0.52600	-6
0.52967	-5
0.53333	-5
0.53700	-5
0.54067	-5
0.54433	-4
0.54800	-4
0.55167	-4
0.55533	-3
0.55900	-3
0.56267	-3
0.56633	-3
0.57000	-3
0.57367	-3
0.57733	-3
0.58100	-3
0.58467	-4
0.58833	-4
0.59200	-4
0.59567	-4
0.59933	-4
0.60300	-4
0.60667	-4
0.61033	-4
0.61400	-4
0.61767	-4
0.62133	-3
0.62500	-3
0.62867	-3
0.63233	-4
0.63600	-4
0.63967	-3
0.64333	-3
0.64700	-3
0.65067	-3
0.65433	-3
0.65800	-2
0.66167	-2
0.66533	-2
0.66900	-2
0.67267	-3
0.67633	-3
0.68000	-3
0.68367	-3
0.68733	-3
0.69100	-2
0.69467	-2
0.69833	-2
0.70200	-2
0.70567	-2
0.70933	-2
0.71300	-2
0.71667	-2
0.72033	-2
0.72400	-2
0.72767	-2
0.73133	-2
0.73500	-2
0.73867	-2
0.74233	-2
0.74600	-2
0.74967	-2
0.75333	-2
0.75700	-2
0.76067	-3
0.76433	-3
0.76800	-3
0.77167	-4
0.77533	-4
0.77900	-4
0.78267	-4
0.78633	-4
0.79000	-4
0.79367	-4
0.79733	-4
0.80100	-3
0.80467	-3
0.80833	-3
0.81200	-4
0.81567	-4
0.81933	-4
0.82300	-4
0.82667	-5
0.83033	-5
0.83400	-5
0.83767	-5
0.84133	-6
0.84500	-6
0.84867	-6
0.85233	-6
0.85600	-6
0.85967	-6
0.86333	-6
0.86700	-7
0.87067	-7
0.87433	-7
0.87800	-8
0.88167	-8
0.88533	-8
0.88900	-8
0.89267	-8
0.89633	-8
0.90000	-8
0.90367	-8
0.90733	-8
0.91100	-8
0.91467	-7
0.91833	-7
0.92200	-7
0.92567	-6
0.92933	-6
0.93300	-5
0.93667	-5
0.94033	-4
0.94400	-4
0.94767	-4
0.95133	-3
0.95500	-3
0.95867	-3
0.96233	-3
0.96600	-3
0.96967	-3
0.97333	-3
0.97700	-3
0.98067	-3
0.98433	-3
0.98800	-4
0.99167	-4
0.99533	-4
0.99900	-5
1.00267	-5
1.00633	-5
1.01000	-5
1.01367	-5
1.01733	-5
1.02100	-4
1.02467	-4
1.02833	-3
1.03200	-3
1.03567	-3
1.03933	-3
1.04300	-3
1.04667	-3
1.05033	-3
1.05400	-3
1.05767	-3
1.06133	-4
1.06500	-4
1.06867	-4
1.07233	-4
1.07600	-4
1.07967	-5
1.08333	-5
1.08700	-5
1.09067	-5
1.09433	-5
1.09800	-5
1.10167	-5
1.10533	-5
1.10900	-5
1.11267	-5
1.11633	-5
1.12000	-6
1.12367	-6
1.12733	-5
1.13100	-5
1.13467	-5
1.13833	-5
1.14200	-5
1.14567	-5
1.14933	-5
1.15300	-5
1.15667	-5
1.16033	-5
1.16400	-5
1.16767	-5
1.17133	-5
1.17500	-5
1.17867	-4
1.18233	-4
1.18600	-4
1.18967	-4
1.19333	-4
1.19700	-4
1.20067	-4
1.20433	-5
1.20800	-5
1.21167	-6
1.21533	-6
1.21900	-6
1.22267	-6
1.22633	-6
1.23000	-6
1.23367	-6
1.23733	-6
1.24100	-6
1.24467	-6
1.24833	-6
1.25200	-6
1.25567	-6
1.25933	-7
1.26300	-7
1.26667	-7
1.27033	-7
1.27400	-6
1.27767	-6
1.28133	-6
1.28500	-6
1.28867	-6
1.29233	-6
1.29600	-6
1.29967	-5
1.30333	-5
1.30700	-5
1.31067	-4
1.31433	-4
1.31800	-4
1.32167	-4
1.32533	-4
1.32900	-4
1.33267	-3
1.33633	-3
1.34000	-3
1.34367	-3
1.34733	-4
1.35100	-4
1.35467	-4
1.35833	-4
1.36200	-5
1.36567	-5
1.36933	-5
1.37300	-5
1.37667	-5
1.38033	-5
1.38400	-5
1.38767	-5
1.39133	-5
1.39500	-5
1.39867	-4
1.40233	-4
1.40600	-4
1.40967	-4
1.41333	-4
1.41700	-4
1.42067	-4
1.42433	-4
1.42800	-4
1.43167	-4
1.43533	-4
1.43900	-4
1.44267	-4
1.44633	-4
1.45000	-4
1.45367	-4
1.45733	-4
1.46100	-4
1.46467	-4
1.46833	-4
1.47200	-5
1.47567	-5
1.47933	-5
1.48300	-5
1.48667	-5
1.49033	-5
1.49400	-6
1.49767	-6
1.50133	-6
1.50500	-7
1.50867	-7
1.51233	-8
1.51600	-8
1.51967	-8
1.52333	-9
1.52700	-9
1.53067	-9
1.53433	-9
1.53800	-8
1.54167	-8
1.54533	-8
1.54900	-8
1.55267	-8
1.55633	-8
1.56000	-8
1.56367	-8
1.56733	-7
1.57100	-7
1.57467	-7
1.57833	-7
1.58200	-7
1.58567	-7
1.58933	-7
1.59300	-7
1.59667	-7
1.60033	-8
1.60400	-9
1.60767	-11
1.61133	-13
1.61500	-16
1.61867	-18
1.62233	-21
1.62600	-24
1.62967	-28
1.63333	-31
1.63700	-35
1.64067	-39
1.64433	-43
1.64800	-47
1.65167	-51
1.65533	-54
1.65900	-58
1.66267	-61
1.66633	-64
1.67000	-68
1.67367	-72
1.67733	-76
1.68100	-81
1.68467	-85
1.68833	-90
1.69200	-94
1.69567	-98
1.69933	-101
1.70300	-104
1.70667	-107
1.71033	-109
1.71400	-111
1.71767	-112
1.72133	-113
1.72500	-114
1.72867	-115
1.73233	-115
1.73600	-115
1.73967	-115
1.74333	-115
1.74700	-114
1.75067	-115
1.75433	-115
1.75800	-116
1.76167	-117
1.76533	-118
1.76900	-118
1.77267	-119
1.77633	-119
1.78000	-120
1.78367	-120
1.78733	-120
1.79100	-120
1.79467	-119
1.79833	-119
1.80200	-119
1.80567	-119
1.80933	-119
1.81300	-120
1.81667	-120
1.82033	-121
1.82400	-122
1.82767	-122
1.83133	-123
1.83500	-123
1.83867	-123
1.84233	-122
1.84600	-122
1.84967	-122
1.85333	-122
1.85700	-121
1.86067	-121
1.86433	-121
1.86800	-121
1.87167	-121
1.87533	-122
1.87900	-122
1.88267	-123
1.88633	-123
1.89000	-123
1.89367	-123
1.89733	-122
1.90100	-122
1.90467	-121
1.90833	-121
1.91200	-121
1.91567	-121
1.91933	-121
1.92300	-120
1.92667	-120
1.93033	-120
1.93400	-120
1.93767	-120
1.94133	-120
1.94500	-120
1.94867	-120
1.95233	-119
1.95600	-118
1.95967	-118
1.96333	-117
1.96700	-117
1.97067	-117
1.97433	-117
1.97800	-117
1.98167	-117
1.98533	-117
1.98900	-116
1.99267	-116
1.99633	-116
2.00000	-116
2.00367	-117
2.00733	-117
2.01100	-116
2.01467	-116
2.01833	-115
2.02200	-114
2.02567	-113
2.02933	-112
2.03300	-111
2.03667	-110
2.04033	-110
2.04400	-109
2.04767	-108
2.05133	-108
2.05500	-108
2.05867	-108
2.06233	-107
2.06600	-107
2.06967	-107
2.07333	-106
2.07700	-107
2.08067	-107
2.08433	-107
2.08800	-107
2.09167	-107
2.09533	-107
2.09900	-107
2.10267	-107
2.10633	-107
2.11000	-107
2.11367	-106
2.11733	-106
2.12100	-105
2.12467	-105
2.12833	-105
2.13200	-105
2.13567	-105
2.13933	-105
2.14300	-105
2.14667	-105
2.15033	-104
2.15400	-103
2.15767	-103
2.16133	-102
2.16500	-101
2.16867	-100
2.17233	-100
2.17600	-100
2.17967	-100
2.18333	-100
2.18700	-100
2.19067	-100
2.19433	-99
2.19800	-98
2.20167	-97
2.20533	-97
2.20900	-96
2.21267	-96
2.21633	-96
2.22000	-96
2.22367	-95
2.22733	-95
2.23100	-95
2.23467	-94
2.23833	-94
2.24200	-93
2.24567	-92
2.24933	-91
2.25300	-91
2.25667	-91
2.26033	-91
2.26400	-92
2.26767	-93
2.27133	-93
2.27500	-93
2.27867	-93
2.28233	-92
2.28600	-91
2.28967	-90
2.29333	-90
2.29700	-89
2.30067	-90
2.30433	-90
2.30800	-90
2.31167	-90
2.31533	-90
2.31900	-90
2.32267	-89
2.32633	-89
2.33000	-88
2.33367	-87
2.33733	-86
2.34100	-85
2.34467	-84
2.34833	-83
2.35200	-82
2.35567	-81
2.35933	-81
2.36300	-80
2.36667	-79
2.37033	-78
2.37400	-77
2.37767	-75
2.38133	-72
2.38500	-68
2.38867	-64
2.39233	-61
2.39600	-56
2.39967	-52
2.40333	-48
2.40700	-44
2.41067	-41
2.41433	-37
2.41800	-34
2.42167	-31
2.42533	-28
2.42900	-26
2.43267	-24
2.43633	-21
2.44000	-19
2.44367	-17
2.44733	-15
2.45100	-13
2.45467	-12
2.45833	-10
2.46200	-8
2.46567	-7
2.46933	-5
2.47300	-4
2.47667	-3
2.48033	-1
2.48400	0
2.48767	1
2.49133	2
2.49500	3
2.49867	3
2.50233	4
2.50600	4
2.50967	5
2.51333	6
2.51700	7
2.52067	7
2.52433	8
2.52800	8
2.53167	9
2.53533	9
2.53900	9
2.54267	10
2.54633	10
2.55000	10
2.55367	10
2.55733	11
2.56100	11
2.56467	12
2.56833	12
2.57200	13
2.57567	13
2.57933	13
2.58300	13
2.58667	12
2.59033	12
2.59400	12
2.59767	12
2.60133	12
2.60500	13
2.60867	13
2.61233	14
2.61600	14
2.61967	14
2.62333	14
2.62700	14
2.63067	14
2.63433	14
2.63800	14
2.64167	14
2.64533	14
2.64900	15
2.65267	15
2.65633	15
2.66000	16
2.66367	16
2.66733	16
2.67100	16
2.67467	17
2.67833	17
2.68200	17
2.68567	17
2.68933	17
2.69300	17
2.69667	17
2.70033	17
2.70400	17
2.70767	18
2.71133	18
2.71500	18
2.71867	18
2.72233	18
2.72600	19
2.72967	19
2.73333	20
2.73700	21
2.74067	21
2.74433	22
2.74800	23
2.75167	23
2.75533	23
2.75900	23
2.76267	23
2.76633	22
2.77000	22
2.77367	21
2.77733	21
2.78100	20
2.78467	20
2.78833	20
2.79200	20
2.79567	20
2.79933	20
2.80300	20
2.80667	20
2.81033	21
2.81400	21
2.81767	22
2.82133	22
2.82500	23
2.82867	23
2.83233	23
2.83600	22
2.83967	21
2.84333	18
2.84700	13
2.85067	6
2.85433	-4
2.85800	-18
2.86167	-36
2.86533	-58
2.86900	-84
2.87267	-114
2.87633	-148
2.88000	-186
2.88367	-227
2.88733	-271
2.89100	-319
2.89467	-368
2.89833	-420
2.90200	-473
2.90567	-526
2.90933	-580
2.91300	-634
2.91667	-688
2.92033	-741
2.92400	-793
2.92767	-845
2.93133	-899
2.93500	-957
2.93867	-1017
2.94233	-1071
2.94600	-1107
2.94967	-1119
2.95333	-1104
2.95700	-1065
2.96067	-1007
2.96433	-936
2.96800	-858
2.97167	-776
2.97533	-695
2.97900	-618
2.98267	-544
2.98633	-477
2.99000	-415
2.99367	-360
2.99733	-311
3.00100	-267
3.00467	-229
3.00833	-195
3.01200	-166
3.01567	-141
3.01933	-119
3.02300	-100
3.02667	-84
3.03033	-70
3.03400	-58
3.03767	-48
3.04133	-39
3.04500	-32
3.04867	-26
3.05233	-20
3.05600	-16
3.05967	-12
3.06333	-9
3.06700	-6
3.07067	-3
3.07433	-1
3.07800	1
3.08167	2
3.08533	3
3.08900	5
3.09267	6
3.09633	7
3.10000	7
3.10367	8
3.10733	9
3.11100	9
3.11467	10
3.11833	11
3.12200	11
3.12567	11
3.12933	12
3.13300	12
3.13667	12
3.14033	13
3.14400	13
3.14767	13
3.15133	14
3.15500	14
3.15867	14
3.16233	14
3.16600	14
3.16967	15
3.17333	15
3.17700	15
3.18067	15
3.18433	15
3.18800	15
3.19167	15
3.19533	15
3.19900	16
3.20267	16
3.20633	16
3.21000	16
3.21367	16
3.21733	17
3.22100	17
3.22467	17
3.22833	17
3.23200	17
3.23567	17
3.23933	17
3.24300	17
3.24667	18
3.25033	18
3.25400	18
3.25767	18
3.26133	19
3.26500	18
3.26867	18
3.27233	19
3.27600	19
3.27967	19
3.28333	20
3.28700	20
3.29067	21
3.29433	21
3.29800	22
3.30167	22
3.30533	22
3.30900	22
3.31267	22
3.31633	23
3.32000	23
3.32367	23
3.32733	23
3.33100	24
3.33467	24
3.33833	24
3.34200	24
3.34567	24
3.34933	24
3.35300	24
3.35667	24
3.36033	24
3.36400	24
3.36767	24
3.37133	24
3.37500	24
3.37867	25
3.38233	25
3.38600	25
3.38967	25
3.39333	25
3.39700	25
3.40067	25
3.40433	25
3.40800	25
3.41167	24
3.41533	24
3.41900	24
3.42267	24
3.42633	24
3.43000	24
3.43367	24
3.43733	24
3.44100	24
3.44467	24
3.44833	24
3.45200	24
3.45567	24
3.45933	25
3.46300	25
3.46667	25
3.47033	24
3.47400	24
3.47767	24
3.48133	24
3.48500	24
3.48867	23
3.49233	23
3.49600	23
3.49967	23
3.50333	22
3.50700	22
3.51067	22
3.51433	22
3.51800	21
3.52167	21
3.52533	21
3.52900	21
3.53267	22
3.53633	21
3.54000	21
3.54367	21
3.54733	21
3.55100	21
3.55467	21
3.55833	21
3.56200	21
3.56567	21
3.56933	21
3.57300	21
3.57667	21
3.58033	21
3.58400	22
3.58767	22
3.59133	21
3.59500	22
3.59867	22
3.60233	22
3.60600	22
3.60967	22
3.61333	22
3.61700	22
3.62067	21
3.62433	21
3.62800	21
3.63167	21
3.63533	21
3.63900	21
3.64267	21
3.64633	21
3.65000	21
3.65367	21
3.65733	20
3.66100	20
3.66467	21
3.66833	21
3.67200	21
3.67567	21
3.67933	21
3.68300	22
3.68667	22
3.69033	22
3.69400	22
3.69767	22
3.70133	22
3.70500	22
3.70867	22
3.71233	22
3.71600	22
3.71967	22
3.72333	22
3.72700	22
3.73067	22
3.73433	22
3.73800	22
3.74167	23
3.74533	23
3.74900	23
3.75267	23
3.75633	23
3.76000	23
3.76367	22
3.76733	22
3.77100	22
3.77467	22
3.77833	22
3.78200	22
3.78567	21
3.78933	21
3.79300	21
3.79667	21
3.80033	21
3.80400	21
3.80767	20
3.81133	20
3.81500	20
3.81867	20
3.82233	20
3.82600	21
3.82967	21
3.83333	21
3.83700	21
3.84067	21
3.84433	21
3.84800	21
3.85167	21
3.85533	21
3.85900	21
3.86267	21
3.86633	22
3.87000	22
3.87367	22
3.87733	22
3.88100	22
3.88467	22
3.88833	22
3.89200	22
3.89567	23
3.89933	23
3.90300	23
3.90667	23
3.91033	22
3.91400	22
3.91767	22
3.92133	22
3.92500	22
3.92867	22
3.93233	22
3.93600	22
3.93967	23
3.94333	22
3.94700	22
3.95067	22
3.95433	22
3.95800	22
3.96167	22
3.96533	21
3.96900	21
3.97267	21
3.97633	21
3.98000	21
3.98367	21
3.98733	21
3.99100	20
3.99467	20
3.99833	20

[Chromatogram (Ch3)]
Interval(msec)	220
# of Points	1091
Start Time(min)	0.002
End Time(min)	3.998
R.Time (min)	Intensity
0.00167	-0
0.00533	-1
0.00900	-1
0.01267	1
0.01633	4
0.02000	5
0.02367	3
0.02733	4
0.03100	3
0.03467	2
0.03833	1
0.04200	-1
0.04567	-2
0.04933	-2
0.05300	0
0.05667	2
0.06033	3
0.06400	5
0.06767	5
0.07133	5
0.07500	6
0.07867	7
0.08233	6
0.08600	3
0.08967	-0
0.09333	-0
0.09700	1
0.10067	3
0.10433	4
0.10800	5
0.11167	7
0.11533	6
0.11900	6
0.12267	5
0.12633	5
0.13000	7
0.13367	6
0.13733	5
0.14100	3
0.14467	4
0.14833	4
0.15200	4
0.15567	4
0.15933	4
0.16300	3
0.16667	2
0.17033	2
0.17400	3
0.17767	5
0.18133	5
0.18500	6
0.18867	8
0.19233	8
0.19600	8
0.19967	7
0.20333	8
0.20700	9
0.21067	10
0.21433	10
0.21800	9
0.22167	7
0.22533	6
0.22900	8
0.23267	8
0.23633	9
0.24000	10
0.24367	11
0.24733	12
0.25100	13
0.25467	11
0.25833	9
0.26200	8
0.26567	9
0.26933	9
0.27300	12
0.27667	14
0.28033	14
0.28400	13
0.28767	13
0.29133	13
0.29500	12
0.29867	14
0.30233	15
0.30600	15
0.30967	14
0.31333	14
0.31700	13
0.32067	11
0.32433	6
0.32800	5
0.33167	7
0.33533	10
0.33900	15
0.34267	18
0.34633	19
0.35000	17
0.35367	13
0.35733	11
0.36100	9
0.36467	9
0.36833	9
0.37200	11
0.37567	14
0.37933	17
0.38300	16
0.38667	15
0.39033	15
0.39400	13
0.39767	12
0.40133	13
0.40500	12
0.40867	11
0.41233	8
0.41600	7
0.41967	9
0.42333	9
0.42700	11
0.43067	13
0.43433	13
0.43800	14
0.44167	16
0.44533	17
0.44900	17
0.45267	18
0.45633	16
0.46000	16
0.46367	18
0.46733	17
0.47100	19
0.47467	21
0.47833	20
0.48200	19
0.48567	15
0.48933	11
0.49300	10
0.49667	9
0.50033	10
0.50400	13
0.50767	14
0.51133	14
0.51500	13
0.51867	14
0.52233	16
0.52600	18
0.52967	20
0.53333	23
0.53700	22
0.54067	21
0.54433	20
0.54800	20
0.55167	21
0.55533	19
0.55900	17
0.56267	15
0.56633	14
0.57000	14
0.57367	14
0.57733	12
0.58100	12
0.58467	14
0.58833	17
0.59200	20
0.59567	21
0.59933	20
0.60300	19
0.60667	19
0.61033	19
0.61400	18
0.61767	18
0.62133	20
0.62500	22
0.62867	24
0.63233	23
0.63600	23
0.63967	22
0.64333	21
0.64700	20
0.65067	20
0.65433	22
0.65800	23
0.66167	25
0.66533	27
0.66900	25
0.67267	26
0.67633	28
0.68000	30
0.68367	28
0.68733	27
0.69100	27
0.69467	26
0.69833	26
0.70200	25
0.70567	24
0.70933	22
0.71300	23
0.71667	22
0.72033	23
0.72400	23
0.72767	22
0.73133	20
0.73500	20
0.73867	21
0.74233	19
0.74600	19
0.74967	20
0.75333	21
0.75700	21
0.76067	22
0.76433	21
0.76800	21
0.77167	21
0.77533	21
0.77900	19
0.78267	19
0.78633	20
0.79000	22
0.79367	23
0.79733	22
0.80100	22
0.80467	23
0.80833	24
0.81200	25
0.81567	26
0.81933	28
0.82300	27
0.82667	26
0.83033	25
0.83400	25
0.83767	26
0.84133	27
0.84500	28
0.84867	27
0.85233	25
0.85600	23
0.85967	21
0.86333	23
0.86700	27
0.87067	29
0.87433	29
0.87800	28
0.88167	27
0.88533	27
0.88900	27
0.89267	28
0.89633	30
0.90000	30
0.90367	29
0.90733	28
0.91100	29
0.91467	29
0.91833	29
0.92200	29
0.92567	31
0.92933	31
0.93300	30
0.93667	30
0.94033	27
0.94400	26
0.94767	24
0.95133	24
0.95500	27
0.95867	30
0.96233	32
0.96600	32
0.96967	30
0.97333	29
0.97700	28
0.98067	29
0.98433	30
0.98800	28
0.99167	28
0.99533	28
0.99900	28
1.00267	27
1.00633	28
1.01000	29
1.01367	31
1.01733	32
1.02100	32
1.02467	30
1.02833	30
1.03200	32
1.03567	33
1.03933	35
1.04300	36
1.04667	38
1.05033	39
1.05400	38
1.05767	36
1.06133	34
1.06500	33
1.06867	32
1.07233	31
1.07600	32
1.07967	32
1.08333	31
1.08700	32
1.09067	36
1.09433	37
1.09800	33
1.10167	32
1.10533	32
1.10900	33
1.11267	33
1.11633	33
1.12000	33
1.12367	35
1.12733	36
1.13100	38
1.13467	38
1.13833	35
1.14200	33
1.14567	32
1.14933	32
1.15300	29
1.15667	26
1.16033	26
1.16400	28
1.16767	29
1.17133	31
1.17500	32
1.17867	34
1.18233	33
1.18600	34
1.18967	34
1.19333	34
1.19700	33
1.20067	32
1.20433	31
1.20800	31
1.21167	30
1.21533	32
1.21900	33
1.22267	33
1.22633	32
1.23000	31
1.23367	32
1.23733	35
1.24100	36
1.24467	35
1.24833	33
1.25200	33
1.25567	33
1.25933	32
1.26300	32
1.26667	34
1.27033	34
1.27400	33
1.27767	34
1.28133	35
1.28500	36
1.28867	35
1.29233	35
1.29600	37
1.29967	39
1.30333	38
1.30700	36
1.31067	35
1.31433	34
1.31800	34
1.32167	35
1.32533	35
1.32900	34
1.33267	33
1.33633	34
1.34000	32
1.34367	33
1.34733	33
1.35100	34
1.35467	35
1.35833	36
1.36200	36
1.36567	36
1.36933	35
1.37300	34
1.37667	34
1.38033	35
1.38400	36
1.38767	35
1.39133	35
1.39500	34
1.39867	36
1.40233	36
1.40600	37
1.40967	37
1.41333	37
1.41700	38
1.42067	40
1.42433	42
1.42800	42
1.43167	44
1.43533	44
1.43900	41
1.44267	39
1.44633	38
1.45000	40
1.45367	41
1.45733	43
1.46100	44
1.46467	45
1.46833	45
1.47200	44
1.47567	43
1.47933	45
1.48300	44
1.48667	43
1.49033	43
1.49400	43
1.49767	43
1.50133	42
1.50500	42
1.50867	43
1.51233	42
1.51600	44
1.51967	45
1.52333	44
1.52700	45
1.53067	46
1.53433	47
1.53800	48
1.54167	46
1.54533	43
1.54900	44
1.55267	45
1.55633	45
1.56000	43
1.56367	41
1.56733	39
1.57100	39
1.57467	41
1.57833	43
1.58200	45
1.58567	45
1.58933	47
1.59300	49
1.59667	50
1.60033	52
1.60400	52
1.60767	51
1.61133	48
1.61500	46
1.61867	47
1.62233	48
1.62600	49
1.62967	50
1.63333	50
1.63700	49
1.64067	49
1.64433	48
1.64800	46
1.65167	45
1.65533	45
1.65900	47
1.66267	49
1.66633	49
1.67000	48
1.67367	52
1.67733	55
1.68100	55
1.68467	53
1.68833	53
1.69200	54
1.69567	53
1.69933	54
1.70300	54
1.70667	54
1.71033	57
1.71400	58
1.71767	59
1.72133	58
1.72500	56
1.72867	54
1.73233	53
1.73600	56
1.73967	58
1.74333	59
1.74700	59
1.75067	61
1.75433	62
1.75800	63
1.76167	67
1.76533	70
1.76900	68
1.77267	64
1.77633	65
1.78000	64
1.78367	64
1.78733	65
1.79100	65
1.79467	66
1.79833	70
1.80200	72
1.80567	72
1.80933	71
1.81300	71
1.81667	70
1.82033	68
1.82400	66
1.82767	67
1.83133	70
1.83500	74
1.83867	77
1.84233	78
1.84600	76
1.84967	77
1.85333	79
1.85700	81
1.86067	81
1.86433	79
1.86800	78
1.87167	81
1.87533	82
1.87900	81
1.88267	82
1.88633	81
1.89000	79
1.89367	78
1.89733	80
1.90100	83
1.90467	85
1.90833	83
1.91200	80
1.91567	81
1.91933	82
1.92300	81
1.92667	81
1.93033	83
1.93400	87
1.93767	90
1.94133	91
1.94500	91
1.94867	90
1.95233	91
1.95600	90
1.95967	90
1.96333	90
1.96700	90
1.97067	94
1.97433	97
1.97800	97
1.98167	98
1.98533	100
1.98900	101
1.99267	102
1.99633	100
2.00000	102
2.00367	105
2.00733	105
2.01100	104
2.01467	104
2.01833	106
2.02200	106
2.02567	105
2.02933	103
2.03300	103
2.03667	105
2.04033	106
2.04400	109
2.04767	111
2.05133	111
2.05500	113
2.05867	115
2.06233	115
2.06600	115
2.06967	116
2.07333	117
2.07700	117
2.08067	116
2.08433	115
2.08800	116
2.09167	116
2.09533	119
2.09900	120
2.10267	121
2.10633	123
2.11000	126
2.11367	130
2.11733	131
2.12100	133
2.12467	136
2.12833	138
2.13200	139
2.13567	139
2.13933	140
2.14300	141
2.14667	140
2.15033	139
2.15400	140
2.15767	140
2.16133	143
2.16500	145
2.16867	147
2.17233	148
2.17600	148
2.17967	149
2.18333	148
2.18700	146
2.19067	144
2.19433	143
2.19800	144
2.20167	147
2.20533	152
2.20900	154
2.21267	156
2.21633	158
2.22000	158
2.22367	158
2.22733	158
2.23100	160
2.23467	161
2.23833	162
2.24200	162
2.24567	165
2.24933	169
2.25300	171
2.25667	171
2.26033	170
2.26400	170
2.26767	171
2.27133	172
2.27500	174
2.27867	175
2.28233	177
2.28600	180
2.28967	182
2.29333	184
2.29700	186
2.30067	188
2.30433	186
2.30800	185
2.31167	186
2.31533	190
2.31900	192
2.32267	194
2.32633	196
2.33000	198
2.33367	200
2.33733	202
2.34100	205
2.34467	208
2.34833	210
2.35200	210
2.35567	210
2.35933	212
2.36300	215
2.36667	217
2.37033	219
2.37400	221
2.37767	222
2.38133	222
2.38500	220
2.38867	220
2.39233	221
2.39600	222
2.39967	224
2.40333	229
2.40700	233
2.41067	236
2.41433	237
2.41800	239
2.42167	242
2.42533	245
2.42900	245
2.43267	246
2.43633	247
2.44000	251
2.44367	283
2.44733	364
2.45100	449
2.45467	518
2.45833	551
2.46200	541
2.46567	505
2.46933	468
2.47300	437
2.47667	416
2.48033	404
2.48400	392
2.48767	372
2.49133	346
2.49500	320
2.49867	295
2.50233	272
2.50600	254
2.50967	242
2.51333	235
2.51700	232
2.52067	230
2.52433	231
2.52800	234
2.53167	239
2.53533	248
2.53900	256
2.54267	263
2.54633	267
2.55000	264
2.55367	255
2.55733	242
2.56100	229
2.56467	215
2.56833	202
2.57200	194
2.57567	186
2.57933	179
2.58300	171
2.58667	169
2.59033	168
2.59400	165
2.59767	159
2.60133	150
2.60500	137
2.60867	121
2.61233	106
2.61600	90
2.61967	72
2.62333	55
2.62700	40
2.63067	30
2.63433	22
2.63800	20
2.64167	21
2.64533	27
2.64900	34
2.65267	43
2.65633	55
2.66000	67
2.66367	77
2.66733	87
2.67100	96
2.67467	103
2.67833	108
2.68200	111
2.68567	116
2.68933	120
2.69300	121
2.69667	122
2.70033	126
2.70400	129
2.70767	129
2.71133	130
2.71500	129
2.71867	125
2.72233	121
2.72600	119
2.72967	115
2.73333	112
2.73700	113
2.74067	115
2.74433	115
2.74800	115
2.75167	112
2.75533	108
2.75900	107
2.76267	106
2.76633	105
2.77000	105
2.77367	109
2.77733	112
2.78100	115
2.78467	116
2.78833	116
2.79200	115
2.79567	117
2.79933	119
2.80300	117
2.80667	117
2.81033	119
2.81400	123
2.81767	132
2.82133	150
2.82500	195
2.82867	282
2.83233	434
2.83600	673
2.83967	1014
2.84333	1456
2.84700	1986
2.85067	2574
2.85433	3175
2.85800	3740
2.86167	4223
2.86533	4590
2.86900	4813
2.87267	4889
2.87633	4832
2.88000	4664
2.88367	4411
2.88733	4100
2.89100	3758
2.89467	3407
2.89833	3061
2.90200	2733
2.90567	2423
2.90933	2140
2.91300	1883
2.91667	1655
2.92033	1454
2.92400	1278
2.92767	1123
2.93133	991
2.93500	876
2.93867	777
2.94233	688
2.94600	610
2.94967	545
2.95333	492
2.95700	445
2.96067	401
2.96433	365
2.96800	334
2.97167	307
2.97533	285
2.97900	265
2.98267	246
2.98633	228
2.99000	214
2.99367	183
2.99733	122
3.00100	59
3.00467	27
3.00833	36
3.01200	73
3.01567	126
3.01933	184
3.02300	243
3.02667	300
3.03033	350
3.03400	398
3.03767	440
3.04133	479
3.04500	513
3.04867	543
3.05233	569
3.05600	592
3.05967	608
3.06333	618
3.06700	625
3.07067	633
3.07433	640
3.07800	646
3.08167	651
3.08533	653
3.08900	653
3.09267	653
3.09633	651
3.10000	649
3.10367	647
3.10733	644
3.11100	641
3.11467	639
3.11833	638
3.12200	636
3.12567	633
3.12933	632
3.13300	632
3.13667	632
3.14033	631
3.14400	630
3.14767	631
3.15133	630
3.15500	629
3.15867	629
3.16233	632
3.16600	636
3.16967	637
3.17333	637
3.17700	636
3.18067	637
3.18433	639
3.18800	641
3.19167	645
3.19533	648
3.19900	650
3.20267	653
3.20633	655
3.21000	658
3.21367	661
3.21733	661
3.22100	660
3.22467	660
3.22833	659
3.23200	661
3.23567	662
3.23933	661
3.24300	659
3.24667	657
3.25033	657
3.25400	657
3.25767	658
3.26133	657
3.26500	655
3.26867	651
3.27233	647
3.27600	642
3.27967	637
3.28333	633
3.28700	627
3.29067	620
3.29433	615
3.29800	614
3.30167	612
3.30533	606
3.30900	599
3.31267	595
3.31633	592
3.32000	587
3.32367	581
3.32733	576
3.33100	573
3.33467	572
3.33833	568
3.34200	563
3.34567	560
3.34933	557
3.35300	553
3.35667	551
3.36033	551
3.36400	551
3.36767	549
3.37133	548
3.37500	547
3.37867	543
3.38233	541
3.38600	539
3.38967	537
3.39333	533
3.39700	530
3.40067	528
3.40433	528
3.40800	528
3.41167	526
3.41533	523
3.41900	521
3.42267	521
3.42633	519
3.43000	518
3.43367	515
3.43733	512
3.44100	510
3.44467	510
3.44833	508
3.45200	505
3.45567	503
3.45933	500
3.46300	496
3.46667	494
3.47033	492
3.47400	491
3.47767	489
3.48133	486
3.48500	484
3.48867	481
3.49233	476
3.49600	474
3.49967	474
3.50333	473
3.50700	471
3.51067	471
3.51433	469
3.51800	467
3.52167	464
3.52533	461
3.52900	460
3.53267	457
3.53633	452
3.54000	450
3.54367	449
3.54733	448
3.55100	447
3.55467	444
3.55833	442
3.56200	442
3.56567	441
3.56933	438
3.57300	435
3.57667	432
3.58033	429
3.58400	426
3.58767	425
3.59133	425
3.59500	424
3.59867	423
3.60233	420
3.60600	416
3.60967	413
3.61333	413
3.61700	415
3.62067	416
3.62433	416
3.62800	415
3.63167	412
3.63533	410
3.63900	411
3.64267	409
3.64633	407
3.65000	406
3.65367	405
3.65733	402
3.66100	401
3.66467	400
3.66833	401
3.67200	403
3.67567	401
3.67933	403
3.68300	405
3.68667	404
3.69033	402
3.69400	400
3.69767	398
3.70133	397
3.70500	395
3.70867	396
3.71233	397
3.71600	397
3.71967	395
3.72333	395
3.72700	394
3.73067	395
3.73433	395
3.73800	394
3.74167	395
3.74533	395
3.74900	396
3.75267	394
3.75633	392
3.76000	391
3.76367	390
3.76733	389
3.77100	392
3.77467	395
3.77833	398
3.78200	401
3.78567	401
3.78933	399
3.79300	397
3.79667	396
3.80033	394
3.80400	393
3.80767	392
3.81133	391
3.81500	392
3.81867	392
3.82233	392
3.82600	392
3.82967	392
3.83333	392
3.83700	392
3.84067	394
3.84433	390
3.84800	387
3.85167	388
3.85533	387
3.85900	384
3.86267	381
3.86633	381
3.87000	382
3.87367	382
3.87733	383
3.88100	385
3.88467	383
3.88833	382
3.89200	380
3.89567	380
3.89933	380
3.90300	380
3.90667	380
3.91033	381
3.91400	382
3.91767	381
3.92133	380
3.92500	377
3.92867	375
3.93233	373
3.93600	370
3.93967	367
3.94333	366
3.94700	366
3.95067	367
3.95433	369
3.95800	368
3.96167	367
3.96533	368
3.96900	367
3.97267	367
3.97633	367
3.98000	366
3.98367	364
3.98733	363
3.99100	363
3.99467	361
3.99833	359

[Status Trace (Column Oven Temperature)]
Interval(msec)	1000
# of Points	240
Start Time(min)	0.006
End Time(min)	3.989
Intensity Units	
Intensity Multiplier	1
R.Time (min)	Intensity
0.00578	35.04
0.02245	35.03
0.03912	35.03
0.05578	35.03
0.07245	35.03
0.08912	35.03
0.10578	35.03
0.12245	35.02
0.13912	35.03
0.15578	35.03
0.17245	35.03
0.18912	35.03
0.20578	35.02
0.22245	35.02
0.23912	35.01
0.25578	35.02
0.27245	35.01
0.28912	35.02
0.30578	35.01
0.32245	35.01
0.33912	35.01
0.35578	35.00
0.37245	34.98
0.38912	34.98
0.40578	34.98
0.42245	34.99
0.43912	34.99
0.45578	35.00
0.47245	35.00
0.48912	35.01
0.50578	35.03
0.52245	35.03
0.53912	35.02
0.55578	35.01
0.57245	35.01
0.58912	35.01
0.60578	35.01
0.62245	35.02
0.63912	35.02
0.65578	35.02
0.67245	35.01
0.68912	35.00
0.70578	34.99
0.72245	34.97
0.73912	34.96
0.75578	34.97
0.77245	34.98
0.78912	34.97
0.80578	34.97
0.82245	34.98
0.83912	35.00
0.85578	35.01
0.87245	35.02
0.88912	35.03
0.90578	35.03
0.92245	35.03
0.93912	35.02
0.95578	35.01
0.97245	35.00
0.98912	35.01
1.00578	35.00
1.02245	35.00
1.03912	34.99
1.05578	34.98
1.07245	34.98
1.08912	34.98
1.10578	34.98
1.12245	34.98
1.13912	34.99
1.15578	34.99
1.17245	34.99
1.18912	34.98
1.20578	34.99
1.22245	34.99
1.23912	35.00
1.25578	35.02
1.27245	35.02
1.28912	35.02
1.30578	35.01
1.32245	35.00
1.33912	34.98
1.35578	34.98
1.37245	34.98
1.38912	34.97
1.40578	34.97
1.42245	34.96
1.43912	34.96
1.45578	34.96
1.47245	34.95
1.48912	34.95
1.50578	34.96
1.52245	34.97
1.53912	34.98
1.55578	34.99
1.57245	34.98
1.58912	34.98
1.60578	35.04
1.62245	35.17
1.63912	35.37
1.65578	35.60
1.67245	35.92
1.68912	36.28
1.70578	36.65
1.72245	36.99
1.73912	37.30
1.75578	37.63
1.77245	37.98
1.78912	38.30
1.80578	38.62
1.82245	38.97
1.83912	39.29
1.85578	39.61
1.87245	39.95
1.88912	40.28
1.90578	40.61
1.92245	40.93
1.93912	41.28
1.95578	41.58
1.97245	41.91
1.98912	42.23
2.00578	42.56
2.02245	42.89
2.03912	43.21
2.05578	43.53
2.07245	43.84
2.08912	44.18
2.10578	44.50
2.12245	44.82
2.13912	45.17
2.15578	45.48
2.17245	45.81
2.18912	46.15
2.20578	46.46
2.22245	46.80
2.23912	47.11
2.25578	47.45
2.27245	47.80
2.28912	48.10
2.30578	48.47
2.32245	48.79
2.33912	49.10
2.35578	49.40
2.37245	49.65
2.38912	49.74
2.40578	49.75
2.42245	49.74
2.43912	49.74
2.45578	49.74
2.47245	49.75
2.48912	49.76
2.50578	49.78
2.52245	49.78
2.53912	49.80
2.55578	49.80
2.57245	49.80
2.58912	49.82
2.60578	49.81
2.62245	49.82
2.63912	49.82
2.65578	49.82
2.67245	49.84
2.68912	49.86
2.70578	49.87
2.72245	49.87
2.73912	49.85
2.75578	49.84
2.77245	49.87
2.78912	49.90
2.80578	49.90
2.82245	49.89
2.83912	49.89
2.85578	49.90
2.87245	49.90
2.88912	49.91
2.90578	49.92
2.92245	49.94
2.93912	49.97
2.95578	49.99
2.97245	50.01
2.98912	50.02
3.00578	50.02
3.02245	50.01
3.03912	50.01
3.05578	50.02
3.07245	50.03
3.08912	50.03
3.10578	50.04
3.12245	50.05
3.13912	50.05
3.15578	50.06
3.17245	50.07
3.18912	50.08
3.20578	50.09
3.22245	50.09
3.23912	50.11
3.25578	50.12
3.27245	50.12
3.28912	50.11
3.30578	50.10
3.32245	50.08
3.33912	50.06
3.35578	50.05
3.37245	50.03
3.38912	50.02
3.40578	50.01
3.42245	50.00
3.43912	49.99
3.45578	49.99
3.47245	49.98
3.48912	49.98
3.50578	49.99
3.52245	49.99
3.53912	50.00
3.55578	50.02
3.57245	50.02
3.58912	50.02
3.60578	50.03
3.62245	50.04
3.63912	50.05
3.65578	50.05
3.67245	50.05
3.68912	50.05
3.70578	50.05
3.72245	50.05
3.73912	50.04
3.75578	50.03
3.77245	50.04
3.78912	50.05
3.80578	50.05
3.82245	50.06
3.83912	50.07
3.85578	50.07
3.87245	50.07
3.88912	50.07
3.90578	50.06
3.92245	50.06
3.93912	50.06
3.95578	50.06
3.97245	50.06
3.98912	50.07

[Status Trace (Injection Unit Temperature)]
Interval(msec)	1000
# of Points	240
Start Time(min)	0.006
End Time(min)	3.989
Intensity Units	
Intensity Multiplier	1
R.Time (min)	Intensity
0.00578	99.98
0.02245	99.98
0.03912	99.98
0.05578	99.98
0.07245	99.98
0.08912	99.98
0.10578	99.98
0.12245	99.98
0.13912	99.98
0.15578	99.98
0.17245	99.98
0.18912	99.98
0.20578	99.99
0.22245	99.98
0.23912	99.99
0.25578	99.98
0.27245	99.99
0.28912	99.98
0.30578	99.98
0.32245	99.98
0.33912	99.98
0.35578	99.98
0.37245	99.98
0.38912	99.98
0.40578	99.98
0.42245	99.98
0.43912	99.99
0.45578	99.98
0.47245	99.99
0.48912	99.98
0.50578	99.98
0.52245	99.98
0.53912	99.98
0.55578	99.98
0.57245	99.98
0.58912	99.99
0.60578	99.98
0.62245	99.98
0.63912	99.98
0.65578	99.99
0.67245	99.98
0.68912	99.98
0.70578	99.98
0.72245	99.98
0.73912	99.98
0.75578	99.98
0.77245	99.98
0.78912	99.99
0.80578	99.98
0.82245	99.98
0.83912	99.98
0.85578	99.98
0.87245	99.99
0.88912	99.98
0.90578	99.98
0.92245	99.98
0.93912	99.98
0.95578	99.98
0.97245	99.98
0.98912	99.98
1.00578	99.99
1.02245	99.98
1.03912	99.98
1.05578	99.98
1.07245	99.98
1.08912	99.98
1.10578	99.98
1.12245	99.98
1.13912	99.98
1.15578	99.98
1.17245	99.98
1.18912	99.98
1.20578	99.98
1.22245	99.98
1.23912	99.98
1.25578	99.98
1.27245	99.98
1.28912	99.98
1.30578	99.98
1.32245	99.98
1.33912	99.98
1.35578	99.98
1.37245	99.98
1.38912	99.98
1.40578	99.98
1.42245	99.98
1.43912	99.98
1.45578	99.98
1.47245	99.98
1.48912	99.99
1.50578	99.98
1.52245	99.98
1.53912	99.98
1.55578	99.98
1.57245	99.98
1.58912	99.98
1.60578	99.99
1.62245	99.98
1.63912	99.99
1.65578	99.98
1.67245	99.98
1.68912	99.99
1.70578	99.98
1.72245	99.98
1.73912	99.98
1.75578	99.98
1.77245	99.98
1.78912	99.98
1.80578	99.98
1.82245	99.98
1.83912	99.98
1.85578	99.98
1.87245	99.98
1.88912	99.98
1.90578	99.98
1.92245	99.98
1.93912	99.98
1.95578	99.97
1.97245	99.98
1.98912	99.97
2.00578	99.98
2.02245	99.97
2.03912	99.98
2.05578	99.97
2.07245	99.97
2.08912	99.97
2.10578	99.97
2.12245	99.97
2.13912	99.97
2.15578	99.97
2.17245	99.97
2.18912	99.97
2.20578	99.97
2.22245	99.97
2.23912	99.97
2.25578	99.97
2.27245	99.96
2.28912	99.97
2.30578	99.97
2.32245	99.97
2.33912	99.96
2.35578	99.96
2.37245	99.96
2.38912	99.96
2.40578	99.96
2.42245	99.97
2.43912	99.97
2.45578	99.96
2.47245	99.97
2.48912	99.97
2.50578	99.97
2.52245	99.97
2.53912	99.97
2.55578	99.97
2.57245	99.97
2.58912	99.98
2.60578	99.98
2.62245	99.98
2.63912	99.98
2.65578	99.98
2.67245	99.98
2.68912	99.98
2.70578	99.98
2.72245	99.99
2.73912	99.99
2.75578	99.99
2.77245	99.99
2.78912	100.00
2.80578	99.99
2.82245	100.00
2.83912	100.00
2.85578	100.00
2.87245	100.00
2.88912	100.01
2.90578	100.00
2.92245	100.00
2.93912	100.01
2.95578	100.01
2.97245	100.01
2.98912	100.01
3.00578	100.02
3.02245	100.01
3.03912	100.02
3.05578	100.01
3.07245	100.02
3.08912	100.02
3.10578	100.02
3.12245	100.02
3.13912	100.03
3.15578	100.02
3.17245	100.03
3.18912	100.02
3.20578	100.02
3.22245	100.02
3.23912	100.03
3.25578	100.03
3.27245	100.03
3.28912	100.03
3.30578	100.03
3.32245	100.03
3.33912	100.03
3.35578	100.03
3.37245	100.03
3.38912	100.03
3.40578	100.03
3.42245	100.03
3.43912	100.04
3.45578	100.04
3.47245	100.03
3.48912	100.04
3.50578	100.04
3.52245	100.04
3.53912	100.04
3.55578	100.04
3.57245	100.04
3.58912	100.04
3.60578	100.04
3.62245	100.04
3.63912	100.04
3.65578	100.04
3.67245	100.04
3.68912	100.05
3.70578	100.04
3.72245	100.04
3.73912	100.05
3.75578	100.05
3.77245	100.04
3.78912	100.04
3.80578	100.04
3.82245	100.05
3.83912	100.04
3.85578	100.04
3.87245	100.04
3.88912	100.04
3.90578	100.04
3.92245	100.05
3.93912	100.04
3.95578	100.04
3.97245	100.05
3.98912	100.05

[Status Trace (Carrier Gas Pressure)]
Interval(msec)	1000
# of Points	240
Start Time(min)	0.006
End Time(min)	3.989
Intensity Units	
Intensity Multiplier	1
R.Time (min)	Intensity
0.00578	58.00
0.02245	55.64
0.03912	56.77
0.05578	59.00
0.07245	59.61
0.08912	58.14
0.10578	57.98
0.12245	58.01
0.13912	58.01
0.15578	58.01
0.17245	58.00
0.18912	58.00
0.20578	58.00
0.22245	58.00
0.23912	58.00
0.25578	58.00
0.27245	58.00
0.28912	58.00
0.30578	58.00
0.32245	58.00
0.33912	58.00
0.35578	58.00
0.37245	58.00
0.38912	58.00
0.40578	58.00
0.42245	58.00
0.43912	58.00
0.45578	58.00
0.47245	58.00
0.48912	58.00
0.50578	58.00
0.52245	58.00
0.53912	58.00
0.55578	58.00
0.57245	58.00
0.58912	58.00
0.60578	58.00
0.62245	58.00
0.63912	58.00
0.65578	58.00
0.67245	58.00
0.68912	58.00
0.70578	58.00
0.72245	58.00
0.73912	58.00
0.75578	58.00
0.77245	58.00
0.78912	58.00
0.80578	58.00
0.82245	58.00
0.83912	58.00
0.85578	58.00
0.87245	58.00
0.88912	58.00
0.90578	58.00
0.92245	58.00
0.93912	58.00
0.95578	58.00
0.97245	58.00
0.98912	58.00
1.00578	58.00
1.02245	58.00
1.03912	58.00
1.05578	58.00
1.07245	58.00
1.08912	58.00
1.10578	58.00
1.12245	58.00
1.13912	58.00
1.15578	58.00
1.17245	58.00
1.18912	58.00
1.20578	58.00
1.22245	58.00
1.23912	58.00
1.25578	58.00
1.27245	58.00
1.28912	58.00
1.30578	58.00
1.32245	58.00
1.33912	58.00
1.35578	58.00
1.37245	58.00
1.38912	58.00
1.40578	58.00
1.42245	58.00
1.43912	58.00
1.45578	58.00
1.47245	58.00
1.48912	58.00
1.50578	58.00
1.52245	58.00
1.53912	58.00
1.55578	58.00
1.57245	58.00
1.58912	58.00
1.60578	58.00
1.62245	58.00
1.63912	58.00
1.65578	58.00
1.67245	58.01
1.68912	58.01
1.70578	58.00
1.72245	58.00
1.73912	58.00
1.75578	58.00
1.77245	58.00
1.78912	58.00
1.80578	58.00
1.82245	58.00
1.83912	58.00
1.85578	58.00
1.87245	58.00
1.88912	58.00
1.90578	58.00
1.92245	58.00
1.93912	58.00
1.95578	58.00
1.97245	58.00
1.98912	58.00
2.00578	58.00
2.02245	58.00
2.03912	58.00
2.05578	58.00
2.07245	58.00
2.08912	58.00
2.10578	58.00
2.12245	58.00
2.13912	58.00
2.15578	58.00
2.17245	58.00
2.18912	58.00
2.20578	58.00
2.22245	58.00
2.23912	58.00
2.25578	58.00
2.27245	58.00
2.28912	58.00
2.30578	58.00
2.32245	58.00
2.33912	58.00
2.35578	58.00
2.37245	58.00
2.38912	57.99
2.40578	57.99
2.42245	58.00
2.43912	58.00
2.45578	58.00
2.47245	58.00
2.48912	58.00
2.50578	57.99
2.52245	57.98
2.53912	58.00
2.55578	58.00
2.57245	58.00
2.58912	58.00
2.60578	58.00
2.62245	58.00
2.63912	58.00
2.65578	58.00
2.67245	58.00
2.68912	58.00
2.70578	58.00
2.72245	58.00
2.73912	58.00
2.75578	58.00
2.77245	58.00
2.78912	58.00
2.80578	58.00
2.82245	58.00
2.83912	58.00
2.85578	58.00
2.87245	58.00
2.88912	58.00
2.90578	58.00
2.92245	58.00
2.93912	58.00
2.95578	58.00
2.97245	58.00
2.98912	58.00
3.00578	58.00
3.02245	58.00
3.03912	58.00
3.05578	58.00
3.07245	58.00
3.08912	58.00
3.10578	58.00
3.12245	58.00
3.13912	58.00
3.15578	58.00
3.17245	58.00
3.18912	58.00
3.20578	58.00
3.22245	58.00
3.23912	58.00
3.25578	58.00
3.27245	58.00
3.28912	58.00
3.30578	58.00
3.32245	58.00
3.33912	58.00
3.35578	58.00
3.37245	58.00
3.38912	58.00
3.40578	58.00
3.42245	58.00
3.43912	58.00
3.45578	58.00
3.47245	58.00
3.48912	58.00
3.50578	58.00
3.52245	58.00
3.53912	58.00
3.55578	58.00
3.57245	58.00
3.58912	58.00
3.60578	58.00
3.62245	58.00
3.63912	58.00
3.65578	58.00
3.67245	58.00
3.68912	58.00
3.70578	58.00
3.72245	58.00
3.73912	58.00
3.75578	58.00
3.77245	58.00
3.78912	58.00
3.80578	58.00
3.82245	58.00
3.83912	58.00
3.85578	58.00
3.87245	58.00
3.88912	58.00
3.90578	58.00
3.92245	58.00
3.93912	58.00
3.95578	58.00
3.97245	58.00
3.98912	58.00

[Status Trace (Carrier Gas Flow)]
Interval(msec)	1000
# of Points	240
Start Time(min)	0.006
End Time(min)	3.989
Intensity Units	
Intensity Multiplier	1
R.Time (min)	Intensity
0.00578	34.51
0.02245	34.54
0.03912	34.54
0.05578	34.55
0.07245	34.49
0.08912	34.52
0.10578	34.52
0.12245	34.52
0.13912	34.52
0.15578	34.52
0.17245	34.52
0.18912	34.52
0.20578	34.52
0.22245	34.52
0.23912	34.52
0.25578	34.52
0.27245	34.52
0.28912	34.52
0.30578	34.52
0.32245	34.52
0.33912	34.52
0.35578	34.52
0.37245	34.52
0.38912	34.51
0.40578	34.52
0.42245	34.52
0.43912	34.52
0.45578	34.52
0.47245	34.52
0.48912	34.52
0.50578	34.52
0.52245	34.52
0.53912	34.52
0.55578	34.52
0.57245	34.52
0.58912	34.52
0.60578	34.52
0.62245	34.52
0.63912	34.52
0.65578	34.51
0.67245	34.52
0.68912	34.52
0.70578	34.52
0.72245	34.52
0.73912	34.52
0.75578	34.52
0.77245	34.52
0.78912	34.52
0.80578	34.52
0.82245	34.52
0.83912	34.52
0.85578	34.52
0.87245	34.52
0.88912	34.52
0.90578	34.52
0.92245	34.52
0.93912	34.52
0.95578	34.52
0.97245	34.52
0.98912	34.52
1.00578	34.52
1.02245	34.52
1.03912	34.52
1.05578	34.51
1.07245	34.52
1.08912	34.52
1.10578	34.52
1.12245	34.52
1.13912	34.52
1.15578	34.52
1.17245	34.52
1.18912	34.52
1.20578	34.52
1.22245	34.52
1.23912	34.52
1.25578	34.52
1.27245	34.52
1.28912	34.52
1.30578	34.52
1.32245	34.52
1.33912	34.52
1.35578	34.52
1.37245	34.52
1.38912	34.52
1.40578	34.52
1.42245	34.52
1.43912	34.52
1.45578	34.52
1.47245	34.52
1.48912	34.52
1.50578	34.52
1.52245	34.52
1.53912	34.52
1.55578	34.52
1.57245	34.52
1.58912	34.51
1.60578	34.52
1.62245	34.52
1.63912	34.52
1.65578	34.52
1.67245	34.52
1.68912	34.52
1.70578	34.52
1.72245	34.52
1.73912	34.52
1.75578	34.52
1.77245	34.52
1.78912	34.52
1.80578	34.52
1.82245	34.52
1.83912	34.52
1.85578	34.52
1.87245	34.52
1.88912	34.52
1.90578	34.52
1.92245	34.52
1.93912	34.52
1.95578	34.52
1.97245	34.52
1.98912	34.52
2.00578	34.52
2.02245	34.52
2.03912	34.52
2.05578	34.52
2.07245	34.52
2.08912	34.52
2.10578	34.52
2.12245	34.52
2.13912	34.52
2.15578	34.52
2.17245	34.52
2.18912	34.52
2.20578	34.52
2.22245	34.52
2.23912	34.52
2.25578	34.52
2.27245	34.52
2.28912	34.52
2.30578	34.52
2.32245	34.52
2.33912	34.52
2.35578	34.52
2.37245	34.52
2.38912	34.52
2.40578	34.52
2.42245	34.52
2.43912	34.52
2.45578	34.52
2.47245	34.52
2.48912	34.52
2.50578	34.50
2.52245	34.52
2.53912	34.52
2.55578	34.52
2.57245	34.52
2.58912	34.51
2.60578	34.52
2.62245	34.52
2.63912	34.51
2.65578	34.52
2.67245	34.52
2.68912	34.52
2.70578	34.52
2.72245	34.52
2.73912	34.52
2.75578	34.52
2.77245	34.52
2.78912	34.51
2.80578	34.52
2.82245	34.52
2.83912	34.52
2.85578	34.51
2.87245	34.52
2.88912	34.52
2.90578	34.52
2.92245	34.51
2.93912	34.52
2.95578	34.51
2.97245	34.52
2.98912	34.52
3.00578	34.51
3.02245	34.52
3.03912	34.52
3.05578	34.52
3.07245	34.52
3.08912	34.52
3.10578	34.52
3.12245	34.52
3.13912	34.51
3.15578	34.52
3.17245	34.52
3.18912	34.52
3.20578	34.52
3.22245	34.52
3.23912	34.52
3.25578	34.52
3.27245	34.52
3.28912	34.52
3.30578	34.52
3.32245	34.52
3.33912	34.52
3.35578	34.52
3.37245	34.52
3.38912	34.52
3.40578	34.52
3.42245	34.52
3.43912	34.52
3.45578	34.52
3.47245	34.52
3.48912	34.52
3.50578	34.52
3.52245	34.52
3.53912	34.52
3.55578	34.52
3.57245	34.52
3.58912	34.52
3.60578	34.52
3.62245	34.52
3.63912	34.52
3.65578	34.52
3.67245	34.52
3.68912	34.52
3.70578	34.52
3.72245	34.52
3.73912	34.52
3.75578	34.52
3.77245	34.52
3.78912	34.52
3.80578	34.52
3.82245	34.52
3.83912	34.52
3.85578	34.52
3.87245	34.51
3.88912	34.52
3.90578	34.52
3.92245	34.52
3.93912	34.52
3.95578	34.52
3.97245	34.52
3.98912	34.52

[Status Trace (Column Flow)]
Interval(msec)	1000
# of Points	240
Start Time(min)	0.006
End Time(min)	3.989
Intensity Units	
Intensity Multiplier	1
R.Time (min)	Intensity
0.00578	5.57
0.02245	5.30
0.03912	5.43
0.05578	5.69
0.07245	5.76
0.08912	5.59
0.10578	5.57
0.12245	5.58
0.13912	5.58
0.15578	5.58
0.17245	5.57
0.18912	5.57
0.20578	5.57
0.22245	5.57
0.23912	5.57
0.25578	5.57
0.27245	5.57
0.28912	5.57
0.30578	5.58
0.32245	5.58
0.33912	5.58
0.35578	5.58
0.37245	5.58
0.38912	5.58
0.40578	5.58
0.42245	5.58
0.43912	5.58
0.45578	5.58
0.47245	5.57
0.48912	5.57
0.50578	5.57
0.52245	5.57
0.53912	5.57
0.55578	5.57
0.57245	5.57
0.58912	5.57
0.60578	5.57
0.62245	5.57
0.63912	5.57
0.65578	5.57
0.67245	5.57
0.68912	5.57
0.70578	5.58
0.72245	5.58
0.73912	5.58
0.75578	5.58
0.77245	5.58
0.78912	5.58
0.80578	5.58
0.82245	5.58
0.83912	5.58
0.85578	5.57
0.87245	5.57
0.88912	5.57
0.90578	5.57
0.92245	5.57
0.93912	5.57
0.95578	5.57
0.97245	5.57
0.98912	5.58
1.00578	5.58
1.02245	5.58
1.03912	5.58
1.05578	5.58
1.07245	5.58
1.08912	5.58
1.10578	5.58
1.12245	5.58
1.13912	5.58
1.15578	5.58
1.17245	5.58
1.18912	5.58
1.20578	5.58
1.22245	5.58
1.23912	5.58
1.25578	5.57
1.27245	5.57
1.28912	5.57
1.30578	5.57
1.32245	5.58
1.33912	5.58
1.35578	5.58
1.37245	5.58
1.38912	5.58
1.40578	5.58
1.42245	5.58
1.43912	5.58
1.45578	5.58
1.47245	5.58
1.48912	5.58
1.50578	5.58
1.52245	5.58
1.53912	5.58
1.55578	5.58
1.57245	5.58
1.58912	5.58
1.60578	5.57
1.62245	5.57
1.63912	5.56
1.65578	5.56
1.67245	5.55
1.68912	5.54
1.70578	5.52
1.72245	5.51
1.73912	5.50
1.75578	5.49
1.77245	5.48
1.78912	5.47
1.80578	5.46
1.82245	5.45
1.83912	5.44
1.85578	5.43
1.87245	5.42
1.88912	5.41
1.90578	5.40
1.92245	5.39
1.93912	5.38
1.95578	5.37
1.97245	5.36
1.98912	5.35
2.00578	5.34
2.02245	5.33
2.03912	5.32
2.05578	5.31
2.07245	5.30
2.08912	5.30
2.10578	5.28
2.12245	5.28
2.13912	5.27
2.15578	5.26
2.17245	5.25
2.18912	5.24
2.20578	5.23
2.22245	5.22
2.23912	5.21
2.25578	5.20
2.27245	5.19
2.28912	5.18
2.30578	5.17
2.32245	5.16
2.33912	5.15
2.35578	5.14
2.37245	5.14
2.38912	5.13
2.40578	5.13
2.42245	5.13
2.43912	5.13
2.45578	5.13
2.47245	5.13
2.48912	5.13
2.50578	5.13
2.52245	5.13
2.53912	5.13
2.55578	5.13
2.57245	5.13
2.58912	5.13
2.60578	5.13
2.62245	5.13
2.63912	5.13
2.65578	5.13
2.67245	5.13
2.68912	5.13
2.70578	5.13
2.72245	5.13
2.73912	5.13
2.75578	5.13
2.77245	5.13
2.78912	5.13
2.80578	5.13
2.82245	5.13
2.83912	5.13
2.85578	5.13
2.87245	5.13
2.88912	5.13
2.90578	5.13
2.92245	5.13
2.93912	5.13
2.95578	5.13
2.97245	5.13
2.98912	5.13
3.00578	5.13
3.02245	5.13
3.03912	5.13
3.05578	5.13
3.07245	5.13
3.08912	5.13
3.10578	5.13
3.12245	5.13
3.13912	5.13
3.15578	5.13
3.17245	5.13
3.18912	5.13
3.20578	5.13
3.22245	5.13
3.23912	5.12
3.25578	5.12
3.27245	5.12
3.28912	5.12
3.30578	5.13
3.32245	5.13
3.33912	5.13
3.35578	5.13
3.37245	5.13
3.38912	5.13
3.40578	5.13
3.42245	5.13
3.43912	5.13
3.45578	5.13
3.47245	5.13
3.48912	5.13
3.50578	5.13
3.52245	5.13
3.53912	5.13
3.55578	5.13
3.57245	5.13
3.58912	5.13
3.60578	5.13
3.62245	5.13
3.63912	5.13
3.65578	5.13
3.67245	5.13
3.68912	5.13
3.70578	5.13
3.72245	5.13
3.73912	5.13
3.75578	5.13
3.77245	5.13
3.78912	5.13
3.80578	5.13
3.82245	5.13
3.83912	5.13
3.85578	5.13
3.87245	5.13
3.88912	5.13
3.90578	5.13
3.92245	5.13
3.93912	5.13
3.95578	5.13
3.97245	5.13
3.98912	5.13

[Status Trace (Linear Velocity)]
Interval(msec)	1000
# of Points	240
Start Time(min)	0.006
End Time(min)	3.989
Intensity Units	
Intensity Multiplier	1
R.Time (min)	Intensity
0.00578	39.03
0.02245	37.48
0.03912	38.22
0.05578	39.68
0.07245	40.08
0.08912	39.12
0.10578	39.01
0.12245	39.03
0.13912	39.03
0.15578	39.03
0.17245	39.03
0.18912	39.03
0.20578	39.03
0.22245	39.03
0.23912	39.03
0.25578	39.03
0.27245	39.03
0.28912	39.03
0.30578	39.03
0.32245	39.03
0.33912	39.03
0.35578	39.03
0.37245	39.03
0.38912	39.03
0.40578	39.03
0.42245	39.03
0.43912	39.03
0.45578	39.03
0.47245	39.03
0.48912	39.03
0.50578	39.03
0.52245	39.03
0.53912	39.03
0.55578	39.03
0.57245	39.03
0.58912	39.03
0.60578	39.03
0.62245	39.03
0.63912	39.03
0.65578	39.03
0.67245	39.03
0.68912	39.03
0.70578	39.03
0.72245	39.03
0.73912	39.03
0.75578	39.03
0.77245	39.03
0.78912	39.03
0.80578	39.03
0.82245	39.03
0.83912	39.03
0.85578	39.03
0.87245	39.03
0.88912	39.03
0.90578	39.03
0.92245	39.03
0.93912	39.03
0.95578	39.03
0.97245	39.03
0.98912	39.03
1.00578	39.03
1.02245	39.03
1.03912	39.03
1.05578	39.03
1.07245	39.03
1.08912	39.03
1.10578	39.03
1.12245	39.03
1.13912	39.03
1.15578	39.03
1.17245	39.03
1.18912	39.03
1.20578	39.03
1.22245	39.03
1.23912	39.03
1.25578	39.03
1.27245	39.03
1.28912	39.03
1.30578	39.03
1.32245	39.03
1.33912	39.03
1.35578	39.03
1.37245	39.03
1.38912	39.03
1.40578	39.03
1.42245	39.03
1.43912	39.03
1.45578	39.03
1.47245	39.03
1.48912	39.03
1.50578	39.03
1.52245	39.03
1.53912	39.03
1.55578	39.03
1.57245	39.03
1.58912	39.03
1.60578	39.03
1.62245	39.02
1.63912	39.00
1.65578	38.97
1.67245	38.94
1.68912	38.91
1.70578	38.87
1.72245	38.84
1.73912	38.81
1.75578	38.78
1.77245	38.75
1.78912	38.72
1.80578	38.68
1.82245	38.65
1.83912	38.62
1.85578	38.59
1.87245	38.56
1.88912	38.53
1.90578	38.50
1.92245	38.47
1.93912	38.44
1.95578	38.41
1.97245	38.38
1.98912	38.35
2.00578	38.32
2.02245	38.29
2.03912	38.26
2.05578	38.23
2.07245	38.20
2.08912	38.17
2.10578	38.14
2.12245	38.11
2.13912	38.08
2.15578	38.05
2.17245	38.02
2.18912	37.99
2.20578	37.96
2.22245	37.93
2.23912	37.90
2.25578	37.87
2.27245	37.84
2.28912	37.82
2.30578	37.78
2.32245	37.75
2.33912	37.73
2.35578	37.70
2.37245	37.68
2.38912	37.66
2.40578	37.66
2.42245	37.67
2.43912	37.67
2.45578	37.67
2.47245	37.67
2.48912	37.67
2.50578	37.66
2.52245	37.65
2.53912	37.66
2.55578	37.66
2.57245	37.66
2.58912	37.66
2.60578	37.66
2.62245	37.66
2.63912	37.66
2.65578	37.66
2.67245	37.66
2.68912	37.66
2.70578	37.66
2.72245	37.66
2.73912	37.66
2.75578	37.66
2.77245	37.66
2.78912	37.65
2.80578	37.65
2.82245	37.65
2.83912	37.65
2.85578	37.65
2.87245	37.65
2.88912	37.65
2.90578	37.65
2.92245	37.65
2.93912	37.65
2.95578	37.65
2.97245	37.64
2.98912	37.64
3.00578	37.64
3.02245	37.64
3.03912	37.64
3.05578	37.64
3.07245	37.64
3.08912	37.64
3.10578	37.64
3.12245	37.64
3.13912	37.64
3.15578	37.64
3.17245	37.64
3.18912	37.64
3.20578	37.64
3.22245	37.64
3.23912	37.64
3.25578	37.63
3.27245	37.63
3.28912	37.63
3.30578	37.64
3.32245	37.64
3.33912	37.64
3.35578	37.64
3.37245	37.64
3.38912	37.64
3.40578	37.64
3.42245	37.64
3.43912	37.65
3.45578	37.65
3.47245	37.65
3.48912	37.65
3.50578	37.65
3.52245	37.65
3.53912	37.64
3.55578	37.64
3.57245	37.64
3.58912	37.64
3.60578	37.64
3.62245	37.64
3.63912	37.64
3.65578	37.64
3.67245	37.64
3.68912	37.64
3.70578	37.64
3.72245	37.64
3.73912	37.64
3.75578	37.64
3.77245	37.64
3.78912	37.64
3.80578	37.64
3.82245	37.64
3.83912	37.64
3.85578	37.64
3.87245	37.64
3.88912	37.64
3.90578	37.64
3.92245	37.64
3.93912	37.64
3.95578	37.64
3.97245	37.64
3.98912	37.64

