[Header]
Application Name	LabSolutions
Version	5.110
Data File Name	C:\Users\User\Desktop\GC Analyses\Jack\Nachusa Grasslands Sampling\T0 Timepoint July 12th\T0_07122022_031.gcd
Output Date	3/14/2023
Output Time	3:40:35 PM

[File Information]
Type	Data File
Generated	3/7/2023 5:09:22 PM
Generated by	System Administrator
Modified	3/7/2023 5:15:56 PM
Modified by	System Administrator

[Sample Information]
Operator Name	System Administrator
Acquired	3/7/2023 5:11:55 PM
Sample Type	0:Unknown
Level	0
Sample Name	031
Sample ID	031
ISTD Amount1	1
ISTD Amount2	1
ISTD Amount3	1
ISTD Amount4	1
ISTD Amount5	1
ISTD Amount6	1
ISTD Amount7	1
ISTD Amount8	1
ISTD Amount9	1
ISTD Amount10	1
ISTD Amount11	1
ISTD Amount12	1
ISTD Amount13	1
ISTD Amount14	1
ISTD Amount15	1
ISTD Amount16	1
ISTD Amount17	1
ISTD Amount18	1
ISTD Amount19	1
ISTD Amount20	1
ISTD Amount21	1
ISTD Amount22	1
ISTD Amount23	1
ISTD Amount24	1
ISTD Amount25	1
ISTD Amount26	1
ISTD Amount27	1
ISTD Amount28	1
ISTD Amount29	1
ISTD Amount30	1
ISTD Amount31	1
ISTD Amount32	1
Sample Amount	1
Dilution Factor	1
Vial#	30
Injection Volume	1
Injection Count	1
Bar Code	

[Original Files]
Data File	C:\Users\User\Desktop\GC Analyses\Jack\Nachusa Grasslands Sampling\T0 Timepoint July 12th\T0_07122022_031.gcd
Method File	C:\LabSolutions\Data\GHG_4min_2022\ghg3_togas_w_acet_4 min_new_int.gcm
Batch File	C:\LabSolutions\Data\AutoSamplerTesting\T0_07122022.gcb
Report Format File	c:\LabSolutions\System\DEFAULT.lsr

[File Description]


[Configuration]
Instrument Name	C0B7VH3-Instrument1
Instrument #	1
Line #	1
# of Detectors	3
Detector ID	DET#1	DET#2	DET#3
Detector Name	FID	PTCD	ECD
# of Channels	1	1	1

[Peak Table(Ch1)]
# of Peaks	3
Peak#	R.Time	I.Time	F.Time	Area	Height	A/H	Conc.	Mark	ID#	Name	k'	Plate #	Plate Ht.	Tailing	Resolution	Sep.Factor	Area Ratio	Height Ratio	Conc. %	Norm Conc.
1	1.476	1.432	1.538	26177	12281	2.131	184.807	   	1	CO	0.000	9113	16.460	1.366	0.000	0.000	0	0	32.017	32.017
2	1.571	1.538	1.630	4882	2354	2.074	94.398	 V 	2	CH4	0.065	10458	14.344	0.000	1.547	0.000	0	0	16.354	16.354
3	2.000	1.952	2.495	1187457	558682	2.125	298.020	   	3	CO2	0.355	17437	8.602	1.181	7.031	5.500	0	0	51.630	51.630

[Peak Table(Ch2)]
# of Peaks	0

[Peak Table(Ch3)]
# of Peaks	5
Peak#	R.Time	I.Time	F.Time	Area	Height	A/H	Conc.	Mark	ID#	Name	k'	Plate #	Plate Ht.	Tailing	Resolution	Sep.Factor	Area Ratio	Height Ratio	Conc. %	Norm Conc.
1	2.462	2.139	2.524	2165	378	5.731	0.000	   			0.000	5450	27.524	0.000	0.000	0.000	0	0	0.000	0.000
2	2.554	2.524	2.634	993	221	4.492	0.000	 V 			0.037	2161	69.402	0.000	0.519	0.000	0	0	0.000	0.000
3	2.726	2.649	2.810	826	108	7.653	0.021	   	1	N2O	0.107	170	882.356	0.000	0.326	2.880	0	0	4.377	4.377
4	2.873	2.810	3.129	18048	4670	3.865	0.461	 V 	1	N2O	0.167	13305	11.274	1.642	0.313	1.556	0	0	95.623	95.623
5	3.393	3.243	3.962	11090	501	22.137	0.000	   	2	SF6	0.378	537	279.378	2.310	1.519	2.268	0	0	0.000	0.000

[Compound Results(Ch1)]
# of IDs	6
ID#	Name	R.Time	Area	Height	Conc.	Curve	3rd	2nd	1st	Constant	Area Ratio	Height Ratio	Conc. %	Norm Conc.
1	CO	1.476	26177	12281	184.807	Linear	0.000000e+00	0.000000e+00	1.416423e+002	0.000000e+00	0	0	32.017	32.017
2	CH4	1.571	4882	2354	94.398	Linear	0.000000e+00	0.000000e+00	5.171738e+001	0.000000e+00	0	0	16.354	16.354
3	CO2	2.000	1187457	558682	298.020	Linear	0.000000e+00	0.000000e+00	3.984494e+003	0.000000e+00	0	0	51.630	51.630
4	Ethylene	0.000	0	0	0.000	Linear	0.000000e+00	0.000000e+00	0.000000e+00	0.000000e+00	0	0	0.000	0.000
5	Acetylene	0.000	0	0	0.000	Linear	0.000000e+00	0.000000e+00	0.000000e+00	0.000000e+00	0	0	0.000	0.000
6	Ethane	0.000	0	0	0.000	Linear	0.000000e+00	0.000000e+00	0.000000e+00	0.000000e+00	0	0	0.000	0.000

[Compound Results(Ch2)]
# of IDs	5
ID#	Name	R.Time	Area	Height	Conc.	Curve	3rd	2nd	1st	Constant	Area Ratio	Height Ratio	Conc. %	Norm Conc.
1	Hydrogen	0.000	0	0	0.000	Linear	0.000000e+00	0.000000e+00	0.000000e+00	0.000000e+00	0	0	0.000	0.000
2	Oxygen	0.000	0	0	0.000	Linear	0.000000e+00	0.000000e+00	0.000000e+00	0.000000e+00	0	0	0.000	0.000
3	Nitrogen	0.000	0	0	0.000	Linear	0.000000e+00	0.000000e+00	0.000000e+00	0.000000e+00	0	0	0.000	0.000
4	Methane	0.000	0	0	0.000	Linear	0.000000e+00	0.000000e+00	0.000000e+00	0.000000e+00	0	0	0.000	0.000
5	Carbon Monoxide	0.000	0	0	0.000	Linear	0.000000e+00	0.000000e+00	0.000000e+00	0.000000e+00	0	0	0.000	0.000

[Compound Results(Ch3)]
# of IDs	2
ID#	Name	R.Time	Area	Height	Conc.	Curve	3rd	2nd	1st	Constant	Area Ratio	Height Ratio	Conc. %	Norm Conc.
1	N2O	2.873	18875	4777	0.482	Linear	0.000000e+00	0.000000e+00	3.915173e+004	0.000000e+00	0	0	100.000	100.000
2	SF6	3.393	11090	501	0.000	Linear	0.000000e+00	0.000000e+00	0.000000e+00	0.000000e+00	0	0	0.000	0.000

[Group Results(Ch1)]
# of Groups	0

[Group Results(Ch2)]
# of Groups	0

[Group Results(Ch3)]
# of Groups	0

[Chromatogram (Ch1)]
Interval(msec)	220
# of Points	1091
Start Time(min)	0.002
End Time(min)	3.998
R.Time (min)	Intensity
0.00167	-3
0.00533	-2
0.00900	2
0.01267	7
0.01633	11
0.02000	14
0.02367	15
0.02733	14
0.03100	13
0.03467	12
0.03833	6
0.04200	-1
0.04567	-7
0.04933	-9
0.05300	-8
0.05667	-10
0.06033	-13
0.06400	-14
0.06767	-14
0.07133	-12
0.07500	-10
0.07867	-8
0.08233	-8
0.08600	-8
0.08967	-4
0.09333	0
0.09700	3
0.10067	2
0.10433	2
0.10800	1
0.11167	-1
0.11533	-1
0.11900	2
0.12267	7
0.12633	14
0.13000	20
0.13367	24
0.13733	22
0.14100	14
0.14467	5
0.14833	-2
0.15200	-4
0.15567	-2
0.15933	-2
0.16300	-3
0.16667	-7
0.17033	-16
0.17400	-26
0.17767	-31
0.18133	-31
0.18500	-30
0.18867	-30
0.19233	-25
0.19600	-13
0.19967	-0
0.20333	8
0.20700	11
0.21067	11
0.21433	13
0.21800	9
0.22167	1
0.22533	0
0.22900	8
0.23267	17
0.23633	24
0.24000	23
0.24367	18
0.24733	17
0.25100	20
0.25467	21
0.25833	17
0.26200	7
0.26567	-4
0.26933	-13
0.27300	-19
0.27667	-20
0.28033	-17
0.28400	-15
0.28767	-13
0.29133	-11
0.29500	-8
0.29867	-5
0.30233	-2
0.30600	2
0.30967	6
0.31333	8
0.31700	10
0.32067	14
0.32433	22
0.32800	33
0.33167	52
0.33533	70
0.33900	78
0.34267	73
0.34633	61
0.35000	50
0.35367	43
0.35733	36
0.36100	31
0.36467	29
0.36833	34
0.37200	41
0.37567	49
0.37933	54
0.38300	58
0.38667	60
0.39033	63
0.39400	70
0.39767	78
0.40133	84
0.40500	88
0.40867	90
0.41233	90
0.41600	84
0.41967	80
0.42333	78
0.42700	78
0.43067	80
0.43433	82
0.43800	82
0.44167	78
0.44533	73
0.44900	66
0.45267	58
0.45633	51
0.46000	46
0.46367	45
0.46733	46
0.47100	48
0.47467	48
0.47833	47
0.48200	47
0.48567	47
0.48933	45
0.49300	43
0.49667	44
0.50033	43
0.50400	41
0.50767	39
0.51133	35
0.51500	30
0.51867	24
0.52233	17
0.52600	10
0.52967	3
0.53333	-2
0.53700	-3
0.54067	-3
0.54433	-3
0.54800	-4
0.55167	-8
0.55533	-11
0.55900	-8
0.56267	-4
0.56633	2
0.57000	7
0.57367	8
0.57733	7
0.58100	7
0.58467	11
0.58833	14
0.59200	13
0.59567	6
0.59933	0
0.60300	-1
0.60667	4
0.61033	13
0.61400	21
0.61767	25
0.62133	21
0.62500	16
0.62867	8
0.63233	-2
0.63600	-8
0.63967	-10
0.64333	-11
0.64700	-13
0.65067	-19
0.65433	-25
0.65800	-27
0.66167	-23
0.66533	-14
0.66900	-5
0.67267	-2
0.67633	-6
0.68000	-15
0.68367	-19
0.68733	-18
0.69100	-18
0.69467	-18
0.69833	-18
0.70200	-15
0.70567	-12
0.70933	-6
0.71300	-0
0.71667	5
0.72033	12
0.72400	19
0.72767	22
0.73133	19
0.73500	12
0.73867	1
0.74233	-10
0.74600	-19
0.74967	-23
0.75333	-26
0.75700	-26
0.76067	-23
0.76433	-19
0.76800	-16
0.77167	-14
0.77533	-11
0.77900	-8
0.78267	-6
0.78633	-2
0.79000	2
0.79367	3
0.79733	5
0.80100	6
0.80467	5
0.80833	2
0.81200	-3
0.81567	-9
0.81933	-13
0.82300	-16
0.82667	-15
0.83033	-14
0.83400	-14
0.83767	-15
0.84133	-17
0.84500	-18
0.84867	-18
0.85233	-14
0.85600	-7
0.85967	-3
0.86333	-4
0.86700	-5
0.87067	-4
0.87433	-6
0.87800	-12
0.88167	-20
0.88533	-28
0.88900	-31
0.89267	-30
0.89633	-29
0.90000	-30
0.90367	-31
0.90733	-31
0.91100	-28
0.91467	-25
0.91833	-24
0.92200	-23
0.92567	-19
0.92933	-14
0.93300	-13
0.93667	-16
0.94033	-21
0.94400	-25
0.94767	-26
0.95133	-25
0.95500	-24
0.95867	-23
0.96233	-24
0.96600	-28
0.96967	-29
0.97333	-25
0.97700	-21
0.98067	-20
0.98433	-23
0.98800	-27
0.99167	-29
0.99533	-30
0.99900	-32
1.00267	-32
1.00633	-29
1.01000	-24
1.01367	-19
1.01733	-19
1.02100	-25
1.02467	-32
1.02833	-38
1.03200	-39
1.03567	-33
1.03933	-25
1.04300	-16
1.04667	-10
1.05033	-10
1.05400	-15
1.05767	-24
1.06133	-33
1.06500	-42
1.06867	-46
1.07233	-47
1.07600	-43
1.07967	-39
1.08333	-37
1.08700	-36
1.09067	-35
1.09433	-38
1.09800	-43
1.10167	-44
1.10533	-43
1.10900	-44
1.11267	-50
1.11633	-57
1.12000	-63
1.12367	-65
1.12733	-61
1.13100	-52
1.13467	-45
1.13833	-43
1.14200	-44
1.14567	-45
1.14933	-44
1.15300	-44
1.15667	-46
1.16033	-47
1.16400	-45
1.16767	-42
1.17133	-38
1.17500	-36
1.17867	-35
1.18233	-34
1.18600	-35
1.18967	-38
1.19333	-42
1.19700	-45
1.20067	-46
1.20433	-45
1.20800	-44
1.21167	-45
1.21533	-44
1.21900	-41
1.22267	-40
1.22633	-39
1.23000	-38
1.23367	-35
1.23733	-30
1.24100	-29
1.24467	-32
1.24833	-41
1.25200	-52
1.25567	-63
1.25933	-69
1.26300	-69
1.26667	-68
1.27033	-69
1.27400	-70
1.27767	-67
1.28133	-60
1.28500	-54
1.28867	-55
1.29233	-59
1.29600	-61
1.29967	-63
1.30333	-63
1.30700	-61
1.31067	-55
1.31433	-51
1.31800	-49
1.32167	-49
1.32533	-47
1.32900	-43
1.33267	-41
1.33633	-41
1.34000	-42
1.34367	-44
1.34733	-46
1.35100	-52
1.35467	-63
1.35833	-72
1.36200	-74
1.36567	-72
1.36933	-67
1.37300	-62
1.37667	-61
1.38033	-58
1.38400	-52
1.38767	-48
1.39133	-42
1.39500	-36
1.39867	-31
1.40233	-30
1.40600	-37
1.40967	-48
1.41333	-55
1.41700	-56
1.42067	-52
1.42433	-47
1.42800	-43
1.43167	-40
1.43533	-35
1.43900	-22
1.44267	38
1.44633	210
1.45000	645
1.45367	1709
1.45733	3581
1.46100	5927
1.46467	8231
1.46833	10148
1.47200	11523
1.47567	12243
1.47933	12196
1.48300	11342
1.48667	9831
1.49033	7992
1.49400	6165
1.49767	4579
1.50133	3324
1.50500	2386
1.50867	1707
1.51233	1222
1.51600	882
1.51967	645
1.52333	479
1.52700	364
1.53067	283
1.53433	228
1.53800	200
1.54167	226
1.54533	365
1.54900	655
1.55267	1057
1.55633	1483
1.56000	1855
1.56367	2138
1.56733	2305
1.57100	2321
1.57467	2164
1.57833	1863
1.58200	1492
1.58567	1128
1.58933	813
1.59300	564
1.59667	382
1.60033	250
1.60400	155
1.60767	86
1.61133	36
1.61500	6
1.61867	-10
1.62233	-19
1.62600	-25
1.62967	-30
1.63333	-34
1.63700	-37
1.64067	-39
1.64433	-40
1.64800	-38
1.65167	-34
1.65533	-29
1.65900	-27
1.66267	-28
1.66633	-31
1.67000	-38
1.67367	-46
1.67733	-51
1.68100	-51
1.68467	-48
1.68833	-45
1.69200	-45
1.69567	-46
1.69933	-44
1.70300	-41
1.70667	-40
1.71033	-41
1.71400	-38
1.71767	-31
1.72133	-23
1.72500	-21
1.72867	-25
1.73233	-31
1.73600	-37
1.73967	-42
1.74333	-42
1.74700	-39
1.75067	-38
1.75433	-38
1.75800	-38
1.76167	-38
1.76533	-36
1.76900	-34
1.77267	-34
1.77633	-36
1.78000	-36
1.78367	-34
1.78733	-29
1.79100	-24
1.79467	-26
1.79833	-32
1.80200	-35
1.80567	-35
1.80933	-31
1.81300	-26
1.81667	-28
1.82033	-35
1.82400	-45
1.82767	-55
1.83133	-61
1.83500	-64
1.83867	-65
1.84233	-66
1.84600	-66
1.84967	-63
1.85333	-54
1.85700	-44
1.86067	-33
1.86433	-27
1.86800	-25
1.87167	-23
1.87533	-26
1.87900	-31
1.88267	-34
1.88633	-37
1.89000	-39
1.89367	-41
1.89733	-44
1.90100	-46
1.90467	-47
1.90833	-45
1.91200	-39
1.91567	-31
1.91933	-24
1.92300	-19
1.92667	-16
1.93033	-16
1.93400	-14
1.93767	-12
1.94133	-11
1.94500	-12
1.94867	-14
1.95233	-7
1.95600	61
1.95967	481
1.96333	2457
1.96700	9544
1.97067	29024
1.97433	70633
1.97800	140797
1.98167	235868
1.98533	341725
1.98900	440310
1.99267	515738
1.99633	556988
2.00000	558703
2.00367	521997
2.00733	455616
2.01100	373571
2.01467	290189
2.01833	215893
2.02200	155667
2.02567	110065
2.02933	77147
2.03300	54139
2.03667	38385
2.04033	27710
2.04400	20491
2.04767	15588
2.05133	12221
2.05500	9866
2.05867	8180
2.06233	6945
2.06600	6024
2.06967	5317
2.07333	4755
2.07700	4299
2.08067	3923
2.08433	3609
2.08800	3344
2.09167	3120
2.09533	2928
2.09900	2755
2.10267	2598
2.10633	2455
2.11000	2328
2.11367	2214
2.11733	2105
2.12100	2002
2.12467	1907
2.12833	1818
2.13200	1739
2.13567	1667
2.13933	1606
2.14300	1552
2.14667	1504
2.15033	1458
2.15400	1410
2.15767	1363
2.16133	1320
2.16500	1281
2.16867	1244
2.17233	1207
2.17600	1169
2.17967	1131
2.18333	1090
2.18700	1048
2.19067	1009
2.19433	975
2.19800	945
2.20167	917
2.20533	892
2.20900	875
2.21267	862
2.21633	851
2.22000	836
2.22367	819
2.22733	801
2.23100	785
2.23467	771
2.23833	756
2.24200	738
2.24567	720
2.24933	702
2.25300	684
2.25667	664
2.26033	647
2.26400	635
2.26767	629
2.27133	626
2.27500	620
2.27867	613
2.28233	603
2.28600	592
2.28967	583
2.29333	576
2.29700	567
2.30067	558
2.30433	552
2.30800	547
2.31167	540
2.31533	532
2.31900	523
2.32267	515
2.32633	508
2.33000	501
2.33367	493
2.33733	485
2.34100	479
2.34467	471
2.34833	460
2.35200	448
2.35567	438
2.35933	430
2.36300	425
2.36667	427
2.37033	432
2.37400	436
2.37767	436
2.38133	434
2.38500	428
2.38867	419
2.39233	411
2.39600	406
2.39967	404
2.40333	402
2.40700	402
2.41067	403
2.41433	398
2.41800	390
2.42167	383
2.42533	376
2.42900	370
2.43267	369
2.43633	367
2.44000	363
2.44367	358
2.44733	355
2.45100	358
2.45467	364
2.45833	368
2.46200	369
2.46567	365
2.46933	360
2.47300	356
2.47667	351
2.48033	345
2.48400	338
2.48767	329
2.49133	319
2.49500	311
2.49867	304
2.50233	297
2.50600	294
2.50967	295
2.51333	299
2.51700	303
2.52067	307
2.52433	313
2.52800	323
2.53167	330
2.53533	331
2.53900	328
2.54267	324
2.54633	321
2.55000	314
2.55367	303
2.55733	290
2.56100	278
2.56467	273
2.56833	273
2.57200	278
2.57567	284
2.57933	288
2.58300	292
2.58667	297
2.59033	302
2.59400	305
2.59767	305
2.60133	303
2.60500	299
2.60867	294
2.61233	289
2.61600	283
2.61967	277
2.62333	269
2.62700	259
2.63067	249
2.63433	244
2.63800	246
2.64167	251
2.64533	258
2.64900	265
2.65267	269
2.65633	272
2.66000	274
2.66367	277
2.66733	280
2.67100	285
2.67467	286
2.67833	281
2.68200	275
2.68567	269
2.68933	266
2.69300	268
2.69667	274
2.70033	283
2.70400	293
2.70767	299
2.71133	302
2.71500	305
2.71867	307
2.72233	306
2.72600	305
2.72967	303
2.73333	303
2.73700	306
2.74067	310
2.74433	315
2.74800	319
2.75167	323
2.75533	326
2.75900	327
2.76267	324
2.76633	320
2.77000	313
2.77367	304
2.77733	296
2.78100	296
2.78467	300
2.78833	307
2.79200	314
2.79567	320
2.79933	325
2.80300	331
2.80667	333
2.81033	331
2.81400	326
2.81767	323
2.82133	318
2.82500	312
2.82867	304
2.83233	298
2.83600	294
2.83967	293
2.84333	292
2.84700	294
2.85067	299
2.85433	305
2.85800	312
2.86167	318
2.86533	324
2.86900	327
2.87267	326
2.87633	324
2.88000	322
2.88367	323
2.88733	323
2.89100	322
2.89467	320
2.89833	319
2.90200	314
2.90567	303
2.90933	293
2.91300	288
2.91667	293
2.92033	300
2.92400	303
2.92767	304
2.93133	304
2.93500	307
2.93867	309
2.94233	310
2.94600	307
2.94967	300
2.95333	293
2.95700	289
2.96067	291
2.96433	300
2.96800	310
2.97167	316
2.97533	316
2.97900	313
2.98267	309
2.98633	307
2.99000	305
2.99367	303
2.99733	303
3.00100	303
3.00467	298
3.00833	289
3.01200	288
3.01567	294
3.01933	299
3.02300	299
3.02667	300
3.03033	303
3.03400	308
3.03767	309
3.04133	305
3.04500	298
3.04867	289
3.05233	283
3.05600	281
3.05967	283
3.06333	287
3.06700	289
3.07067	285
3.07433	278
3.07800	272
3.08167	265
3.08533	260
3.08900	259
3.09267	258
3.09633	258
3.10000	259
3.10367	262
3.10733	266
3.11100	272
3.11467	274
3.11833	275
3.12200	278
3.12567	277
3.12933	274
3.13300	271
3.13667	269
3.14033	267
3.14400	268
3.14767	271
3.15133	273
3.15500	278
3.15867	285
3.16233	291
3.16600	294
3.16967	292
3.17333	284
3.17700	272
3.18067	261
3.18433	258
3.18800	257
3.19167	253
3.19533	248
3.19900	246
3.20267	251
3.20633	258
3.21000	262
3.21367	263
3.21733	263
3.22100	261
3.22467	260
3.22833	260
3.23200	260
3.23567	261
3.23933	265
3.24300	266
3.24667	262
3.25033	256
3.25400	252
3.25767	257
3.26133	262
3.26500	262
3.26867	257
3.27233	249
3.27600	243
3.27967	241
3.28333	239
3.28700	236
3.29067	236
3.29433	240
3.29800	243
3.30167	244
3.30533	245
3.30900	244
3.31267	244
3.31633	245
3.32000	247
3.32367	247
3.32733	244
3.33100	241
3.33467	238
3.33833	234
3.34200	230
3.34567	229
3.34933	230
3.35300	233
3.35667	237
3.36033	239
3.36400	240
3.36767	240
3.37133	243
3.37500	248
3.37867	252
3.38233	253
3.38600	252
3.38967	252
3.39333	249
3.39700	242
3.40067	238
3.40433	236
3.40800	234
3.41167	232
3.41533	229
3.41900	229
3.42267	229
3.42633	232
3.43000	236
3.43367	237
3.43733	236
3.44100	230
3.44467	222
3.44833	216
3.45200	215
3.45567	213
3.45933	209
3.46300	203
3.46667	198
3.47033	198
3.47400	204
3.47767	210
3.48133	213
3.48500	218
3.48867	222
3.49233	224
3.49600	222
3.49967	217
3.50333	211
3.50700	207
3.51067	203
3.51433	202
3.51800	206
3.52167	211
3.52533	211
3.52900	206
3.53267	202
3.53633	201
3.54000	205
3.54367	208
3.54733	211
3.55100	211
3.55467	211
3.55833	214
3.56200	214
3.56567	207
3.56933	196
3.57300	189
3.57667	188
3.58033	188
3.58400	188
3.58767	187
3.59133	183
3.59500	181
3.59867	183
3.60233	185
3.60600	184
3.60967	181
3.61333	178
3.61700	177
3.62067	178
3.62433	177
3.62800	175
3.63167	173
3.63533	174
3.63900	177
3.64267	183
3.64633	188
3.65000	187
3.65367	186
3.65733	188
3.66100	189
3.66467	185
3.66833	178
3.67200	170
3.67567	164
3.67933	159
3.68300	158
3.68667	162
3.69033	171
3.69400	176
3.69767	177
3.70133	176
3.70500	173
3.70867	171
3.71233	167
3.71600	163
3.71967	161
3.72333	163
3.72700	167
3.73067	169
3.73433	170
3.73800	171
3.74167	171
3.74533	170
3.74900	173
3.75267	175
3.75633	176
3.76000	176
3.76367	173
3.76733	171
3.77100	172
3.77467	174
3.77833	175
3.78200	173
3.78567	168
3.78933	160
3.79300	155
3.79667	154
3.80033	158
3.80400	164
3.80767	168
3.81133	167
3.81500	163
3.81867	162
3.82233	165
3.82600	168
3.82967	169
3.83333	168
3.83700	166
3.84067	162
3.84433	156
3.84800	146
3.85167	135
3.85533	128
3.85900	125
3.86267	124
3.86633	126
3.87000	128
3.87367	129
3.87733	134
3.88100	140
3.88467	144
3.88833	147
3.89200	150
3.89567	152
3.89933	151
3.90300	149
3.90667	147
3.91033	147
3.91400	149
3.91767	148
3.92133	147
3.92500	147
3.92867	148
3.93233	148
3.93600	149
3.93967	146
3.94333	140
3.94700	134
3.95067	130
3.95433	127
3.95800	127
3.96167	127
3.96533	128
3.96900	131
3.97267	132
3.97633	133
3.98000	133
3.98367	132
3.98733	132
3.99100	135
3.99467	142
3.99833	151

[Chromatogram (Ch2)]
Interval(msec)	220
# of Points	1091
Start Time(min)	0.002
End Time(min)	3.998
R.Time (min)	Intensity
0.00167	-0
0.00533	-0
0.00900	-0
0.01267	-0
0.01633	0
0.02000	0
0.02367	0
0.02733	0
0.03100	-0
0.03467	-0
0.03833	-0
0.04200	-0
0.04567	-0
0.04933	-1
0.05300	-1
0.05667	-1
0.06033	-1
0.06400	-2
0.06767	-2
0.07133	-3
0.07500	-3
0.07867	-3
0.08233	-4
0.08600	-4
0.08967	-4
0.09333	-4
0.09700	-3
0.10067	-3
0.10433	-3
0.10800	-3
0.11167	-3
0.11533	-3
0.11900	-3
0.12267	-2
0.12633	-2
0.13000	-2
0.13367	-2
0.13733	-1
0.14100	-1
0.14467	-1
0.14833	-1
0.15200	-1
0.15567	-1
0.15933	-1
0.16300	-1
0.16667	-1
0.17033	-1
0.17400	-1
0.17767	-1
0.18133	-1
0.18500	-1
0.18867	-1
0.19233	-1
0.19600	-1
0.19967	-1
0.20333	-1
0.20700	-1
0.21067	-1
0.21433	-1
0.21800	-1
0.22167	-1
0.22533	-1
0.22900	-1
0.23267	-1
0.23633	-2
0.24000	-2
0.24367	-2
0.24733	-2
0.25100	-2
0.25467	-2
0.25833	-3
0.26200	-3
0.26567	-3
0.26933	-3
0.27300	-3
0.27667	-2
0.28033	-3
0.28400	-3
0.28767	-3
0.29133	-3
0.29500	-3
0.29867	-3
0.30233	-4
0.30600	-4
0.30967	-4
0.31333	-4
0.31700	-4
0.32067	-4
0.32433	-4
0.32800	-4
0.33167	-3
0.33533	-3
0.33900	-2
0.34267	-2
0.34633	-1
0.35000	-1
0.35367	-1
0.35733	-0
0.36100	-0
0.36467	-1
0.36833	-1
0.37200	-1
0.37567	-1
0.37933	-2
0.38300	-2
0.38667	-3
0.39033	-3
0.39400	-3
0.39767	-3
0.40133	-3
0.40500	-4
0.40867	-4
0.41233	-4
0.41600	-5
0.41967	-5
0.42333	-5
0.42700	-5
0.43067	-5
0.43433	-5
0.43800	-6
0.44167	-6
0.44533	-6
0.44900	-6
0.45267	-6
0.45633	-5
0.46000	-5
0.46367	-5
0.46733	-5
0.47100	-5
0.47467	-5
0.47833	-5
0.48200	-5
0.48567	-5
0.48933	-4
0.49300	-4
0.49667	-4
0.50033	-4
0.50400	-4
0.50767	-3
0.51133	-3
0.51500	-3
0.51867	-2
0.52233	-2
0.52600	-1
0.52967	-1
0.53333	-1
0.53700	-0
0.54067	-0
0.54433	0
0.54800	0
0.55167	0
0.55533	1
0.55900	1
0.56267	1
0.56633	1
0.57000	1
0.57367	1
0.57733	1
0.58100	1
0.58467	0
0.58833	-0
0.59200	-0
0.59567	-1
0.59933	-1
0.60300	-1
0.60667	-2
0.61033	-2
0.61400	-2
0.61767	-2
0.62133	-1
0.62500	-1
0.62867	-1
0.63233	-1
0.63600	-1
0.63967	-1
0.64333	-1
0.64700	-1
0.65067	-1
0.65433	-1
0.65800	-1
0.66167	-1
0.66533	-1
0.66900	-1
0.67267	-1
0.67633	-1
0.68000	-1
0.68367	-2
0.68733	-2
0.69100	-2
0.69467	-2
0.69833	-2
0.70200	-2
0.70567	-2
0.70933	-2
0.71300	-2
0.71667	-2
0.72033	-1
0.72400	-1
0.72767	-1
0.73133	-1
0.73500	-1
0.73867	-1
0.74233	-1
0.74600	-1
0.74967	-1
0.75333	-1
0.75700	-1
0.76067	-1
0.76433	-0
0.76800	-0
0.77167	-0
0.77533	-1
0.77900	-1
0.78267	-1
0.78633	-1
0.79000	-1
0.79367	-1
0.79733	-1
0.80100	-1
0.80467	-1
0.80833	-1
0.81200	-1
0.81567	-1
0.81933	-1
0.82300	-1
0.82667	-1
0.83033	-1
0.83400	-1
0.83767	-1
0.84133	-2
0.84500	-2
0.84867	-2
0.85233	-2
0.85600	-2
0.85967	-3
0.86333	-3
0.86700	-3
0.87067	-3
0.87433	-3
0.87800	-3
0.88167	-3
0.88533	-3
0.88900	-3
0.89267	-4
0.89633	-4
0.90000	-4
0.90367	-4
0.90733	-4
0.91100	-4
0.91467	-4
0.91833	-4
0.92200	-4
0.92567	-4
0.92933	-3
0.93300	-3
0.93667	-3
0.94033	-3
0.94400	-3
0.94767	-3
0.95133	-3
0.95500	-4
0.95867	-4
0.96233	-4
0.96600	-5
0.96967	-5
0.97333	-4
0.97700	-4
0.98067	-4
0.98433	-4
0.98800	-4
0.99167	-4
0.99533	-3
0.99900	-3
1.00267	-3
1.00633	-3
1.01000	-3
1.01367	-2
1.01733	-2
1.02100	-2
1.02467	-2
1.02833	-2
1.03200	-2
1.03567	-1
1.03933	-1
1.04300	-1
1.04667	-0
1.05033	-0
1.05400	-0
1.05767	-0
1.06133	-1
1.06500	-1
1.06867	-1
1.07233	-2
1.07600	-2
1.07967	-3
1.08333	-3
1.08700	-3
1.09067	-3
1.09433	-3
1.09800	-2
1.10167	-2
1.10533	-2
1.10900	-2
1.11267	-2
1.11633	-2
1.12000	-2
1.12367	-2
1.12733	-2
1.13100	-2
1.13467	-2
1.13833	-1
1.14200	-1
1.14567	-0
1.14933	-0
1.15300	-0
1.15667	-0
1.16033	-0
1.16400	-0
1.16767	-0
1.17133	-1
1.17500	-1
1.17867	-0
1.18233	-0
1.18600	-0
1.18967	-0
1.19333	-0
1.19700	-0
1.20067	-1
1.20433	-1
1.20800	-1
1.21167	-1
1.21533	-1
1.21900	-1
1.22267	-1
1.22633	-1
1.23000	-2
1.23367	-2
1.23733	-3
1.24100	-3
1.24467	-4
1.24833	-4
1.25200	-5
1.25567	-5
1.25933	-6
1.26300	-6
1.26667	-6
1.27033	-6
1.27400	-6
1.27767	-6
1.28133	-5
1.28500	-5
1.28867	-4
1.29233	-4
1.29600	-3
1.29967	-3
1.30333	-3
1.30700	-2
1.31067	-2
1.31433	-2
1.31800	-2
1.32167	-2
1.32533	-3
1.32900	-3
1.33267	-3
1.33633	-4
1.34000	-4
1.34367	-4
1.34733	-5
1.35100	-5
1.35467	-4
1.35833	-4
1.36200	-4
1.36567	-3
1.36933	-3
1.37300	-3
1.37667	-2
1.38033	-2
1.38400	-2
1.38767	-2
1.39133	-3
1.39500	-3
1.39867	-3
1.40233	-4
1.40600	-4
1.40967	-4
1.41333	-4
1.41700	-4
1.42067	-4
1.42433	-3
1.42800	-3
1.43167	-3
1.43533	-3
1.43900	-3
1.44267	-3
1.44633	-3
1.45000	-3
1.45367	-4
1.45733	-4
1.46100	-4
1.46467	-4
1.46833	-4
1.47200	-4
1.47567	-4
1.47933	-4
1.48300	-4
1.48667	-3
1.49033	-3
1.49400	-3
1.49767	-2
1.50133	-2
1.50500	-2
1.50867	-2
1.51233	-2
1.51600	-2
1.51967	-2
1.52333	-2
1.52700	-2
1.53067	-2
1.53433	-2
1.53800	-2
1.54167	-2
1.54533	-2
1.54900	-2
1.55267	-2
1.55633	-2
1.56000	-1
1.56367	-1
1.56733	-1
1.57100	-1
1.57467	-1
1.57833	-2
1.58200	-2
1.58567	-2
1.58933	-3
1.59300	-3
1.59667	-4
1.60033	-5
1.60400	-5
1.60767	-7
1.61133	-8
1.61500	-10
1.61867	-12
1.62233	-14
1.62600	-17
1.62967	-20
1.63333	-23
1.63700	-26
1.64067	-29
1.64433	-33
1.64800	-36
1.65167	-40
1.65533	-44
1.65900	-48
1.66267	-53
1.66633	-57
1.67000	-62
1.67367	-67
1.67733	-72
1.68100	-78
1.68467	-83
1.68833	-87
1.69200	-91
1.69567	-95
1.69933	-98
1.70300	-101
1.70667	-103
1.71033	-105
1.71400	-107
1.71767	-108
1.72133	-109
1.72500	-110
1.72867	-111
1.73233	-112
1.73600	-113
1.73967	-114
1.74333	-115
1.74700	-115
1.75067	-116
1.75433	-116
1.75800	-116
1.76167	-116
1.76533	-115
1.76900	-115
1.77267	-115
1.77633	-114
1.78000	-115
1.78367	-115
1.78733	-115
1.79100	-116
1.79467	-116
1.79833	-117
1.80200	-117
1.80567	-117
1.80933	-117
1.81300	-117
1.81667	-117
1.82033	-116
1.82400	-117
1.82767	-117
1.83133	-118
1.83500	-118
1.83867	-119
1.84233	-119
1.84600	-119
1.84967	-119
1.85333	-119
1.85700	-118
1.86067	-117
1.86433	-117
1.86800	-117
1.87167	-117
1.87533	-117
1.87900	-117
1.88267	-117
1.88633	-117
1.89000	-117
1.89367	-117
1.89733	-116
1.90100	-116
1.90467	-116
1.90833	-116
1.91200	-116
1.91567	-115
1.91933	-115
1.92300	-115
1.92667	-115
1.93033	-115
1.93400	-115
1.93767	-115
1.94133	-114
1.94500	-114
1.94867	-115
1.95233	-115
1.95600	-115
1.95967	-115
1.96333	-115
1.96700	-115
1.97067	-115
1.97433	-114
1.97800	-114
1.98167	-113
1.98533	-113
1.98900	-112
1.99267	-112
1.99633	-111
2.00000	-111
2.00367	-111
2.00733	-111
2.01100	-111
2.01467	-111
2.01833	-111
2.02200	-110
2.02567	-110
2.02933	-109
2.03300	-109
2.03667	-108
2.04033	-108
2.04400	-107
2.04767	-107
2.05133	-107
2.05500	-106
2.05867	-105
2.06233	-104
2.06600	-104
2.06967	-103
2.07333	-102
2.07700	-102
2.08067	-102
2.08433	-101
2.08800	-101
2.09167	-101
2.09533	-101
2.09900	-101
2.10267	-101
2.10633	-101
2.11000	-101
2.11367	-101
2.11733	-101
2.12100	-101
2.12467	-100
2.12833	-99
2.13200	-99
2.13567	-98
2.13933	-98
2.14300	-97
2.14667	-96
2.15033	-96
2.15400	-96
2.15767	-96
2.16133	-95
2.16500	-95
2.16867	-95
2.17233	-96
2.17600	-96
2.17967	-96
2.18333	-95
2.18700	-95
2.19067	-95
2.19433	-94
2.19800	-94
2.20167	-93
2.20533	-93
2.20900	-94
2.21267	-94
2.21633	-95
2.22000	-95
2.22367	-95
2.22733	-95
2.23100	-95
2.23467	-94
2.23833	-93
2.24200	-92
2.24567	-91
2.24933	-91
2.25300	-90
2.25667	-89
2.26033	-89
2.26400	-89
2.26767	-89
2.27133	-89
2.27500	-89
2.27867	-89
2.28233	-88
2.28600	-88
2.28967	-87
2.29333	-87
2.29700	-86
2.30067	-86
2.30433	-87
2.30800	-87
2.31167	-88
2.31533	-88
2.31900	-88
2.32267	-87
2.32633	-87
2.33000	-86
2.33367	-85
2.33733	-84
2.34100	-84
2.34467	-83
2.34833	-82
2.35200	-80
2.35567	-79
2.35933	-78
2.36300	-77
2.36667	-76
2.37033	-74
2.37400	-72
2.37767	-70
2.38133	-67
2.38500	-64
2.38867	-60
2.39233	-56
2.39600	-53
2.39967	-49
2.40333	-45
2.40700	-42
2.41067	-38
2.41433	-35
2.41800	-31
2.42167	-28
2.42533	-26
2.42900	-23
2.43267	-21
2.43633	-19
2.44000	-17
2.44367	-14
2.44733	-12
2.45100	-10
2.45467	-9
2.45833	-7
2.46200	-5
2.46567	-4
2.46933	-2
2.47300	-1
2.47667	0
2.48033	1
2.48400	2
2.48767	3
2.49133	3
2.49500	4
2.49867	5
2.50233	6
2.50600	6
2.50967	7
2.51333	8
2.51700	8
2.52067	9
2.52433	9
2.52800	10
2.53167	10
2.53533	11
2.53900	11
2.54267	12
2.54633	13
2.55000	13
2.55367	14
2.55733	15
2.56100	16
2.56467	16
2.56833	16
2.57200	16
2.57567	15
2.57933	15
2.58300	15
2.58667	15
2.59033	15
2.59400	16
2.59767	16
2.60133	17
2.60500	17
2.60867	17
2.61233	17
2.61600	17
2.61967	17
2.62333	17
2.62700	17
2.63067	16
2.63433	16
2.63800	17
2.64167	17
2.64533	17
2.64900	17
2.65267	18
2.65633	18
2.66000	19
2.66367	19
2.66733	20
2.67100	20
2.67467	20
2.67833	20
2.68200	20
2.68567	20
2.68933	20
2.69300	21
2.69667	21
2.70033	21
2.70400	21
2.70767	22
2.71133	23
2.71500	23
2.71867	24
2.72233	24
2.72600	25
2.72967	25
2.73333	26
2.73700	26
2.74067	26
2.74433	26
2.74800	25
2.75167	25
2.75533	25
2.75900	24
2.76267	24
2.76633	24
2.77000	24
2.77367	24
2.77733	24
2.78100	24
2.78467	24
2.78833	24
2.79200	24
2.79567	24
2.79933	24
2.80300	24
2.80667	24
2.81033	24
2.81400	24
2.81767	25
2.82133	25
2.82500	25
2.82867	25
2.83233	24
2.83600	24
2.83967	23
2.84333	21
2.84700	17
2.85067	10
2.85433	1
2.85800	-12
2.86167	-29
2.86533	-49
2.86900	-74
2.87267	-104
2.87633	-137
2.88000	-174
2.88367	-215
2.88733	-258
2.89100	-305
2.89467	-354
2.89833	-405
2.90200	-458
2.90567	-511
2.90933	-565
2.91300	-619
2.91667	-673
2.92033	-726
2.92400	-778
2.92767	-830
2.93133	-883
2.93500	-940
2.93867	-1000
2.94233	-1056
2.94600	-1095
2.94967	-1111
2.95333	-1101
2.95700	-1066
2.96067	-1011
2.96433	-942
2.96800	-865
2.97167	-784
2.97533	-703
2.97900	-624
2.98267	-550
2.98633	-482
2.99000	-419
2.99367	-363
2.99733	-313
3.00100	-269
3.00467	-231
3.00833	-197
3.01200	-168
3.01567	-142
3.01933	-120
3.02300	-101
3.02667	-84
3.03033	-70
3.03400	-58
3.03767	-48
3.04133	-40
3.04500	-32
3.04867	-26
3.05233	-20
3.05600	-16
3.05967	-12
3.06333	-8
3.06700	-5
3.07067	-3
3.07433	-0
3.07800	2
3.08167	3
3.08533	5
3.08900	6
3.09267	8
3.09633	9
3.10000	10
3.10367	11
3.10733	11
3.11100	12
3.11467	12
3.11833	13
3.12200	13
3.12567	14
3.12933	14
3.13300	14
3.13667	14
3.14033	15
3.14400	15
3.14767	15
3.15133	15
3.15500	15
3.15867	15
3.16233	15
3.16600	15
3.16967	16
3.17333	16
3.17700	16
3.18067	16
3.18433	16
3.18800	17
3.19167	17
3.19533	17
3.19900	17
3.20267	18
3.20633	17
3.21000	17
3.21367	17
3.21733	17
3.22100	17
3.22467	18
3.22833	18
3.23200	18
3.23567	18
3.23933	19
3.24300	19
3.24667	19
3.25033	20
3.25400	20
3.25767	21
3.26133	21
3.26500	22
3.26867	22
3.27233	23
3.27600	23
3.27967	23
3.28333	24
3.28700	24
3.29067	24
3.29433	24
3.29800	24
3.30167	24
3.30533	24
3.30900	25
3.31267	25
3.31633	25
3.32000	25
3.32367	25
3.32733	26
3.33100	26
3.33467	26
3.33833	26
3.34200	26
3.34567	26
3.34933	26
3.35300	26
3.35667	26
3.36033	26
3.36400	26
3.36767	25
3.37133	25
3.37500	25
3.37867	25
3.38233	26
3.38600	26
3.38967	26
3.39333	26
3.39700	26
3.40067	26
3.40433	26
3.40800	26
3.41167	26
3.41533	26
3.41900	26
3.42267	26
3.42633	26
3.43000	27
3.43367	27
3.43733	27
3.44100	27
3.44467	27
3.44833	26
3.45200	26
3.45567	26
3.45933	26
3.46300	25
3.46667	25
3.47033	25
3.47400	25
3.47767	25
3.48133	25
3.48500	24
3.48867	24
3.49233	24
3.49600	24
3.49967	24
3.50333	24
3.50700	24
3.51067	24
3.51433	24
3.51800	24
3.52167	24
3.52533	25
3.52900	25
3.53267	25
3.53633	25
3.54000	24
3.54367	24
3.54733	24
3.55100	24
3.55467	23
3.55833	23
3.56200	24
3.56567	24
3.56933	24
3.57300	24
3.57667	24
3.58033	24
3.58400	25
3.58767	25
3.59133	25
3.59500	25
3.59867	25
3.60233	25
3.60600	25
3.60967	26
3.61333	26
3.61700	26
3.62067	26
3.62433	26
3.62800	26
3.63167	26
3.63533	26
3.63900	27
3.64267	27
3.64633	27
3.65000	27
3.65367	27
3.65733	27
3.66100	27
3.66467	26
3.66833	26
3.67200	26
3.67567	26
3.67933	25
3.68300	25
3.68667	25
3.69033	25
3.69400	24
3.69767	24
3.70133	24
3.70500	24
3.70867	24
3.71233	24
3.71600	23
3.71967	23
3.72333	23
3.72700	23
3.73067	23
3.73433	23
3.73800	23
3.74167	23
3.74533	23
3.74900	23
3.75267	23
3.75633	24
3.76000	24
3.76367	24
3.76733	24
3.77100	25
3.77467	25
3.77833	25
3.78200	25
3.78567	25
3.78933	25
3.79300	25
3.79667	25
3.80033	25
3.80400	25
3.80767	25
3.81133	24
3.81500	24
3.81867	24
3.82233	25
3.82600	25
3.82967	25
3.83333	25
3.83700	25
3.84067	25
3.84433	25
3.84800	25
3.85167	25
3.85533	25
3.85900	24
3.86267	24
3.86633	24
3.87000	23
3.87367	23
3.87733	23
3.88100	23
3.88467	23
3.88833	23
3.89200	24
3.89567	24
3.89933	24
3.90300	23
3.90667	23
3.91033	23
3.91400	23
3.91767	23
3.92133	23
3.92500	23
3.92867	23
3.93233	24
3.93600	24
3.93967	24
3.94333	24
3.94700	25
3.95067	25
3.95433	25
3.95800	25
3.96167	25
3.96533	25
3.96900	25
3.97267	25
3.97633	26
3.98000	26
3.98367	26
3.98733	26
3.99100	26
3.99467	26
3.99833	26

[Chromatogram (Ch3)]
Interval(msec)	220
# of Points	1091
Start Time(min)	0.002
End Time(min)	3.998
R.Time (min)	Intensity
0.00167	-0
0.00533	-2
0.00900	-3
0.01267	-2
0.01633	-2
0.02000	-2
0.02367	-2
0.02733	-2
0.03100	-3
0.03467	-3
0.03833	-5
0.04200	-5
0.04567	-2
0.04933	-1
0.05300	-1
0.05667	0
0.06033	1
0.06400	1
0.06767	2
0.07133	2
0.07500	2
0.07867	3
0.08233	2
0.08600	1
0.08967	3
0.09333	4
0.09700	5
0.10067	6
0.10433	4
0.10800	3
0.11167	-0
0.11533	-1
0.11900	2
0.12267	2
0.12633	-1
0.13000	-4
0.13367	-4
0.13733	-1
0.14100	2
0.14467	5
0.14833	7
0.15200	6
0.15567	5
0.15933	3
0.16300	3
0.16667	2
0.17033	1
0.17400	3
0.17767	3
0.18133	2
0.18500	1
0.18867	1
0.19233	-0
0.19600	0
0.19967	1
0.20333	0
0.20700	-0
0.21067	0
0.21433	-1
0.21800	-3
0.22167	-3
0.22533	-2
0.22900	-2
0.23267	-0
0.23633	2
0.24000	4
0.24367	4
0.24733	2
0.25100	1
0.25467	3
0.25833	4
0.26200	4
0.26567	4
0.26933	7
0.27300	10
0.27667	10
0.28033	7
0.28400	6
0.28767	8
0.29133	6
0.29500	4
0.29867	4
0.30233	2
0.30600	1
0.30967	1
0.31333	3
0.31700	4
0.32067	5
0.32433	8
0.32800	9
0.33167	7
0.33533	5
0.33900	5
0.34267	6
0.34633	5
0.35000	4
0.35367	2
0.35733	2
0.36100	4
0.36467	4
0.36833	5
0.37200	5
0.37567	6
0.37933	7
0.38300	7
0.38667	8
0.39033	11
0.39400	13
0.39767	14
0.40133	14
0.40500	11
0.40867	9
0.41233	8
0.41600	9
0.41967	9
0.42333	7
0.42700	7
0.43067	5
0.43433	5
0.43800	7
0.44167	8
0.44533	8
0.44900	8
0.45267	9
0.45633	10
0.46000	9
0.46367	8
0.46733	10
0.47100	11
0.47467	12
0.47833	14
0.48200	16
0.48567	14
0.48933	15
0.49300	17
0.49667	17
0.50033	16
0.50400	15
0.50767	15
0.51133	16
0.51500	17
0.51867	17
0.52233	17
0.52600	15
0.52967	16
0.53333	17
0.53700	20
0.54067	22
0.54433	22
0.54800	21
0.55167	18
0.55533	13
0.55900	11
0.56267	13
0.56633	14
0.57000	13
0.57367	13
0.57733	15
0.58100	17
0.58467	16
0.58833	14
0.59200	12
0.59567	10
0.59933	9
0.60300	8
0.60667	7
0.61033	10
0.61400	14
0.61767	17
0.62133	19
0.62500	19
0.62867	20
0.63233	21
0.63600	21
0.63967	21
0.64333	22
0.64700	22
0.65067	23
0.65433	22
0.65800	21
0.66167	18
0.66533	18
0.66900	20
0.67267	21
0.67633	20
0.68000	19
0.68367	20
0.68733	20
0.69100	20
0.69467	21
0.69833	22
0.70200	20
0.70567	18
0.70933	19
0.71300	16
0.71667	16
0.72033	16
0.72400	17
0.72767	18
0.73133	20
0.73500	19
0.73867	19
0.74233	19
0.74600	22
0.74967	24
0.75333	22
0.75700	20
0.76067	19
0.76433	17
0.76800	16
0.77167	15
0.77533	14
0.77900	14
0.78267	14
0.78633	14
0.79000	13
0.79367	13
0.79733	14
0.80100	17
0.80467	20
0.80833	20
0.81200	19
0.81567	19
0.81933	19
0.82300	18
0.82667	17
0.83033	18
0.83400	20
0.83767	21
0.84133	21
0.84500	22
0.84867	23
0.85233	21
0.85600	20
0.85967	19
0.86333	20
0.86700	21
0.87067	21
0.87433	21
0.87800	22
0.88167	22
0.88533	23
0.88900	22
0.89267	24
0.89633	24
0.90000	25
0.90367	25
0.90733	27
0.91100	26
0.91467	24
0.91833	22
0.92200	20
0.92567	17
0.92933	18
0.93300	20
0.93667	21
0.94033	23
0.94400	22
0.94767	20
0.95133	17
0.95500	17
0.95867	17
0.96233	19
0.96600	23
0.96967	25
0.97333	25
0.97700	26
0.98067	26
0.98433	25
0.98800	26
0.99167	27
0.99533	27
0.99900	25
1.00267	25
1.00633	24
1.01000	24
1.01367	22
1.01733	21
1.02100	21
1.02467	20
1.02833	20
1.03200	20
1.03567	20
1.03933	21
1.04300	23
1.04667	26
1.05033	26
1.05400	23
1.05767	22
1.06133	21
1.06500	20
1.06867	22
1.07233	23
1.07600	23
1.07967	25
1.08333	24
1.08700	24
1.09067	25
1.09433	24
1.09800	23
1.10167	24
1.10533	25
1.10900	25
1.11267	24
1.11633	23
1.12000	23
1.12367	23
1.12733	25
1.13100	26
1.13467	25
1.13833	24
1.14200	24
1.14567	23
1.14933	21
1.15300	22
1.15667	23
1.16033	24
1.16400	25
1.16767	27
1.17133	28
1.17500	29
1.17867	29
1.18233	29
1.18600	28
1.18967	27
1.19333	29
1.19700	28
1.20067	26
1.20433	26
1.20800	25
1.21167	23
1.21533	23
1.21900	21
1.22267	21
1.22633	20
1.23000	20
1.23367	22
1.23733	25
1.24100	24
1.24467	22
1.24833	22
1.25200	22
1.25567	21
1.25933	20
1.26300	21
1.26667	23
1.27033	23
1.27400	22
1.27767	22
1.28133	21
1.28500	20
1.28867	19
1.29233	20
1.29600	20
1.29967	20
1.30333	19
1.30700	20
1.31067	19
1.31433	20
1.31800	22
1.32167	24
1.32533	25
1.32900	25
1.33267	24
1.33633	22
1.34000	20
1.34367	20
1.34733	24
1.35100	27
1.35467	28
1.35833	29
1.36200	29
1.36567	29
1.36933	28
1.37300	28
1.37667	28
1.38033	27
1.38400	25
1.38767	24
1.39133	25
1.39500	26
1.39867	28
1.40233	29
1.40600	30
1.40967	31
1.41333	31
1.41700	32
1.42067	34
1.42433	34
1.42800	32
1.43167	33
1.43533	32
1.43900	29
1.44267	29
1.44633	28
1.45000	28
1.45367	31
1.45733	30
1.46100	27
1.46467	26
1.46833	24
1.47200	23
1.47567	22
1.47933	22
1.48300	25
1.48667	28
1.49033	30
1.49400	32
1.49767	33
1.50133	33
1.50500	34
1.50867	34
1.51233	31
1.51600	30
1.51967	30
1.52333	29
1.52700	28
1.53067	28
1.53433	29
1.53800	28
1.54167	29
1.54533	30
1.54900	31
1.55267	31
1.55633	30
1.56000	30
1.56367	28
1.56733	24
1.57100	21
1.57467	20
1.57833	24
1.58200	27
1.58567	28
1.58933	28
1.59300	29
1.59667	29
1.60033	31
1.60400	31
1.60767	31
1.61133	31
1.61500	32
1.61867	33
1.62233	32
1.62600	32
1.62967	33
1.63333	35
1.63700	37
1.64067	38
1.64433	39
1.64800	37
1.65167	34
1.65533	32
1.65900	32
1.66267	33
1.66633	34
1.67000	33
1.67367	32
1.67733	32
1.68100	32
1.68467	34
1.68833	34
1.69200	33
1.69567	33
1.69933	35
1.70300	35
1.70667	33
1.71033	33
1.71400	32
1.71767	32
1.72133	34
1.72500	39
1.72867	44
1.73233	47
1.73600	46
1.73967	46
1.74333	45
1.74700	43
1.75067	42
1.75433	42
1.75800	44
1.76167	44
1.76533	44
1.76900	45
1.77267	46
1.77633	47
1.78000	48
1.78367	49
1.78733	48
1.79100	47
1.79467	45
1.79833	42
1.80200	41
1.80567	43
1.80933	46
1.81300	46
1.81667	46
1.82033	48
1.82400	46
1.82767	44
1.83133	44
1.83500	45
1.83867	47
1.84233	48
1.84600	48
1.84967	52
1.85333	55
1.85700	55
1.86067	55
1.86433	57
1.86800	58
1.87167	58
1.87533	59
1.87900	60
1.88267	62
1.88633	63
1.89000	64
1.89367	64
1.89733	62
1.90100	61
1.90467	60
1.90833	57
1.91200	57
1.91567	58
1.91933	58
1.92300	61
1.92667	61
1.93033	64
1.93400	66
1.93767	67
1.94133	66
1.94500	64
1.94867	63
1.95233	61
1.95600	63
1.95967	67
1.96333	70
1.96700	70
1.97067	70
1.97433	70
1.97800	69
1.98167	70
1.98533	72
1.98900	74
1.99267	75
1.99633	75
2.00000	75
2.00367	75
2.00733	76
2.01100	74
2.01467	72
2.01833	73
2.02200	74
2.02567	78
2.02933	80
2.03300	80
2.03667	79
2.04033	78
2.04400	79
2.04767	81
2.05133	82
2.05500	82
2.05867	81
2.06233	83
2.06600	87
2.06967	90
2.07333	91
2.07700	90
2.08067	89
2.08433	89
2.08800	91
2.09167	94
2.09533	94
2.09900	95
2.10267	97
2.10633	98
2.11000	99
2.11367	98
2.11733	97
2.12100	98
2.12467	99
2.12833	99
2.13200	97
2.13567	96
2.13933	96
2.14300	97
2.14667	97
2.15033	98
2.15400	98
2.15767	98
2.16133	99
2.16500	104
2.16867	108
2.17233	108
2.17600	107
2.17967	108
2.18333	110
2.18700	109
2.19067	111
2.19433	112
2.19800	113
2.20167	112
2.20533	112
2.20900	112
2.21267	112
2.21633	113
2.22000	116
2.22367	120
2.22733	122
2.23100	122
2.23467	123
2.23833	124
2.24200	124
2.24567	126
2.24933	128
2.25300	131
2.25667	134
2.26033	135
2.26400	136
2.26767	135
2.27133	134
2.27500	134
2.27867	135
2.28233	138
2.28600	137
2.28967	135
2.29333	136
2.29700	137
2.30067	140
2.30433	142
2.30800	144
2.31167	147
2.31533	151
2.31900	152
2.32267	152
2.32633	151
2.33000	153
2.33367	155
2.33733	156
2.34100	157
2.34467	160
2.34833	162
2.35200	162
2.35567	160
2.35933	160
2.36300	162
2.36667	166
2.37033	168
2.37400	167
2.37767	167
2.38133	168
2.38500	167
2.38867	167
2.39233	169
2.39600	170
2.39967	173
2.40333	175
2.40700	177
2.41067	178
2.41433	180
2.41800	183
2.42167	187
2.42533	190
2.42900	191
2.43267	189
2.43633	188
2.44000	191
2.44367	218
2.44733	287
2.45100	361
2.45467	421
2.45833	459
2.46200	468
2.46567	455
2.46933	433
2.47300	413
2.47667	396
2.48033	386
2.48400	380
2.48767	372
2.49133	361
2.49500	345
2.49867	326
2.50233	309
2.50600	297
2.50967	289
2.51333	282
2.51700	277
2.52067	272
2.52433	270
2.52800	272
2.53167	275
2.53533	280
2.53900	289
2.54267	298
2.54633	304
2.55000	309
2.55367	310
2.55733	305
2.56100	298
2.56467	290
2.56833	282
2.57200	273
2.57567	264
2.57933	258
2.58300	252
2.58667	247
2.59033	243
2.59400	240
2.59767	235
2.60133	226
2.60500	215
2.60867	200
2.61233	181
2.61600	160
2.61967	142
2.62333	125
2.62700	110
2.63067	97
2.63433	87
2.63800	81
2.64167	78
2.64533	81
2.64900	85
2.65267	92
2.65633	99
2.66000	106
2.66367	114
2.66733	122
2.67100	132
2.67467	139
2.67833	147
2.68200	156
2.68567	168
2.68933	178
2.69300	185
2.69667	188
2.70033	191
2.70400	193
2.70767	194
2.71133	195
2.71500	198
2.71867	200
2.72233	203
2.72600	207
2.72967	208
2.73333	206
2.73700	207
2.74067	205
2.74433	203
2.74800	203
2.75167	205
2.75533	206
2.75900	208
2.76267	209
2.76633	208
2.77000	209
2.77367	210
2.77733	210
2.78100	209
2.78467	207
2.78833	209
2.79200	212
2.79567	214
2.79933	216
2.80300	216
2.80667	214
2.81033	212
2.81400	213
2.81767	219
2.82133	234
2.82500	268
2.82867	336
2.83233	458
2.83600	655
2.83967	945
2.84333	1338
2.84700	1821
2.85067	2370
2.85433	2949
2.85800	3512
2.86167	4010
2.86533	4405
2.86900	4670
2.87267	4795
2.87633	4787
2.88000	4662
2.88367	4442
2.88733	4157
2.89100	3832
2.89467	3493
2.89833	3153
2.90200	2829
2.90567	2526
2.90933	2245
2.91300	1989
2.91667	1760
2.92033	1554
2.92400	1372
2.92767	1215
2.93133	1079
2.93500	963
2.93867	861
2.94233	774
2.94600	696
2.94967	626
2.95333	567
2.95700	518
2.96067	476
2.96433	440
2.96800	408
2.97167	380
2.97533	356
2.97900	338
2.98267	323
2.98633	306
2.99000	292
2.99367	281
2.99733	270
3.00100	261
3.00467	255
3.00833	250
3.01200	246
3.01567	240
3.01933	234
3.02300	229
3.02667	225
3.03033	221
3.03400	218
3.03767	216
3.04133	215
3.04500	210
3.04867	208
3.05233	204
3.05600	201
3.05967	198
3.06333	197
3.06700	195
3.07067	194
3.07433	191
3.07800	188
3.08167	185
3.08533	184
3.08900	182
3.09267	180
3.09633	181
3.10000	182
3.10367	183
3.10733	182
3.11100	181
3.11467	180
3.11833	176
3.12200	174
3.12567	173
3.12933	172
3.13300	171
3.13667	171
3.14033	172
3.14400	174
3.14767	173
3.15133	174
3.15500	175
3.15867	177
3.16233	176
3.16600	175
3.16967	174
3.17333	173
3.17700	171
3.18067	169
3.18433	168
3.18800	167
3.19167	168
3.19533	167
3.19900	166
3.20267	165
3.20633	164
3.21000	166
3.21367	167
3.21733	169
3.22100	170
3.22467	171
3.22833	170
3.23200	163
3.23567	150
3.23933	144
3.24300	153
3.24667	175
3.25033	203
3.25400	232
3.25767	266
3.26133	302
3.26500	337
3.26867	370
3.27233	400
3.27600	431
3.27967	461
3.28333	487
3.28700	512
3.29067	533
3.29433	552
3.29800	572
3.30167	590
3.30533	604
3.30900	616
3.31267	625
3.31633	633
3.32000	638
3.32367	643
3.32733	647
3.33100	653
3.33467	661
3.33833	667
3.34200	670
3.34567	675
3.34933	677
3.35300	679
3.35667	681
3.36033	683
3.36400	686
3.36767	692
3.37133	697
3.37500	701
3.37867	705
3.38233	708
3.38600	709
3.38967	712
3.39333	714
3.39700	714
3.40067	717
3.40433	718
3.40800	717
3.41167	718
3.41533	719
3.41900	717
3.42267	713
3.42633	711
3.43000	710
3.43367	711
3.43733	711
3.44100	707
3.44467	702
3.44833	696
3.45200	691
3.45567	687
3.45933	682
3.46300	681
3.46667	679
3.47033	676
3.47400	670
3.47767	664
3.48133	659
3.48500	655
3.48867	649
3.49233	644
3.49600	639
3.49967	635
3.50333	634
3.50700	629
3.51067	624
3.51433	621
3.51800	617
3.52167	615
3.52533	613
3.52900	611
3.53267	609
3.53633	608
3.54000	607
3.54367	606
3.54733	604
3.55100	602
3.55467	600
3.55833	598
3.56200	595
3.56567	594
3.56933	594
3.57300	593
3.57667	590
3.58033	589
3.58400	587
3.58767	582
3.59133	577
3.59500	573
3.59867	571
3.60233	570
3.60600	572
3.60967	573
3.61333	572
3.61700	569
3.62067	565
3.62433	562
3.62800	560
3.63167	558
3.63533	557
3.63900	557
3.64267	555
3.64633	553
3.65000	550
3.65367	547
3.65733	542
3.66100	539
3.66467	538
3.66833	537
3.67200	535
3.67567	534
3.67933	534
3.68300	533
3.68667	533
3.69033	534
3.69400	532
3.69767	527
3.70133	521
3.70500	518
3.70867	517
3.71233	517
3.71600	518
3.71967	519
3.72333	517
3.72700	514
3.73067	512
3.73433	511
3.73800	509
3.74167	505
3.74533	504
3.74900	504
3.75267	502
3.75633	499
3.76000	498
3.76367	497
3.76733	495
3.77100	493
3.77467	492
3.77833	490
3.78200	488
3.78567	486
3.78933	484
3.79300	484
3.79667	485
3.80033	485
3.80400	484
3.80767	482
3.81133	482
3.81500	480
3.81867	477
3.82233	474
3.82600	472
3.82967	472
3.83333	471
3.83700	469
3.84067	466
3.84433	465
3.84800	465
3.85167	464
3.85533	463
3.85900	464
3.86267	463
3.86633	463
3.87000	463
3.87367	463
3.87733	463
3.88100	461
3.88467	461
3.88833	461
3.89200	462
3.89567	462
3.89933	460
3.90300	457
3.90667	455
3.91033	452
3.91400	449
3.91767	448
3.92133	448
3.92500	447
3.92867	447
3.93233	444
3.93600	441
3.93967	441
3.94333	441
3.94700	440
3.95067	440
3.95433	441
3.95800	439
3.96167	438
3.96533	440
3.96900	441
3.97267	440
3.97633	440
3.98000	441
3.98367	442
3.98733	441
3.99100	442
3.99467	442
3.99833	438

[Status Trace (Column Oven Temperature)]
Interval(msec)	1000
# of Points	240
Start Time(min)	0.009
End Time(min)	3.992
Intensity Units	
Intensity Multiplier	1
R.Time (min)	Intensity
0.00880	34.98
0.02547	34.98
0.04213	34.97
0.05880	34.98
0.07547	34.99
0.09213	34.99
0.10880	35.00
0.12547	35.00
0.14213	35.00
0.15880	34.99
0.17547	34.98
0.19213	34.98
0.20880	34.98
0.22547	34.98
0.24213	34.99
0.25880	34.99
0.27547	35.00
0.29213	35.01
0.30880	35.02
0.32547	35.02
0.34213	35.00
0.35880	34.99
0.37547	34.99
0.39213	35.00
0.40880	35.02
0.42547	35.03
0.44213	35.03
0.45880	35.03
0.47547	35.03
0.49213	35.03
0.50880	35.02
0.52547	35.02
0.54213	35.00
0.55880	34.99
0.57547	35.00
0.59213	35.00
0.60880	35.00
0.62547	35.00
0.64213	35.00
0.65880	35.01
0.67547	35.02
0.69213	35.02
0.70880	35.01
0.72547	35.00
0.74213	35.01
0.75880	35.00
0.77547	35.00
0.79213	34.99
0.80880	34.99
0.82547	34.99
0.84213	34.98
0.85880	34.98
0.87547	34.99
0.89213	34.99
0.90880	35.01
0.92547	35.01
0.94213	35.02
0.95880	35.03
0.97547	35.03
0.99213	35.03
1.00880	35.03
1.02547	35.02
1.04213	35.02
1.05880	35.01
1.07547	35.02
1.09213	35.01
1.10880	35.02
1.12547	35.01
1.14213	35.00
1.15880	34.99
1.17547	34.98
1.19213	34.96
1.20880	34.96
1.22547	34.96
1.24213	34.98
1.25880	35.01
1.27547	35.02
1.29213	35.03
1.30880	35.02
1.32547	35.03
1.34213	35.02
1.35880	35.02
1.37547	35.01
1.39213	35.01
1.40880	35.01
1.42547	35.01
1.44213	35.01
1.45880	35.01
1.47547	35.01
1.49213	35.00
1.50880	35.00
1.52547	35.00
1.54213	35.00
1.55880	35.00
1.57547	35.00
1.59213	35.02
1.60880	35.08
1.62547	35.20
1.64213	35.38
1.65880	35.63
1.67547	35.96
1.69213	36.33
1.70880	36.69
1.72547	37.02
1.74213	37.37
1.75880	37.69
1.77547	38.01
1.79213	38.35
1.80880	38.67
1.82547	39.01
1.84213	39.34
1.85880	39.66
1.87547	39.99
1.89213	40.31
1.90880	40.64
1.92547	40.97
1.94213	41.29
1.95880	41.64
1.97547	41.97
1.99213	42.28
2.00880	42.63
2.02547	42.94
2.04213	43.26
2.05880	43.57
2.07547	43.90
2.09213	44.21
2.10880	44.55
2.12547	44.85
2.14213	45.18
2.15880	45.50
2.17547	45.84
2.19213	46.16
2.20880	46.50
2.22547	46.87
2.24213	47.19
2.25880	47.51
2.27547	47.85
2.29213	48.15
2.30880	48.53
2.32547	48.86
2.34213	49.15
2.35880	49.45
2.37547	49.67
2.39213	49.75
2.40880	49.75
2.42547	49.76
2.44213	49.76
2.45880	49.76
2.47547	49.77
2.49213	49.78
2.50880	49.79
2.52547	49.81
2.54213	49.81
2.55880	49.81
2.57547	49.82
2.59213	49.83
2.60880	49.83
2.62547	49.84
2.64213	49.84
2.65880	49.84
2.67547	49.85
2.69213	49.86
2.70880	49.86
2.72547	49.85
2.74213	49.85
2.75880	49.86
2.77547	49.87
2.79213	49.89
2.80880	49.90
2.82547	49.90
2.84213	49.89
2.85880	49.89
2.87547	49.90
2.89213	49.91
2.90880	49.93
2.92547	49.95
2.94213	49.96
2.95880	49.97
2.97547	49.98
2.99213	49.99
3.00880	50.00
3.02547	50.00
3.04213	50.02
3.05880	50.03
3.07547	50.03
3.09213	50.03
3.10880	50.04
3.12547	50.05
3.14213	50.06
3.15880	50.06
3.17547	50.07
3.19213	50.09
3.20880	50.10
3.22547	50.11
3.24213	50.11
3.25880	50.10
3.27547	50.09
3.29213	50.09
3.30880	50.09
3.32547	50.08
3.34213	50.07
3.35880	50.06
3.37547	50.05
3.39213	50.05
3.40880	50.04
3.42547	50.02
3.44213	50.02
3.45880	50.03
3.47547	50.04
3.49213	50.05
3.50880	50.05
3.52547	50.05
3.54213	50.06
3.55880	50.06
3.57547	50.06
3.59213	50.06
3.60880	50.04
3.62547	50.03
3.64213	50.02
3.65880	50.02
3.67547	50.03
3.69213	50.04
3.70880	50.04
3.72547	50.06
3.74213	50.06
3.75880	50.06
3.77547	50.05
3.79213	50.06
3.80880	50.06
3.82547	50.05
3.84213	50.06
3.85880	50.06
3.87547	50.07
3.89213	50.07
3.90880	50.09
3.92547	50.09
3.94213	50.09
3.95880	50.09
3.97547	50.08
3.99213	50.08

[Status Trace (Injection Unit Temperature)]
Interval(msec)	1000
# of Points	240
Start Time(min)	0.009
End Time(min)	3.992
Intensity Units	
Intensity Multiplier	1
R.Time (min)	Intensity
0.00880	99.97
0.02547	99.97
0.04213	99.98
0.05880	99.98
0.07547	99.97
0.09213	99.97
0.10880	99.97
0.12547	99.98
0.14213	99.98
0.15880	99.96
0.17547	99.98
0.19213	99.98
0.20880	99.98
0.22547	99.98
0.24213	99.98
0.25880	99.98
0.27547	99.98
0.29213	99.98
0.30880	99.98
0.32547	99.98
0.34213	99.98
0.35880	99.98
0.37547	99.98
0.39213	99.98
0.40880	99.98
0.42547	99.98
0.44213	99.98
0.45880	99.98
0.47547	99.98
0.49213	99.98
0.50880	99.97
0.52547	99.98
0.54213	99.98
0.55880	99.98
0.57547	99.98
0.59213	99.98
0.60880	99.98
0.62547	99.98
0.64213	99.98
0.65880	99.98
0.67547	99.98
0.69213	99.98
0.70880	99.98
0.72547	99.99
0.74213	99.98
0.75880	99.98
0.77547	99.98
0.79213	99.98
0.80880	99.98
0.82547	99.98
0.84213	99.98
0.85880	99.98
0.87547	99.98
0.89213	99.98
0.90880	99.98
0.92547	99.98
0.94213	99.98
0.95880	99.98
0.97547	99.98
0.99213	99.98
1.00880	99.98
1.02547	99.98
1.04213	99.99
1.05880	99.98
1.07547	99.98
1.09213	99.98
1.10880	99.98
1.12547	99.98
1.14213	99.98
1.15880	99.98
1.17547	99.98
1.19213	99.98
1.20880	99.98
1.22547	99.98
1.24213	99.98
1.25880	99.98
1.27547	99.98
1.29213	99.98
1.30880	99.98
1.32547	99.98
1.34213	99.98
1.35880	99.98
1.37547	99.98
1.39213	99.98
1.40880	99.98
1.42547	99.98
1.44213	99.98
1.45880	99.98
1.47547	99.98
1.49213	99.98
1.50880	99.98
1.52547	99.98
1.54213	99.98
1.55880	99.98
1.57547	99.99
1.59213	99.99
1.60880	99.98
1.62547	99.98
1.64213	99.98
1.65880	99.98
1.67547	99.99
1.69213	99.98
1.70880	99.98
1.72547	99.98
1.74213	99.98
1.75880	99.98
1.77547	99.98
1.79213	99.99
1.80880	99.98
1.82547	99.99
1.84213	99.98
1.85880	99.99
1.87547	99.98
1.89213	99.98
1.90880	99.98
1.92547	99.98
1.94213	99.98
1.95880	99.98
1.97547	99.98
1.99213	99.98
2.00880	99.97
2.02547	99.98
2.04213	99.98
2.05880	99.98
2.07547	99.97
2.09213	99.97
2.10880	99.97
2.12547	99.97
2.14213	99.97
2.15880	99.97
2.17547	99.97
2.19213	99.97
2.20880	99.97
2.22547	99.96
2.24213	99.97
2.25880	99.97
2.27547	99.97
2.29213	99.97
2.30880	99.96
2.32547	99.96
2.34213	99.96
2.35880	99.97
2.37547	99.96
2.39213	99.96
2.40880	99.96
2.42547	99.96
2.44213	99.96
2.45880	99.96
2.47547	99.96
2.49213	99.96
2.50880	99.96
2.52547	99.96
2.54213	99.96
2.55880	99.96
2.57547	99.97
2.59213	99.97
2.60880	99.97
2.62547	99.97
2.64213	99.97
2.65880	99.97
2.67547	99.97
2.69213	99.97
2.70880	99.98
2.72547	99.98
2.74213	99.98
2.75880	99.98
2.77547	99.98
2.79213	99.98
2.80880	99.99
2.82547	99.99
2.84213	99.99
2.85880	99.99
2.87547	99.99
2.89213	100.00
2.90880	99.99
2.92547	100.00
2.94213	100.00
2.95880	100.00
2.97547	100.00
2.99213	100.00
3.00880	100.01
3.02547	100.01
3.04213	100.01
3.05880	100.01
3.07547	100.01
3.09213	100.01
3.10880	100.01
3.12547	100.01
3.14213	100.02
3.15880	100.02
3.17547	100.02
3.19213	100.02
3.20880	100.03
3.22547	100.03
3.24213	100.03
3.25880	100.02
3.27547	100.03
3.29213	100.03
3.30880	100.03
3.32547	100.03
3.34213	100.03
3.35880	100.02
3.37547	100.04
3.39213	100.04
3.40880	100.04
3.42547	100.03
3.44213	100.03
3.45880	100.04
3.47547	100.03
3.49213	100.04
3.50880	100.04
3.52547	100.04
3.54213	100.04
3.55880	100.04
3.57547	100.04
3.59213	100.04
3.60880	100.04
3.62547	100.04
3.64213	100.05
3.65880	100.05
3.67547	100.05
3.69213	100.04
3.70880	100.05
3.72547	100.05
3.74213	100.04
3.75880	100.04
3.77547	100.04
3.79213	100.05
3.80880	100.05
3.82547	100.04
3.84213	100.04
3.85880	100.04
3.87547	100.05
3.89213	100.05
3.90880	100.04
3.92547	100.04
3.94213	100.05
3.95880	100.05
3.97547	100.04
3.99213	100.05

[Status Trace (Carrier Gas Pressure)]
Interval(msec)	1000
# of Points	240
Start Time(min)	0.009
End Time(min)	3.992
Intensity Units	
Intensity Multiplier	1
R.Time (min)	Intensity
0.00880	58.00
0.02547	55.23
0.04213	57.19
0.05880	59.35
0.07547	59.29
0.09213	58.05
0.10880	57.98
0.12547	58.01
0.14213	58.01
0.15880	58.00
0.17547	58.00
0.19213	58.00
0.20880	58.00
0.22547	58.00
0.24213	58.00
0.25880	58.00
0.27547	58.00
0.29213	58.00
0.30880	58.00
0.32547	58.00
0.34213	58.00
0.35880	58.00
0.37547	58.00
0.39213	58.00
0.40880	58.00
0.42547	58.00
0.44213	58.00
0.45880	58.00
0.47547	58.00
0.49213	58.00
0.50880	58.00
0.52547	58.00
0.54213	58.00
0.55880	58.00
0.57547	58.00
0.59213	58.00
0.60880	58.00
0.62547	58.00
0.64213	58.00
0.65880	58.00
0.67547	58.00
0.69213	58.00
0.70880	58.00
0.72547	58.00
0.74213	58.00
0.75880	58.00
0.77547	58.00
0.79213	58.00
0.80880	58.00
0.82547	58.00
0.84213	58.00
0.85880	58.00
0.87547	58.00
0.89213	58.00
0.90880	58.00
0.92547	58.00
0.94213	58.00
0.95880	58.00
0.97547	58.00
0.99213	58.00
1.00880	58.00
1.02547	58.00
1.04213	58.00
1.05880	58.00
1.07547	58.00
1.09213	58.00
1.10880	58.00
1.12547	58.00
1.14213	58.00
1.15880	58.00
1.17547	58.00
1.19213	58.00
1.20880	58.00
1.22547	58.00
1.24213	58.00
1.25880	58.00
1.27547	58.00
1.29213	58.00
1.30880	58.00
1.32547	58.00
1.34213	58.00
1.35880	58.00
1.37547	58.00
1.39213	58.00
1.40880	58.00
1.42547	58.00
1.44213	58.00
1.45880	58.00
1.47547	58.00
1.49213	58.00
1.50880	58.00
1.52547	58.00
1.54213	58.00
1.55880	58.00
1.57547	58.00
1.59213	58.00
1.60880	58.00
1.62547	58.00
1.64213	58.00
1.65880	58.00
1.67547	58.01
1.69213	58.00
1.70880	58.00
1.72547	58.00
1.74213	58.00
1.75880	58.00
1.77547	58.00
1.79213	58.00
1.80880	58.00
1.82547	58.00
1.84213	58.00
1.85880	58.00
1.87547	58.00
1.89213	58.00
1.90880	58.00
1.92547	58.00
1.94213	58.00
1.95880	58.00
1.97547	58.00
1.99213	58.00
2.00880	58.00
2.02547	58.00
2.04213	58.00
2.05880	58.00
2.07547	58.00
2.09213	58.00
2.10880	58.00
2.12547	58.00
2.14213	58.00
2.15880	58.00
2.17547	58.00
2.19213	58.00
2.20880	58.00
2.22547	58.00
2.24213	58.00
2.25880	58.00
2.27547	58.00
2.29213	58.00
2.30880	58.00
2.32547	58.00
2.34213	58.00
2.35880	58.00
2.37547	58.00
2.39213	57.99
2.40880	57.99
2.42547	58.00
2.44213	58.00
2.45880	58.00
2.47547	58.00
2.49213	58.00
2.50880	58.00
2.52547	57.98
2.54213	58.00
2.55880	58.00
2.57547	58.00
2.59213	58.00
2.60880	58.00
2.62547	58.00
2.64213	58.00
2.65880	58.00
2.67547	58.00
2.69213	58.00
2.70880	58.00
2.72547	58.00
2.74213	58.00
2.75880	58.00
2.77547	58.00
2.79213	58.00
2.80880	58.00
2.82547	58.00
2.84213	58.00
2.85880	58.00
2.87547	58.00
2.89213	58.00
2.90880	58.00
2.92547	58.00
2.94213	58.00
2.95880	58.00
2.97547	58.00
2.99213	58.00
3.00880	58.00
3.02547	58.00
3.04213	58.00
3.05880	58.00
3.07547	58.00
3.09213	58.00
3.10880	58.00
3.12547	58.00
3.14213	58.00
3.15880	58.00
3.17547	58.00
3.19213	58.00
3.20880	58.00
3.22547	58.00
3.24213	58.00
3.25880	58.00
3.27547	58.00
3.29213	58.00
3.30880	58.00
3.32547	58.00
3.34213	58.00
3.35880	58.00
3.37547	58.00
3.39213	58.00
3.40880	58.00
3.42547	58.00
3.44213	58.00
3.45880	58.00
3.47547	58.00
3.49213	58.00
3.50880	58.00
3.52547	58.00
3.54213	58.00
3.55880	58.00
3.57547	58.00
3.59213	58.00
3.60880	58.00
3.62547	58.00
3.64213	58.00
3.65880	58.00
3.67547	58.00
3.69213	58.00
3.70880	58.00
3.72547	58.00
3.74213	58.00
3.75880	58.00
3.77547	58.00
3.79213	58.00
3.80880	58.00
3.82547	58.00
3.84213	58.00
3.85880	58.00
3.87547	58.00
3.89213	58.00
3.90880	58.00
3.92547	58.00
3.94213	58.00
3.95880	58.00
3.97547	58.00
3.99213	58.00

[Status Trace (Carrier Gas Flow)]
Interval(msec)	1000
# of Points	240
Start Time(min)	0.009
End Time(min)	3.992
Intensity Units	
Intensity Multiplier	1
R.Time (min)	Intensity
0.00880	34.52
0.02547	34.54
0.04213	34.55
0.05880	34.55
0.07547	34.49
0.09213	34.52
0.10880	34.52
0.12547	34.52
0.14213	34.52
0.15880	34.52
0.17547	34.52
0.19213	34.52
0.20880	34.52
0.22547	34.52
0.24213	34.52
0.25880	34.52
0.27547	34.52
0.29213	34.52
0.30880	34.52
0.32547	34.52
0.34213	34.52
0.35880	34.52
0.37547	34.52
0.39213	34.52
0.40880	34.52
0.42547	34.52
0.44213	34.52
0.45880	34.52
0.47547	34.52
0.49213	34.52
0.50880	34.52
0.52547	34.52
0.54213	34.52
0.55880	34.52
0.57547	34.52
0.59213	34.51
0.60880	34.52
0.62547	34.52
0.64213	34.52
0.65880	34.52
0.67547	34.52
0.69213	34.52
0.70880	34.52
0.72547	34.52
0.74213	34.52
0.75880	34.52
0.77547	34.52
0.79213	34.52
0.80880	34.52
0.82547	34.52
0.84213	34.52
0.85880	34.52
0.87547	34.52
0.89213	34.52
0.90880	34.52
0.92547	34.52
0.94213	34.52
0.95880	34.52
0.97547	34.52
0.99213	34.52
1.00880	34.52
1.02547	34.52
1.04213	34.51
1.05880	34.52
1.07547	34.52
1.09213	34.52
1.10880	34.52
1.12547	34.52
1.14213	34.52
1.15880	34.52
1.17547	34.52
1.19213	34.52
1.20880	34.52
1.22547	34.52
1.24213	34.52
1.25880	34.52
1.27547	34.52
1.29213	34.52
1.30880	34.52
1.32547	34.52
1.34213	34.52
1.35880	34.52
1.37547	34.52
1.39213	34.52
1.40880	34.52
1.42547	34.52
1.44213	34.51
1.45880	34.52
1.47547	34.52
1.49213	34.52
1.50880	34.52
1.52547	34.52
1.54213	34.52
1.55880	34.52
1.57547	34.52
1.59213	34.51
1.60880	34.52
1.62547	34.52
1.64213	34.52
1.65880	34.52
1.67547	34.52
1.69213	34.52
1.70880	34.52
1.72547	34.52
1.74213	34.52
1.75880	34.52
1.77547	34.52
1.79213	34.52
1.80880	34.53
1.82547	34.52
1.84213	34.53
1.85880	34.51
1.87547	34.52
1.89213	34.52
1.90880	34.52
1.92547	34.52
1.94213	34.52
1.95880	34.52
1.97547	34.51
1.99213	34.52
2.00880	34.52
2.02547	34.52
2.04213	34.52
2.05880	34.52
2.07547	34.52
2.09213	34.52
2.10880	34.51
2.12547	34.52
2.14213	34.52
2.15880	34.52
2.17547	34.52
2.19213	34.52
2.20880	34.52
2.22547	34.52
2.24213	34.51
2.25880	34.52
2.27547	34.51
2.29213	34.52
2.30880	34.52
2.32547	34.52
2.34213	34.52
2.35880	34.52
2.37547	34.52
2.39213	34.52
2.40880	34.52
2.42547	34.52
2.44213	34.52
2.45880	34.52
2.47547	34.52
2.49213	34.52
2.50880	34.48
2.52547	34.52
2.54213	34.52
2.55880	34.52
2.57547	34.52
2.59213	34.51
2.60880	34.52
2.62547	34.52
2.64213	34.52
2.65880	34.51
2.67547	34.53
2.69213	34.52
2.70880	34.52
2.72547	34.51
2.74213	34.51
2.75880	34.52
2.77547	34.52
2.79213	34.52
2.80880	34.52
2.82547	34.52
2.84213	34.52
2.85880	34.53
2.87547	34.52
2.89213	34.51
2.90880	34.52
2.92547	34.51
2.94213	34.52
2.95880	34.52
2.97547	34.52
2.99213	34.52
3.00880	34.52
3.02547	34.52
3.04213	34.51
3.05880	34.52
3.07547	34.52
3.09213	34.52
3.10880	34.52
3.12547	34.52
3.14213	34.52
3.15880	34.52
3.17547	34.52
3.19213	34.52
3.20880	34.52
3.22547	34.52
3.24213	34.52
3.25880	34.52
3.27547	34.52
3.29213	34.52
3.30880	34.52
3.32547	34.52
3.34213	34.52
3.35880	34.52
3.37547	34.52
3.39213	34.52
3.40880	34.51
3.42547	34.52
3.44213	34.52
3.45880	34.52
3.47547	34.52
3.49213	34.51
3.50880	34.52
3.52547	34.52
3.54213	34.52
3.55880	34.52
3.57547	34.52
3.59213	34.52
3.60880	34.52
3.62547	34.52
3.64213	34.52
3.65880	34.52
3.67547	34.52
3.69213	34.51
3.70880	34.52
3.72547	34.52
3.74213	34.52
3.75880	34.52
3.77547	34.51
3.79213	34.52
3.80880	34.52
3.82547	34.52
3.84213	34.52
3.85880	34.52
3.87547	34.52
3.89213	34.52
3.90880	34.52
3.92547	34.52
3.94213	34.52
3.95880	34.52
3.97547	34.52
3.99213	34.52

[Status Trace (Column Flow)]
Interval(msec)	1000
# of Points	240
Start Time(min)	0.009
End Time(min)	3.992
Intensity Units	
Intensity Multiplier	1
R.Time (min)	Intensity
0.00880	5.57
0.02547	5.25
0.04213	5.48
0.05880	5.73
0.07547	5.73
0.09213	5.58
0.10880	5.57
0.12547	5.58
0.14213	5.57
0.15880	5.57
0.17547	5.57
0.19213	5.57
0.20880	5.57
0.22547	5.57
0.24213	5.57
0.25880	5.57
0.27547	5.57
0.29213	5.57
0.30880	5.57
0.32547	5.57
0.34213	5.57
0.35880	5.57
0.37547	5.57
0.39213	5.57
0.40880	5.57
0.42547	5.57
0.44213	5.57
0.45880	5.57
0.47547	5.57
0.49213	5.57
0.50880	5.57
0.52547	5.57
0.54213	5.57
0.55880	5.57
0.57547	5.57
0.59213	5.57
0.60880	5.57
0.62547	5.57
0.64213	5.57
0.65880	5.57
0.67547	5.57
0.69213	5.57
0.70880	5.57
0.72547	5.57
0.74213	5.57
0.75880	5.57
0.77547	5.57
0.79213	5.57
0.80880	5.57
0.82547	5.57
0.84213	5.57
0.85880	5.57
0.87547	5.57
0.89213	5.57
0.90880	5.57
0.92547	5.57
0.94213	5.57
0.95880	5.57
0.97547	5.57
0.99213	5.57
1.00880	5.57
1.02547	5.57
1.04213	5.57
1.05880	5.57
1.07547	5.57
1.09213	5.57
1.10880	5.57
1.12547	5.57
1.14213	5.57
1.15880	5.57
1.17547	5.57
1.19213	5.57
1.20880	5.57
1.22547	5.57
1.24213	5.57
1.25880	5.57
1.27547	5.57
1.29213	5.57
1.30880	5.57
1.32547	5.57
1.34213	5.57
1.35880	5.57
1.37547	5.57
1.39213	5.57
1.40880	5.57
1.42547	5.57
1.44213	5.57
1.45880	5.57
1.47547	5.57
1.49213	5.57
1.50880	5.57
1.52547	5.57
1.54213	5.57
1.55880	5.57
1.57547	5.57
1.59213	5.57
1.60880	5.57
1.62547	5.57
1.64213	5.56
1.65880	5.55
1.67547	5.54
1.69213	5.53
1.70880	5.52
1.72547	5.51
1.74213	5.50
1.75880	5.49
1.77547	5.48
1.79213	5.47
1.80880	5.46
1.82547	5.45
1.84213	5.44
1.85880	5.43
1.87547	5.42
1.89213	5.41
1.90880	5.40
1.92547	5.39
1.94213	5.38
1.95880	5.37
1.97547	5.36
1.99213	5.35
2.00880	5.34
2.02547	5.33
2.04213	5.32
2.05880	5.31
2.07547	5.30
2.09213	5.29
2.10880	5.28
2.12547	5.27
2.14213	5.26
2.15880	5.25
2.17547	5.24
2.19213	5.24
2.20880	5.23
2.22547	5.22
2.24213	5.21
2.25880	5.20
2.27547	5.19
2.29213	5.18
2.30880	5.17
2.32547	5.16
2.34213	5.15
2.35880	5.14
2.37547	5.14
2.39213	5.13
2.40880	5.13
2.42547	5.13
2.44213	5.13
2.45880	5.13
2.47547	5.13
2.49213	5.13
2.50880	5.13
2.52547	5.13
2.54213	5.13
2.55880	5.13
2.57547	5.13
2.59213	5.13
2.60880	5.13
2.62547	5.13
2.64213	5.13
2.65880	5.13
2.67547	5.13
2.69213	5.13
2.70880	5.13
2.72547	5.13
2.74213	5.13
2.75880	5.13
2.77547	5.13
2.79213	5.13
2.80880	5.13
2.82547	5.13
2.84213	5.13
2.85880	5.13
2.87547	5.13
2.89213	5.13
2.90880	5.13
2.92547	5.13
2.94213	5.13
2.95880	5.13
2.97547	5.13
2.99213	5.13
3.00880	5.13
3.02547	5.13
3.04213	5.13
3.05880	5.13
3.07547	5.13
3.09213	5.13
3.10880	5.13
3.12547	5.12
3.14213	5.12
3.15880	5.12
3.17547	5.12
3.19213	5.12
3.20880	5.12
3.22547	5.12
3.24213	5.12
3.25880	5.12
3.27547	5.12
3.29213	5.12
3.30880	5.12
3.32547	5.12
3.34213	5.12
3.35880	5.12
3.37547	5.12
3.39213	5.12
3.40880	5.12
3.42547	5.13
3.44213	5.13
3.45880	5.13
3.47547	5.12
3.49213	5.12
3.50880	5.12
3.52547	5.12
3.54213	5.12
3.55880	5.12
3.57547	5.12
3.59213	5.12
3.60880	5.13
3.62547	5.13
3.64213	5.13
3.65880	5.13
3.67547	5.13
3.69213	5.13
3.70880	5.13
3.72547	5.12
3.74213	5.12
3.75880	5.12
3.77547	5.12
3.79213	5.12
3.80880	5.12
3.82547	5.12
3.84213	5.12
3.85880	5.12
3.87547	5.12
3.89213	5.12
3.90880	5.12
3.92547	5.12
3.94213	5.12
3.95880	5.12
3.97547	5.12
3.99213	5.12

[Status Trace (Linear Velocity)]
Interval(msec)	1000
# of Points	240
Start Time(min)	0.009
End Time(min)	3.992
Intensity Units	
Intensity Multiplier	1
R.Time (min)	Intensity
0.00880	39.03
0.02547	37.21
0.04213	38.50
0.05880	39.92
0.07547	39.88
0.09213	39.06
0.10880	39.02
0.12547	39.04
0.14213	39.04
0.15880	39.03
0.17547	39.03
0.19213	39.03
0.20880	39.03
0.22547	39.03
0.24213	39.03
0.25880	39.03
0.27547	39.03
0.29213	39.03
0.30880	39.03
0.32547	39.03
0.34213	39.03
0.35880	39.03
0.37547	39.03
0.39213	39.03
0.40880	39.03
0.42547	39.03
0.44213	39.03
0.45880	39.03
0.47547	39.03
0.49213	39.03
0.50880	39.03
0.52547	39.03
0.54213	39.03
0.55880	39.03
0.57547	39.03
0.59213	39.03
0.60880	39.03
0.62547	39.03
0.64213	39.03
0.65880	39.03
0.67547	39.03
0.69213	39.03
0.70880	39.03
0.72547	39.03
0.74213	39.03
0.75880	39.03
0.77547	39.03
0.79213	39.03
0.80880	39.03
0.82547	39.03
0.84213	39.03
0.85880	39.03
0.87547	39.03
0.89213	39.03
0.90880	39.03
0.92547	39.03
0.94213	39.03
0.95880	39.03
0.97547	39.03
0.99213	39.03
1.00880	39.03
1.02547	39.03
1.04213	39.03
1.05880	39.03
1.07547	39.03
1.09213	39.03
1.10880	39.03
1.12547	39.03
1.14213	39.03
1.15880	39.03
1.17547	39.03
1.19213	39.03
1.20880	39.03
1.22547	39.03
1.24213	39.03
1.25880	39.03
1.27547	39.03
1.29213	39.03
1.30880	39.03
1.32547	39.03
1.34213	39.03
1.35880	39.03
1.37547	39.03
1.39213	39.03
1.40880	39.03
1.42547	39.03
1.44213	39.03
1.45880	39.03
1.47547	39.03
1.49213	39.03
1.50880	39.03
1.52547	39.03
1.54213	39.03
1.55880	39.03
1.57547	39.03
1.59213	39.03
1.60880	39.02
1.62547	39.01
1.64213	39.00
1.65880	38.97
1.67547	38.94
1.69213	38.91
1.70880	38.87
1.72547	38.84
1.74213	38.81
1.75880	38.77
1.77547	38.74
1.79213	38.71
1.80880	38.68
1.82547	38.65
1.84213	38.62
1.85880	38.58
1.87547	38.55
1.89213	38.53
1.90880	38.49
1.92547	38.46
1.94213	38.44
1.95880	38.40
1.97547	38.37
1.99213	38.34
2.00880	38.31
2.02547	38.28
2.04213	38.25
2.05880	38.22
2.07547	38.19
2.09213	38.17
2.10880	38.13
2.12547	38.11
2.14213	38.08
2.15880	38.05
2.17547	38.02
2.19213	37.99
2.20880	37.96
2.22547	37.92
2.24213	37.90
2.25880	37.87
2.27547	37.84
2.29213	37.81
2.30880	37.78
2.32547	37.74
2.34213	37.72
2.35880	37.69
2.37547	37.67
2.39213	37.66
2.40880	37.66
2.42547	37.66
2.44213	37.66
2.45880	37.66
2.47547	37.66
2.49213	37.66
2.50880	37.66
2.52547	37.65
2.54213	37.66
2.55880	37.66
2.57547	37.66
2.59213	37.66
2.60880	37.66
2.62547	37.66
2.64213	37.66
2.65880	37.66
2.67547	37.66
2.69213	37.66
2.70880	37.66
2.72547	37.66
2.74213	37.66
2.75880	37.66
2.77547	37.65
2.79213	37.65
2.80880	37.65
2.82547	37.65
2.84213	37.65
2.85880	37.65
2.87547	37.65
2.89213	37.65
2.90880	37.65
2.92547	37.65
2.94213	37.65
2.95880	37.65
2.97547	37.65
2.99213	37.65
3.00880	37.64
3.02547	37.64
3.04213	37.64
3.05880	37.64
3.07547	37.64
3.09213	37.64
3.10880	37.64
3.12547	37.64
3.14213	37.64
3.15880	37.64
3.17547	37.64
3.19213	37.64
3.20880	37.64
3.22547	37.63
3.24213	37.63
3.25880	37.63
3.27547	37.64
3.29213	37.64
3.30880	37.64
3.32547	37.64
3.34213	37.64
3.35880	37.64
3.37547	37.64
3.39213	37.64
3.40880	37.64
3.42547	37.64
3.44213	37.64
3.45880	37.64
3.47547	37.64
3.49213	37.64
3.50880	37.64
3.52547	37.64
3.54213	37.64
3.55880	37.64
3.57547	37.64
3.59213	37.64
3.60880	37.64
3.62547	37.64
3.64213	37.64
3.65880	37.64
3.67547	37.64
3.69213	37.64
3.70880	37.64
3.72547	37.64
3.74213	37.64
3.75880	37.64
3.77547	37.64
3.79213	37.64
3.80880	37.64
3.82547	37.64
3.84213	37.64
3.85880	37.64
3.87547	37.64
3.89213	37.64
3.90880	37.64
3.92547	37.64
3.94213	37.64
3.95880	37.64
3.97547	37.64
3.99213	37.64

