[Header]
Application Name	LabSolutions
Version	5.110
Data File Name	C:\Users\User\Desktop\GC Analyses\Jack\Nachusa Grasslands Sampling\T0 Timepoint July 12th\T0_07122022_065.gcd
Output Date	3/14/2023
Output Time	3:40:38 PM

[File Information]
Type	Data File
Generated	3/7/2023 9:00:56 PM
Generated by	System Administrator
Modified	3/7/2023 9:07:35 PM
Modified by	System Administrator

[Sample Information]
Operator Name	System Administrator
Acquired	3/7/2023 9:03:34 PM
Sample Type	0:Unknown
Level	0
Sample Name	065
Sample ID	065
ISTD Amount1	1
ISTD Amount2	1
ISTD Amount3	1
ISTD Amount4	1
ISTD Amount5	1
ISTD Amount6	1
ISTD Amount7	1
ISTD Amount8	1
ISTD Amount9	1
ISTD Amount10	1
ISTD Amount11	1
ISTD Amount12	1
ISTD Amount13	1
ISTD Amount14	1
ISTD Amount15	1
ISTD Amount16	1
ISTD Amount17	1
ISTD Amount18	1
ISTD Amount19	1
ISTD Amount20	1
ISTD Amount21	1
ISTD Amount22	1
ISTD Amount23	1
ISTD Amount24	1
ISTD Amount25	1
ISTD Amount26	1
ISTD Amount27	1
ISTD Amount28	1
ISTD Amount29	1
ISTD Amount30	1
ISTD Amount31	1
ISTD Amount32	1
Sample Amount	1
Dilution Factor	1
Vial#	64
Injection Volume	1
Injection Count	1
Bar Code	

[Original Files]
Data File	C:\Users\User\Desktop\GC Analyses\Jack\Nachusa Grasslands Sampling\T0 Timepoint July 12th\T0_07122022_065.gcd
Method File	C:\LabSolutions\Data\GHG_4min_2022\ghg3_togas_w_acet_4 min_new_int.gcm
Batch File	C:\LabSolutions\Data\AutoSamplerTesting\T0_07122022.gcb
Report Format File	c:\LabSolutions\System\DEFAULT.lsr

[File Description]


[Configuration]
Instrument Name	C0B7VH3-Instrument1
Instrument #	1
Line #	1
# of Detectors	3
Detector ID	DET#1	DET#2	DET#3
Detector Name	FID	PTCD	ECD
# of Channels	1	1	1

[Peak Table(Ch1)]
# of Peaks	3
Peak#	R.Time	I.Time	F.Time	Area	Height	A/H	Conc.	Mark	ID#	Name	k'	Plate #	Plate Ht.	Tailing	Resolution	Sep.Factor	Area Ratio	Height Ratio	Conc. %	Norm Conc.
1	1.483	1.439	1.531	2411	692	3.484	17.024	   	1	CO	0.000	4631	32.388	0.000	0.000	0.000	0	0	1.754	1.754
2	1.567	1.531	1.666	21161	10448	2.025	409.159	 V 	2	CH4	0.057	11121	13.488	1.262	1.150	0.000	0	0	42.155	42.155
3	1.996	1.952	2.543	2169233	1021196	2.124	544.419	   	3	CO2	0.346	17016	8.815	1.287	7.110	6.087	0	0	56.091	56.091

[Peak Table(Ch2)]
# of Peaks	0

[Peak Table(Ch3)]
# of Peaks	6
Peak#	R.Time	I.Time	F.Time	Area	Height	A/H	Conc.	Mark	ID#	Name	k'	Plate #	Plate Ht.	Tailing	Resolution	Sep.Factor	Area Ratio	Height Ratio	Conc. %	Norm Conc.
1	0.588	0.244	0.772	333	25	13.366	0.000	   			0.000	235	637.484	0.766	0.000	0.000	0	0	0.000	0.000
2	2.462	2.165	2.521	2595	448	5.795	0.000	   			3.185	5468	27.434	0.000	13.075	0.000	0	0	0.000	0.000
3	2.546	2.521	2.634	1310	276	4.738	0.000	 V 			3.328	2094	71.635	0.000	0.474	1.045	0	0	0.000	0.000
4	2.722	2.645	2.730	420	126	3.322	0.011	   	1	N2O	3.627	2048	73.239	0.000	0.760	1.090	0	0	0.685	0.685
5	2.873	2.730	3.151	60933	15299	3.983	1.556	 V 	1	N2O	3.883	12547	11.955	1.637	0.876	1.070	0	0	99.315	99.315
6	3.298	3.159	3.995	13284	496	26.773	0.000	   	2	SF6	4.606	340	441.810	2.886	1.039	1.186	0	0	0.000	0.000

[Compound Results(Ch1)]
# of IDs	6
ID#	Name	R.Time	Area	Height	Conc.	Curve	3rd	2nd	1st	Constant	Area Ratio	Height Ratio	Conc. %	Norm Conc.
1	CO	1.483	2411	692	17.024	Linear	0.000000e+00	0.000000e+00	1.416423e+002	0.000000e+00	0	0	1.754	1.754
2	CH4	1.567	21161	10448	409.159	Linear	0.000000e+00	0.000000e+00	5.171738e+001	0.000000e+00	0	0	42.155	42.155
3	CO2	1.996	2169233	1021196	544.419	Linear	0.000000e+00	0.000000e+00	3.984494e+003	0.000000e+00	0	0	56.091	56.091
4	Ethylene	0.000	0	0	0.000	Linear	0.000000e+00	0.000000e+00	0.000000e+00	0.000000e+00	0	0	0.000	0.000
5	Acetylene	0.000	0	0	0.000	Linear	0.000000e+00	0.000000e+00	0.000000e+00	0.000000e+00	0	0	0.000	0.000
6	Ethane	0.000	0	0	0.000	Linear	0.000000e+00	0.000000e+00	0.000000e+00	0.000000e+00	0	0	0.000	0.000

[Compound Results(Ch2)]
# of IDs	5
ID#	Name	R.Time	Area	Height	Conc.	Curve	3rd	2nd	1st	Constant	Area Ratio	Height Ratio	Conc. %	Norm Conc.
1	Hydrogen	0.000	0	0	0.000	Linear	0.000000e+00	0.000000e+00	0.000000e+00	0.000000e+00	0	0	0.000	0.000
2	Oxygen	0.000	0	0	0.000	Linear	0.000000e+00	0.000000e+00	0.000000e+00	0.000000e+00	0	0	0.000	0.000
3	Nitrogen	0.000	0	0	0.000	Linear	0.000000e+00	0.000000e+00	0.000000e+00	0.000000e+00	0	0	0.000	0.000
4	Methane	0.000	0	0	0.000	Linear	0.000000e+00	0.000000e+00	0.000000e+00	0.000000e+00	0	0	0.000	0.000
5	Carbon Monoxide	0.000	0	0	0.000	Linear	0.000000e+00	0.000000e+00	0.000000e+00	0.000000e+00	0	0	0.000	0.000

[Compound Results(Ch3)]
# of IDs	2
ID#	Name	R.Time	Area	Height	Conc.	Curve	3rd	2nd	1st	Constant	Area Ratio	Height Ratio	Conc. %	Norm Conc.
1	N2O	2.873	61353	15425	1.567	Linear	0.000000e+00	0.000000e+00	3.915173e+004	0.000000e+00	0	0	100.000	100.000
2	SF6	3.298	13284	496	0.000	Linear	0.000000e+00	0.000000e+00	0.000000e+00	0.000000e+00	0	0	0.000	0.000

[Group Results(Ch1)]
# of Groups	0

[Group Results(Ch2)]
# of Groups	0

[Group Results(Ch3)]
# of Groups	0

[Chromatogram (Ch1)]
Interval(msec)	220
# of Points	1091
Start Time(min)	0.002
End Time(min)	3.998
R.Time (min)	Intensity
0.00167	14
0.00533	14
0.00900	13
0.01267	13
0.01633	15
0.02000	18
0.02367	19
0.02733	20
0.03100	23
0.03467	28
0.03833	32
0.04200	33
0.04567	33
0.04933	31
0.05300	29
0.05667	28
0.06033	24
0.06400	15
0.06767	7
0.07133	2
0.07500	1
0.07867	4
0.08233	6
0.08600	7
0.08967	10
0.09333	11
0.09700	11
0.10067	7
0.10433	5
0.10800	10
0.11167	18
0.11533	24
0.11900	26
0.12267	28
0.12633	28
0.13000	28
0.13367	29
0.13733	27
0.14100	23
0.14467	20
0.14833	18
0.15200	25
0.15567	34
0.15933	38
0.16300	34
0.16667	29
0.17033	22
0.17400	13
0.17767	4
0.18133	-0
0.18500	-1
0.18867	-3
0.19233	-1
0.19600	4
0.19967	14
0.20333	23
0.20700	29
0.21067	31
0.21433	31
0.21800	28
0.22167	21
0.22533	13
0.22900	9
0.23267	10
0.23633	16
0.24000	23
0.24367	30
0.24733	37
0.25100	42
0.25467	44
0.25833	45
0.26200	46
0.26567	45
0.26933	42
0.27300	40
0.27667	42
0.28033	48
0.28400	54
0.28767	57
0.29133	57
0.29500	54
0.29867	48
0.30233	42
0.30600	37
0.30967	34
0.31333	34
0.31700	35
0.32067	40
0.32433	44
0.32800	49
0.33167	52
0.33533	56
0.33900	60
0.34267	60
0.34633	57
0.35000	53
0.35367	49
0.35733	45
0.36100	40
0.36467	38
0.36833	38
0.37200	41
0.37567	44
0.37933	43
0.38300	39
0.38667	36
0.39033	34
0.39400	33
0.39767	33
0.40133	32
0.40500	30
0.40867	30
0.41233	30
0.41600	32
0.41967	36
0.42333	42
0.42700	42
0.43067	38
0.43433	30
0.43800	23
0.44167	20
0.44533	20
0.44900	20
0.45267	20
0.45633	20
0.46000	25
0.46367	31
0.46733	32
0.47100	29
0.47467	26
0.47833	24
0.48200	27
0.48567	30
0.48933	28
0.49300	18
0.49667	6
0.50033	-3
0.50400	-8
0.50767	-7
0.51133	1
0.51500	11
0.51867	23
0.52233	32
0.52600	37
0.52967	38
0.53333	33
0.53700	22
0.54067	12
0.54433	4
0.54800	1
0.55167	-1
0.55533	-3
0.55900	-6
0.56267	-8
0.56633	-5
0.57000	-1
0.57367	0
0.57733	-1
0.58100	-3
0.58467	-3
0.58833	-2
0.59200	1
0.59567	5
0.59933	12
0.60300	20
0.60667	19
0.61033	15
0.61400	11
0.61767	10
0.62133	12
0.62500	15
0.62867	18
0.63233	22
0.63600	23
0.63967	20
0.64333	13
0.64700	6
0.65067	4
0.65433	4
0.65800	5
0.66167	5
0.66533	3
0.66900	2
0.67267	2
0.67633	2
0.68000	0
0.68367	-1
0.68733	-4
0.69100	-9
0.69467	-16
0.69833	-21
0.70200	-22
0.70567	-21
0.70933	-20
0.71300	-16
0.71667	-9
0.72033	4
0.72400	14
0.72767	17
0.73133	15
0.73500	10
0.73867	8
0.74233	9
0.74600	6
0.74967	-0
0.75333	-5
0.75700	-6
0.76067	-5
0.76433	-3
0.76800	-0
0.77167	4
0.77533	5
0.77900	0
0.78267	-5
0.78633	-10
0.79000	-15
0.79367	-18
0.79733	-17
0.80100	-15
0.80467	-10
0.80833	-5
0.81200	-3
0.81567	-4
0.81933	-4
0.82300	0
0.82667	7
0.83033	14
0.83400	18
0.83767	17
0.84133	17
0.84500	17
0.84867	17
0.85233	15
0.85600	11
0.85967	2
0.86333	-10
0.86700	-19
0.87067	-22
0.87433	-20
0.87800	-19
0.88167	-22
0.88533	-28
0.88900	-32
0.89267	-34
0.89633	-36
0.90000	-32
0.90367	-27
0.90733	-23
0.91100	-22
0.91467	-22
0.91833	-22
0.92200	-17
0.92567	-11
0.92933	-6
0.93300	-6
0.93667	-6
0.94033	-2
0.94400	4
0.94767	11
0.95133	16
0.95500	15
0.95867	10
0.96233	2
0.96600	-4
0.96967	-13
0.97333	-23
0.97700	-29
0.98067	-31
0.98433	-31
0.98800	-28
0.99167	-26
0.99533	-25
0.99900	-25
1.00267	-25
1.00633	-23
1.01000	-15
1.01367	-6
1.01733	3
1.02100	10
1.02467	12
1.02833	7
1.03200	-1
1.03567	-6
1.03933	-11
1.04300	-12
1.04667	-15
1.05033	-18
1.05400	-19
1.05767	-17
1.06133	-13
1.06500	-10
1.06867	-5
1.07233	2
1.07600	12
1.07967	17
1.08333	16
1.08700	11
1.09067	0
1.09433	-13
1.09800	-22
1.10167	-28
1.10533	-38
1.10900	-45
1.11267	-48
1.11633	-48
1.12000	-46
1.12367	-45
1.12733	-44
1.13100	-41
1.13467	-33
1.13833	-27
1.14200	-23
1.14567	-19
1.14933	-14
1.15300	-11
1.15667	-9
1.16033	-9
1.16400	-7
1.16767	-5
1.17133	-5
1.17500	-5
1.17867	-10
1.18233	-19
1.18600	-28
1.18967	-35
1.19333	-34
1.19700	-30
1.20067	-26
1.20433	-23
1.20800	-19
1.21167	-19
1.21533	-18
1.21900	-17
1.22267	-13
1.22633	-6
1.23000	-2
1.23367	-2
1.23733	-4
1.24100	-3
1.24467	-5
1.24833	-15
1.25200	-26
1.25567	-32
1.25933	-37
1.26300	-41
1.26667	-47
1.27033	-54
1.27400	-57
1.27767	-58
1.28133	-62
1.28500	-68
1.28867	-71
1.29233	-69
1.29600	-61
1.29967	-52
1.30333	-46
1.30700	-41
1.31067	-38
1.31433	-35
1.31800	-34
1.32167	-32
1.32533	-28
1.32900	-25
1.33267	-21
1.33633	-16
1.34000	-12
1.34367	-13
1.34733	-18
1.35100	-25
1.35467	-32
1.35833	-37
1.36200	-37
1.36567	-34
1.36933	-28
1.37300	-21
1.37667	-17
1.38033	-13
1.38400	-11
1.38767	-12
1.39133	-10
1.39500	-7
1.39867	-7
1.40233	-10
1.40600	-12
1.40967	-14
1.41333	-11
1.41700	-7
1.42067	-6
1.42433	-11
1.42800	-19
1.43167	-27
1.43533	-29
1.43900	-12
1.44267	72
1.44633	235
1.45000	404
1.45367	528
1.45733	595
1.46100	621
1.46467	624
1.46833	622
1.47200	625
1.47567	643
1.47933	669
1.48300	686
1.48667	678
1.49033	638
1.49400	575
1.49767	503
1.50133	430
1.50500	363
1.50867	305
1.51233	256
1.51600	214
1.51967	179
1.52333	151
1.52700	133
1.53067	124
1.53433	131
1.53800	213
1.54167	555
1.54533	1453
1.54900	3026
1.55267	5014
1.55633	6990
1.56000	8641
1.56367	9827
1.56733	10451
1.57100	10373
1.57467	9535
1.57833	8091
1.58200	6380
1.58567	4741
1.58933	3377
1.59300	2338
1.59667	1590
1.60033	1073
1.60400	723
1.60767	486
1.61133	328
1.61500	224
1.61867	159
1.62233	119
1.62600	94
1.62967	81
1.63333	74
1.63700	67
1.64067	56
1.64433	44
1.64800	34
1.65167	26
1.65533	19
1.65900	14
1.66267	15
1.66633	14
1.67000	11
1.67367	8
1.67733	9
1.68100	12
1.68467	12
1.68833	10
1.69200	8
1.69567	7
1.69933	9
1.70300	11
1.70667	12
1.71033	11
1.71400	10
1.71767	15
1.72133	24
1.72500	30
1.72867	29
1.73233	22
1.73600	17
1.73967	15
1.74333	19
1.74700	30
1.75067	42
1.75433	44
1.75800	40
1.76167	34
1.76533	26
1.76900	16
1.77267	4
1.77633	-5
1.78000	-8
1.78367	-9
1.78733	-5
1.79100	2
1.79467	9
1.79833	15
1.80200	17
1.80567	19
1.80933	21
1.81300	23
1.81667	25
1.82033	27
1.82400	28
1.82767	25
1.83133	18
1.83500	13
1.83867	13
1.84233	17
1.84600	22
1.84967	29
1.85333	33
1.85700	32
1.86067	29
1.86433	27
1.86800	24
1.87167	22
1.87533	21
1.87900	23
1.88267	24
1.88633	24
1.89000	28
1.89367	35
1.89733	39
1.90100	39
1.90467	38
1.90833	35
1.91200	34
1.91567	37
1.91933	43
1.92300	47
1.92667	52
1.93033	53
1.93400	48
1.93767	42
1.94133	35
1.94500	26
1.94867	22
1.95233	47
1.95600	254
1.95967	1452
1.96333	6769
1.96700	24702
1.97067	71218
1.97433	164813
1.97800	312251
1.98167	498023
1.98533	690759
1.98900	857437
1.99267	972630
1.99633	1021279
2.00000	999042
2.00367	913401
2.00733	783111
2.01100	633077
2.01467	486537
2.01833	359179
2.02200	257611
2.02567	181541
2.02933	127035
2.03300	89129
2.03667	63249
2.04033	45737
2.04400	33901
2.04767	25859
2.05133	20335
2.05500	16476
2.05867	13720
2.06233	11700
2.06600	10177
2.06967	8996
2.07333	8057
2.07700	7296
2.08067	6672
2.08433	6151
2.08800	5710
2.09167	5332
2.09533	5002
2.09900	4707
2.10267	4438
2.10633	4198
2.11000	3984
2.11367	3790
2.11733	3613
2.12100	3455
2.12467	3310
2.12833	3176
2.13200	3053
2.13567	2938
2.13933	2832
2.14300	2726
2.14667	2621
2.15033	2522
2.15400	2433
2.15767	2353
2.16133	2279
2.16500	2206
2.16867	2136
2.17233	2072
2.17600	2016
2.17967	1969
2.18333	1925
2.18700	1878
2.19067	1829
2.19433	1781
2.19800	1733
2.20167	1687
2.20533	1641
2.20900	1597
2.21267	1554
2.21633	1515
2.22000	1479
2.22367	1445
2.22733	1413
2.23100	1382
2.23467	1351
2.23833	1319
2.24200	1289
2.24567	1266
2.24933	1246
2.25300	1229
2.25667	1212
2.26033	1194
2.26400	1174
2.26767	1153
2.27133	1133
2.27500	1115
2.27867	1101
2.28233	1086
2.28600	1069
2.28967	1052
2.29333	1038
2.29700	1025
2.30067	1012
2.30433	1001
2.30800	993
2.31167	985
2.31533	970
2.31900	951
2.32267	933
2.32633	921
2.33000	910
2.33367	897
2.33733	881
2.34100	865
2.34467	851
2.34833	840
2.35200	831
2.35567	822
2.35933	817
2.36300	815
2.36667	813
2.37033	810
2.37400	805
2.37767	796
2.38133	781
2.38500	765
2.38867	750
2.39233	737
2.39600	729
2.39967	723
2.40333	716
2.40700	708
2.41067	701
2.41433	693
2.41800	685
2.42167	678
2.42533	673
2.42900	674
2.43267	676
2.43633	676
2.44000	674
2.44367	673
2.44733	673
2.45100	674
2.45467	671
2.45833	663
2.46200	650
2.46567	639
2.46933	630
2.47300	624
2.47667	623
2.48033	621
2.48400	616
2.48767	605
2.49133	591
2.49500	580
2.49867	575
2.50233	575
2.50600	577
2.50967	577
2.51333	575
2.51700	573
2.52067	570
2.52433	564
2.52800	558
2.53167	552
2.53533	543
2.53900	535
2.54267	529
2.54633	526
2.55000	526
2.55367	527
2.55733	532
2.56100	541
2.56467	548
2.56833	550
2.57200	551
2.57567	553
2.57933	551
2.58300	543
2.58667	530
2.59033	518
2.59400	508
2.59767	503
2.60133	500
2.60500	497
2.60867	495
2.61233	494
2.61600	496
2.61967	499
2.62333	503
2.62700	508
2.63067	508
2.63433	502
2.63800	495
2.64167	488
2.64533	486
2.64900	491
2.65267	497
2.65633	497
2.66000	491
2.66367	484
2.66733	475
2.67100	469
2.67467	466
2.67833	464
2.68200	464
2.68567	464
2.68933	462
2.69300	461
2.69667	464
2.70033	469
2.70400	476
2.70767	479
2.71133	482
2.71500	483
2.71867	482
2.72233	476
2.72600	470
2.72967	464
2.73333	459
2.73700	457
2.74067	456
2.74433	456
2.74800	458
2.75167	457
2.75533	452
2.75900	446
2.76267	441
2.76633	438
2.77000	439
2.77367	444
2.77733	451
2.78100	462
2.78467	476
2.78833	484
2.79200	482
2.79567	473
2.79933	463
2.80300	456
2.80667	447
2.81033	436
2.81400	426
2.81767	420
2.82133	415
2.82500	414
2.82867	414
2.83233	414
2.83600	414
2.83967	416
2.84333	421
2.84700	426
2.85067	432
2.85433	438
2.85800	441
2.86167	442
2.86533	442
2.86900	438
2.87267	434
2.87633	430
2.88000	431
2.88367	433
2.88733	433
2.89100	433
2.89467	435
2.89833	436
2.90200	436
2.90567	435
2.90933	431
2.91300	424
2.91667	418
2.92033	411
2.92400	402
2.92767	390
2.93133	380
2.93500	382
2.93867	394
2.94233	411
2.94600	424
2.94967	427
2.95333	423
2.95700	414
2.96067	407
2.96433	403
2.96800	403
2.97167	404
2.97533	408
2.97900	414
2.98267	419
2.98633	425
2.99000	428
2.99367	427
2.99733	425
3.00100	418
3.00467	410
3.00833	405
3.01200	407
3.01567	411
3.01933	415
3.02300	417
3.02667	416
3.03033	412
3.03400	407
3.03767	402
3.04133	397
3.04500	391
3.04867	384
3.05233	377
3.05600	376
3.05967	381
3.06333	389
3.06700	397
3.07067	403
3.07433	405
3.07800	402
3.08167	395
3.08533	388
3.08900	389
3.09267	398
3.09633	406
3.10000	409
3.10367	410
3.10733	410
3.11100	411
3.11467	411
3.11833	406
3.12200	397
3.12567	386
3.12933	377
3.13300	371
3.13667	368
3.14033	370
3.14400	373
3.14767	378
3.15133	382
3.15500	386
3.15867	390
3.16233	392
3.16600	391
3.16967	388
3.17333	382
3.17700	376
3.18067	369
3.18433	362
3.18800	355
3.19167	353
3.19533	351
3.19900	349
3.20267	348
3.20633	351
3.21000	358
3.21367	367
3.21733	376
3.22100	378
3.22467	375
3.22833	371
3.23200	368
3.23567	365
3.23933	363
3.24300	359
3.24667	356
3.25033	355
3.25400	353
3.25767	351
3.26133	350
3.26500	351
3.26867	352
3.27233	353
3.27600	352
3.27967	353
3.28333	356
3.28700	357
3.29067	355
3.29433	350
3.29800	348
3.30167	349
3.30533	353
3.30900	355
3.31267	356
3.31633	357
3.32000	359
3.32367	362
3.32733	365
3.33100	363
3.33467	358
3.33833	351
3.34200	344
3.34567	339
3.34933	338
3.35300	339
3.35667	339
3.36033	338
3.36400	339
3.36767	344
3.37133	348
3.37500	353
3.37867	358
3.38233	359
3.38600	352
3.38967	345
3.39333	337
3.39700	333
3.40067	331
3.40433	332
3.40800	333
3.41167	336
3.41533	341
3.41900	340
3.42267	337
3.42633	338
3.43000	340
3.43367	341
3.43733	337
3.44100	331
3.44467	328
3.44833	327
3.45200	325
3.45567	322
3.45933	320
3.46300	321
3.46667	323
3.47033	325
3.47400	326
3.47767	325
3.48133	324
3.48500	318
3.48867	309
3.49233	303
3.49600	303
3.49967	308
3.50333	316
3.50700	325
3.51067	333
3.51433	339
3.51800	340
3.52167	337
3.52533	331
3.52900	325
3.53267	319
3.53633	311
3.54000	303
3.54367	298
3.54733	299
3.55100	303
3.55467	305
3.55833	305
3.56200	307
3.56567	306
3.56933	301
3.57300	296
3.57667	296
3.58033	298
3.58400	297
3.58767	296
3.59133	296
3.59500	296
3.59867	293
3.60233	292
3.60600	294
3.60967	296
3.61333	301
3.61700	311
3.62067	324
3.62433	333
3.62800	334
3.63167	324
3.63533	309
3.63900	293
3.64267	283
3.64633	275
3.65000	272
3.65367	273
3.65733	277
3.66100	278
3.66467	280
3.66833	283
3.67200	283
3.67567	280
3.67933	275
3.68300	272
3.68667	273
3.69033	274
3.69400	276
3.69767	277
3.70133	277
3.70500	274
3.70867	272
3.71233	271
3.71600	271
3.71967	273
3.72333	278
3.72700	279
3.73067	277
3.73433	277
3.73800	277
3.74167	276
3.74533	273
3.74900	271
3.75267	271
3.75633	275
3.76000	283
3.76367	289
3.76733	293
3.77100	291
3.77467	287
3.77833	284
3.78200	280
3.78567	274
3.78933	267
3.79300	263
3.79667	262
3.80033	261
3.80400	261
3.80767	261
3.81133	260
3.81500	259
3.81867	256
3.82233	248
3.82600	242
3.82967	244
3.83333	247
3.83700	248
3.84067	249
3.84433	252
3.84800	254
3.85167	254
3.85533	252
3.85900	250
3.86267	248
3.86633	251
3.87000	256
3.87367	255
3.87733	249
3.88100	241
3.88467	239
3.88833	241
3.89200	246
3.89567	251
3.89933	255
3.90300	256
3.90667	254
3.91033	250
3.91400	243
3.91767	234
3.92133	227
3.92500	221
3.92867	216
3.93233	213
3.93600	214
3.93967	215
3.94333	220
3.94700	229
3.95067	240
3.95433	246
3.95800	247
3.96167	243
3.96533	236
3.96900	232
3.97267	231
3.97633	226
3.98000	221
3.98367	217
3.98733	216
3.99100	215
3.99467	213
3.99833	213

[Chromatogram (Ch2)]
Interval(msec)	220
# of Points	1091
Start Time(min)	0.002
End Time(min)	3.998
R.Time (min)	Intensity
0.00167	-1
0.00533	-1
0.00900	-1
0.01267	-1
0.01633	-1
0.02000	-1
0.02367	-1
0.02733	-1
0.03100	-1
0.03467	-1
0.03833	-1
0.04200	-1
0.04567	-1
0.04933	-1
0.05300	-1
0.05667	-1
0.06033	-0
0.06400	-0
0.06767	0
0.07133	0
0.07500	1
0.07867	1
0.08233	1
0.08600	1
0.08967	1
0.09333	1
0.09700	1
0.10067	1
0.10433	1
0.10800	1
0.11167	1
0.11533	1
0.11900	0
0.12267	0
0.12633	-0
0.13000	-0
0.13367	-0
0.13733	-0
0.14100	-1
0.14467	-1
0.14833	-1
0.15200	-1
0.15567	-1
0.15933	-1
0.16300	-1
0.16667	-1
0.17033	-1
0.17400	-1
0.17767	-1
0.18133	-1
0.18500	-1
0.18867	-1
0.19233	-0
0.19600	-0
0.19967	0
0.20333	0
0.20700	1
0.21067	1
0.21433	1
0.21800	1
0.22167	1
0.22533	1
0.22900	1
0.23267	2
0.23633	2
0.24000	2
0.24367	2
0.24733	2
0.25100	2
0.25467	2
0.25833	1
0.26200	1
0.26567	1
0.26933	0
0.27300	0
0.27667	0
0.28033	0
0.28400	0
0.28767	-0
0.29133	-0
0.29500	-1
0.29867	-1
0.30233	-1
0.30600	-1
0.30967	-1
0.31333	-1
0.31700	-1
0.32067	-1
0.32433	-0
0.32800	1
0.33167	1
0.33533	1
0.33900	1
0.34267	1
0.34633	1
0.35000	1
0.35367	1
0.35733	1
0.36100	1
0.36467	1
0.36833	1
0.37200	1
0.37567	1
0.37933	1
0.38300	1
0.38667	0
0.39033	0
0.39400	0
0.39767	0
0.40133	0
0.40500	-0
0.40867	-0
0.41233	-0
0.41600	-0
0.41967	-0
0.42333	0
0.42700	0
0.43067	1
0.43433	1
0.43800	1
0.44167	1
0.44533	0
0.44900	0
0.45267	-0
0.45633	-1
0.46000	-1
0.46367	-1
0.46733	-2
0.47100	-2
0.47467	-2
0.47833	-2
0.48200	-2
0.48567	-2
0.48933	-2
0.49300	-2
0.49667	-2
0.50033	-2
0.50400	-2
0.50767	-2
0.51133	-2
0.51500	-1
0.51867	-1
0.52233	-1
0.52600	-1
0.52967	-1
0.53333	-1
0.53700	-1
0.54067	-1
0.54433	-0
0.54800	-0
0.55167	-0
0.55533	-0
0.55900	-0
0.56267	-0
0.56633	-0
0.57000	-1
0.57367	-1
0.57733	-1
0.58100	-1
0.58467	-1
0.58833	-1
0.59200	-1
0.59567	-1
0.59933	-1
0.60300	-1
0.60667	-0
0.61033	0
0.61400	0
0.61767	1
0.62133	1
0.62500	1
0.62867	2
0.63233	2
0.63600	2
0.63967	2
0.64333	2
0.64700	2
0.65067	2
0.65433	1
0.65800	1
0.66167	1
0.66533	1
0.66900	0
0.67267	-0
0.67633	-1
0.68000	-1
0.68367	-1
0.68733	-1
0.69100	-1
0.69467	-2
0.69833	-2
0.70200	-2
0.70567	-2
0.70933	-2
0.71300	-2
0.71667	-2
0.72033	-2
0.72400	-2
0.72767	-3
0.73133	-3
0.73500	-3
0.73867	-3
0.74233	-3
0.74600	-3
0.74967	-3
0.75333	-4
0.75700	-4
0.76067	-4
0.76433	-4
0.76800	-4
0.77167	-4
0.77533	-4
0.77900	-4
0.78267	-3
0.78633	-3
0.79000	-2
0.79367	-2
0.79733	-2
0.80100	-1
0.80467	-1
0.80833	-1
0.81200	-0
0.81567	0
0.81933	1
0.82300	1
0.82667	1
0.83033	1
0.83400	1
0.83767	2
0.84133	2
0.84500	2
0.84867	2
0.85233	2
0.85600	2
0.85967	2
0.86333	2
0.86700	2
0.87067	1
0.87433	1
0.87800	1
0.88167	1
0.88533	0
0.88900	-0
0.89267	-1
0.89633	-1
0.90000	-1
0.90367	-1
0.90733	-1
0.91100	-1
0.91467	-1
0.91833	-1
0.92200	-1
0.92567	-1
0.92933	-1
0.93300	-1
0.93667	-1
0.94033	-1
0.94400	-1
0.94767	-1
0.95133	-1
0.95500	-1
0.95867	-1
0.96233	-2
0.96600	-2
0.96967	-2
0.97333	-2
0.97700	-2
0.98067	-2
0.98433	-1
0.98800	-1
0.99167	-1
0.99533	-1
0.99900	-0
1.00267	-0
1.00633	0
1.01000	0
1.01367	0
1.01733	1
1.02100	1
1.02467	1
1.02833	0
1.03200	-0
1.03567	-0
1.03933	-1
1.04300	-1
1.04667	-1
1.05033	-2
1.05400	-2
1.05767	-3
1.06133	-3
1.06500	-3
1.06867	-4
1.07233	-4
1.07600	-4
1.07967	-4
1.08333	-4
1.08700	-4
1.09067	-4
1.09433	-4
1.09800	-3
1.10167	-3
1.10533	-3
1.10900	-3
1.11267	-3
1.11633	-2
1.12000	-2
1.12367	-2
1.12733	-2
1.13100	-1
1.13467	-1
1.13833	-1
1.14200	-0
1.14567	0
1.14933	0
1.15300	-0
1.15667	-0
1.16033	-1
1.16400	-1
1.16767	-2
1.17133	-3
1.17500	-3
1.17867	-3
1.18233	-3
1.18600	-3
1.18967	-3
1.19333	-3
1.19700	-3
1.20067	-4
1.20433	-4
1.20800	-4
1.21167	-4
1.21533	-4
1.21900	-4
1.22267	-4
1.22633	-4
1.23000	-4
1.23367	-4
1.23733	-4
1.24100	-4
1.24467	-4
1.24833	-4
1.25200	-4
1.25567	-4
1.25933	-4
1.26300	-4
1.26667	-4
1.27033	-4
1.27400	-3
1.27767	-3
1.28133	-3
1.28500	-2
1.28867	-2
1.29233	-2
1.29600	-3
1.29967	-3
1.30333	-3
1.30700	-3
1.31067	-3
1.31433	-3
1.31800	-2
1.32167	-2
1.32533	-2
1.32900	-2
1.33267	-1
1.33633	-1
1.34000	-0
1.34367	0
1.34733	0
1.35100	1
1.35467	1
1.35833	1
1.36200	1
1.36567	0
1.36933	0
1.37300	0
1.37667	0
1.38033	-0
1.38400	-1
1.38767	-1
1.39133	-1
1.39500	-1
1.39867	-2
1.40233	-2
1.40600	-2
1.40967	-2
1.41333	-2
1.41700	-2
1.42067	-3
1.42433	-3
1.42800	-3
1.43167	-3
1.43533	-3
1.43900	-3
1.44267	-3
1.44633	-2
1.45000	-2
1.45367	-2
1.45733	-1
1.46100	-1
1.46467	0
1.46833	0
1.47200	1
1.47567	1
1.47933	1
1.48300	0
1.48667	0
1.49033	0
1.49400	0
1.49767	0
1.50133	0
1.50500	1
1.50867	1
1.51233	1
1.51600	1
1.51967	1
1.52333	1
1.52700	1
1.53067	0
1.53433	0
1.53800	0
1.54167	-0
1.54533	-0
1.54900	-0
1.55267	-0
1.55633	-0
1.56000	-1
1.56367	-1
1.56733	-1
1.57100	-1
1.57467	-1
1.57833	-1
1.58200	-1
1.58567	-1
1.58933	-2
1.59300	-2
1.59667	-3
1.60033	-4
1.60400	-6
1.60767	-8
1.61133	-10
1.61500	-12
1.61867	-15
1.62233	-17
1.62600	-20
1.62967	-23
1.63333	-26
1.63700	-29
1.64067	-33
1.64433	-36
1.64800	-39
1.65167	-43
1.65533	-47
1.65900	-51
1.66267	-55
1.66633	-60
1.67000	-65
1.67367	-71
1.67733	-76
1.68100	-82
1.68467	-87
1.68833	-92
1.69200	-97
1.69567	-101
1.69933	-104
1.70300	-107
1.70667	-109
1.71033	-111
1.71400	-112
1.71767	-112
1.72133	-112
1.72500	-112
1.72867	-112
1.73233	-111
1.73600	-110
1.73967	-110
1.74333	-109
1.74700	-109
1.75067	-109
1.75433	-109
1.75800	-110
1.76167	-111
1.76533	-112
1.76900	-113
1.77267	-114
1.77633	-115
1.78000	-115
1.78367	-116
1.78733	-117
1.79100	-117
1.79467	-118
1.79833	-118
1.80200	-119
1.80567	-119
1.80933	-119
1.81300	-119
1.81667	-119
1.82033	-119
1.82400	-119
1.82767	-118
1.83133	-118
1.83500	-118
1.83867	-118
1.84233	-118
1.84600	-118
1.84967	-118
1.85333	-118
1.85700	-118
1.86067	-117
1.86433	-117
1.86800	-117
1.87167	-118
1.87533	-118
1.87900	-119
1.88267	-119
1.88633	-119
1.89000	-119
1.89367	-118
1.89733	-118
1.90100	-117
1.90467	-117
1.90833	-116
1.91200	-115
1.91567	-115
1.91933	-115
1.92300	-115
1.92667	-116
1.93033	-116
1.93400	-116
1.93767	-117
1.94133	-117
1.94500	-117
1.94867	-117
1.95233	-117
1.95600	-116
1.95967	-116
1.96333	-116
1.96700	-116
1.97067	-115
1.97433	-115
1.97800	-115
1.98167	-114
1.98533	-113
1.98900	-113
1.99267	-112
1.99633	-111
2.00000	-111
2.00367	-111
2.00733	-110
2.01100	-110
2.01467	-110
2.01833	-110
2.02200	-110
2.02567	-110
2.02933	-109
2.03300	-109
2.03667	-109
2.04033	-109
2.04400	-108
2.04767	-108
2.05133	-108
2.05500	-108
2.05867	-108
2.06233	-107
2.06600	-107
2.06967	-106
2.07333	-106
2.07700	-105
2.08067	-105
2.08433	-104
2.08800	-104
2.09167	-103
2.09533	-103
2.09900	-103
2.10267	-103
2.10633	-103
2.11000	-102
2.11367	-102
2.11733	-101
2.12100	-101
2.12467	-101
2.12833	-100
2.13200	-100
2.13567	-100
2.13933	-100
2.14300	-100
2.14667	-100
2.15033	-100
2.15400	-99
2.15767	-99
2.16133	-98
2.16500	-98
2.16867	-98
2.17233	-98
2.17600	-98
2.17967	-97
2.18333	-97
2.18700	-96
2.19067	-96
2.19433	-96
2.19800	-95
2.20167	-95
2.20533	-94
2.20900	-94
2.21267	-93
2.21633	-93
2.22000	-93
2.22367	-94
2.22733	-94
2.23100	-94
2.23467	-94
2.23833	-94
2.24200	-93
2.24567	-92
2.24933	-91
2.25300	-90
2.25667	-90
2.26033	-89
2.26400	-89
2.26767	-88
2.27133	-88
2.27500	-89
2.27867	-89
2.28233	-89
2.28600	-89
2.28967	-89
2.29333	-88
2.29700	-87
2.30067	-87
2.30433	-86
2.30800	-86
2.31167	-86
2.31533	-86
2.31900	-86
2.32267	-86
2.32633	-86
2.33000	-85
2.33367	-85
2.33733	-84
2.34100	-84
2.34467	-83
2.34833	-83
2.35200	-83
2.35567	-82
2.35933	-81
2.36300	-80
2.36667	-78
2.37033	-75
2.37400	-71
2.37767	-68
2.38133	-63
2.38500	-59
2.38867	-54
2.39233	-49
2.39600	-45
2.39967	-41
2.40333	-37
2.40700	-34
2.41067	-30
2.41433	-27
2.41800	-25
2.42167	-22
2.42533	-21
2.42900	-19
2.43267	-17
2.43633	-16
2.44000	-14
2.44367	-12
2.44733	-10
2.45100	-8
2.45467	-6
2.45833	-5
2.46200	-4
2.46567	-3
2.46933	-3
2.47300	-2
2.47667	-2
2.48033	-1
2.48400	0
2.48767	2
2.49133	3
2.49500	5
2.49867	6
2.50233	7
2.50600	8
2.50967	9
2.51333	10
2.51700	11
2.52067	11
2.52433	12
2.52800	12
2.53167	12
2.53533	13
2.53900	14
2.54267	14
2.54633	15
2.55000	15
2.55367	16
2.55733	16
2.56100	16
2.56467	17
2.56833	17
2.57200	17
2.57567	17
2.57933	17
2.58300	17
2.58667	17
2.59033	17
2.59400	17
2.59767	17
2.60133	17
2.60500	17
2.60867	17
2.61233	18
2.61600	18
2.61967	18
2.62333	19
2.62700	19
2.63067	19
2.63433	19
2.63800	20
2.64167	20
2.64533	20
2.64900	20
2.65267	20
2.65633	20
2.66000	20
2.66367	20
2.66733	20
2.67100	20
2.67467	21
2.67833	21
2.68200	21
2.68567	21
2.68933	22
2.69300	22
2.69667	22
2.70033	22
2.70400	22
2.70767	23
2.71133	23
2.71500	23
2.71867	22
2.72233	22
2.72600	22
2.72967	22
2.73333	22
2.73700	22
2.74067	22
2.74433	23
2.74800	23
2.75167	24
2.75533	25
2.75900	25
2.76267	26
2.76633	26
2.77000	27
2.77367	27
2.77733	28
2.78100	28
2.78467	28
2.78833	28
2.79200	27
2.79567	26
2.79933	26
2.80300	25
2.80667	24
2.81033	23
2.81400	23
2.81767	23
2.82133	23
2.82500	23
2.82867	23
2.83233	23
2.83600	21
2.83967	19
2.84333	16
2.84700	10
2.85067	1
2.85433	-11
2.85800	-28
2.86167	-50
2.86533	-78
2.86900	-110
2.87267	-148
2.87633	-192
2.88000	-240
2.88367	-293
2.88733	-351
2.89100	-413
2.89467	-480
2.89833	-550
2.90200	-623
2.90567	-700
2.90933	-779
2.91300	-860
2.91667	-944
2.92033	-1030
2.92400	-1117
2.92767	-1207
2.93133	-1297
2.93500	-1388
2.93867	-1470
2.94233	-1530
2.94600	-1559
2.94967	-1550
2.95333	-1507
2.95700	-1436
2.96067	-1344
2.96433	-1239
2.96800	-1127
2.97167	-1015
2.97533	-905
2.97900	-801
2.98267	-705
2.98633	-616
2.99000	-536
2.99367	-464
2.99733	-401
3.00100	-345
3.00467	-296
3.00833	-254
3.01200	-217
3.01567	-185
3.01933	-158
3.02300	-134
3.02667	-114
3.03033	-97
3.03400	-82
3.03767	-69
3.04133	-58
3.04500	-48
3.04867	-41
3.05233	-34
3.05600	-28
3.05967	-23
3.06333	-19
3.06700	-15
3.07067	-12
3.07433	-9
3.07800	-6
3.08167	-4
3.08533	-2
3.08900	-0
3.09267	2
3.09633	3
3.10000	5
3.10367	6
3.10733	7
3.11100	8
3.11467	9
3.11833	10
3.12200	10
3.12567	11
3.12933	11
3.13300	12
3.13667	13
3.14033	14
3.14400	14
3.14767	15
3.15133	15
3.15500	15
3.15867	15
3.16233	15
3.16600	16
3.16967	16
3.17333	16
3.17700	16
3.18067	16
3.18433	17
3.18800	17
3.19167	17
3.19533	17
3.19900	17
3.20267	17
3.20633	17
3.21000	17
3.21367	17
3.21733	17
3.22100	17
3.22467	17
3.22833	18
3.23200	18
3.23567	18
3.23933	18
3.24300	18
3.24667	19
3.25033	19
3.25400	19
3.25767	20
3.26133	20
3.26500	21
3.26867	21
3.27233	21
3.27600	22
3.27967	22
3.28333	22
3.28700	22
3.29067	23
3.29433	23
3.29800	23
3.30167	24
3.30533	24
3.30900	24
3.31267	25
3.31633	25
3.32000	25
3.32367	25
3.32733	25
3.33100	25
3.33467	24
3.33833	24
3.34200	24
3.34567	24
3.34933	24
3.35300	24
3.35667	24
3.36033	24
3.36400	24
3.36767	24
3.37133	24
3.37500	24
3.37867	23
3.38233	23
3.38600	23
3.38967	23
3.39333	23
3.39700	23
3.40067	23
3.40433	23
3.40800	23
3.41167	23
3.41533	24
3.41900	24
3.42267	24
3.42633	24
3.43000	25
3.43367	25
3.43733	25
3.44100	25
3.44467	26
3.44833	26
3.45200	26
3.45567	26
3.45933	27
3.46300	27
3.46667	27
3.47033	27
3.47400	27
3.47767	27
3.48133	27
3.48500	27
3.48867	27
3.49233	27
3.49600	27
3.49967	27
3.50333	27
3.50700	27
3.51067	27
3.51433	27
3.51800	27
3.52167	27
3.52533	26
3.52900	26
3.53267	27
3.53633	27
3.54000	27
3.54367	27
3.54733	27
3.55100	27
3.55467	27
3.55833	27
3.56200	27
3.56567	27
3.56933	27
3.57300	27
3.57667	26
3.58033	26
3.58400	26
3.58767	27
3.59133	27
3.59500	27
3.59867	27
3.60233	27
3.60600	27
3.60967	27
3.61333	27
3.61700	27
3.62067	27
3.62433	27
3.62800	27
3.63167	27
3.63533	27
3.63900	27
3.64267	27
3.64633	27
3.65000	27
3.65367	27
3.65733	27
3.66100	27
3.66467	27
3.66833	27
3.67200	27
3.67567	27
3.67933	26
3.68300	26
3.68667	26
3.69033	26
3.69400	26
3.69767	25
3.70133	25
3.70500	25
3.70867	25
3.71233	25
3.71600	24
3.71967	24
3.72333	24
3.72700	24
3.73067	24
3.73433	23
3.73800	23
3.74167	23
3.74533	23
3.74900	23
3.75267	23
3.75633	23
3.76000	23
3.76367	24
3.76733	24
3.77100	24
3.77467	24
3.77833	24
3.78200	24
3.78567	24
3.78933	24
3.79300	24
3.79667	24
3.80033	24
3.80400	25
3.80767	25
3.81133	25
3.81500	25
3.81867	25
3.82233	25
3.82600	25
3.82967	25
3.83333	25
3.83700	25
3.84067	25
3.84433	25
3.84800	25
3.85167	25
3.85533	25
3.85900	25
3.86267	25
3.86633	25
3.87000	26
3.87367	26
3.87733	26
3.88100	26
3.88467	26
3.88833	26
3.89200	26
3.89567	26
3.89933	26
3.90300	25
3.90667	25
3.91033	25
3.91400	25
3.91767	25
3.92133	25
3.92500	25
3.92867	25
3.93233	25
3.93600	25
3.93967	25
3.94333	25
3.94700	26
3.95067	26
3.95433	26
3.95800	26
3.96167	26
3.96533	25
3.96900	25
3.97267	25
3.97633	24
3.98000	24
3.98367	23
3.98733	23
3.99100	22
3.99467	22
3.99833	22

[Chromatogram (Ch3)]
Interval(msec)	220
# of Points	1091
Start Time(min)	0.002
End Time(min)	3.998
R.Time (min)	Intensity
0.00167	0
0.00533	2
0.00900	2
0.01267	2
0.01633	3
0.02000	2
0.02367	1
0.02733	1
0.03100	1
0.03467	1
0.03833	2
0.04200	2
0.04567	1
0.04933	1
0.05300	-0
0.05667	-1
0.06033	1
0.06400	4
0.06767	6
0.07133	8
0.07500	6
0.07867	5
0.08233	3
0.08600	5
0.08967	6
0.09333	5
0.09700	6
0.10067	7
0.10433	6
0.10800	3
0.11167	2
0.11533	1
0.11900	2
0.12267	3
0.12633	4
0.13000	6
0.13367	8
0.13733	8
0.14100	5
0.14467	2
0.14833	1
0.15200	-0
0.15567	-2
0.15933	-1
0.16300	-2
0.16667	-0
0.17033	1
0.17400	2
0.17767	1
0.18133	2
0.18500	2
0.18867	3
0.19233	3
0.19600	3
0.19967	2
0.20333	1
0.20700	1
0.21067	-0
0.21433	-0
0.21800	-1
0.22167	-2
0.22533	0
0.22900	1
0.23267	-1
0.23633	-3
0.24000	-2
0.24367	1
0.24733	2
0.25100	2
0.25467	4
0.25833	4
0.26200	4
0.26567	5
0.26933	7
0.27300	8
0.27667	8
0.28033	10
0.28400	8
0.28767	6
0.29133	5
0.29500	7
0.29867	7
0.30233	6
0.30600	8
0.30967	5
0.31333	5
0.31700	4
0.32067	5
0.32433	7
0.32800	9
0.33167	9
0.33533	7
0.33900	7
0.34267	8
0.34633	8
0.35000	9
0.35367	9
0.35733	10
0.36100	11
0.36467	11
0.36833	9
0.37200	9
0.37567	9
0.37933	9
0.38300	10
0.38667	11
0.39033	11
0.39400	12
0.39767	12
0.40133	11
0.40500	12
0.40867	12
0.41233	12
0.41600	13
0.41967	14
0.42333	14
0.42700	13
0.43067	13
0.43433	15
0.43800	16
0.44167	16
0.44533	15
0.44900	14
0.45267	15
0.45633	19
0.46000	22
0.46367	26
0.46733	28
0.47100	28
0.47467	26
0.47833	23
0.48200	20
0.48567	20
0.48933	22
0.49300	23
0.49667	22
0.50033	23
0.50400	25
0.50767	26
0.51133	26
0.51500	26
0.51867	26
0.52233	25
0.52600	23
0.52967	21
0.53333	21
0.53700	22
0.54067	21
0.54433	19
0.54800	17
0.55167	17
0.55533	18
0.55900	20
0.56267	22
0.56633	23
0.57000	24
0.57367	26
0.57733	29
0.58100	29
0.58467	31
0.58833	33
0.59200	30
0.59567	28
0.59933	27
0.60300	27
0.60667	26
0.61033	25
0.61400	25
0.61767	23
0.62133	22
0.62500	21
0.62867	22
0.63233	24
0.63600	26
0.63967	27
0.64333	26
0.64700	25
0.65067	25
0.65433	25
0.65800	24
0.66167	22
0.66533	20
0.66900	18
0.67267	18
0.67633	19
0.68000	21
0.68367	20
0.68733	18
0.69100	18
0.69467	18
0.69833	18
0.70200	17
0.70567	17
0.70933	17
0.71300	19
0.71667	22
0.72033	22
0.72400	20
0.72767	18
0.73133	18
0.73500	17
0.73867	18
0.74233	20
0.74600	20
0.74967	18
0.75333	17
0.75700	16
0.76067	15
0.76433	15
0.76800	13
0.77167	12
0.77533	13
0.77900	12
0.78267	13
0.78633	14
0.79000	12
0.79367	10
0.79733	10
0.80100	12
0.80467	13
0.80833	14
0.81200	13
0.81567	13
0.81933	14
0.82300	14
0.82667	13
0.83033	12
0.83400	12
0.83767	14
0.84133	16
0.84500	18
0.84867	19
0.85233	16
0.85600	16
0.85967	16
0.86333	15
0.86700	15
0.87067	17
0.87433	17
0.87800	17
0.88167	18
0.88533	19
0.88900	18
0.89267	16
0.89633	16
0.90000	17
0.90367	16
0.90733	15
0.91100	16
0.91467	17
0.91833	21
0.92200	22
0.92567	21
0.92933	19
0.93300	19
0.93667	17
0.94033	16
0.94400	18
0.94767	17
0.95133	15
0.95500	16
0.95867	17
0.96233	16
0.96600	16
0.96967	16
0.97333	17
0.97700	18
0.98067	17
0.98433	18
0.98800	18
0.99167	16
0.99533	16
0.99900	17
1.00267	18
1.00633	20
1.01000	22
1.01367	23
1.01733	24
1.02100	24
1.02467	23
1.02833	23
1.03200	23
1.03567	22
1.03933	22
1.04300	22
1.04667	22
1.05033	22
1.05400	21
1.05767	22
1.06133	22
1.06500	21
1.06867	20
1.07233	19
1.07600	18
1.07967	19
1.08333	21
1.08700	22
1.09067	24
1.09433	26
1.09800	28
1.10167	30
1.10533	32
1.10900	33
1.11267	34
1.11633	33
1.12000	32
1.12367	28
1.12733	26
1.13100	28
1.13467	27
1.13833	26
1.14200	25
1.14567	23
1.14933	21
1.15300	20
1.15667	21
1.16033	21
1.16400	20
1.16767	21
1.17133	21
1.17500	21
1.17867	23
1.18233	23
1.18600	24
1.18967	26
1.19333	28
1.19700	31
1.20067	33
1.20433	32
1.20800	29
1.21167	24
1.21533	23
1.21900	23
1.22267	24
1.22633	26
1.23000	26
1.23367	26
1.23733	26
1.24100	27
1.24467	27
1.24833	27
1.25200	28
1.25567	28
1.25933	29
1.26300	27
1.26667	28
1.27033	30
1.27400	31
1.27767	31
1.28133	30
1.28500	30
1.28867	31
1.29233	31
1.29600	30
1.29967	30
1.30333	29
1.30700	27
1.31067	24
1.31433	24
1.31800	24
1.32167	23
1.32533	22
1.32900	23
1.33267	25
1.33633	27
1.34000	28
1.34367	29
1.34733	29
1.35100	30
1.35467	31
1.35833	30
1.36200	29
1.36567	28
1.36933	30
1.37300	33
1.37667	33
1.38033	32
1.38400	31
1.38767	32
1.39133	30
1.39500	28
1.39867	29
1.40233	29
1.40600	28
1.40967	27
1.41333	25
1.41700	22
1.42067	19
1.42433	20
1.42800	22
1.43167	24
1.43533	28
1.43900	31
1.44267	33
1.44633	35
1.45000	34
1.45367	34
1.45733	33
1.46100	34
1.46467	34
1.46833	32
1.47200	30
1.47567	34
1.47933	38
1.48300	39
1.48667	39
1.49033	39
1.49400	40
1.49767	37
1.50133	37
1.50500	36
1.50867	36
1.51233	36
1.51600	36
1.51967	35
1.52333	34
1.52700	34
1.53067	35
1.53433	35
1.53800	35
1.54167	35
1.54533	33
1.54900	33
1.55267	33
1.55633	35
1.56000	37
1.56367	38
1.56733	37
1.57100	35
1.57467	35
1.57833	34
1.58200	34
1.58567	37
1.58933	39
1.59300	38
1.59667	35
1.60033	34
1.60400	35
1.60767	37
1.61133	36
1.61500	37
1.61867	38
1.62233	39
1.62600	39
1.62967	42
1.63333	44
1.63700	43
1.64067	42
1.64433	41
1.64800	41
1.65167	41
1.65533	43
1.65900	45
1.66267	47
1.66633	46
1.67000	47
1.67367	50
1.67733	51
1.68100	51
1.68467	52
1.68833	53
1.69200	51
1.69567	48
1.69933	48
1.70300	49
1.70667	52
1.71033	56
1.71400	56
1.71767	53
1.72133	52
1.72500	54
1.72867	54
1.73233	53
1.73600	51
1.73967	49
1.74333	48
1.74700	50
1.75067	52
1.75433	53
1.75800	54
1.76167	55
1.76533	58
1.76900	59
1.77267	61
1.77633	61
1.78000	62
1.78367	61
1.78733	60
1.79100	60
1.79467	58
1.79833	56
1.80200	60
1.80567	62
1.80933	61
1.81300	61
1.81667	62
1.82033	65
1.82400	67
1.82767	67
1.83133	66
1.83500	65
1.83867	65
1.84233	66
1.84600	66
1.84967	66
1.85333	66
1.85700	66
1.86067	67
1.86433	68
1.86800	67
1.87167	67
1.87533	67
1.87900	69
1.88267	70
1.88633	71
1.89000	71
1.89367	72
1.89733	74
1.90100	75
1.90467	76
1.90833	78
1.91200	79
1.91567	80
1.91933	80
1.92300	80
1.92667	79
1.93033	78
1.93400	80
1.93767	82
1.94133	82
1.94500	81
1.94867	80
1.95233	82
1.95600	82
1.95967	81
1.96333	80
1.96700	79
1.97067	79
1.97433	80
1.97800	81
1.98167	83
1.98533	86
1.98900	88
1.99267	90
1.99633	92
2.00000	92
2.00367	93
2.00733	94
2.01100	95
2.01467	95
2.01833	94
2.02200	94
2.02567	95
2.02933	95
2.03300	95
2.03667	97
2.04033	100
2.04400	103
2.04767	103
2.05133	102
2.05500	102
2.05867	102
2.06233	103
2.06600	103
2.06967	103
2.07333	103
2.07700	105
2.08067	105
2.08433	105
2.08800	107
2.09167	110
2.09533	111
2.09900	111
2.10267	111
2.10633	113
2.11000	113
2.11367	116
2.11733	118
2.12100	119
2.12467	120
2.12833	119
2.13200	120
2.13567	124
2.13933	126
2.14300	126
2.14667	126
2.15033	125
2.15400	125
2.15767	124
2.16133	126
2.16500	129
2.16867	132
2.17233	133
2.17600	134
2.17967	134
2.18333	134
2.18700	135
2.19067	137
2.19433	136
2.19800	135
2.20167	133
2.20533	134
2.20900	137
2.21267	138
2.21633	140
2.22000	141
2.22367	142
2.22733	146
2.23100	149
2.23467	149
2.23833	149
2.24200	152
2.24567	154
2.24933	155
2.25300	155
2.25667	155
2.26033	157
2.26400	158
2.26767	159
2.27133	161
2.27500	161
2.27867	160
2.28233	160
2.28600	163
2.28967	168
2.29333	171
2.29700	173
2.30067	174
2.30433	174
2.30800	177
2.31167	178
2.31533	179
2.31900	182
2.32267	181
2.32633	179
2.33000	180
2.33367	181
2.33733	184
2.34100	189
2.34467	193
2.34833	195
2.35200	195
2.35567	197
2.35933	199
2.36300	199
2.36667	198
2.37033	197
2.37400	199
2.37767	201
2.38133	202
2.38500	204
2.38867	203
2.39233	205
2.39600	208
2.39967	211
2.40333	215
2.40700	218
2.41067	219
2.41433	222
2.41800	225
2.42167	226
2.42533	224
2.42900	224
2.43267	224
2.43633	223
2.44000	225
2.44367	254
2.44733	332
2.45100	417
2.45467	484
2.45833	528
2.46200	537
2.46567	519
2.46933	494
2.47300	474
2.47667	461
2.48033	451
2.48400	443
2.48767	430
2.49133	416
2.49500	395
2.49867	372
2.50233	351
2.50600	335
2.50967	324
2.51333	318
2.51700	314
2.52067	314
2.52433	316
2.52800	323
2.53167	331
2.53533	339
2.53900	348
2.54267	353
2.54633	355
2.55000	354
2.55367	347
2.55733	340
2.56100	331
2.56467	322
2.56833	312
2.57200	303
2.57567	296
2.57933	290
2.58300	283
2.58667	280
2.59033	278
2.59400	274
2.59767	264
2.60133	246
2.60500	226
2.60867	204
2.61233	182
2.61600	158
2.61967	133
2.62333	110
2.62700	91
2.63067	76
2.63433	67
2.63800	62
2.64167	63
2.64533	67
2.64900	74
2.65267	82
2.65633	92
2.66000	101
2.66367	109
2.66733	117
2.67100	126
2.67467	139
2.67833	151
2.68200	162
2.68567	170
2.68933	175
2.69300	180
2.69667	185
2.70033	190
2.70400	193
2.70767	198
2.71133	201
2.71500	202
2.71867	204
2.72233	205
2.72600	204
2.72967	202
2.73333	200
2.73700	201
2.74067	203
2.74433	206
2.74800	208
2.75167	209
2.75533	209
2.75900	210
2.76267	210
2.76633	209
2.77000	211
2.77367	211
2.77733	210
2.78100	210
2.78467	212
2.78833	216
2.79200	219
2.79567	222
2.79933	224
2.80300	225
2.80667	227
2.81033	231
2.81400	241
2.81767	269
2.82133	341
2.82500	496
2.82867	792
2.83233	1296
2.83600	2069
2.83967	3146
2.84333	4527
2.84700	6166
2.85067	7974
2.85433	9831
2.85800	11588
2.86167	13117
2.86533	14298
2.86900	15066
2.87267	15398
2.87633	15319
2.88000	14887
2.88367	14178
2.88733	13276
2.89100	12261
2.89467	11195
2.89833	10131
2.90200	9099
2.90567	8126
2.90933	7223
2.91300	6396
2.91667	5648
2.92033	4979
2.92400	4383
2.92767	3850
2.93133	3381
2.93500	2970
2.93867	2610
2.94233	2293
2.94600	2016
2.94967	1775
2.95333	1567
2.95700	1389
2.96067	1235
2.96433	1100
2.96800	979
2.97167	877
2.97533	791
2.97900	717
2.98267	652
2.98633	593
2.99000	543
2.99367	502
2.99733	467
3.00100	437
3.00467	410
3.00833	388
3.01200	370
3.01567	354
3.01933	338
3.02300	325
3.02667	314
3.03033	303
3.03400	295
3.03767	288
3.04133	283
3.04500	275
3.04867	267
3.05233	261
3.05600	258
3.05967	253
3.06333	249
3.06700	243
3.07067	238
3.07433	235
3.07800	232
3.08167	229
3.08533	227
3.08900	225
3.09267	223
3.09633	222
3.10000	223
3.10367	222
3.10733	221
3.11100	216
3.11467	211
3.11833	207
3.12200	205
3.12567	204
3.12933	202
3.13300	200
3.13667	199
3.14033	197
3.14400	189
3.14767	165
3.15133	139
3.15500	130
3.15867	145
3.16233	176
3.16600	213
3.16967	254
3.17333	298
3.17700	340
3.18067	382
3.18433	423
3.18800	462
3.19167	496
3.19533	526
3.19900	551
3.20267	572
3.20633	588
3.21000	599
3.21367	605
3.21733	609
3.22100	614
3.22467	622
3.22833	628
3.23200	633
3.23567	640
3.23933	646
3.24300	650
3.24667	657
3.25033	664
3.25400	669
3.25767	671
3.26133	673
3.26500	675
3.26867	677
3.27233	679
3.27600	681
3.27967	685
3.28333	688
3.28700	689
3.29067	694
3.29433	697
3.29800	698
3.30167	699
3.30533	701
3.30900	701
3.31267	700
3.31633	699
3.32000	700
3.32367	699
3.32733	698
3.33100	699
3.33467	699
3.33833	700
3.34200	701
3.34567	701
3.34933	700
3.35300	700
3.35667	700
3.36033	701
3.36400	701
3.36767	701
3.37133	699
3.37500	699
3.37867	697
3.38233	693
3.38600	692
3.38967	692
3.39333	691
3.39700	691
3.40067	691
3.40433	691
3.40800	690
3.41167	690
3.41533	688
3.41900	685
3.42267	683
3.42633	680
3.43000	678
3.43367	676
3.43733	674
3.44100	672
3.44467	671
3.44833	672
3.45200	669
3.45567	665
3.45933	663
3.46300	659
3.46667	655
3.47033	654
3.47400	652
3.47767	651
3.48133	653
3.48500	653
3.48867	649
3.49233	646
3.49600	646
3.49967	645
3.50333	642
3.50700	639
3.51067	636
3.51433	632
3.51800	632
3.52167	631
3.52533	628
3.52900	627
3.53267	626
3.53633	623
3.54000	620
3.54367	622
3.54733	623
3.55100	620
3.55467	616
3.55833	613
3.56200	612
3.56567	612
3.56933	609
3.57300	606
3.57667	603
3.58033	601
3.58400	600
3.58767	598
3.59133	595
3.59500	592
3.59867	590
3.60233	588
3.60600	587
3.60967	585
3.61333	585
3.61700	585
3.62067	583
3.62433	580
3.62800	576
3.63167	574
3.63533	574
3.63900	572
3.64267	568
3.64633	565
3.65000	562
3.65367	561
3.65733	559
3.66100	557
3.66467	557
3.66833	556
3.67200	553
3.67567	549
3.67933	546
3.68300	546
3.68667	545
3.69033	543
3.69400	541
3.69767	541
3.70133	541
3.70500	539
3.70867	538
3.71233	538
3.71600	537
3.71967	537
3.72333	535
3.72700	534
3.73067	533
3.73433	532
3.73800	531
3.74167	529
3.74533	528
3.74900	526
3.75267	524
3.75633	522
3.76000	522
3.76367	522
3.76733	523
3.77100	525
3.77467	525
3.77833	526
3.78200	527
3.78567	526
3.78933	526
3.79300	523
3.79667	520
3.80033	517
3.80400	514
3.80767	511
3.81133	510
3.81500	513
3.81867	516
3.82233	517
3.82600	516
3.82967	515
3.83333	513
3.83700	512
3.84067	512
3.84433	512
3.84800	512
3.85167	513
3.85533	512
3.85900	510
3.86267	509
3.86633	506
3.87000	501
3.87367	500
3.87733	500
3.88100	500
3.88467	499
3.88833	499
3.89200	500
3.89567	502
3.89933	502
3.90300	502
3.90667	504
3.91033	501
3.91400	496
3.91767	492
3.92133	492
3.92500	493
3.92867	492
3.93233	493
3.93600	493
3.93967	493
3.94333	493
3.94700	492
3.95067	490
3.95433	488
3.95800	487
3.96167	487
3.96533	486
3.96900	486
3.97267	487
3.97633	489
3.98000	490
3.98367	489
3.98733	489
3.99100	489
3.99467	486
3.99833	482

[Status Trace (Column Oven Temperature)]
Interval(msec)	1000
# of Points	240
Start Time(min)	0.015
End Time(min)	3.999
Intensity Units	
Intensity Multiplier	1
R.Time (min)	Intensity
0.01518	35.04
0.03185	35.04
0.04852	35.03
0.06518	35.03
0.08185	35.02
0.09852	35.02
0.11518	35.03
0.13185	35.04
0.14852	35.04
0.16518	35.03
0.18185	35.03
0.19852	35.02
0.21518	35.02
0.23185	35.01
0.24852	35.01
0.26518	35.00
0.28185	35.00
0.29852	35.01
0.31518	35.01
0.33185	35.00
0.34852	34.99
0.36518	34.99
0.38185	34.99
0.39852	34.99
0.41518	34.99
0.43185	34.99
0.44852	34.99
0.46518	35.00
0.48185	35.00
0.49852	35.00
0.51518	35.00
0.53185	35.00
0.54852	35.00
0.56518	35.00
0.58185	35.01
0.59852	35.01
0.61518	35.00
0.63185	34.98
0.64852	34.99
0.66518	34.98
0.68185	34.99
0.69852	34.99
0.71518	35.00
0.73185	35.01
0.74852	35.02
0.76518	35.02
0.78185	35.01
0.79852	35.01
0.81518	35.01
0.83185	35.00
0.84852	34.99
0.86518	34.99
0.88185	34.98
0.89852	34.99
0.91518	34.99
0.93185	34.98
0.94852	35.00
0.96518	35.01
0.98185	35.00
0.99852	34.98
1.01518	34.98
1.03185	34.98
1.04852	34.99
1.06518	35.01
1.08185	35.02
1.09852	35.01
1.11518	35.00
1.13185	34.99
1.14852	34.99
1.16518	35.00
1.18185	35.00
1.19852	35.01
1.21518	35.02
1.23185	35.02
1.24852	35.03
1.26518	35.03
1.28185	35.03
1.29852	35.03
1.31518	35.02
1.33185	35.01
1.34852	35.00
1.36518	35.01
1.38185	35.01
1.39852	35.01
1.41518	35.02
1.43185	35.02
1.44852	35.02
1.46518	35.00
1.48185	34.99
1.49852	34.98
1.51518	34.97
1.53185	34.96
1.54852	34.96
1.56518	34.96
1.58185	34.97
1.59852	35.01
1.61518	35.10
1.63185	35.25
1.64852	35.46
1.66518	35.77
1.68185	36.15
1.69852	36.52
1.71518	36.86
1.73185	37.17
1.74852	37.48
1.76518	37.81
1.78185	38.14
1.79852	38.49
1.81518	38.81
1.83185	39.14
1.84852	39.48
1.86518	39.80
1.88185	40.15
1.89852	40.47
1.91518	40.79
1.93185	41.13
1.94852	41.46
1.96518	41.78
1.98185	42.10
1.99852	42.42
2.01518	42.74
2.03185	43.05
2.04852	43.39
2.06518	43.73
2.08185	44.05
2.09852	44.38
2.11518	44.71
2.13185	45.03
2.14852	45.36
2.16518	45.69
2.18185	46.02
2.19852	46.34
2.21518	46.67
2.23185	47.01
2.24852	47.33
2.26518	47.65
2.28185	47.99
2.29852	48.32
2.31518	48.64
2.33185	48.97
2.34852	49.30
2.36518	49.54
2.38185	49.64
2.39852	49.65
2.41518	49.65
2.43185	49.66
2.44852	49.65
2.46518	49.69
2.48185	49.71
2.49852	49.71
2.51518	49.73
2.53185	49.74
2.54852	49.75
2.56518	49.76
2.58185	49.79
2.59852	49.80
2.61518	49.81
2.63185	49.81
2.64852	49.83
2.66518	49.84
2.68185	49.85
2.69852	49.85
2.71518	49.87
2.73185	49.89
2.74852	49.87
2.76518	49.85
2.78185	49.84
2.79852	49.88
2.81518	49.90
2.83185	49.90
2.84852	49.89
2.86518	49.89
2.88185	49.90
2.89852	49.91
2.91518	49.92
2.93185	49.93
2.94852	49.93
2.96518	49.94
2.98185	49.95
2.99852	49.96
3.01518	49.99
3.03185	50.00
3.04852	50.01
3.06518	50.02
3.08185	50.03
3.09852	50.03
3.11518	50.03
3.13185	50.03
3.14852	50.02
3.16518	50.04
3.18185	50.05
3.19852	50.07
3.21518	50.08
3.23185	50.09
3.24852	50.10
3.26518	50.10
3.28185	50.09
3.29852	50.09
3.31518	50.08
3.33185	50.07
3.34852	50.08
3.36518	50.09
3.38185	50.11
3.39852	50.12
3.41518	50.12
3.43185	50.12
3.44852	50.10
3.46518	50.09
3.48185	50.07
3.49852	50.07
3.51518	50.06
3.53185	50.05
3.54852	50.03
3.56518	50.04
3.58185	50.04
3.59852	50.02
3.61518	50.01
3.63185	50.01
3.64852	50.01
3.66518	50.01
3.68185	50.01
3.69852	50.02
3.71518	50.02
3.73185	50.04
3.74852	50.04
3.76518	50.05
3.78185	50.06
3.79852	50.06
3.81518	50.05
3.83185	50.05
3.84852	50.05
3.86518	50.03
3.88185	50.02
3.89852	50.02
3.91518	50.02
3.93185	50.01
3.94852	50.01
3.96518	50.02
3.98185	50.03
3.99852	50.04

[Status Trace (Injection Unit Temperature)]
Interval(msec)	1000
# of Points	240
Start Time(min)	0.015
End Time(min)	3.999
Intensity Units	
Intensity Multiplier	1
R.Time (min)	Intensity
0.01518	99.98
0.03185	99.99
0.04852	99.98
0.06518	99.98
0.08185	99.98
0.09852	99.98
0.11518	99.98
0.13185	99.99
0.14852	99.98
0.16518	99.98
0.18185	99.98
0.19852	99.98
0.21518	99.98
0.23185	99.98
0.24852	99.99
0.26518	99.99
0.28185	99.99
0.29852	99.99
0.31518	99.98
0.33185	99.98
0.34852	99.98
0.36518	99.99
0.38185	99.98
0.39852	99.99
0.41518	99.99
0.43185	99.99
0.44852	99.98
0.46518	99.98
0.48185	99.98
0.49852	99.98
0.51518	99.98
0.53185	99.98
0.54852	99.99
0.56518	99.98
0.58185	99.98
0.59852	99.98
0.61518	99.98
0.63185	99.98
0.64852	99.98
0.66518	99.98
0.68185	99.98
0.69852	99.98
0.71518	99.98
0.73185	99.98
0.74852	99.98
0.76518	99.98
0.78185	99.98
0.79852	99.98
0.81518	99.98
0.83185	99.98
0.84852	99.98
0.86518	99.98
0.88185	99.98
0.89852	99.98
0.91518	99.98
0.93185	99.98
0.94852	99.98
0.96518	99.98
0.98185	99.98
0.99852	99.99
1.01518	99.98
1.03185	99.98
1.04852	99.98
1.06518	99.98
1.08185	99.98
1.09852	99.99
1.11518	99.98
1.13185	99.98
1.14852	99.98
1.16518	99.99
1.18185	99.99
1.19852	99.99
1.21518	99.98
1.23185	99.98
1.24852	99.98
1.26518	99.98
1.28185	99.99
1.29852	99.98
1.31518	99.98
1.33185	99.98
1.34852	99.98
1.36518	99.98
1.38185	99.99
1.39852	99.99
1.41518	99.98
1.43185	99.98
1.44852	99.98
1.46518	99.98
1.48185	99.99
1.49852	99.99
1.51518	99.98
1.53185	99.99
1.54852	99.99
1.56518	99.99
1.58185	99.99
1.59852	99.99
1.61518	99.99
1.63185	99.99
1.64852	99.99
1.66518	99.99
1.68185	99.99
1.69852	99.99
1.71518	99.99
1.73185	99.99
1.74852	99.99
1.76518	99.99
1.78185	99.99
1.79852	99.99
1.81518	99.99
1.83185	99.99
1.84852	99.99
1.86518	99.99
1.88185	99.98
1.89852	99.98
1.91518	99.98
1.93185	99.98
1.94852	99.98
1.96518	99.98
1.98185	99.98
1.99852	99.98
2.01518	99.98
2.03185	99.97
2.04852	99.98
2.06518	99.98
2.08185	99.97
2.09852	99.97
2.11518	99.97
2.13185	99.97
2.14852	99.98
2.16518	99.97
2.18185	99.97
2.19852	99.97
2.21518	99.97
2.23185	99.97
2.24852	99.97
2.26518	99.96
2.28185	99.97
2.29852	99.96
2.31518	99.97
2.33185	99.97
2.34852	99.97
2.36518	99.97
2.38185	99.97
2.39852	99.96
2.41518	99.96
2.43185	99.97
2.44852	99.97
2.46518	99.97
2.48185	99.97
2.49852	99.96
2.51518	99.96
2.53185	99.97
2.54852	99.97
2.56518	99.97
2.58185	99.97
2.59852	99.97
2.61518	99.97
2.63185	99.98
2.64852	99.98
2.66518	99.98
2.68185	99.98
2.69852	99.98
2.71518	99.98
2.73185	99.99
2.74852	99.98
2.76518	99.99
2.78185	99.99
2.79852	99.99
2.81518	99.99
2.83185	99.99
2.84852	99.99
2.86518	100.00
2.88185	100.00
2.89852	100.00
2.91518	100.01
2.93185	100.00
2.94852	100.00
2.96518	100.01
2.98185	100.01
2.99852	100.01
3.01518	100.01
3.03185	100.01
3.04852	100.02
3.06518	100.02
3.08185	100.01
3.09852	100.02
3.11518	100.02
3.13185	100.02
3.14852	100.02
3.16518	100.01
3.18185	100.03
3.19852	100.03
3.21518	100.02
3.23185	100.02
3.24852	100.02
3.26518	100.03
3.28185	100.03
3.29852	100.03
3.31518	100.03
3.33185	100.03
3.34852	100.03
3.36518	100.04
3.38185	100.04
3.39852	100.03
3.41518	100.03
3.43185	100.04
3.44852	100.03
3.46518	100.04
3.48185	100.03
3.49852	100.04
3.51518	100.04
3.53185	100.04
3.54852	100.04
3.56518	100.04
3.58185	100.04
3.59852	100.05
3.61518	100.05
3.63185	100.05
3.64852	100.05
3.66518	100.05
3.68185	100.05
3.69852	100.05
3.71518	100.05
3.73185	100.05
3.74852	100.05
3.76518	100.04
3.78185	100.05
3.79852	100.05
3.81518	100.05
3.83185	100.05
3.84852	100.05
3.86518	100.05
3.88185	100.05
3.89852	100.05
3.91518	100.05
3.93185	100.05
3.94852	100.05
3.96518	100.05
3.98185	100.05
3.99852	100.05

[Status Trace (Carrier Gas Pressure)]
Interval(msec)	1000
# of Points	240
Start Time(min)	0.015
End Time(min)	3.999
Intensity Units	
Intensity Multiplier	1
R.Time (min)	Intensity
0.01518	57.05
0.03185	55.65
0.04852	58.10
0.06518	59.89
0.08185	58.61
0.09852	57.97
0.11518	58.00
0.13185	58.01
0.14852	58.01
0.16518	58.00
0.18185	58.00
0.19852	58.00
0.21518	58.00
0.23185	58.00
0.24852	58.00
0.26518	58.00
0.28185	58.00
0.29852	58.00
0.31518	58.00
0.33185	58.00
0.34852	58.00
0.36518	58.00
0.38185	58.00
0.39852	58.00
0.41518	58.00
0.43185	58.00
0.44852	58.00
0.46518	58.00
0.48185	58.00
0.49852	58.00
0.51518	58.00
0.53185	58.00
0.54852	58.00
0.56518	58.00
0.58185	58.00
0.59852	58.00
0.61518	58.00
0.63185	58.00
0.64852	58.00
0.66518	58.00
0.68185	58.00
0.69852	58.00
0.71518	58.00
0.73185	58.00
0.74852	58.00
0.76518	58.00
0.78185	58.00
0.79852	58.00
0.81518	58.00
0.83185	58.00
0.84852	58.00
0.86518	58.00
0.88185	58.00
0.89852	58.00
0.91518	58.00
0.93185	58.00
0.94852	58.00
0.96518	58.00
0.98185	58.00
0.99852	58.00
1.01518	58.00
1.03185	58.00
1.04852	58.00
1.06518	58.00
1.08185	58.00
1.09852	58.00
1.11518	58.00
1.13185	58.00
1.14852	58.00
1.16518	58.00
1.18185	58.00
1.19852	58.00
1.21518	58.00
1.23185	58.00
1.24852	58.00
1.26518	58.00
1.28185	58.00
1.29852	58.00
1.31518	58.00
1.33185	58.00
1.34852	58.00
1.36518	58.00
1.38185	58.00
1.39852	58.00
1.41518	58.00
1.43185	58.00
1.44852	58.00
1.46518	58.00
1.48185	58.00
1.49852	58.00
1.51518	58.00
1.53185	58.00
1.54852	58.00
1.56518	58.00
1.58185	58.00
1.59852	58.00
1.61518	58.00
1.63185	58.00
1.64852	58.00
1.66518	58.01
1.68185	58.01
1.69852	58.00
1.71518	58.00
1.73185	58.00
1.74852	58.00
1.76518	58.00
1.78185	58.00
1.79852	58.00
1.81518	58.00
1.83185	58.00
1.84852	58.00
1.86518	58.00
1.88185	58.00
1.89852	58.00
1.91518	58.00
1.93185	58.00
1.94852	58.00
1.96518	58.00
1.98185	58.00
1.99852	58.00
2.01518	58.00
2.03185	58.00
2.04852	58.00
2.06518	58.00
2.08185	58.00
2.09852	58.00
2.11518	58.00
2.13185	58.00
2.14852	58.00
2.16518	58.00
2.18185	58.00
2.19852	58.00
2.21518	58.00
2.23185	58.00
2.24852	58.00
2.26518	58.00
2.28185	58.00
2.29852	58.00
2.31518	58.00
2.33185	58.00
2.34852	58.00
2.36518	58.00
2.38185	57.99
2.39852	57.99
2.41518	58.00
2.43185	58.00
2.44852	58.00
2.46518	58.00
2.48185	58.00
2.49852	58.00
2.51518	57.99
2.53185	57.99
2.54852	58.00
2.56518	58.00
2.58185	58.00
2.59852	58.00
2.61518	58.00
2.63185	58.00
2.64852	58.00
2.66518	58.00
2.68185	58.00
2.69852	58.00
2.71518	58.00
2.73185	58.00
2.74852	58.00
2.76518	58.00
2.78185	58.00
2.79852	58.00
2.81518	58.00
2.83185	58.00
2.84852	58.00
2.86518	58.00
2.88185	58.00
2.89852	58.00
2.91518	58.00
2.93185	58.00
2.94852	58.00
2.96518	58.00
2.98185	58.00
2.99852	58.00
3.01518	58.00
3.03185	58.00
3.04852	58.00
3.06518	58.00
3.08185	58.00
3.09852	58.00
3.11518	58.00
3.13185	58.00
3.14852	58.00
3.16518	58.00
3.18185	58.00
3.19852	58.00
3.21518	58.00
3.23185	58.00
3.24852	58.00
3.26518	58.00
3.28185	58.00
3.29852	58.00
3.31518	58.00
3.33185	58.00
3.34852	58.00
3.36518	58.00
3.38185	58.00
3.39852	58.00
3.41518	58.00
3.43185	58.00
3.44852	58.00
3.46518	58.00
3.48185	58.00
3.49852	58.00
3.51518	58.00
3.53185	58.00
3.54852	58.00
3.56518	58.00
3.58185	58.00
3.59852	58.00
3.61518	58.00
3.63185	58.00
3.64852	58.00
3.66518	58.00
3.68185	58.00
3.69852	58.00
3.71518	58.00
3.73185	58.00
3.74852	58.00
3.76518	58.00
3.78185	58.00
3.79852	58.00
3.81518	58.00
3.83185	58.00
3.84852	58.00
3.86518	58.00
3.88185	58.00
3.89852	58.00
3.91518	58.00
3.93185	58.00
3.94852	58.00
3.96518	58.00
3.98185	58.00
3.99852	58.00

[Status Trace (Carrier Gas Flow)]
Interval(msec)	1000
# of Points	240
Start Time(min)	0.015
End Time(min)	3.999
Intensity Units	
Intensity Multiplier	1
R.Time (min)	Intensity
0.01518	33.83
0.03185	34.55
0.04852	34.54
0.06518	34.51
0.08185	34.52
0.09852	34.51
0.11518	34.51
0.13185	34.53
0.14852	34.51
0.16518	34.52
0.18185	34.51
0.19852	34.52
0.21518	34.52
0.23185	34.52
0.24852	34.52
0.26518	34.51
0.28185	34.52
0.29852	34.52
0.31518	34.52
0.33185	34.52
0.34852	34.52
0.36518	34.52
0.38185	34.52
0.39852	34.52
0.41518	34.52
0.43185	34.52
0.44852	34.52
0.46518	34.52
0.48185	34.52
0.49852	34.52
0.51518	34.52
0.53185	34.52
0.54852	34.52
0.56518	34.52
0.58185	34.52
0.59852	34.52
0.61518	34.52
0.63185	34.52
0.64852	34.52
0.66518	34.52
0.68185	34.52
0.69852	34.52
0.71518	34.51
0.73185	34.52
0.74852	34.52
0.76518	34.52
0.78185	34.52
0.79852	34.52
0.81518	34.52
0.83185	34.52
0.84852	34.52
0.86518	34.52
0.88185	34.52
0.89852	34.52
0.91518	34.52
0.93185	34.52
0.94852	34.51
0.96518	34.52
0.98185	34.52
0.99852	34.52
1.01518	34.52
1.03185	34.52
1.04852	34.52
1.06518	34.51
1.08185	34.52
1.09852	34.52
1.11518	34.52
1.13185	34.52
1.14852	34.52
1.16518	34.52
1.18185	34.52
1.19852	34.52
1.21518	34.52
1.23185	34.52
1.24852	34.52
1.26518	34.51
1.28185	34.51
1.29852	34.52
1.31518	34.53
1.33185	34.52
1.34852	34.52
1.36518	34.51
1.38185	34.52
1.39852	34.52
1.41518	34.52
1.43185	34.52
1.44852	34.52
1.46518	34.52
1.48185	34.52
1.49852	34.52
1.51518	34.52
1.53185	34.52
1.54852	34.52
1.56518	34.52
1.58185	34.52
1.59852	34.52
1.61518	34.51
1.63185	34.52
1.64852	34.52
1.66518	34.52
1.68185	34.52
1.69852	34.52
1.71518	34.52
1.73185	34.52
1.74852	34.52
1.76518	34.52
1.78185	34.51
1.79852	34.52
1.81518	34.52
1.83185	34.52
1.84852	34.52
1.86518	34.52
1.88185	34.52
1.89852	34.52
1.91518	34.52
1.93185	34.51
1.94852	34.51
1.96518	34.52
1.98185	34.52
1.99852	34.52
2.01518	34.52
2.03185	34.52
2.04852	34.52
2.06518	34.52
2.08185	34.51
2.09852	34.52
2.11518	34.52
2.13185	34.52
2.14852	34.52
2.16518	34.52
2.18185	34.52
2.19852	34.52
2.21518	34.52
2.23185	34.52
2.24852	34.52
2.26518	34.52
2.28185	34.52
2.29852	34.52
2.31518	34.52
2.33185	34.53
2.34852	34.52
2.36518	34.52
2.38185	34.52
2.39852	34.52
2.41518	34.52
2.43185	34.52
2.44852	34.52
2.46518	34.52
2.48185	34.51
2.49852	34.52
2.51518	34.51
2.53185	34.52
2.54852	34.52
2.56518	34.52
2.58185	34.53
2.59852	34.53
2.61518	34.52
2.63185	34.51
2.64852	34.51
2.66518	34.52
2.68185	34.52
2.69852	34.53
2.71518	34.51
2.73185	34.52
2.74852	34.52
2.76518	34.52
2.78185	34.52
2.79852	34.52
2.81518	34.51
2.83185	34.51
2.84852	34.52
2.86518	34.52
2.88185	34.51
2.89852	34.51
2.91518	34.52
2.93185	34.52
2.94852	34.52
2.96518	34.53
2.98185	34.52
2.99852	34.52
3.01518	34.52
3.03185	34.52
3.04852	34.52
3.06518	34.52
3.08185	34.52
3.09852	34.52
3.11518	34.52
3.13185	34.52
3.14852	34.52
3.16518	34.52
3.18185	34.52
3.19852	34.52
3.21518	34.52
3.23185	34.51
3.24852	34.52
3.26518	34.52
3.28185	34.52
3.29852	34.52
3.31518	34.52
3.33185	34.51
3.34852	34.52
3.36518	34.52
3.38185	34.51
3.39852	34.52
3.41518	34.52
3.43185	34.52
3.44852	34.52
3.46518	34.52
3.48185	34.51
3.49852	34.52
3.51518	34.52
3.53185	34.52
3.54852	34.52
3.56518	34.52
3.58185	34.52
3.59852	34.52
3.61518	34.52
3.63185	34.52
3.64852	34.52
3.66518	34.52
3.68185	34.52
3.69852	34.52
3.71518	34.52
3.73185	34.52
3.74852	34.52
3.76518	34.52
3.78185	34.52
3.79852	34.52
3.81518	34.52
3.83185	34.52
3.84852	34.52
3.86518	34.52
3.88185	34.52
3.89852	34.52
3.91518	34.52
3.93185	34.52
3.94852	34.52
3.96518	34.52
3.98185	34.52
3.99852	34.51

[Status Trace (Column Flow)]
Interval(msec)	1000
# of Points	240
Start Time(min)	0.015
End Time(min)	3.999
Intensity Units	
Intensity Multiplier	1
R.Time (min)	Intensity
0.01518	5.46
0.03185	5.30
0.04852	5.58
0.06518	5.80
0.08185	5.64
0.09852	5.57
0.11518	5.57
0.13185	5.57
0.14852	5.57
0.16518	5.57
0.18185	5.57
0.19852	5.57
0.21518	5.57
0.23185	5.57
0.24852	5.57
0.26518	5.57
0.28185	5.57
0.29852	5.57
0.31518	5.57
0.33185	5.57
0.34852	5.57
0.36518	5.57
0.38185	5.57
0.39852	5.57
0.41518	5.57
0.43185	5.57
0.44852	5.57
0.46518	5.57
0.48185	5.57
0.49852	5.57
0.51518	5.57
0.53185	5.57
0.54852	5.57
0.56518	5.57
0.58185	5.57
0.59852	5.57
0.61518	5.57
0.63185	5.57
0.64852	5.57
0.66518	5.58
0.68185	5.57
0.69852	5.57
0.71518	5.57
0.73185	5.57
0.74852	5.57
0.76518	5.57
0.78185	5.57
0.79852	5.57
0.81518	5.57
0.83185	5.57
0.84852	5.57
0.86518	5.57
0.88185	5.57
0.89852	5.57
0.91518	5.57
0.93185	5.57
0.94852	5.57
0.96518	5.57
0.98185	5.57
0.99852	5.57
1.01518	5.57
1.03185	5.57
1.04852	5.57
1.06518	5.57
1.08185	5.57
1.09852	5.57
1.11518	5.57
1.13185	5.57
1.14852	5.57
1.16518	5.57
1.18185	5.57
1.19852	5.57
1.21518	5.57
1.23185	5.57
1.24852	5.57
1.26518	5.57
1.28185	5.57
1.29852	5.57
1.31518	5.57
1.33185	5.57
1.34852	5.57
1.36518	5.57
1.38185	5.57
1.39852	5.57
1.41518	5.57
1.43185	5.57
1.44852	5.57
1.46518	5.57
1.48185	5.57
1.49852	5.57
1.51518	5.58
1.53185	5.58
1.54852	5.58
1.56518	5.58
1.58185	5.58
1.59852	5.57
1.61518	5.57
1.63185	5.57
1.64852	5.56
1.66518	5.55
1.68185	5.54
1.69852	5.53
1.71518	5.52
1.73185	5.51
1.74852	5.50
1.76518	5.49
1.78185	5.48
1.79852	5.46
1.81518	5.45
1.83185	5.45
1.84852	5.43
1.86518	5.42
1.88185	5.41
1.89852	5.40
1.91518	5.39
1.93185	5.38
1.94852	5.37
1.96518	5.36
1.98185	5.36
1.99852	5.35
2.01518	5.34
2.03185	5.33
2.04852	5.32
2.06518	5.31
2.08185	5.30
2.09852	5.29
2.11518	5.28
2.13185	5.27
2.14852	5.26
2.16518	5.25
2.18185	5.24
2.19852	5.23
2.21518	5.22
2.23185	5.21
2.24852	5.20
2.26518	5.19
2.28185	5.18
2.29852	5.17
2.31518	5.17
2.33185	5.16
2.34852	5.15
2.36518	5.14
2.38185	5.14
2.39852	5.14
2.41518	5.14
2.43185	5.14
2.44852	5.14
2.46518	5.14
2.48185	5.13
2.49852	5.13
2.51518	5.13
2.53185	5.13
2.54852	5.13
2.56518	5.13
2.58185	5.13
2.59852	5.13
2.61518	5.13
2.63185	5.13
2.64852	5.13
2.66518	5.13
2.68185	5.13
2.69852	5.13
2.71518	5.13
2.73185	5.13
2.74852	5.13
2.76518	5.13
2.78185	5.13
2.79852	5.13
2.81518	5.13
2.83185	5.13
2.84852	5.13
2.86518	5.13
2.88185	5.13
2.89852	5.13
2.91518	5.13
2.93185	5.13
2.94852	5.13
2.96518	5.13
2.98185	5.13
2.99852	5.13
3.01518	5.13
3.03185	5.13
3.04852	5.13
3.06518	5.13
3.08185	5.13
3.09852	5.13
3.11518	5.13
3.13185	5.13
3.14852	5.13
3.16518	5.13
3.18185	5.13
3.19852	5.12
3.21518	5.12
3.23185	5.12
3.24852	5.12
3.26518	5.12
3.28185	5.12
3.29852	5.12
3.31518	5.12
3.33185	5.13
3.34852	5.12
3.36518	5.12
3.38185	5.12
3.39852	5.12
3.41518	5.12
3.43185	5.12
3.44852	5.12
3.46518	5.12
3.48185	5.12
3.49852	5.13
3.51518	5.13
3.53185	5.13
3.54852	5.13
3.56518	5.13
3.58185	5.13
3.59852	5.13
3.61518	5.13
3.63185	5.13
3.64852	5.13
3.66518	5.13
3.68185	5.13
3.69852	5.13
3.71518	5.13
3.73185	5.13
3.74852	5.13
3.76518	5.13
3.78185	5.13
3.79852	5.13
3.81518	5.13
3.83185	5.13
3.84852	5.13
3.86518	5.13
3.88185	5.13
3.89852	5.13
3.91518	5.13
3.93185	5.13
3.94852	5.13
3.96518	5.13
3.98185	5.13
3.99852	5.13

[Status Trace (Linear Velocity)]
Interval(msec)	1000
# of Points	240
Start Time(min)	0.015
End Time(min)	3.999
Intensity Units	
Intensity Multiplier	1
R.Time (min)	Intensity
0.01518	38.40
0.03185	37.48
0.04852	39.09
0.06518	40.26
0.08185	39.42
0.09852	39.01
0.11518	39.03
0.13185	39.03
0.14852	39.03
0.16518	39.03
0.18185	39.03
0.19852	39.03
0.21518	39.03
0.23185	39.03
0.24852	39.03
0.26518	39.03
0.28185	39.03
0.29852	39.03
0.31518	39.03
0.33185	39.03
0.34852	39.03
0.36518	39.03
0.38185	39.03
0.39852	39.03
0.41518	39.03
0.43185	39.03
0.44852	39.03
0.46518	39.03
0.48185	39.03
0.49852	39.03
0.51518	39.03
0.53185	39.03
0.54852	39.03
0.56518	39.03
0.58185	39.03
0.59852	39.03
0.61518	39.03
0.63185	39.03
0.64852	39.03
0.66518	39.03
0.68185	39.03
0.69852	39.03
0.71518	39.03
0.73185	39.03
0.74852	39.03
0.76518	39.03
0.78185	39.03
0.79852	39.03
0.81518	39.03
0.83185	39.03
0.84852	39.03
0.86518	39.03
0.88185	39.03
0.89852	39.03
0.91518	39.03
0.93185	39.03
0.94852	39.03
0.96518	39.03
0.98185	39.03
0.99852	39.03
1.01518	39.03
1.03185	39.03
1.04852	39.03
1.06518	39.03
1.08185	39.03
1.09852	39.03
1.11518	39.03
1.13185	39.03
1.14852	39.03
1.16518	39.03
1.18185	39.03
1.19852	39.03
1.21518	39.03
1.23185	39.03
1.24852	39.03
1.26518	39.03
1.28185	39.03
1.29852	39.03
1.31518	39.03
1.33185	39.03
1.34852	39.03
1.36518	39.03
1.38185	39.03
1.39852	39.03
1.41518	39.03
1.43185	39.03
1.44852	39.03
1.46518	39.03
1.48185	39.03
1.49852	39.03
1.51518	39.03
1.53185	39.03
1.54852	39.03
1.56518	39.03
1.58185	39.03
1.59852	39.03
1.61518	39.02
1.63185	39.01
1.64852	38.99
1.66518	38.96
1.68185	38.93
1.69852	38.88
1.71518	38.85
1.73185	38.82
1.74852	38.79
1.76518	38.76
1.78185	38.73
1.79852	38.70
1.81518	38.67
1.83185	38.64
1.84852	38.60
1.86518	38.57
1.88185	38.54
1.89852	38.51
1.91518	38.48
1.93185	38.45
1.94852	38.42
1.96518	38.39
1.98185	38.36
1.99852	38.33
2.01518	38.30
2.03185	38.27
2.04852	38.24
2.06518	38.21
2.08185	38.18
2.09852	38.15
2.11518	38.12
2.13185	38.09
2.14852	38.06
2.16518	38.03
2.18185	38.00
2.19852	37.97
2.21518	37.94
2.23185	37.91
2.24852	37.88
2.26518	37.85
2.28185	37.83
2.29852	37.79
2.31518	37.77
2.33185	37.74
2.34852	37.71
2.36518	37.68
2.38185	37.67
2.39852	37.67
2.41518	37.67
2.43185	37.67
2.44852	37.67
2.46518	37.67
2.48185	37.67
2.49852	37.67
2.51518	37.66
2.53185	37.66
2.54852	37.67
2.56518	37.67
2.58185	37.66
2.59852	37.66
2.61518	37.66
2.63185	37.66
2.64852	37.66
2.66518	37.66
2.68185	37.66
2.69852	37.66
2.71518	37.66
2.73185	37.65
2.74852	37.66
2.76518	37.66
2.78185	37.66
2.79852	37.66
2.81518	37.65
2.83185	37.65
2.84852	37.65
2.86518	37.65
2.88185	37.65
2.89852	37.65
2.91518	37.65
2.93185	37.65
2.94852	37.65
2.96518	37.65
2.98185	37.65
2.99852	37.65
3.01518	37.65
3.03185	37.64
3.04852	37.64
3.06518	37.64
3.08185	37.64
3.09852	37.64
3.11518	37.64
3.13185	37.64
3.14852	37.64
3.16518	37.64
3.18185	37.64
3.19852	37.64
3.21518	37.64
3.23185	37.64
3.24852	37.64
3.26518	37.64
3.28185	37.64
3.29852	37.64
3.31518	37.64
3.33185	37.64
3.34852	37.64
3.36518	37.64
3.38185	37.64
3.39852	37.63
3.41518	37.63
3.43185	37.63
3.44852	37.64
3.46518	37.64
3.48185	37.64
3.49852	37.64
3.51518	37.64
3.53185	37.64
3.54852	37.64
3.56518	37.64
3.58185	37.64
3.59852	37.64
3.61518	37.64
3.63185	37.64
3.64852	37.64
3.66518	37.64
3.68185	37.64
3.69852	37.64
3.71518	37.64
3.73185	37.64
3.74852	37.64
3.76518	37.64
3.78185	37.64
3.79852	37.64
3.81518	37.64
3.83185	37.64
3.84852	37.64
3.86518	37.64
3.88185	37.64
3.89852	37.64
3.91518	37.64
3.93185	37.64
3.94852	37.64
3.96518	37.64
3.98185	37.64
3.99852	37.64

