[Header]
Application Name	LabSolutions
Version	5.110
Data File Name	C:\Users\User\Desktop\GC Analyses\Jack\Nachusa Grasslands Sampling\T0 Timepoint July 12th\T0_07122022_008.gcd
Output Date	3/14/2023
Output Time	3:40:34 PM

[File Information]
Type	Data File
Generated	3/7/2023 2:34:17 PM
Generated by	System Administrator
Modified	3/7/2023 2:40:48 PM
Modified by	System Administrator

[Sample Information]
Operator Name	System Administrator
Acquired	3/7/2023 2:36:48 PM
Sample Type	0:Unknown
Level	0
Sample Name	008
Sample ID	008
ISTD Amount1	1
ISTD Amount2	1
ISTD Amount3	1
ISTD Amount4	1
ISTD Amount5	1
ISTD Amount6	1
ISTD Amount7	1
ISTD Amount8	1
ISTD Amount9	1
ISTD Amount10	1
ISTD Amount11	1
ISTD Amount12	1
ISTD Amount13	1
ISTD Amount14	1
ISTD Amount15	1
ISTD Amount16	1
ISTD Amount17	1
ISTD Amount18	1
ISTD Amount19	1
ISTD Amount20	1
ISTD Amount21	1
ISTD Amount22	1
ISTD Amount23	1
ISTD Amount24	1
ISTD Amount25	1
ISTD Amount26	1
ISTD Amount27	1
ISTD Amount28	1
ISTD Amount29	1
ISTD Amount30	1
ISTD Amount31	1
ISTD Amount32	1
Sample Amount	1
Dilution Factor	1
Vial#	7
Injection Volume	1
Injection Count	1
Bar Code	

[Original Files]
Data File	C:\Users\User\Desktop\GC Analyses\Jack\Nachusa Grasslands Sampling\T0 Timepoint July 12th\T0_07122022_008.gcd
Method File	C:\LabSolutions\Data\GHG_4min_2022\ghg3_togas_w_acet_4 min_new_int.gcm
Batch File	C:\LabSolutions\Data\AutoSamplerTesting\T0_07122022.gcb
Report Format File	c:\LabSolutions\System\DEFAULT.lsr

[File Description]


[Configuration]
Instrument Name	C0B7VH3-Instrument1
Instrument #	1
Line #	1
# of Detectors	3
Detector ID	DET#1	DET#2	DET#3
Detector Name	FID	PTCD	ECD
# of Channels	1	1	1

[Peak Table(Ch1)]
# of Peaks	3
Peak#	R.Time	I.Time	F.Time	Area	Height	A/H	Conc.	Mark	ID#	Name	k'	Plate #	Plate Ht.	Tailing	Resolution	Sep.Factor	Area Ratio	Height Ratio	Conc. %	Norm Conc.
1	1.476	1.439	1.538	25161	11761	2.139	177.640	   	1	CO	0.000	9044	16.585	1.373	0.000	0.000	0	0	32.212	32.212
2	1.567	1.538	1.630	4842	2327	2.081	93.633	 V 	2	CH4	0.062	10460	14.341	0.000	1.486	0.000	0	0	16.979	16.979
3	1.996	1.949	2.484	1116418	524022	2.130	280.191	   	3	CO2	0.353	17306	8.667	1.336	7.033	5.680	0	0	50.809	50.809

[Peak Table(Ch2)]
# of Peaks	0

[Peak Table(Ch3)]
# of Peaks	5
Peak#	R.Time	I.Time	F.Time	Area	Height	A/H	Conc.	Mark	ID#	Name	k'	Plate #	Plate Ht.	Tailing	Resolution	Sep.Factor	Area Ratio	Height Ratio	Conc. %	Norm Conc.
1	2.462	2.356	2.524	1136	289	3.933	0.000	   			0.000	4997	30.019	0.000	0.000	0.000	0	0	0.000	0.000
2	2.557	2.524	2.638	914	183	5.002	0.000	 V 			0.039	1781	84.241	0.000	0.499	0.000	0	0	0.000	0.000
3	2.697	2.656	2.766	167	45	3.733	0.000	   			0.095	9449	15.875	1.417	0.789	2.462	0	0	0.000	0.000
4	2.873	2.814	3.016	16890	4667	3.619	0.431	   	1	N2O	0.167	13866	10.818	1.578	1.688	1.750	0	0	100.000	100.000
5	3.324	3.217	3.962	12010	528	22.754	0.000	   	2	SF6	0.350	460	326.420	3.419	1.257	2.098	0	0	0.000	0.000

[Compound Results(Ch1)]
# of IDs	6
ID#	Name	R.Time	Area	Height	Conc.	Curve	3rd	2nd	1st	Constant	Area Ratio	Height Ratio	Conc. %	Norm Conc.
1	CO	1.476	25161	11761	177.640	Linear	0.000000e+00	0.000000e+00	1.416423e+002	0.000000e+00	0	0	32.212	32.212
2	CH4	1.567	4842	2327	93.633	Linear	0.000000e+00	0.000000e+00	5.171738e+001	0.000000e+00	0	0	16.979	16.979
3	CO2	1.996	1116418	524022	280.191	Linear	0.000000e+00	0.000000e+00	3.984494e+003	0.000000e+00	0	0	50.809	50.809
4	Ethylene	0.000	0	0	0.000	Linear	0.000000e+00	0.000000e+00	0.000000e+00	0.000000e+00	0	0	0.000	0.000
5	Acetylene	0.000	0	0	0.000	Linear	0.000000e+00	0.000000e+00	0.000000e+00	0.000000e+00	0	0	0.000	0.000
6	Ethane	0.000	0	0	0.000	Linear	0.000000e+00	0.000000e+00	0.000000e+00	0.000000e+00	0	0	0.000	0.000

[Compound Results(Ch2)]
# of IDs	5
ID#	Name	R.Time	Area	Height	Conc.	Curve	3rd	2nd	1st	Constant	Area Ratio	Height Ratio	Conc. %	Norm Conc.
1	Hydrogen	0.000	0	0	0.000	Linear	0.000000e+00	0.000000e+00	0.000000e+00	0.000000e+00	0	0	0.000	0.000
2	Oxygen	0.000	0	0	0.000	Linear	0.000000e+00	0.000000e+00	0.000000e+00	0.000000e+00	0	0	0.000	0.000
3	Nitrogen	0.000	0	0	0.000	Linear	0.000000e+00	0.000000e+00	0.000000e+00	0.000000e+00	0	0	0.000	0.000
4	Methane	0.000	0	0	0.000	Linear	0.000000e+00	0.000000e+00	0.000000e+00	0.000000e+00	0	0	0.000	0.000
5	Carbon Monoxide	0.000	0	0	0.000	Linear	0.000000e+00	0.000000e+00	0.000000e+00	0.000000e+00	0	0	0.000	0.000

[Compound Results(Ch3)]
# of IDs	2
ID#	Name	R.Time	Area	Height	Conc.	Curve	3rd	2nd	1st	Constant	Area Ratio	Height Ratio	Conc. %	Norm Conc.
1	N2O	2.873	16890	4667	0.431	Linear	0.000000e+00	0.000000e+00	3.915173e+004	0.000000e+00	0	0	100.000	100.000
2	SF6	3.324	12010	528	0.000	Linear	0.000000e+00	0.000000e+00	0.000000e+00	0.000000e+00	0	0	0.000	0.000

[Group Results(Ch1)]
# of Groups	0

[Group Results(Ch2)]
# of Groups	0

[Group Results(Ch3)]
# of Groups	0

[Chromatogram (Ch1)]
Interval(msec)	220
# of Points	1091
Start Time(min)	0.002
End Time(min)	3.998
R.Time (min)	Intensity
0.00167	-6
0.00533	-7
0.00900	-12
0.01267	-17
0.01633	-20
0.02000	-21
0.02367	-19
0.02733	-17
0.03100	-15
0.03467	-15
0.03833	-14
0.04200	-11
0.04567	-10
0.04933	-9
0.05300	-10
0.05667	-11
0.06033	-9
0.06400	-5
0.06767	-3
0.07133	-3
0.07500	-0
0.07867	4
0.08233	8
0.08600	11
0.08967	10
0.09333	9
0.09700	5
0.10067	-1
0.10433	-6
0.10800	-6
0.11167	-2
0.11533	2
0.11900	3
0.12267	3
0.12633	1
0.13000	-1
0.13367	-2
0.13733	-5
0.14100	-9
0.14467	-12
0.14833	-11
0.15200	-10
0.15567	-9
0.15933	-9
0.16300	-11
0.16667	-14
0.17033	-16
0.17400	-18
0.17767	-20
0.18133	-22
0.18500	-21
0.18867	-21
0.19233	-19
0.19600	-13
0.19967	-3
0.20333	3
0.20700	6
0.21067	5
0.21433	0
0.21800	-4
0.22167	-6
0.22533	-9
0.22900	-12
0.23267	-8
0.23633	-1
0.24000	6
0.24367	10
0.24733	8
0.25100	2
0.25467	-8
0.25833	-19
0.26200	-26
0.26567	-30
0.26933	-33
0.27300	-33
0.27667	-31
0.28033	-24
0.28400	-14
0.28767	-4
0.29133	3
0.29500	3
0.29867	-1
0.30233	-10
0.30600	-18
0.30967	-24
0.31333	-28
0.31700	-29
0.32067	-26
0.32433	-21
0.32800	-15
0.33167	-10
0.33533	-6
0.33900	-5
0.34267	-5
0.34633	-5
0.35000	-5
0.35367	-5
0.35733	-4
0.36100	-2
0.36467	1
0.36833	8
0.37200	15
0.37567	20
0.37933	21
0.38300	23
0.38667	27
0.39033	32
0.39400	39
0.39767	45
0.40133	48
0.40500	48
0.40867	45
0.41233	39
0.41600	30
0.41967	21
0.42333	17
0.42700	21
0.43067	25
0.43433	25
0.43800	23
0.44167	20
0.44533	14
0.44900	6
0.45267	-2
0.45633	-7
0.46000	-8
0.46367	-8
0.46733	-7
0.47100	-4
0.47467	2
0.47833	6
0.48200	6
0.48567	1
0.48933	-4
0.49300	-7
0.49667	-8
0.50033	-8
0.50400	-7
0.50767	-6
0.51133	-4
0.51500	-1
0.51867	0
0.52233	2
0.52600	2
0.52967	2
0.53333	-0
0.53700	-1
0.54067	1
0.54433	-3
0.54800	-14
0.55167	-27
0.55533	-38
0.55900	-43
0.56267	-42
0.56633	-36
0.57000	-26
0.57367	-15
0.57733	-10
0.58100	-15
0.58467	-27
0.58833	-39
0.59200	-45
0.59567	-48
0.59933	-51
0.60300	-51
0.60667	-50
0.61033	-48
0.61400	-47
0.61767	-42
0.62133	-36
0.62500	-34
0.62867	-34
0.63233	-35
0.63600	-38
0.63967	-42
0.64333	-48
0.64700	-52
0.65067	-53
0.65433	-50
0.65800	-49
0.66167	-48
0.66533	-44
0.66900	-37
0.67267	-30
0.67633	-27
0.68000	-32
0.68367	-38
0.68733	-42
0.69100	-43
0.69467	-42
0.69833	-40
0.70200	-43
0.70567	-49
0.70933	-51
0.71300	-43
0.71667	-31
0.72033	-21
0.72400	-17
0.72767	-17
0.73133	-18
0.73500	-19
0.73867	-21
0.74233	-24
0.74600	-25
0.74967	-27
0.75333	-35
0.75700	-49
0.76067	-58
0.76433	-57
0.76800	-50
0.77167	-45
0.77533	-44
0.77900	-47
0.78267	-56
0.78633	-64
0.79000	-67
0.79367	-65
0.79733	-60
0.80100	-56
0.80467	-51
0.80833	-48
0.81200	-45
0.81567	-44
0.81933	-46
0.82300	-49
0.82667	-49
0.83033	-48
0.83400	-49
0.83767	-52
0.84133	-52
0.84500	-51
0.84867	-50
0.85233	-46
0.85600	-41
0.85967	-38
0.86333	-37
0.86700	-38
0.87067	-44
0.87433	-50
0.87800	-51
0.88167	-51
0.88533	-52
0.88900	-53
0.89267	-51
0.89633	-47
0.90000	-45
0.90367	-45
0.90733	-48
0.91100	-48
0.91467	-44
0.91833	-36
0.92200	-29
0.92567	-26
0.92933	-25
0.93300	-27
0.93667	-33
0.94033	-42
0.94400	-51
0.94767	-55
0.95133	-56
0.95500	-56
0.95867	-56
0.96233	-54
0.96600	-51
0.96967	-47
0.97333	-41
0.97700	-34
0.98067	-30
0.98433	-33
0.98800	-40
0.99167	-47
0.99533	-53
0.99900	-54
1.00267	-56
1.00633	-57
1.01000	-55
1.01367	-50
1.01733	-47
1.02100	-47
1.02467	-52
1.02833	-56
1.03200	-60
1.03567	-60
1.03933	-52
1.04300	-37
1.04667	-26
1.05033	-19
1.05400	-18
1.05767	-23
1.06133	-37
1.06500	-55
1.06867	-72
1.07233	-87
1.07600	-97
1.07967	-101
1.08333	-95
1.08700	-86
1.09067	-79
1.09433	-73
1.09800	-73
1.10167	-75
1.10533	-78
1.10900	-81
1.11267	-82
1.11633	-81
1.12000	-78
1.12367	-73
1.12733	-66
1.13100	-56
1.13467	-45
1.13833	-40
1.14200	-41
1.14567	-46
1.14933	-52
1.15300	-54
1.15667	-56
1.16033	-60
1.16400	-64
1.16767	-66
1.17133	-68
1.17500	-71
1.17867	-73
1.18233	-71
1.18600	-71
1.18967	-73
1.19333	-75
1.19700	-76
1.20067	-75
1.20433	-70
1.20800	-65
1.21167	-62
1.21533	-61
1.21900	-63
1.22267	-68
1.22633	-69
1.23000	-67
1.23367	-65
1.23733	-64
1.24100	-66
1.24467	-70
1.24833	-74
1.25200	-74
1.25567	-74
1.25933	-76
1.26300	-76
1.26667	-71
1.27033	-63
1.27400	-55
1.27767	-53
1.28133	-56
1.28500	-63
1.28867	-70
1.29233	-75
1.29600	-78
1.29967	-82
1.30333	-88
1.30700	-93
1.31067	-93
1.31433	-91
1.31800	-90
1.32167	-88
1.32533	-85
1.32900	-83
1.33267	-84
1.33633	-84
1.34000	-81
1.34367	-75
1.34733	-71
1.35100	-73
1.35467	-79
1.35833	-85
1.36200	-88
1.36567	-88
1.36933	-86
1.37300	-82
1.37667	-78
1.38033	-75
1.38400	-75
1.38767	-75
1.39133	-73
1.39500	-68
1.39867	-62
1.40233	-57
1.40600	-55
1.40967	-59
1.41333	-72
1.41700	-86
1.42067	-96
1.42433	-103
1.42800	-104
1.43167	-101
1.43533	-99
1.43900	-85
1.44267	-19
1.44633	168
1.45000	628
1.45367	1707
1.45733	3547
1.46100	5804
1.46467	7988
1.46833	9786
1.47200	11054
1.47567	11692
1.47933	11597
1.48300	10739
1.48667	9274
1.49033	7514
1.49400	5784
1.49767	4293
1.50133	3117
1.50500	2239
1.50867	1607
1.51233	1162
1.51600	854
1.51967	641
1.52333	493
1.52700	386
1.53067	306
1.53433	248
1.53800	217
1.54167	242
1.54533	383
1.54900	676
1.55267	1080
1.55633	1506
1.56000	1875
1.56367	2148
1.56733	2300
1.57100	2302
1.57467	2133
1.57833	1824
1.58200	1451
1.58567	1090
1.58933	784
1.59300	546
1.59667	371
1.60033	249
1.60400	169
1.60767	115
1.61133	77
1.61500	50
1.61867	30
1.62233	15
1.62600	6
1.62967	2
1.63333	0
1.63700	3
1.64067	8
1.64433	11
1.64800	8
1.65167	0
1.65533	-12
1.65900	-21
1.66267	-25
1.66633	-24
1.67000	-19
1.67367	-13
1.67733	-7
1.68100	-4
1.68467	-6
1.68833	-13
1.69200	-25
1.69567	-40
1.69933	-52
1.70300	-57
1.70667	-54
1.71033	-49
1.71400	-48
1.71767	-54
1.72133	-62
1.72500	-66
1.72867	-67
1.73233	-63
1.73600	-56
1.73967	-47
1.74333	-41
1.74700	-38
1.75067	-36
1.75433	-34
1.75800	-31
1.76167	-30
1.76533	-30
1.76900	-31
1.77267	-33
1.77633	-35
1.78000	-38
1.78367	-43
1.78733	-50
1.79100	-52
1.79467	-51
1.79833	-49
1.80200	-50
1.80567	-49
1.80933	-48
1.81300	-45
1.81667	-43
1.82033	-39
1.82400	-35
1.82767	-35
1.83133	-41
1.83500	-46
1.83867	-48
1.84233	-48
1.84600	-45
1.84967	-39
1.85333	-33
1.85700	-28
1.86067	-22
1.86433	-20
1.86800	-23
1.87167	-28
1.87533	-31
1.87900	-30
1.88267	-28
1.88633	-26
1.89000	-24
1.89367	-24
1.89733	-28
1.90100	-38
1.90467	-50
1.90833	-59
1.91200	-62
1.91567	-62
1.91933	-61
1.92300	-56
1.92667	-50
1.93033	-44
1.93400	-38
1.93767	-34
1.94133	-28
1.94500	-22
1.94867	-18
1.95233	-7
1.95600	67
1.95967	503
1.96333	2528
1.96700	9693
1.97067	29074
1.97433	69749
1.97800	137128
1.98167	227142
1.98533	326282
1.98900	417688
1.99267	486984
1.99633	524029
2.00000	523836
2.00367	487892
2.00733	424680
2.01100	347386
2.01467	269347
2.01833	200138
2.02200	144232
2.02567	102001
2.02933	71559
2.03300	50291
2.03667	35718
2.04033	25829
2.04400	19135
2.04767	14575
2.05133	11431
2.05500	9231
2.05867	7660
2.06233	6510
2.06600	5649
2.06967	4986
2.07333	4464
2.07700	4041
2.08067	3690
2.08433	3396
2.08800	3146
2.09167	2933
2.09533	2748
2.09900	2581
2.10267	2427
2.10633	2285
2.11000	2154
2.11367	2031
2.11733	1922
2.12100	1829
2.12467	1746
2.12833	1671
2.13200	1601
2.13567	1538
2.13933	1483
2.14300	1434
2.14667	1379
2.15033	1323
2.15400	1268
2.15767	1215
2.16133	1164
2.16500	1115
2.16867	1072
2.17233	1036
2.17600	1008
2.17967	985
2.18333	963
2.18700	939
2.19067	912
2.19433	885
2.19800	858
2.20167	829
2.20533	802
2.20900	780
2.21267	765
2.21633	754
2.22000	740
2.22367	723
2.22733	705
2.23100	691
2.23467	680
2.23833	671
2.24200	661
2.24567	647
2.24933	631
2.25300	613
2.25667	594
2.26033	578
2.26400	568
2.26767	562
2.27133	555
2.27500	546
2.27867	530
2.28233	514
2.28600	501
2.28967	492
2.29333	481
2.29700	470
2.30067	460
2.30433	455
2.30800	452
2.31167	447
2.31533	443
2.31900	442
2.32267	442
2.32633	440
2.33000	432
2.33367	423
2.33733	415
2.34100	409
2.34467	403
2.34833	394
2.35200	384
2.35567	379
2.35933	380
2.36300	381
2.36667	380
2.37033	377
2.37400	372
2.37767	367
2.38133	360
2.38500	350
2.38867	339
2.39233	330
2.39600	323
2.39967	320
2.40333	326
2.40700	336
2.41067	343
2.41433	344
2.41800	338
2.42167	330
2.42533	322
2.42900	317
2.43267	312
2.43633	309
2.44000	308
2.44367	308
2.44733	309
2.45100	307
2.45467	306
2.45833	303
2.46200	303
2.46567	302
2.46933	298
2.47300	290
2.47667	281
2.48033	275
2.48400	275
2.48767	277
2.49133	280
2.49500	282
2.49867	280
2.50233	273
2.50600	265
2.50967	261
2.51333	260
2.51700	259
2.52067	256
2.52433	253
2.52800	251
2.53167	253
2.53533	258
2.53900	262
2.54267	265
2.54633	267
2.55000	268
2.55367	266
2.55733	265
2.56100	265
2.56467	264
2.56833	258
2.57200	249
2.57567	238
2.57933	232
2.58300	235
2.58667	240
2.59033	241
2.59400	237
2.59767	231
2.60133	230
2.60500	238
2.60867	251
2.61233	261
2.61600	266
2.61967	260
2.62333	246
2.62700	230
2.63067	213
2.63433	201
2.63800	196
2.64167	197
2.64533	201
2.64900	206
2.65267	213
2.65633	223
2.66000	233
2.66367	241
2.66733	246
2.67100	245
2.67467	243
2.67833	240
2.68200	236
2.68567	233
2.68933	228
2.69300	224
2.69667	222
2.70033	224
2.70400	229
2.70767	234
2.71133	236
2.71500	236
2.71867	240
2.72233	245
2.72600	247
2.72967	246
2.73333	243
2.73700	242
2.74067	245
2.74433	249
2.74800	250
2.75167	250
2.75533	249
2.75900	247
2.76267	242
2.76633	233
2.77000	222
2.77367	216
2.77733	214
2.78100	215
2.78467	221
2.78833	229
2.79200	233
2.79567	234
2.79933	234
2.80300	235
2.80667	238
2.81033	241
2.81400	246
2.81767	251
2.82133	254
2.82500	256
2.82867	251
2.83233	244
2.83600	241
2.83967	243
2.84333	248
2.84700	252
2.85067	255
2.85433	255
2.85800	252
2.86167	252
2.86533	253
2.86900	254
2.87267	255
2.87633	255
2.88000	252
2.88367	249
2.88733	247
2.89100	247
2.89467	245
2.89833	242
2.90200	239
2.90567	240
2.90933	243
2.91300	245
2.91667	246
2.92033	251
2.92400	260
2.92767	269
2.93133	275
2.93500	275
2.93867	269
2.94233	263
2.94600	262
2.94967	263
2.95333	261
2.95700	257
2.96067	254
2.96433	253
2.96800	254
2.97167	255
2.97533	256
2.97900	256
2.98267	255
2.98633	253
2.99000	251
2.99367	248
2.99733	246
3.00100	245
3.00467	248
3.00833	253
3.01200	257
3.01567	261
3.01933	268
3.02300	276
3.02667	279
3.03033	279
3.03400	278
3.03767	276
3.04133	274
3.04500	270
3.04867	266
3.05233	263
3.05600	265
3.05967	273
3.06333	281
3.06700	283
3.07067	279
3.07433	275
3.07800	275
3.08167	279
3.08533	280
3.08900	278
3.09267	274
3.09633	268
3.10000	264
3.10367	266
3.10733	270
3.11100	273
3.11467	271
3.11833	266
3.12200	261
3.12567	258
3.12933	256
3.13300	256
3.13667	257
3.14033	261
3.14400	269
3.14767	279
3.15133	285
3.15500	286
3.15867	286
3.16233	287
3.16600	290
3.16967	290
3.17333	289
3.17700	289
3.18067	292
3.18433	296
3.18800	293
3.19167	283
3.19533	274
3.19900	268
3.20267	264
3.20633	263
3.21000	261
3.21367	261
3.21733	265
3.22100	272
3.22467	279
3.22833	285
3.23200	289
3.23567	290
3.23933	291
3.24300	292
3.24667	293
3.25033	296
3.25400	299
3.25767	300
3.26133	299
3.26500	292
3.26867	282
3.27233	272
3.27600	265
3.27967	263
3.28333	264
3.28700	266
3.29067	265
3.29433	262
3.29800	260
3.30167	262
3.30533	265
3.30900	269
3.31267	273
3.31633	277
3.32000	279
3.32367	280
3.32733	279
3.33100	277
3.33467	274
3.33833	271
3.34200	270
3.34567	274
3.34933	279
3.35300	281
3.35667	284
3.36033	286
3.36400	290
3.36767	292
3.37133	292
3.37500	293
3.37867	298
3.38233	302
3.38600	303
3.38967	302
3.39333	299
3.39700	296
3.40067	294
3.40433	288
3.40800	281
3.41167	275
3.41533	267
3.41900	259
3.42267	250
3.42633	244
3.43000	243
3.43367	248
3.43733	258
3.44100	271
3.44467	280
3.44833	282
3.45200	281
3.45567	277
3.45933	274
3.46300	271
3.46667	269
3.47033	268
3.47400	269
3.47767	268
3.48133	267
3.48500	269
3.48867	274
3.49233	276
3.49600	277
3.49967	276
3.50333	275
3.50700	273
3.51067	274
3.51433	273
3.51800	271
3.52167	269
3.52533	267
3.52900	269
3.53267	270
3.53633	268
3.54000	266
3.54367	265
3.54733	262
3.55100	258
3.55467	256
3.55833	255
3.56200	255
3.56567	256
3.56933	255
3.57300	252
3.57667	248
3.58033	248
3.58400	251
3.58767	254
3.59133	256
3.59500	258
3.59867	257
3.60233	255
3.60600	251
3.60967	251
3.61333	255
3.61700	258
3.62067	263
3.62433	268
3.62800	268
3.63167	261
3.63533	253
3.63900	248
3.64267	247
3.64633	246
3.65000	248
3.65367	249
3.65733	244
3.66100	237
3.66467	232
3.66833	232
3.67200	234
3.67567	233
3.67933	234
3.68300	236
3.68667	237
3.69033	238
3.69400	237
3.69767	236
3.70133	234
3.70500	230
3.70867	226
3.71233	224
3.71600	222
3.71967	222
3.72333	221
3.72700	219
3.73067	216
3.73433	217
3.73800	221
3.74167	225
3.74533	229
3.74900	233
3.75267	235
3.75633	233
3.76000	229
3.76367	228
3.76733	231
3.77100	234
3.77467	233
3.77833	228
3.78200	226
3.78567	228
3.78933	228
3.79300	223
3.79667	216
3.80033	214
3.80400	216
3.80767	220
3.81133	224
3.81500	225
3.81867	223
3.82233	220
3.82600	222
3.82967	231
3.83333	245
3.83700	256
3.84067	262
3.84433	264
3.84800	258
3.85167	243
3.85533	224
3.85900	208
3.86267	198
3.86633	190
3.87000	184
3.87367	182
3.87733	184
3.88100	190
3.88467	198
3.88833	205
3.89200	205
3.89567	202
3.89933	200
3.90300	199
3.90667	199
3.91033	201
3.91400	209
3.91767	218
3.92133	225
3.92500	227
3.92867	224
3.93233	217
3.93600	211
3.93967	209
3.94333	210
3.94700	215
3.95067	220
3.95433	224
3.95800	229
3.96167	229
3.96533	223
3.96900	215
3.97267	207
3.97633	199
3.98000	198
3.98367	204
3.98733	212
3.99100	215
3.99467	213
3.99833	210

[Chromatogram (Ch2)]
Interval(msec)	220
# of Points	1091
Start Time(min)	0.002
End Time(min)	3.998
R.Time (min)	Intensity
0.00167	0
0.00533	0
0.00900	0
0.01267	0
0.01633	0
0.02000	0
0.02367	0
0.02733	0
0.03100	-0
0.03467	-0
0.03833	0
0.04200	-0
0.04567	-0
0.04933	-0
0.05300	-0
0.05667	-0
0.06033	-0
0.06400	-0
0.06767	-0
0.07133	-0
0.07500	-0
0.07867	-0
0.08233	-0
0.08600	-0
0.08967	-1
0.09333	-1
0.09700	-1
0.10067	-1
0.10433	-0
0.10800	-0
0.11167	-0
0.11533	0
0.11900	0
0.12267	1
0.12633	1
0.13000	1
0.13367	1
0.13733	1
0.14100	1
0.14467	1
0.14833	1
0.15200	1
0.15567	0
0.15933	-0
0.16300	-1
0.16667	-1
0.17033	-2
0.17400	-2
0.17767	-3
0.18133	-3
0.18500	-3
0.18867	-3
0.19233	-3
0.19600	-3
0.19967	-3
0.20333	-2
0.20700	-2
0.21067	-2
0.21433	-2
0.21800	-2
0.22167	-1
0.22533	-2
0.22900	-2
0.23267	-2
0.23633	-2
0.24000	-2
0.24367	-2
0.24733	-2
0.25100	-2
0.25467	-2
0.25833	-2
0.26200	-2
0.26567	-3
0.26933	-3
0.27300	-3
0.27667	-3
0.28033	-3
0.28400	-3
0.28767	-3
0.29133	-3
0.29500	-3
0.29867	-3
0.30233	-3
0.30600	-3
0.30967	-3
0.31333	-4
0.31700	-4
0.32067	-4
0.32433	-4
0.32800	-5
0.33167	-5
0.33533	-5
0.33900	-4
0.34267	-4
0.34633	-4
0.35000	-4
0.35367	-4
0.35733	-4
0.36100	-4
0.36467	-4
0.36833	-4
0.37200	-4
0.37567	-4
0.37933	-4
0.38300	-3
0.38667	-3
0.39033	-3
0.39400	-3
0.39767	-3
0.40133	-2
0.40500	-2
0.40867	-2
0.41233	-2
0.41600	-2
0.41967	-2
0.42333	-2
0.42700	-2
0.43067	-2
0.43433	-2
0.43800	-2
0.44167	-2
0.44533	-2
0.44900	-2
0.45267	-2
0.45633	-2
0.46000	-2
0.46367	-2
0.46733	-1
0.47100	-1
0.47467	-1
0.47833	-1
0.48200	-1
0.48567	-1
0.48933	-1
0.49300	-2
0.49667	-2
0.50033	-2
0.50400	-3
0.50767	-3
0.51133	-4
0.51500	-4
0.51867	-4
0.52233	-4
0.52600	-4
0.52967	-4
0.53333	-4
0.53700	-3
0.54067	-3
0.54433	-3
0.54800	-2
0.55167	-2
0.55533	-2
0.55900	-1
0.56267	-1
0.56633	-1
0.57000	-0
0.57367	-0
0.57733	-0
0.58100	-0
0.58467	-0
0.58833	-0
0.59200	-1
0.59567	-1
0.59933	-1
0.60300	-1
0.60667	-1
0.61033	-2
0.61400	-2
0.61767	-2
0.62133	-2
0.62500	-3
0.62867	-3
0.63233	-4
0.63600	-4
0.63967	-5
0.64333	-5
0.64700	-5
0.65067	-5
0.65433	-5
0.65800	-5
0.66167	-4
0.66533	-4
0.66900	-4
0.67267	-3
0.67633	-3
0.68000	-3
0.68367	-3
0.68733	-2
0.69100	-2
0.69467	-2
0.69833	-2
0.70200	-3
0.70567	-3
0.70933	-3
0.71300	-3
0.71667	-3
0.72033	-2
0.72400	-2
0.72767	-2
0.73133	-2
0.73500	-2
0.73867	-2
0.74233	-2
0.74600	-2
0.74967	-1
0.75333	-1
0.75700	-1
0.76067	-1
0.76433	-0
0.76800	-0
0.77167	-0
0.77533	-0
0.77900	-0
0.78267	-0
0.78633	-0
0.79000	-0
0.79367	-0
0.79733	-0
0.80100	-0
0.80467	-0
0.80833	-1
0.81200	-1
0.81567	-1
0.81933	-2
0.82300	-2
0.82667	-2
0.83033	-2
0.83400	-3
0.83767	-3
0.84133	-3
0.84500	-3
0.84867	-2
0.85233	-3
0.85600	-3
0.85967	-3
0.86333	-3
0.86700	-3
0.87067	-3
0.87433	-3
0.87800	-3
0.88167	-3
0.88533	-3
0.88900	-2
0.89267	-2
0.89633	-2
0.90000	-3
0.90367	-3
0.90733	-2
0.91100	-2
0.91467	-2
0.91833	-2
0.92200	-2
0.92567	-2
0.92933	-2
0.93300	-2
0.93667	-2
0.94033	-2
0.94400	-2
0.94767	-2
0.95133	-2
0.95500	-3
0.95867	-3
0.96233	-4
0.96600	-4
0.96967	-5
0.97333	-5
0.97700	-6
0.98067	-6
0.98433	-7
0.98800	-7
0.99167	-7
0.99533	-7
0.99900	-7
1.00267	-7
1.00633	-6
1.01000	-6
1.01367	-6
1.01733	-6
1.02100	-6
1.02467	-6
1.02833	-6
1.03200	-6
1.03567	-5
1.03933	-5
1.04300	-5
1.04667	-4
1.05033	-4
1.05400	-3
1.05767	-3
1.06133	-3
1.06500	-3
1.06867	-3
1.07233	-3
1.07600	-3
1.07967	-3
1.08333	-3
1.08700	-4
1.09067	-4
1.09433	-3
1.09800	-3
1.10167	-3
1.10533	-3
1.10900	-4
1.11267	-4
1.11633	-4
1.12000	-4
1.12367	-4
1.12733	-4
1.13100	-3
1.13467	-3
1.13833	-3
1.14200	-3
1.14567	-3
1.14933	-3
1.15300	-3
1.15667	-3
1.16033	-2
1.16400	-2
1.16767	-2
1.17133	-2
1.17500	-2
1.17867	-2
1.18233	-2
1.18600	-2
1.18967	-2
1.19333	-2
1.19700	-2
1.20067	-2
1.20433	-2
1.20800	-2
1.21167	-2
1.21533	-2
1.21900	-2
1.22267	-2
1.22633	-2
1.23000	-3
1.23367	-3
1.23733	-4
1.24100	-4
1.24467	-5
1.24833	-5
1.25200	-6
1.25567	-6
1.25933	-6
1.26300	-6
1.26667	-6
1.27033	-6
1.27400	-6
1.27767	-5
1.28133	-5
1.28500	-5
1.28867	-5
1.29233	-5
1.29600	-5
1.29967	-5
1.30333	-5
1.30700	-5
1.31067	-5
1.31433	-5
1.31800	-5
1.32167	-5
1.32533	-5
1.32900	-5
1.33267	-5
1.33633	-4
1.34000	-4
1.34367	-4
1.34733	-4
1.35100	-4
1.35467	-4
1.35833	-4
1.36200	-4
1.36567	-4
1.36933	-4
1.37300	-5
1.37667	-5
1.38033	-5
1.38400	-5
1.38767	-5
1.39133	-4
1.39500	-4
1.39867	-4
1.40233	-3
1.40600	-3
1.40967	-3
1.41333	-2
1.41700	-2
1.42067	-2
1.42433	-2
1.42800	-3
1.43167	-3
1.43533	-3
1.43900	-3
1.44267	-3
1.44633	-4
1.45000	-4
1.45367	-4
1.45733	-4
1.46100	-3
1.46467	-3
1.46833	-3
1.47200	-3
1.47567	-3
1.47933	-3
1.48300	-3
1.48667	-4
1.49033	-4
1.49400	-4
1.49767	-4
1.50133	-5
1.50500	-5
1.50867	-6
1.51233	-6
1.51600	-7
1.51967	-8
1.52333	-8
1.52700	-8
1.53067	-8
1.53433	-8
1.53800	-8
1.54167	-8
1.54533	-8
1.54900	-8
1.55267	-8
1.55633	-8
1.56000	-7
1.56367	-7
1.56733	-8
1.57100	-8
1.57467	-8
1.57833	-8
1.58200	-8
1.58567	-8
1.58933	-7
1.59300	-7
1.59667	-7
1.60033	-7
1.60400	-8
1.60767	-9
1.61133	-10
1.61500	-12
1.61867	-14
1.62233	-16
1.62600	-18
1.62967	-21
1.63333	-24
1.63700	-28
1.64067	-31
1.64433	-34
1.64800	-37
1.65167	-41
1.65533	-44
1.65900	-48
1.66267	-51
1.66633	-56
1.67000	-60
1.67367	-65
1.67733	-71
1.68100	-77
1.68467	-82
1.68833	-88
1.69200	-93
1.69567	-97
1.69933	-101
1.70300	-104
1.70667	-107
1.71033	-109
1.71400	-111
1.71767	-112
1.72133	-113
1.72500	-113
1.72867	-114
1.73233	-114
1.73600	-114
1.73967	-114
1.74333	-114
1.74700	-114
1.75067	-114
1.75433	-114
1.75800	-115
1.76167	-115
1.76533	-115
1.76900	-116
1.77267	-116
1.77633	-116
1.78000	-116
1.78367	-116
1.78733	-117
1.79100	-118
1.79467	-119
1.79833	-120
1.80200	-122
1.80567	-122
1.80933	-122
1.81300	-122
1.81667	-121
1.82033	-120
1.82400	-119
1.82767	-117
1.83133	-116
1.83500	-115
1.83867	-114
1.84233	-114
1.84600	-114
1.84967	-114
1.85333	-115
1.85700	-115
1.86067	-116
1.86433	-116
1.86800	-117
1.87167	-118
1.87533	-118
1.87900	-119
1.88267	-119
1.88633	-120
1.89000	-120
1.89367	-120
1.89733	-120
1.90100	-120
1.90467	-120
1.90833	-119
1.91200	-119
1.91567	-119
1.91933	-119
1.92300	-119
1.92667	-119
1.93033	-118
1.93400	-118
1.93767	-118
1.94133	-117
1.94500	-117
1.94867	-117
1.95233	-118
1.95600	-118
1.95967	-118
1.96333	-117
1.96700	-117
1.97067	-117
1.97433	-117
1.97800	-116
1.98167	-116
1.98533	-116
1.98900	-115
1.99267	-115
1.99633	-115
2.00000	-115
2.00367	-114
2.00733	-114
2.01100	-113
2.01467	-113
2.01833	-113
2.02200	-113
2.02567	-113
2.02933	-113
2.03300	-113
2.03667	-112
2.04033	-111
2.04400	-110
2.04767	-109
2.05133	-109
2.05500	-108
2.05867	-107
2.06233	-107
2.06600	-107
2.06967	-106
2.07333	-105
2.07700	-105
2.08067	-105
2.08433	-105
2.08800	-106
2.09167	-106
2.09533	-106
2.09900	-106
2.10267	-105
2.10633	-105
2.11000	-105
2.11367	-105
2.11733	-105
2.12100	-104
2.12467	-104
2.12833	-103
2.13200	-103
2.13567	-103
2.13933	-103
2.14300	-103
2.14667	-103
2.15033	-103
2.15400	-103
2.15767	-102
2.16133	-101
2.16500	-100
2.16867	-99
2.17233	-98
2.17600	-98
2.17967	-97
2.18333	-97
2.18700	-96
2.19067	-96
2.19433	-96
2.19800	-97
2.20167	-97
2.20533	-97
2.20900	-97
2.21267	-97
2.21633	-96
2.22000	-95
2.22367	-94
2.22733	-94
2.23100	-93
2.23467	-93
2.23833	-92
2.24200	-92
2.24567	-91
2.24933	-92
2.25300	-92
2.25667	-93
2.26033	-94
2.26400	-94
2.26767	-94
2.27133	-94
2.27500	-93
2.27867	-92
2.28233	-92
2.28600	-91
2.28967	-90
2.29333	-89
2.29700	-88
2.30067	-87
2.30433	-87
2.30800	-87
2.31167	-87
2.31533	-86
2.31900	-86
2.32267	-86
2.32633	-86
2.33000	-85
2.33367	-85
2.33733	-86
2.34100	-86
2.34467	-86
2.34833	-86
2.35200	-84
2.35567	-83
2.35933	-81
2.36300	-79
2.36667	-78
2.37033	-76
2.37400	-73
2.37767	-71
2.38133	-67
2.38500	-64
2.38867	-60
2.39233	-55
2.39600	-51
2.39967	-47
2.40333	-43
2.40700	-39
2.41067	-35
2.41433	-32
2.41800	-29
2.42167	-27
2.42533	-25
2.42900	-23
2.43267	-22
2.43633	-20
2.44000	-18
2.44367	-17
2.44733	-15
2.45100	-13
2.45467	-11
2.45833	-8
2.46200	-6
2.46567	-4
2.46933	-3
2.47300	-2
2.47667	-1
2.48033	-1
2.48400	-1
2.48767	-0
2.49133	1
2.49500	2
2.49867	3
2.50233	5
2.50600	6
2.50967	7
2.51333	8
2.51700	9
2.52067	9
2.52433	9
2.52800	9
2.53167	9
2.53533	9
2.53900	10
2.54267	10
2.54633	11
2.55000	12
2.55367	12
2.55733	13
2.56100	13
2.56467	12
2.56833	12
2.57200	11
2.57567	11
2.57933	11
2.58300	11
2.58667	11
2.59033	11
2.59400	11
2.59767	11
2.60133	11
2.60500	10
2.60867	10
2.61233	9
2.61600	10
2.61967	10
2.62333	10
2.62700	11
2.63067	11
2.63433	12
2.63800	12
2.64167	13
2.64533	13
2.64900	14
2.65267	14
2.65633	14
2.66000	15
2.66367	15
2.66733	16
2.67100	16
2.67467	17
2.67833	17
2.68200	17
2.68567	18
2.68933	18
2.69300	18
2.69667	18
2.70033	18
2.70400	18
2.70767	18
2.71133	19
2.71500	19
2.71867	19
2.72233	19
2.72600	19
2.72967	19
2.73333	20
2.73700	20
2.74067	21
2.74433	21
2.74800	22
2.75167	22
2.75533	23
2.75900	23
2.76267	23
2.76633	23
2.77000	23
2.77367	23
2.77733	22
2.78100	22
2.78467	21
2.78833	20
2.79200	20
2.79567	20
2.79933	20
2.80300	20
2.80667	20
2.81033	20
2.81400	20
2.81767	21
2.82133	21
2.82500	21
2.82867	22
2.83233	22
2.83600	22
2.83967	20
2.84333	18
2.84700	13
2.85067	5
2.85433	-5
2.85800	-19
2.86167	-37
2.86533	-58
2.86900	-85
2.87267	-115
2.87633	-150
2.88000	-188
2.88367	-230
2.88733	-274
2.89100	-322
2.89467	-371
2.89833	-422
2.90200	-475
2.90567	-528
2.90933	-581
2.91300	-635
2.91667	-688
2.92033	-741
2.92400	-792
2.92767	-843
2.93133	-895
2.93500	-953
2.93867	-1013
2.94233	-1066
2.94600	-1102
2.94967	-1113
2.95333	-1098
2.95700	-1059
2.96067	-1002
2.96433	-931
2.96800	-853
2.97167	-772
2.97533	-691
2.97900	-613
2.98267	-540
2.98633	-473
2.99000	-412
2.99367	-357
2.99733	-308
3.00100	-265
3.00467	-227
3.00833	-194
3.01200	-166
3.01567	-141
3.01933	-120
3.02300	-102
3.02667	-86
3.03033	-72
3.03400	-61
3.03767	-51
3.04133	-42
3.04500	-35
3.04867	-29
3.05233	-24
3.05600	-20
3.05967	-16
3.06333	-12
3.06700	-9
3.07067	-7
3.07433	-4
3.07800	-2
3.08167	-0
3.08533	2
3.08900	3
3.09267	4
3.09633	5
3.10000	6
3.10367	6
3.10733	7
3.11100	8
3.11467	8
3.11833	9
3.12200	9
3.12567	10
3.12933	10
3.13300	10
3.13667	11
3.14033	11
3.14400	12
3.14767	13
3.15133	13
3.15500	14
3.15867	15
3.16233	15
3.16600	16
3.16967	17
3.17333	18
3.17700	18
3.18067	19
3.18433	19
3.18800	19
3.19167	20
3.19533	20
3.19900	20
3.20267	20
3.20633	20
3.21000	21
3.21367	21
3.21733	21
3.22100	21
3.22467	21
3.22833	21
3.23200	20
3.23567	20
3.23933	20
3.24300	20
3.24667	20
3.25033	20
3.25400	19
3.25767	19
3.26133	20
3.26500	20
3.26867	20
3.27233	20
3.27600	20
3.27967	21
3.28333	21
3.28700	21
3.29067	21
3.29433	21
3.29800	21
3.30167	21
3.30533	21
3.30900	21
3.31267	21
3.31633	22
3.32000	22
3.32367	22
3.32733	22
3.33100	22
3.33467	23
3.33833	23
3.34200	23
3.34567	23
3.34933	23
3.35300	23
3.35667	23
3.36033	23
3.36400	23
3.36767	24
3.37133	24
3.37500	24
3.37867	24
3.38233	24
3.38600	24
3.38967	24
3.39333	24
3.39700	23
3.40067	23
3.40433	23
3.40800	23
3.41167	22
3.41533	22
3.41900	22
3.42267	22
3.42633	22
3.43000	22
3.43367	22
3.43733	22
3.44100	22
3.44467	22
3.44833	22
3.45200	22
3.45567	22
3.45933	23
3.46300	23
3.46667	23
3.47033	23
3.47400	23
3.47767	23
3.48133	23
3.48500	23
3.48867	23
3.49233	23
3.49600	23
3.49967	23
3.50333	22
3.50700	22
3.51067	21
3.51433	21
3.51800	21
3.52167	20
3.52533	20
3.52900	20
3.53267	20
3.53633	20
3.54000	20
3.54367	20
3.54733	20
3.55100	20
3.55467	21
3.55833	21
3.56200	21
3.56567	21
3.56933	20
3.57300	20
3.57667	20
3.58033	20
3.58400	20
3.58767	21
3.59133	21
3.59500	21
3.59867	21
3.60233	22
3.60600	22
3.60967	22
3.61333	22
3.61700	22
3.62067	22
3.62433	22
3.62800	22
3.63167	22
3.63533	22
3.63900	22
3.64267	22
3.64633	22
3.65000	22
3.65367	22
3.65733	22
3.66100	22
3.66467	23
3.66833	23
3.67200	23
3.67567	23
3.67933	23
3.68300	23
3.68667	23
3.69033	23
3.69400	23
3.69767	22
3.70133	22
3.70500	22
3.70867	22
3.71233	22
3.71600	22
3.71967	22
3.72333	22
3.72700	21
3.73067	21
3.73433	21
3.73800	21
3.74167	21
3.74533	21
3.74900	21
3.75267	21
3.75633	21
3.76000	21
3.76367	22
3.76733	22
3.77100	22
3.77467	22
3.77833	22
3.78200	22
3.78567	22
3.78933	22
3.79300	22
3.79667	22
3.80033	22
3.80400	22
3.80767	22
3.81133	22
3.81500	22
3.81867	23
3.82233	23
3.82600	23
3.82967	23
3.83333	23
3.83700	23
3.84067	23
3.84433	23
3.84800	24
3.85167	24
3.85533	24
3.85900	24
3.86267	24
3.86633	24
3.87000	24
3.87367	24
3.87733	23
3.88100	23
3.88467	23
3.88833	23
3.89200	23
3.89567	23
3.89933	23
3.90300	23
3.90667	23
3.91033	22
3.91400	22
3.91767	22
3.92133	21
3.92500	21
3.92867	21
3.93233	21
3.93600	20
3.93967	20
3.94333	20
3.94700	20
3.95067	19
3.95433	19
3.95800	20
3.96167	20
3.96533	20
3.96900	20
3.97267	21
3.97633	21
3.98000	21
3.98367	21
3.98733	22
3.99100	22
3.99467	22
3.99833	23

[Chromatogram (Ch3)]
Interval(msec)	220
# of Points	1091
Start Time(min)	0.002
End Time(min)	3.998
R.Time (min)	Intensity
0.00167	0
0.00533	1
0.00900	2
0.01267	3
0.01633	4
0.02000	2
0.02367	1
0.02733	1
0.03100	-0
0.03467	-1
0.03833	0
0.04200	3
0.04567	5
0.04933	5
0.05300	2
0.05667	-0
0.06033	-2
0.06400	-3
0.06767	-1
0.07133	-1
0.07500	-2
0.07867	-2
0.08233	-1
0.08600	-3
0.08967	-2
0.09333	1
0.09700	3
0.10067	5
0.10433	5
0.10800	4
0.11167	1
0.11533	0
0.11900	2
0.12267	1
0.12633	2
0.13000	3
0.13367	3
0.13733	3
0.14100	3
0.14467	2
0.14833	1
0.15200	1
0.15567	1
0.15933	-1
0.16300	-2
0.16667	1
0.17033	3
0.17400	2
0.17767	1
0.18133	1
0.18500	-1
0.18867	0
0.19233	3
0.19600	3
0.19967	2
0.20333	3
0.20700	4
0.21067	3
0.21433	2
0.21800	-0
0.22167	-0
0.22533	2
0.22900	4
0.23267	5
0.23633	4
0.24000	3
0.24367	3
0.24733	3
0.25100	5
0.25467	7
0.25833	8
0.26200	9
0.26567	7
0.26933	5
0.27300	3
0.27667	2
0.28033	3
0.28400	3
0.28767	3
0.29133	4
0.29500	4
0.29867	3
0.30233	2
0.30600	4
0.30967	8
0.31333	10
0.31700	9
0.32067	5
0.32433	3
0.32800	-0
0.33167	-0
0.33533	2
0.33900	5
0.34267	8
0.34633	10
0.35000	12
0.35367	14
0.35733	13
0.36100	11
0.36467	9
0.36833	7
0.37200	7
0.37567	7
0.37933	8
0.38300	8
0.38667	7
0.39033	8
0.39400	10
0.39767	10
0.40133	9
0.40500	9
0.40867	8
0.41233	7
0.41600	9
0.41967	12
0.42333	13
0.42700	16
0.43067	16
0.43433	15
0.43800	13
0.44167	14
0.44533	15
0.44900	13
0.45267	11
0.45633	11
0.46000	12
0.46367	13
0.46733	13
0.47100	12
0.47467	10
0.47833	8
0.48200	9
0.48567	8
0.48933	10
0.49300	12
0.49667	13
0.50033	14
0.50400	12
0.50767	13
0.51133	15
0.51500	16
0.51867	14
0.52233	14
0.52600	15
0.52967	17
0.53333	20
0.53700	22
0.54067	21
0.54433	21
0.54800	21
0.55167	20
0.55533	20
0.55900	19
0.56267	20
0.56633	21
0.57000	21
0.57367	22
0.57733	22
0.58100	21
0.58467	20
0.58833	21
0.59200	21
0.59567	24
0.59933	24
0.60300	23
0.60667	20
0.61033	20
0.61400	19
0.61767	15
0.62133	13
0.62500	15
0.62867	16
0.63233	15
0.63600	14
0.63967	14
0.64333	15
0.64700	15
0.65067	15
0.65433	14
0.65800	12
0.66167	12
0.66533	14
0.66900	15
0.67267	15
0.67633	15
0.68000	17
0.68367	20
0.68733	21
0.69100	21
0.69467	24
0.69833	25
0.70200	27
0.70567	27
0.70933	25
0.71300	21
0.71667	19
0.72033	19
0.72400	20
0.72767	19
0.73133	17
0.73500	16
0.73867	18
0.74233	19
0.74600	21
0.74967	22
0.75333	22
0.75700	21
0.76067	21
0.76433	21
0.76800	23
0.77167	23
0.77533	23
0.77900	20
0.78267	17
0.78633	14
0.79000	12
0.79367	14
0.79733	16
0.80100	16
0.80467	13
0.80833	11
0.81200	11
0.81567	14
0.81933	15
0.82300	13
0.82667	11
0.83033	10
0.83400	10
0.83767	10
0.84133	12
0.84500	13
0.84867	12
0.85233	10
0.85600	8
0.85967	9
0.86333	12
0.86700	14
0.87067	15
0.87433	16
0.87800	14
0.88167	12
0.88533	12
0.88900	14
0.89267	15
0.89633	15
0.90000	15
0.90367	15
0.90733	17
0.91100	17
0.91467	16
0.91833	15
0.92200	14
0.92567	12
0.92933	13
0.93300	15
0.93667	15
0.94033	15
0.94400	18
0.94767	19
0.95133	18
0.95500	15
0.95867	15
0.96233	16
0.96600	20
0.96967	19
0.97333	17
0.97700	16
0.98067	18
0.98433	22
0.98800	25
0.99167	24
0.99533	22
0.99900	21
1.00267	21
1.00633	22
1.01000	23
1.01367	25
1.01733	23
1.02100	20
1.02467	20
1.02833	20
1.03200	19
1.03567	18
1.03933	18
1.04300	17
1.04667	18
1.05033	21
1.05400	23
1.05767	24
1.06133	23
1.06500	22
1.06867	22
1.07233	22
1.07600	22
1.07967	22
1.08333	22
1.08700	23
1.09067	23
1.09433	22
1.09800	21
1.10167	23
1.10533	23
1.10900	22
1.11267	22
1.11633	24
1.12000	25
1.12367	24
1.12733	27
1.13100	29
1.13467	28
1.13833	29
1.14200	28
1.14567	28
1.14933	26
1.15300	25
1.15667	22
1.16033	19
1.16400	20
1.16767	22
1.17133	21
1.17500	23
1.17867	24
1.18233	23
1.18600	23
1.18967	25
1.19333	26
1.19700	27
1.20067	27
1.20433	28
1.20800	30
1.21167	29
1.21533	27
1.21900	26
1.22267	25
1.22633	24
1.23000	23
1.23367	26
1.23733	27
1.24100	28
1.24467	28
1.24833	26
1.25200	28
1.25567	27
1.25933	26
1.26300	23
1.26667	21
1.27033	20
1.27400	19
1.27767	19
1.28133	20
1.28500	20
1.28867	21
1.29233	22
1.29600	24
1.29967	25
1.30333	25
1.30700	24
1.31067	24
1.31433	24
1.31800	25
1.32167	26
1.32533	26
1.32900	26
1.33267	27
1.33633	27
1.34000	25
1.34367	24
1.34733	26
1.35100	25
1.35467	25
1.35833	26
1.36200	25
1.36567	26
1.36933	26
1.37300	26
1.37667	29
1.38033	29
1.38400	28
1.38767	30
1.39133	30
1.39500	28
1.39867	24
1.40233	23
1.40600	23
1.40967	24
1.41333	26
1.41700	26
1.42067	26
1.42433	25
1.42800	24
1.43167	24
1.43533	25
1.43900	24
1.44267	24
1.44633	23
1.45000	23
1.45367	24
1.45733	24
1.46100	22
1.46467	22
1.46833	23
1.47200	24
1.47567	24
1.47933	22
1.48300	21
1.48667	24
1.49033	26
1.49400	27
1.49767	28
1.50133	28
1.50500	29
1.50867	28
1.51233	28
1.51600	27
1.51967	26
1.52333	27
1.52700	27
1.53067	28
1.53433	29
1.53800	31
1.54167	34
1.54533	35
1.54900	35
1.55267	33
1.55633	30
1.56000	28
1.56367	29
1.56733	30
1.57100	31
1.57467	32
1.57833	32
1.58200	31
1.58567	28
1.58933	26
1.59300	27
1.59667	29
1.60033	31
1.60400	33
1.60767	33
1.61133	32
1.61500	31
1.61867	31
1.62233	31
1.62600	32
1.62967	33
1.63333	32
1.63700	31
1.64067	31
1.64433	31
1.64800	30
1.65167	29
1.65533	29
1.65900	33
1.66267	35
1.66633	38
1.67000	40
1.67367	41
1.67733	43
1.68100	44
1.68467	43
1.68833	42
1.69200	41
1.69567	41
1.69933	40
1.70300	39
1.70667	39
1.71033	40
1.71400	40
1.71767	39
1.72133	39
1.72500	39
1.72867	40
1.73233	40
1.73600	39
1.73967	38
1.74333	38
1.74700	39
1.75067	40
1.75433	40
1.75800	40
1.76167	39
1.76533	38
1.76900	37
1.77267	37
1.77633	38
1.78000	39
1.78367	40
1.78733	42
1.79100	43
1.79467	43
1.79833	46
1.80200	47
1.80567	46
1.80933	44
1.81300	44
1.81667	46
1.82033	47
1.82400	46
1.82767	44
1.83133	43
1.83500	42
1.83867	42
1.84233	42
1.84600	42
1.84967	43
1.85333	44
1.85700	46
1.86067	48
1.86433	51
1.86800	51
1.87167	50
1.87533	50
1.87900	50
1.88267	51
1.88633	53
1.89000	55
1.89367	56
1.89733	57
1.90100	57
1.90467	58
1.90833	60
1.91200	63
1.91567	63
1.91933	64
1.92300	65
1.92667	65
1.93033	62
1.93400	58
1.93767	58
1.94133	59
1.94500	59
1.94867	59
1.95233	59
1.95600	59
1.95967	61
1.96333	62
1.96700	63
1.97067	63
1.97433	63
1.97800	65
1.98167	67
1.98533	68
1.98900	72
1.99267	74
1.99633	74
2.00000	75
2.00367	74
2.00733	72
2.01100	73
2.01467	75
2.01833	76
2.02200	76
2.02567	77
2.02933	79
2.03300	81
2.03667	83
2.04033	85
2.04400	87
2.04767	87
2.05133	86
2.05500	84
2.05867	82
2.06233	83
2.06600	85
2.06967	86
2.07333	88
2.07700	89
2.08067	89
2.08433	91
2.08800	92
2.09167	92
2.09533	92
2.09900	93
2.10267	95
2.10633	97
2.11000	100
2.11367	102
2.11733	102
2.12100	102
2.12467	103
2.12833	106
2.13200	107
2.13567	108
2.13933	107
2.14300	106
2.14667	104
2.15033	102
2.15400	105
2.15767	109
2.16133	111
2.16500	111
2.16867	111
2.17233	113
2.17600	114
2.17967	116
2.18333	119
2.18700	120
2.19067	122
2.19433	123
2.19800	124
2.20167	126
2.20533	126
2.20900	124
2.21267	125
2.21633	127
2.22000	128
2.22367	130
2.22733	129
2.23100	128
2.23467	130
2.23833	134
2.24200	137
2.24567	137
2.24933	138
2.25300	139
2.25667	140
2.26033	141
2.26400	140
2.26767	139
2.27133	140
2.27500	141
2.27867	143
2.28233	143
2.28600	143
2.28967	145
2.29333	146
2.29700	148
2.30067	150
2.30433	153
2.30800	155
2.31167	156
2.31533	157
2.31900	159
2.32267	161
2.32633	163
2.33000	163
2.33367	164
2.33733	165
2.34100	168
2.34467	171
2.34833	172
2.35200	174
2.35567	176
2.35933	178
2.36300	178
2.36667	178
2.37033	177
2.37400	179
2.37767	180
2.38133	181
2.38500	180
2.38867	180
2.39233	182
2.39600	182
2.39967	184
2.40333	188
2.40700	190
2.41067	192
2.41433	194
2.41800	194
2.42167	198
2.42533	204
2.42900	206
2.43267	204
2.43633	201
2.44000	202
2.44367	223
2.44733	280
2.45100	343
2.45467	392
2.45833	426
2.46200	436
2.46567	427
2.46933	411
2.47300	396
2.47667	385
2.48033	376
2.48400	370
2.48767	367
2.49133	359
2.49500	345
2.49867	330
2.50233	318
2.50600	310
2.50967	302
2.51333	294
2.51700	290
2.52067	288
2.52433	288
2.52800	289
2.53167	290
2.53533	294
2.53900	299
2.54267	304
2.54633	306
2.55000	305
2.55367	304
2.55733	305
2.56100	301
2.56467	295
2.56833	289
2.57200	284
2.57567	280
2.57933	277
2.58300	272
2.58667	269
2.59033	265
2.59400	263
2.59767	258
2.60133	251
2.60500	241
2.60867	226
2.61233	209
2.61600	190
2.61967	169
2.62333	149
2.62700	134
2.63067	121
2.63433	109
2.63800	101
2.64167	97
2.64533	97
2.64900	100
2.65267	105
2.65633	111
2.66000	117
2.66367	124
2.66733	134
2.67100	144
2.67467	153
2.67833	161
2.68200	169
2.68567	176
2.68933	183
2.69300	192
2.69667	197
2.70033	200
2.70400	204
2.70767	207
2.71133	209
2.71500	213
2.71867	215
2.72233	215
2.72600	214
2.72967	213
2.73333	216
2.73700	219
2.74067	219
2.74433	219
2.74800	218
2.75167	220
2.75533	222
2.75900	222
2.76267	222
2.76633	224
2.77000	224
2.77367	225
2.77733	226
2.78100	230
2.78467	231
2.78833	231
2.79200	230
2.79567	230
2.79933	228
2.80300	229
2.80667	231
2.81033	231
2.81400	233
2.81767	239
2.82133	254
2.82500	288
2.82867	359
2.83233	489
2.83600	697
2.83967	997
2.84333	1402
2.84700	1897
2.85067	2460
2.85433	3053
2.85800	3625
2.86167	4127
2.86533	4525
2.86900	4789
2.87267	4908
2.87633	4891
2.88000	4753
2.88367	4521
2.88733	4227
2.89100	3897
2.89467	3549
2.89833	3202
2.90200	2867
2.90567	2555
2.90933	2274
2.91300	2017
2.91667	1784
2.92033	1578
2.92400	1396
2.92767	1235
2.93133	1095
2.93500	976
2.93867	872
2.94233	783
2.94600	705
2.94967	637
2.95333	580
2.95700	532
2.96067	488
2.96433	450
2.96800	418
2.97167	390
2.97533	365
2.97900	346
2.98267	331
2.98633	317
2.99000	305
2.99367	294
2.99733	285
3.00100	279
3.00467	274
3.00833	268
3.01200	263
3.01567	261
3.01933	257
3.02300	252
3.02667	247
3.03033	243
3.03400	239
3.03767	236
3.04133	234
3.04500	232
3.04867	231
3.05233	231
3.05600	230
3.05967	228
3.06333	225
3.06700	222
3.07067	219
3.07433	220
3.07800	220
3.08167	219
3.08533	219
3.08900	218
3.09267	217
3.09633	216
3.10000	217
3.10367	216
3.10733	217
3.11100	217
3.11467	214
3.11833	212
3.12200	213
3.12567	214
3.12933	213
3.13300	212
3.13667	213
3.14033	211
3.14400	210
3.14767	210
3.15133	208
3.15500	207
3.15867	206
3.16233	207
3.16600	207
3.16967	208
3.17333	208
3.17700	209
3.18067	211
3.18433	212
3.18800	211
3.19167	210
3.19533	209
3.19900	210
3.20267	209
3.20633	202
3.21000	190
3.21367	188
3.21733	199
3.22100	222
3.22467	252
3.22833	283
3.23200	313
3.23567	341
3.23933	371
3.24300	405
3.24667	438
3.25033	473
3.25400	508
3.25767	541
3.26133	572
3.26500	602
3.26867	631
3.27233	654
3.27600	673
3.27967	691
3.28333	705
3.28700	718
3.29067	730
3.29433	740
3.29800	749
3.30167	756
3.30533	760
3.30900	763
3.31267	764
3.31633	767
3.32000	769
3.32367	771
3.32733	771
3.33100	770
3.33467	769
3.33833	769
3.34200	769
3.34567	768
3.34933	770
3.35300	771
3.35667	772
3.36033	771
3.36400	769
3.36767	767
3.37133	767
3.37500	768
3.37867	769
3.38233	771
3.38600	770
3.38967	767
3.39333	765
3.39700	764
3.40067	766
3.40433	768
3.40800	771
3.41167	771
3.41533	772
3.41900	770
3.42267	770
3.42633	769
3.43000	768
3.43367	766
3.43733	762
3.44100	758
3.44467	757
3.44833	755
3.45200	753
3.45567	749
3.45933	746
3.46300	744
3.46667	742
3.47033	738
3.47400	732
3.47767	725
3.48133	720
3.48500	717
3.48867	713
3.49233	710
3.49600	705
3.49967	702
3.50333	701
3.50700	700
3.51067	698
3.51433	693
3.51800	688
3.52167	683
3.52533	680
3.52900	677
3.53267	675
3.53633	676
3.54000	675
3.54367	673
3.54733	672
3.55100	668
3.55467	666
3.55833	667
3.56200	667
3.56567	667
3.56933	666
3.57300	663
3.57667	660
3.58033	658
3.58400	655
3.58767	651
3.59133	648
3.59500	646
3.59867	643
3.60233	638
3.60600	633
3.60967	630
3.61333	626
3.61700	623
3.62067	621
3.62433	619
3.62800	616
3.63167	614
3.63533	614
3.63900	613
3.64267	612
3.64633	608
3.65000	606
3.65367	604
3.65733	601
3.66100	600
3.66467	598
3.66833	596
3.67200	595
3.67567	592
3.67933	590
3.68300	586
3.68667	582
3.69033	580
3.69400	582
3.69767	582
3.70133	580
3.70500	578
3.70867	576
3.71233	574
3.71600	573
3.71967	571
3.72333	568
3.72700	566
3.73067	565
3.73433	566
3.73800	565
3.74167	566
3.74533	564
3.74900	560
3.75267	558
3.75633	555
3.76000	551
3.76367	549
3.76733	551
3.77100	551
3.77467	549
3.77833	547
3.78200	548
3.78567	548
3.78933	547
3.79300	546
3.79667	542
3.80033	540
3.80400	539
3.80767	538
3.81133	536
3.81500	536
3.81867	532
3.82233	529
3.82600	527
3.82967	526
3.83333	527
3.83700	527
3.84067	527
3.84433	525
3.84800	521
3.85167	519
3.85533	518
3.85900	517
3.86267	518
3.86633	516
3.87000	516
3.87367	515
3.87733	516
3.88100	517
3.88467	517
3.88833	518
3.89200	518
3.89567	517
3.89933	515
3.90300	514
3.90667	515
3.91033	516
3.91400	514
3.91767	513
3.92133	513
3.92500	514
3.92867	512
3.93233	509
3.93600	507
3.93967	505
3.94333	504
3.94700	504
3.95067	506
3.95433	507
3.95800	506
3.96167	504
3.96533	501
3.96900	499
3.97267	499
3.97633	498
3.98000	498
3.98367	498
3.98733	497
3.99100	493
3.99467	489
3.99833	484

[Status Trace (Column Oven Temperature)]
Interval(msec)	1000
# of Points	240
Start Time(min)	0.009
End Time(min)	3.992
Intensity Units	
Intensity Multiplier	1
R.Time (min)	Intensity
0.00878	35.06
0.02545	35.04
0.04212	35.04
0.05878	35.03
0.07545	35.03
0.09212	35.03
0.10878	35.02
0.12545	35.01
0.14212	35.01
0.15878	35.01
0.17545	35.02
0.19212	35.01
0.20878	35.01
0.22545	35.01
0.24212	35.01
0.25878	35.02
0.27545	35.02
0.29212	35.01
0.30878	35.03
0.32545	35.03
0.34212	35.02
0.35878	35.03
0.37545	35.04
0.39212	35.03
0.40878	35.02
0.42545	35.02
0.44212	35.00
0.45878	35.00
0.47545	35.00
0.49212	35.00
0.50878	35.02
0.52545	35.02
0.54212	35.01
0.55878	35.01
0.57545	35.00
0.59212	35.00
0.60878	35.00
0.62545	35.02
0.64212	35.02
0.65878	35.01
0.67545	35.01
0.69212	35.00
0.70878	35.00
0.72545	35.00
0.74212	35.00
0.75878	34.99
0.77545	34.98
0.79212	34.97
0.80878	34.97
0.82545	34.97
0.84212	34.98
0.85878	34.98
0.87545	34.99
0.89212	34.98
0.90878	34.97
0.92545	34.96
0.94212	34.96
0.95878	34.97
0.97545	34.99
0.99212	35.00
1.00878	35.00
1.02545	35.01
1.04212	35.00
1.05878	34.98
1.07545	34.99
1.09212	34.99
1.10878	34.99
1.12545	34.98
1.14212	34.97
1.15878	34.97
1.17545	34.96
1.19212	34.96
1.20878	34.96
1.22545	34.96
1.24212	34.97
1.25878	34.99
1.27545	34.98
1.29212	34.99
1.30878	34.99
1.32545	34.99
1.34212	35.00
1.35878	34.99
1.37545	34.99
1.39212	34.98
1.40878	34.97
1.42545	34.97
1.44212	34.96
1.45878	34.96
1.47545	34.96
1.49212	34.96
1.50878	34.98
1.52545	35.01
1.54212	35.02
1.55878	35.03
1.57545	35.04
1.59212	35.04
1.60878	35.08
1.62545	35.19
1.64212	35.37
1.65878	35.61
1.67545	35.94
1.69212	36.33
1.70878	36.69
1.72545	37.03
1.74212	37.36
1.75878	37.70
1.77545	38.02
1.79212	38.38
1.80878	38.70
1.82545	38.99
1.84212	39.30
1.85878	39.63
1.87545	39.96
1.89212	40.29
1.90878	40.62
1.92545	40.95
1.94212	41.29
1.95878	41.61
1.97545	41.95
1.99212	42.27
2.00878	42.60
2.02545	42.93
2.04212	43.24
2.05878	43.58
2.07545	43.89
2.09212	44.22
2.10878	44.55
2.12545	44.89
2.14212	45.21
2.15878	45.54
2.17545	45.86
2.19212	46.20
2.20878	46.52
2.22545	46.84
2.24212	47.17
2.25878	47.54
2.27545	47.88
2.29212	48.17
2.30878	48.50
2.32545	48.84
2.34212	49.18
2.35878	49.44
2.37545	49.64
2.39212	49.68
2.40878	49.66
2.42545	49.67
2.44212	49.68
2.45878	49.67
2.47545	49.69
2.49212	49.71
2.50878	49.70
2.52545	49.74
2.54212	49.74
2.55878	49.76
2.57545	49.78
2.59212	49.81
2.60878	49.84
2.62545	49.85
2.64212	49.85
2.65878	49.86
2.67545	49.84
2.69212	49.85
2.70878	49.87
2.72545	49.86
2.74212	49.86
2.75878	49.85
2.77545	49.87
2.79212	49.90
2.80878	49.92
2.82545	49.91
2.84212	49.91
2.85878	49.92
2.87545	49.92
2.89212	49.93
2.90878	49.94
2.92545	49.94
2.94212	49.95
2.95878	49.96
2.97545	49.96
2.99212	49.99
3.00878	50.01
3.02545	50.03
3.04212	50.04
3.05878	50.07
3.07545	50.08
3.09212	50.09
3.10878	50.11
3.12545	50.11
3.14212	50.11
3.15878	50.10
3.17545	50.09
3.19212	50.08
3.20878	50.07
3.22545	50.06
3.24212	50.06
3.25878	50.06
3.27545	50.06
3.29212	50.06
3.30878	50.05
3.32545	50.04
3.34212	50.04
3.35878	50.04
3.37545	50.03
3.39212	50.02
3.40878	50.03
3.42545	50.03
3.44212	50.03
3.45878	50.02
3.47545	50.02
3.49212	50.03
3.50878	50.04
3.52545	50.05
3.54212	50.05
3.55878	50.06
3.57545	50.07
3.59212	50.07
3.60878	50.08
3.62545	50.07
3.64212	50.07
3.65878	50.07
3.67545	50.06
3.69212	50.06
3.70878	50.05
3.72545	50.07
3.74212	50.08
3.75878	50.08
3.77545	50.08
3.79212	50.08
3.80878	50.08
3.82545	50.07
3.84212	50.06
3.85878	50.04
3.87545	50.04
3.89212	50.04
3.90878	50.04
3.92545	50.05
3.94212	50.07
3.95878	50.08
3.97545	50.07
3.99212	50.06

[Status Trace (Injection Unit Temperature)]
Interval(msec)	1000
# of Points	240
Start Time(min)	0.009
End Time(min)	3.992
Intensity Units	
Intensity Multiplier	1
R.Time (min)	Intensity
0.00878	99.98
0.02545	99.97
0.04212	99.98
0.05878	99.98
0.07545	99.98
0.09212	99.98
0.10878	99.98
0.12545	99.99
0.14212	99.98
0.15878	99.98
0.17545	99.99
0.19212	99.98
0.20878	99.98
0.22545	99.98
0.24212	99.99
0.25878	99.98
0.27545	99.99
0.29212	99.98
0.30878	99.98
0.32545	99.98
0.34212	99.99
0.35878	99.99
0.37545	99.97
0.39212	99.98
0.40878	99.98
0.42545	99.98
0.44212	99.99
0.45878	99.99
0.47545	99.98
0.49212	99.98
0.50878	99.98
0.52545	99.98
0.54212	99.99
0.55878	99.98
0.57545	99.98
0.59212	99.98
0.60878	99.98
0.62545	99.98
0.64212	99.98
0.65878	99.98
0.67545	99.98
0.69212	99.98
0.70878	99.98
0.72545	99.98
0.74212	99.98
0.75878	99.98
0.77545	99.98
0.79212	99.98
0.80878	99.98
0.82545	99.98
0.84212	99.98
0.85878	99.98
0.87545	99.98
0.89212	99.98
0.90878	99.97
0.92545	99.98
0.94212	99.98
0.95878	99.98
0.97545	99.98
0.99212	99.97
1.00878	99.97
1.02545	99.98
1.04212	99.98
1.05878	99.97
1.07545	99.98
1.09212	99.98
1.10878	99.98
1.12545	99.97
1.14212	99.97
1.15878	99.98
1.17545	99.98
1.19212	99.97
1.20878	99.98
1.22545	99.98
1.24212	99.98
1.25878	99.98
1.27545	99.98
1.29212	99.98
1.30878	99.98
1.32545	99.98
1.34212	99.98
1.35878	99.98
1.37545	99.98
1.39212	99.98
1.40878	99.98
1.42545	99.98
1.44212	99.99
1.45878	99.99
1.47545	99.99
1.49212	99.99
1.50878	99.98
1.52545	99.99
1.54212	99.98
1.55878	99.98
1.57545	99.98
1.59212	99.98
1.60878	99.99
1.62545	99.99
1.64212	99.97
1.65878	99.99
1.67545	99.99
1.69212	99.99
1.70878	99.98
1.72545	99.99
1.74212	99.99
1.75878	99.99
1.77545	99.98
1.79212	99.99
1.80878	99.98
1.82545	99.98
1.84212	99.98
1.85878	99.98
1.87545	99.98
1.89212	99.98
1.90878	99.98
1.92545	99.98
1.94212	99.98
1.95878	99.98
1.97545	99.98
1.99212	99.98
2.00878	99.97
2.02545	99.97
2.04212	99.97
2.05878	99.97
2.07545	99.97
2.09212	99.96
2.10878	99.97
2.12545	99.97
2.14212	99.97
2.15878	99.97
2.17545	99.97
2.19212	99.96
2.20878	99.97
2.22545	99.96
2.24212	99.97
2.25878	99.96
2.27545	99.97
2.29212	99.97
2.30878	99.97
2.32545	99.96
2.34212	99.96
2.35878	99.97
2.37545	99.97
2.39212	99.96
2.40878	99.97
2.42545	99.96
2.44212	99.97
2.45878	99.96
2.47545	99.97
2.49212	99.97
2.50878	99.96
2.52545	99.97
2.54212	99.97
2.55878	99.97
2.57545	99.97
2.59212	99.97
2.60878	99.97
2.62545	99.97
2.64212	99.97
2.65878	99.97
2.67545	99.97
2.69212	99.98
2.70878	99.98
2.72545	99.98
2.74212	99.98
2.75878	99.99
2.77545	99.98
2.79212	99.99
2.80878	99.99
2.82545	99.99
2.84212	99.99
2.85878	99.99
2.87545	100.00
2.89212	100.00
2.90878	100.00
2.92545	100.00
2.94212	100.00
2.95878	100.00
2.97545	100.01
2.99212	100.01
3.00878	100.01
3.02545	100.01
3.04212	100.01
3.05878	100.01
3.07545	100.02
3.09212	100.01
3.10878	100.01
3.12545	100.01
3.14212	100.02
3.15878	100.02
3.17545	100.02
3.19212	100.02
3.20878	100.01
3.22545	100.02
3.24212	100.02
3.25878	100.02
3.27545	100.03
3.29212	100.02
3.30878	100.02
3.32545	100.02
3.34212	100.03
3.35878	100.03
3.37545	100.03
3.39212	100.03
3.40878	100.03
3.42545	100.03
3.44212	100.03
3.45878	100.04
3.47545	100.03
3.49212	100.03
3.50878	100.03
3.52545	100.04
3.54212	100.04
3.55878	100.04
3.57545	100.04
3.59212	100.04
3.60878	100.04
3.62545	100.04
3.64212	100.04
3.65878	100.04
3.67545	100.04
3.69212	100.05
3.70878	100.05
3.72545	100.04
3.74212	100.05
3.75878	100.05
3.77545	100.05
3.79212	100.05
3.80878	100.05
3.82545	100.05
3.84212	100.05
3.85878	100.03
3.87545	100.05
3.89212	100.05
3.90878	100.05
3.92545	100.05
3.94212	100.04
3.95878	100.05
3.97545	100.04
3.99212	100.05

[Status Trace (Carrier Gas Pressure)]
Interval(msec)	1000
# of Points	240
Start Time(min)	0.009
End Time(min)	3.992
Intensity Units	
Intensity Multiplier	1
R.Time (min)	Intensity
0.00878	58.00
0.02545	55.27
0.04212	57.29
0.05878	59.32
0.07545	59.31
0.09212	58.04
0.10878	57.98
0.12545	58.01
0.14212	58.01
0.15878	58.01
0.17545	58.00
0.19212	58.00
0.20878	58.00
0.22545	58.00
0.24212	58.00
0.25878	58.00
0.27545	58.00
0.29212	58.00
0.30878	58.00
0.32545	58.00
0.34212	58.00
0.35878	58.00
0.37545	58.00
0.39212	58.00
0.40878	58.00
0.42545	58.00
0.44212	58.00
0.45878	58.00
0.47545	58.00
0.49212	58.00
0.50878	58.00
0.52545	58.00
0.54212	58.00
0.55878	58.00
0.57545	58.00
0.59212	58.00
0.60878	58.00
0.62545	58.00
0.64212	58.00
0.65878	58.00
0.67545	58.00
0.69212	58.00
0.70878	58.00
0.72545	58.00
0.74212	58.00
0.75878	58.00
0.77545	58.00
0.79212	58.00
0.80878	58.00
0.82545	58.00
0.84212	58.00
0.85878	58.00
0.87545	58.00
0.89212	58.00
0.90878	58.00
0.92545	58.00
0.94212	58.00
0.95878	58.00
0.97545	58.00
0.99212	58.00
1.00878	58.00
1.02545	58.00
1.04212	58.00
1.05878	58.00
1.07545	58.00
1.09212	58.00
1.10878	58.00
1.12545	58.00
1.14212	58.00
1.15878	58.00
1.17545	58.00
1.19212	58.00
1.20878	58.00
1.22545	58.00
1.24212	58.00
1.25878	58.00
1.27545	58.00
1.29212	58.00
1.30878	58.00
1.32545	58.00
1.34212	58.00
1.35878	58.00
1.37545	58.00
1.39212	58.00
1.40878	58.00
1.42545	58.00
1.44212	58.00
1.45878	58.00
1.47545	58.00
1.49212	58.00
1.50878	58.00
1.52545	58.00
1.54212	58.00
1.55878	58.00
1.57545	58.00
1.59212	58.00
1.60878	58.00
1.62545	58.00
1.64212	58.00
1.65878	58.00
1.67545	58.01
1.69212	58.00
1.70878	58.00
1.72545	58.00
1.74212	58.00
1.75878	58.00
1.77545	58.00
1.79212	58.00
1.80878	58.00
1.82545	58.00
1.84212	58.00
1.85878	58.00
1.87545	58.00
1.89212	58.00
1.90878	58.00
1.92545	58.00
1.94212	58.00
1.95878	58.00
1.97545	58.00
1.99212	58.00
2.00878	58.00
2.02545	58.00
2.04212	58.00
2.05878	58.00
2.07545	58.00
2.09212	58.00
2.10878	58.00
2.12545	58.00
2.14212	58.00
2.15878	58.00
2.17545	58.00
2.19212	58.00
2.20878	58.00
2.22545	58.00
2.24212	58.00
2.25878	58.00
2.27545	58.00
2.29212	58.00
2.30878	58.00
2.32545	58.00
2.34212	58.00
2.35878	58.00
2.37545	58.00
2.39212	57.99
2.40878	57.99
2.42545	58.00
2.44212	58.00
2.45878	58.00
2.47545	58.00
2.49212	58.00
2.50878	57.99
2.52545	57.98
2.54212	58.00
2.55878	58.00
2.57545	58.00
2.59212	58.00
2.60878	58.00
2.62545	58.00
2.64212	58.00
2.65878	58.00
2.67545	58.00
2.69212	58.00
2.70878	58.00
2.72545	58.00
2.74212	58.00
2.75878	58.00
2.77545	58.00
2.79212	58.00
2.80878	58.00
2.82545	58.00
2.84212	58.00
2.85878	58.00
2.87545	58.00
2.89212	58.00
2.90878	58.00
2.92545	58.00
2.94212	58.00
2.95878	58.00
2.97545	58.00
2.99212	58.00
3.00878	58.00
3.02545	58.00
3.04212	58.00
3.05878	58.00
3.07545	58.00
3.09212	58.00
3.10878	58.00
3.12545	58.00
3.14212	58.00
3.15878	58.00
3.17545	58.00
3.19212	58.00
3.20878	58.00
3.22545	58.00
3.24212	58.00
3.25878	58.00
3.27545	58.00
3.29212	58.00
3.30878	58.00
3.32545	58.00
3.34212	58.00
3.35878	58.00
3.37545	58.00
3.39212	58.00
3.40878	58.00
3.42545	58.00
3.44212	58.00
3.45878	58.00
3.47545	58.00
3.49212	58.00
3.50878	58.00
3.52545	58.00
3.54212	58.00
3.55878	58.00
3.57545	58.00
3.59212	58.00
3.60878	58.00
3.62545	58.00
3.64212	58.00
3.65878	58.00
3.67545	58.00
3.69212	58.00
3.70878	58.00
3.72545	58.00
3.74212	58.00
3.75878	58.00
3.77545	58.00
3.79212	58.00
3.80878	58.00
3.82545	58.00
3.84212	58.00
3.85878	58.00
3.87545	58.00
3.89212	58.00
3.90878	58.00
3.92545	58.00
3.94212	58.00
3.95878	58.00
3.97545	58.00
3.99212	58.00

[Status Trace (Carrier Gas Flow)]
Interval(msec)	1000
# of Points	240
Start Time(min)	0.009
End Time(min)	3.992
Intensity Units	
Intensity Multiplier	1
R.Time (min)	Intensity
0.00878	34.52
0.02545	34.54
0.04212	34.55
0.05878	34.55
0.07545	34.50
0.09212	34.52
0.10878	34.52
0.12545	34.52
0.14212	34.52
0.15878	34.52
0.17545	34.52
0.19212	34.52
0.20878	34.52
0.22545	34.52
0.24212	34.52
0.25878	34.52
0.27545	34.52
0.29212	34.52
0.30878	34.51
0.32545	34.52
0.34212	34.52
0.35878	34.52
0.37545	34.52
0.39212	34.52
0.40878	34.52
0.42545	34.52
0.44212	34.51
0.45878	34.52
0.47545	34.52
0.49212	34.52
0.50878	34.52
0.52545	34.52
0.54212	34.52
0.55878	34.52
0.57545	34.52
0.59212	34.52
0.60878	34.52
0.62545	34.52
0.64212	34.52
0.65878	34.52
0.67545	34.52
0.69212	34.52
0.70878	34.52
0.72545	34.52
0.74212	34.52
0.75878	34.52
0.77545	34.52
0.79212	34.52
0.80878	34.52
0.82545	34.52
0.84212	34.52
0.85878	34.52
0.87545	34.52
0.89212	34.52
0.90878	34.52
0.92545	34.52
0.94212	34.52
0.95878	34.52
0.97545	34.52
0.99212	34.52
1.00878	34.52
1.02545	34.51
1.04212	34.52
1.05878	34.52
1.07545	34.52
1.09212	34.52
1.10878	34.52
1.12545	34.52
1.14212	34.52
1.15878	34.52
1.17545	34.52
1.19212	34.52
1.20878	34.52
1.22545	34.52
1.24212	34.52
1.25878	34.51
1.27545	34.52
1.29212	34.52
1.30878	34.52
1.32545	34.52
1.34212	34.52
1.35878	34.52
1.37545	34.52
1.39212	34.52
1.40878	34.52
1.42545	34.52
1.44212	34.52
1.45878	34.52
1.47545	34.52
1.49212	34.52
1.50878	34.52
1.52545	34.52
1.54212	34.52
1.55878	34.51
1.57545	34.51
1.59212	34.52
1.60878	34.52
1.62545	34.52
1.64212	34.52
1.65878	34.52
1.67545	34.52
1.69212	34.52
1.70878	34.52
1.72545	34.52
1.74212	34.52
1.75878	34.52
1.77545	34.52
1.79212	34.52
1.80878	34.52
1.82545	34.52
1.84212	34.52
1.85878	34.52
1.87545	34.52
1.89212	34.51
1.90878	34.52
1.92545	34.52
1.94212	34.52
1.95878	34.51
1.97545	34.52
1.99212	34.52
2.00878	34.52
2.02545	34.52
2.04212	34.52
2.05878	34.52
2.07545	34.52
2.09212	34.53
2.10878	34.52
2.12545	34.52
2.14212	34.52
2.15878	34.52
2.17545	34.52
2.19212	34.52
2.20878	34.52
2.22545	34.52
2.24212	34.52
2.25878	34.52
2.27545	34.52
2.29212	34.52
2.30878	34.52
2.32545	34.52
2.34212	34.52
2.35878	34.52
2.37545	34.52
2.39212	34.52
2.40878	34.52
2.42545	34.51
2.44212	34.52
2.45878	34.52
2.47545	34.52
2.49212	34.52
2.50878	34.46
2.52545	34.52
2.54212	34.52
2.55878	34.52
2.57545	34.52
2.59212	34.52
2.60878	34.52
2.62545	34.52
2.64212	34.52
2.65878	34.52
2.67545	34.52
2.69212	34.52
2.70878	34.52
2.72545	34.52
2.74212	34.52
2.75878	34.52
2.77545	34.52
2.79212	34.52
2.80878	34.52
2.82545	34.52
2.84212	34.52
2.85878	34.52
2.87545	34.52
2.89212	34.52
2.90878	34.52
2.92545	34.52
2.94212	34.52
2.95878	34.52
2.97545	34.52
2.99212	34.52
3.00878	34.52
3.02545	34.52
3.04212	34.52
3.05878	34.52
3.07545	34.52
3.09212	34.52
3.10878	34.52
3.12545	34.52
3.14212	34.52
3.15878	34.52
3.17545	34.51
3.19212	34.52
3.20878	34.52
3.22545	34.53
3.24212	34.52
3.25878	34.52
3.27545	34.52
3.29212	34.51
3.30878	34.52
3.32545	34.52
3.34212	34.52
3.35878	34.52
3.37545	34.52
3.39212	34.52
3.40878	34.52
3.42545	34.52
3.44212	34.52
3.45878	34.52
3.47545	34.51
3.49212	34.51
3.50878	34.52
3.52545	34.52
3.54212	34.52
3.55878	34.52
3.57545	34.53
3.59212	34.52
3.60878	34.52
3.62545	34.52
3.64212	34.52
3.65878	34.52
3.67545	34.52
3.69212	34.52
3.70878	34.52
3.72545	34.52
3.74212	34.52
3.75878	34.52
3.77545	34.52
3.79212	34.53
3.80878	34.52
3.82545	34.52
3.84212	34.53
3.85878	34.52
3.87545	34.52
3.89212	34.51
3.90878	34.51
3.92545	34.52
3.94212	34.52
3.95878	34.51
3.97545	34.52
3.99212	34.52

[Status Trace (Column Flow)]
Interval(msec)	1000
# of Points	240
Start Time(min)	0.009
End Time(min)	3.992
Intensity Units	
Intensity Multiplier	1
R.Time (min)	Intensity
0.00878	5.57
0.02545	5.25
0.04212	5.49
0.05878	5.73
0.07545	5.73
0.09212	5.58
0.10878	5.57
0.12545	5.57
0.14212	5.57
0.15878	5.57
0.17545	5.57
0.19212	5.57
0.20878	5.57
0.22545	5.57
0.24212	5.57
0.25878	5.57
0.27545	5.57
0.29212	5.57
0.30878	5.57
0.32545	5.57
0.34212	5.57
0.35878	5.57
0.37545	5.57
0.39212	5.57
0.40878	5.57
0.42545	5.57
0.44212	5.57
0.45878	5.57
0.47545	5.57
0.49212	5.57
0.50878	5.57
0.52545	5.57
0.54212	5.57
0.55878	5.57
0.57545	5.57
0.59212	5.57
0.60878	5.57
0.62545	5.57
0.64212	5.57
0.65878	5.57
0.67545	5.57
0.69212	5.57
0.70878	5.57
0.72545	5.57
0.74212	5.57
0.75878	5.57
0.77545	5.57
0.79212	5.57
0.80878	5.57
0.82545	5.57
0.84212	5.57
0.85878	5.57
0.87545	5.57
0.89212	5.57
0.90878	5.57
0.92545	5.57
0.94212	5.57
0.95878	5.57
0.97545	5.57
0.99212	5.57
1.00878	5.57
1.02545	5.57
1.04212	5.57
1.05878	5.57
1.07545	5.57
1.09212	5.57
1.10878	5.57
1.12545	5.57
1.14212	5.57
1.15878	5.57
1.17545	5.57
1.19212	5.57
1.20878	5.57
1.22545	5.57
1.24212	5.57
1.25878	5.57
1.27545	5.57
1.29212	5.57
1.30878	5.57
1.32545	5.57
1.34212	5.57
1.35878	5.57
1.37545	5.57
1.39212	5.57
1.40878	5.57
1.42545	5.57
1.44212	5.57
1.45878	5.57
1.47545	5.57
1.49212	5.57
1.50878	5.57
1.52545	5.57
1.54212	5.57
1.55878	5.57
1.57545	5.57
1.59212	5.57
1.60878	5.57
1.62545	5.57
1.64212	5.56
1.65878	5.55
1.67545	5.54
1.69212	5.53
1.70878	5.52
1.72545	5.51
1.74212	5.50
1.75878	5.49
1.77545	5.48
1.79212	5.47
1.80878	5.46
1.82545	5.45
1.84212	5.44
1.85878	5.43
1.87545	5.42
1.89212	5.41
1.90878	5.40
1.92545	5.39
1.94212	5.38
1.95878	5.37
1.97545	5.36
1.99212	5.35
2.00878	5.34
2.02545	5.33
2.04212	5.32
2.05878	5.31
2.07545	5.30
2.09212	5.29
2.10878	5.28
2.12545	5.27
2.14212	5.26
2.15878	5.25
2.17545	5.24
2.19212	5.23
2.20878	5.23
2.22545	5.21
2.24212	5.21
2.25878	5.20
2.27545	5.19
2.29212	5.18
2.30878	5.17
2.32545	5.16
2.34212	5.15
2.35878	5.14
2.37545	5.14
2.39212	5.13
2.40878	5.13
2.42545	5.13
2.44212	5.13
2.45878	5.13
2.47545	5.13
2.49212	5.13
2.50878	5.13
2.52545	5.13
2.54212	5.13
2.55878	5.13
2.57545	5.13
2.59212	5.13
2.60878	5.13
2.62545	5.13
2.64212	5.13
2.65878	5.13
2.67545	5.13
2.69212	5.13
2.70878	5.13
2.72545	5.13
2.74212	5.13
2.75878	5.13
2.77545	5.13
2.79212	5.13
2.80878	5.13
2.82545	5.13
2.84212	5.13
2.85878	5.13
2.87545	5.13
2.89212	5.13
2.90878	5.13
2.92545	5.13
2.94212	5.13
2.95878	5.13
2.97545	5.13
2.99212	5.13
3.00878	5.13
3.02545	5.12
3.04212	5.12
3.05878	5.12
3.07545	5.12
3.09212	5.12
3.10878	5.12
3.12545	5.12
3.14212	5.12
3.15878	5.12
3.17545	5.12
3.19212	5.12
3.20878	5.12
3.22545	5.12
3.24212	5.12
3.25878	5.12
3.27545	5.12
3.29212	5.12
3.30878	5.12
3.32545	5.12
3.34212	5.12
3.35878	5.12
3.37545	5.12
3.39212	5.12
3.40878	5.12
3.42545	5.12
3.44212	5.12
3.45878	5.12
3.47545	5.12
3.49212	5.12
3.50878	5.12
3.52545	5.12
3.54212	5.12
3.55878	5.12
3.57545	5.12
3.59212	5.12
3.60878	5.12
3.62545	5.12
3.64212	5.12
3.65878	5.12
3.67545	5.12
3.69212	5.12
3.70878	5.12
3.72545	5.12
3.74212	5.12
3.75878	5.12
3.77545	5.12
3.79212	5.12
3.80878	5.12
3.82545	5.12
3.84212	5.12
3.85878	5.12
3.87545	5.12
3.89212	5.12
3.90878	5.12
3.92545	5.12
3.94212	5.12
3.95878	5.12
3.97545	5.12
3.99212	5.12

[Status Trace (Linear Velocity)]
Interval(msec)	1000
# of Points	240
Start Time(min)	0.009
End Time(min)	3.992
Intensity Units	
Intensity Multiplier	1
R.Time (min)	Intensity
0.00878	39.02
0.02545	37.23
0.04212	38.56
0.05878	39.89
0.07545	39.88
0.09212	39.05
0.10878	39.02
0.12545	39.04
0.14212	39.03
0.15878	39.03
0.17545	39.03
0.19212	39.03
0.20878	39.03
0.22545	39.03
0.24212	39.03
0.25878	39.03
0.27545	39.03
0.29212	39.03
0.30878	39.03
0.32545	39.03
0.34212	39.03
0.35878	39.02
0.37545	39.02
0.39212	39.03
0.40878	39.03
0.42545	39.03
0.44212	39.03
0.45878	39.03
0.47545	39.03
0.49212	39.03
0.50878	39.03
0.52545	39.03
0.54212	39.03
0.55878	39.03
0.57545	39.03
0.59212	39.03
0.60878	39.03
0.62545	39.03
0.64212	39.03
0.65878	39.03
0.67545	39.03
0.69212	39.03
0.70878	39.03
0.72545	39.03
0.74212	39.03
0.75878	39.03
0.77545	39.03
0.79212	39.03
0.80878	39.03
0.82545	39.03
0.84212	39.03
0.85878	39.03
0.87545	39.03
0.89212	39.03
0.90878	39.03
0.92545	39.03
0.94212	39.03
0.95878	39.03
0.97545	39.03
0.99212	39.03
1.00878	39.03
1.02545	39.03
1.04212	39.03
1.05878	39.03
1.07545	39.03
1.09212	39.03
1.10878	39.03
1.12545	39.03
1.14212	39.03
1.15878	39.03
1.17545	39.03
1.19212	39.03
1.20878	39.03
1.22545	39.03
1.24212	39.03
1.25878	39.03
1.27545	39.03
1.29212	39.03
1.30878	39.03
1.32545	39.03
1.34212	39.03
1.35878	39.03
1.37545	39.03
1.39212	39.03
1.40878	39.03
1.42545	39.03
1.44212	39.03
1.45878	39.03
1.47545	39.03
1.49212	39.03
1.50878	39.03
1.52545	39.03
1.54212	39.03
1.55878	39.03
1.57545	39.02
1.59212	39.02
1.60878	39.02
1.62545	39.01
1.64212	39.00
1.65878	38.98
1.67545	38.94
1.69212	38.90
1.70878	38.87
1.72545	38.83
1.74212	38.80
1.75878	38.77
1.77545	38.74
1.79212	38.71
1.80878	38.68
1.82545	38.65
1.84212	38.62
1.85878	38.59
1.87545	38.56
1.89212	38.53
1.90878	38.50
1.92545	38.47
1.94212	38.43
1.95878	38.41
1.97545	38.37
1.99212	38.34
2.00878	38.32
2.02545	38.28
2.04212	38.25
2.05878	38.22
2.07545	38.19
2.09212	38.16
2.10878	38.14
2.12545	38.10
2.14212	38.07
2.15878	38.05
2.17545	38.01
2.19212	37.98
2.20878	37.96
2.22545	37.93
2.24212	37.90
2.25878	37.87
2.27545	37.83
2.29212	37.81
2.30878	37.78
2.32545	37.75
2.34212	37.72
2.35878	37.69
2.37545	37.67
2.39212	37.67
2.40878	37.67
2.42545	37.67
2.44212	37.67
2.45878	37.67
2.47545	37.67
2.49212	37.67
2.50878	37.67
2.52545	37.66
2.54212	37.67
2.55878	37.67
2.57545	37.66
2.59212	37.66
2.60878	37.66
2.62545	37.66
2.64212	37.66
2.65878	37.66
2.67545	37.66
2.69212	37.66
2.70878	37.66
2.72545	37.66
2.74212	37.66
2.75878	37.66
2.77545	37.66
2.79212	37.65
2.80878	37.65
2.82545	37.65
2.84212	37.65
2.85878	37.65
2.87545	37.65
2.89212	37.65
2.90878	37.65
2.92545	37.65
2.94212	37.65
2.95878	37.65
2.97545	37.65
2.99212	37.65
3.00878	37.64
3.02545	37.64
3.04212	37.64
3.05878	37.64
3.07545	37.64
3.09212	37.64
3.10878	37.63
3.12545	37.63
3.14212	37.63
3.15878	37.63
3.17545	37.64
3.19212	37.64
3.20878	37.64
3.22545	37.64
3.24212	37.64
3.25878	37.64
3.27545	37.64
3.29212	37.64
3.30878	37.64
3.32545	37.64
3.34212	37.64
3.35878	37.64
3.37545	37.64
3.39212	37.64
3.40878	37.64
3.42545	37.64
3.44212	37.64
3.45878	37.64
3.47545	37.64
3.49212	37.64
3.50878	37.64
3.52545	37.64
3.54212	37.64
3.55878	37.64
3.57545	37.64
3.59212	37.64
3.60878	37.64
3.62545	37.64
3.64212	37.64
3.65878	37.64
3.67545	37.64
3.69212	37.64
3.70878	37.64
3.72545	37.64
3.74212	37.64
3.75878	37.64
3.77545	37.64
3.79212	37.64
3.80878	37.64
3.82545	37.64
3.84212	37.64
3.85878	37.64
3.87545	37.64
3.89212	37.64
3.90878	37.64
3.92545	37.64
3.94212	37.64
3.95878	37.64
3.97545	37.64
3.99212	37.64

