[Header]
Application Name	LabSolutions
Version	5.110
Data File Name	C:\Users\User\Desktop\GC Analyses\Jack\Nachusa Grasslands Sampling\T1 Timepoint July 12th\T1_07122022_090.gcd
Output Date	3/14/2023
Output Time	3:41:02 PM

[File Information]
Type	Data File
Generated	3/8/2023 11:18:33 PM
Generated by	System Administrator
Modified	3/8/2023 11:25:16 PM
Modified by	System Administrator

[Sample Information]
Operator Name	System Administrator
Acquired	3/8/2023 11:21:16 PM
Sample Type	0:Unknown
Level	0
Sample Name	090
Sample ID	090
ISTD Amount1	1
ISTD Amount2	1
ISTD Amount3	1
ISTD Amount4	1
ISTD Amount5	1
ISTD Amount6	1
ISTD Amount7	1
ISTD Amount8	1
ISTD Amount9	1
ISTD Amount10	1
ISTD Amount11	1
ISTD Amount12	1
ISTD Amount13	1
ISTD Amount14	1
ISTD Amount15	1
ISTD Amount16	1
ISTD Amount17	1
ISTD Amount18	1
ISTD Amount19	1
ISTD Amount20	1
ISTD Amount21	1
ISTD Amount22	1
ISTD Amount23	1
ISTD Amount24	1
ISTD Amount25	1
ISTD Amount26	1
ISTD Amount27	1
ISTD Amount28	1
ISTD Amount29	1
ISTD Amount30	1
ISTD Amount31	1
ISTD Amount32	1
Sample Amount	1
Dilution Factor	1
Vial#	89
Injection Volume	1
Injection Count	1
Bar Code	

[Original Files]
Data File	C:\Users\User\Desktop\GC Analyses\Jack\Nachusa Grasslands Sampling\T1 Timepoint July 12th\T1_07122022_090.gcd
Method File	C:\LabSolutions\Data\GHG_4min_2022\ghg3_togas_w_acet_4 min_new_int.gcm
Batch File	C:\LabSolutions\Data\AutoSamplerTesting\T1_07122022.gcb
Report Format File	c:\LabSolutions\System\DEFAULT.lsr

[File Description]


[Configuration]
Instrument Name	C0B7VH3-Instrument1
Instrument #	1
Line #	1
# of Detectors	3
Detector ID	DET#1	DET#2	DET#3
Detector Name	FID	PTCD	ECD
# of Channels	1	1	1

[Peak Table(Ch1)]
# of Peaks	3
Peak#	R.Time	I.Time	F.Time	Area	Height	A/H	Conc.	Mark	ID#	Name	k'	Plate #	Plate Ht.	Tailing	Resolution	Sep.Factor	Area Ratio	Height Ratio	Conc. %	Norm Conc.
1	1.476	1.439	1.538	27649	13016	2.124	195.203	   	1	CO	0.000	9353	16.037	1.332	0.000	0.000	0	0	28.636	28.636
2	1.567	1.538	1.648	4973	2311	2.152	96.153	 V 	2	CH4	0.062	10132	14.804	0.000	1.487	0.000	0	0	14.106	14.106
3	1.996	1.952	2.495	1555190	736952	2.110	390.311	   	3	CO2	0.353	17287	8.677	1.295	6.975	5.680	0	0	57.258	57.258

[Peak Table(Ch2)]
# of Peaks	0

[Peak Table(Ch3)]
# of Peaks	4
Peak#	R.Time	I.Time	F.Time	Area	Height	A/H	Conc.	Mark	ID#	Name	k'	Plate #	Plate Ht.	Tailing	Resolution	Sep.Factor	Area Ratio	Height Ratio	Conc. %	Norm Conc.
1	2.462	2.015	2.517	3400	622	5.466	0.000	   			0.000	9013	16.643	0.000	0.000	0.000	0	0	0.000	0.000
2	2.539	2.517	2.627	1023	277	3.686	0.000	 V 			0.031	4928	30.436	0.000	0.620	0.000	0	0	0.000	0.000
3	2.671	2.642	2.719	156	58	2.677	0.000	   			0.085	19539	7.677	1.283	1.194	2.714	0	0	0.000	0.000
4	2.873	2.810	3.100	18593	4899	3.795	0.475	   	1	N2O	0.167	13346	11.240	1.676	2.293	1.965	0	0	100.000	100.000

[Compound Results(Ch1)]
# of IDs	6
ID#	Name	R.Time	Area	Height	Conc.	Curve	3rd	2nd	1st	Constant	Area Ratio	Height Ratio	Conc. %	Norm Conc.
1	CO	1.476	27649	13016	195.203	Linear	0.000000e+00	0.000000e+00	1.416423e+002	0.000000e+00	0	0	28.636	28.636
2	CH4	1.567	4973	2311	96.153	Linear	0.000000e+00	0.000000e+00	5.171738e+001	0.000000e+00	0	0	14.106	14.106
3	CO2	1.996	1555190	736952	390.311	Linear	0.000000e+00	0.000000e+00	3.984494e+003	0.000000e+00	0	0	57.258	57.258
4	Ethylene	0.000	0	0	0.000	Linear	0.000000e+00	0.000000e+00	0.000000e+00	0.000000e+00	0	0	0.000	0.000
5	Acetylene	0.000	0	0	0.000	Linear	0.000000e+00	0.000000e+00	0.000000e+00	0.000000e+00	0	0	0.000	0.000
6	Ethane	0.000	0	0	0.000	Linear	0.000000e+00	0.000000e+00	0.000000e+00	0.000000e+00	0	0	0.000	0.000

[Compound Results(Ch2)]
# of IDs	5
ID#	Name	R.Time	Area	Height	Conc.	Curve	3rd	2nd	1st	Constant	Area Ratio	Height Ratio	Conc. %	Norm Conc.
1	Hydrogen	0.000	0	0	0.000	Linear	0.000000e+00	0.000000e+00	0.000000e+00	0.000000e+00	0	0	0.000	0.000
2	Oxygen	0.000	0	0	0.000	Linear	0.000000e+00	0.000000e+00	0.000000e+00	0.000000e+00	0	0	0.000	0.000
3	Nitrogen	0.000	0	0	0.000	Linear	0.000000e+00	0.000000e+00	0.000000e+00	0.000000e+00	0	0	0.000	0.000
4	Methane	0.000	0	0	0.000	Linear	0.000000e+00	0.000000e+00	0.000000e+00	0.000000e+00	0	0	0.000	0.000
5	Carbon Monoxide	0.000	0	0	0.000	Linear	0.000000e+00	0.000000e+00	0.000000e+00	0.000000e+00	0	0	0.000	0.000

[Compound Results(Ch3)]
# of IDs	2
ID#	Name	R.Time	Area	Height	Conc.	Curve	3rd	2nd	1st	Constant	Area Ratio	Height Ratio	Conc. %	Norm Conc.
1	N2O	2.873	18593	4899	0.475	Linear	0.000000e+00	0.000000e+00	3.915173e+004	0.000000e+00	0	0	100.000	100.000
2	SF6	0.000	0	0	0.000	Linear	0.000000e+00	0.000000e+00	0.000000e+00	0.000000e+00	0	0	0.000	0.000

[Group Results(Ch1)]
# of Groups	0

[Group Results(Ch2)]
# of Groups	0

[Group Results(Ch3)]
# of Groups	0

[Chromatogram (Ch1)]
Interval(msec)	220
# of Points	1091
Start Time(min)	0.002
End Time(min)	3.998
R.Time (min)	Intensity
0.00167	-29
0.00533	-32
0.00900	-36
0.01267	-38
0.01633	-36
0.02000	-33
0.02367	-32
0.02733	-35
0.03100	-39
0.03467	-40
0.03833	-36
0.04200	-25
0.04567	-15
0.04933	-10
0.05300	-12
0.05667	-15
0.06033	-16
0.06400	-21
0.06767	-28
0.07133	-35
0.07500	-41
0.07867	-42
0.08233	-36
0.08600	-25
0.08967	-14
0.09333	-4
0.09700	2
0.10067	-2
0.10433	-11
0.10800	-19
0.11167	-16
0.11533	-7
0.11900	0
0.12267	-2
0.12633	-9
0.13000	-14
0.13367	-19
0.13733	-21
0.14100	-22
0.14467	-25
0.14833	-29
0.15200	-26
0.15567	-23
0.15933	-19
0.16300	-11
0.16667	-0
0.17033	9
0.17400	14
0.17767	14
0.18133	13
0.18500	12
0.18867	10
0.19233	8
0.19600	5
0.19967	3
0.20333	1
0.20700	-3
0.21067	-5
0.21433	-6
0.21800	-6
0.22167	-7
0.22533	-10
0.22900	-9
0.23267	-5
0.23633	-1
0.24000	0
0.24367	2
0.24733	5
0.25100	6
0.25467	11
0.25833	19
0.26200	29
0.26567	40
0.26933	45
0.27300	42
0.27667	38
0.28033	36
0.28400	37
0.28767	37
0.29133	34
0.29500	28
0.29867	18
0.30233	7
0.30600	-3
0.30967	-10
0.31333	-14
0.31700	-14
0.32067	-11
0.32433	-7
0.32800	-1
0.33167	6
0.33533	15
0.33900	20
0.34267	23
0.34633	24
0.35000	22
0.35367	17
0.35733	11
0.36100	4
0.36467	-3
0.36833	-10
0.37200	-13
0.37567	-15
0.37933	-17
0.38300	-21
0.38667	-25
0.39033	-23
0.39400	-17
0.39767	-14
0.40133	-13
0.40500	-11
0.40867	-5
0.41233	1
0.41600	7
0.41967	11
0.42333	9
0.42700	3
0.43067	-3
0.43433	-7
0.43800	-6
0.44167	-5
0.44533	-3
0.44900	-1
0.45267	-0
0.45633	1
0.46000	3
0.46367	5
0.46733	7
0.47100	12
0.47467	18
0.47833	21
0.48200	23
0.48567	22
0.48933	21
0.49300	19
0.49667	18
0.50033	16
0.50400	16
0.50767	17
0.51133	21
0.51500	26
0.51867	28
0.52233	28
0.52600	24
0.52967	20
0.53333	19
0.53700	17
0.54067	15
0.54433	17
0.54800	22
0.55167	25
0.55533	25
0.55900	23
0.56267	21
0.56633	19
0.57000	17
0.57367	14
0.57733	10
0.58100	2
0.58467	-3
0.58833	-2
0.59200	3
0.59567	7
0.59933	4
0.60300	-1
0.60667	-6
0.61033	-15
0.61400	-22
0.61767	-22
0.62133	-20
0.62500	-18
0.62867	-13
0.63233	-12
0.63600	-11
0.63967	-7
0.64333	-5
0.64700	-6
0.65067	-11
0.65433	-17
0.65800	-17
0.66167	-12
0.66533	-4
0.66900	5
0.67267	15
0.67633	23
0.68000	25
0.68367	21
0.68733	15
0.69100	11
0.69467	7
0.69833	5
0.70200	4
0.70567	1
0.70933	-6
0.71300	-14
0.71667	-20
0.72033	-22
0.72400	-21
0.72767	-14
0.73133	-7
0.73500	-0
0.73867	3
0.74233	-1
0.74600	-7
0.74967	-11
0.75333	-10
0.75700	-5
0.76067	-0
0.76433	3
0.76800	5
0.77167	5
0.77533	1
0.77900	-6
0.78267	-15
0.78633	-18
0.79000	-15
0.79367	-16
0.79733	-18
0.80100	-17
0.80467	-14
0.80833	-10
0.81200	-10
0.81567	-11
0.81933	-13
0.82300	-13
0.82667	-12
0.83033	-10
0.83400	-6
0.83767	-1
0.84133	1
0.84500	2
0.84867	3
0.85233	2
0.85600	3
0.85967	4
0.86333	-2
0.86700	-7
0.87067	-7
0.87433	-5
0.87800	-3
0.88167	-3
0.88533	-3
0.88900	-1
0.89267	3
0.89633	9
0.90000	17
0.90367	25
0.90733	32
0.91100	37
0.91467	31
0.91833	19
0.92200	8
0.92567	1
0.92933	-3
0.93300	-7
0.93667	-7
0.94033	-0
0.94400	3
0.94767	3
0.95133	2
0.95500	0
0.95867	1
0.96233	6
0.96600	13
0.96967	18
0.97333	18
0.97700	20
0.98067	23
0.98433	24
0.98800	21
0.99167	10
0.99533	1
0.99900	-4
1.00267	-2
1.00633	2
1.01000	3
1.01367	6
1.01733	9
1.02100	11
1.02467	12
1.02833	12
1.03200	14
1.03567	22
1.03933	32
1.04300	42
1.04667	46
1.05033	41
1.05400	31
1.05767	20
1.06133	10
1.06500	7
1.06867	10
1.07233	15
1.07600	17
1.07967	20
1.08333	20
1.08700	18
1.09067	18
1.09433	20
1.09800	17
1.10167	12
1.10533	7
1.10900	2
1.11267	2
1.11633	8
1.12000	15
1.12367	24
1.12733	27
1.13100	21
1.13467	14
1.13833	11
1.14200	12
1.14567	16
1.14933	19
1.15300	22
1.15667	22
1.16033	20
1.16400	18
1.16767	11
1.17133	3
1.17500	-3
1.17867	-7
1.18233	-6
1.18600	-4
1.18967	-2
1.19333	1
1.19700	5
1.20067	7
1.20433	3
1.20800	1
1.21167	1
1.21533	0
1.21900	1
1.22267	4
1.22633	8
1.23000	12
1.23367	13
1.23733	9
1.24100	7
1.24467	8
1.24833	5
1.25200	1
1.25567	-4
1.25933	-8
1.26300	-8
1.26667	-3
1.27033	5
1.27400	13
1.27767	16
1.28133	20
1.28500	24
1.28867	21
1.29233	15
1.29600	4
1.29967	-9
1.30333	-19
1.30700	-19
1.31067	-15
1.31433	-14
1.31800	-15
1.32167	-20
1.32533	-26
1.32900	-29
1.33267	-30
1.33633	-30
1.34000	-25
1.34367	-16
1.34733	-9
1.35100	-6
1.35467	-6
1.35833	-8
1.36200	-8
1.36567	-10
1.36933	-11
1.37300	-10
1.37667	-9
1.38033	-8
1.38400	-5
1.38767	2
1.39133	9
1.39500	12
1.39867	10
1.40233	3
1.40600	-6
1.40967	-14
1.41333	-18
1.41700	-19
1.42067	-16
1.42433	-16
1.42800	-24
1.43167	-37
1.43533	-45
1.43900	-23
1.44267	81
1.44633	329
1.45000	893
1.45367	2164
1.45733	4254
1.46100	6755
1.46467	9135
1.46833	11068
1.47200	12397
1.47567	12994
1.47933	12751
1.48300	11675
1.48667	9975
1.49033	8012
1.49400	6128
1.49767	4532
1.50133	3286
1.50500	2363
1.50867	1699
1.51233	1234
1.51600	913
1.51967	694
1.52333	542
1.52700	434
1.53067	354
1.53433	300
1.53800	274
1.54167	310
1.54533	471
1.54900	777
1.55267	1176
1.55633	1580
1.56000	1922
1.56367	2168
1.56733	2291
1.57100	2260
1.57467	2066
1.57833	1745
1.58200	1373
1.58567	1022
1.58933	732
1.59300	512
1.59667	357
1.60033	258
1.60400	196
1.60767	157
1.61133	129
1.61500	107
1.61867	87
1.62233	68
1.62600	51
1.62967	38
1.63333	29
1.63700	17
1.64067	3
1.64433	-8
1.64800	-18
1.65167	-25
1.65533	-29
1.65900	-27
1.66267	-23
1.66633	-21
1.67000	-20
1.67367	-19
1.67733	-11
1.68100	4
1.68467	14
1.68833	17
1.69200	17
1.69567	15
1.69933	15
1.70300	13
1.70667	12
1.71033	11
1.71400	7
1.71767	2
1.72133	-5
1.72500	-14
1.72867	-20
1.73233	-25
1.73600	-30
1.73967	-36
1.74333	-40
1.74700	-40
1.75067	-39
1.75433	-34
1.75800	-29
1.76167	-26
1.76533	-23
1.76900	-19
1.77267	-11
1.77633	-6
1.78000	-7
1.78367	-10
1.78733	-16
1.79100	-20
1.79467	-22
1.79833	-19
1.80200	-12
1.80567	0
1.80933	14
1.81300	21
1.81667	25
1.82033	26
1.82400	25
1.82767	20
1.83133	7
1.83500	-6
1.83867	-16
1.84233	-21
1.84600	-21
1.84967	-19
1.85333	-20
1.85700	-24
1.86067	-26
1.86433	-24
1.86800	-19
1.87167	-12
1.87533	-3
1.87900	5
1.88267	7
1.88633	3
1.89000	-6
1.89367	-15
1.89733	-20
1.90100	-19
1.90467	-15
1.90833	-10
1.91200	-5
1.91567	-1
1.91933	5
1.92300	10
1.92667	18
1.93033	28
1.93400	37
1.93767	48
1.94133	52
1.94500	47
1.94867	39
1.95233	49
1.95600	183
1.95967	973
1.96333	4496
1.96700	16494
1.97067	47903
1.97433	111819
1.97800	214259
1.98167	346086
1.98533	485704
1.98900	609212
1.99267	697149
1.99633	737033
2.00000	724483
2.00367	664216
2.00733	569945
2.01100	460437
2.01467	353327
2.01833	260388
2.02200	186470
2.02567	131252
2.02933	91774
2.03300	64367
2.03667	45679
2.04033	33052
2.04400	24528
2.04767	18738
2.05133	14753
2.05500	11963
2.05867	9970
2.06233	8510
2.06600	7411
2.06967	6562
2.07333	5890
2.07700	5347
2.08067	4900
2.08433	4532
2.08800	4224
2.09167	3951
2.09533	3705
2.09900	3485
2.10267	3288
2.10633	3111
2.11000	2950
2.11367	2806
2.11733	2677
2.12100	2560
2.12467	2451
2.12833	2344
2.13200	2248
2.13567	2159
2.13933	2076
2.14300	1998
2.14667	1927
2.15033	1863
2.15400	1802
2.15767	1748
2.16133	1701
2.16500	1652
2.16867	1597
2.17233	1548
2.17600	1508
2.17967	1467
2.18333	1427
2.18700	1388
2.19067	1351
2.19433	1322
2.19800	1296
2.20167	1270
2.20533	1241
2.20900	1210
2.21267	1184
2.21633	1161
2.22000	1136
2.22367	1106
2.22733	1072
2.23100	1038
2.23467	1009
2.23833	986
2.24200	967
2.24567	950
2.24933	933
2.25300	916
2.25667	899
2.26033	880
2.26400	862
2.26767	846
2.27133	832
2.27500	818
2.27867	804
2.28233	790
2.28600	779
2.28967	769
2.29333	759
2.29700	748
2.30067	740
2.30433	732
2.30800	723
2.31167	718
2.31533	716
2.31900	710
2.32267	700
2.32633	687
2.33000	672
2.33367	654
2.33733	640
2.34100	627
2.34467	620
2.34833	618
2.35200	619
2.35567	618
2.35933	612
2.36300	605
2.36667	599
2.37033	590
2.37400	573
2.37767	557
2.38133	548
2.38500	543
2.38867	540
2.39233	537
2.39600	533
2.39967	531
2.40333	530
2.40700	526
2.41067	518
2.41433	510
2.41800	504
2.42167	498
2.42533	494
2.42900	487
2.43267	480
2.43633	472
2.44000	465
2.44367	460
2.44733	456
2.45100	455
2.45467	456
2.45833	458
2.46200	462
2.46567	464
2.46933	457
2.47300	446
2.47667	437
2.48033	433
2.48400	432
2.48767	432
2.49133	434
2.49500	436
2.49867	436
2.50233	432
2.50600	429
2.50967	426
2.51333	420
2.51700	415
2.52067	412
2.52433	411
2.52800	409
2.53167	406
2.53533	401
2.53900	396
2.54267	395
2.54633	392
2.55000	387
2.55367	380
2.55733	372
2.56100	362
2.56467	351
2.56833	344
2.57200	338
2.57567	336
2.57933	339
2.58300	343
2.58667	349
2.59033	351
2.59400	345
2.59767	337
2.60133	337
2.60500	339
2.60867	338
2.61233	335
2.61600	330
2.61967	327
2.62333	327
2.62700	326
2.63067	325
2.63433	320
2.63800	314
2.64167	310
2.64533	305
2.64900	301
2.65267	297
2.65633	293
2.66000	291
2.66367	291
2.66733	295
2.67100	299
2.67467	300
2.67833	301
2.68200	298
2.68567	293
2.68933	290
2.69300	286
2.69667	283
2.70033	281
2.70400	281
2.70767	281
2.71133	282
2.71500	282
2.71867	280
2.72233	280
2.72600	281
2.72967	281
2.73333	280
2.73700	280
2.74067	277
2.74433	274
2.74800	274
2.75167	278
2.75533	284
2.75900	292
2.76267	294
2.76633	282
2.77000	260
2.77367	236
2.77733	226
2.78100	227
2.78467	230
2.78833	227
2.79200	220
2.79567	216
2.79933	214
2.80300	217
2.80667	221
2.81033	226
2.81400	233
2.81767	239
2.82133	239
2.82500	234
2.82867	229
2.83233	228
2.83600	228
2.83967	232
2.84333	237
2.84700	239
2.85067	233
2.85433	224
2.85800	216
2.86167	212
2.86533	211
2.86900	212
2.87267	220
2.87633	234
2.88000	245
2.88367	248
2.88733	242
2.89100	233
2.89467	225
2.89833	217
2.90200	211
2.90567	210
2.90933	214
2.91300	218
2.91667	217
2.92033	216
2.92400	216
2.92767	218
2.93133	220
2.93500	221
2.93867	218
2.94233	212
2.94600	202
2.94967	191
2.95333	186
2.95700	183
2.96067	184
2.96433	188
2.96800	194
2.97167	197
2.97533	198
2.97900	198
2.98267	195
2.98633	192
2.99000	190
2.99367	193
2.99733	195
3.00100	194
3.00467	190
3.00833	186
3.01200	181
3.01567	179
3.01933	180
3.02300	182
3.02667	189
3.03033	197
3.03400	200
3.03767	200
3.04133	196
3.04500	188
3.04867	182
3.05233	179
3.05600	177
3.05967	176
3.06333	182
3.06700	191
3.07067	199
3.07433	204
3.07800	204
3.08167	199
3.08533	195
3.08900	192
3.09267	185
3.09633	178
3.10000	170
3.10367	165
3.10733	165
3.11100	164
3.11467	161
3.11833	159
3.12200	161
3.12567	165
3.12933	170
3.13300	171
3.13667	167
3.14033	157
3.14400	144
3.14767	136
3.15133	136
3.15500	136
3.15867	137
3.16233	139
3.16600	138
3.16967	138
3.17333	138
3.17700	141
3.18067	144
3.18433	148
3.18800	152
3.19167	156
3.19533	162
3.19900	164
3.20267	159
3.20633	148
3.21000	139
3.21367	133
3.21733	130
3.22100	131
3.22467	132
3.22833	131
3.23200	126
3.23567	122
3.23933	121
3.24300	120
3.24667	118
3.25033	117
3.25400	120
3.25767	125
3.26133	130
3.26500	132
3.26867	127
3.27233	120
3.27600	113
3.27967	108
3.28333	112
3.28700	119
3.29067	127
3.29433	132
3.29800	134
3.30167	135
3.30533	135
3.30900	134
3.31267	134
3.31633	136
3.32000	135
3.32367	130
3.32733	124
3.33100	123
3.33467	120
3.33833	118
3.34200	115
3.34567	116
3.34933	114
3.35300	112
3.35667	110
3.36033	110
3.36400	111
3.36767	111
3.37133	111
3.37500	114
3.37867	113
3.38233	108
3.38600	100
3.38967	97
3.39333	93
3.39700	87
3.40067	88
3.40433	94
3.40800	101
3.41167	109
3.41533	117
3.41900	123
3.42267	127
3.42633	127
3.43000	121
3.43367	114
3.43733	105
3.44100	98
3.44467	96
3.44833	95
3.45200	96
3.45567	97
3.45933	97
3.46300	91
3.46667	79
3.47033	66
3.47400	61
3.47767	64
3.48133	68
3.48500	72
3.48867	74
3.49233	76
3.49600	79
3.49967	82
3.50333	82
3.50700	78
3.51067	73
3.51433	68
3.51800	65
3.52167	65
3.52533	61
3.52900	58
3.53267	59
3.53633	65
3.54000	71
3.54367	74
3.54733	77
3.55100	77
3.55467	76
3.55833	75
3.56200	75
3.56567	74
3.56933	69
3.57300	65
3.57667	63
3.58033	63
3.58400	65
3.58767	69
3.59133	71
3.59500	69
3.59867	70
3.60233	77
3.60600	89
3.60967	93
3.61333	83
3.61700	73
3.62067	70
3.62433	70
3.62800	69
3.63167	66
3.63533	61
3.63900	58
3.64267	50
3.64633	47
3.65000	47
3.65367	48
3.65733	48
3.66100	47
3.66467	47
3.66833	50
3.67200	52
3.67567	49
3.67933	46
3.68300	43
3.68667	40
3.69033	38
3.69400	41
3.69767	47
3.70133	51
3.70500	48
3.70867	46
3.71233	49
3.71600	57
3.71967	63
3.72333	66
3.72700	65
3.73067	62
3.73433	62
3.73800	65
3.74167	66
3.74533	62
3.74900	52
3.75267	43
3.75633	36
3.76000	30
3.76367	26
3.76733	23
3.77100	23
3.77467	28
3.77833	34
3.78200	42
3.78567	47
3.78933	48
3.79300	46
3.79667	43
3.80033	34
3.80400	28
3.80767	23
3.81133	21
3.81500	23
3.81867	25
3.82233	22
3.82600	22
3.82967	25
3.83333	29
3.83700	33
3.84067	35
3.84433	38
3.84800	40
3.85167	41
3.85533	42
3.85900	45
3.86267	45
3.86633	40
3.87000	31
3.87367	21
3.87733	13
3.88100	8
3.88467	6
3.88833	6
3.89200	8
3.89567	15
3.89933	23
3.90300	30
3.90667	35
3.91033	33
3.91400	27
3.91767	27
3.92133	29
3.92500	24
3.92867	16
3.93233	10
3.93600	10
3.93967	13
3.94333	17
3.94700	19
3.95067	17
3.95433	12
3.95800	7
3.96167	2
3.96533	-0
3.96900	-1
3.97267	-1
3.97633	1
3.98000	4
3.98367	6
3.98733	12
3.99100	19
3.99467	22
3.99833	19

[Chromatogram (Ch2)]
Interval(msec)	220
# of Points	1091
Start Time(min)	0.002
End Time(min)	3.998
R.Time (min)	Intensity
0.00167	-1
0.00533	-1
0.00900	-1
0.01267	-1
0.01633	-1
0.02000	-1
0.02367	-1
0.02733	-1
0.03100	-1
0.03467	-1
0.03833	-1
0.04200	-1
0.04567	-1
0.04933	-1
0.05300	-0
0.05667	-0
0.06033	0
0.06400	0
0.06767	1
0.07133	1
0.07500	1
0.07867	1
0.08233	1
0.08600	1
0.08967	1
0.09333	1
0.09700	1
0.10067	0
0.10433	-0
0.10800	-0
0.11167	-0
0.11533	-0
0.11900	-0
0.12267	-0
0.12633	0
0.13000	1
0.13367	1
0.13733	2
0.14100	2
0.14467	2
0.14833	3
0.15200	3
0.15567	3
0.15933	3
0.16300	3
0.16667	3
0.17033	4
0.17400	4
0.17767	5
0.18133	5
0.18500	5
0.18867	6
0.19233	6
0.19600	6
0.19967	6
0.20333	6
0.20700	6
0.21067	6
0.21433	6
0.21800	6
0.22167	6
0.22533	6
0.22900	6
0.23267	6
0.23633	5
0.24000	5
0.24367	5
0.24733	5
0.25100	5
0.25467	4
0.25833	4
0.26200	3
0.26567	3
0.26933	2
0.27300	2
0.27667	2
0.28033	2
0.28400	2
0.28767	1
0.29133	1
0.29500	1
0.29867	0
0.30233	0
0.30600	-0
0.30967	-0
0.31333	-1
0.31700	-1
0.32067	-1
0.32433	-1
0.32800	-1
0.33167	-1
0.33533	-1
0.33900	-1
0.34267	-0
0.34633	-0
0.35000	-0
0.35367	-0
0.35733	-0
0.36100	-0
0.36467	-0
0.36833	-0
0.37200	0
0.37567	0
0.37933	0
0.38300	1
0.38667	1
0.39033	1
0.39400	1
0.39767	1
0.40133	1
0.40500	1
0.40867	1
0.41233	1
0.41600	1
0.41967	1
0.42333	1
0.42700	1
0.43067	1
0.43433	0
0.43800	-0
0.44167	-0
0.44533	-1
0.44900	-1
0.45267	-1
0.45633	-1
0.46000	-1
0.46367	-1
0.46733	-1
0.47100	-0
0.47467	0
0.47833	0
0.48200	1
0.48567	1
0.48933	1
0.49300	1
0.49667	1
0.50033	1
0.50400	1
0.50767	1
0.51133	1
0.51500	0
0.51867	0
0.52233	0
0.52600	0
0.52967	0
0.53333	0
0.53700	0
0.54067	0
0.54433	0
0.54800	0
0.55167	0
0.55533	0
0.55900	1
0.56267	1
0.56633	1
0.57000	1
0.57367	1
0.57733	1
0.58100	1
0.58467	2
0.58833	2
0.59200	2
0.59567	2
0.59933	2
0.60300	2
0.60667	3
0.61033	3
0.61400	3
0.61767	3
0.62133	3
0.62500	3
0.62867	3
0.63233	3
0.63600	4
0.63967	4
0.64333	4
0.64700	4
0.65067	4
0.65433	4
0.65800	4
0.66167	4
0.66533	4
0.66900	4
0.67267	4
0.67633	3
0.68000	3
0.68367	3
0.68733	3
0.69100	3
0.69467	3
0.69833	3
0.70200	3
0.70567	2
0.70933	2
0.71300	2
0.71667	2
0.72033	1
0.72400	1
0.72767	1
0.73133	1
0.73500	1
0.73867	1
0.74233	1
0.74600	1
0.74967	1
0.75333	1
0.75700	1
0.76067	1
0.76433	0
0.76800	0
0.77167	0
0.77533	0
0.77900	0
0.78267	0
0.78633	1
0.79000	1
0.79367	1
0.79733	2
0.80100	2
0.80467	2
0.80833	1
0.81200	1
0.81567	1
0.81933	1
0.82300	1
0.82667	1
0.83033	1
0.83400	0
0.83767	0
0.84133	-0
0.84500	-1
0.84867	-1
0.85233	-1
0.85600	-2
0.85967	-2
0.86333	-2
0.86700	-2
0.87067	-3
0.87433	-3
0.87800	-3
0.88167	-3
0.88533	-3
0.88900	-3
0.89267	-3
0.89633	-3
0.90000	-3
0.90367	-2
0.90733	-2
0.91100	-2
0.91467	-1
0.91833	-1
0.92200	-0
0.92567	0
0.92933	1
0.93300	1
0.93667	1
0.94033	1
0.94400	1
0.94767	1
0.95133	1
0.95500	0
0.95867	0
0.96233	0
0.96600	0
0.96967	0
0.97333	-0
0.97700	-0
0.98067	-1
0.98433	-1
0.98800	-1
0.99167	-1
0.99533	-1
0.99900	-1
1.00267	-1
1.00633	-1
1.01000	-1
1.01367	-0
1.01733	-0
1.02100	-0
1.02467	-0
1.02833	0
1.03200	0
1.03567	0
1.03933	0
1.04300	0
1.04667	1
1.05033	1
1.05400	1
1.05767	1
1.06133	1
1.06500	1
1.06867	1
1.07233	0
1.07600	-0
1.07967	-1
1.08333	-1
1.08700	-1
1.09067	-0
1.09433	-0
1.09800	-0
1.10167	-0
1.10533	0
1.10900	0
1.11267	1
1.11633	1
1.12000	1
1.12367	1
1.12733	1
1.13100	1
1.13467	1
1.13833	1
1.14200	1
1.14567	1
1.14933	1
1.15300	1
1.15667	1
1.16033	1
1.16400	1
1.16767	1
1.17133	1
1.17500	1
1.17867	1
1.18233	1
1.18600	1
1.18967	1
1.19333	1
1.19700	1
1.20067	1
1.20433	1
1.20800	0
1.21167	1
1.21533	1
1.21900	1
1.22267	1
1.22633	1
1.23000	1
1.23367	1
1.23733	1
1.24100	1
1.24467	1
1.24833	1
1.25200	1
1.25567	1
1.25933	1
1.26300	1
1.26667	1
1.27033	1
1.27400	1
1.27767	1
1.28133	1
1.28500	1
1.28867	1
1.29233	1
1.29600	1
1.29967	1
1.30333	1
1.30700	0
1.31067	0
1.31433	-0
1.31800	-0
1.32167	-1
1.32533	-1
1.32900	-1
1.33267	-1
1.33633	-1
1.34000	-2
1.34367	-1
1.34733	-1
1.35100	-1
1.35467	-1
1.35833	-1
1.36200	-1
1.36567	-1
1.36933	-1
1.37300	-1
1.37667	-1
1.38033	-1
1.38400	-1
1.38767	-1
1.39133	-1
1.39500	-1
1.39867	-1
1.40233	-1
1.40600	-1
1.40967	-0
1.41333	-0
1.41700	-0
1.42067	0
1.42433	0
1.42800	0
1.43167	0
1.43533	0
1.43900	0
1.44267	0
1.44633	0
1.45000	0
1.45367	0
1.45733	-0
1.46100	-0
1.46467	-0
1.46833	0
1.47200	0
1.47567	0
1.47933	0
1.48300	0
1.48667	1
1.49033	1
1.49400	1
1.49767	1
1.50133	1
1.50500	1
1.50867	1
1.51233	1
1.51600	1
1.51967	0
1.52333	0
1.52700	-0
1.53067	-0
1.53433	-1
1.53800	-1
1.54167	-2
1.54533	-2
1.54900	-2
1.55267	-3
1.55633	-3
1.56000	-3
1.56367	-3
1.56733	-3
1.57100	-2
1.57467	-2
1.57833	-2
1.58200	-2
1.58567	-2
1.58933	-2
1.59300	-2
1.59667	-2
1.60033	-3
1.60400	-4
1.60767	-5
1.61133	-6
1.61500	-8
1.61867	-10
1.62233	-13
1.62600	-16
1.62967	-19
1.63333	-22
1.63700	-25
1.64067	-29
1.64433	-33
1.64800	-37
1.65167	-41
1.65533	-45
1.65900	-49
1.66267	-53
1.66633	-57
1.67000	-62
1.67367	-67
1.67733	-72
1.68100	-78
1.68467	-83
1.68833	-88
1.69200	-92
1.69567	-96
1.69933	-99
1.70300	-102
1.70667	-104
1.71033	-106
1.71400	-107
1.71767	-109
1.72133	-109
1.72500	-110
1.72867	-110
1.73233	-110
1.73600	-109
1.73967	-108
1.74333	-108
1.74700	-107
1.75067	-107
1.75433	-107
1.75800	-107
1.76167	-108
1.76533	-109
1.76900	-110
1.77267	-111
1.77633	-112
1.78000	-112
1.78367	-113
1.78733	-113
1.79100	-114
1.79467	-114
1.79833	-115
1.80200	-115
1.80567	-116
1.80933	-116
1.81300	-116
1.81667	-115
1.82033	-115
1.82400	-114
1.82767	-114
1.83133	-114
1.83500	-115
1.83867	-115
1.84233	-116
1.84600	-116
1.84967	-117
1.85333	-117
1.85700	-117
1.86067	-118
1.86433	-117
1.86800	-117
1.87167	-117
1.87533	-116
1.87900	-115
1.88267	-114
1.88633	-113
1.89000	-112
1.89367	-112
1.89733	-111
1.90100	-111
1.90467	-111
1.90833	-111
1.91200	-111
1.91567	-111
1.91933	-111
1.92300	-111
1.92667	-111
1.93033	-111
1.93400	-111
1.93767	-112
1.94133	-112
1.94500	-113
1.94867	-113
1.95233	-112
1.95600	-112
1.95967	-112
1.96333	-112
1.96700	-112
1.97067	-112
1.97433	-112
1.97800	-112
1.98167	-111
1.98533	-111
1.98900	-110
1.99267	-109
1.99633	-109
2.00000	-108
2.00367	-108
2.00733	-107
2.01100	-107
2.01467	-106
2.01833	-106
2.02200	-106
2.02567	-106
2.02933	-106
2.03300	-105
2.03667	-105
2.04033	-104
2.04400	-104
2.04767	-103
2.05133	-103
2.05500	-103
2.05867	-103
2.06233	-103
2.06600	-103
2.06967	-103
2.07333	-103
2.07700	-102
2.08067	-102
2.08433	-101
2.08800	-101
2.09167	-100
2.09533	-99
2.09900	-99
2.10267	-99
2.10633	-99
2.11000	-99
2.11367	-99
2.11733	-99
2.12100	-99
2.12467	-99
2.12833	-98
2.13200	-98
2.13567	-97
2.13933	-96
2.14300	-96
2.14667	-95
2.15033	-95
2.15400	-94
2.15767	-93
2.16133	-93
2.16500	-93
2.16867	-93
2.17233	-93
2.17600	-93
2.17967	-93
2.18333	-92
2.18700	-91
2.19067	-90
2.19433	-90
2.19800	-89
2.20167	-89
2.20533	-89
2.20900	-90
2.21267	-90
2.21633	-90
2.22000	-90
2.22367	-90
2.22733	-90
2.23100	-91
2.23467	-91
2.23833	-91
2.24200	-90
2.24567	-90
2.24933	-90
2.25300	-89
2.25667	-88
2.26033	-87
2.26400	-86
2.26767	-85
2.27133	-84
2.27500	-84
2.27867	-83
2.28233	-82
2.28600	-82
2.28967	-82
2.29333	-82
2.29700	-83
2.30067	-83
2.30433	-82
2.30800	-82
2.31167	-81
2.31533	-81
2.31900	-81
2.32267	-80
2.32633	-80
2.33000	-80
2.33367	-79
2.33733	-79
2.34100	-79
2.34467	-79
2.34833	-79
2.35200	-78
2.35567	-77
2.35933	-76
2.36300	-74
2.36667	-73
2.37033	-71
2.37400	-68
2.37767	-65
2.38133	-61
2.38500	-58
2.38867	-54
2.39233	-49
2.39600	-45
2.39967	-41
2.40333	-36
2.40700	-32
2.41067	-28
2.41433	-25
2.41800	-22
2.42167	-20
2.42533	-18
2.42900	-17
2.43267	-15
2.43633	-14
2.44000	-12
2.44367	-11
2.44733	-9
2.45100	-7
2.45467	-5
2.45833	-4
2.46200	-3
2.46567	-1
2.46933	0
2.47300	2
2.47667	3
2.48033	4
2.48400	5
2.48767	5
2.49133	6
2.49500	7
2.49867	8
2.50233	8
2.50600	8
2.50967	8
2.51333	9
2.51700	9
2.52067	10
2.52433	11
2.52800	11
2.53167	12
2.53533	13
2.53900	14
2.54267	14
2.54633	15
2.55000	15
2.55367	14
2.55733	14
2.56100	14
2.56467	13
2.56833	14
2.57200	14
2.57567	14
2.57933	15
2.58300	15
2.58667	15
2.59033	15
2.59400	14
2.59767	14
2.60133	15
2.60500	15
2.60867	16
2.61233	16
2.61600	17
2.61967	17
2.62333	17
2.62700	18
2.63067	18
2.63433	19
2.63800	19
2.64167	19
2.64533	20
2.64900	20
2.65267	20
2.65633	21
2.66000	21
2.66367	21
2.66733	22
2.67100	22
2.67467	22
2.67833	23
2.68200	23
2.68567	23
2.68933	23
2.69300	23
2.69667	23
2.70033	24
2.70400	24
2.70767	24
2.71133	25
2.71500	25
2.71867	26
2.72233	26
2.72600	26
2.72967	26
2.73333	26
2.73700	26
2.74067	26
2.74433	26
2.74800	27
2.75167	27
2.75533	27
2.75900	27
2.76267	27
2.76633	28
2.77000	28
2.77367	28
2.77733	28
2.78100	27
2.78467	26
2.78833	26
2.79200	25
2.79567	24
2.79933	24
2.80300	24
2.80667	24
2.81033	24
2.81400	24
2.81767	25
2.82133	25
2.82500	25
2.82867	25
2.83233	25
2.83600	25
2.83967	23
2.84333	21
2.84700	16
2.85067	8
2.85433	-2
2.85800	-16
2.86167	-34
2.86533	-57
2.86900	-83
2.87267	-115
2.87633	-150
2.88000	-189
2.88367	-232
2.88733	-278
2.89100	-326
2.89467	-377
2.89833	-430
2.90200	-484
2.90567	-538
2.90933	-593
2.91300	-648
2.91667	-702
2.92033	-755
2.92400	-807
2.92767	-858
2.93133	-912
2.93500	-971
2.93867	-1029
2.94233	-1076
2.94600	-1104
2.94967	-1105
2.95333	-1081
2.95700	-1034
2.96067	-971
2.96433	-898
2.96800	-818
2.97167	-737
2.97533	-657
2.97900	-581
2.98267	-510
2.98633	-445
2.99000	-386
2.99367	-333
2.99733	-286
3.00100	-245
3.00467	-209
3.00833	-177
3.01200	-149
3.01567	-125
3.01933	-105
3.02300	-87
3.02667	-72
3.03033	-59
3.03400	-48
3.03767	-39
3.04133	-31
3.04500	-24
3.04867	-18
3.05233	-13
3.05600	-9
3.05967	-5
3.06333	-2
3.06700	-0
3.07067	2
3.07433	3
3.07800	5
3.08167	6
3.08533	7
3.08900	8
3.09267	9
3.09633	10
3.10000	11
3.10367	11
3.10733	12
3.11100	13
3.11467	14
3.11833	14
3.12200	15
3.12567	16
3.12933	16
3.13300	17
3.13667	17
3.14033	18
3.14400	18
3.14767	18
3.15133	19
3.15500	19
3.15867	19
3.16233	20
3.16600	20
3.16967	20
3.17333	21
3.17700	21
3.18067	21
3.18433	21
3.18800	21
3.19167	20
3.19533	20
3.19900	20
3.20267	20
3.20633	20
3.21000	20
3.21367	20
3.21733	21
3.22100	21
3.22467	21
3.22833	21
3.23200	21
3.23567	22
3.23933	22
3.24300	22
3.24667	22
3.25033	22
3.25400	22
3.25767	23
3.26133	23
3.26500	23
3.26867	23
3.27233	24
3.27600	24
3.27967	24
3.28333	25
3.28700	25
3.29067	26
3.29433	26
3.29800	27
3.30167	27
3.30533	27
3.30900	27
3.31267	27
3.31633	27
3.32000	28
3.32367	28
3.32733	28
3.33100	28
3.33467	28
3.33833	28
3.34200	28
3.34567	28
3.34933	28
3.35300	28
3.35667	28
3.36033	28
3.36400	28
3.36767	28
3.37133	28
3.37500	28
3.37867	28
3.38233	28
3.38600	28
3.38967	28
3.39333	28
3.39700	28
3.40067	28
3.40433	28
3.40800	28
3.41167	27
3.41533	27
3.41900	27
3.42267	27
3.42633	27
3.43000	27
3.43367	27
3.43733	27
3.44100	27
3.44467	28
3.44833	28
3.45200	28
3.45567	28
3.45933	28
3.46300	28
3.46667	28
3.47033	28
3.47400	28
3.47767	28
3.48133	28
3.48500	29
3.48867	29
3.49233	29
3.49600	29
3.49967	30
3.50333	30
3.50700	29
3.51067	29
3.51433	29
3.51800	29
3.52167	29
3.52533	28
3.52900	28
3.53267	28
3.53633	28
3.54000	28
3.54367	28
3.54733	28
3.55100	28
3.55467	28
3.55833	28
3.56200	28
3.56567	28
3.56933	28
3.57300	28
3.57667	27
3.58033	27
3.58400	27
3.58767	27
3.59133	27
3.59500	28
3.59867	28
3.60233	28
3.60600	28
3.60967	28
3.61333	28
3.61700	28
3.62067	28
3.62433	28
3.62800	28
3.63167	28
3.63533	28
3.63900	28
3.64267	28
3.64633	27
3.65000	27
3.65367	27
3.65733	27
3.66100	28
3.66467	28
3.66833	28
3.67200	28
3.67567	28
3.67933	28
3.68300	28
3.68667	28
3.69033	28
3.69400	28
3.69767	28
3.70133	28
3.70500	28
3.70867	28
3.71233	28
3.71600	28
3.71967	27
3.72333	27
3.72700	27
3.73067	27
3.73433	26
3.73800	26
3.74167	26
3.74533	26
3.74900	26
3.75267	26
3.75633	26
3.76000	26
3.76367	26
3.76733	26
3.77100	26
3.77467	26
3.77833	26
3.78200	26
3.78567	26
3.78933	26
3.79300	26
3.79667	26
3.80033	25
3.80400	25
3.80767	25
3.81133	25
3.81500	26
3.81867	26
3.82233	26
3.82600	27
3.82967	27
3.83333	27
3.83700	27
3.84067	28
3.84433	27
3.84800	27
3.85167	27
3.85533	27
3.85900	27
3.86267	27
3.86633	28
3.87000	28
3.87367	28
3.87733	28
3.88100	28
3.88467	28
3.88833	28
3.89200	28
3.89567	28
3.89933	28
3.90300	28
3.90667	28
3.91033	28
3.91400	28
3.91767	28
3.92133	28
3.92500	28
3.92867	28
3.93233	28
3.93600	28
3.93967	28
3.94333	29
3.94700	29
3.95067	29
3.95433	29
3.95800	29
3.96167	29
3.96533	29
3.96900	29
3.97267	29
3.97633	29
3.98000	29
3.98367	29
3.98733	30
3.99100	30
3.99467	30
3.99833	30

[Chromatogram (Ch3)]
Interval(msec)	220
# of Points	1091
Start Time(min)	0.002
End Time(min)	3.998
R.Time (min)	Intensity
0.00167	0
0.00533	-0
0.00900	1
0.01267	3
0.01633	4
0.02000	5
0.02367	6
0.02733	7
0.03100	7
0.03467	7
0.03833	11
0.04200	14
0.04567	13
0.04933	12
0.05300	10
0.05667	8
0.06033	7
0.06400	7
0.06767	7
0.07133	5
0.07500	4
0.07867	2
0.08233	1
0.08600	1
0.08967	0
0.09333	1
0.09700	1
0.10067	1
0.10433	3
0.10800	2
0.11167	4
0.11533	7
0.11900	9
0.12267	8
0.12633	7
0.13000	7
0.13367	7
0.13733	7
0.14100	4
0.14467	4
0.14833	5
0.15200	6
0.15567	7
0.15933	8
0.16300	8
0.16667	8
0.17033	6
0.17400	2
0.17767	1
0.18133	3
0.18500	6
0.18867	6
0.19233	6
0.19600	6
0.19967	5
0.20333	4
0.20700	4
0.21067	4
0.21433	2
0.21800	2
0.22167	4
0.22533	5
0.22900	3
0.23267	2
0.23633	4
0.24000	6
0.24367	7
0.24733	6
0.25100	6
0.25467	8
0.25833	7
0.26200	6
0.26567	5
0.26933	5
0.27300	6
0.27667	8
0.28033	8
0.28400	8
0.28767	9
0.29133	8
0.29500	10
0.29867	11
0.30233	11
0.30600	10
0.30967	10
0.31333	9
0.31700	11
0.32067	12
0.32433	12
0.32800	14
0.33167	15
0.33533	13
0.33900	13
0.34267	13
0.34633	11
0.35000	11
0.35367	11
0.35733	12
0.36100	12
0.36467	12
0.36833	12
0.37200	11
0.37567	11
0.37933	11
0.38300	12
0.38667	12
0.39033	13
0.39400	12
0.39767	12
0.40133	11
0.40500	11
0.40867	11
0.41233	11
0.41600	11
0.41967	11
0.42333	9
0.42700	9
0.43067	10
0.43433	11
0.43800	12
0.44167	12
0.44533	13
0.44900	14
0.45267	14
0.45633	13
0.46000	13
0.46367	13
0.46733	14
0.47100	14
0.47467	14
0.47833	13
0.48200	10
0.48567	9
0.48933	8
0.49300	7
0.49667	8
0.50033	8
0.50400	9
0.50767	10
0.51133	12
0.51500	13
0.51867	13
0.52233	12
0.52600	11
0.52967	9
0.53333	8
0.53700	8
0.54067	8
0.54433	6
0.54800	5
0.55167	5
0.55533	6
0.55900	5
0.56267	5
0.56633	4
0.57000	4
0.57367	7
0.57733	10
0.58100	13
0.58467	14
0.58833	15
0.59200	14
0.59567	13
0.59933	11
0.60300	7
0.60667	5
0.61033	5
0.61400	5
0.61767	5
0.62133	6
0.62500	7
0.62867	6
0.63233	7
0.63600	6
0.63967	5
0.64333	4
0.64700	5
0.65067	6
0.65433	7
0.65800	8
0.66167	7
0.66533	8
0.66900	10
0.67267	11
0.67633	10
0.68000	12
0.68367	13
0.68733	13
0.69100	12
0.69467	9
0.69833	6
0.70200	4
0.70567	5
0.70933	4
0.71300	4
0.71667	7
0.72033	10
0.72400	14
0.72767	13
0.73133	12
0.73500	11
0.73867	9
0.74233	9
0.74600	10
0.74967	9
0.75333	10
0.75700	10
0.76067	10
0.76433	10
0.76800	11
0.77167	11
0.77533	12
0.77900	12
0.78267	12
0.78633	11
0.79000	10
0.79367	13
0.79733	15
0.80100	15
0.80467	15
0.80833	15
0.81200	15
0.81567	15
0.81933	15
0.82300	15
0.82667	16
0.83033	19
0.83400	19
0.83767	17
0.84133	14
0.84500	13
0.84867	13
0.85233	13
0.85600	13
0.85967	12
0.86333	14
0.86700	15
0.87067	17
0.87433	17
0.87800	16
0.88167	14
0.88533	13
0.88900	12
0.89267	11
0.89633	10
0.90000	10
0.90367	11
0.90733	12
0.91100	14
0.91467	15
0.91833	17
0.92200	18
0.92567	19
0.92933	17
0.93300	17
0.93667	18
0.94033	16
0.94400	15
0.94767	14
0.95133	13
0.95500	14
0.95867	16
0.96233	17
0.96600	17
0.96967	16
0.97333	15
0.97700	16
0.98067	19
0.98433	22
0.98800	20
0.99167	18
0.99533	17
0.99900	15
1.00267	15
1.00633	19
1.01000	21
1.01367	21
1.01733	22
1.02100	22
1.02467	22
1.02833	20
1.03200	18
1.03567	19
1.03933	19
1.04300	21
1.04667	22
1.05033	23
1.05400	24
1.05767	24
1.06133	24
1.06500	24
1.06867	25
1.07233	22
1.07600	19
1.07967	16
1.08333	16
1.08700	15
1.09067	16
1.09433	19
1.09800	21
1.10167	22
1.10533	24
1.10900	24
1.11267	23
1.11633	22
1.12000	23
1.12367	22
1.12733	23
1.13100	22
1.13467	21
1.13833	22
1.14200	22
1.14567	19
1.14933	18
1.15300	20
1.15667	20
1.16033	21
1.16400	21
1.16767	23
1.17133	24
1.17500	25
1.17867	25
1.18233	25
1.18600	26
1.18967	27
1.19333	27
1.19700	26
1.20067	26
1.20433	28
1.20800	29
1.21167	29
1.21533	30
1.21900	31
1.22267	29
1.22633	27
1.23000	26
1.23367	23
1.23733	20
1.24100	20
1.24467	19
1.24833	23
1.25200	27
1.25567	28
1.25933	28
1.26300	27
1.26667	26
1.27033	25
1.27400	25
1.27767	24
1.28133	23
1.28500	21
1.28867	21
1.29233	19
1.29600	20
1.29967	22
1.30333	23
1.30700	24
1.31067	25
1.31433	25
1.31800	25
1.32167	24
1.32533	24
1.32900	25
1.33267	27
1.33633	28
1.34000	30
1.34367	32
1.34733	33
1.35100	33
1.35467	33
1.35833	30
1.36200	26
1.36567	25
1.36933	26
1.37300	27
1.37667	26
1.38033	26
1.38400	27
1.38767	27
1.39133	28
1.39500	28
1.39867	27
1.40233	29
1.40600	28
1.40967	28
1.41333	30
1.41700	31
1.42067	31
1.42433	32
1.42800	34
1.43167	35
1.43533	36
1.43900	35
1.44267	35
1.44633	36
1.45000	36
1.45367	36
1.45733	37
1.46100	37
1.46467	35
1.46833	36
1.47200	35
1.47567	35
1.47933	37
1.48300	40
1.48667	42
1.49033	43
1.49400	42
1.49767	40
1.50133	39
1.50500	40
1.50867	39
1.51233	38
1.51600	39
1.51967	40
1.52333	40
1.52700	38
1.53067	39
1.53433	38
1.53800	37
1.54167	34
1.54533	33
1.54900	34
1.55267	35
1.55633	34
1.56000	35
1.56367	36
1.56733	37
1.57100	38
1.57467	37
1.57833	38
1.58200	37
1.58567	35
1.58933	32
1.59300	32
1.59667	34
1.60033	38
1.60400	40
1.60767	40
1.61133	40
1.61500	39
1.61867	38
1.62233	37
1.62600	36
1.62967	37
1.63333	37
1.63700	37
1.64067	35
1.64433	36
1.64800	37
1.65167	36
1.65533	35
1.65900	34
1.66267	33
1.66633	33
1.67000	34
1.67367	35
1.67733	36
1.68100	36
1.68467	36
1.68833	38
1.69200	43
1.69567	46
1.69933	46
1.70300	44
1.70667	42
1.71033	41
1.71400	39
1.71767	40
1.72133	43
1.72500	44
1.72867	42
1.73233	40
1.73600	40
1.73967	41
1.74333	43
1.74700	43
1.75067	42
1.75433	44
1.75800	47
1.76167	50
1.76533	50
1.76900	49
1.77267	47
1.77633	47
1.78000	47
1.78367	47
1.78733	46
1.79100	45
1.79467	45
1.79833	46
1.80200	51
1.80567	52
1.80933	52
1.81300	51
1.81667	51
1.82033	52
1.82400	53
1.82767	53
1.83133	53
1.83500	54
1.83867	54
1.84233	56
1.84600	57
1.84967	58
1.85333	57
1.85700	60
1.86067	63
1.86433	65
1.86800	67
1.87167	68
1.87533	68
1.87900	67
1.88267	67
1.88633	67
1.89000	68
1.89367	70
1.89733	71
1.90100	70
1.90467	71
1.90833	73
1.91200	75
1.91567	75
1.91933	74
1.92300	74
1.92667	75
1.93033	74
1.93400	74
1.93767	75
1.94133	75
1.94500	75
1.94867	76
1.95233	75
1.95600	75
1.95967	77
1.96333	79
1.96700	80
1.97067	78
1.97433	76
1.97800	77
1.98167	80
1.98533	82
1.98900	82
1.99267	84
1.99633	86
2.00000	86
2.00367	84
2.00733	84
2.01100	86
2.01467	87
2.01833	87
2.02200	88
2.02567	90
2.02933	90
2.03300	91
2.03667	91
2.04033	90
2.04400	90
2.04767	90
2.05133	90
2.05500	92
2.05867	95
2.06233	95
2.06600	94
2.06967	93
2.07333	94
2.07700	98
2.08067	100
2.08433	100
2.08800	101
2.09167	101
2.09533	99
2.09900	99
2.10267	101
2.10633	104
2.11000	105
2.11367	107
2.11733	111
2.12100	115
2.12467	116
2.12833	115
2.13200	116
2.13567	118
2.13933	120
2.14300	119
2.14667	119
2.15033	119
2.15400	118
2.15767	118
2.16133	121
2.16500	125
2.16867	128
2.17233	130
2.17600	132
2.17967	134
2.18333	134
2.18700	135
2.19067	135
2.19433	135
2.19800	135
2.20167	136
2.20533	138
2.20900	141
2.21267	143
2.21633	143
2.22000	144
2.22367	146
2.22733	146
2.23100	148
2.23467	149
2.23833	148
2.24200	149
2.24567	153
2.24933	156
2.25300	157
2.25667	158
2.26033	161
2.26400	162
2.26767	162
2.27133	162
2.27500	166
2.27867	168
2.28233	166
2.28600	166
2.28967	166
2.29333	166
2.29700	168
2.30067	171
2.30433	174
2.30800	177
2.31167	179
2.31533	180
2.31900	183
2.32267	186
2.32633	191
2.33000	191
2.33367	191
2.33733	192
2.34100	192
2.34467	195
2.34833	199
2.35200	202
2.35567	203
2.35933	208
2.36300	210
2.36667	209
2.37033	209
2.37400	211
2.37767	212
2.38133	212
2.38500	213
2.38867	214
2.39233	215
2.39600	218
2.39967	223
2.40333	228
2.40700	232
2.41067	236
2.41433	241
2.41800	245
2.42167	249
2.42533	251
2.42900	254
2.43267	256
2.43633	257
2.44000	259
2.44367	299
2.44733	414
2.45100	543
2.45467	649
2.45833	713
2.46200	715
2.46567	672
2.46933	619
2.47300	574
2.47667	546
2.48033	530
2.48400	511
2.48767	481
2.49133	444
2.49500	405
2.49867	372
2.50233	347
2.50600	329
2.50967	317
2.51333	311
2.51700	312
2.52067	320
2.52433	333
2.52800	347
2.53167	361
2.53533	370
2.53900	372
2.54267	366
2.54633	353
2.55000	335
2.55367	314
2.55733	293
2.56100	275
2.56467	258
2.56833	243
2.57200	233
2.57567	225
2.57933	218
2.58300	215
2.58667	212
2.59033	211
2.59400	207
2.59767	200
2.60133	191
2.60500	178
2.60867	164
2.61233	151
2.61600	133
2.61967	114
2.62333	102
2.62700	96
2.63067	90
2.63433	88
2.63800	89
2.64167	96
2.64533	108
2.64900	121
2.65267	132
2.65633	140
2.66000	148
2.66367	152
2.66733	156
2.67100	159
2.67467	157
2.67833	154
2.68200	152
2.68567	150
2.68933	148
2.69300	143
2.69667	135
2.70033	128
2.70400	125
2.70767	121
2.71133	117
2.71500	111
2.71867	108
2.72233	106
2.72600	105
2.72967	105
2.73333	107
2.73700	109
2.74067	111
2.74433	111
2.74800	113
2.75167	115
2.75533	114
2.75900	113
2.76267	114
2.76633	116
2.77000	117
2.77367	117
2.77733	116
2.78100	116
2.78467	118
2.78833	120
2.79200	120
2.79567	119
2.79933	117
2.80300	117
2.80667	117
2.81033	119
2.81400	125
2.81767	133
2.82133	153
2.82500	198
2.82867	282
2.83233	428
2.83600	662
2.83967	998
2.84333	1439
2.84700	1972
2.85067	2569
2.85433	3184
2.85800	3770
2.86167	4278
2.86533	4669
2.86900	4916
2.87267	5012
2.87633	4970
2.88000	4813
2.88367	4568
2.88733	4262
2.89100	3920
2.89467	3564
2.89833	3213
2.90200	2877
2.90567	2561
2.90933	2270
2.91300	2007
2.91667	1774
2.92033	1567
2.92400	1384
2.92767	1222
2.93133	1082
2.93500	962
2.93867	857
2.94233	764
2.94600	683
2.94967	612
2.95333	551
2.95700	499
2.96067	453
2.96433	411
2.96800	376
2.97167	346
2.97533	321
2.97900	300
2.98267	282
2.98633	265
2.99000	248
2.99367	232
2.99733	216
3.00100	203
3.00467	190
3.00833	180
3.01200	172
3.01567	165
3.01933	158
3.02300	149
3.02667	143
3.03033	139
3.03400	135
3.03767	133
3.04133	128
3.04500	122
3.04867	117
3.05233	115
3.05600	114
3.05967	113
3.06333	111
3.06700	110
3.07067	108
3.07433	106
3.07800	104
3.08167	102
3.08533	100
3.08900	98
3.09267	96
3.09633	93
3.10000	91
3.10367	91
3.10733	92
3.11100	91
3.11467	89
3.11833	88
3.12200	88
3.12567	87
3.12933	87
3.13300	88
3.13667	87
3.14033	86
3.14400	87
3.14767	87
3.15133	89
3.15500	90
3.15867	89
3.16233	89
3.16600	90
3.16967	90
3.17333	91
3.17700	91
3.18067	92
3.18433	90
3.18800	88
3.19167	87
3.19533	88
3.19900	89
3.20267	89
3.20633	89
3.21000	90
3.21367	90
3.21733	91
3.22100	94
3.22467	98
3.22833	100
3.23200	101
3.23567	101
3.23933	100
3.24300	99
3.24667	100
3.25033	99
3.25400	99
3.25767	100
3.26133	101
3.26500	101
3.26867	100
3.27233	99
3.27600	97
3.27967	96
3.28333	94
3.28700	92
3.29067	92
3.29433	93
3.29800	95
3.30167	96
3.30533	95
3.30900	96
3.31267	99
3.31633	99
3.32000	98
3.32367	97
3.32733	98
3.33100	99
3.33467	99
3.33833	95
3.34200	95
3.34567	97
3.34933	98
3.35300	100
3.35667	97
3.36033	97
3.36400	98
3.36767	101
3.37133	103
3.37500	105
3.37867	106
3.38233	107
3.38600	108
3.38967	108
3.39333	111
3.39700	112
3.40067	112
3.40433	111
3.40800	111
3.41167	110
3.41533	110
3.41900	111
3.42267	112
3.42633	114
3.43000	113
3.43367	112
3.43733	112
3.44100	112
3.44467	112
3.44833	111
3.45200	112
3.45567	114
3.45933	115
3.46300	117
3.46667	119
3.47033	122
3.47400	124
3.47767	124
3.48133	124
3.48500	123
3.48867	122
3.49233	124
3.49600	126
3.49967	128
3.50333	132
3.50700	135
3.51067	135
3.51433	136
3.51800	137
3.52167	138
3.52533	138
3.52900	137
3.53267	137
3.53633	139
3.54000	139
3.54367	139
3.54733	140
3.55100	141
3.55467	141
3.55833	140
3.56200	138
3.56567	139
3.56933	139
3.57300	141
3.57667	141
3.58033	142
3.58400	142
3.58767	141
3.59133	140
3.59500	139
3.59867	139
3.60233	137
3.60600	113
3.60967	78
3.61333	53
3.61700	40
3.62067	35
3.62433	36
3.62800	43
3.63167	55
3.63533	73
3.63900	95
3.64267	116
3.64633	136
3.65000	153
3.65367	172
3.65733	192
3.66100	211
3.66467	229
3.66833	246
3.67200	262
3.67567	278
3.67933	294
3.68300	311
3.68667	324
3.69033	337
3.69400	345
3.69767	354
3.70133	363
3.70500	371
3.70867	379
3.71233	387
3.71600	392
3.71967	396
3.72333	400
3.72700	402
3.73067	405
3.73433	410
3.73800	415
3.74167	418
3.74533	422
3.74900	426
3.75267	430
3.75633	435
3.76000	437
3.76367	438
3.76733	438
3.77100	438
3.77467	440
3.77833	440
3.78200	439
3.78567	436
3.78933	435
3.79300	433
3.79667	432
3.80033	433
3.80400	435
3.80767	437
3.81133	438
3.81500	439
3.81867	440
3.82233	440
3.82600	438
3.82967	438
3.83333	441
3.83700	441
3.84067	439
3.84433	437
3.84800	435
3.85167	433
3.85533	433
3.85900	434
3.86267	433
3.86633	432
3.87000	431
3.87367	431
3.87733	431
3.88100	431
3.88467	434
3.88833	436
3.89200	437
3.89567	438
3.89933	438
3.90300	437
3.90667	436
3.91033	434
3.91400	434
3.91767	436
3.92133	436
3.92500	436
3.92867	436
3.93233	437
3.93600	437
3.93967	436
3.94333	437
3.94700	438
3.95067	438
3.95433	438
3.95800	441
3.96167	442
3.96533	442
3.96900	442
3.97267	441
3.97633	440
3.98000	441
3.98367	442
3.98733	444
3.99100	445
3.99467	444
3.99833	442

[Status Trace (Column Oven Temperature)]
Interval(msec)	1000
# of Points	240
Start Time(min)	0.007
End Time(min)	3.991
Intensity Units	
Intensity Multiplier	1
R.Time (min)	Intensity
0.00735	35.08
0.02402	35.08
0.04068	35.09
0.05735	35.08
0.07402	35.08
0.09068	35.08
0.10735	35.09
0.12402	35.08
0.14068	35.08
0.15735	35.06
0.17402	35.04
0.19068	35.02
0.20735	35.00
0.22402	34.99
0.24068	34.99
0.25735	35.00
0.27402	35.00
0.29068	35.01
0.30735	35.02
0.32402	35.02
0.34068	35.02
0.35735	35.03
0.37402	35.02
0.39068	35.02
0.40735	35.03
0.42402	35.03
0.44068	35.04
0.45735	35.04
0.47402	35.04
0.49068	35.04
0.50735	35.05
0.52402	35.04
0.54068	35.05
0.55735	35.05
0.57402	35.04
0.59068	35.03
0.60735	35.03
0.62402	35.02
0.64068	35.01
0.65735	35.00
0.67402	35.00
0.69068	34.99
0.70735	34.99
0.72402	34.99
0.74068	34.99
0.75735	34.98
0.77402	34.99
0.79068	34.98
0.80735	35.00
0.82402	35.00
0.84068	35.01
0.85735	35.02
0.87402	35.02
0.89068	35.03
0.90735	35.03
0.92402	35.02
0.94068	35.01
0.95735	35.02
0.97402	35.02
0.99068	35.02
1.00735	35.02
1.02402	35.02
1.04068	35.01
1.05735	35.01
1.07402	35.01
1.09068	35.01
1.10735	35.01
1.12402	35.01
1.14068	35.00
1.15735	35.00
1.17402	34.99
1.19068	34.99
1.20735	34.99
1.22402	34.98
1.24068	34.99
1.25735	34.99
1.27402	34.99
1.29068	34.99
1.30735	34.99
1.32402	35.00
1.34068	35.00
1.35735	35.00
1.37402	35.00
1.39068	35.00
1.40735	35.00
1.42402	34.99
1.44068	34.99
1.45735	34.99
1.47402	34.99
1.49068	34.98
1.50735	34.97
1.52402	34.97
1.54068	34.98
1.55735	35.00
1.57402	34.99
1.59068	35.00
1.60735	35.05
1.62402	35.17
1.64068	35.36
1.65735	35.61
1.67402	35.95
1.69068	36.32
1.70735	36.70
1.72402	37.02
1.74068	37.33
1.75735	37.66
1.77402	37.99
1.79068	38.34
1.80735	38.67
1.82402	39.00
1.84068	39.34
1.85735	39.68
1.87402	40.00
1.89068	40.30
1.90735	40.64
1.92402	40.96
1.94068	41.30
1.95735	41.63
1.97402	41.96
1.99068	42.28
2.00735	42.61
2.02402	42.94
2.04068	43.26
2.05735	43.58
2.07402	43.91
2.09068	44.23
2.10735	44.56
2.12402	44.90
2.14068	45.22
2.15735	45.54
2.17402	45.87
2.19068	46.17
2.20735	46.50
2.22402	46.82
2.24068	47.17
2.25735	47.50
2.27402	47.82
2.29068	48.17
2.30735	48.48
2.32402	48.81
2.34068	49.16
2.35735	49.44
2.37402	49.61
2.39068	49.68
2.40735	49.67
2.42402	49.69
2.44068	49.69
2.45735	49.69
2.47402	49.70
2.49068	49.71
2.50735	49.72
2.52402	49.74
2.54068	49.74
2.55735	49.78
2.57402	49.78
2.59068	49.82
2.60735	49.82
2.62402	49.83
2.64068	49.84
2.65735	49.84
2.67402	49.85
2.69068	49.86
2.70735	49.85
2.72402	49.85
2.74068	49.86
2.75735	49.85
2.77402	49.85
2.79068	49.88
2.80735	49.89
2.82402	49.90
2.84068	49.90
2.85735	49.90
2.87402	49.92
2.89068	49.93
2.90735	49.95
2.92402	49.96
2.94068	49.96
2.95735	49.96
2.97402	49.97
2.99068	49.97
3.00735	49.97
3.02402	49.97
3.04068	49.96
3.05735	49.99
3.07402	50.01
3.09068	50.02
3.10735	50.03
3.12402	50.03
3.14068	50.04
3.15735	50.05
3.17402	50.06
3.19068	50.07
3.20735	50.09
3.22402	50.09
3.24068	50.10
3.25735	50.10
3.27402	50.10
3.29068	50.08
3.30735	50.08
3.32402	50.08
3.34068	50.07
3.35735	50.07
3.37402	50.06
3.39068	50.06
3.40735	50.07
3.42402	50.07
3.44068	50.07
3.45735	50.07
3.47402	50.06
3.49068	50.05
3.50735	50.05
3.52402	50.05
3.54068	50.05
3.55735	50.05
3.57402	50.05
3.59068	50.05
3.60735	50.04
3.62402	50.05
3.64068	50.05
3.65735	50.05
3.67402	50.03
3.69068	50.03
3.70735	50.04
3.72402	50.05
3.74068	50.06
3.75735	50.06
3.77402	50.07
3.79068	50.09
3.80735	50.09
3.82402	50.10
3.84068	50.09
3.85735	50.09
3.87402	50.09
3.89068	50.08
3.90735	50.08
3.92402	50.08
3.94068	50.08
3.95735	50.08
3.97402	50.09
3.99068	50.08

[Status Trace (Injection Unit Temperature)]
Interval(msec)	1000
# of Points	240
Start Time(min)	0.007
End Time(min)	3.991
Intensity Units	
Intensity Multiplier	1
R.Time (min)	Intensity
0.00735	99.98
0.02402	99.98
0.04068	99.98
0.05735	99.98
0.07402	99.98
0.09068	99.98
0.10735	99.98
0.12402	99.98
0.14068	99.99
0.15735	99.98
0.17402	99.98
0.19068	99.98
0.20735	99.98
0.22402	99.99
0.24068	99.99
0.25735	99.98
0.27402	99.98
0.29068	99.98
0.30735	99.98
0.32402	99.99
0.34068	99.99
0.35735	99.99
0.37402	99.99
0.39068	99.99
0.40735	99.99
0.42402	99.99
0.44068	99.98
0.45735	99.99
0.47402	99.99
0.49068	99.99
0.50735	99.98
0.52402	99.99
0.54068	99.99
0.55735	99.98
0.57402	99.98
0.59068	99.99
0.60735	99.98
0.62402	99.99
0.64068	99.99
0.65735	99.99
0.67402	99.99
0.69068	99.99
0.70735	99.99
0.72402	99.99
0.74068	99.99
0.75735	99.99
0.77402	99.99
0.79068	99.99
0.80735	99.99
0.82402	99.99
0.84068	99.99
0.85735	99.99
0.87402	99.99
0.89068	99.99
0.90735	99.99
0.92402	99.99
0.94068	99.99
0.95735	99.99
0.97402	99.99
0.99068	99.99
1.00735	99.98
1.02402	99.99
1.04068	99.99
1.05735	99.99
1.07402	99.98
1.09068	99.99
1.10735	99.99
1.12402	99.99
1.14068	99.99
1.15735	99.99
1.17402	99.99
1.19068	99.99
1.20735	99.99
1.22402	99.99
1.24068	99.99
1.25735	99.99
1.27402	99.99
1.29068	99.99
1.30735	99.99
1.32402	99.99
1.34068	99.99
1.35735	99.99
1.37402	99.99
1.39068	99.99
1.40735	99.99
1.42402	99.99
1.44068	99.99
1.45735	99.99
1.47402	99.99
1.49068	99.99
1.50735	99.99
1.52402	99.98
1.54068	99.99
1.55735	99.99
1.57402	99.98
1.59068	99.99
1.60735	99.99
1.62402	99.99
1.64068	99.99
1.65735	99.98
1.67402	99.99
1.69068	99.99
1.70735	99.99
1.72402	99.98
1.74068	99.98
1.75735	99.99
1.77402	99.99
1.79068	99.98
1.80735	99.98
1.82402	99.98
1.84068	99.98
1.85735	99.98
1.87402	99.98
1.89068	99.98
1.90735	99.98
1.92402	99.98
1.94068	99.98
1.95735	99.97
1.97402	99.97
1.99068	99.97
2.00735	99.97
2.02402	99.97
2.04068	99.97
2.05735	99.97
2.07402	99.97
2.09068	99.97
2.10735	99.97
2.12402	99.97
2.14068	99.97
2.15735	99.97
2.17402	99.96
2.19068	99.97
2.20735	99.97
2.22402	99.97
2.24068	99.97
2.25735	99.97
2.27402	99.97
2.29068	99.97
2.30735	99.97
2.32402	99.97
2.34068	99.97
2.35735	99.97
2.37402	99.97
2.39068	99.97
2.40735	99.97
2.42402	99.97
2.44068	99.97
2.45735	99.97
2.47402	99.97
2.49068	99.97
2.50735	99.97
2.52402	99.98
2.54068	99.97
2.55735	99.98
2.57402	99.98
2.59068	99.98
2.60735	99.98
2.62402	99.98
2.64068	99.98
2.65735	99.98
2.67402	99.98
2.69068	99.99
2.70735	99.99
2.72402	99.99
2.74068	99.99
2.75735	100.00
2.77402	100.00
2.79068	99.99
2.80735	100.00
2.82402	100.00
2.84068	100.00
2.85735	100.00
2.87402	100.00
2.89068	100.00
2.90735	100.01
2.92402	100.01
2.94068	100.01
2.95735	100.01
2.97402	100.01
2.99068	100.01
3.00735	100.02
3.02402	100.01
3.04068	100.01
3.05735	100.01
3.07402	100.01
3.09068	100.02
3.10735	100.02
3.12402	100.02
3.14068	100.02
3.15735	100.02
3.17402	100.02
3.19068	100.02
3.20735	100.02
3.22402	100.02
3.24068	100.02
3.25735	100.02
3.27402	100.02
3.29068	100.03
3.30735	100.02
3.32402	100.03
3.34068	100.03
3.35735	100.03
3.37402	100.03
3.39068	100.03
3.40735	100.03
3.42402	100.03
3.44068	100.03
3.45735	100.03
3.47402	100.03
3.49068	100.03
3.50735	100.03
3.52402	100.03
3.54068	100.03
3.55735	100.04
3.57402	100.04
3.59068	100.04
3.60735	100.04
3.62402	100.04
3.64068	100.04
3.65735	100.04
3.67402	100.04
3.69068	100.03
3.70735	100.04
3.72402	100.04
3.74068	100.04
3.75735	100.04
3.77402	100.04
3.79068	100.04
3.80735	100.04
3.82402	100.05
3.84068	100.04
3.85735	100.05
3.87402	100.05
3.89068	100.04
3.90735	100.05
3.92402	100.04
3.94068	100.04
3.95735	100.05
3.97402	100.05
3.99068	100.04

[Status Trace (Carrier Gas Pressure)]
Interval(msec)	1000
# of Points	240
Start Time(min)	0.007
End Time(min)	3.991
Intensity Units	
Intensity Multiplier	1
R.Time (min)	Intensity
0.00735	58.00
0.02402	55.52
0.04068	57.03
0.05735	59.22
0.07402	59.52
0.09068	58.08
0.10735	57.98
0.12402	58.01
0.14068	58.01
0.15735	58.01
0.17402	58.00
0.19068	58.00
0.20735	58.00
0.22402	58.00
0.24068	58.00
0.25735	58.00
0.27402	58.00
0.29068	58.00
0.30735	58.00
0.32402	58.00
0.34068	58.00
0.35735	58.00
0.37402	58.00
0.39068	58.00
0.40735	58.00
0.42402	58.00
0.44068	58.00
0.45735	58.00
0.47402	58.00
0.49068	58.00
0.50735	58.00
0.52402	58.00
0.54068	58.00
0.55735	58.00
0.57402	58.00
0.59068	58.00
0.60735	58.00
0.62402	58.00
0.64068	58.00
0.65735	58.00
0.67402	58.00
0.69068	58.00
0.70735	58.00
0.72402	58.00
0.74068	58.00
0.75735	58.00
0.77402	58.00
0.79068	58.00
0.80735	58.00
0.82402	58.00
0.84068	58.00
0.85735	58.00
0.87402	58.00
0.89068	58.00
0.90735	58.00
0.92402	58.00
0.94068	58.00
0.95735	58.00
0.97402	58.00
0.99068	58.00
1.00735	58.00
1.02402	58.00
1.04068	58.00
1.05735	58.00
1.07402	58.00
1.09068	58.00
1.10735	58.00
1.12402	58.00
1.14068	58.00
1.15735	58.00
1.17402	58.00
1.19068	58.00
1.20735	58.00
1.22402	58.00
1.24068	58.00
1.25735	58.00
1.27402	58.00
1.29068	58.00
1.30735	58.00
1.32402	58.00
1.34068	58.00
1.35735	58.00
1.37402	58.00
1.39068	58.00
1.40735	58.00
1.42402	58.00
1.44068	58.00
1.45735	58.00
1.47402	58.00
1.49068	58.00
1.50735	58.00
1.52402	58.00
1.54068	58.00
1.55735	58.00
1.57402	58.00
1.59068	58.00
1.60735	58.00
1.62402	58.00
1.64068	58.01
1.65735	58.00
1.67402	58.01
1.69068	58.01
1.70735	58.00
1.72402	58.00
1.74068	58.00
1.75735	58.00
1.77402	58.00
1.79068	58.00
1.80735	58.00
1.82402	58.00
1.84068	58.00
1.85735	58.00
1.87402	58.00
1.89068	58.00
1.90735	58.00
1.92402	58.00
1.94068	58.00
1.95735	58.00
1.97402	58.00
1.99068	58.00
2.00735	58.00
2.02402	58.00
2.04068	58.00
2.05735	58.00
2.07402	58.00
2.09068	58.00
2.10735	58.00
2.12402	58.00
2.14068	58.00
2.15735	58.00
2.17402	58.00
2.19068	58.00
2.20735	58.00
2.22402	58.00
2.24068	58.00
2.25735	58.00
2.27402	58.00
2.29068	58.00
2.30735	58.00
2.32402	58.00
2.34068	58.00
2.35735	58.00
2.37402	57.99
2.39068	57.99
2.40735	57.99
2.42402	58.00
2.44068	58.00
2.45735	58.00
2.47402	58.00
2.49068	58.00
2.50735	58.00
2.52402	57.98
2.54068	58.00
2.55735	58.00
2.57402	58.00
2.59068	58.00
2.60735	58.00
2.62402	58.00
2.64068	58.00
2.65735	58.00
2.67402	58.00
2.69068	58.00
2.70735	58.00
2.72402	58.00
2.74068	58.00
2.75735	58.00
2.77402	58.00
2.79068	58.00
2.80735	58.00
2.82402	58.00
2.84068	58.00
2.85735	58.00
2.87402	58.00
2.89068	58.00
2.90735	58.00
2.92402	58.00
2.94068	58.00
2.95735	58.00
2.97402	58.00
2.99068	58.00
3.00735	58.00
3.02402	58.00
3.04068	58.00
3.05735	58.00
3.07402	58.00
3.09068	58.00
3.10735	58.00
3.12402	58.00
3.14068	58.00
3.15735	58.00
3.17402	58.00
3.19068	58.00
3.20735	58.00
3.22402	58.00
3.24068	58.00
3.25735	58.00
3.27402	58.00
3.29068	58.00
3.30735	58.00
3.32402	58.00
3.34068	58.00
3.35735	58.00
3.37402	58.00
3.39068	58.00
3.40735	58.00
3.42402	58.00
3.44068	58.00
3.45735	58.00
3.47402	58.00
3.49068	58.00
3.50735	58.00
3.52402	58.00
3.54068	58.00
3.55735	58.00
3.57402	58.00
3.59068	58.00
3.60735	58.00
3.62402	58.00
3.64068	58.00
3.65735	58.00
3.67402	58.00
3.69068	58.00
3.70735	58.00
3.72402	58.00
3.74068	58.00
3.75735	58.00
3.77402	58.00
3.79068	58.00
3.80735	58.00
3.82402	58.00
3.84068	58.00
3.85735	58.00
3.87402	58.00
3.89068	58.00
3.90735	58.00
3.92402	58.00
3.94068	58.00
3.95735	58.00
3.97402	58.00
3.99068	58.00

[Status Trace (Carrier Gas Flow)]
Interval(msec)	1000
# of Points	240
Start Time(min)	0.007
End Time(min)	3.991
Intensity Units	
Intensity Multiplier	1
R.Time (min)	Intensity
0.00735	34.52
0.02402	34.53
0.04068	34.54
0.05735	34.55
0.07402	34.50
0.09068	34.52
0.10735	34.52
0.12402	34.52
0.14068	34.53
0.15735	34.52
0.17402	34.51
0.19068	34.51
0.20735	34.52
0.22402	34.52
0.24068	34.52
0.25735	34.52
0.27402	34.52
0.29068	34.51
0.30735	34.52
0.32402	34.52
0.34068	34.52
0.35735	34.53
0.37402	34.52
0.39068	34.52
0.40735	34.52
0.42402	34.52
0.44068	34.52
0.45735	34.52
0.47402	34.52
0.49068	34.52
0.50735	34.52
0.52402	34.52
0.54068	34.52
0.55735	34.52
0.57402	34.52
0.59068	34.52
0.60735	34.52
0.62402	34.52
0.64068	34.52
0.65735	34.52
0.67402	34.52
0.69068	34.52
0.70735	34.52
0.72402	34.51
0.74068	34.52
0.75735	34.52
0.77402	34.52
0.79068	34.52
0.80735	34.52
0.82402	34.52
0.84068	34.52
0.85735	34.52
0.87402	34.52
0.89068	34.52
0.90735	34.52
0.92402	34.52
0.94068	34.52
0.95735	34.52
0.97402	34.52
0.99068	34.52
1.00735	34.52
1.02402	34.52
1.04068	34.52
1.05735	34.52
1.07402	34.52
1.09068	34.52
1.10735	34.52
1.12402	34.52
1.14068	34.52
1.15735	34.52
1.17402	34.52
1.19068	34.52
1.20735	34.52
1.22402	34.52
1.24068	34.52
1.25735	34.52
1.27402	34.52
1.29068	34.52
1.30735	34.52
1.32402	34.52
1.34068	34.52
1.35735	34.52
1.37402	34.52
1.39068	34.52
1.40735	34.52
1.42402	34.52
1.44068	34.52
1.45735	34.52
1.47402	34.52
1.49068	34.52
1.50735	34.52
1.52402	34.52
1.54068	34.52
1.55735	34.52
1.57402	34.52
1.59068	34.52
1.60735	34.52
1.62402	34.52
1.64068	34.52
1.65735	34.52
1.67402	34.52
1.69068	34.52
1.70735	34.52
1.72402	34.51
1.74068	34.51
1.75735	34.52
1.77402	34.53
1.79068	34.52
1.80735	34.51
1.82402	34.52
1.84068	34.52
1.85735	34.52
1.87402	34.52
1.89068	34.52
1.90735	34.52
1.92402	34.52
1.94068	34.52
1.95735	34.52
1.97402	34.52
1.99068	34.52
2.00735	34.51
2.02402	34.52
2.04068	34.52
2.05735	34.52
2.07402	34.52
2.09068	34.52
2.10735	34.52
2.12402	34.52
2.14068	34.52
2.15735	34.52
2.17402	34.53
2.19068	34.52
2.20735	34.53
2.22402	34.52
2.24068	34.52
2.25735	34.52
2.27402	34.52
2.29068	34.51
2.30735	34.52
2.32402	34.52
2.34068	34.52
2.35735	34.52
2.37402	34.52
2.39068	34.52
2.40735	34.52
2.42402	34.51
2.44068	34.52
2.45735	34.52
2.47402	34.51
2.49068	34.52
2.50735	34.37
2.52402	34.52
2.54068	34.52
2.55735	34.52
2.57402	34.52
2.59068	34.52
2.60735	34.52
2.62402	34.52
2.64068	34.52
2.65735	34.52
2.67402	34.52
2.69068	34.52
2.70735	34.51
2.72402	34.52
2.74068	34.52
2.75735	34.52
2.77402	34.52
2.79068	34.52
2.80735	34.52
2.82402	34.52
2.84068	34.52
2.85735	34.52
2.87402	34.52
2.89068	34.52
2.90735	34.52
2.92402	34.52
2.94068	34.52
2.95735	34.52
2.97402	34.52
2.99068	34.52
3.00735	34.52
3.02402	34.52
3.04068	34.52
3.05735	34.52
3.07402	34.52
3.09068	34.52
3.10735	34.51
3.12402	34.52
3.14068	34.52
3.15735	34.52
3.17402	34.52
3.19068	34.52
3.20735	34.52
3.22402	34.52
3.24068	34.52
3.25735	34.51
3.27402	34.52
3.29068	34.52
3.30735	34.52
3.32402	34.52
3.34068	34.52
3.35735	34.52
3.37402	34.52
3.39068	34.52
3.40735	34.52
3.42402	34.52
3.44068	34.52
3.45735	34.52
3.47402	34.52
3.49068	34.52
3.50735	34.52
3.52402	34.52
3.54068	34.52
3.55735	34.52
3.57402	34.52
3.59068	34.51
3.60735	34.52
3.62402	34.52
3.64068	34.52
3.65735	34.52
3.67402	34.52
3.69068	34.52
3.70735	34.52
3.72402	34.52
3.74068	34.52
3.75735	34.52
3.77402	34.52
3.79068	34.52
3.80735	34.52
3.82402	34.52
3.84068	34.52
3.85735	34.52
3.87402	34.52
3.89068	34.52
3.90735	34.52
3.92402	34.52
3.94068	34.52
3.95735	34.52
3.97402	34.52
3.99068	34.52

[Status Trace (Column Flow)]
Interval(msec)	1000
# of Points	240
Start Time(min)	0.007
End Time(min)	3.991
Intensity Units	
Intensity Multiplier	1
R.Time (min)	Intensity
0.00735	5.56
0.02402	5.27
0.04068	5.45
0.05735	5.71
0.07402	5.74
0.09068	5.57
0.10735	5.56
0.12402	5.56
0.14068	5.56
0.15735	5.56
0.17402	5.56
0.19068	5.56
0.20735	5.56
0.22402	5.56
0.24068	5.56
0.25735	5.56
0.27402	5.56
0.29068	5.56
0.30735	5.56
0.32402	5.56
0.34068	5.56
0.35735	5.56
0.37402	5.56
0.39068	5.56
0.40735	5.56
0.42402	5.56
0.44068	5.56
0.45735	5.56
0.47402	5.56
0.49068	5.56
0.50735	5.56
0.52402	5.56
0.54068	5.56
0.55735	5.56
0.57402	5.56
0.59068	5.56
0.60735	5.56
0.62402	5.56
0.64068	5.56
0.65735	5.56
0.67402	5.56
0.69068	5.56
0.70735	5.57
0.72402	5.56
0.74068	5.57
0.75735	5.57
0.77402	5.57
0.79068	5.57
0.80735	5.56
0.82402	5.56
0.84068	5.56
0.85735	5.56
0.87402	5.56
0.89068	5.56
0.90735	5.56
0.92402	5.56
0.94068	5.56
0.95735	5.56
0.97402	5.56
0.99068	5.56
1.00735	5.56
1.02402	5.56
1.04068	5.56
1.05735	5.56
1.07402	5.56
1.09068	5.56
1.10735	5.56
1.12402	5.56
1.14068	5.56
1.15735	5.56
1.17402	5.56
1.19068	5.56
1.20735	5.57
1.22402	5.57
1.24068	5.57
1.25735	5.57
1.27402	5.57
1.29068	5.57
1.30735	5.57
1.32402	5.57
1.34068	5.56
1.35735	5.56
1.37402	5.56
1.39068	5.56
1.40735	5.56
1.42402	5.56
1.44068	5.57
1.45735	5.57
1.47402	5.57
1.49068	5.57
1.50735	5.57
1.52402	5.57
1.54068	5.57
1.55735	5.56
1.57402	5.57
1.59068	5.56
1.60735	5.56
1.62402	5.56
1.64068	5.55
1.65735	5.55
1.67402	5.54
1.69068	5.52
1.70735	5.51
1.72402	5.50
1.74068	5.49
1.75735	5.48
1.77402	5.47
1.79068	5.46
1.80735	5.45
1.82402	5.44
1.84068	5.43
1.85735	5.42
1.87402	5.41
1.89068	5.40
1.90735	5.39
1.92402	5.38
1.94068	5.37
1.95735	5.36
1.97402	5.35
1.99068	5.34
2.00735	5.33
2.02402	5.32
2.04068	5.31
2.05735	5.30
2.07402	5.29
2.09068	5.28
2.10735	5.27
2.12402	5.26
2.14068	5.25
2.15735	5.24
2.17402	5.24
2.19068	5.23
2.20735	5.22
2.22402	5.21
2.24068	5.20
2.25735	5.19
2.27402	5.18
2.29068	5.17
2.30735	5.16
2.32402	5.15
2.34068	5.14
2.35735	5.13
2.37402	5.13
2.39068	5.13
2.40735	5.13
2.42402	5.13
2.44068	5.13
2.45735	5.13
2.47402	5.13
2.49068	5.13
2.50735	5.13
2.52402	5.12
2.54068	5.13
2.55735	5.12
2.57402	5.12
2.59068	5.12
2.60735	5.12
2.62402	5.12
2.64068	5.12
2.65735	5.12
2.67402	5.12
2.69068	5.12
2.70735	5.12
2.72402	5.12
2.74068	5.12
2.75735	5.12
2.77402	5.12
2.79068	5.12
2.80735	5.12
2.82402	5.12
2.84068	5.12
2.85735	5.12
2.87402	5.12
2.89068	5.12
2.90735	5.12
2.92402	5.12
2.94068	5.12
2.95735	5.12
2.97402	5.12
2.99068	5.12
3.00735	5.12
3.02402	5.12
3.04068	5.12
3.05735	5.12
3.07402	5.12
3.09068	5.12
3.10735	5.12
3.12402	5.12
3.14068	5.12
3.15735	5.12
3.17402	5.12
3.19068	5.12
3.20735	5.12
3.22402	5.12
3.24068	5.12
3.25735	5.12
3.27402	5.12
3.29068	5.12
3.30735	5.12
3.32402	5.12
3.34068	5.12
3.35735	5.12
3.37402	5.12
3.39068	5.12
3.40735	5.12
3.42402	5.12
3.44068	5.12
3.45735	5.12
3.47402	5.12
3.49068	5.12
3.50735	5.12
3.52402	5.12
3.54068	5.12
3.55735	5.12
3.57402	5.12
3.59068	5.12
3.60735	5.12
3.62402	5.12
3.64068	5.12
3.65735	5.12
3.67402	5.12
3.69068	5.12
3.70735	5.12
3.72402	5.12
3.74068	5.12
3.75735	5.12
3.77402	5.12
3.79068	5.12
3.80735	5.12
3.82402	5.12
3.84068	5.12
3.85735	5.12
3.87402	5.12
3.89068	5.12
3.90735	5.12
3.92402	5.12
3.94068	5.12
3.95735	5.12
3.97402	5.12
3.99068	5.12

[Status Trace (Linear Velocity)]
Interval(msec)	1000
# of Points	240
Start Time(min)	0.007
End Time(min)	3.991
Intensity Units	
Intensity Multiplier	1
R.Time (min)	Intensity
0.00735	39.02
0.02402	37.39
0.04068	38.38
0.05735	39.82
0.07402	40.02
0.09068	39.07
0.10735	39.00
0.12402	39.02
0.14068	39.03
0.15735	39.02
0.17402	39.02
0.19068	39.03
0.20735	39.03
0.22402	39.03
0.24068	39.03
0.25735	39.03
0.27402	39.03
0.29068	39.03
0.30735	39.03
0.32402	39.03
0.34068	39.03
0.35735	39.02
0.37402	39.02
0.39068	39.03
0.40735	39.02
0.42402	39.02
0.44068	39.02
0.45735	39.02
0.47402	39.02
0.49068	39.02
0.50735	39.02
0.52402	39.02
0.54068	39.02
0.55735	39.02
0.57402	39.02
0.59068	39.02
0.60735	39.02
0.62402	39.02
0.64068	39.03
0.65735	39.03
0.67402	39.03
0.69068	39.03
0.70735	39.03
0.72402	39.03
0.74068	39.03
0.75735	39.03
0.77402	39.03
0.79068	39.03
0.80735	39.03
0.82402	39.03
0.84068	39.03
0.85735	39.02
0.87402	39.03
0.89068	39.02
0.90735	39.02
0.92402	39.02
0.94068	39.03
0.95735	39.02
0.97402	39.03
0.99068	39.02
1.00735	39.02
1.02402	39.03
1.04068	39.02
1.05735	39.03
1.07402	39.03
1.09068	39.03
1.10735	39.03
1.12402	39.03
1.14068	39.03
1.15735	39.03
1.17402	39.03
1.19068	39.03
1.20735	39.03
1.22402	39.03
1.24068	39.03
1.25735	39.03
1.27402	39.03
1.29068	39.03
1.30735	39.03
1.32402	39.03
1.34068	39.03
1.35735	39.03
1.37402	39.03
1.39068	39.03
1.40735	39.03
1.42402	39.03
1.44068	39.03
1.45735	39.03
1.47402	39.03
1.49068	39.03
1.50735	39.03
1.52402	39.03
1.54068	39.03
1.55735	39.03
1.57402	39.03
1.59068	39.03
1.60735	39.02
1.62402	39.01
1.64068	39.00
1.65735	38.97
1.67402	38.94
1.69068	38.90
1.70735	38.86
1.72402	38.84
1.74068	38.80
1.75735	38.77
1.77402	38.75
1.79068	38.71
1.80735	38.68
1.82402	38.65
1.84068	38.61
1.85735	38.58
1.87402	38.55
1.89068	38.52
1.90735	38.49
1.92402	38.47
1.94068	38.43
1.95735	38.40
1.97402	38.37
1.99068	38.34
2.00735	38.31
2.02402	38.28
2.04068	38.25
2.05735	38.22
2.07402	38.19
2.09068	38.16
2.10735	38.13
2.12402	38.10
2.14068	38.07
2.15735	38.04
2.17402	38.01
2.19068	37.98
2.20735	37.96
2.22402	37.93
2.24068	37.89
2.25735	37.86
2.27402	37.84
2.29068	37.81
2.30735	37.78
2.32402	37.75
2.34068	37.72
2.35735	37.69
2.37402	37.67
2.39068	37.67
2.40735	37.67
2.42402	37.67
2.44068	37.67
2.45735	37.67
2.47402	37.67
2.49068	37.67
2.50735	37.66
2.52402	37.66
2.54068	37.66
2.55735	37.66
2.57402	37.66
2.59068	37.66
2.60735	37.66
2.62402	37.66
2.64068	37.66
2.65735	37.66
2.67402	37.66
2.69068	37.66
2.70735	37.66
2.72402	37.65
2.74068	37.65
2.75735	37.66
2.77402	37.66
2.79068	37.65
2.80735	37.65
2.82402	37.65
2.84068	37.65
2.85735	37.65
2.87402	37.65
2.89068	37.65
2.90735	37.65
2.92402	37.65
2.94068	37.65
2.95735	37.65
2.97402	37.65
2.99068	37.64
3.00735	37.64
3.02402	37.64
3.04068	37.65
3.05735	37.64
3.07402	37.64
3.09068	37.64
3.10735	37.64
3.12402	37.64
3.14068	37.64
3.15735	37.64
3.17402	37.64
3.19068	37.64
3.20735	37.63
3.22402	37.63
3.24068	37.63
3.25735	37.63
3.27402	37.63
3.29068	37.63
3.30735	37.64
3.32402	37.64
3.34068	37.64
3.35735	37.64
3.37402	37.64
3.39068	37.64
3.40735	37.64
3.42402	37.64
3.44068	37.64
3.45735	37.64
3.47402	37.64
3.49068	37.64
3.50735	37.64
3.52402	37.64
3.54068	37.64
3.55735	37.64
3.57402	37.64
3.59068	37.64
3.60735	37.64
3.62402	37.64
3.64068	37.64
3.65735	37.64
3.67402	37.64
3.69068	37.64
3.70735	37.64
3.72402	37.64
3.74068	37.64
3.75735	37.64
3.77402	37.64
3.79068	37.63
3.80735	37.63
3.82402	37.63
3.84068	37.63
3.85735	37.63
3.87402	37.63
3.89068	37.63
3.90735	37.64
3.92402	37.64
3.94068	37.64
3.95735	37.63
3.97402	37.63
3.99068	37.64

