[Header]
Application Name	LabSolutions
Version	5.110
Data File Name	C:\Users\User\Desktop\GC Analyses\Jack\Nachusa Grasslands Sampling\T1 Timepoint July 12th\T1_07122022_027.gcd
Output Date	3/14/2023
Output Time	3:40:58 PM

[File Information]
Type	Data File
Generated	3/8/2023 4:09:38 PM
Generated by	System Administrator
Modified	3/8/2023 4:16:26 PM
Modified by	System Administrator

[Sample Information]
Operator Name	System Administrator
Acquired	3/8/2023 4:12:25 PM
Sample Type	0:Unknown
Level	0
Sample Name	027
Sample ID	027
ISTD Amount1	1
ISTD Amount2	1
ISTD Amount3	1
ISTD Amount4	1
ISTD Amount5	1
ISTD Amount6	1
ISTD Amount7	1
ISTD Amount8	1
ISTD Amount9	1
ISTD Amount10	1
ISTD Amount11	1
ISTD Amount12	1
ISTD Amount13	1
ISTD Amount14	1
ISTD Amount15	1
ISTD Amount16	1
ISTD Amount17	1
ISTD Amount18	1
ISTD Amount19	1
ISTD Amount20	1
ISTD Amount21	1
ISTD Amount22	1
ISTD Amount23	1
ISTD Amount24	1
ISTD Amount25	1
ISTD Amount26	1
ISTD Amount27	1
ISTD Amount28	1
ISTD Amount29	1
ISTD Amount30	1
ISTD Amount31	1
ISTD Amount32	1
Sample Amount	1
Dilution Factor	1
Vial#	26
Injection Volume	1
Injection Count	1
Bar Code	

[Original Files]
Data File	C:\Users\User\Desktop\GC Analyses\Jack\Nachusa Grasslands Sampling\T1 Timepoint July 12th\T1_07122022_027.gcd
Method File	C:\LabSolutions\Data\GHG_4min_2022\ghg3_togas_w_acet_4 min_new_int.gcm
Batch File	C:\LabSolutions\Data\AutoSamplerTesting\T1_07122022.gcb
Report Format File	c:\LabSolutions\System\DEFAULT.lsr

[File Description]


[Configuration]
Instrument Name	C0B7VH3-Instrument1
Instrument #	1
Line #	1
# of Detectors	3
Detector ID	DET#1	DET#2	DET#3
Detector Name	FID	PTCD	ECD
# of Channels	1	1	1

[Peak Table(Ch1)]
# of Peaks	3
Peak#	R.Time	I.Time	F.Time	Area	Height	A/H	Conc.	Mark	ID#	Name	k'	Plate #	Plate Ht.	Tailing	Resolution	Sep.Factor	Area Ratio	Height Ratio	Conc. %	Norm Conc.
1	1.476	1.435	1.538	26324	12366	2.129	185.846	   	1	CO	0.000	9313	16.107	1.312	0.000	0.000	0	0	26.279	26.279
2	1.567	1.538	1.637	4859	2343	2.074	93.957	 V 	2	CH4	0.062	10517	14.263	0.000	1.499	0.000	0	0	13.286	13.286
3	1.996	1.949	2.561	1702956	806738	2.111	427.396	   	3	CO2	0.353	17306	8.667	1.299	7.042	5.680	0	0	60.435	60.435

[Peak Table(Ch2)]
# of Peaks	0

[Peak Table(Ch3)]
# of Peaks	5
Peak#	R.Time	I.Time	F.Time	Area	Height	A/H	Conc.	Mark	ID#	Name	k'	Plate #	Plate Ht.	Tailing	Resolution	Sep.Factor	Area Ratio	Height Ratio	Conc. %	Norm Conc.
1	2.462	2.293	2.517	1847	467	3.958	0.000	   			0.000	7528	19.924	0.000	0.000	0.000	0	0	0.000	0.000
2	2.543	2.517	2.631	1158	271	4.269	0.000	 V 			0.033	3497	42.891	0.000	0.565	0.000	0	0	0.000	0.000
3	2.689	2.642	2.733	386	93	4.161	0.000	   			0.092	2054	73.023	0.000	0.717	2.818	0	0	0.000	0.000
4	2.873	2.733	3.111	20375	4904	4.154	0.520	 V 	1	N2O	0.167	12986	11.551	1.802	1.084	1.806	0	0	100.000	100.000
5	3.250	3.118	3.991	14455	549	26.347	0.000	   	2	SF6	0.320	420	357.218	3.265	1.027	1.920	0	0	0.000	0.000

[Compound Results(Ch1)]
# of IDs	6
ID#	Name	R.Time	Area	Height	Conc.	Curve	3rd	2nd	1st	Constant	Area Ratio	Height Ratio	Conc. %	Norm Conc.
1	CO	1.476	26324	12366	185.846	Linear	0.000000e+00	0.000000e+00	1.416423e+002	0.000000e+00	0	0	26.279	26.279
2	CH4	1.567	4859	2343	93.957	Linear	0.000000e+00	0.000000e+00	5.171738e+001	0.000000e+00	0	0	13.286	13.286
3	CO2	1.996	1702956	806738	427.396	Linear	0.000000e+00	0.000000e+00	3.984494e+003	0.000000e+00	0	0	60.435	60.435
4	Ethylene	0.000	0	0	0.000	Linear	0.000000e+00	0.000000e+00	0.000000e+00	0.000000e+00	0	0	0.000	0.000
5	Acetylene	0.000	0	0	0.000	Linear	0.000000e+00	0.000000e+00	0.000000e+00	0.000000e+00	0	0	0.000	0.000
6	Ethane	0.000	0	0	0.000	Linear	0.000000e+00	0.000000e+00	0.000000e+00	0.000000e+00	0	0	0.000	0.000

[Compound Results(Ch2)]
# of IDs	5
ID#	Name	R.Time	Area	Height	Conc.	Curve	3rd	2nd	1st	Constant	Area Ratio	Height Ratio	Conc. %	Norm Conc.
1	Hydrogen	0.000	0	0	0.000	Linear	0.000000e+00	0.000000e+00	0.000000e+00	0.000000e+00	0	0	0.000	0.000
2	Oxygen	0.000	0	0	0.000	Linear	0.000000e+00	0.000000e+00	0.000000e+00	0.000000e+00	0	0	0.000	0.000
3	Nitrogen	0.000	0	0	0.000	Linear	0.000000e+00	0.000000e+00	0.000000e+00	0.000000e+00	0	0	0.000	0.000
4	Methane	0.000	0	0	0.000	Linear	0.000000e+00	0.000000e+00	0.000000e+00	0.000000e+00	0	0	0.000	0.000
5	Carbon Monoxide	0.000	0	0	0.000	Linear	0.000000e+00	0.000000e+00	0.000000e+00	0.000000e+00	0	0	0.000	0.000

[Compound Results(Ch3)]
# of IDs	2
ID#	Name	R.Time	Area	Height	Conc.	Curve	3rd	2nd	1st	Constant	Area Ratio	Height Ratio	Conc. %	Norm Conc.
1	N2O	2.873	20375	4904	0.520	Linear	0.000000e+00	0.000000e+00	3.915173e+004	0.000000e+00	0	0	100.000	100.000
2	SF6	3.250	14455	549	0.000	Linear	0.000000e+00	0.000000e+00	0.000000e+00	0.000000e+00	0	0	0.000	0.000

[Group Results(Ch1)]
# of Groups	0

[Group Results(Ch2)]
# of Groups	0

[Group Results(Ch3)]
# of Groups	0

[Chromatogram (Ch1)]
Interval(msec)	220
# of Points	1091
Start Time(min)	0.002
End Time(min)	3.998
R.Time (min)	Intensity
0.00167	27
0.00533	28
0.00900	30
0.01267	32
0.01633	37
0.02000	41
0.02367	43
0.02733	43
0.03100	41
0.03467	40
0.03833	36
0.04200	27
0.04567	17
0.04933	11
0.05300	8
0.05667	11
0.06033	15
0.06400	22
0.06767	30
0.07133	37
0.07500	43
0.07867	48
0.08233	54
0.08600	57
0.08967	58
0.09333	61
0.09700	70
0.10067	85
0.10433	100
0.10800	107
0.11167	107
0.11533	104
0.11900	104
0.12267	109
0.12633	112
0.13000	111
0.13367	113
0.13733	119
0.14100	125
0.14467	133
0.14833	141
0.15200	148
0.15567	153
0.15933	156
0.16300	156
0.16667	155
0.17033	152
0.17400	150
0.17767	146
0.18133	139
0.18500	130
0.18867	119
0.19233	107
0.19600	95
0.19967	85
0.20333	76
0.20700	70
0.21067	67
0.21433	65
0.21800	63
0.22167	62
0.22533	66
0.22900	69
0.23267	65
0.23633	58
0.24000	53
0.24367	53
0.24733	57
0.25100	66
0.25467	73
0.25833	71
0.26200	64
0.26567	54
0.26933	45
0.27300	40
0.27667	36
0.28033	33
0.28400	29
0.28767	27
0.29133	24
0.29500	20
0.29867	22
0.30233	28
0.30600	33
0.30967	36
0.31333	36
0.31700	32
0.32067	25
0.32433	19
0.32800	15
0.33167	13
0.33533	13
0.33900	13
0.34267	14
0.34633	17
0.35000	23
0.35367	25
0.35733	22
0.36100	18
0.36467	17
0.36833	19
0.37200	21
0.37567	21
0.37933	19
0.38300	17
0.38667	18
0.39033	21
0.39400	25
0.39767	28
0.40133	33
0.40500	37
0.40867	40
0.41233	41
0.41600	41
0.41967	39
0.42333	35
0.42700	29
0.43067	23
0.43433	19
0.43800	20
0.44167	28
0.44533	37
0.44900	41
0.45267	39
0.45633	36
0.46000	33
0.46367	32
0.46733	36
0.47100	39
0.47467	38
0.47833	35
0.48200	29
0.48567	19
0.48933	9
0.49300	1
0.49667	-2
0.50033	-0
0.50400	6
0.50767	15
0.51133	18
0.51500	16
0.51867	18
0.52233	24
0.52600	26
0.52967	22
0.53333	14
0.53700	6
0.54067	1
0.54433	1
0.54800	3
0.55167	6
0.55533	9
0.55900	9
0.56267	8
0.56633	4
0.57000	-3
0.57367	-4
0.57733	0
0.58100	2
0.58467	3
0.58833	3
0.59200	3
0.59567	5
0.59933	11
0.60300	20
0.60667	26
0.61033	26
0.61400	23
0.61767	19
0.62133	14
0.62500	13
0.62867	18
0.63233	25
0.63600	32
0.63967	39
0.64333	39
0.64700	34
0.65067	26
0.65433	20
0.65800	16
0.66167	13
0.66533	13
0.66900	13
0.67267	8
0.67633	1
0.68000	-7
0.68367	-13
0.68733	-14
0.69100	-11
0.69467	-9
0.69833	-5
0.70200	-3
0.70567	-4
0.70933	-7
0.71300	-9
0.71667	-11
0.72033	-13
0.72400	-13
0.72767	-6
0.73133	6
0.73500	18
0.73867	28
0.74233	31
0.74600	25
0.74967	10
0.75333	-2
0.75700	-9
0.76067	-15
0.76433	-20
0.76800	-21
0.77167	-18
0.77533	-14
0.77900	-12
0.78267	-12
0.78633	-13
0.79000	-9
0.79367	-3
0.79733	10
0.80100	24
0.80467	34
0.80833	36
0.81200	29
0.81567	14
0.81933	0
0.82300	-8
0.82667	-13
0.83033	-16
0.83400	-16
0.83767	-15
0.84133	-12
0.84500	-6
0.84867	-0
0.85233	-1
0.85600	-3
0.85967	-3
0.86333	-1
0.86700	-0
0.87067	-5
0.87433	-8
0.87800	-9
0.88167	-11
0.88533	-11
0.88900	-7
0.89267	-3
0.89633	-2
0.90000	-0
0.90367	3
0.90733	5
0.91100	5
0.91467	2
0.91833	0
0.92200	2
0.92567	-1
0.92933	-6
0.93300	-10
0.93667	-9
0.94033	-3
0.94400	5
0.94767	14
0.95133	23
0.95500	31
0.95867	36
0.96233	33
0.96600	26
0.96967	18
0.97333	10
0.97700	4
0.98067	-2
0.98433	-8
0.98800	-12
0.99167	-8
0.99533	1
0.99900	12
1.00267	19
1.00633	21
1.01000	19
1.01367	15
1.01733	12
1.02100	10
1.02467	8
1.02833	9
1.03200	15
1.03567	25
1.03933	32
1.04300	33
1.04667	33
1.05033	32
1.05400	30
1.05767	30
1.06133	33
1.06500	37
1.06867	39
1.07233	34
1.07600	25
1.07967	18
1.08333	16
1.08700	20
1.09067	25
1.09433	29
1.09800	32
1.10167	31
1.10533	29
1.10900	29
1.11267	27
1.11633	24
1.12000	27
1.12367	34
1.12733	42
1.13100	46
1.13467	49
1.13833	47
1.14200	41
1.14567	32
1.14933	22
1.15300	11
1.15667	4
1.16033	7
1.16400	13
1.16767	19
1.17133	23
1.17500	23
1.17867	24
1.18233	25
1.18600	25
1.18967	24
1.19333	22
1.19700	22
1.20067	22
1.20433	20
1.20800	17
1.21167	14
1.21533	14
1.21900	21
1.22267	28
1.22633	26
1.23000	20
1.23367	13
1.23733	10
1.24100	9
1.24467	5
1.24833	0
1.25200	1
1.25567	7
1.25933	13
1.26300	16
1.26667	18
1.27033	19
1.27400	19
1.27767	17
1.28133	16
1.28500	19
1.28867	22
1.29233	20
1.29600	14
1.29967	4
1.30333	-7
1.30700	-15
1.31067	-19
1.31433	-17
1.31800	-14
1.32167	-9
1.32533	-6
1.32900	-5
1.33267	-2
1.33633	5
1.34000	6
1.34367	-0
1.34733	-7
1.35100	-15
1.35467	-17
1.35833	-15
1.36200	-14
1.36567	-13
1.36933	-13
1.37300	-14
1.37667	-14
1.38033	-12
1.38400	-9
1.38767	-4
1.39133	1
1.39500	6
1.39867	9
1.40233	11
1.40600	11
1.40967	10
1.41333	9
1.41700	9
1.42067	11
1.42433	15
1.42800	14
1.43167	14
1.43533	17
1.43900	41
1.44267	140
1.44633	379
1.45000	924
1.45367	2128
1.45733	4103
1.46100	6470
1.46467	8725
1.46833	10550
1.47200	11805
1.47567	12382
1.47933	12173
1.48300	11178
1.48667	9581
1.49033	7714
1.49400	5907
1.49767	4369
1.50133	3167
1.50500	2277
1.50867	1642
1.51233	1196
1.51600	885
1.51967	669
1.52333	515
1.52700	407
1.53067	332
1.53433	283
1.53800	265
1.54167	308
1.54533	472
1.54900	781
1.55267	1191
1.55633	1610
1.56000	1967
1.56367	2225
1.56733	2356
1.57100	2330
1.57467	2136
1.57833	1811
1.58200	1427
1.58567	1061
1.58933	760
1.59300	530
1.59667	367
1.60033	252
1.60400	173
1.60767	122
1.61133	95
1.61500	81
1.61867	70
1.62233	58
1.62600	45
1.62967	32
1.63333	22
1.63700	11
1.64067	4
1.64433	2
1.64800	4
1.65167	6
1.65533	14
1.65900	29
1.66267	42
1.66633	41
1.67000	30
1.67367	18
1.67733	11
1.68100	9
1.68467	4
1.68833	-5
1.69200	-14
1.69567	-21
1.69933	-23
1.70300	-20
1.70667	-17
1.71033	-16
1.71400	-15
1.71767	-8
1.72133	-1
1.72500	-2
1.72867	-6
1.73233	-8
1.73600	-4
1.73967	2
1.74333	7
1.74700	11
1.75067	12
1.75433	7
1.75800	-2
1.76167	-8
1.76533	-10
1.76900	-9
1.77267	-8
1.77633	-8
1.78000	-12
1.78367	-18
1.78733	-21
1.79100	-22
1.79467	-22
1.79833	-21
1.80200	-19
1.80567	-15
1.80933	-7
1.81300	-2
1.81667	-2
1.82033	-5
1.82400	-5
1.82767	-5
1.83133	-6
1.83500	-7
1.83867	-8
1.84233	-5
1.84600	1
1.84967	6
1.85333	7
1.85700	9
1.86067	10
1.86433	9
1.86800	11
1.87167	14
1.87533	19
1.87900	24
1.88267	29
1.88633	29
1.89000	26
1.89367	21
1.89733	16
1.90100	11
1.90467	4
1.90833	-3
1.91200	-4
1.91567	-0
1.91933	3
1.92300	5
1.92667	5
1.93033	3
1.93400	2
1.93767	3
1.94133	1
1.94500	-2
1.94867	-0
1.95233	27
1.95600	181
1.95967	1021
1.96333	4764
1.96700	17548
1.97067	51138
1.97433	119905
1.97800	230745
1.98167	374542
1.98533	528008
1.98900	664344
1.99267	761887
1.99633	806774
2.00000	794026
2.00367	728987
2.00733	626627
2.01100	507187
2.01467	389844
2.01833	287613
2.02200	206043
2.02567	144973
2.02933	101248
2.03300	70860
2.03667	50132
2.04033	36132
2.04400	26698
2.04767	20309
2.05133	15928
2.05500	12870
2.05867	10691
2.06233	9101
2.06600	7910
2.06967	6994
2.07333	6264
2.07700	5670
2.08067	5179
2.08433	4771
2.08800	4421
2.09167	4123
2.09533	3865
2.09900	3641
2.10267	3444
2.10633	3268
2.11000	3111
2.11367	2966
2.11733	2830
2.12100	2704
2.12467	2588
2.12833	2479
2.13200	2377
2.13567	2277
2.13933	2186
2.14300	2100
2.14667	2020
2.15033	1949
2.15400	1884
2.15767	1828
2.16133	1779
2.16500	1731
2.16867	1676
2.17233	1616
2.17600	1562
2.17967	1516
2.18333	1477
2.18700	1439
2.19067	1403
2.19433	1370
2.19800	1338
2.20167	1310
2.20533	1283
2.20900	1255
2.21267	1228
2.21633	1200
2.22000	1169
2.22367	1141
2.22733	1122
2.23100	1107
2.23467	1091
2.23833	1068
2.24200	1039
2.24567	1012
2.24933	990
2.25300	971
2.25667	953
2.26033	931
2.26400	909
2.26767	891
2.27133	878
2.27500	872
2.27867	868
2.28233	859
2.28600	846
2.28967	831
2.29333	815
2.29700	803
2.30067	794
2.30433	787
2.30800	780
2.31167	771
2.31533	760
2.31900	751
2.32267	745
2.32633	737
2.33000	728
2.33367	718
2.33733	708
2.34100	697
2.34467	686
2.34833	675
2.35200	667
2.35567	661
2.35933	656
2.36300	651
2.36667	645
2.37033	636
2.37400	630
2.37767	628
2.38133	628
2.38500	627
2.38867	623
2.39233	615
2.39600	610
2.39967	606
2.40333	603
2.40700	601
2.41067	600
2.41433	599
2.41800	597
2.42167	598
2.42533	597
2.42900	595
2.43267	594
2.43633	591
2.44000	586
2.44367	578
2.44733	571
2.45100	565
2.45467	560
2.45833	555
2.46200	547
2.46567	539
2.46933	532
2.47300	527
2.47667	522
2.48033	519
2.48400	518
2.48767	518
2.49133	524
2.49500	531
2.49867	533
2.50233	532
2.50600	531
2.50967	529
2.51333	527
2.51700	529
2.52067	539
2.52433	548
2.52800	547
2.53167	536
2.53533	525
2.53900	515
2.54267	504
2.54633	493
2.55000	485
2.55367	480
2.55733	476
2.56100	475
2.56467	475
2.56833	477
2.57200	481
2.57567	486
2.57933	490
2.58300	490
2.58667	489
2.59033	490
2.59400	492
2.59767	495
2.60133	496
2.60500	495
2.60867	489
2.61233	483
2.61600	477
2.61967	476
2.62333	477
2.62700	480
2.63067	483
2.63433	486
2.63800	489
2.64167	488
2.64533	485
2.64900	485
2.65267	484
2.65633	485
2.66000	487
2.66367	488
2.66733	490
2.67100	490
2.67467	490
2.67833	492
2.68200	494
2.68567	497
2.68933	502
2.69300	504
2.69667	503
2.70033	498
2.70400	491
2.70767	489
2.71133	494
2.71500	497
2.71867	494
2.72233	488
2.72600	481
2.72967	474
2.73333	471
2.73700	469
2.74067	472
2.74433	473
2.74800	472
2.75167	471
2.75533	473
2.75900	475
2.76267	476
2.76633	476
2.77000	478
2.77367	481
2.77733	484
2.78100	484
2.78467	484
2.78833	486
2.79200	485
2.79567	483
2.79933	478
2.80300	475
2.80667	474
2.81033	473
2.81400	475
2.81767	476
2.82133	479
2.82500	484
2.82867	486
2.83233	486
2.83600	485
2.83967	484
2.84333	482
2.84700	483
2.85067	485
2.85433	487
2.85800	492
2.86167	498
2.86533	499
2.86900	499
2.87267	498
2.87633	498
2.88000	501
2.88367	504
2.88733	508
2.89100	510
2.89467	508
2.89833	501
2.90200	491
2.90567	482
2.90933	477
2.91300	473
2.91667	472
2.92033	473
2.92400	476
2.92767	485
2.93133	491
2.93500	497
2.93867	501
2.94233	503
2.94600	502
2.94967	499
2.95333	494
2.95700	489
2.96067	490
2.96433	495
2.96800	500
2.97167	501
2.97533	499
2.97900	496
2.98267	494
2.98633	491
2.99000	488
2.99367	485
2.99733	486
3.00100	490
3.00467	497
3.00833	507
3.01200	513
3.01567	513
3.01933	510
3.02300	505
3.02667	503
3.03033	505
3.03400	507
3.03767	509
3.04133	511
3.04500	510
3.04867	509
3.05233	505
3.05600	498
3.05967	491
3.06333	492
3.06700	498
3.07067	503
3.07433	505
3.07800	506
3.08167	504
3.08533	502
3.08900	496
3.09267	491
3.09633	486
3.10000	483
3.10367	477
3.10733	470
3.11100	467
3.11467	467
3.11833	469
3.12200	471
3.12567	471
3.12933	469
3.13300	468
3.13667	466
3.14033	467
3.14400	473
3.14767	479
3.15133	484
3.15500	493
3.15867	505
3.16233	510
3.16600	508
3.16967	500
3.17333	490
3.17700	480
3.18067	474
3.18433	469
3.18800	464
3.19167	463
3.19533	460
3.19900	456
3.20267	454
3.20633	461
3.21000	475
3.21367	485
3.21733	492
3.22100	495
3.22467	494
3.22833	495
3.23200	500
3.23567	500
3.23933	491
3.24300	479
3.24667	464
3.25033	449
3.25400	443
3.25767	446
3.26133	455
3.26500	462
3.26867	467
3.27233	466
3.27600	461
3.27967	456
3.28333	457
3.28700	460
3.29067	461
3.29433	461
3.29800	461
3.30167	461
3.30533	460
3.30900	457
3.31267	458
3.31633	465
3.32000	475
3.32367	478
3.32733	474
3.33100	467
3.33467	460
3.33833	455
3.34200	454
3.34567	457
3.34933	457
3.35300	452
3.35667	448
3.36033	453
3.36400	462
3.36767	468
3.37133	472
3.37500	474
3.37867	475
3.38233	470
3.38600	460
3.38967	449
3.39333	441
3.39700	435
3.40067	430
3.40433	428
3.40800	432
3.41167	436
3.41533	441
3.41900	443
3.42267	441
3.42633	437
3.43000	436
3.43367	435
3.43733	433
3.44100	432
3.44467	431
3.44833	430
3.45200	432
3.45567	434
3.45933	436
3.46300	436
3.46667	439
3.47033	441
3.47400	440
3.47767	444
3.48133	450
3.48500	455
3.48867	457
3.49233	451
3.49600	440
3.49967	428
3.50333	416
3.50700	410
3.51067	411
3.51433	417
3.51800	423
3.52167	426
3.52533	429
3.52900	433
3.53267	439
3.53633	446
3.54000	449
3.54367	447
3.54733	440
3.55100	429
3.55467	418
3.55833	413
3.56200	410
3.56567	408
3.56933	407
3.57300	405
3.57667	397
3.58033	390
3.58400	388
3.58767	388
3.59133	386
3.59500	386
3.59867	388
3.60233	392
3.60600	400
3.60967	411
3.61333	417
3.61700	417
3.62067	412
3.62433	403
3.62800	390
3.63167	381
3.63533	374
3.63900	369
3.64267	364
3.64633	363
3.65000	365
3.65367	366
3.65733	365
3.66100	366
3.66467	372
3.66833	380
3.67200	387
3.67567	390
3.67933	389
3.68300	389
3.68667	391
3.69033	393
3.69400	394
3.69767	389
3.70133	380
3.70500	372
3.70867	367
3.71233	365
3.71600	364
3.71967	367
3.72333	373
3.72700	379
3.73067	384
3.73433	389
3.73800	396
3.74167	401
3.74533	395
3.74900	384
3.75267	373
3.75633	365
3.76000	356
3.76367	347
3.76733	341
3.77100	341
3.77467	344
3.77833	346
3.78200	346
3.78567	348
3.78933	351
3.79300	352
3.79667	353
3.80033	355
3.80400	358
3.80767	357
3.81133	356
3.81500	358
3.81867	362
3.82233	365
3.82600	366
3.82967	366
3.83333	363
3.83700	360
3.84067	354
3.84433	349
3.84800	344
3.85167	340
3.85533	334
3.85900	325
3.86267	319
3.86633	323
3.87000	337
3.87367	347
3.87733	349
3.88100	347
3.88467	345
3.88833	341
3.89200	335
3.89567	328
3.89933	322
3.90300	318
3.90667	317
3.91033	317
3.91400	318
3.91767	316
3.92133	312
3.92500	310
3.92867	311
3.93233	313
3.93600	316
3.93967	321
3.94333	324
3.94700	324
3.95067	324
3.95433	324
3.95800	323
3.96167	325
3.96533	328
3.96900	326
3.97267	322
3.97633	320
3.98000	320
3.98367	317
3.98733	311
3.99100	305
3.99467	301
3.99833	299

[Chromatogram (Ch2)]
Interval(msec)	220
# of Points	1091
Start Time(min)	0.002
End Time(min)	3.998
R.Time (min)	Intensity
0.00167	-1
0.00533	-1
0.00900	-1
0.01267	-1
0.01633	-0
0.02000	-0
0.02367	-0
0.02733	-0
0.03100	-1
0.03467	-1
0.03833	-1
0.04200	-2
0.04567	-2
0.04933	-3
0.05300	-3
0.05667	-3
0.06033	-4
0.06400	-4
0.06767	-4
0.07133	-3
0.07500	-3
0.07867	-3
0.08233	-3
0.08600	-3
0.08967	-2
0.09333	-2
0.09700	-2
0.10067	-1
0.10433	-1
0.10800	-1
0.11167	-0
0.11533	0
0.11900	0
0.12267	1
0.12633	1
0.13000	1
0.13367	2
0.13733	2
0.14100	1
0.14467	1
0.14833	1
0.15200	1
0.15567	1
0.15933	1
0.16300	1
0.16667	1
0.17033	1
0.17400	1
0.17767	1
0.18133	1
0.18500	0
0.18867	0
0.19233	-0
0.19600	-0
0.19967	-1
0.20333	-1
0.20700	-1
0.21067	-0
0.21433	-0
0.21800	0
0.22167	1
0.22533	1
0.22900	1
0.23267	0
0.23633	0
0.24000	0
0.24367	-0
0.24733	-0
0.25100	-0
0.25467	-0
0.25833	-0
0.26200	-0
0.26567	-1
0.26933	-1
0.27300	-1
0.27667	-1
0.28033	-1
0.28400	-2
0.28767	-2
0.29133	-2
0.29500	-2
0.29867	-2
0.30233	-2
0.30600	-2
0.30967	-2
0.31333	-2
0.31700	-3
0.32067	-3
0.32433	-3
0.32800	-3
0.33167	-3
0.33533	-3
0.33900	-3
0.34267	-3
0.34633	-3
0.35000	-3
0.35367	-2
0.35733	-2
0.36100	-2
0.36467	-1
0.36833	-1
0.37200	-1
0.37567	-0
0.37933	-0
0.38300	-0
0.38667	0
0.39033	0
0.39400	0
0.39767	0
0.40133	0
0.40500	-0
0.40867	-0
0.41233	-1
0.41600	-0
0.41967	-0
0.42333	-0
0.42700	-0
0.43067	-0
0.43433	-0
0.43800	-0
0.44167	-0
0.44533	-1
0.44900	-1
0.45267	-1
0.45633	-1
0.46000	-0
0.46367	-0
0.46733	-0
0.47100	-0
0.47467	0
0.47833	0
0.48200	1
0.48567	1
0.48933	1
0.49300	1
0.49667	1
0.50033	1
0.50400	1
0.50767	1
0.51133	1
0.51500	0
0.51867	-0
0.52233	-1
0.52600	-1
0.52967	-1
0.53333	-2
0.53700	-2
0.54067	-2
0.54433	-2
0.54800	-2
0.55167	-2
0.55533	-2
0.55900	-2
0.56267	-2
0.56633	-2
0.57000	-2
0.57367	-1
0.57733	-1
0.58100	-1
0.58467	-1
0.58833	-1
0.59200	-1
0.59567	-1
0.59933	-1
0.60300	-1
0.60667	-1
0.61033	-0
0.61400	-0
0.61767	-0
0.62133	0
0.62500	0
0.62867	1
0.63233	1
0.63600	1
0.63967	1
0.64333	1
0.64700	1
0.65067	1
0.65433	1
0.65800	1
0.66167	1
0.66533	1
0.66900	1
0.67267	0
0.67633	0
0.68000	0
0.68367	-0
0.68733	-0
0.69100	-1
0.69467	-1
0.69833	-1
0.70200	-2
0.70567	-2
0.70933	-3
0.71300	-3
0.71667	-3
0.72033	-3
0.72400	-3
0.72767	-3
0.73133	-3
0.73500	-3
0.73867	-3
0.74233	-3
0.74600	-2
0.74967	-2
0.75333	-2
0.75700	-2
0.76067	-1
0.76433	-1
0.76800	-1
0.77167	-1
0.77533	-0
0.77900	-0
0.78267	-0
0.78633	-0
0.79000	-0
0.79367	-0
0.79733	-0
0.80100	-0
0.80467	0
0.80833	0
0.81200	0
0.81567	0
0.81933	0
0.82300	-0
0.82667	-0
0.83033	-1
0.83400	-1
0.83767	-1
0.84133	-1
0.84500	-1
0.84867	-2
0.85233	-2
0.85600	-2
0.85967	-2
0.86333	-2
0.86700	-2
0.87067	-3
0.87433	-3
0.87800	-3
0.88167	-4
0.88533	-4
0.88900	-4
0.89267	-4
0.89633	-4
0.90000	-4
0.90367	-5
0.90733	-5
0.91100	-5
0.91467	-6
0.91833	-6
0.92200	-6
0.92567	-5
0.92933	-5
0.93300	-5
0.93667	-4
0.94033	-4
0.94400	-4
0.94767	-3
0.95133	-3
0.95500	-3
0.95867	-3
0.96233	-3
0.96600	-3
0.96967	-3
0.97333	-3
0.97700	-3
0.98067	-2
0.98433	-2
0.98800	-2
0.99167	-1
0.99533	-1
0.99900	-1
1.00267	-1
1.00633	-1
1.01000	-1
1.01367	-0
1.01733	-0
1.02100	-0
1.02467	-0
1.02833	-0
1.03200	-0
1.03567	-0
1.03933	-0
1.04300	-0
1.04667	-1
1.05033	-1
1.05400	-1
1.05767	-2
1.06133	-2
1.06500	-2
1.06867	-2
1.07233	-2
1.07600	-3
1.07967	-3
1.08333	-3
1.08700	-3
1.09067	-3
1.09433	-3
1.09800	-3
1.10167	-4
1.10533	-4
1.10900	-4
1.11267	-4
1.11633	-4
1.12000	-4
1.12367	-4
1.12733	-4
1.13100	-4
1.13467	-4
1.13833	-4
1.14200	-3
1.14567	-3
1.14933	-3
1.15300	-3
1.15667	-2
1.16033	-2
1.16400	-2
1.16767	-1
1.17133	-1
1.17500	-1
1.17867	-1
1.18233	-1
1.18600	-1
1.18967	-1
1.19333	-1
1.19700	-1
1.20067	-1
1.20433	-1
1.20800	-1
1.21167	-1
1.21533	-1
1.21900	-1
1.22267	-1
1.22633	-1
1.23000	-1
1.23367	-2
1.23733	-2
1.24100	-2
1.24467	-3
1.24833	-3
1.25200	-3
1.25567	-3
1.25933	-3
1.26300	-4
1.26667	-4
1.27033	-4
1.27400	-4
1.27767	-3
1.28133	-3
1.28500	-3
1.28867	-3
1.29233	-3
1.29600	-3
1.29967	-3
1.30333	-4
1.30700	-4
1.31067	-4
1.31433	-4
1.31800	-4
1.32167	-4
1.32533	-4
1.32900	-3
1.33267	-3
1.33633	-3
1.34000	-2
1.34367	-2
1.34733	-2
1.35100	-1
1.35467	-1
1.35833	-1
1.36200	-1
1.36567	-1
1.36933	-1
1.37300	-1
1.37667	-1
1.38033	-2
1.38400	-2
1.38767	-3
1.39133	-3
1.39500	-3
1.39867	-4
1.40233	-4
1.40600	-4
1.40967	-5
1.41333	-5
1.41700	-5
1.42067	-5
1.42433	-4
1.42800	-4
1.43167	-4
1.43533	-4
1.43900	-3
1.44267	-3
1.44633	-3
1.45000	-3
1.45367	-3
1.45733	-3
1.46100	-3
1.46467	-3
1.46833	-2
1.47200	-2
1.47567	-2
1.47933	-2
1.48300	-2
1.48667	-2
1.49033	-2
1.49400	-2
1.49767	-2
1.50133	-2
1.50500	-3
1.50867	-3
1.51233	-3
1.51600	-4
1.51967	-4
1.52333	-4
1.52700	-5
1.53067	-5
1.53433	-5
1.53800	-5
1.54167	-5
1.54533	-5
1.54900	-5
1.55267	-5
1.55633	-5
1.56000	-5
1.56367	-5
1.56733	-5
1.57100	-5
1.57467	-5
1.57833	-5
1.58200	-5
1.58567	-5
1.58933	-6
1.59300	-6
1.59667	-7
1.60033	-8
1.60400	-9
1.60767	-11
1.61133	-12
1.61500	-14
1.61867	-16
1.62233	-18
1.62600	-20
1.62967	-23
1.63333	-26
1.63700	-30
1.64067	-33
1.64433	-36
1.64800	-39
1.65167	-43
1.65533	-46
1.65900	-50
1.66267	-53
1.66633	-57
1.67000	-62
1.67367	-66
1.67733	-71
1.68100	-77
1.68467	-82
1.68833	-87
1.69200	-91
1.69567	-96
1.69933	-99
1.70300	-102
1.70667	-104
1.71033	-107
1.71400	-108
1.71767	-110
1.72133	-111
1.72500	-111
1.72867	-112
1.73233	-112
1.73600	-112
1.73967	-112
1.74333	-112
1.74700	-113
1.75067	-113
1.75433	-114
1.75800	-115
1.76167	-116
1.76533	-117
1.76900	-117
1.77267	-117
1.77633	-117
1.78000	-116
1.78367	-116
1.78733	-115
1.79100	-115
1.79467	-116
1.79833	-116
1.80200	-116
1.80567	-117
1.80933	-117
1.81300	-117
1.81667	-117
1.82033	-117
1.82400	-116
1.82767	-116
1.83133	-116
1.83500	-115
1.83867	-115
1.84233	-115
1.84600	-115
1.84967	-115
1.85333	-115
1.85700	-115
1.86067	-115
1.86433	-115
1.86800	-115
1.87167	-115
1.87533	-116
1.87900	-116
1.88267	-117
1.88633	-117
1.89000	-118
1.89367	-118
1.89733	-119
1.90100	-119
1.90467	-119
1.90833	-119
1.91200	-119
1.91567	-118
1.91933	-118
1.92300	-117
1.92667	-116
1.93033	-116
1.93400	-115
1.93767	-114
1.94133	-114
1.94500	-113
1.94867	-113
1.95233	-113
1.95600	-113
1.95967	-113
1.96333	-113
1.96700	-112
1.97067	-112
1.97433	-111
1.97800	-111
1.98167	-110
1.98533	-110
1.98900	-109
1.99267	-109
1.99633	-108
2.00000	-109
2.00367	-109
2.00733	-109
2.01100	-109
2.01467	-108
2.01833	-108
2.02200	-108
2.02567	-107
2.02933	-107
2.03300	-107
2.03667	-107
2.04033	-106
2.04400	-105
2.04767	-105
2.05133	-105
2.05500	-105
2.05867	-105
2.06233	-105
2.06600	-105
2.06967	-105
2.07333	-104
2.07700	-104
2.08067	-104
2.08433	-104
2.08800	-105
2.09167	-105
2.09533	-104
2.09900	-104
2.10267	-103
2.10633	-103
2.11000	-102
2.11367	-101
2.11733	-101
2.12100	-101
2.12467	-101
2.12833	-100
2.13200	-100
2.13567	-99
2.13933	-99
2.14300	-99
2.14667	-99
2.15033	-99
2.15400	-99
2.15767	-99
2.16133	-99
2.16500	-99
2.16867	-98
2.17233	-98
2.17600	-97
2.17967	-96
2.18333	-96
2.18700	-95
2.19067	-95
2.19433	-95
2.19800	-96
2.20167	-97
2.20533	-97
2.20900	-97
2.21267	-97
2.21633	-97
2.22000	-96
2.22367	-96
2.22733	-95
2.23100	-94
2.23467	-93
2.23833	-93
2.24200	-92
2.24567	-91
2.24933	-90
2.25300	-90
2.25667	-89
2.26033	-89
2.26400	-89
2.26767	-89
2.27133	-89
2.27500	-88
2.27867	-88
2.28233	-87
2.28600	-86
2.28967	-86
2.29333	-85
2.29700	-85
2.30067	-85
2.30433	-86
2.30800	-86
2.31167	-87
2.31533	-88
2.31900	-88
2.32267	-88
2.32633	-88
2.33000	-87
2.33367	-87
2.33733	-86
2.34100	-86
2.34467	-85
2.34833	-84
2.35200	-82
2.35567	-81
2.35933	-79
2.36300	-76
2.36667	-74
2.37033	-71
2.37400	-68
2.37767	-64
2.38133	-60
2.38500	-56
2.38867	-52
2.39233	-47
2.39600	-42
2.39967	-38
2.40333	-34
2.40700	-30
2.41067	-27
2.41433	-24
2.41800	-22
2.42167	-20
2.42533	-18
2.42900	-17
2.43267	-17
2.43633	-16
2.44000	-15
2.44367	-14
2.44733	-13
2.45100	-11
2.45467	-10
2.45833	-8
2.46200	-6
2.46567	-4
2.46933	-3
2.47300	-2
2.47667	-1
2.48033	0
2.48400	1
2.48767	3
2.49133	4
2.49500	5
2.49867	5
2.50233	6
2.50600	6
2.50967	6
2.51333	7
2.51700	7
2.52067	8
2.52433	9
2.52800	10
2.53167	10
2.53533	11
2.53900	12
2.54267	12
2.54633	12
2.55000	12
2.55367	13
2.55733	13
2.56100	13
2.56467	13
2.56833	13
2.57200	13
2.57567	13
2.57933	13
2.58300	13
2.58667	13
2.59033	13
2.59400	13
2.59767	13
2.60133	14
2.60500	14
2.60867	14
2.61233	14
2.61600	14
2.61967	14
2.62333	14
2.62700	15
2.63067	15
2.63433	16
2.63800	16
2.64167	17
2.64533	18
2.64900	18
2.65267	19
2.65633	19
2.66000	19
2.66367	20
2.66733	20
2.67100	20
2.67467	20
2.67833	21
2.68200	21
2.68567	21
2.68933	21
2.69300	22
2.69667	22
2.70033	22
2.70400	21
2.70767	21
2.71133	21
2.71500	21
2.71867	21
2.72233	21
2.72600	21
2.72967	21
2.73333	22
2.73700	22
2.74067	23
2.74433	23
2.74800	24
2.75167	24
2.75533	25
2.75900	25
2.76267	25
2.76633	25
2.77000	25
2.77367	25
2.77733	26
2.78100	26
2.78467	26
2.78833	26
2.79200	26
2.79567	27
2.79933	27
2.80300	27
2.80667	27
2.81033	27
2.81400	27
2.81767	27
2.82133	27
2.82500	27
2.82867	26
2.83233	25
2.83600	24
2.83967	23
2.84333	20
2.84700	16
2.85067	9
2.85433	-1
2.85800	-15
2.86167	-32
2.86533	-54
2.86900	-79
2.87267	-109
2.87633	-143
2.88000	-181
2.88367	-223
2.88733	-268
2.89100	-315
2.89467	-365
2.89833	-416
2.90200	-469
2.90567	-522
2.90933	-576
2.91300	-630
2.91667	-683
2.92033	-735
2.92400	-786
2.92767	-837
2.93133	-889
2.93500	-945
2.93867	-1005
2.94233	-1057
2.94600	-1092
2.94967	-1103
2.95333	-1088
2.95700	-1049
2.96067	-992
2.96433	-922
2.96800	-845
2.97167	-765
2.97533	-685
2.97900	-608
2.98267	-536
2.98633	-469
2.99000	-408
2.99367	-354
2.99733	-305
3.00100	-262
3.00467	-225
3.00833	-192
3.01200	-163
3.01567	-138
3.01933	-117
3.02300	-98
3.02667	-82
3.03033	-68
3.03400	-57
3.03767	-46
3.04133	-38
3.04500	-31
3.04867	-25
3.05233	-20
3.05600	-15
3.05967	-11
3.06333	-8
3.06700	-5
3.07067	-2
3.07433	0
3.07800	2
3.08167	4
3.08533	5
3.08900	6
3.09267	7
3.09633	8
3.10000	9
3.10367	9
3.10733	10
3.11100	11
3.11467	11
3.11833	12
3.12200	12
3.12567	13
3.12933	14
3.13300	14
3.13667	15
3.14033	15
3.14400	16
3.14767	17
3.15133	17
3.15500	18
3.15867	18
3.16233	19
3.16600	19
3.16967	19
3.17333	19
3.17700	20
3.18067	20
3.18433	20
3.18800	20
3.19167	20
3.19533	20
3.19900	20
3.20267	20
3.20633	20
3.21000	20
3.21367	20
3.21733	21
3.22100	21
3.22467	21
3.22833	21
3.23200	21
3.23567	21
3.23933	21
3.24300	20
3.24667	20
3.25033	20
3.25400	20
3.25767	20
3.26133	20
3.26500	20
3.26867	20
3.27233	21
3.27600	21
3.27967	22
3.28333	22
3.28700	23
3.29067	23
3.29433	23
3.29800	23
3.30167	24
3.30533	24
3.30900	24
3.31267	24
3.31633	24
3.32000	24
3.32367	25
3.32733	25
3.33100	25
3.33467	25
3.33833	26
3.34200	26
3.34567	26
3.34933	26
3.35300	26
3.35667	26
3.36033	26
3.36400	26
3.36767	25
3.37133	25
3.37500	25
3.37867	25
3.38233	25
3.38600	25
3.38967	25
3.39333	25
3.39700	25
3.40067	25
3.40433	25
3.40800	25
3.41167	26
3.41533	26
3.41900	26
3.42267	26
3.42633	26
3.43000	26
3.43367	26
3.43733	26
3.44100	26
3.44467	26
3.44833	26
3.45200	26
3.45567	26
3.45933	27
3.46300	27
3.46667	27
3.47033	27
3.47400	27
3.47767	27
3.48133	27
3.48500	27
3.48867	27
3.49233	27
3.49600	27
3.49967	27
3.50333	27
3.50700	26
3.51067	26
3.51433	26
3.51800	26
3.52167	25
3.52533	25
3.52900	25
3.53267	25
3.53633	25
3.54000	25
3.54367	25
3.54733	25
3.55100	25
3.55467	25
3.55833	25
3.56200	25
3.56567	25
3.56933	25
3.57300	25
3.57667	25
3.58033	25
3.58400	25
3.58767	25
3.59133	25
3.59500	25
3.59867	25
3.60233	24
3.60600	24
3.60967	24
3.61333	24
3.61700	24
3.62067	24
3.62433	24
3.62800	24
3.63167	24
3.63533	24
3.63900	24
3.64267	24
3.64633	24
3.65000	25
3.65367	25
3.65733	25
3.66100	25
3.66467	25
3.66833	25
3.67200	26
3.67567	26
3.67933	26
3.68300	27
3.68667	27
3.69033	27
3.69400	28
3.69767	28
3.70133	28
3.70500	28
3.70867	28
3.71233	28
3.71600	28
3.71967	28
3.72333	28
3.72700	29
3.73067	29
3.73433	29
3.73800	29
3.74167	29
3.74533	29
3.74900	29
3.75267	29
3.75633	28
3.76000	28
3.76367	28
3.76733	28
3.77100	28
3.77467	28
3.77833	28
3.78200	28
3.78567	27
3.78933	27
3.79300	27
3.79667	27
3.80033	27
3.80400	27
3.80767	27
3.81133	27
3.81500	27
3.81867	27
3.82233	27
3.82600	27
3.82967	27
3.83333	27
3.83700	27
3.84067	27
3.84433	27
3.84800	27
3.85167	27
3.85533	27
3.85900	27
3.86267	27
3.86633	26
3.87000	26
3.87367	26
3.87733	25
3.88100	25
3.88467	25
3.88833	25
3.89200	25
3.89567	25
3.89933	25
3.90300	24
3.90667	24
3.91033	24
3.91400	24
3.91767	24
3.92133	24
3.92500	24
3.92867	24
3.93233	24
3.93600	25
3.93967	25
3.94333	25
3.94700	25
3.95067	25
3.95433	25
3.95800	25
3.96167	25
3.96533	25
3.96900	25
3.97267	26
3.97633	26
3.98000	26
3.98367	26
3.98733	26
3.99100	26
3.99467	26
3.99833	26

[Chromatogram (Ch3)]
Interval(msec)	220
# of Points	1091
Start Time(min)	0.002
End Time(min)	3.998
R.Time (min)	Intensity
0.00167	-1
0.00533	-1
0.00900	-1
0.01267	-1
0.01633	0
0.02000	2
0.02367	4
0.02733	3
0.03100	-0
0.03467	-1
0.03833	-0
0.04200	-0
0.04567	0
0.04933	1
0.05300	1
0.05667	-1
0.06033	-0
0.06400	1
0.06767	3
0.07133	1
0.07500	-1
0.07867	-3
0.08233	-4
0.08600	-5
0.08967	-6
0.09333	-9
0.09700	-7
0.10067	-5
0.10433	-4
0.10800	-5
0.11167	-3
0.11533	0
0.11900	-0
0.12267	-1
0.12633	-3
0.13000	-3
0.13367	-3
0.13733	-2
0.14100	-2
0.14467	-1
0.14833	-1
0.15200	-2
0.15567	-3
0.15933	-3
0.16300	-3
0.16667	-3
0.17033	-5
0.17400	-6
0.17767	-4
0.18133	-3
0.18500	-4
0.18867	-3
0.19233	-1
0.19600	-1
0.19967	-1
0.20333	0
0.20700	3
0.21067	4
0.21433	3
0.21800	1
0.22167	-0
0.22533	-2
0.22900	-4
0.23267	-6
0.23633	-8
0.24000	-10
0.24367	-9
0.24733	-10
0.25100	-10
0.25467	-7
0.25833	-7
0.26200	-6
0.26567	-7
0.26933	-9
0.27300	-8
0.27667	-7
0.28033	-6
0.28400	-7
0.28767	-6
0.29133	-6
0.29500	-6
0.29867	-6
0.30233	-6
0.30600	-8
0.30967	-10
0.31333	-10
0.31700	-8
0.32067	-6
0.32433	-5
0.32800	-4
0.33167	-3
0.33533	-4
0.33900	-4
0.34267	-4
0.34633	-5
0.35000	-6
0.35367	-4
0.35733	-4
0.36100	-6
0.36467	-6
0.36833	-6
0.37200	-4
0.37567	-3
0.37933	-5
0.38300	-7
0.38667	-10
0.39033	-12
0.39400	-11
0.39767	-8
0.40133	-6
0.40500	-4
0.40867	-3
0.41233	-6
0.41600	-7
0.41967	-9
0.42333	-10
0.42700	-9
0.43067	-8
0.43433	-5
0.43800	-4
0.44167	-3
0.44533	-1
0.44900	1
0.45267	1
0.45633	-2
0.46000	-4
0.46367	-6
0.46733	-7
0.47100	-8
0.47467	-8
0.47833	-9
0.48200	-10
0.48567	-10
0.48933	-11
0.49300	-11
0.49667	-12
0.50033	-10
0.50400	-8
0.50767	-8
0.51133	-7
0.51500	-9
0.51867	-11
0.52233	-13
0.52600	-13
0.52967	-9
0.53333	-6
0.53700	-5
0.54067	-4
0.54433	-6
0.54800	-7
0.55167	-8
0.55533	-8
0.55900	-8
0.56267	-9
0.56633	-8
0.57000	-7
0.57367	-6
0.57733	-3
0.58100	-3
0.58467	-3
0.58833	-3
0.59200	-4
0.59567	-4
0.59933	-2
0.60300	-1
0.60667	-2
0.61033	-2
0.61400	-1
0.61767	1
0.62133	1
0.62500	0
0.62867	1
0.63233	1
0.63600	0
0.63967	-1
0.64333	-2
0.64700	-2
0.65067	-2
0.65433	-1
0.65800	-1
0.66167	-2
0.66533	-3
0.66900	-3
0.67267	-5
0.67633	-6
0.68000	-5
0.68367	-4
0.68733	-2
0.69100	-2
0.69467	-1
0.69833	0
0.70200	0
0.70567	-1
0.70933	-4
0.71300	-6
0.71667	-5
0.72033	-4
0.72400	-2
0.72767	-1
0.73133	0
0.73500	1
0.73867	2
0.74233	4
0.74600	4
0.74967	3
0.75333	3
0.75700	3
0.76067	2
0.76433	3
0.76800	5
0.77167	3
0.77533	4
0.77900	4
0.78267	3
0.78633	4
0.79000	3
0.79367	3
0.79733	2
0.80100	2
0.80467	2
0.80833	1
0.81200	0
0.81567	-1
0.81933	-4
0.82300	-5
0.82667	-5
0.83033	-3
0.83400	-1
0.83767	-0
0.84133	1
0.84500	-1
0.84867	-1
0.85233	-0
0.85600	-0
0.85967	1
0.86333	2
0.86700	4
0.87067	5
0.87433	4
0.87800	2
0.88167	0
0.88533	-0
0.88900	-0
0.89267	-0
0.89633	1
0.90000	2
0.90367	1
0.90733	-1
0.91100	-1
0.91467	0
0.91833	1
0.92200	1
0.92567	-2
0.92933	-3
0.93300	-2
0.93667	-0
0.94033	1
0.94400	3
0.94767	1
0.95133	-1
0.95500	-2
0.95867	-2
0.96233	-4
0.96600	-3
0.96967	-2
0.97333	-2
0.97700	-3
0.98067	-2
0.98433	-1
0.98800	0
0.99167	1
0.99533	-0
0.99900	-1
1.00267	-0
1.00633	0
1.01000	0
1.01367	0
1.01733	1
1.02100	-1
1.02467	-2
1.02833	-2
1.03200	-0
1.03567	0
1.03933	1
1.04300	2
1.04667	3
1.05033	4
1.05400	2
1.05767	1
1.06133	1
1.06500	1
1.06867	0
1.07233	1
1.07600	3
1.07967	5
1.08333	6
1.08700	7
1.09067	6
1.09433	7
1.09800	9
1.10167	9
1.10533	8
1.10900	7
1.11267	7
1.11633	5
1.12000	3
1.12367	2
1.12733	3
1.13100	4
1.13467	6
1.13833	7
1.14200	7
1.14567	8
1.14933	9
1.15300	9
1.15667	10
1.16033	11
1.16400	12
1.16767	10
1.17133	9
1.17500	9
1.17867	7
1.18233	6
1.18600	6
1.18967	6
1.19333	7
1.19700	9
1.20067	11
1.20433	11
1.20800	9
1.21167	8
1.21533	9
1.21900	9
1.22267	10
1.22633	12
1.23000	13
1.23367	13
1.23733	12
1.24100	10
1.24467	8
1.24833	7
1.25200	6
1.25567	5
1.25933	6
1.26300	9
1.26667	8
1.27033	7
1.27400	8
1.27767	10
1.28133	12
1.28500	12
1.28867	13
1.29233	13
1.29600	15
1.29967	18
1.30333	18
1.30700	17
1.31067	17
1.31433	18
1.31800	17
1.32167	16
1.32533	15
1.32900	13
1.33267	11
1.33633	10
1.34000	10
1.34367	12
1.34733	14
1.35100	15
1.35467	16
1.35833	16
1.36200	16
1.36567	16
1.36933	15
1.37300	14
1.37667	16
1.38033	17
1.38400	18
1.38767	19
1.39133	19
1.39500	20
1.39867	21
1.40233	24
1.40600	24
1.40967	24
1.41333	21
1.41700	19
1.42067	16
1.42433	15
1.42800	16
1.43167	18
1.43533	20
1.43900	18
1.44267	15
1.44633	14
1.45000	13
1.45367	14
1.45733	14
1.46100	15
1.46467	15
1.46833	16
1.47200	16
1.47567	16
1.47933	15
1.48300	16
1.48667	16
1.49033	17
1.49400	18
1.49767	21
1.50133	21
1.50500	21
1.50867	20
1.51233	19
1.51600	19
1.51967	20
1.52333	21
1.52700	23
1.53067	24
1.53433	25
1.53800	26
1.54167	25
1.54533	25
1.54900	25
1.55267	23
1.55633	23
1.56000	20
1.56367	18
1.56733	19
1.57100	22
1.57467	22
1.57833	22
1.58200	25
1.58567	27
1.58933	27
1.59300	25
1.59667	24
1.60033	25
1.60400	26
1.60767	26
1.61133	25
1.61500	25
1.61867	27
1.62233	29
1.62600	28
1.62967	29
1.63333	30
1.63700	30
1.64067	31
1.64433	32
1.64800	30
1.65167	29
1.65533	30
1.65900	32
1.66267	35
1.66633	35
1.67000	33
1.67367	33
1.67733	33
1.68100	33
1.68467	34
1.68833	35
1.69200	37
1.69567	37
1.69933	35
1.70300	33
1.70667	33
1.71033	32
1.71400	31
1.71767	32
1.72133	32
1.72500	34
1.72867	33
1.73233	34
1.73600	36
1.73967	37
1.74333	38
1.74700	40
1.75067	40
1.75433	37
1.75800	37
1.76167	43
1.76533	48
1.76900	50
1.77267	50
1.77633	48
1.78000	45
1.78367	43
1.78733	43
1.79100	44
1.79467	45
1.79833	46
1.80200	47
1.80567	46
1.80933	47
1.81300	48
1.81667	48
1.82033	48
1.82400	51
1.82767	53
1.83133	52
1.83500	51
1.83867	49
1.84233	46
1.84600	46
1.84967	48
1.85333	51
1.85700	53
1.86067	53
1.86433	54
1.86800	54
1.87167	55
1.87533	55
1.87900	57
1.88267	57
1.88633	57
1.89000	59
1.89367	61
1.89733	62
1.90100	61
1.90467	60
1.90833	59
1.91200	60
1.91567	61
1.91933	62
1.92300	62
1.92667	62
1.93033	60
1.93400	59
1.93767	59
1.94133	60
1.94500	60
1.94867	62
1.95233	65
1.95600	69
1.95967	72
1.96333	73
1.96700	74
1.97067	75
1.97433	78
1.97800	81
1.98167	82
1.98533	82
1.98900	81
1.99267	79
1.99633	81
2.00000	84
2.00367	88
2.00733	89
2.01100	88
2.01467	89
2.01833	89
2.02200	88
2.02567	89
2.02933	89
2.03300	90
2.03667	90
2.04033	91
2.04400	91
2.04767	91
2.05133	90
2.05500	91
2.05867	93
2.06233	97
2.06600	101
2.06967	102
2.07333	101
2.07700	99
2.08067	96
2.08433	95
2.08800	96
2.09167	97
2.09533	100
2.09900	102
2.10267	101
2.10633	101
2.11000	104
2.11367	106
2.11733	109
2.12100	110
2.12467	112
2.12833	115
2.13200	117
2.13567	118
2.13933	117
2.14300	117
2.14667	118
2.15033	118
2.15400	119
2.15767	119
2.16133	119
2.16500	119
2.16867	119
2.17233	118
2.17600	120
2.17967	121
2.18333	123
2.18700	126
2.19067	130
2.19433	132
2.19800	133
2.20167	136
2.20533	134
2.20900	132
2.21267	134
2.21633	135
2.22000	135
2.22367	136
2.22733	137
2.23100	140
2.23467	144
2.23833	147
2.24200	148
2.24567	148
2.24933	150
2.25300	153
2.25667	155
2.26033	155
2.26400	157
2.26767	157
2.27133	159
2.27500	161
2.27867	163
2.28233	164
2.28600	166
2.28967	168
2.29333	168
2.29700	169
2.30067	170
2.30433	170
2.30800	172
2.31167	175
2.31533	176
2.31900	176
2.32267	178
2.32633	181
2.33000	183
2.33367	184
2.33733	187
2.34100	189
2.34467	190
2.34833	189
2.35200	189
2.35567	191
2.35933	192
2.36300	195
2.36667	198
2.37033	198
2.37400	199
2.37767	201
2.38133	202
2.38500	201
2.38867	201
2.39233	202
2.39600	204
2.39967	207
2.40333	210
2.40700	213
2.41067	218
2.41433	223
2.41800	225
2.42167	226
2.42533	226
2.42900	228
2.43267	230
2.43633	232
2.44000	235
2.44367	269
2.44733	364
2.45100	467
2.45467	548
2.45833	596
2.46200	601
2.46567	577
2.46933	547
2.47300	522
2.47667	505
2.48033	497
2.48400	486
2.48767	467
2.49133	443
2.49500	415
2.49867	390
2.50233	369
2.50600	352
2.50967	341
2.51333	335
2.51700	331
2.52067	331
2.52433	340
2.52800	353
2.53167	366
2.53533	376
2.53900	387
2.54267	389
2.54633	382
2.55000	369
2.55367	352
2.55733	337
2.56100	323
2.56467	311
2.56833	299
2.57200	288
2.57567	279
2.57933	276
2.58300	274
2.58667	271
2.59033	268
2.59400	261
2.59767	253
2.60133	242
2.60500	228
2.60867	210
2.61233	188
2.61600	167
2.61967	147
2.62333	128
2.62700	112
2.63067	100
2.63433	95
2.63800	96
2.64167	102
2.64533	109
2.64900	116
2.65267	127
2.65633	138
2.66000	150
2.66367	160
2.66733	169
2.67100	176
2.67467	181
2.67833	187
2.68200	191
2.68567	192
2.68933	192
2.69300	191
2.69667	191
2.70033	191
2.70400	187
2.70767	183
2.71133	180
2.71500	179
2.71867	180
2.72233	178
2.72600	177
2.72967	178
2.73333	179
2.73700	179
2.74067	181
2.74433	180
2.74800	179
2.75167	178
2.75533	177
2.75900	175
2.76267	177
2.76633	180
2.77000	183
2.77367	186
2.77733	187
2.78100	185
2.78467	186
2.78833	187
2.79200	188
2.79567	186
2.79933	186
2.80300	186
2.80667	188
2.81033	191
2.81400	196
2.81767	206
2.82133	225
2.82500	263
2.82867	339
2.83233	480
2.83600	706
2.83967	1032
2.84333	1462
2.84700	1983
2.85067	2565
2.85433	3169
2.85800	3747
2.86167	4248
2.86533	4637
2.86900	4889
2.87267	4994
2.87633	4961
2.88000	4812
2.88367	4574
2.88733	4273
2.89100	3934
2.89467	3584
2.89833	3235
2.90200	2900
2.90567	2589
2.90933	2302
2.91300	2042
2.91667	1809
2.92033	1601
2.92400	1421
2.92767	1261
2.93133	1120
2.93500	999
2.93867	896
2.94233	808
2.94600	731
2.94967	664
2.95333	608
2.95700	559
2.96067	515
2.96433	476
2.96800	442
2.97167	414
2.97533	388
2.97900	366
2.98267	348
2.98633	333
2.99000	320
2.99367	309
2.99733	301
3.00100	294
3.00467	287
3.00833	280
3.01200	273
3.01567	267
3.01933	261
3.02300	255
3.02667	247
3.03033	240
3.03400	234
3.03767	228
3.04133	223
3.04500	221
3.04867	219
3.05233	216
3.05600	213
3.05967	210
3.06333	205
3.06700	203
3.07067	200
3.07433	197
3.07800	193
3.08167	193
3.08533	191
3.08900	189
3.09267	188
3.09633	187
3.10000	179
3.10367	149
3.10733	106
3.11100	77
3.11467	69
3.11833	80
3.12200	99
3.12567	124
3.12933	157
3.13300	193
3.13667	231
3.14033	270
3.14400	312
3.14767	353
3.15133	390
3.15500	423
3.15867	452
3.16233	477
3.16600	501
3.16967	524
3.17333	543
3.17700	561
3.18067	578
3.18433	591
3.18800	601
3.19167	609
3.19533	619
3.19900	627
3.20267	635
3.20633	642
3.21000	648
3.21367	653
3.21733	659
3.22100	664
3.22467	667
3.22833	673
3.23200	677
3.23567	680
3.23933	683
3.24300	684
3.24667	687
3.25033	690
3.25400	691
3.25767	690
3.26133	689
3.26500	688
3.26867	687
3.27233	687
3.27600	686
3.27967	683
3.28333	682
3.28700	679
3.29067	676
3.29433	675
3.29800	675
3.30167	673
3.30533	670
3.30900	665
3.31267	660
3.31633	657
3.32000	655
3.32367	653
3.32733	650
3.33100	647
3.33467	645
3.33833	643
3.34200	638
3.34567	634
3.34933	631
3.35300	629
3.35667	629
3.36033	630
3.36400	628
3.36767	627
3.37133	626
3.37500	626
3.37867	626
3.38233	626
3.38600	626
3.38967	627
3.39333	628
3.39700	627
3.40067	625
3.40433	624
3.40800	622
3.41167	621
3.41533	621
3.41900	621
3.42267	623
3.42633	624
3.43000	625
3.43367	623
3.43733	621
3.44100	619
3.44467	618
3.44833	619
3.45200	618
3.45567	618
3.45933	617
3.46300	617
3.46667	617
3.47033	616
3.47400	615
3.47767	613
3.48133	612
3.48500	611
3.48867	610
3.49233	609
3.49600	607
3.49967	606
3.50333	606
3.50700	605
3.51067	602
3.51433	601
3.51800	599
3.52167	598
3.52533	597
3.52900	594
3.53267	589
3.53633	584
3.54000	581
3.54367	577
3.54733	575
3.55100	574
3.55467	576
3.55833	577
3.56200	576
3.56567	574
3.56933	570
3.57300	565
3.57667	564
3.58033	564
3.58400	564
3.58767	563
3.59133	562
3.59500	558
3.59867	554
3.60233	552
3.60600	552
3.60967	551
3.61333	550
3.61700	548
3.62067	547
3.62433	545
3.62800	546
3.63167	546
3.63533	546
3.63900	545
3.64267	545
3.64633	545
3.65000	542
3.65367	540
3.65733	539
3.66100	538
3.66467	537
3.66833	538
3.67200	537
3.67567	533
3.67933	530
3.68300	527
3.68667	527
3.69033	527
3.69400	528
3.69767	527
3.70133	527
3.70500	526
3.70867	525
3.71233	526
3.71600	528
3.71967	530
3.72333	532
3.72700	528
3.73067	523
3.73433	520
3.73800	519
3.74167	518
3.74533	517
3.74900	516
3.75267	517
3.75633	518
3.76000	518
3.76367	519
3.76733	518
3.77100	519
3.77467	521
3.77833	522
3.78200	525
3.78567	524
3.78933	523
3.79300	523
3.79667	519
3.80033	515
3.80400	515
3.80767	517
3.81133	519
3.81500	520
3.81867	518
3.82233	515
3.82600	514
3.82967	512
3.83333	510
3.83700	509
3.84067	510
3.84433	512
3.84800	513
3.85167	512
3.85533	511
3.85900	510
3.86267	510
3.86633	511
3.87000	512
3.87367	512
3.87733	511
3.88100	509
3.88467	508
3.88833	508
3.89200	508
3.89567	507
3.89933	505
3.90300	504
3.90667	502
3.91033	500
3.91400	499
3.91767	499
3.92133	501
3.92500	501
3.92867	500
3.93233	498
3.93600	496
3.93967	495
3.94333	494
3.94700	494
3.95067	494
3.95433	493
3.95800	491
3.96167	490
3.96533	489
3.96900	488
3.97267	486
3.97633	484
3.98000	482
3.98367	482
3.98733	483
3.99100	484
3.99467	485
3.99833	483

[Status Trace (Column Oven Temperature)]
Interval(msec)	1000
# of Points	240
Start Time(min)	0.011
End Time(min)	3.994
Intensity Units	
Intensity Multiplier	1
R.Time (min)	Intensity
0.01083	35.02
0.02750	35.02
0.04417	35.04
0.06083	35.06
0.07750	35.07
0.09417	35.07
0.11083	35.06
0.12750	35.05
0.14417	35.04
0.16083	35.03
0.17750	35.03
0.19417	35.03
0.21083	35.03
0.22750	35.03
0.24417	35.04
0.26083	35.04
0.27750	35.05
0.29417	35.05
0.31083	35.06
0.32750	35.07
0.34417	35.06
0.36083	35.05
0.37750	35.04
0.39417	35.04
0.41083	35.05
0.42750	35.05
0.44417	35.04
0.46083	35.04
0.47750	35.02
0.49417	35.01
0.51083	35.02
0.52750	35.02
0.54417	35.03
0.56083	35.03
0.57750	35.02
0.59417	35.02
0.61083	35.00
0.62750	34.99
0.64417	34.99
0.66083	34.98
0.67750	34.99
0.69417	34.99
0.71083	35.00
0.72750	35.00
0.74417	35.00
0.76083	35.00
0.77750	35.00
0.79417	35.00
0.81083	34.99
0.82750	34.99
0.84417	34.99
0.86083	34.99
0.87750	35.00
0.89417	35.01
0.91083	35.02
0.92750	35.02
0.94417	35.01
0.96083	35.01
0.97750	35.02
0.99417	35.00
1.01083	34.99
1.02750	34.98
1.04417	34.99
1.06083	34.99
1.07750	35.00
1.09417	35.01
1.11083	35.01
1.12750	35.00
1.14417	35.00
1.16083	35.00
1.17750	34.99
1.19417	34.99
1.21083	34.98
1.22750	34.98
1.24417	34.98
1.26083	34.99
1.27750	35.00
1.29417	35.00
1.31083	35.01
1.32750	35.00
1.34417	34.99
1.36083	34.98
1.37750	34.98
1.39417	34.99
1.41083	35.00
1.42750	34.99
1.44417	34.99
1.46083	34.99
1.47750	34.99
1.49417	34.98
1.51083	34.98
1.52750	34.98
1.54417	34.98
1.56083	34.99
1.57750	34.99
1.59417	35.02
1.61083	35.10
1.62750	35.22
1.64417	35.41
1.66083	35.65
1.67750	36.00
1.69417	36.38
1.71083	36.74
1.72750	37.07
1.74417	37.40
1.76083	37.75
1.77750	38.06
1.79417	38.38
1.81083	38.72
1.82750	39.04
1.84417	39.38
1.86083	39.69
1.87750	40.03
1.89417	40.37
1.91083	40.70
1.92750	41.03
1.94417	41.33
1.96083	41.66
1.97750	41.97
1.99417	42.30
2.01083	42.62
2.02750	42.96
2.04417	43.27
2.06083	43.60
2.07750	43.91
2.09417	44.24
2.11083	44.56
2.12750	44.89
2.14417	45.21
2.16083	45.55
2.17750	45.87
2.19417	46.22
2.21083	46.55
2.22750	46.90
2.24417	47.22
2.26083	47.56
2.27750	47.89
2.29417	48.20
2.31083	48.58
2.32750	48.91
2.34417	49.23
2.36083	49.48
2.37750	49.60
2.39417	49.62
2.41083	49.60
2.42750	49.64
2.44417	49.66
2.46083	49.66
2.47750	49.68
2.49417	49.70
2.51083	49.72
2.52750	49.72
2.54417	49.74
2.56083	49.75
2.57750	49.78
2.59417	49.80
2.61083	49.81
2.62750	49.81
2.64417	49.81
2.66083	49.82
2.67750	49.82
2.69417	49.83
2.71083	49.85
2.72750	49.85
2.74417	49.85
2.76083	49.86
2.77750	49.86
2.79417	49.86
2.81083	49.85
2.82750	49.87
2.84417	49.88
2.86083	49.88
2.87750	49.89
2.89417	49.89
2.91083	49.90
2.92750	49.90
2.94417	49.91
2.96083	49.92
2.97750	49.95
2.99417	49.98
3.01083	49.99
3.02750	50.00
3.04417	50.02
3.06083	50.03
3.07750	50.04
3.09417	50.05
3.11083	50.06
3.12750	50.08
3.14417	50.08
3.16083	50.08
3.17750	50.07
3.19417	50.07
3.21083	50.07
3.22750	50.08
3.24417	50.09
3.26083	50.10
3.27750	50.10
3.29417	50.09
3.31083	50.08
3.32750	50.07
3.34417	50.07
3.36083	50.07
3.37750	50.08
3.39417	50.08
3.41083	50.07
3.42750	50.06
3.44417	50.06
3.46083	50.06
3.47750	50.05
3.49417	50.06
3.51083	50.06
3.52750	50.06
3.54417	50.07
3.56083	50.07
3.57750	50.08
3.59417	50.09
3.61083	50.10
3.62750	50.10
3.64417	50.10
3.66083	50.10
3.67750	50.09
3.69417	50.07
3.71083	50.06
3.72750	50.04
3.74417	50.03
3.76083	50.03
3.77750	50.03
3.79417	50.03
3.81083	50.03
3.82750	50.02
3.84417	50.01
3.86083	50.01
3.87750	50.03
3.89417	50.03
3.91083	50.04
3.92750	50.04
3.94417	50.04
3.96083	50.04
3.97750	50.03
3.99417	50.02

[Status Trace (Injection Unit Temperature)]
Interval(msec)	1000
# of Points	240
Start Time(min)	0.011
End Time(min)	3.994
Intensity Units	
Intensity Multiplier	1
R.Time (min)	Intensity
0.01083	99.98
0.02750	99.98
0.04417	99.98
0.06083	99.98
0.07750	99.98
0.09417	99.98
0.11083	99.98
0.12750	99.97
0.14417	99.98
0.16083	99.98
0.17750	99.98
0.19417	99.98
0.21083	99.98
0.22750	99.98
0.24417	99.98
0.26083	99.98
0.27750	99.97
0.29417	99.98
0.31083	99.98
0.32750	99.98
0.34417	99.98
0.36083	99.98
0.37750	99.98
0.39417	99.98
0.41083	99.98
0.42750	99.98
0.44417	99.98
0.46083	99.98
0.47750	99.98
0.49417	99.98
0.51083	99.98
0.52750	99.98
0.54417	99.98
0.56083	99.98
0.57750	99.99
0.59417	99.99
0.61083	99.98
0.62750	99.99
0.64417	99.99
0.66083	99.98
0.67750	99.98
0.69417	99.98
0.71083	99.99
0.72750	99.98
0.74417	99.98
0.76083	99.98
0.77750	99.99
0.79417	99.99
0.81083	99.98
0.82750	99.99
0.84417	99.99
0.86083	99.99
0.87750	99.98
0.89417	99.99
0.91083	99.99
0.92750	99.98
0.94417	99.98
0.96083	99.99
0.97750	99.99
0.99417	99.98
1.01083	99.99
1.02750	99.98
1.04417	99.99
1.06083	99.98
1.07750	99.98
1.09417	99.98
1.11083	99.98
1.12750	99.98
1.14417	99.98
1.16083	99.98
1.17750	99.98
1.19417	99.98
1.21083	99.98
1.22750	99.98
1.24417	99.98
1.26083	99.98
1.27750	99.98
1.29417	99.98
1.31083	99.98
1.32750	99.98
1.34417	99.98
1.36083	99.98
1.37750	99.98
1.39417	99.98
1.41083	99.98
1.42750	99.98
1.44417	99.98
1.46083	99.98
1.47750	99.98
1.49417	99.98
1.51083	99.98
1.52750	99.98
1.54417	99.98
1.56083	99.98
1.57750	99.98
1.59417	99.98
1.61083	99.98
1.62750	99.98
1.64417	99.98
1.66083	99.98
1.67750	99.98
1.69417	99.98
1.71083	99.98
1.72750	99.98
1.74417	99.99
1.76083	99.98
1.77750	99.98
1.79417	99.98
1.81083	99.98
1.82750	99.99
1.84417	99.98
1.86083	99.98
1.87750	99.98
1.89417	99.98
1.91083	99.98
1.92750	99.98
1.94417	99.98
1.96083	99.98
1.97750	99.98
1.99417	99.98
2.01083	99.98
2.02750	99.98
2.04417	99.98
2.06083	99.98
2.07750	99.98
2.09417	99.98
2.11083	99.98
2.12750	99.98
2.14417	99.97
2.16083	99.97
2.17750	99.98
2.19417	99.98
2.21083	99.98
2.22750	99.97
2.24417	99.97
2.26083	99.97
2.27750	99.97
2.29417	99.97
2.31083	99.97
2.32750	99.97
2.34417	99.97
2.36083	99.97
2.37750	99.97
2.39417	99.97
2.41083	99.97
2.42750	99.97
2.44417	99.97
2.46083	99.97
2.47750	99.97
2.49417	99.96
2.51083	99.97
2.52750	99.97
2.54417	99.96
2.56083	99.97
2.57750	99.97
2.59417	99.97
2.61083	99.97
2.62750	99.97
2.64417	99.97
2.66083	99.98
2.67750	99.98
2.69417	99.98
2.71083	99.97
2.72750	99.98
2.74417	99.98
2.76083	99.98
2.77750	99.98
2.79417	99.98
2.81083	99.99
2.82750	99.98
2.84417	99.99
2.86083	100.00
2.87750	100.00
2.89417	100.00
2.91083	100.00
2.92750	100.00
2.94417	100.00
2.96083	100.00
2.97750	100.01
2.99417	100.01
3.01083	100.01
3.02750	100.01
3.04417	100.01
3.06083	100.02
3.07750	100.02
3.09417	100.02
3.11083	100.02
3.12750	100.02
3.14417	100.02
3.16083	100.02
3.17750	100.02
3.19417	100.02
3.21083	100.03
3.22750	100.03
3.24417	100.03
3.26083	100.03
3.27750	100.03
3.29417	100.03
3.31083	100.04
3.32750	100.04
3.34417	100.04
3.36083	100.04
3.37750	100.04
3.39417	100.04
3.41083	100.04
3.42750	100.04
3.44417	100.04
3.46083	100.04
3.47750	100.04
3.49417	100.04
3.51083	100.05
3.52750	100.04
3.54417	100.04
3.56083	100.04
3.57750	100.05
3.59417	100.05
3.61083	100.04
3.62750	100.04
3.64417	100.05
3.66083	100.04
3.67750	100.04
3.69417	100.05
3.71083	100.05
3.72750	100.05
3.74417	100.05
3.76083	100.05
3.77750	100.05
3.79417	100.05
3.81083	100.05
3.82750	100.05
3.84417	100.05
3.86083	100.05
3.87750	100.05
3.89417	100.05
3.91083	100.05
3.92750	100.05
3.94417	100.05
3.96083	100.05
3.97750	100.05
3.99417	100.05

[Status Trace (Carrier Gas Pressure)]
Interval(msec)	1000
# of Points	240
Start Time(min)	0.011
End Time(min)	3.994
Intensity Units	
Intensity Multiplier	1
R.Time (min)	Intensity
0.01083	58.00
0.02750	55.09
0.04417	57.51
0.06083	59.61
0.07750	59.10
0.09417	58.01
0.11083	57.99
0.12750	58.01
0.14417	58.01
0.16083	58.00
0.17750	58.00
0.19417	58.00
0.21083	58.00
0.22750	58.00
0.24417	58.00
0.26083	58.00
0.27750	58.00
0.29417	58.00
0.31083	58.00
0.32750	58.00
0.34417	58.00
0.36083	58.00
0.37750	58.00
0.39417	58.00
0.41083	58.00
0.42750	58.00
0.44417	58.00
0.46083	58.00
0.47750	58.00
0.49417	58.00
0.51083	58.00
0.52750	58.00
0.54417	58.00
0.56083	58.00
0.57750	58.00
0.59417	58.00
0.61083	58.00
0.62750	58.00
0.64417	58.00
0.66083	58.00
0.67750	58.00
0.69417	58.00
0.71083	58.00
0.72750	58.00
0.74417	58.00
0.76083	58.00
0.77750	58.00
0.79417	58.00
0.81083	58.00
0.82750	58.00
0.84417	58.00
0.86083	58.00
0.87750	58.00
0.89417	58.00
0.91083	58.00
0.92750	58.00
0.94417	58.00
0.96083	58.00
0.97750	58.00
0.99417	58.00
1.01083	58.00
1.02750	58.00
1.04417	58.00
1.06083	58.00
1.07750	58.00
1.09417	58.00
1.11083	58.00
1.12750	58.00
1.14417	58.00
1.16083	58.00
1.17750	58.00
1.19417	58.00
1.21083	58.00
1.22750	58.00
1.24417	58.00
1.26083	58.00
1.27750	58.00
1.29417	58.00
1.31083	58.00
1.32750	58.00
1.34417	58.00
1.36083	58.00
1.37750	58.00
1.39417	58.00
1.41083	58.00
1.42750	58.00
1.44417	58.00
1.46083	58.00
1.47750	58.00
1.49417	58.00
1.51083	58.00
1.52750	58.00
1.54417	58.00
1.56083	58.00
1.57750	58.00
1.59417	58.00
1.61083	58.00
1.62750	58.00
1.64417	58.00
1.66083	58.00
1.67750	58.01
1.69417	58.00
1.71083	58.00
1.72750	58.00
1.74417	58.00
1.76083	58.00
1.77750	58.00
1.79417	58.00
1.81083	58.00
1.82750	58.00
1.84417	58.00
1.86083	58.00
1.87750	58.00
1.89417	58.00
1.91083	58.00
1.92750	58.00
1.94417	58.00
1.96083	58.00
1.97750	58.00
1.99417	58.00
2.01083	58.00
2.02750	58.00
2.04417	58.00
2.06083	58.00
2.07750	58.00
2.09417	58.00
2.11083	58.00
2.12750	58.00
2.14417	58.00
2.16083	58.00
2.17750	58.00
2.19417	58.00
2.21083	58.00
2.22750	58.00
2.24417	58.00
2.26083	58.00
2.27750	58.00
2.29417	58.00
2.31083	58.00
2.32750	58.00
2.34417	58.00
2.36083	58.00
2.37750	57.99
2.39417	57.99
2.41083	58.00
2.42750	58.00
2.44417	58.00
2.46083	58.00
2.47750	58.00
2.49417	58.00
2.51083	57.99
2.52750	57.98
2.54417	58.00
2.56083	58.00
2.57750	58.00
2.59417	58.00
2.61083	58.00
2.62750	58.00
2.64417	58.00
2.66083	58.00
2.67750	58.00
2.69417	58.00
2.71083	58.00
2.72750	58.00
2.74417	58.00
2.76083	58.00
2.77750	58.00
2.79417	58.00
2.81083	58.00
2.82750	58.00
2.84417	58.00
2.86083	58.00
2.87750	58.00
2.89417	58.00
2.91083	58.00
2.92750	58.00
2.94417	58.00
2.96083	58.00
2.97750	58.00
2.99417	58.00
3.01083	58.00
3.02750	58.00
3.04417	58.00
3.06083	58.00
3.07750	58.00
3.09417	58.00
3.11083	58.00
3.12750	58.00
3.14417	58.00
3.16083	58.00
3.17750	58.00
3.19417	58.00
3.21083	58.00
3.22750	58.00
3.24417	58.00
3.26083	58.00
3.27750	58.00
3.29417	58.00
3.31083	58.00
3.32750	58.00
3.34417	58.00
3.36083	58.00
3.37750	58.00
3.39417	58.00
3.41083	58.00
3.42750	58.00
3.44417	58.00
3.46083	58.00
3.47750	58.00
3.49417	58.00
3.51083	58.00
3.52750	58.00
3.54417	58.00
3.56083	58.00
3.57750	58.00
3.59417	58.00
3.61083	58.00
3.62750	58.00
3.64417	58.00
3.66083	58.00
3.67750	58.00
3.69417	58.00
3.71083	58.00
3.72750	58.00
3.74417	58.00
3.76083	58.00
3.77750	58.00
3.79417	58.00
3.81083	58.00
3.82750	58.00
3.84417	58.00
3.86083	58.00
3.87750	58.00
3.89417	58.00
3.91083	58.00
3.92750	58.00
3.94417	58.00
3.96083	58.00
3.97750	58.00
3.99417	58.00

[Status Trace (Carrier Gas Flow)]
Interval(msec)	1000
# of Points	240
Start Time(min)	0.011
End Time(min)	3.994
Intensity Units	
Intensity Multiplier	1
R.Time (min)	Intensity
0.01083	34.51
0.02750	34.53
0.04417	34.55
0.06083	34.55
0.07750	34.50
0.09417	34.52
0.11083	34.52
0.12750	34.52
0.14417	34.52
0.16083	34.52
0.17750	34.52
0.19417	34.52
0.21083	34.52
0.22750	34.51
0.24417	34.52
0.26083	34.52
0.27750	34.52
0.29417	34.52
0.31083	34.51
0.32750	34.52
0.34417	34.52
0.36083	34.51
0.37750	34.52
0.39417	34.52
0.41083	34.52
0.42750	34.52
0.44417	34.52
0.46083	34.52
0.47750	34.52
0.49417	34.51
0.51083	34.52
0.52750	34.52
0.54417	34.52
0.56083	34.52
0.57750	34.52
0.59417	34.52
0.61083	34.52
0.62750	34.52
0.64417	34.52
0.66083	34.51
0.67750	34.52
0.69417	34.52
0.71083	34.53
0.72750	34.52
0.74417	34.53
0.76083	34.52
0.77750	34.51
0.79417	34.52
0.81083	34.52
0.82750	34.52
0.84417	34.52
0.86083	34.52
0.87750	34.53
0.89417	34.52
0.91083	34.52
0.92750	34.52
0.94417	34.52
0.96083	34.52
0.97750	34.52
0.99417	34.52
1.01083	34.52
1.02750	34.51
1.04417	34.52
1.06083	34.52
1.07750	34.52
1.09417	34.52
1.11083	34.52
1.12750	34.52
1.14417	34.52
1.16083	34.52
1.17750	34.52
1.19417	34.52
1.21083	34.52
1.22750	34.52
1.24417	34.52
1.26083	34.52
1.27750	34.52
1.29417	34.52
1.31083	34.52
1.32750	34.52
1.34417	34.52
1.36083	34.52
1.37750	34.51
1.39417	34.52
1.41083	34.52
1.42750	34.52
1.44417	34.52
1.46083	34.52
1.47750	34.52
1.49417	34.51
1.51083	34.52
1.52750	34.52
1.54417	34.52
1.56083	34.52
1.57750	34.52
1.59417	34.52
1.61083	34.52
1.62750	34.51
1.64417	34.51
1.66083	34.52
1.67750	34.51
1.69417	34.52
1.71083	34.52
1.72750	34.52
1.74417	34.52
1.76083	34.52
1.77750	34.51
1.79417	34.52
1.81083	34.52
1.82750	34.52
1.84417	34.53
1.86083	34.52
1.87750	34.52
1.89417	34.52
1.91083	34.52
1.92750	34.51
1.94417	34.52
1.96083	34.52
1.97750	34.52
1.99417	34.52
2.01083	34.52
2.02750	34.52
2.04417	34.52
2.06083	34.52
2.07750	34.52
2.09417	34.52
2.11083	34.52
2.12750	34.52
2.14417	34.52
2.16083	34.53
2.17750	34.52
2.19417	34.53
2.21083	34.52
2.22750	34.52
2.24417	34.52
2.26083	34.52
2.27750	34.51
2.29417	34.52
2.31083	34.52
2.32750	34.52
2.34417	34.53
2.36083	34.52
2.37750	34.51
2.39417	34.52
2.41083	34.52
2.42750	34.51
2.44417	34.52
2.46083	34.52
2.47750	34.52
2.49417	34.52
2.51083	34.52
2.52750	34.52
2.54417	34.52
2.56083	34.52
2.57750	34.52
2.59417	34.52
2.61083	34.52
2.62750	34.52
2.64417	34.52
2.66083	34.51
2.67750	34.52
2.69417	34.52
2.71083	34.52
2.72750	34.52
2.74417	34.51
2.76083	34.52
2.77750	34.52
2.79417	34.51
2.81083	34.53
2.82750	34.51
2.84417	34.51
2.86083	34.52
2.87750	34.52
2.89417	34.52
2.91083	34.51
2.92750	34.52
2.94417	34.53
2.96083	34.52
2.97750	34.51
2.99417	34.52
3.01083	34.52
3.02750	34.52
3.04417	34.51
3.06083	34.51
3.07750	34.52
3.09417	34.53
3.11083	34.52
3.12750	34.52
3.14417	34.52
3.16083	34.52
3.17750	34.52
3.19417	34.52
3.21083	34.52
3.22750	34.52
3.24417	34.51
3.26083	34.52
3.27750	34.52
3.29417	34.52
3.31083	34.52
3.32750	34.52
3.34417	34.52
3.36083	34.52
3.37750	34.52
3.39417	34.52
3.41083	34.52
3.42750	34.52
3.44417	34.52
3.46083	34.52
3.47750	34.52
3.49417	34.52
3.51083	34.52
3.52750	34.52
3.54417	34.52
3.56083	34.52
3.57750	34.51
3.59417	34.52
3.61083	34.52
3.62750	34.53
3.64417	34.52
3.66083	34.52
3.67750	34.52
3.69417	34.52
3.71083	34.52
3.72750	34.51
3.74417	34.52
3.76083	34.52
3.77750	34.52
3.79417	34.52
3.81083	34.52
3.82750	34.51
3.84417	34.52
3.86083	34.52
3.87750	34.52
3.89417	34.52
3.91083	34.52
3.92750	34.52
3.94417	34.52
3.96083	34.51
3.97750	34.52
3.99417	34.52

[Status Trace (Column Flow)]
Interval(msec)	1000
# of Points	240
Start Time(min)	0.011
End Time(min)	3.994
Intensity Units	
Intensity Multiplier	1
R.Time (min)	Intensity
0.01083	5.57
0.02750	5.23
0.04417	5.51
0.06083	5.76
0.07750	5.70
0.09417	5.57
0.11083	5.57
0.12750	5.57
0.14417	5.57
0.16083	5.57
0.17750	5.57
0.19417	5.57
0.21083	5.57
0.22750	5.57
0.24417	5.57
0.26083	5.57
0.27750	5.57
0.29417	5.57
0.31083	5.57
0.32750	5.57
0.34417	5.57
0.36083	5.57
0.37750	5.57
0.39417	5.57
0.41083	5.57
0.42750	5.57
0.44417	5.57
0.46083	5.57
0.47750	5.57
0.49417	5.57
0.51083	5.57
0.52750	5.57
0.54417	5.57
0.56083	5.57
0.57750	5.57
0.59417	5.57
0.61083	5.57
0.62750	5.57
0.64417	5.57
0.66083	5.57
0.67750	5.57
0.69417	5.57
0.71083	5.57
0.72750	5.57
0.74417	5.57
0.76083	5.57
0.77750	5.57
0.79417	5.57
0.81083	5.57
0.82750	5.57
0.84417	5.57
0.86083	5.57
0.87750	5.57
0.89417	5.57
0.91083	5.57
0.92750	5.57
0.94417	5.57
0.96083	5.57
0.97750	5.57
0.99417	5.57
1.01083	5.57
1.02750	5.57
1.04417	5.57
1.06083	5.57
1.07750	5.57
1.09417	5.57
1.11083	5.57
1.12750	5.57
1.14417	5.57
1.16083	5.57
1.17750	5.57
1.19417	5.57
1.21083	5.57
1.22750	5.57
1.24417	5.57
1.26083	5.57
1.27750	5.57
1.29417	5.57
1.31083	5.57
1.32750	5.57
1.34417	5.57
1.36083	5.57
1.37750	5.57
1.39417	5.57
1.41083	5.57
1.42750	5.57
1.44417	5.57
1.46083	5.57
1.47750	5.57
1.49417	5.57
1.51083	5.57
1.52750	5.57
1.54417	5.57
1.56083	5.57
1.57750	5.57
1.59417	5.57
1.61083	5.57
1.62750	5.57
1.64417	5.56
1.66083	5.55
1.67750	5.54
1.69417	5.53
1.71083	5.52
1.72750	5.51
1.74417	5.50
1.76083	5.49
1.77750	5.48
1.79417	5.47
1.81083	5.46
1.82750	5.45
1.84417	5.44
1.86083	5.43
1.87750	5.42
1.89417	5.40
1.91083	5.39
1.92750	5.39
1.94417	5.38
1.96083	5.37
1.97750	5.36
1.99417	5.35
2.01083	5.34
2.02750	5.33
2.04417	5.32
2.06083	5.31
2.07750	5.30
2.09417	5.29
2.11083	5.28
2.12750	5.27
2.14417	5.26
2.16083	5.25
2.17750	5.24
2.19417	5.23
2.21083	5.22
2.22750	5.21
2.24417	5.20
2.26083	5.19
2.27750	5.18
2.29417	5.17
2.31083	5.16
2.32750	5.16
2.34417	5.15
2.36083	5.14
2.37750	5.14
2.39417	5.13
2.41083	5.13
2.42750	5.13
2.44417	5.13
2.46083	5.13
2.47750	5.13
2.49417	5.13
2.51083	5.13
2.52750	5.13
2.54417	5.13
2.56083	5.13
2.57750	5.13
2.59417	5.13
2.61083	5.13
2.62750	5.13
2.64417	5.13
2.66083	5.13
2.67750	5.13
2.69417	5.13
2.71083	5.13
2.72750	5.13
2.74417	5.13
2.76083	5.13
2.77750	5.13
2.79417	5.13
2.81083	5.13
2.82750	5.13
2.84417	5.13
2.86083	5.13
2.87750	5.13
2.89417	5.13
2.91083	5.13
2.92750	5.13
2.94417	5.13
2.96083	5.13
2.97750	5.13
2.99417	5.13
3.01083	5.12
3.02750	5.12
3.04417	5.12
3.06083	5.12
3.07750	5.12
3.09417	5.12
3.11083	5.12
3.12750	5.12
3.14417	5.12
3.16083	5.12
3.17750	5.12
3.19417	5.12
3.21083	5.12
3.22750	5.12
3.24417	5.12
3.26083	5.12
3.27750	5.12
3.29417	5.12
3.31083	5.12
3.32750	5.12
3.34417	5.12
3.36083	5.12
3.37750	5.12
3.39417	5.12
3.41083	5.12
3.42750	5.12
3.44417	5.12
3.46083	5.12
3.47750	5.12
3.49417	5.12
3.51083	5.12
3.52750	5.12
3.54417	5.12
3.56083	5.12
3.57750	5.12
3.59417	5.12
3.61083	5.12
3.62750	5.12
3.64417	5.12
3.66083	5.12
3.67750	5.12
3.69417	5.12
3.71083	5.12
3.72750	5.12
3.74417	5.12
3.76083	5.12
3.77750	5.12
3.79417	5.12
3.81083	5.12
3.82750	5.12
3.84417	5.12
3.86083	5.12
3.87750	5.12
3.89417	5.12
3.91083	5.12
3.92750	5.12
3.94417	5.12
3.96083	5.12
3.97750	5.12
3.99417	5.12

[Status Trace (Linear Velocity)]
Interval(msec)	1000
# of Points	240
Start Time(min)	0.011
End Time(min)	3.994
Intensity Units	
Intensity Multiplier	1
R.Time (min)	Intensity
0.01083	39.03
0.02750	37.11
0.04417	38.70
0.06083	40.08
0.07750	39.75
0.09417	39.03
0.11083	39.02
0.12750	39.03
0.14417	39.03
0.16083	39.03
0.17750	39.03
0.19417	39.03
0.21083	39.03
0.22750	39.03
0.24417	39.03
0.26083	39.03
0.27750	39.02
0.29417	39.02
0.31083	39.02
0.32750	39.02
0.34417	39.02
0.36083	39.02
0.37750	39.02
0.39417	39.02
0.41083	39.02
0.42750	39.02
0.44417	39.02
0.46083	39.02
0.47750	39.03
0.49417	39.03
0.51083	39.03
0.52750	39.03
0.54417	39.03
0.56083	39.03
0.57750	39.03
0.59417	39.03
0.61083	39.03
0.62750	39.03
0.64417	39.03
0.66083	39.03
0.67750	39.03
0.69417	39.03
0.71083	39.03
0.72750	39.03
0.74417	39.03
0.76083	39.03
0.77750	39.03
0.79417	39.03
0.81083	39.03
0.82750	39.03
0.84417	39.03
0.86083	39.03
0.87750	39.03
0.89417	39.03
0.91083	39.03
0.92750	39.03
0.94417	39.03
0.96083	39.03
0.97750	39.03
0.99417	39.03
1.01083	39.03
1.02750	39.03
1.04417	39.03
1.06083	39.03
1.07750	39.03
1.09417	39.03
1.11083	39.03
1.12750	39.03
1.14417	39.03
1.16083	39.03
1.17750	39.03
1.19417	39.03
1.21083	39.03
1.22750	39.03
1.24417	39.03
1.26083	39.03
1.27750	39.03
1.29417	39.03
1.31083	39.03
1.32750	39.03
1.34417	39.03
1.36083	39.03
1.37750	39.03
1.39417	39.03
1.41083	39.03
1.42750	39.03
1.44417	39.03
1.46083	39.03
1.47750	39.03
1.49417	39.03
1.51083	39.03
1.52750	39.03
1.54417	39.03
1.56083	39.03
1.57750	39.03
1.59417	39.03
1.61083	39.02
1.62750	39.01
1.64417	38.99
1.66083	38.97
1.67750	38.94
1.69417	38.90
1.71083	38.86
1.72750	38.83
1.74417	38.80
1.76083	38.77
1.77750	38.74
1.79417	38.71
1.81083	38.67
1.82750	38.65
1.84417	38.61
1.86083	38.58
1.87750	38.55
1.89417	38.52
1.91083	38.49
1.92750	38.46
1.94417	38.43
1.96083	38.40
1.97750	38.37
1.99417	38.34
2.01083	38.31
2.02750	38.28
2.04417	38.25
2.06083	38.22
2.07750	38.19
2.09417	38.16
2.11083	38.13
2.12750	38.11
2.14417	38.07
2.16083	38.04
2.17750	38.02
2.19417	37.98
2.21083	37.95
2.22750	37.92
2.24417	37.89
2.26083	37.86
2.27750	37.83
2.29417	37.80
2.31083	37.77
2.32750	37.74
2.34417	37.71
2.36083	37.69
2.37750	37.68
2.39417	37.67
2.41083	37.68
2.42750	37.68
2.44417	37.67
2.46083	37.67
2.47750	37.67
2.49417	37.67
2.51083	37.67
2.52750	37.66
2.54417	37.67
2.56083	37.67
2.57750	37.66
2.59417	37.66
2.61083	37.66
2.62750	37.66
2.64417	37.66
2.66083	37.66
2.67750	37.66
2.69417	37.66
2.71083	37.66
2.72750	37.66
2.74417	37.66
2.76083	37.66
2.77750	37.66
2.79417	37.66
2.81083	37.66
2.82750	37.66
2.84417	37.65
2.86083	37.65
2.87750	37.65
2.89417	37.65
2.91083	37.65
2.92750	37.65
2.94417	37.65
2.96083	37.65
2.97750	37.65
2.99417	37.65
3.01083	37.64
3.02750	37.64
3.04417	37.64
3.06083	37.64
3.07750	37.64
3.09417	37.64
3.11083	37.64
3.12750	37.64
3.14417	37.64
3.16083	37.64
3.17750	37.64
3.19417	37.64
3.21083	37.64
3.22750	37.64
3.24417	37.64
3.26083	37.63
3.27750	37.63
3.29417	37.64
3.31083	37.64
3.32750	37.64
3.34417	37.64
3.36083	37.64
3.37750	37.64
3.39417	37.64
3.41083	37.64
3.42750	37.64
3.44417	37.64
3.46083	37.64
3.47750	37.64
3.49417	37.64
3.51083	37.64
3.52750	37.64
3.54417	37.64
3.56083	37.64
3.57750	37.64
3.59417	37.64
3.61083	37.63
3.62750	37.63
3.64417	37.64
3.66083	37.63
3.67750	37.64
3.69417	37.64
3.71083	37.64
3.72750	37.64
3.74417	37.64
3.76083	37.64
3.77750	37.64
3.79417	37.64
3.81083	37.64
3.82750	37.64
3.84417	37.64
3.86083	37.64
3.87750	37.64
3.89417	37.64
3.91083	37.64
3.92750	37.64
3.94417	37.64
3.96083	37.64
3.97750	37.64
3.99417	37.64

