[Header]
Application Name	LabSolutions
Version	5.110
Data File Name	C:\Users\User\Desktop\GC Analyses\Jack\Nachusa Grasslands Sampling\T1 Timepoint July 12th\T1_07122022_087.gcd
Output Date	3/14/2023
Output Time	3:41:02 PM

[File Information]
Type	Data File
Generated	3/8/2023 10:58:30 PM
Generated by	System Administrator
Modified	3/8/2023 11:05:07 PM
Modified by	System Administrator

[Sample Information]
Operator Name	System Administrator
Acquired	3/8/2023 11:01:06 PM
Sample Type	0:Unknown
Level	0
Sample Name	087
Sample ID	087
ISTD Amount1	1
ISTD Amount2	1
ISTD Amount3	1
ISTD Amount4	1
ISTD Amount5	1
ISTD Amount6	1
ISTD Amount7	1
ISTD Amount8	1
ISTD Amount9	1
ISTD Amount10	1
ISTD Amount11	1
ISTD Amount12	1
ISTD Amount13	1
ISTD Amount14	1
ISTD Amount15	1
ISTD Amount16	1
ISTD Amount17	1
ISTD Amount18	1
ISTD Amount19	1
ISTD Amount20	1
ISTD Amount21	1
ISTD Amount22	1
ISTD Amount23	1
ISTD Amount24	1
ISTD Amount25	1
ISTD Amount26	1
ISTD Amount27	1
ISTD Amount28	1
ISTD Amount29	1
ISTD Amount30	1
ISTD Amount31	1
ISTD Amount32	1
Sample Amount	1
Dilution Factor	1
Vial#	86
Injection Volume	1
Injection Count	1
Bar Code	

[Original Files]
Data File	C:\Users\User\Desktop\GC Analyses\Jack\Nachusa Grasslands Sampling\T1 Timepoint July 12th\T1_07122022_087.gcd
Method File	C:\LabSolutions\Data\GHG_4min_2022\ghg3_togas_w_acet_4 min_new_int.gcm
Batch File	C:\LabSolutions\Data\AutoSamplerTesting\T1_07122022.gcb
Report Format File	c:\LabSolutions\System\DEFAULT.lsr

[File Description]


[Configuration]
Instrument Name	C0B7VH3-Instrument1
Instrument #	1
Line #	1
# of Detectors	3
Detector ID	DET#1	DET#2	DET#3
Detector Name	FID	PTCD	ECD
# of Channels	1	1	1

[Peak Table(Ch1)]
# of Peaks	3
Peak#	R.Time	I.Time	F.Time	Area	Height	A/H	Conc.	Mark	ID#	Name	k'	Plate #	Plate Ht.	Tailing	Resolution	Sep.Factor	Area Ratio	Height Ratio	Conc. %	Norm Conc.
1	1.476	1.435	1.538	32382	15325	2.113	228.620	   	1	CO	0.000	9162	16.372	1.340	0.000	0.000	0	0	29.308	29.308
2	1.567	1.538	1.626	4753	2298	2.068	91.895	 V 	2	CH4	0.062	10369	14.466	0.000	1.488	0.000	0	0	11.781	11.781
3	1.996	1.952	2.488	1831015	865254	2.116	459.535	   	3	CO2	0.353	17269	8.686	1.309	7.014	5.680	0	0	58.911	58.911

[Peak Table(Ch2)]
# of Peaks	0

[Peak Table(Ch3)]
# of Peaks	6
Peak#	R.Time	I.Time	F.Time	Area	Height	A/H	Conc.	Mark	ID#	Name	k'	Plate #	Plate Ht.	Tailing	Resolution	Sep.Factor	Area Ratio	Height Ratio	Conc. %	Norm Conc.
1	2.458	2.286	2.517	2335	614	3.802	0.000	   			0.000	10416	14.401	0.000	0.000	0.000	0	0	0.000	0.000
2	2.539	2.517	2.627	917	251	3.647	0.000	 V 			0.033	7341	20.433	0.000	0.751	0.000	0	0	0.000	0.000
3	2.682	2.638	2.730	350	85	4.105	0.000	   			0.091	4852	30.916	0.000	1.049	2.773	0	0	0.000	0.000
4	2.873	2.730	3.056	21159	5090	4.157	0.540	 V 	1	N2O	0.169	12741	11.773	1.926	1.491	1.852	0	0	100.000	100.000
5	3.137	3.060	3.291	7838	665	11.779	0.000	   	2	SF6	0.276	186	808.236	0.000	0.516	1.637	0	0	0.000	0.000
6	3.364	3.291	3.954	11803	596	19.797	0.000	 V 	2	SF6	0.368	13	11721.141	0.000	0.097	1.335	0	0	0.000	0.000

[Compound Results(Ch1)]
# of IDs	6
ID#	Name	R.Time	Area	Height	Conc.	Curve	3rd	2nd	1st	Constant	Area Ratio	Height Ratio	Conc. %	Norm Conc.
1	CO	1.476	32382	15325	228.620	Linear	0.000000e+00	0.000000e+00	1.416423e+002	0.000000e+00	0	0	29.308	29.308
2	CH4	1.567	4753	2298	91.895	Linear	0.000000e+00	0.000000e+00	5.171738e+001	0.000000e+00	0	0	11.781	11.781
3	CO2	1.996	1831015	865254	459.535	Linear	0.000000e+00	0.000000e+00	3.984494e+003	0.000000e+00	0	0	58.911	58.911
4	Ethylene	0.000	0	0	0.000	Linear	0.000000e+00	0.000000e+00	0.000000e+00	0.000000e+00	0	0	0.000	0.000
5	Acetylene	0.000	0	0	0.000	Linear	0.000000e+00	0.000000e+00	0.000000e+00	0.000000e+00	0	0	0.000	0.000
6	Ethane	0.000	0	0	0.000	Linear	0.000000e+00	0.000000e+00	0.000000e+00	0.000000e+00	0	0	0.000	0.000

[Compound Results(Ch2)]
# of IDs	5
ID#	Name	R.Time	Area	Height	Conc.	Curve	3rd	2nd	1st	Constant	Area Ratio	Height Ratio	Conc. %	Norm Conc.
1	Hydrogen	0.000	0	0	0.000	Linear	0.000000e+00	0.000000e+00	0.000000e+00	0.000000e+00	0	0	0.000	0.000
2	Oxygen	0.000	0	0	0.000	Linear	0.000000e+00	0.000000e+00	0.000000e+00	0.000000e+00	0	0	0.000	0.000
3	Nitrogen	0.000	0	0	0.000	Linear	0.000000e+00	0.000000e+00	0.000000e+00	0.000000e+00	0	0	0.000	0.000
4	Methane	0.000	0	0	0.000	Linear	0.000000e+00	0.000000e+00	0.000000e+00	0.000000e+00	0	0	0.000	0.000
5	Carbon Monoxide	0.000	0	0	0.000	Linear	0.000000e+00	0.000000e+00	0.000000e+00	0.000000e+00	0	0	0.000	0.000

[Compound Results(Ch3)]
# of IDs	2
ID#	Name	R.Time	Area	Height	Conc.	Curve	3rd	2nd	1st	Constant	Area Ratio	Height Ratio	Conc. %	Norm Conc.
1	N2O	2.873	21159	5090	0.540	Linear	0.000000e+00	0.000000e+00	3.915173e+004	0.000000e+00	0	0	100.000	100.000
2	SF6	3.137	19641	1262	0.000	Linear	0.000000e+00	0.000000e+00	0.000000e+00	0.000000e+00	0	0	0.000	0.000

[Group Results(Ch1)]
# of Groups	0

[Group Results(Ch2)]
# of Groups	0

[Group Results(Ch3)]
# of Groups	0

[Chromatogram (Ch1)]
Interval(msec)	220
# of Points	1091
Start Time(min)	0.002
End Time(min)	3.998
R.Time (min)	Intensity
0.00167	28
0.00533	27
0.00900	26
0.01267	24
0.01633	20
0.02000	17
0.02367	14
0.02733	12
0.03100	9
0.03467	8
0.03833	9
0.04200	12
0.04567	15
0.04933	16
0.05300	17
0.05667	15
0.06033	12
0.06400	7
0.06767	6
0.07133	8
0.07500	15
0.07867	21
0.08233	20
0.08600	18
0.08967	16
0.09333	14
0.09700	11
0.10067	12
0.10433	21
0.10800	33
0.11167	36
0.11533	32
0.11900	28
0.12267	27
0.12633	29
0.13000	28
0.13367	25
0.13733	25
0.14100	28
0.14467	28
0.14833	27
0.15200	25
0.15567	24
0.15933	23
0.16300	22
0.16667	21
0.17033	19
0.17400	18
0.17767	19
0.18133	21
0.18500	21
0.18867	21
0.19233	20
0.19600	22
0.19967	31
0.20333	40
0.20700	46
0.21067	48
0.21433	43
0.21800	34
0.22167	25
0.22533	20
0.22900	18
0.23267	20
0.23633	23
0.24000	28
0.24367	33
0.24733	34
0.25100	28
0.25467	21
0.25833	20
0.26200	23
0.26567	28
0.26933	36
0.27300	44
0.27667	48
0.28033	52
0.28400	57
0.28767	62
0.29133	66
0.29500	72
0.29867	80
0.30233	93
0.30600	104
0.30967	107
0.31333	106
0.31700	108
0.32067	115
0.32433	125
0.32800	128
0.33167	124
0.33533	119
0.33900	108
0.34267	95
0.34633	100
0.35000	99
0.35367	96
0.35733	96
0.36100	101
0.36467	109
0.36833	115
0.37200	113
0.37567	113
0.37933	116
0.38300	113
0.38667	110
0.39033	105
0.39400	102
0.39767	101
0.40133	110
0.40500	110
0.40867	102
0.41233	94
0.41600	87
0.41967	82
0.42333	78
0.42700	76
0.43067	74
0.43433	69
0.43800	64
0.44167	58
0.44533	49
0.44900	40
0.45267	36
0.45633	35
0.46000	32
0.46367	29
0.46733	24
0.47100	17
0.47467	10
0.47833	4
0.48200	3
0.48567	7
0.48933	13
0.49300	14
0.49667	9
0.50033	-0
0.50400	-8
0.50767	-10
0.51133	-7
0.51500	-2
0.51867	6
0.52233	12
0.52600	12
0.52967	8
0.53333	3
0.53700	-1
0.54067	-3
0.54433	0
0.54800	9
0.55167	20
0.55533	25
0.55900	20
0.56267	12
0.56633	7
0.57000	4
0.57367	1
0.57733	-3
0.58100	-7
0.58467	-13
0.58833	-17
0.59200	-15
0.59567	-10
0.59933	-5
0.60300	-1
0.60667	1
0.61033	2
0.61400	6
0.61767	10
0.62133	9
0.62500	10
0.62867	11
0.63233	11
0.63600	10
0.63967	7
0.64333	0
0.64700	-3
0.65067	-2
0.65433	2
0.65800	8
0.66167	14
0.66533	17
0.66900	13
0.67267	5
0.67633	-5
0.68000	-12
0.68367	-12
0.68733	-7
0.69100	-2
0.69467	1
0.69833	2
0.70200	-0
0.70567	-1
0.70933	-3
0.71300	-7
0.71667	-6
0.72033	-3
0.72400	2
0.72767	6
0.73133	8
0.73500	6
0.73867	4
0.74233	0
0.74600	-6
0.74967	-16
0.75333	-26
0.75700	-26
0.76067	-19
0.76433	-6
0.76800	5
0.77167	8
0.77533	11
0.77900	14
0.78267	11
0.78633	3
0.79000	-4
0.79367	-10
0.79733	-16
0.80100	-21
0.80467	-20
0.80833	-18
0.81200	-19
0.81567	-20
0.81933	-18
0.82300	-15
0.82667	-16
0.83033	-17
0.83400	-12
0.83767	-2
0.84133	8
0.84500	11
0.84867	7
0.85233	-0
0.85600	-8
0.85967	-17
0.86333	-23
0.86700	-22
0.87067	-15
0.87433	-13
0.87800	-15
0.88167	-14
0.88533	-12
0.88900	-11
0.89267	-15
0.89633	-24
0.90000	-32
0.90367	-35
0.90733	-28
0.91100	-20
0.91467	-17
0.91833	-17
0.92200	-17
0.92567	-16
0.92933	-17
0.93300	-21
0.93667	-26
0.94033	-25
0.94400	-17
0.94767	-2
0.95133	6
0.95500	-0
0.95867	-11
0.96233	-20
0.96600	-26
0.96967	-28
0.97333	-29
0.97700	-31
0.98067	-39
0.98433	-47
0.98800	-50
0.99167	-49
0.99533	-46
0.99900	-42
1.00267	-36
1.00633	-31
1.01000	-29
1.01367	-30
1.01733	-32
1.02100	-31
1.02467	-25
1.02833	-22
1.03200	-20
1.03567	-19
1.03933	-16
1.04300	-13
1.04667	-15
1.05033	-24
1.05400	-33
1.05767	-32
1.06133	-25
1.06500	-18
1.06867	-12
1.07233	-14
1.07600	-21
1.07967	-33
1.08333	-46
1.08700	-52
1.09067	-52
1.09433	-54
1.09800	-57
1.10167	-58
1.10533	-50
1.10900	-36
1.11267	-27
1.11633	-22
1.12000	-20
1.12367	-22
1.12733	-26
1.13100	-28
1.13467	-27
1.13833	-27
1.14200	-30
1.14567	-36
1.14933	-41
1.15300	-46
1.15667	-53
1.16033	-56
1.16400	-52
1.16767	-42
1.17133	-30
1.17500	-23
1.17867	-21
1.18233	-18
1.18600	-19
1.18967	-23
1.19333	-26
1.19700	-31
1.20067	-38
1.20433	-47
1.20800	-55
1.21167	-58
1.21533	-53
1.21900	-47
1.22267	-44
1.22633	-44
1.23000	-41
1.23367	-37
1.23733	-36
1.24100	-34
1.24467	-36
1.24833	-44
1.25200	-57
1.25567	-68
1.25933	-73
1.26300	-77
1.26667	-79
1.27033	-77
1.27400	-73
1.27767	-69
1.28133	-66
1.28500	-62
1.28867	-56
1.29233	-47
1.29600	-38
1.29967	-24
1.30333	-8
1.30700	4
1.31067	8
1.31433	2
1.31800	-8
1.32167	-16
1.32533	-20
1.32900	-25
1.33267	-30
1.33633	-31
1.34000	-32
1.34367	-34
1.34733	-36
1.35100	-34
1.35467	-30
1.35833	-23
1.36200	-16
1.36567	-12
1.36933	-7
1.37300	-4
1.37667	-7
1.38033	-13
1.38400	-19
1.38767	-21
1.39133	-20
1.39500	-20
1.39867	-20
1.40233	-20
1.40600	-22
1.40967	-25
1.41333	-25
1.41700	-24
1.42067	-25
1.42433	-30
1.42800	-36
1.43167	-37
1.43533	-31
1.43900	-7
1.44267	85
1.44633	316
1.45000	903
1.45367	2319
1.45733	4732
1.46100	7682
1.46467	10536
1.46833	12881
1.47200	14521
1.47567	15311
1.47933	15113
1.48300	13917
1.48667	11956
1.49033	9646
1.49400	7395
1.49767	5470
1.50133	3959
1.50500	2838
1.50867	2037
1.51233	1473
1.51600	1082
1.51967	812
1.52333	625
1.52700	491
1.53067	390
1.53433	315
1.53800	275
1.54167	301
1.54533	450
1.54900	755
1.55267	1163
1.55633	1578
1.56000	1928
1.56367	2182
1.56733	2321
1.57100	2312
1.57467	2138
1.57833	1830
1.58200	1460
1.58567	1102
1.58933	801
1.59300	567
1.59667	396
1.60033	275
1.60400	191
1.60767	130
1.61133	89
1.61500	65
1.61867	55
1.62233	51
1.62600	47
1.62967	42
1.63333	37
1.63700	34
1.64067	33
1.64433	31
1.64800	26
1.65167	20
1.65533	18
1.65900	18
1.66267	20
1.66633	26
1.67000	31
1.67367	31
1.67733	25
1.68100	16
1.68467	8
1.68833	-3
1.69200	-7
1.69567	-9
1.69933	-14
1.70300	-20
1.70667	-24
1.71033	-23
1.71400	-19
1.71767	-15
1.72133	-10
1.72500	-4
1.72867	4
1.73233	12
1.73600	17
1.73967	20
1.74333	19
1.74700	11
1.75067	3
1.75433	-3
1.75800	-9
1.76167	-17
1.76533	-23
1.76900	-25
1.77267	-27
1.77633	-24
1.78000	-20
1.78367	-17
1.78733	-15
1.79100	-12
1.79467	-10
1.79833	-10
1.80200	-10
1.80567	-6
1.80933	-2
1.81300	2
1.81667	6
1.82033	11
1.82400	11
1.82767	8
1.83133	2
1.83500	-7
1.83867	-12
1.84233	-12
1.84600	-8
1.84967	-1
1.85333	8
1.85700	12
1.86067	9
1.86433	5
1.86800	3
1.87167	-1
1.87533	-8
1.87900	-14
1.88267	-18
1.88633	-18
1.89000	-15
1.89367	-10
1.89733	-4
1.90100	3
1.90467	7
1.90833	4
1.91200	-3
1.91567	-7
1.91933	-9
1.92300	-11
1.92667	-8
1.93033	-1
1.93400	8
1.93767	13
1.94133	11
1.94500	6
1.94867	3
1.95233	20
1.95600	158
1.95967	974
1.96333	4716
1.96700	17785
1.97067	52825
1.97433	125605
1.97800	243973
1.98167	398172
1.98533	563133
1.98900	709979
1.99267	815636
1.99633	865307
2.00000	853571
2.00367	785751
2.00733	677294
2.01100	549717
2.01467	423696
2.01833	313408
2.02200	225048
2.02567	158659
2.02933	110988
2.03300	77787
2.03667	55098
2.04033	39741
2.04400	29367
2.04767	22325
2.05133	17499
2.05500	14141
2.05867	11754
2.06233	10010
2.06600	8700
2.06967	7690
2.07333	6890
2.07700	6245
2.08067	5716
2.08433	5268
2.08800	4878
2.09167	4542
2.09533	4252
2.09900	3998
2.10267	3773
2.10633	3574
2.11000	3398
2.11367	3241
2.11733	3099
2.12100	2964
2.12467	2837
2.12833	2717
2.13200	2603
2.13567	2499
2.13933	2403
2.14300	2317
2.14667	2237
2.15033	2167
2.15400	2104
2.15767	2042
2.16133	1975
2.16500	1906
2.16867	1838
2.17233	1777
2.17600	1717
2.17967	1659
2.18333	1607
2.18700	1561
2.19067	1520
2.19433	1482
2.19800	1448
2.20167	1417
2.20533	1387
2.20900	1362
2.21267	1340
2.21633	1319
2.22000	1291
2.22367	1260
2.22733	1228
2.23100	1201
2.23467	1172
2.23833	1142
2.24200	1110
2.24567	1082
2.24933	1059
2.25300	1040
2.25667	1023
2.26033	1007
2.26400	991
2.26767	977
2.27133	964
2.27500	951
2.27867	941
2.28233	932
2.28600	918
2.28967	896
2.29333	870
2.29700	844
2.30067	820
2.30433	795
2.30800	773
2.31167	755
2.31533	741
2.31900	733
2.32267	734
2.32633	738
2.33000	737
2.33367	729
2.33733	723
2.34100	720
2.34467	719
2.34833	714
2.35200	703
2.35567	685
2.35933	665
2.36300	647
2.36667	636
2.37033	632
2.37400	630
2.37767	628
2.38133	620
2.38500	609
2.38867	599
2.39233	596
2.39600	597
2.39967	596
2.40333	591
2.40700	582
2.41067	569
2.41433	557
2.41800	550
2.42167	549
2.42533	551
2.42900	554
2.43267	558
2.43633	557
2.44000	550
2.44367	537
2.44733	524
2.45100	516
2.45467	510
2.45833	507
2.46200	504
2.46567	498
2.46933	488
2.47300	477
2.47667	467
2.48033	456
2.48400	446
2.48767	436
2.49133	428
2.49500	424
2.49867	424
2.50233	425
2.50600	430
2.50967	435
2.51333	442
2.51700	451
2.52067	455
2.52433	458
2.52800	461
2.53167	454
2.53533	438
2.53900	422
2.54267	414
2.54633	409
2.55000	404
2.55367	396
2.55733	387
2.56100	380
2.56467	378
2.56833	382
2.57200	390
2.57567	398
2.57933	400
2.58300	395
2.58667	389
2.59033	387
2.59400	385
2.59767	380
2.60133	372
2.60500	367
2.60867	363
2.61233	359
2.61600	353
2.61967	347
2.62333	342
2.62700	339
2.63067	342
2.63433	345
2.63800	347
2.64167	351
2.64533	351
2.64900	347
2.65267	343
2.65633	340
2.66000	335
2.66367	330
2.66733	324
2.67100	316
2.67467	314
2.67833	313
2.68200	313
2.68567	313
2.68933	314
2.69300	313
2.69667	314
2.70033	319
2.70400	325
2.70767	330
2.71133	334
2.71500	336
2.71867	332
2.72233	321
2.72600	309
2.72967	300
2.73333	294
2.73700	287
2.74067	276
2.74433	267
2.74800	260
2.75167	257
2.75533	263
2.75900	273
2.76267	279
2.76633	281
2.77000	281
2.77367	281
2.77733	278
2.78100	272
2.78467	265
2.78833	256
2.79200	253
2.79567	255
2.79933	257
2.80300	260
2.80667	267
2.81033	271
2.81400	267
2.81767	263
2.82133	266
2.82500	273
2.82867	282
2.83233	286
2.83600	286
2.83967	281
2.84333	275
2.84700	271
2.85067	264
2.85433	253
2.85800	242
2.86167	234
2.86533	231
2.86900	234
2.87267	240
2.87633	242
2.88000	240
2.88367	234
2.88733	231
2.89100	229
2.89467	226
2.89833	224
2.90200	226
2.90567	229
2.90933	231
2.91300	234
2.91667	235
2.92033	233
2.92400	231
2.92767	228
2.93133	222
2.93500	217
2.93867	216
2.94233	219
2.94600	226
2.94967	233
2.95333	237
2.95700	239
2.96067	236
2.96433	229
2.96800	222
2.97167	212
2.97533	201
2.97900	194
2.98267	189
2.98633	190
2.99000	195
2.99367	201
2.99733	207
3.00100	211
3.00467	214
3.00833	213
3.01200	213
3.01567	215
3.01933	218
3.02300	222
3.02667	221
3.03033	218
3.03400	214
3.03767	211
3.04133	208
3.04500	206
3.04867	207
3.05233	203
3.05600	196
3.05967	187
3.06333	183
3.06700	186
3.07067	190
3.07433	195
3.07800	200
3.08167	197
3.08533	191
3.08900	188
3.09267	186
3.09633	184
3.10000	183
3.10367	184
3.10733	185
3.11100	185
3.11467	184
3.11833	184
3.12200	179
3.12567	174
3.12933	173
3.13300	174
3.13667	174
3.14033	172
3.14400	167
3.14767	161
3.15133	158
3.15500	156
3.15867	158
3.16233	160
3.16600	156
3.16967	154
3.17333	153
3.17700	151
3.18067	147
3.18433	150
3.18800	158
3.19167	165
3.19533	168
3.19900	170
3.20267	165
3.20633	159
3.21000	152
3.21367	142
3.21733	130
3.22100	123
3.22467	120
3.22833	119
3.23200	119
3.23567	122
3.23933	125
3.24300	126
3.24667	130
3.25033	136
3.25400	142
3.25767	148
3.26133	159
3.26500	169
3.26867	172
3.27233	169
3.27600	162
3.27967	154
3.28333	145
3.28700	134
3.29067	122
3.29433	110
3.29800	97
3.30167	90
3.30533	88
3.30900	87
3.31267	91
3.31633	96
3.32000	103
3.32367	111
3.32733	120
3.33100	127
3.33467	134
3.33833	138
3.34200	138
3.34567	136
3.34933	134
3.35300	133
3.35667	129
3.36033	124
3.36400	118
3.36767	111
3.37133	107
3.37500	111
3.37867	118
3.38233	124
3.38600	124
3.38967	118
3.39333	111
3.39700	106
3.40067	102
3.40433	100
3.40800	101
3.41167	99
3.41533	95
3.41900	90
3.42267	87
3.42633	84
3.43000	77
3.43367	71
3.43733	74
3.44100	86
3.44467	103
3.44833	113
3.45200	110
3.45567	101
3.45933	93
3.46300	86
3.46667	79
3.47033	75
3.47400	72
3.47767	71
3.48133	74
3.48500	79
3.48867	85
3.49233	92
3.49600	97
3.49967	96
3.50333	89
3.50700	79
3.51067	75
3.51433	75
3.51800	76
3.52167	74
3.52533	70
3.52900	69
3.53267	70
3.53633	71
3.54000	73
3.54367	76
3.54733	77
3.55100	76
3.55467	75
3.55833	75
3.56200	79
3.56567	82
3.56933	80
3.57300	77
3.57667	77
3.58033	79
3.58400	80
3.58767	79
3.59133	82
3.59500	86
3.59867	86
3.60233	87
3.60600	87
3.60967	86
3.61333	81
3.61700	79
3.62067	79
3.62433	80
3.62800	82
3.63167	82
3.63533	77
3.63900	69
3.64267	63
3.64633	60
3.65000	58
3.65367	61
3.65733	67
3.66100	77
3.66467	81
3.66833	77
3.67200	71
3.67567	64
3.67933	58
3.68300	55
3.68667	58
3.69033	67
3.69400	70
3.69767	66
3.70133	60
3.70500	55
3.70867	53
3.71233	50
3.71600	47
3.71967	46
3.72333	50
3.72700	51
3.73067	49
3.73433	46
3.73800	43
3.74167	39
3.74533	40
3.74900	43
3.75267	47
3.75633	50
3.76000	45
3.76367	41
3.76733	44
3.77100	51
3.77467	55
3.77833	52
3.78200	44
3.78567	36
3.78933	33
3.79300	33
3.79667	33
3.80033	32
3.80400	35
3.80767	40
3.81133	48
3.81500	52
3.81867	55
3.82233	56
3.82600	55
3.82967	50
3.83333	48
3.83700	45
3.84067	40
3.84433	35
3.84800	34
3.85167	39
3.85533	43
3.85900	43
3.86267	40
3.86633	37
3.87000	35
3.87367	35
3.87733	35
3.88100	34
3.88467	32
3.88833	29
3.89200	26
3.89567	25
3.89933	26
3.90300	31
3.90667	37
3.91033	42
3.91400	46
3.91767	46
3.92133	43
3.92500	37
3.92867	31
3.93233	28
3.93600	29
3.93967	31
3.94333	31
3.94700	30
3.95067	24
3.95433	18
3.95800	11
3.96167	4
3.96533	2
3.96900	5
3.97267	13
3.97633	19
3.98000	20
3.98367	19
3.98733	20
3.99100	20
3.99467	17
3.99833	16

[Chromatogram (Ch2)]
Interval(msec)	220
# of Points	1091
Start Time(min)	0.002
End Time(min)	3.998
R.Time (min)	Intensity
0.00167	1
0.00533	1
0.00900	1
0.01267	1
0.01633	1
0.02000	1
0.02367	2
0.02733	2
0.03100	2
0.03467	3
0.03833	3
0.04200	4
0.04567	4
0.04933	5
0.05300	5
0.05667	6
0.06033	6
0.06400	6
0.06767	6
0.07133	6
0.07500	5
0.07867	5
0.08233	5
0.08600	5
0.08967	4
0.09333	5
0.09700	5
0.10067	5
0.10433	6
0.10800	6
0.11167	7
0.11533	7
0.11900	7
0.12267	6
0.12633	6
0.13000	6
0.13367	5
0.13733	4
0.14100	4
0.14467	3
0.14833	3
0.15200	2
0.15567	2
0.15933	2
0.16300	1
0.16667	1
0.17033	1
0.17400	1
0.17767	1
0.18133	1
0.18500	0
0.18867	0
0.19233	0
0.19600	-0
0.19967	-0
0.20333	-0
0.20700	-1
0.21067	-1
0.21433	-1
0.21800	-1
0.22167	-1
0.22533	-1
0.22900	-1
0.23267	-1
0.23633	-2
0.24000	-2
0.24367	-2
0.24733	-2
0.25100	-2
0.25467	-2
0.25833	-2
0.26200	-2
0.26567	-2
0.26933	-1
0.27300	-1
0.27667	-1
0.28033	-1
0.28400	-1
0.28767	-1
0.29133	-1
0.29500	-1
0.29867	-1
0.30233	-1
0.30600	-0
0.30967	-0
0.31333	-0
0.31700	0
0.32067	1
0.32433	1
0.32800	1
0.33167	1
0.33533	2
0.33900	2
0.34267	2
0.34633	2
0.35000	2
0.35367	3
0.35733	3
0.36100	3
0.36467	3
0.36833	3
0.37200	3
0.37567	3
0.37933	3
0.38300	3
0.38667	3
0.39033	3
0.39400	3
0.39767	3
0.40133	3
0.40500	2
0.40867	2
0.41233	2
0.41600	2
0.41967	1
0.42333	1
0.42700	0
0.43067	0
0.43433	-0
0.43800	-1
0.44167	-1
0.44533	-1
0.44900	-1
0.45267	-1
0.45633	-1
0.46000	-1
0.46367	-0
0.46733	-0
0.47100	-1
0.47467	-1
0.47833	-2
0.48200	-2
0.48567	-2
0.48933	-3
0.49300	-3
0.49667	-3
0.50033	-3
0.50400	-3
0.50767	-3
0.51133	-2
0.51500	-2
0.51867	-2
0.52233	-2
0.52600	-2
0.52967	-2
0.53333	-2
0.53700	-1
0.54067	-1
0.54433	-1
0.54800	-0
0.55167	0
0.55533	1
0.55900	1
0.56267	2
0.56633	2
0.57000	3
0.57367	3
0.57733	3
0.58100	4
0.58467	4
0.58833	4
0.59200	4
0.59567	4
0.59933	4
0.60300	4
0.60667	4
0.61033	3
0.61400	3
0.61767	2
0.62133	2
0.62500	2
0.62867	1
0.63233	1
0.63600	1
0.63967	0
0.64333	0
0.64700	0
0.65067	1
0.65433	1
0.65800	1
0.66167	1
0.66533	1
0.66900	1
0.67267	1
0.67633	0
0.68000	0
0.68367	-0
0.68733	-1
0.69100	-1
0.69467	-2
0.69833	-2
0.70200	-2
0.70567	-3
0.70933	-2
0.71300	-2
0.71667	-2
0.72033	-2
0.72400	-1
0.72767	-1
0.73133	-1
0.73500	-0
0.73867	-0
0.74233	-0
0.74600	-0
0.74967	-0
0.75333	0
0.75700	0
0.76067	0
0.76433	0
0.76800	0
0.77167	1
0.77533	1
0.77900	1
0.78267	2
0.78633	2
0.79000	2
0.79367	2
0.79733	3
0.80100	3
0.80467	3
0.80833	3
0.81200	3
0.81567	3
0.81933	3
0.82300	2
0.82667	2
0.83033	1
0.83400	1
0.83767	0
0.84133	0
0.84500	-0
0.84867	-0
0.85233	0
0.85600	0
0.85967	0
0.86333	0
0.86700	1
0.87067	1
0.87433	1
0.87800	1
0.88167	1
0.88533	1
0.88900	1
0.89267	0
0.89633	0
0.90000	-0
0.90367	-1
0.90733	-1
0.91100	-2
0.91467	-2
0.91833	-3
0.92200	-3
0.92567	-3
0.92933	-3
0.93300	-2
0.93667	-2
0.94033	-2
0.94400	-1
0.94767	-1
0.95133	-1
0.95500	-0
0.95867	0
0.96233	0
0.96600	1
0.96967	1
0.97333	1
0.97700	2
0.98067	1
0.98433	1
0.98800	1
0.99167	1
0.99533	1
0.99900	0
1.00267	-0
1.00633	-0
1.01000	-1
1.01367	-1
1.01733	-1
1.02100	-1
1.02467	-2
1.02833	-2
1.03200	-2
1.03567	-2
1.03933	-2
1.04300	-2
1.04667	-2
1.05033	-2
1.05400	-2
1.05767	-2
1.06133	-2
1.06500	-2
1.06867	-1
1.07233	-1
1.07600	-1
1.07967	-1
1.08333	-1
1.08700	-1
1.09067	-0
1.09433	-0
1.09800	-1
1.10167	-1
1.10533	-1
1.10900	-1
1.11267	-1
1.11633	-0
1.12000	-0
1.12367	0
1.12733	0
1.13100	0
1.13467	0
1.13833	0
1.14200	0
1.14567	0
1.14933	-0
1.15300	-0
1.15667	-0
1.16033	-0
1.16400	-0
1.16767	0
1.17133	0
1.17500	1
1.17867	1
1.18233	1
1.18600	1
1.18967	1
1.19333	1
1.19700	1
1.20067	1
1.20433	1
1.20800	1
1.21167	1
1.21533	1
1.21900	1
1.22267	1
1.22633	1
1.23000	1
1.23367	2
1.23733	2
1.24100	2
1.24467	3
1.24833	2
1.25200	2
1.25567	2
1.25933	1
1.26300	1
1.26667	1
1.27033	0
1.27400	0
1.27767	0
1.28133	0
1.28500	-0
1.28867	-0
1.29233	-1
1.29600	-1
1.29967	-1
1.30333	-1
1.30700	-1
1.31067	-1
1.31433	-0
1.31800	-0
1.32167	0
1.32533	0
1.32900	0
1.33267	0
1.33633	0
1.34000	0
1.34367	0
1.34733	0
1.35100	0
1.35467	1
1.35833	1
1.36200	1
1.36567	0
1.36933	0
1.37300	0
1.37667	-0
1.38033	-0
1.38400	-1
1.38767	-2
1.39133	-2
1.39500	-2
1.39867	-3
1.40233	-3
1.40600	-3
1.40967	-3
1.41333	-2
1.41700	-1
1.42067	-1
1.42433	0
1.42800	0
1.43167	0
1.43533	0
1.43900	0
1.44267	0
1.44633	1
1.45000	1
1.45367	1
1.45733	1
1.46100	1
1.46467	1
1.46833	1
1.47200	1
1.47567	1
1.47933	0
1.48300	0
1.48667	0
1.49033	0
1.49400	0
1.49767	1
1.50133	1
1.50500	1
1.50867	1
1.51233	1
1.51600	1
1.51967	0
1.52333	-0
1.52700	-1
1.53067	-1
1.53433	-1
1.53800	-2
1.54167	-2
1.54533	-3
1.54900	-3
1.55267	-3
1.55633	-3
1.56000	-3
1.56367	-3
1.56733	-3
1.57100	-2
1.57467	-2
1.57833	-2
1.58200	-2
1.58567	-1
1.58933	-1
1.59300	-1
1.59667	-1
1.60033	-1
1.60400	-2
1.60767	-4
1.61133	-5
1.61500	-7
1.61867	-10
1.62233	-12
1.62600	-15
1.62967	-18
1.63333	-21
1.63700	-25
1.64067	-29
1.64433	-33
1.64800	-37
1.65167	-41
1.65533	-45
1.65900	-49
1.66267	-54
1.66633	-59
1.67000	-64
1.67367	-69
1.67733	-74
1.68100	-79
1.68467	-83
1.68833	-87
1.69200	-90
1.69567	-93
1.69933	-95
1.70300	-97
1.70667	-99
1.71033	-100
1.71400	-101
1.71767	-102
1.72133	-103
1.72500	-104
1.72867	-105
1.73233	-105
1.73600	-106
1.73967	-107
1.74333	-107
1.74700	-108
1.75067	-108
1.75433	-109
1.75800	-109
1.76167	-109
1.76533	-110
1.76900	-110
1.77267	-111
1.77633	-112
1.78000	-112
1.78367	-113
1.78733	-114
1.79100	-115
1.79467	-115
1.79833	-115
1.80200	-115
1.80567	-114
1.80933	-114
1.81300	-113
1.81667	-112
1.82033	-111
1.82400	-110
1.82767	-109
1.83133	-110
1.83500	-110
1.83867	-111
1.84233	-111
1.84600	-112
1.84967	-112
1.85333	-113
1.85700	-113
1.86067	-113
1.86433	-113
1.86800	-114
1.87167	-114
1.87533	-114
1.87900	-114
1.88267	-115
1.88633	-114
1.89000	-114
1.89367	-114
1.89733	-114
1.90100	-113
1.90467	-113
1.90833	-113
1.91200	-113
1.91567	-113
1.91933	-113
1.92300	-112
1.92667	-112
1.93033	-111
1.93400	-111
1.93767	-110
1.94133	-110
1.94500	-109
1.94867	-109
1.95233	-109
1.95600	-109
1.95967	-109
1.96333	-110
1.96700	-110
1.97067	-111
1.97433	-111
1.97800	-111
1.98167	-111
1.98533	-110
1.98900	-110
1.99267	-110
1.99633	-109
2.00000	-109
2.00367	-109
2.00733	-108
2.01100	-107
2.01467	-107
2.01833	-106
2.02200	-105
2.02567	-105
2.02933	-104
2.03300	-104
2.03667	-104
2.04033	-104
2.04400	-104
2.04767	-103
2.05133	-103
2.05500	-102
2.05867	-101
2.06233	-100
2.06600	-100
2.06967	-100
2.07333	-100
2.07700	-101
2.08067	-101
2.08433	-101
2.08800	-100
2.09167	-100
2.09533	-99
2.09900	-99
2.10267	-99
2.10633	-98
2.11000	-98
2.11367	-98
2.11733	-97
2.12100	-97
2.12467	-97
2.12833	-96
2.13200	-95
2.13567	-94
2.13933	-94
2.14300	-94
2.14667	-93
2.15033	-93
2.15400	-93
2.15767	-93
2.16133	-93
2.16500	-93
2.16867	-93
2.17233	-93
2.17600	-92
2.17967	-92
2.18333	-92
2.18700	-91
2.19067	-90
2.19433	-90
2.19800	-89
2.20167	-88
2.20533	-88
2.20900	-87
2.21267	-87
2.21633	-87
2.22000	-87
2.22367	-87
2.22733	-87
2.23100	-87
2.23467	-87
2.23833	-87
2.24200	-87
2.24567	-87
2.24933	-88
2.25300	-88
2.25667	-88
2.26033	-88
2.26400	-88
2.26767	-88
2.27133	-87
2.27500	-86
2.27867	-86
2.28233	-86
2.28600	-85
2.28967	-85
2.29333	-84
2.29700	-84
2.30067	-83
2.30433	-82
2.30800	-81
2.31167	-80
2.31533	-79
2.31900	-79
2.32267	-78
2.32633	-78
2.33000	-78
2.33367	-78
2.33733	-79
2.34100	-79
2.34467	-79
2.34833	-79
2.35200	-78
2.35567	-77
2.35933	-75
2.36300	-74
2.36667	-72
2.37033	-69
2.37400	-66
2.37767	-62
2.38133	-58
2.38500	-54
2.38867	-49
2.39233	-45
2.39600	-40
2.39967	-36
2.40333	-33
2.40700	-29
2.41067	-26
2.41433	-23
2.41800	-20
2.42167	-18
2.42533	-16
2.42900	-14
2.43267	-13
2.43633	-12
2.44000	-10
2.44367	-9
2.44733	-7
2.45100	-6
2.45467	-5
2.45833	-3
2.46200	-2
2.46567	-1
2.46933	1
2.47300	2
2.47667	4
2.48033	5
2.48400	6
2.48767	7
2.49133	7
2.49500	7
2.49867	7
2.50233	7
2.50600	8
2.50967	8
2.51333	9
2.51700	10
2.52067	11
2.52433	11
2.52800	12
2.53167	13
2.53533	14
2.53900	15
2.54267	15
2.54633	15
2.55000	15
2.55367	15
2.55733	15
2.56100	16
2.56467	16
2.56833	17
2.57200	18
2.57567	18
2.57933	19
2.58300	19
2.58667	18
2.59033	18
2.59400	17
2.59767	17
2.60133	17
2.60500	16
2.60867	16
2.61233	16
2.61600	16
2.61967	16
2.62333	17
2.62700	17
2.63067	17
2.63433	18
2.63800	18
2.64167	18
2.64533	18
2.64900	18
2.65267	18
2.65633	19
2.66000	19
2.66367	19
2.66733	19
2.67100	18
2.67467	18
2.67833	18
2.68200	19
2.68567	19
2.68933	20
2.69300	21
2.69667	22
2.70033	23
2.70400	23
2.70767	24
2.71133	25
2.71500	25
2.71867	25
2.72233	25
2.72600	25
2.72967	25
2.73333	25
2.73700	25
2.74067	25
2.74433	25
2.74800	25
2.75167	25
2.75533	25
2.75900	26
2.76267	26
2.76633	26
2.77000	26
2.77367	27
2.77733	27
2.78100	27
2.78467	27
2.78833	27
2.79200	27
2.79567	27
2.79933	27
2.80300	28
2.80667	28
2.81033	29
2.81400	29
2.81767	30
2.82133	30
2.82500	30
2.82867	30
2.83233	29
2.83600	28
2.83967	26
2.84333	23
2.84700	17
2.85067	9
2.85433	-2
2.85800	-16
2.86167	-35
2.86533	-57
2.86900	-83
2.87267	-114
2.87633	-149
2.88000	-188
2.88367	-230
2.88733	-276
2.89100	-324
2.89467	-374
2.89833	-426
2.90200	-479
2.90567	-533
2.90933	-588
2.91300	-642
2.91667	-696
2.92033	-749
2.92400	-801
2.92767	-852
2.93133	-905
2.93500	-963
2.93867	-1022
2.94233	-1072
2.94600	-1104
2.94967	-1110
2.95333	-1091
2.95700	-1048
2.96067	-988
2.96433	-916
2.96800	-837
2.97167	-755
2.97533	-675
2.97900	-597
2.98267	-525
2.98633	-458
2.99000	-398
2.99367	-344
2.99733	-297
3.00100	-255
3.00467	-218
3.00833	-186
3.01200	-159
3.01567	-135
3.01933	-114
3.02300	-96
3.02667	-80
3.03033	-67
3.03400	-55
3.03767	-45
3.04133	-37
3.04500	-29
3.04867	-23
3.05233	-17
3.05600	-12
3.05967	-9
3.06333	-5
3.06700	-2
3.07067	0
3.07433	2
3.07800	4
3.08167	6
3.08533	7
3.08900	8
3.09267	9
3.09633	9
3.10000	10
3.10367	11
3.10733	11
3.11100	12
3.11467	12
3.11833	13
3.12200	14
3.12567	15
3.12933	15
3.13300	16
3.13667	16
3.14033	16
3.14400	17
3.14767	17
3.15133	18
3.15500	18
3.15867	19
3.16233	19
3.16600	19
3.16967	19
3.17333	19
3.17700	19
3.18067	20
3.18433	20
3.18800	20
3.19167	20
3.19533	20
3.19900	21
3.20267	21
3.20633	22
3.21000	22
3.21367	23
3.21733	24
3.22100	24
3.22467	25
3.22833	25
3.23200	25
3.23567	26
3.23933	26
3.24300	26
3.24667	27
3.25033	27
3.25400	27
3.25767	28
3.26133	28
3.26500	29
3.26867	29
3.27233	29
3.27600	30
3.27967	30
3.28333	30
3.28700	30
3.29067	30
3.29433	31
3.29800	31
3.30167	31
3.30533	31
3.30900	31
3.31267	31
3.31633	30
3.32000	31
3.32367	31
3.32733	31
3.33100	31
3.33467	31
3.33833	31
3.34200	31
3.34567	31
3.34933	31
3.35300	31
3.35667	31
3.36033	30
3.36400	30
3.36767	30
3.37133	30
3.37500	30
3.37867	30
3.38233	29
3.38600	29
3.38967	29
3.39333	29
3.39700	29
3.40067	28
3.40433	28
3.40800	29
3.41167	29
3.41533	29
3.41900	29
3.42267	29
3.42633	29
3.43000	30
3.43367	30
3.43733	30
3.44100	30
3.44467	30
3.44833	30
3.45200	30
3.45567	29
3.45933	29
3.46300	29
3.46667	29
3.47033	29
3.47400	29
3.47767	29
3.48133	29
3.48500	29
3.48867	29
3.49233	29
3.49600	29
3.49967	29
3.50333	28
3.50700	28
3.51067	28
3.51433	28
3.51800	28
3.52167	28
3.52533	28
3.52900	28
3.53267	28
3.53633	28
3.54000	28
3.54367	29
3.54733	29
3.55100	29
3.55467	29
3.55833	29
3.56200	28
3.56567	28
3.56933	28
3.57300	28
3.57667	28
3.58033	29
3.58400	29
3.58767	29
3.59133	29
3.59500	29
3.59867	29
3.60233	29
3.60600	29
3.60967	29
3.61333	29
3.61700	30
3.62067	30
3.62433	30
3.62800	30
3.63167	31
3.63533	31
3.63900	31
3.64267	30
3.64633	30
3.65000	30
3.65367	30
3.65733	30
3.66100	30
3.66467	30
3.66833	30
3.67200	30
3.67567	30
3.67933	30
3.68300	30
3.68667	30
3.69033	30
3.69400	30
3.69767	30
3.70133	29
3.70500	29
3.70867	29
3.71233	29
3.71600	29
3.71967	29
3.72333	28
3.72700	28
3.73067	29
3.73433	28
3.73800	28
3.74167	28
3.74533	28
3.74900	27
3.75267	27
3.75633	27
3.76000	27
3.76367	28
3.76733	28
3.77100	28
3.77467	28
3.77833	28
3.78200	28
3.78567	29
3.78933	29
3.79300	29
3.79667	29
3.80033	29
3.80400	29
3.80767	29
3.81133	28
3.81500	28
3.81867	28
3.82233	28
3.82600	28
3.82967	28
3.83333	28
3.83700	28
3.84067	28
3.84433	27
3.84800	27
3.85167	27
3.85533	27
3.85900	28
3.86267	28
3.86633	28
3.87000	28
3.87367	29
3.87733	29
3.88100	29
3.88467	29
3.88833	29
3.89200	29
3.89567	29
3.89933	28
3.90300	28
3.90667	28
3.91033	28
3.91400	28
3.91767	28
3.92133	28
3.92500	28
3.92867	27
3.93233	27
3.93600	27
3.93967	27
3.94333	27
3.94700	27
3.95067	27
3.95433	27
3.95800	28
3.96167	28
3.96533	28
3.96900	28
3.97267	28
3.97633	28
3.98000	28
3.98367	29
3.98733	29
3.99100	29
3.99467	29
3.99833	29

[Chromatogram (Ch3)]
Interval(msec)	220
# of Points	1091
Start Time(min)	0.002
End Time(min)	3.998
R.Time (min)	Intensity
0.00167	0
0.00533	2
0.00900	3
0.01267	1
0.01633	0
0.02000	-1
0.02367	1
0.02733	2
0.03100	3
0.03467	3
0.03833	2
0.04200	2
0.04567	3
0.04933	4
0.05300	6
0.05667	6
0.06033	4
0.06400	4
0.06767	4
0.07133	6
0.07500	7
0.07867	8
0.08233	9
0.08600	8
0.08967	7
0.09333	5
0.09700	4
0.10067	2
0.10433	1
0.10800	3
0.11167	2
0.11533	0
0.11900	0
0.12267	2
0.12633	4
0.13000	3
0.13367	2
0.13733	3
0.14100	4
0.14467	2
0.14833	3
0.15200	5
0.15567	6
0.15933	6
0.16300	5
0.16667	5
0.17033	7
0.17400	8
0.17767	8
0.18133	5
0.18500	5
0.18867	4
0.19233	4
0.19600	4
0.19967	5
0.20333	5
0.20700	5
0.21067	5
0.21433	5
0.21800	7
0.22167	8
0.22533	9
0.22900	7
0.23267	6
0.23633	7
0.24000	8
0.24367	7
0.24733	7
0.25100	6
0.25467	6
0.25833	6
0.26200	5
0.26567	6
0.26933	5
0.27300	5
0.27667	5
0.28033	6
0.28400	7
0.28767	7
0.29133	5
0.29500	3
0.29867	3
0.30233	3
0.30600	3
0.30967	3
0.31333	4
0.31700	4
0.32067	5
0.32433	6
0.32800	4
0.33167	3
0.33533	5
0.33900	5
0.34267	3
0.34633	1
0.35000	1
0.35367	3
0.35733	5
0.36100	8
0.36467	11
0.36833	12
0.37200	12
0.37567	11
0.37933	12
0.38300	14
0.38667	12
0.39033	9
0.39400	8
0.39767	9
0.40133	8
0.40500	7
0.40867	8
0.41233	8
0.41600	7
0.41967	8
0.42333	9
0.42700	9
0.43067	8
0.43433	9
0.43800	11
0.44167	11
0.44533	12
0.44900	12
0.45267	9
0.45633	7
0.46000	7
0.46367	7
0.46733	6
0.47100	7
0.47467	7
0.47833	6
0.48200	6
0.48567	7
0.48933	8
0.49300	9
0.49667	7
0.50033	5
0.50400	6
0.50767	8
0.51133	11
0.51500	12
0.51867	11
0.52233	10
0.52600	11
0.52967	10
0.53333	8
0.53700	4
0.54067	2
0.54433	3
0.54800	4
0.55167	8
0.55533	8
0.55900	8
0.56267	9
0.56633	9
0.57000	11
0.57367	14
0.57733	12
0.58100	10
0.58467	8
0.58833	5
0.59200	3
0.59567	5
0.59933	8
0.60300	9
0.60667	9
0.61033	8
0.61400	8
0.61767	8
0.62133	7
0.62500	6
0.62867	5
0.63233	5
0.63600	4
0.63967	4
0.64333	6
0.64700	7
0.65067	7
0.65433	7
0.65800	8
0.66167	8
0.66533	9
0.66900	11
0.67267	11
0.67633	11
0.68000	11
0.68367	12
0.68733	12
0.69100	11
0.69467	11
0.69833	11
0.70200	13
0.70567	12
0.70933	13
0.71300	15
0.71667	16
0.72033	14
0.72400	12
0.72767	10
0.73133	9
0.73500	9
0.73867	12
0.74233	15
0.74600	16
0.74967	15
0.75333	13
0.75700	10
0.76067	8
0.76433	9
0.76800	9
0.77167	11
0.77533	12
0.77900	12
0.78267	15
0.78633	16
0.79000	16
0.79367	14
0.79733	11
0.80100	9
0.80467	11
0.80833	14
0.81200	15
0.81567	15
0.81933	13
0.82300	11
0.82667	12
0.83033	13
0.83400	13
0.83767	13
0.84133	13
0.84500	12
0.84867	11
0.85233	9
0.85600	8
0.85967	9
0.86333	8
0.86700	9
0.87067	9
0.87433	11
0.87800	13
0.88167	12
0.88533	11
0.88900	10
0.89267	10
0.89633	13
0.90000	15
0.90367	14
0.90733	13
0.91100	12
0.91467	13
0.91833	14
0.92200	16
0.92567	17
0.92933	17
0.93300	17
0.93667	18
0.94033	20
0.94400	19
0.94767	17
0.95133	14
0.95500	13
0.95867	15
0.96233	18
0.96600	19
0.96967	18
0.97333	16
0.97700	15
0.98067	17
0.98433	16
0.98800	14
0.99167	15
0.99533	17
0.99900	17
1.00267	16
1.00633	14
1.01000	12
1.01367	11
1.01733	11
1.02100	10
1.02467	10
1.02833	12
1.03200	15
1.03567	17
1.03933	18
1.04300	18
1.04667	18
1.05033	20
1.05400	22
1.05767	21
1.06133	21
1.06500	19
1.06867	19
1.07233	20
1.07600	18
1.07967	15
1.08333	17
1.08700	18
1.09067	20
1.09433	21
1.09800	21
1.10167	19
1.10533	17
1.10900	16
1.11267	17
1.11633	17
1.12000	16
1.12367	18
1.12733	17
1.13100	16
1.13467	15
1.13833	15
1.14200	17
1.14567	18
1.14933	16
1.15300	15
1.15667	16
1.16033	18
1.16400	16
1.16767	14
1.17133	11
1.17500	12
1.17867	12
1.18233	13
1.18600	13
1.18967	11
1.19333	12
1.19700	14
1.20067	14
1.20433	15
1.20800	18
1.21167	18
1.21533	16
1.21900	14
1.22267	16
1.22633	18
1.23000	19
1.23367	18
1.23733	18
1.24100	19
1.24467	18
1.24833	16
1.25200	18
1.25567	19
1.25933	19
1.26300	18
1.26667	19
1.27033	18
1.27400	16
1.27767	13
1.28133	13
1.28500	16
1.28867	18
1.29233	20
1.29600	21
1.29967	22
1.30333	22
1.30700	21
1.31067	20
1.31433	22
1.31800	24
1.32167	25
1.32533	24
1.32900	24
1.33267	22
1.33633	19
1.34000	15
1.34367	13
1.34733	15
1.35100	16
1.35467	16
1.35833	17
1.36200	17
1.36567	19
1.36933	20
1.37300	19
1.37667	20
1.38033	22
1.38400	22
1.38767	21
1.39133	21
1.39500	21
1.39867	19
1.40233	18
1.40600	19
1.40967	20
1.41333	21
1.41700	20
1.42067	19
1.42433	18
1.42800	17
1.43167	18
1.43533	20
1.43900	22
1.44267	22
1.44633	22
1.45000	22
1.45367	24
1.45733	24
1.46100	24
1.46467	22
1.46833	21
1.47200	21
1.47567	20
1.47933	20
1.48300	21
1.48667	21
1.49033	19
1.49400	18
1.49767	17
1.50133	18
1.50500	20
1.50867	22
1.51233	22
1.51600	22
1.51967	22
1.52333	22
1.52700	24
1.53067	24
1.53433	23
1.53800	20
1.54167	19
1.54533	20
1.54900	22
1.55267	21
1.55633	20
1.56000	19
1.56367	17
1.56733	14
1.57100	12
1.57467	11
1.57833	12
1.58200	15
1.58567	17
1.58933	18
1.59300	18
1.59667	18
1.60033	18
1.60400	18
1.60767	18
1.61133	17
1.61500	18
1.61867	20
1.62233	22
1.62600	22
1.62967	21
1.63333	20
1.63700	20
1.64067	18
1.64433	17
1.64800	18
1.65167	20
1.65533	21
1.65900	22
1.66267	23
1.66633	22
1.67000	22
1.67367	24
1.67733	24
1.68100	25
1.68467	25
1.68833	25
1.69200	26
1.69567	26
1.69933	25
1.70300	26
1.70667	28
1.71033	28
1.71400	28
1.71767	27
1.72133	27
1.72500	29
1.72867	29
1.73233	29
1.73600	32
1.73967	31
1.74333	31
1.74700	33
1.75067	33
1.75433	33
1.75800	33
1.76167	32
1.76533	31
1.76900	33
1.77267	33
1.77633	34
1.78000	33
1.78367	33
1.78733	34
1.79100	36
1.79467	39
1.79833	41
1.80200	41
1.80567	41
1.80933	42
1.81300	43
1.81667	43
1.82033	43
1.82400	42
1.82767	44
1.83133	45
1.83500	47
1.83867	49
1.84233	49
1.84600	48
1.84967	48
1.85333	47
1.85700	46
1.86067	46
1.86433	46
1.86800	49
1.87167	51
1.87533	53
1.87900	56
1.88267	58
1.88633	59
1.89000	59
1.89367	57
1.89733	53
1.90100	50
1.90467	49
1.90833	49
1.91200	51
1.91567	51
1.91933	52
1.92300	52
1.92667	52
1.93033	54
1.93400	57
1.93767	59
1.94133	61
1.94500	60
1.94867	61
1.95233	63
1.95600	66
1.95967	68
1.96333	68
1.96700	69
1.97067	70
1.97433	72
1.97800	75
1.98167	75
1.98533	74
1.98900	72
1.99267	70
1.99633	71
2.00000	73
2.00367	76
2.00733	78
2.01100	80
2.01467	80
2.01833	78
2.02200	76
2.02567	76
2.02933	78
2.03300	79
2.03667	80
2.04033	82
2.04400	82
2.04767	83
2.05133	83
2.05500	85
2.05867	85
2.06233	86
2.06600	89
2.06967	91
2.07333	93
2.07700	94
2.08067	96
2.08433	97
2.08800	97
2.09167	98
2.09533	99
2.09900	98
2.10267	98
2.10633	96
2.11000	96
2.11367	96
2.11733	98
2.12100	98
2.12467	98
2.12833	101
2.13200	104
2.13567	107
2.13933	108
2.14300	109
2.14667	110
2.15033	110
2.15400	112
2.15767	116
2.16133	119
2.16500	120
2.16867	119
2.17233	118
2.17600	120
2.17967	122
2.18333	124
2.18700	126
2.19067	127
2.19433	128
2.19800	130
2.20167	131
2.20533	133
2.20900	134
2.21267	135
2.21633	136
2.22000	137
2.22367	138
2.22733	139
2.23100	142
2.23467	143
2.23833	144
2.24200	147
2.24567	150
2.24933	150
2.25300	151
2.25667	152
2.26033	156
2.26400	160
2.26767	164
2.27133	165
2.27500	165
2.27867	165
2.28233	164
2.28600	163
2.28967	163
2.29333	164
2.29700	165
2.30067	167
2.30433	171
2.30800	171
2.31167	171
2.31533	171
2.31900	172
2.32267	173
2.32633	176
2.33000	179
2.33367	184
2.33733	188
2.34100	190
2.34467	190
2.34833	191
2.35200	191
2.35567	194
2.35933	198
2.36300	202
2.36667	204
2.37033	206
2.37400	207
2.37767	208
2.38133	209
2.38500	209
2.38867	209
2.39233	210
2.39600	214
2.39967	219
2.40333	224
2.40700	229
2.41067	233
2.41433	235
2.41800	237
2.42167	239
2.42533	241
2.42900	243
2.43267	247
2.43633	251
2.44000	254
2.44367	294
2.44733	408
2.45100	533
2.45467	637
2.45833	697
2.46200	689
2.46567	631
2.46933	566
2.47300	516
2.47667	485
2.48033	465
2.48400	445
2.48767	415
2.49133	376
2.49500	338
2.49867	303
2.50233	276
2.50600	256
2.50967	242
2.51333	235
2.51700	232
2.52067	237
2.52433	251
2.52800	268
2.53167	284
2.53533	296
2.53900	297
2.54267	290
2.54633	276
2.55000	257
2.55367	237
2.55733	215
2.56100	192
2.56467	173
2.56833	159
2.57200	148
2.57567	139
2.57933	134
2.58300	133
2.58667	133
2.59033	132
2.59400	128
2.59767	122
2.60133	114
2.60500	101
2.60867	85
2.61233	66
2.61600	48
2.61967	31
2.62333	17
2.62700	5
2.63067	-1
2.63433	-1
2.63800	2
2.64167	9
2.64533	18
2.64900	28
2.65267	38
2.65633	48
2.66000	57
2.66367	66
2.66733	73
2.67100	75
2.67467	76
2.67833	76
2.68200	76
2.68567	75
2.68933	74
2.69300	71
2.69667	66
2.70033	60
2.70400	57
2.70767	54
2.71133	50
2.71500	46
2.71867	43
2.72233	44
2.72600	43
2.72967	41
2.73333	40
2.73700	40
2.74067	38
2.74433	38
2.74800	40
2.75167	44
2.75533	47
2.75900	49
2.76267	49
2.76633	50
2.77000	51
2.77367	53
2.77733	55
2.78100	57
2.78467	61
2.78833	63
2.79200	64
2.79567	65
2.79933	65
2.80300	67
2.80667	66
2.81033	65
2.81400	67
2.81767	75
2.82133	97
2.82500	143
2.82867	229
2.83233	379
2.83600	616
2.83967	952
2.84333	1394
2.84700	1932
2.85067	2531
2.85433	3151
2.85800	3741
2.86167	4259
2.86533	4660
2.86900	4920
2.87267	5031
2.87633	4998
2.88000	4843
2.88367	4598
2.88733	4287
2.89100	3941
2.89467	3580
2.89833	3222
2.90200	2880
2.90567	2561
2.90933	2266
2.91300	1998
2.91667	1757
2.92033	1544
2.92400	1358
2.92767	1198
2.93133	1055
2.93500	931
2.93867	821
2.94233	727
2.94600	647
2.94967	577
2.95333	516
2.95700	463
2.96067	416
2.96433	375
2.96800	339
2.97167	307
2.97533	278
2.97900	252
2.98267	230
2.98633	212
2.99000	198
2.99367	185
2.99733	173
3.00100	161
3.00467	152
3.00833	143
3.01200	133
3.01567	125
3.01933	117
3.02300	109
3.02667	101
3.03033	95
3.03400	91
3.03767	87
3.04133	85
3.04500	71
3.04867	14
3.05233	-61
3.05600	-107
3.05967	-108
3.06333	-76
3.06700	-25
3.07067	39
3.07433	107
3.07800	175
3.08167	239
3.08533	296
3.08900	350
3.09267	396
3.09633	437
3.10000	472
3.10367	503
3.10733	530
3.11100	552
3.11467	568
3.11833	580
3.12200	589
3.12567	596
3.12933	601
3.13300	605
3.13667	608
3.14033	610
3.14400	611
3.14767	611
3.15133	611
3.15500	611
3.15867	611
3.16233	610
3.16600	611
3.16967	610
3.17333	609
3.17700	610
3.18067	610
3.18433	612
3.18800	615
3.19167	615
3.19533	614
3.19900	613
3.20267	615
3.20633	616
3.21000	614
3.21367	613
3.21733	614
3.22100	614
3.22467	614
3.22833	614
3.23200	611
3.23567	610
3.23933	609
3.24300	609
3.24667	609
3.25033	611
3.25400	612
3.25767	613
3.26133	614
3.26500	617
3.26867	619
3.27233	621
3.27600	622
3.27967	625
3.28333	626
3.28700	629
3.29067	631
3.29433	634
3.29800	637
3.30167	639
3.30533	642
3.30900	646
3.31267	649
3.31633	650
3.32000	651
3.32367	653
3.32733	656
3.33100	659
3.33467	662
3.33833	666
3.34200	670
3.34567	673
3.34933	676
3.35300	677
3.35667	680
3.36033	683
3.36400	686
3.36767	686
3.37133	685
3.37500	685
3.37867	684
3.38233	682
3.38600	679
3.38967	677
3.39333	676
3.39700	675
3.40067	674
3.40433	673
3.40800	672
3.41167	669
3.41533	666
3.41900	662
3.42267	657
3.42633	651
3.43000	645
3.43367	642
3.43733	638
3.44100	635
3.44467	632
3.44833	628
3.45200	622
3.45567	616
3.45933	610
3.46300	605
3.46667	600
3.47033	598
3.47400	594
3.47767	590
3.48133	587
3.48500	584
3.48867	580
3.49233	574
3.49600	570
3.49967	569
3.50333	565
3.50700	565
3.51067	564
3.51433	562
3.51800	558
3.52167	554
3.52533	550
3.52900	546
3.53267	544
3.53633	542
3.54000	541
3.54367	539
3.54733	536
3.55100	535
3.55467	533
3.55833	533
3.56200	532
3.56567	531
3.56933	529
3.57300	527
3.57667	524
3.58033	524
3.58400	526
3.58767	526
3.59133	525
3.59500	523
3.59867	524
3.60233	526
3.60600	526
3.60967	525
3.61333	522
3.61700	520
3.62067	517
3.62433	516
3.62800	515
3.63167	513
3.63533	510
3.63900	509
3.64267	511
3.64633	511
3.65000	511
3.65367	511
3.65733	513
3.66100	516
3.66467	518
3.66833	518
3.67200	518
3.67567	518
3.67933	517
3.68300	517
3.68667	517
3.69033	516
3.69400	516
3.69767	517
3.70133	518
3.70500	519
3.70867	519
3.71233	520
3.71600	518
3.71967	517
3.72333	516
3.72700	516
3.73067	516
3.73433	515
3.73800	515
3.74167	516
3.74533	517
3.74900	517
3.75267	519
3.75633	517
3.76000	517
3.76367	515
3.76733	514
3.77100	513
3.77467	515
3.77833	516
3.78200	516
3.78567	515
3.78933	511
3.79300	510
3.79667	508
3.80033	508
3.80400	509
3.80767	509
3.81133	509
3.81500	507
3.81867	505
3.82233	502
3.82600	501
3.82967	500
3.83333	498
3.83700	496
3.84067	496
3.84433	496
3.84800	496
3.85167	495
3.85533	495
3.85900	496
3.86267	497
3.86633	497
3.87000	494
3.87367	491
3.87733	488
3.88100	485
3.88467	485
3.88833	485
3.89200	484
3.89567	482
3.89933	481
3.90300	481
3.90667	481
3.91033	478
3.91400	475
3.91767	473
3.92133	474
3.92500	474
3.92867	473
3.93233	472
3.93600	471
3.93967	472
3.94333	473
3.94700	475
3.95067	474
3.95433	473
3.95800	473
3.96167	474
3.96533	473
3.96900	473
3.97267	471
3.97633	468
3.98000	465
3.98367	462
3.98733	459
3.99100	457
3.99467	452
3.99833	448

[Status Trace (Column Oven Temperature)]
Interval(msec)	1000
# of Points	240
Start Time(min)	0.009
End Time(min)	3.992
Intensity Units	
Intensity Multiplier	1
R.Time (min)	Intensity
0.00895	35.06
0.02562	35.04
0.04228	35.03
0.05895	35.01
0.07562	35.00
0.09228	34.99
0.10895	34.98
0.12562	34.98
0.14228	34.99
0.15895	34.99
0.17562	35.00
0.19228	35.01
0.20895	35.01
0.22562	35.01
0.24228	35.02
0.25895	35.04
0.27562	35.05
0.29228	35.05
0.30895	35.04
0.32562	35.02
0.34228	35.00
0.35895	34.99
0.37562	34.98
0.39228	34.97
0.40895	34.96
0.42562	34.97
0.44228	34.99
0.45895	34.99
0.47562	35.01
0.49228	35.03
0.50895	35.04
0.52562	35.04
0.54228	35.04
0.55895	35.02
0.57562	35.01
0.59228	34.99
0.60895	34.98
0.62562	34.99
0.64228	34.99
0.65895	34.98
0.67562	34.99
0.69228	35.01
0.70895	35.02
0.72562	35.02
0.74228	35.02
0.75895	35.02
0.77562	35.01
0.79228	34.99
0.80895	34.99
0.82562	34.99
0.84228	34.98
0.85895	34.99
0.87562	34.99
0.89228	35.00
0.90895	35.02
0.92562	35.02
0.94228	35.01
0.95895	35.00
0.97562	34.99
0.99228	34.99
1.00895	35.00
1.02562	35.00
1.04228	35.01
1.05895	35.02
1.07562	35.02
1.09228	35.02
1.10895	35.00
1.12562	34.99
1.14228	35.00
1.15895	35.00
1.17562	34.99
1.19228	34.99
1.20895	34.99
1.22562	34.98
1.24228	34.97
1.25895	34.97
1.27562	34.99
1.29228	34.98
1.30895	34.99
1.32562	34.98
1.34228	34.98
1.35895	34.98
1.37562	34.99
1.39228	35.01
1.40895	35.00
1.42562	34.99
1.44228	34.98
1.45895	34.97
1.47562	34.97
1.49228	34.97
1.50895	34.97
1.52562	34.98
1.54228	34.99
1.55895	35.00
1.57562	35.00
1.59228	35.00
1.60895	35.06
1.62562	35.18
1.64228	35.38
1.65895	35.65
1.67562	36.01
1.69228	36.36
1.70895	36.70
1.72562	37.04
1.74228	37.37
1.75895	37.71
1.77562	38.05
1.79228	38.39
1.80895	38.70
1.82562	39.00
1.84228	39.35
1.85895	39.67
1.87562	40.01
1.89228	40.34
1.90895	40.68
1.92562	41.00
1.94228	41.32
1.95895	41.65
1.97562	41.98
1.99228	42.32
2.00895	42.63
2.02562	42.96
2.04228	43.29
2.05895	43.61
2.07562	43.95
2.09228	44.27
2.10895	44.60
2.12562	44.91
2.14228	45.23
2.15895	45.58
2.17562	45.90
2.19228	46.23
2.20895	46.55
2.22562	46.87
2.24228	47.21
2.25895	47.54
2.27562	47.87
2.29228	48.20
2.30895	48.52
2.32562	48.84
2.34228	49.19
2.35895	49.47
2.37562	49.62
2.39228	49.64
2.40895	49.64
2.42562	49.64
2.44228	49.64
2.45895	49.65
2.47562	49.64
2.49228	49.68
2.50895	49.68
2.52562	49.69
2.54228	49.71
2.55895	49.72
2.57562	49.72
2.59228	49.75
2.60895	49.76
2.62562	49.78
2.64228	49.79
2.65895	49.82
2.67562	49.86
2.69228	49.85
2.70895	49.84
2.72562	49.86
2.74228	49.86
2.75895	49.86
2.77562	49.85
2.79228	49.86
2.80895	49.85
2.82562	49.86
2.84228	49.87
2.85895	49.89
2.87562	49.89
2.89228	49.89
2.90895	49.90
2.92562	49.90
2.94228	49.90
2.95895	49.93
2.97562	49.95
2.99228	49.97
3.00895	49.99
3.02562	50.01
3.04228	50.02
3.05895	50.03
3.07562	50.04
3.09228	50.06
3.10895	50.07
3.12562	50.08
3.14228	50.09
3.15895	50.10
3.17562	50.12
3.19228	50.13
3.20895	50.12
3.22562	50.11
3.24228	50.10
3.25895	50.07
3.27562	50.05
3.29228	50.03
3.30895	50.02
3.32562	50.00
3.34228	49.99
3.35895	49.99
3.37562	49.98
3.39228	49.99
3.40895	49.99
3.42562	49.99
3.44228	49.99
3.45895	49.98
3.47562	49.98
3.49228	49.99
3.50895	50.00
3.52562	50.00
3.54228	50.00
3.55895	50.01
3.57562	50.02
3.59228	50.02
3.60895	50.02
3.62562	50.01
3.64228	50.00
3.65895	50.01
3.67562	50.00
3.69228	50.00
3.70895	50.00
3.72562	50.01
3.74228	50.02
3.75895	50.03
3.77562	50.03
3.79228	50.03
3.80895	50.04
3.82562	50.04
3.84228	50.05
3.85895	50.05
3.87562	50.04
3.89228	50.05
3.90895	50.05
3.92562	50.05
3.94228	50.06
3.95895	50.06
3.97562	50.04
3.99228	50.04

[Status Trace (Injection Unit Temperature)]
Interval(msec)	1000
# of Points	240
Start Time(min)	0.009
End Time(min)	3.992
Intensity Units	
Intensity Multiplier	1
R.Time (min)	Intensity
0.00895	99.98
0.02562	99.98
0.04228	99.98
0.05895	99.98
0.07562	99.98
0.09228	99.98
0.10895	99.98
0.12562	99.98
0.14228	99.98
0.15895	99.98
0.17562	99.98
0.19228	99.98
0.20895	99.98
0.22562	99.98
0.24228	99.98
0.25895	99.98
0.27562	99.98
0.29228	99.98
0.30895	99.98
0.32562	99.98
0.34228	99.98
0.35895	99.98
0.37562	99.98
0.39228	99.98
0.40895	99.98
0.42562	99.98
0.44228	99.98
0.45895	99.98
0.47562	99.98
0.49228	99.98
0.50895	99.98
0.52562	99.98
0.54228	99.98
0.55895	99.98
0.57562	99.98
0.59228	99.98
0.60895	99.98
0.62562	99.98
0.64228	99.98
0.65895	99.98
0.67562	99.98
0.69228	99.98
0.70895	99.98
0.72562	99.98
0.74228	99.97
0.75895	99.98
0.77562	99.98
0.79228	99.98
0.80895	99.98
0.82562	99.98
0.84228	99.98
0.85895	99.98
0.87562	99.98
0.89228	99.98
0.90895	99.98
0.92562	99.98
0.94228	99.98
0.95895	99.98
0.97562	99.98
0.99228	99.98
1.00895	99.98
1.02562	99.98
1.04228	99.98
1.05895	99.98
1.07562	99.98
1.09228	99.97
1.10895	99.98
1.12562	99.98
1.14228	99.98
1.15895	99.98
1.17562	99.98
1.19228	99.98
1.20895	99.98
1.22562	99.98
1.24228	99.98
1.25895	99.98
1.27562	99.98
1.29228	99.98
1.30895	99.98
1.32562	99.98
1.34228	99.98
1.35895	99.98
1.37562	99.98
1.39228	99.98
1.40895	99.98
1.42562	99.99
1.44228	99.99
1.45895	99.98
1.47562	99.98
1.49228	99.98
1.50895	99.98
1.52562	99.98
1.54228	99.98
1.55895	99.98
1.57562	99.98
1.59228	99.98
1.60895	99.98
1.62562	99.98
1.64228	99.98
1.65895	99.98
1.67562	99.98
1.69228	99.98
1.70895	99.98
1.72562	99.98
1.74228	99.98
1.75895	99.98
1.77562	99.98
1.79228	99.98
1.80895	99.97
1.82562	99.98
1.84228	99.98
1.85895	99.98
1.87562	99.98
1.89228	99.98
1.90895	99.98
1.92562	99.98
1.94228	99.98
1.95895	99.98
1.97562	99.98
1.99228	99.98
2.00895	99.97
2.02562	99.97
2.04228	99.98
2.05895	99.97
2.07562	99.97
2.09228	99.96
2.10895	99.97
2.12562	99.97
2.14228	99.97
2.15895	99.96
2.17562	99.97
2.19228	99.97
2.20895	99.97
2.22562	99.97
2.24228	99.97
2.25895	99.97
2.27562	99.97
2.29228	99.97
2.30895	99.97
2.32562	99.97
2.34228	99.97
2.35895	99.97
2.37562	99.97
2.39228	99.97
2.40895	99.97
2.42562	99.97
2.44228	99.97
2.45895	99.97
2.47562	99.97
2.49228	99.97
2.50895	99.97
2.52562	99.97
2.54228	99.97
2.55895	99.97
2.57562	99.97
2.59228	99.97
2.60895	99.98
2.62562	99.98
2.64228	99.97
2.65895	99.97
2.67562	99.98
2.69228	99.98
2.70895	99.98
2.72562	99.99
2.74228	99.99
2.75895	99.98
2.77562	99.99
2.79228	99.99
2.80895	99.99
2.82562	99.99
2.84228	99.99
2.85895	100.00
2.87562	99.99
2.89228	100.00
2.90895	99.99
2.92562	100.00
2.94228	100.00
2.95895	100.00
2.97562	100.01
2.99228	100.00
3.00895	100.01
3.02562	100.01
3.04228	100.01
3.05895	100.01
3.07562	100.01
3.09228	100.01
3.10895	100.01
3.12562	100.01
3.14228	100.01
3.15895	100.02
3.17562	100.02
3.19228	100.02
3.20895	100.02
3.22562	100.02
3.24228	100.02
3.25895	100.02
3.27562	100.02
3.29228	100.02
3.30895	100.03
3.32562	100.02
3.34228	100.03
3.35895	100.03
3.37562	100.03
3.39228	100.03
3.40895	100.03
3.42562	100.03
3.44228	100.02
3.45895	100.03
3.47562	100.03
3.49228	100.04
3.50895	100.03
3.52562	100.03
3.54228	100.03
3.55895	100.03
3.57562	100.04
3.59228	100.04
3.60895	100.03
3.62562	100.04
3.64228	100.04
3.65895	100.04
3.67562	100.04
3.69228	100.04
3.70895	100.04
3.72562	100.04
3.74228	100.04
3.75895	100.04
3.77562	100.05
3.79228	100.04
3.80895	100.05
3.82562	100.05
3.84228	100.05
3.85895	100.05
3.87562	100.05
3.89228	100.05
3.90895	100.05
3.92562	100.05
3.94228	100.05
3.95895	100.05
3.97562	100.05
3.99228	100.05

[Status Trace (Carrier Gas Pressure)]
Interval(msec)	1000
# of Points	240
Start Time(min)	0.009
End Time(min)	3.992
Intensity Units	
Intensity Multiplier	1
R.Time (min)	Intensity
0.00895	58.00
0.02562	55.20
0.04228	57.21
0.05895	59.36
0.07562	59.30
0.09228	58.05
0.10895	57.98
0.12562	58.01
0.14228	58.01
0.15895	58.00
0.17562	58.00
0.19228	58.00
0.20895	58.00
0.22562	58.00
0.24228	58.00
0.25895	58.00
0.27562	58.00
0.29228	58.00
0.30895	58.00
0.32562	58.00
0.34228	58.00
0.35895	58.00
0.37562	58.00
0.39228	58.00
0.40895	58.00
0.42562	58.00
0.44228	58.00
0.45895	58.00
0.47562	58.00
0.49228	58.00
0.50895	58.00
0.52562	58.00
0.54228	58.00
0.55895	58.00
0.57562	58.00
0.59228	58.00
0.60895	58.00
0.62562	58.00
0.64228	58.00
0.65895	58.00
0.67562	58.00
0.69228	58.00
0.70895	58.00
0.72562	58.00
0.74228	58.00
0.75895	58.00
0.77562	58.00
0.79228	58.00
0.80895	58.00
0.82562	58.00
0.84228	58.00
0.85895	58.00
0.87562	58.00
0.89228	58.00
0.90895	58.00
0.92562	58.00
0.94228	58.00
0.95895	58.00
0.97562	58.00
0.99228	58.00
1.00895	58.00
1.02562	58.00
1.04228	58.00
1.05895	58.00
1.07562	58.00
1.09228	58.00
1.10895	58.00
1.12562	58.00
1.14228	58.00
1.15895	58.00
1.17562	58.00
1.19228	58.00
1.20895	58.00
1.22562	58.00
1.24228	58.00
1.25895	58.00
1.27562	58.00
1.29228	58.00
1.30895	58.00
1.32562	58.00
1.34228	58.00
1.35895	58.00
1.37562	58.00
1.39228	58.00
1.40895	58.00
1.42562	58.00
1.44228	58.00
1.45895	58.00
1.47562	58.00
1.49228	58.00
1.50895	58.00
1.52562	58.00
1.54228	58.00
1.55895	58.00
1.57562	58.00
1.59228	58.00
1.60895	58.00
1.62562	58.00
1.64228	58.01
1.65895	58.01
1.67562	58.01
1.69228	58.00
1.70895	58.00
1.72562	58.00
1.74228	58.00
1.75895	58.00
1.77562	58.00
1.79228	58.00
1.80895	58.00
1.82562	58.00
1.84228	58.00
1.85895	58.00
1.87562	58.00
1.89228	58.00
1.90895	58.00
1.92562	58.00
1.94228	58.00
1.95895	58.00
1.97562	58.00
1.99228	58.00
2.00895	58.00
2.02562	58.00
2.04228	58.00
2.05895	58.00
2.07562	58.00
2.09228	58.00
2.10895	58.00
2.12562	58.00
2.14228	58.00
2.15895	58.00
2.17562	58.00
2.19228	58.00
2.20895	58.00
2.22562	58.00
2.24228	58.00
2.25895	58.00
2.27562	58.00
2.29228	58.00
2.30895	58.00
2.32562	58.00
2.34228	58.00
2.35895	58.00
2.37562	57.99
2.39228	57.99
2.40895	58.00
2.42562	58.00
2.44228	58.00
2.45895	58.00
2.47562	58.00
2.49228	58.00
2.50895	58.00
2.52562	57.98
2.54228	58.00
2.55895	58.00
2.57562	58.00
2.59228	58.00
2.60895	58.00
2.62562	58.00
2.64228	58.00
2.65895	58.00
2.67562	58.00
2.69228	58.00
2.70895	58.00
2.72562	58.00
2.74228	58.00
2.75895	58.00
2.77562	58.00
2.79228	58.00
2.80895	58.00
2.82562	58.00
2.84228	58.00
2.85895	58.00
2.87562	58.00
2.89228	58.00
2.90895	58.00
2.92562	58.00
2.94228	58.00
2.95895	58.00
2.97562	58.00
2.99228	58.00
3.00895	58.00
3.02562	58.00
3.04228	58.00
3.05895	58.00
3.07562	58.00
3.09228	58.00
3.10895	58.00
3.12562	58.00
3.14228	58.00
3.15895	58.00
3.17562	58.00
3.19228	58.00
3.20895	58.00
3.22562	58.00
3.24228	58.00
3.25895	58.00
3.27562	58.00
3.29228	58.00
3.30895	58.00
3.32562	58.00
3.34228	58.00
3.35895	58.00
3.37562	58.00
3.39228	58.00
3.40895	58.00
3.42562	58.00
3.44228	58.00
3.45895	58.00
3.47562	58.00
3.49228	58.00
3.50895	58.00
3.52562	58.00
3.54228	58.00
3.55895	58.00
3.57562	58.00
3.59228	58.00
3.60895	58.00
3.62562	58.00
3.64228	58.00
3.65895	58.00
3.67562	58.00
3.69228	58.00
3.70895	58.00
3.72562	58.00
3.74228	58.00
3.75895	58.00
3.77562	58.00
3.79228	58.00
3.80895	58.00
3.82562	58.00
3.84228	58.00
3.85895	58.00
3.87562	58.00
3.89228	58.00
3.90895	58.00
3.92562	58.00
3.94228	58.00
3.95895	58.00
3.97562	58.00
3.99228	58.00

[Status Trace (Carrier Gas Flow)]
Interval(msec)	1000
# of Points	240
Start Time(min)	0.009
End Time(min)	3.992
Intensity Units	
Intensity Multiplier	1
R.Time (min)	Intensity
0.00895	34.52
0.02562	34.53
0.04228	34.55
0.05895	34.54
0.07562	34.51
0.09228	34.52
0.10895	34.52
0.12562	34.52
0.14228	34.52
0.15895	34.52
0.17562	34.52
0.19228	34.52
0.20895	34.52
0.22562	34.52
0.24228	34.52
0.25895	34.52
0.27562	34.52
0.29228	34.52
0.30895	34.52
0.32562	34.52
0.34228	34.52
0.35895	34.52
0.37562	34.52
0.39228	34.52
0.40895	34.52
0.42562	34.52
0.44228	34.52
0.45895	34.52
0.47562	34.52
0.49228	34.52
0.50895	34.52
0.52562	34.52
0.54228	34.52
0.55895	34.52
0.57562	34.52
0.59228	34.52
0.60895	34.52
0.62562	34.52
0.64228	34.52
0.65895	34.52
0.67562	34.52
0.69228	34.52
0.70895	34.52
0.72562	34.52
0.74228	34.52
0.75895	34.52
0.77562	34.52
0.79228	34.52
0.80895	34.53
0.82562	34.52
0.84228	34.52
0.85895	34.52
0.87562	34.52
0.89228	34.52
0.90895	34.52
0.92562	34.52
0.94228	34.52
0.95895	34.51
0.97562	34.51
0.99228	34.52
1.00895	34.52
1.02562	34.52
1.04228	34.52
1.05895	34.52
1.07562	34.52
1.09228	34.52
1.10895	34.52
1.12562	34.51
1.14228	34.52
1.15895	34.52
1.17562	34.52
1.19228	34.52
1.20895	34.52
1.22562	34.52
1.24228	34.52
1.25895	34.52
1.27562	34.52
1.29228	34.52
1.30895	34.52
1.32562	34.52
1.34228	34.52
1.35895	34.52
1.37562	34.52
1.39228	34.52
1.40895	34.51
1.42562	34.52
1.44228	34.52
1.45895	34.52
1.47562	34.51
1.49228	34.52
1.50895	34.52
1.52562	34.52
1.54228	34.52
1.55895	34.52
1.57562	34.52
1.59228	34.52
1.60895	34.52
1.62562	34.52
1.64228	34.52
1.65895	34.52
1.67562	34.52
1.69228	34.52
1.70895	34.52
1.72562	34.52
1.74228	34.52
1.75895	34.52
1.77562	34.52
1.79228	34.52
1.80895	34.52
1.82562	34.52
1.84228	34.52
1.85895	34.52
1.87562	34.52
1.89228	34.52
1.90895	34.52
1.92562	34.53
1.94228	34.52
1.95895	34.52
1.97562	34.52
1.99228	34.52
2.00895	34.52
2.02562	34.52
2.04228	34.51
2.05895	34.52
2.07562	34.52
2.09228	34.51
2.10895	34.52
2.12562	34.52
2.14228	34.52
2.15895	34.52
2.17562	34.51
2.19228	34.52
2.20895	34.52
2.22562	34.52
2.24228	34.52
2.25895	34.52
2.27562	34.52
2.29228	34.52
2.30895	34.52
2.32562	34.52
2.34228	34.52
2.35895	34.52
2.37562	34.52
2.39228	34.52
2.40895	34.52
2.42562	34.52
2.44228	34.51
2.45895	34.51
2.47562	34.52
2.49228	34.52
2.50895	34.49
2.52562	34.52
2.54228	34.53
2.55895	34.52
2.57562	34.51
2.59228	34.52
2.60895	34.52
2.62562	34.52
2.64228	34.52
2.65895	34.52
2.67562	34.52
2.69228	34.52
2.70895	34.52
2.72562	34.52
2.74228	34.52
2.75895	34.52
2.77562	34.52
2.79228	34.53
2.80895	34.51
2.82562	34.52
2.84228	34.52
2.85895	34.52
2.87562	34.52
2.89228	34.52
2.90895	34.52
2.92562	34.52
2.94228	34.52
2.95895	34.52
2.97562	34.52
2.99228	34.52
3.00895	34.52
3.02562	34.52
3.04228	34.52
3.05895	34.52
3.07562	34.52
3.09228	34.52
3.10895	34.52
3.12562	34.52
3.14228	34.52
3.15895	34.52
3.17562	34.52
3.19228	34.52
3.20895	34.52
3.22562	34.52
3.24228	34.51
3.25895	34.52
3.27562	34.52
3.29228	34.51
3.30895	34.52
3.32562	34.52
3.34228	34.52
3.35895	34.52
3.37562	34.52
3.39228	34.52
3.40895	34.52
3.42562	34.52
3.44228	34.52
3.45895	34.52
3.47562	34.52
3.49228	34.52
3.50895	34.52
3.52562	34.51
3.54228	34.52
3.55895	34.53
3.57562	34.51
3.59228	34.52
3.60895	34.52
3.62562	34.52
3.64228	34.52
3.65895	34.51
3.67562	34.52
3.69228	34.51
3.70895	34.51
3.72562	34.52
3.74228	34.52
3.75895	34.52
3.77562	34.52
3.79228	34.51
3.80895	34.52
3.82562	34.52
3.84228	34.51
3.85895	34.52
3.87562	34.52
3.89228	34.52
3.90895	34.51
3.92562	34.52
3.94228	34.52
3.95895	34.52
3.97562	34.52
3.99228	34.52

[Status Trace (Column Flow)]
Interval(msec)	1000
# of Points	240
Start Time(min)	0.009
End Time(min)	3.992
Intensity Units	
Intensity Multiplier	1
R.Time (min)	Intensity
0.00895	5.56
0.02562	5.24
0.04228	5.47
0.05895	5.72
0.07562	5.72
0.09228	5.57
0.10895	5.56
0.12562	5.57
0.14228	5.57
0.15895	5.57
0.17562	5.57
0.19228	5.56
0.20895	5.56
0.22562	5.56
0.24228	5.56
0.25895	5.56
0.27562	5.56
0.29228	5.56
0.30895	5.56
0.32562	5.56
0.34228	5.56
0.35895	5.56
0.37562	5.57
0.39228	5.57
0.40895	5.57
0.42562	5.57
0.44228	5.57
0.45895	5.56
0.47562	5.56
0.49228	5.56
0.50895	5.56
0.52562	5.56
0.54228	5.56
0.55895	5.56
0.57562	5.56
0.59228	5.57
0.60895	5.57
0.62562	5.57
0.64228	5.56
0.65895	5.57
0.67562	5.57
0.69228	5.56
0.70895	5.56
0.72562	5.56
0.74228	5.56
0.75895	5.56
0.77562	5.56
0.79228	5.56
0.80895	5.57
0.82562	5.57
0.84228	5.57
0.85895	5.56
0.87562	5.56
0.89228	5.56
0.90895	5.56
0.92562	5.56
0.94228	5.56
0.95895	5.56
0.97562	5.57
0.99228	5.57
1.00895	5.57
1.02562	5.56
1.04228	5.56
1.05895	5.56
1.07562	5.56
1.09228	5.56
1.10895	5.56
1.12562	5.57
1.14228	5.56
1.15895	5.56
1.17562	5.57
1.19228	5.57
1.20895	5.57
1.22562	5.57
1.24228	5.57
1.25895	5.57
1.27562	5.57
1.29228	5.57
1.30895	5.57
1.32562	5.57
1.34228	5.57
1.35895	5.57
1.37562	5.57
1.39228	5.56
1.40895	5.56
1.42562	5.57
1.44228	5.57
1.45895	5.57
1.47562	5.57
1.49228	5.57
1.50895	5.57
1.52562	5.57
1.54228	5.57
1.55895	5.56
1.57562	5.56
1.59228	5.56
1.60895	5.56
1.62562	5.56
1.64228	5.55
1.65895	5.54
1.67562	5.53
1.69228	5.52
1.70895	5.51
1.72562	5.50
1.74228	5.49
1.75895	5.48
1.77562	5.47
1.79228	5.46
1.80895	5.45
1.82562	5.44
1.84228	5.43
1.85895	5.42
1.87562	5.41
1.89228	5.40
1.90895	5.39
1.92562	5.38
1.94228	5.37
1.95895	5.36
1.97562	5.35
1.99228	5.34
2.00895	5.33
2.02562	5.32
2.04228	5.31
2.05895	5.30
2.07562	5.29
2.09228	5.28
2.10895	5.27
2.12562	5.26
2.14228	5.25
2.15895	5.24
2.17562	5.23
2.19228	5.23
2.20895	5.22
2.22562	5.21
2.24228	5.20
2.25895	5.19
2.27562	5.18
2.29228	5.17
2.30895	5.16
2.32562	5.15
2.34228	5.14
2.35895	5.13
2.37562	5.13
2.39228	5.13
2.40895	5.13
2.42562	5.13
2.44228	5.13
2.45895	5.13
2.47562	5.13
2.49228	5.13
2.50895	5.13
2.52562	5.12
2.54228	5.13
2.55895	5.13
2.57562	5.13
2.59228	5.13
2.60895	5.12
2.62562	5.12
2.64228	5.12
2.65895	5.12
2.67562	5.12
2.69228	5.12
2.70895	5.12
2.72562	5.12
2.74228	5.12
2.75895	5.12
2.77562	5.12
2.79228	5.12
2.80895	5.12
2.82562	5.12
2.84228	5.12
2.85895	5.12
2.87562	5.12
2.89228	5.12
2.90895	5.12
2.92562	5.12
2.94228	5.12
2.95895	5.12
2.97562	5.12
2.99228	5.12
3.00895	5.12
3.02562	5.12
3.04228	5.12
3.05895	5.12
3.07562	5.12
3.09228	5.12
3.10895	5.12
3.12562	5.12
3.14228	5.12
3.15895	5.12
3.17562	5.11
3.19228	5.11
3.20895	5.11
3.22562	5.11
3.24228	5.12
3.25895	5.12
3.27562	5.12
3.29228	5.12
3.30895	5.12
3.32562	5.12
3.34228	5.12
3.35895	5.12
3.37562	5.12
3.39228	5.12
3.40895	5.12
3.42562	5.12
3.44228	5.12
3.45895	5.12
3.47562	5.12
3.49228	5.12
3.50895	5.12
3.52562	5.12
3.54228	5.12
3.55895	5.12
3.57562	5.12
3.59228	5.12
3.60895	5.12
3.62562	5.12
3.64228	5.12
3.65895	5.12
3.67562	5.12
3.69228	5.12
3.70895	5.12
3.72562	5.12
3.74228	5.12
3.75895	5.12
3.77562	5.12
3.79228	5.12
3.80895	5.12
3.82562	5.12
3.84228	5.12
3.85895	5.12
3.87562	5.12
3.89228	5.12
3.90895	5.12
3.92562	5.12
3.94228	5.12
3.95895	5.12
3.97562	5.12
3.99228	5.12

[Status Trace (Linear Velocity)]
Interval(msec)	1000
# of Points	240
Start Time(min)	0.009
End Time(min)	3.992
Intensity Units	
Intensity Multiplier	1
R.Time (min)	Intensity
0.00895	39.02
0.02562	37.18
0.04228	38.51
0.05895	39.91
0.07562	39.88
0.09228	39.06
0.10895	39.02
0.12562	39.04
0.14228	39.03
0.15895	39.03
0.17562	39.03
0.19228	39.03
0.20895	39.03
0.22562	39.03
0.24228	39.03
0.25895	39.02
0.27562	39.02
0.29228	39.02
0.30895	39.02
0.32562	39.03
0.34228	39.03
0.35895	39.03
0.37562	39.03
0.39228	39.03
0.40895	39.03
0.42562	39.03
0.44228	39.03
0.45895	39.03
0.47562	39.03
0.49228	39.02
0.50895	39.02
0.52562	39.02
0.54228	39.02
0.55895	39.02
0.57562	39.03
0.59228	39.03
0.60895	39.03
0.62562	39.03
0.64228	39.03
0.65895	39.03
0.67562	39.03
0.69228	39.03
0.70895	39.02
0.72562	39.02
0.74228	39.02
0.75895	39.03
0.77562	39.03
0.79228	39.03
0.80895	39.03
0.82562	39.03
0.84228	39.03
0.85895	39.03
0.87562	39.03
0.89228	39.03
0.90895	39.02
0.92562	39.02
0.94228	39.02
0.95895	39.03
0.97562	39.03
0.99228	39.03
1.00895	39.03
1.02562	39.03
1.04228	39.03
1.05895	39.02
1.07562	39.02
1.09228	39.02
1.10895	39.03
1.12562	39.03
1.14228	39.03
1.15895	39.03
1.17562	39.03
1.19228	39.03
1.20895	39.03
1.22562	39.03
1.24228	39.03
1.25895	39.03
1.27562	39.03
1.29228	39.03
1.30895	39.03
1.32562	39.03
1.34228	39.03
1.35895	39.03
1.37562	39.03
1.39228	39.03
1.40895	39.03
1.42562	39.03
1.44228	39.03
1.45895	39.03
1.47562	39.03
1.49228	39.03
1.50895	39.03
1.52562	39.03
1.54228	39.03
1.55895	39.03
1.57562	39.03
1.59228	39.03
1.60895	39.02
1.62562	39.01
1.64228	39.00
1.65895	38.97
1.67562	38.93
1.69228	38.90
1.70895	38.86
1.72562	38.83
1.74228	38.80
1.75895	38.77
1.77562	38.74
1.79228	38.71
1.80895	38.67
1.82562	38.64
1.84228	38.62
1.85895	38.58
1.87562	38.55
1.89228	38.52
1.90895	38.49
1.92562	38.46
1.94228	38.43
1.95895	38.40
1.97562	38.37
1.99228	38.34
2.00895	38.31
2.02562	38.28
2.04228	38.25
2.05895	38.22
2.07562	38.19
2.09228	38.16
2.10895	38.13
2.12562	38.10
2.14228	38.07
2.15895	38.04
2.17562	38.01
2.19228	37.98
2.20895	37.95
2.22562	37.92
2.24228	37.89
2.25895	37.86
2.27562	37.83
2.29228	37.81
2.30895	37.77
2.32562	37.75
2.34228	37.72
2.35895	37.69
2.37562	37.67
2.39228	37.67
2.40895	37.67
2.42562	37.67
2.44228	37.67
2.45895	37.67
2.47562	37.67
2.49228	37.67
2.50895	37.67
2.52562	37.66
2.54228	37.67
2.55895	37.67
2.57562	37.67
2.59228	37.67
2.60895	37.66
2.62562	37.66
2.64228	37.66
2.65895	37.66
2.67562	37.66
2.69228	37.65
2.70895	37.66
2.72562	37.66
2.74228	37.65
2.75895	37.65
2.77562	37.66
2.79228	37.65
2.80895	37.66
2.82562	37.66
2.84228	37.65
2.85895	37.65
2.87562	37.65
2.89228	37.65
2.90895	37.65
2.92562	37.65
2.94228	37.65
2.95895	37.65
2.97562	37.65
2.99228	37.65
3.00895	37.64
3.02562	37.64
3.04228	37.64
3.05895	37.64
3.07562	37.64
3.09228	37.64
3.10895	37.64
3.12562	37.63
3.14228	37.63
3.15895	37.63
3.17562	37.63
3.19228	37.63
3.20895	37.63
3.22562	37.63
3.24228	37.63
3.25895	37.63
3.27562	37.64
3.29228	37.64
3.30895	37.64
3.32562	37.64
3.34228	37.64
3.35895	37.64
3.37562	37.64
3.39228	37.64
3.40895	37.64
3.42562	37.64
3.44228	37.64
3.45895	37.64
3.47562	37.64
3.49228	37.64
3.50895	37.64
3.52562	37.64
3.54228	37.64
3.55895	37.64
3.57562	37.64
3.59228	37.64
3.60895	37.64
3.62562	37.64
3.64228	37.64
3.65895	37.64
3.67562	37.64
3.69228	37.64
3.70895	37.64
3.72562	37.64
3.74228	37.64
3.75895	37.64
3.77562	37.64
3.79228	37.64
3.80895	37.64
3.82562	37.64
3.84228	37.64
3.85895	37.64
3.87562	37.64
3.89228	37.64
3.90895	37.64
3.92562	37.64
3.94228	37.64
3.95895	37.64
3.97562	37.64
3.99228	37.64

