[Header]
Application Name	LabSolutions
Version	5.110
Data File Name	C:\Users\User\Desktop\GC Analyses\Jack\Nachusa Grasslands Sampling\T1 Timepoint July 12th\T1_07122022_028.gcd
Output Date	3/14/2023
Output Time	3:40:58 PM

[File Information]
Type	Data File
Generated	3/8/2023 4:16:31 PM
Generated by	System Administrator
Modified	3/8/2023 4:23:15 PM
Modified by	System Administrator

[Sample Information]
Operator Name	System Administrator
Acquired	3/8/2023 4:19:14 PM
Sample Type	0:Unknown
Level	0
Sample Name	028
Sample ID	028
ISTD Amount1	1
ISTD Amount2	1
ISTD Amount3	1
ISTD Amount4	1
ISTD Amount5	1
ISTD Amount6	1
ISTD Amount7	1
ISTD Amount8	1
ISTD Amount9	1
ISTD Amount10	1
ISTD Amount11	1
ISTD Amount12	1
ISTD Amount13	1
ISTD Amount14	1
ISTD Amount15	1
ISTD Amount16	1
ISTD Amount17	1
ISTD Amount18	1
ISTD Amount19	1
ISTD Amount20	1
ISTD Amount21	1
ISTD Amount22	1
ISTD Amount23	1
ISTD Amount24	1
ISTD Amount25	1
ISTD Amount26	1
ISTD Amount27	1
ISTD Amount28	1
ISTD Amount29	1
ISTD Amount30	1
ISTD Amount31	1
ISTD Amount32	1
Sample Amount	1
Dilution Factor	1
Vial#	27
Injection Volume	1
Injection Count	1
Bar Code	

[Original Files]
Data File	C:\Users\User\Desktop\GC Analyses\Jack\Nachusa Grasslands Sampling\T1 Timepoint July 12th\T1_07122022_028.gcd
Method File	C:\LabSolutions\Data\GHG_4min_2022\ghg3_togas_w_acet_4 min_new_int.gcm
Batch File	C:\LabSolutions\Data\AutoSamplerTesting\T1_07122022.gcb
Report Format File	c:\LabSolutions\System\DEFAULT.lsr

[File Description]


[Configuration]
Instrument Name	C0B7VH3-Instrument1
Instrument #	1
Line #	1
# of Detectors	3
Detector ID	DET#1	DET#2	DET#3
Detector Name	FID	PTCD	ECD
# of Channels	1	1	1

[Peak Table(Ch1)]
# of Peaks	3
Peak#	R.Time	I.Time	F.Time	Area	Height	A/H	Conc.	Mark	ID#	Name	k'	Plate #	Plate Ht.	Tailing	Resolution	Sep.Factor	Area Ratio	Height Ratio	Conc. %	Norm Conc.
1	1.476	1.432	1.538	27543	12897	2.136	194.454	   	1	CO	0.000	9252	16.213	1.313	0.000	0.000	0	0	26.674	26.674
2	1.567	1.538	1.630	4944	2373	2.083	95.595	 V 	2	CH4	0.062	10364	14.474	0.000	1.491	0.000	0	0	13.113	13.113
3	1.996	1.941	2.488	1748980	826924	2.115	438.947	   	3	CO2	0.353	17326	8.658	1.319	7.018	5.680	0	0	60.212	60.212

[Peak Table(Ch2)]
# of Peaks	0

[Peak Table(Ch3)]
# of Peaks	5
Peak#	R.Time	I.Time	F.Time	Area	Height	A/H	Conc.	Mark	ID#	Name	k'	Plate #	Plate Ht.	Tailing	Resolution	Sep.Factor	Area Ratio	Height Ratio	Conc. %	Norm Conc.
1	2.462	2.136	2.517	2769	532	5.201	0.000	   			0.000	6282	23.877	0.000	0.000	0.000	0	0	0.000	0.000
2	2.539	2.517	2.642	1632	336	4.851	0.000	 V 			0.031	2111	71.071	0.000	0.446	0.000	0	0	0.000	0.000
3	2.689	2.642	2.741	699	141	4.973	0.000	 V 			0.092	1410	106.410	0.000	0.592	2.952	0	0	0.000	0.000
4	2.873	2.741	3.133	21049	4953	4.250	0.538	 V 	1	N2O	0.167	12854	11.669	1.802	0.945	1.806	0	0	100.000	100.000
5	3.280	3.137	3.995	14719	548	26.843	0.000	   	2	SF6	0.332	377	397.922	2.991	1.048	1.991	0	0	0.000	0.000

[Compound Results(Ch1)]
# of IDs	6
ID#	Name	R.Time	Area	Height	Conc.	Curve	3rd	2nd	1st	Constant	Area Ratio	Height Ratio	Conc. %	Norm Conc.
1	CO	1.476	27543	12897	194.454	Linear	0.000000e+00	0.000000e+00	1.416423e+002	0.000000e+00	0	0	26.674	26.674
2	CH4	1.567	4944	2373	95.595	Linear	0.000000e+00	0.000000e+00	5.171738e+001	0.000000e+00	0	0	13.113	13.113
3	CO2	1.996	1748980	826924	438.947	Linear	0.000000e+00	0.000000e+00	3.984494e+003	0.000000e+00	0	0	60.212	60.212
4	Ethylene	0.000	0	0	0.000	Linear	0.000000e+00	0.000000e+00	0.000000e+00	0.000000e+00	0	0	0.000	0.000
5	Acetylene	0.000	0	0	0.000	Linear	0.000000e+00	0.000000e+00	0.000000e+00	0.000000e+00	0	0	0.000	0.000
6	Ethane	0.000	0	0	0.000	Linear	0.000000e+00	0.000000e+00	0.000000e+00	0.000000e+00	0	0	0.000	0.000

[Compound Results(Ch2)]
# of IDs	5
ID#	Name	R.Time	Area	Height	Conc.	Curve	3rd	2nd	1st	Constant	Area Ratio	Height Ratio	Conc. %	Norm Conc.
1	Hydrogen	0.000	0	0	0.000	Linear	0.000000e+00	0.000000e+00	0.000000e+00	0.000000e+00	0	0	0.000	0.000
2	Oxygen	0.000	0	0	0.000	Linear	0.000000e+00	0.000000e+00	0.000000e+00	0.000000e+00	0	0	0.000	0.000
3	Nitrogen	0.000	0	0	0.000	Linear	0.000000e+00	0.000000e+00	0.000000e+00	0.000000e+00	0	0	0.000	0.000
4	Methane	0.000	0	0	0.000	Linear	0.000000e+00	0.000000e+00	0.000000e+00	0.000000e+00	0	0	0.000	0.000
5	Carbon Monoxide	0.000	0	0	0.000	Linear	0.000000e+00	0.000000e+00	0.000000e+00	0.000000e+00	0	0	0.000	0.000

[Compound Results(Ch3)]
# of IDs	2
ID#	Name	R.Time	Area	Height	Conc.	Curve	3rd	2nd	1st	Constant	Area Ratio	Height Ratio	Conc. %	Norm Conc.
1	N2O	2.873	21049	4953	0.538	Linear	0.000000e+00	0.000000e+00	3.915173e+004	0.000000e+00	0	0	100.000	100.000
2	SF6	3.280	14719	548	0.000	Linear	0.000000e+00	0.000000e+00	0.000000e+00	0.000000e+00	0	0	0.000	0.000

[Group Results(Ch1)]
# of Groups	0

[Group Results(Ch2)]
# of Groups	0

[Group Results(Ch3)]
# of Groups	0

[Chromatogram (Ch1)]
Interval(msec)	220
# of Points	1091
Start Time(min)	0.002
End Time(min)	3.998
R.Time (min)	Intensity
0.00167	-8
0.00533	-7
0.00900	-5
0.01267	-4
0.01633	-3
0.02000	1
0.02367	2
0.02733	-1
0.03100	-4
0.03467	-6
0.03833	-4
0.04200	-2
0.04567	1
0.04933	3
0.05300	5
0.05667	7
0.06033	10
0.06400	10
0.06767	10
0.07133	13
0.07500	17
0.07867	20
0.08233	14
0.08600	7
0.08967	1
0.09333	-2
0.09700	-5
0.10067	-4
0.10433	-4
0.10800	-4
0.11167	-4
0.11533	-1
0.11900	6
0.12267	8
0.12633	6
0.13000	5
0.13367	8
0.13733	16
0.14100	25
0.14467	33
0.14833	38
0.15200	48
0.15567	59
0.15933	65
0.16300	62
0.16667	52
0.17033	42
0.17400	37
0.17767	39
0.18133	46
0.18500	53
0.18867	63
0.19233	75
0.19600	86
0.19967	96
0.20333	105
0.20700	111
0.21067	112
0.21433	110
0.21800	110
0.22167	115
0.22533	121
0.22900	126
0.23267	131
0.23633	132
0.24000	127
0.24367	116
0.24733	104
0.25100	98
0.25467	94
0.25833	94
0.26200	99
0.26567	101
0.26933	98
0.27300	94
0.27667	89
0.28033	82
0.28400	73
0.28767	67
0.29133	64
0.29500	66
0.29867	69
0.30233	73
0.30600	79
0.30967	79
0.31333	74
0.31700	66
0.32067	59
0.32433	51
0.32800	41
0.33167	32
0.33533	26
0.33900	26
0.34267	29
0.34633	29
0.35000	26
0.35367	25
0.35733	30
0.36100	34
0.36467	32
0.36833	24
0.37200	16
0.37567	12
0.37933	11
0.38300	10
0.38667	3
0.39033	-5
0.39400	-8
0.39767	-5
0.40133	-2
0.40500	1
0.40867	2
0.41233	1
0.41600	-2
0.41967	-1
0.42333	-0
0.42700	1
0.43067	4
0.43433	9
0.43800	15
0.44167	21
0.44533	21
0.44900	15
0.45267	7
0.45633	1
0.46000	-1
0.46367	0
0.46733	5
0.47100	5
0.47467	2
0.47833	-1
0.48200	-3
0.48567	-2
0.48933	1
0.49300	3
0.49667	3
0.50033	2
0.50400	2
0.50767	2
0.51133	1
0.51500	3
0.51867	7
0.52233	11
0.52600	15
0.52967	20
0.53333	20
0.53700	16
0.54067	14
0.54433	7
0.54800	-6
0.55167	-17
0.55533	-21
0.55900	-16
0.56267	-4
0.56633	5
0.57000	6
0.57367	1
0.57733	-6
0.58100	-15
0.58467	-23
0.58833	-26
0.59200	-23
0.59567	-14
0.59933	-5
0.60300	3
0.60667	7
0.61033	8
0.61400	3
0.61767	-4
0.62133	-10
0.62500	-13
0.62867	-14
0.63233	-15
0.63600	-16
0.63967	-13
0.64333	-12
0.64700	-13
0.65067	-16
0.65433	-16
0.65800	-13
0.66167	-11
0.66533	-11
0.66900	-10
0.67267	-9
0.67633	-8
0.68000	-8
0.68367	-6
0.68733	-3
0.69100	2
0.69467	5
0.69833	2
0.70200	-4
0.70567	-7
0.70933	-8
0.71300	-9
0.71667	-11
0.72033	-10
0.72400	-9
0.72767	-7
0.73133	1
0.73500	11
0.73867	15
0.74233	9
0.74600	-3
0.74967	-11
0.75333	-12
0.75700	-10
0.76067	-6
0.76433	-2
0.76800	-2
0.77167	-1
0.77533	3
0.77900	2
0.78267	-2
0.78633	-3
0.79000	-4
0.79367	-4
0.79733	-10
0.80100	-22
0.80467	-34
0.80833	-41
0.81200	-38
0.81567	-32
0.81933	-23
0.82300	-15
0.82667	-14
0.83033	-16
0.83400	-20
0.83767	-24
0.84133	-24
0.84500	-22
0.84867	-17
0.85233	-11
0.85600	-5
0.85967	-1
0.86333	2
0.86700	4
0.87067	3
0.87433	-2
0.87800	-9
0.88167	-16
0.88533	-23
0.88900	-30
0.89267	-28
0.89633	-21
0.90000	-16
0.90367	-16
0.90733	-17
0.91100	-16
0.91467	-10
0.91833	-0
0.92200	9
0.92567	13
0.92933	11
0.93300	-2
0.93667	-21
0.94033	-40
0.94400	-53
0.94767	-56
0.95133	-53
0.95500	-47
0.95867	-42
0.96233	-39
0.96600	-35
0.96967	-35
0.97333	-30
0.97700	-22
0.98067	-13
0.98433	-7
0.98800	-4
0.99167	-6
0.99533	-13
0.99900	-24
1.00267	-35
1.00633	-41
1.01000	-39
1.01367	-39
1.01733	-43
1.02100	-54
1.02467	-63
1.02833	-68
1.03200	-71
1.03567	-71
1.03933	-67
1.04300	-59
1.04667	-46
1.05033	-35
1.05400	-23
1.05767	-14
1.06133	-15
1.06500	-23
1.06867	-30
1.07233	-39
1.07600	-46
1.07967	-48
1.08333	-47
1.08700	-42
1.09067	-34
1.09433	-26
1.09800	-24
1.10167	-24
1.10533	-19
1.10900	-8
1.11267	4
1.11633	10
1.12000	4
1.12367	-8
1.12733	-20
1.13100	-30
1.13467	-37
1.13833	-40
1.14200	-41
1.14567	-37
1.14933	-29
1.15300	-22
1.15667	-18
1.16033	-21
1.16400	-27
1.16767	-32
1.17133	-34
1.17500	-30
1.17867	-26
1.18233	-25
1.18600	-25
1.18967	-23
1.19333	-21
1.19700	-18
1.20067	-12
1.20433	-10
1.20800	-8
1.21167	-6
1.21533	-7
1.21900	-6
1.22267	-3
1.22633	-4
1.23000	-10
1.23367	-17
1.23733	-22
1.24100	-26
1.24467	-33
1.24833	-37
1.25200	-37
1.25567	-36
1.25933	-31
1.26300	-27
1.26667	-30
1.27033	-31
1.27400	-29
1.27767	-26
1.28133	-23
1.28500	-24
1.28867	-28
1.29233	-30
1.29600	-31
1.29967	-28
1.30333	-21
1.30700	-16
1.31067	-18
1.31433	-24
1.31800	-30
1.32167	-31
1.32533	-28
1.32900	-24
1.33267	-19
1.33633	-17
1.34000	-19
1.34367	-27
1.34733	-37
1.35100	-46
1.35467	-55
1.35833	-61
1.36200	-62
1.36567	-59
1.36933	-54
1.37300	-49
1.37667	-46
1.38033	-45
1.38400	-44
1.38767	-40
1.39133	-33
1.39500	-24
1.39867	-17
1.40233	-15
1.40600	-21
1.40967	-29
1.41333	-38
1.41700	-45
1.42067	-50
1.42433	-53
1.42800	-51
1.43167	-47
1.43533	-35
1.43900	0
1.44267	105
1.44633	350
1.45000	910
1.45367	2159
1.45733	4210
1.46100	6670
1.46467	9018
1.46833	10928
1.47200	12248
1.47567	12861
1.47933	12656
1.48300	11629
1.48667	9976
1.49033	8043
1.49400	6170
1.49767	4568
1.50133	3310
1.50500	2375
1.50867	1705
1.51233	1235
1.51600	903
1.51967	666
1.52333	500
1.52700	388
1.53067	312
1.53433	259
1.53800	233
1.54167	272
1.54533	440
1.54900	761
1.55267	1180
1.55633	1604
1.56000	1962
1.56367	2222
1.56733	2359
1.57100	2344
1.57467	2161
1.57833	1841
1.58200	1458
1.58567	1088
1.58933	775
1.59300	535
1.59667	365
1.60033	247
1.60400	167
1.60767	114
1.61133	80
1.61500	57
1.61867	37
1.62233	21
1.62600	9
1.62967	1
1.63333	-4
1.63700	-3
1.64067	1
1.64433	2
1.64800	1
1.65167	-2
1.65533	-3
1.65900	-3
1.66267	-8
1.66633	-14
1.67000	-20
1.67367	-27
1.67733	-32
1.68100	-34
1.68467	-29
1.68833	-26
1.69200	-23
1.69567	-24
1.69933	-28
1.70300	-32
1.70667	-34
1.71033	-28
1.71400	-17
1.71767	-8
1.72133	-6
1.72500	-12
1.72867	-23
1.73233	-33
1.73600	-43
1.73967	-46
1.74333	-45
1.74700	-44
1.75067	-46
1.75433	-45
1.75800	-42
1.76167	-40
1.76533	-40
1.76900	-40
1.77267	-43
1.77633	-47
1.78000	-55
1.78367	-62
1.78733	-65
1.79100	-64
1.79467	-61
1.79833	-62
1.80200	-67
1.80567	-72
1.80933	-74
1.81300	-73
1.81667	-69
1.82033	-60
1.82400	-52
1.82767	-47
1.83133	-49
1.83500	-58
1.83867	-63
1.84233	-63
1.84600	-59
1.84967	-56
1.85333	-53
1.85700	-49
1.86067	-45
1.86433	-43
1.86800	-42
1.87167	-44
1.87533	-44
1.87900	-47
1.88267	-54
1.88633	-59
1.89000	-65
1.89367	-68
1.89733	-67
1.90100	-64
1.90467	-61
1.90833	-61
1.91200	-59
1.91567	-57
1.91933	-61
1.92300	-67
1.92667	-70
1.93033	-70
1.93400	-68
1.93767	-66
1.94133	-59
1.94500	-46
1.94867	-31
1.95233	-3
1.95600	125
1.95967	852
1.96333	4207
1.96700	16015
1.97067	47901
1.97433	114815
1.97800	225125
1.98167	370662
1.98533	528249
1.98900	670698
1.99267	775288
1.99633	826909
2.00000	819468
2.00367	757390
2.00733	655155
2.01100	533322
2.01467	411944
2.01833	305111
2.02200	219198
2.02567	154485
2.02933	107945
2.03300	75505
2.03667	53336
2.04033	38346
2.04400	28236
2.04767	21383
2.05133	16692
2.05500	13430
2.05867	11117
2.06233	9438
2.06600	8182
2.06967	7213
2.07333	6443
2.07700	5818
2.08067	5302
2.08433	4870
2.08800	4503
2.09167	4185
2.09533	3906
2.09900	3665
2.10267	3456
2.10633	3273
2.11000	3109
2.11367	2955
2.11733	2810
2.12100	2676
2.12467	2550
2.12833	2433
2.13200	2328
2.13567	2232
2.13933	2143
2.14300	2064
2.14667	1993
2.15033	1923
2.15400	1855
2.15767	1794
2.16133	1739
2.16500	1684
2.16867	1630
2.17233	1578
2.17600	1525
2.17967	1474
2.18333	1423
2.18700	1378
2.19067	1340
2.19433	1310
2.19800	1282
2.20167	1247
2.20533	1209
2.20900	1172
2.21267	1140
2.21633	1115
2.22000	1094
2.22367	1076
2.22733	1054
2.23100	1030
2.23467	1006
2.23833	985
2.24200	966
2.24567	949
2.24933	931
2.25300	911
2.25667	891
2.26033	865
2.26400	836
2.26767	814
2.27133	797
2.27500	786
2.27867	776
2.28233	766
2.28600	753
2.28967	737
2.29333	718
2.29700	700
2.30067	687
2.30433	681
2.30800	674
2.31167	666
2.31533	656
2.31900	645
2.32267	635
2.32633	622
2.33000	611
2.33367	602
2.33733	594
2.34100	585
2.34467	578
2.34833	576
2.35200	574
2.35567	564
2.35933	550
2.36300	535
2.36667	520
2.37033	509
2.37400	503
2.37767	502
2.38133	506
2.38500	513
2.38867	513
2.39233	508
2.39600	500
2.39967	488
2.40333	477
2.40700	469
2.41067	467
2.41433	467
2.41800	464
2.42167	457
2.42533	446
2.42900	438
2.43267	434
2.43633	431
2.44000	427
2.44367	424
2.44733	423
2.45100	423
2.45467	423
2.45833	423
2.46200	426
2.46567	432
2.46933	437
2.47300	432
2.47667	422
2.48033	408
2.48400	392
2.48767	381
2.49133	376
2.49500	373
2.49867	378
2.50233	387
2.50600	390
2.50967	386
2.51333	381
2.51700	380
2.52067	388
2.52433	395
2.52800	400
2.53167	398
2.53533	392
2.53900	387
2.54267	388
2.54633	390
2.55000	387
2.55367	377
2.55733	363
2.56100	346
2.56467	328
2.56833	318
2.57200	314
2.57567	311
2.57933	314
2.58300	319
2.58667	321
2.59033	318
2.59400	312
2.59767	308
2.60133	306
2.60500	307
2.60867	307
2.61233	306
2.61600	311
2.61967	323
2.62333	333
2.62700	335
2.63067	331
2.63433	328
2.63800	327
2.64167	327
2.64533	328
2.64900	332
2.65267	335
2.65633	335
2.66000	333
2.66367	329
2.66733	325
2.67100	320
2.67467	318
2.67833	320
2.68200	323
2.68567	324
2.68933	320
2.69300	315
2.69667	311
2.70033	312
2.70400	316
2.70767	320
2.71133	321
2.71500	321
2.71867	319
2.72233	316
2.72600	315
2.72967	318
2.73333	322
2.73700	324
2.74067	329
2.74433	334
2.74800	342
2.75167	351
2.75533	357
2.75900	357
2.76267	352
2.76633	345
2.77000	336
2.77367	326
2.77733	318
2.78100	315
2.78467	313
2.78833	310
2.79200	306
2.79567	303
2.79933	306
2.80300	312
2.80667	319
2.81033	325
2.81400	329
2.81767	329
2.82133	328
2.82500	331
2.82867	335
2.83233	338
2.83600	340
2.83967	341
2.84333	340
2.84700	335
2.85067	331
2.85433	329
2.85800	331
2.86167	333
2.86533	337
2.86900	342
2.87267	345
2.87633	346
2.88000	348
2.88367	351
2.88733	350
2.89100	347
2.89467	344
2.89833	338
2.90200	331
2.90567	325
2.90933	326
2.91300	333
2.91667	340
2.92033	343
2.92400	343
2.92767	341
2.93133	339
2.93500	337
2.93867	336
2.94233	334
2.94600	330
2.94967	327
2.95333	327
2.95700	330
2.96067	331
2.96433	331
2.96800	330
2.97167	330
2.97533	332
2.97900	336
2.98267	342
2.98633	349
2.99000	353
2.99367	355
2.99733	359
3.00100	360
3.00467	357
3.00833	351
3.01200	344
3.01567	340
3.01933	342
3.02300	350
3.02667	358
3.03033	363
3.03400	363
3.03767	360
3.04133	356
3.04500	350
3.04867	345
3.05233	347
3.05600	354
3.05967	357
3.06333	355
3.06700	351
3.07067	348
3.07433	348
3.07800	349
3.08167	348
3.08533	346
3.08900	340
3.09267	331
3.09633	326
3.10000	326
3.10367	327
3.10733	323
3.11100	320
3.11467	320
3.11833	320
3.12200	321
3.12567	323
3.12933	327
3.13300	335
3.13667	345
3.14033	353
3.14400	357
3.14767	356
3.15133	351
3.15500	347
3.15867	346
3.16233	346
3.16600	347
3.16967	346
3.17333	347
3.17700	348
3.18067	348
3.18433	347
3.18800	350
3.19167	352
3.19533	350
3.19900	345
3.20267	341
3.20633	337
3.21000	336
3.21367	338
3.21733	339
3.22100	336
3.22467	334
3.22833	334
3.23200	335
3.23567	339
3.23933	345
3.24300	348
3.24667	350
3.25033	348
3.25400	345
3.25767	345
3.26133	344
3.26500	342
3.26867	343
3.27233	351
3.27600	358
3.27967	360
3.28333	357
3.28700	348
3.29067	338
3.29433	331
3.29800	323
3.30167	317
3.30533	316
3.30900	316
3.31267	319
3.31633	322
3.32000	326
3.32367	336
3.32733	347
3.33100	353
3.33467	353
3.33833	352
3.34200	354
3.34567	355
3.34933	354
3.35300	351
3.35667	346
3.36033	340
3.36400	333
3.36767	327
3.37133	324
3.37500	320
3.37867	317
3.38233	316
3.38600	312
3.38967	308
3.39333	307
3.39700	310
3.40067	315
3.40433	323
3.40800	329
3.41167	330
3.41533	329
3.41900	329
3.42267	333
3.42633	336
3.43000	335
3.43367	334
3.43733	329
3.44100	321
3.44467	313
3.44833	306
3.45200	301
3.45567	298
3.45933	296
3.46300	301
3.46667	310
3.47033	321
3.47400	336
3.47767	349
3.48133	355
3.48500	352
3.48867	339
3.49233	324
3.49600	314
3.49967	310
3.50333	309
3.50700	308
3.51067	307
3.51433	306
3.51800	308
3.52167	312
3.52533	316
3.52900	315
3.53267	313
3.53633	311
3.54000	306
3.54367	298
3.54733	290
3.55100	284
3.55467	279
3.55833	277
3.56200	279
3.56567	282
3.56933	285
3.57300	289
3.57667	292
3.58033	295
3.58400	299
3.58767	302
3.59133	305
3.59500	309
3.59867	311
3.60233	311
3.60600	310
3.60967	305
3.61333	295
3.61700	289
3.62067	285
3.62433	283
3.62800	281
3.63167	282
3.63533	285
3.63900	289
3.64267	292
3.64633	294
3.65000	294
3.65367	291
3.65733	291
3.66100	291
3.66467	286
3.66833	281
3.67200	276
3.67567	275
3.67933	278
3.68300	279
3.68667	280
3.69033	281
3.69400	279
3.69767	276
3.70133	272
3.70500	272
3.70867	273
3.71233	274
3.71600	275
3.71967	276
3.72333	276
3.72700	278
3.73067	282
3.73433	283
3.73800	280
3.74167	273
3.74533	264
3.74900	256
3.75267	253
3.75633	255
3.76000	259
3.76367	262
3.76733	264
3.77100	266
3.77467	267
3.77833	270
3.78200	275
3.78567	277
3.78933	276
3.79300	274
3.79667	272
3.80033	272
3.80400	277
3.80767	282
3.81133	283
3.81500	280
3.81867	275
3.82233	269
3.82600	263
3.82967	256
3.83333	250
3.83700	249
3.84067	254
3.84433	259
3.84800	263
3.85167	266
3.85533	265
3.85900	258
3.86267	254
3.86633	253
3.87000	254
3.87367	254
3.87733	253
3.88100	249
3.88467	241
3.88833	233
3.89200	230
3.89567	231
3.89933	233
3.90300	239
3.90667	245
3.91033	246
3.91400	243
3.91767	240
3.92133	238
3.92500	235
3.92867	236
3.93233	237
3.93600	237
3.93967	239
3.94333	238
3.94700	236
3.95067	237
3.95433	240
3.95800	241
3.96167	238
3.96533	231
3.96900	220
3.97267	213
3.97633	210
3.98000	211
3.98367	217
3.98733	226
3.99100	232
3.99467	236
3.99833	238

[Chromatogram (Ch2)]
Interval(msec)	220
# of Points	1091
Start Time(min)	0.002
End Time(min)	3.998
R.Time (min)	Intensity
0.00167	-1
0.00533	-0
0.00900	0
0.01267	0
0.01633	1
0.02000	1
0.02367	1
0.02733	1
0.03100	2
0.03467	2
0.03833	2
0.04200	2
0.04567	2
0.04933	2
0.05300	2
0.05667	2
0.06033	2
0.06400	2
0.06767	2
0.07133	2
0.07500	2
0.07867	2
0.08233	2
0.08600	3
0.08967	3
0.09333	3
0.09700	3
0.10067	4
0.10433	4
0.10800	4
0.11167	5
0.11533	5
0.11900	5
0.12267	5
0.12633	4
0.13000	4
0.13367	4
0.13733	4
0.14100	3
0.14467	3
0.14833	3
0.15200	2
0.15567	2
0.15933	2
0.16300	2
0.16667	2
0.17033	2
0.17400	3
0.17767	3
0.18133	3
0.18500	3
0.18867	2
0.19233	2
0.19600	2
0.19967	2
0.20333	2
0.20700	2
0.21067	2
0.21433	2
0.21800	2
0.22167	2
0.22533	2
0.22900	2
0.23267	2
0.23633	3
0.24000	3
0.24367	3
0.24733	3
0.25100	3
0.25467	2
0.25833	2
0.26200	2
0.26567	2
0.26933	2
0.27300	2
0.27667	1
0.28033	1
0.28400	0
0.28767	0
0.29133	-0
0.29500	-1
0.29867	-1
0.30233	-1
0.30600	-1
0.30967	-1
0.31333	-1
0.31700	-1
0.32067	-0
0.32433	-0
0.32800	0
0.33167	0
0.33533	1
0.33900	1
0.34267	1
0.34633	1
0.35000	2
0.35367	2
0.35733	2
0.36100	3
0.36467	3
0.36833	3
0.37200	3
0.37567	4
0.37933	4
0.38300	4
0.38667	4
0.39033	4
0.39400	4
0.39767	4
0.40133	4
0.40500	4
0.40867	4
0.41233	4
0.41600	4
0.41967	5
0.42333	5
0.42700	5
0.43067	5
0.43433	5
0.43800	5
0.44167	5
0.44533	5
0.44900	4
0.45267	4
0.45633	4
0.46000	4
0.46367	4
0.46733	3
0.47100	3
0.47467	3
0.47833	3
0.48200	3
0.48567	3
0.48933	2
0.49300	1
0.49667	0
0.50033	-0
0.50400	-1
0.50767	-1
0.51133	-2
0.51500	-2
0.51867	-2
0.52233	-2
0.52600	-2
0.52967	-2
0.53333	-1
0.53700	-1
0.54067	-0
0.54433	0
0.54800	1
0.55167	1
0.55533	1
0.55900	2
0.56267	2
0.56633	2
0.57000	2
0.57367	2
0.57733	3
0.58100	3
0.58467	3
0.58833	3
0.59200	3
0.59567	3
0.59933	3
0.60300	3
0.60667	3
0.61033	2
0.61400	2
0.61767	2
0.62133	2
0.62500	2
0.62867	2
0.63233	2
0.63600	2
0.63967	1
0.64333	1
0.64700	1
0.65067	0
0.65433	-0
0.65800	-0
0.66167	-0
0.66533	-0
0.66900	0
0.67267	1
0.67633	1
0.68000	2
0.68367	2
0.68733	3
0.69100	3
0.69467	3
0.69833	4
0.70200	4
0.70567	4
0.70933	4
0.71300	5
0.71667	5
0.72033	5
0.72400	5
0.72767	5
0.73133	4
0.73500	4
0.73867	3
0.74233	3
0.74600	2
0.74967	2
0.75333	2
0.75700	2
0.76067	2
0.76433	2
0.76800	1
0.77167	1
0.77533	1
0.77900	1
0.78267	0
0.78633	0
0.79000	0
0.79367	-0
0.79733	-0
0.80100	0
0.80467	-0
0.80833	-0
0.81200	-0
0.81567	-0
0.81933	-0
0.82300	-1
0.82667	-1
0.83033	-1
0.83400	-1
0.83767	-1
0.84133	-1
0.84500	-1
0.84867	-2
0.85233	-1
0.85600	-1
0.85967	-1
0.86333	-1
0.86700	-1
0.87067	-1
0.87433	-1
0.87800	-1
0.88167	-1
0.88533	-1
0.88900	-1
0.89267	-2
0.89633	-2
0.90000	-2
0.90367	-2
0.90733	-3
0.91100	-3
0.91467	-3
0.91833	-3
0.92200	-3
0.92567	-2
0.92933	-2
0.93300	-2
0.93667	-2
0.94033	-1
0.94400	-1
0.94767	-1
0.95133	-1
0.95500	-1
0.95867	-1
0.96233	-1
0.96600	-1
0.96967	-1
0.97333	-1
0.97700	-2
0.98067	-2
0.98433	-2
0.98800	-2
0.99167	-2
0.99533	-2
0.99900	-1
1.00267	-1
1.00633	-1
1.01000	-0
1.01367	-0
1.01733	0
1.02100	1
1.02467	1
1.02833	2
1.03200	2
1.03567	2
1.03933	3
1.04300	3
1.04667	2
1.05033	2
1.05400	2
1.05767	2
1.06133	2
1.06500	2
1.06867	1
1.07233	1
1.07600	1
1.07967	0
1.08333	0
1.08700	0
1.09067	1
1.09433	1
1.09800	1
1.10167	2
1.10533	2
1.10900	2
1.11267	2
1.11633	3
1.12000	3
1.12367	3
1.12733	3
1.13100	3
1.13467	3
1.13833	3
1.14200	2
1.14567	2
1.14933	2
1.15300	2
1.15667	2
1.16033	2
1.16400	1
1.16767	1
1.17133	1
1.17500	0
1.17867	0
1.18233	-0
1.18600	-0
1.18967	-1
1.19333	-1
1.19700	-1
1.20067	-2
1.20433	-2
1.20800	-2
1.21167	-3
1.21533	-3
1.21900	-3
1.22267	-3
1.22633	-3
1.23000	-2
1.23367	-2
1.23733	-2
1.24100	-1
1.24467	-1
1.24833	-0
1.25200	0
1.25567	1
1.25933	1
1.26300	2
1.26667	2
1.27033	2
1.27400	2
1.27767	3
1.28133	3
1.28500	3
1.28867	2
1.29233	2
1.29600	2
1.29967	2
1.30333	2
1.30700	2
1.31067	1
1.31433	1
1.31800	0
1.32167	0
1.32533	-0
1.32900	-0
1.33267	-0
1.33633	-1
1.34000	-1
1.34367	-1
1.34733	-1
1.35100	-2
1.35467	-2
1.35833	-3
1.36200	-3
1.36567	-3
1.36933	-3
1.37300	-3
1.37667	-3
1.38033	-4
1.38400	-4
1.38767	-4
1.39133	-3
1.39500	-3
1.39867	-3
1.40233	-3
1.40600	-2
1.40967	-2
1.41333	-2
1.41700	-2
1.42067	-2
1.42433	-1
1.42800	-1
1.43167	-1
1.43533	-1
1.43900	-1
1.44267	-1
1.44633	-1
1.45000	-0
1.45367	0
1.45733	1
1.46100	1
1.46467	1
1.46833	1
1.47200	1
1.47567	1
1.47933	2
1.48300	2
1.48667	2
1.49033	2
1.49400	2
1.49767	1
1.50133	1
1.50500	1
1.50867	1
1.51233	0
1.51600	-0
1.51967	-1
1.52333	-1
1.52700	-1
1.53067	-1
1.53433	-1
1.53800	-2
1.54167	-2
1.54533	-2
1.54900	-2
1.55267	-2
1.55633	-2
1.56000	-2
1.56367	-2
1.56733	-2
1.57100	-2
1.57467	-2
1.57833	-2
1.58200	-2
1.58567	-2
1.58933	-2
1.59300	-3
1.59667	-3
1.60033	-4
1.60400	-5
1.60767	-6
1.61133	-8
1.61500	-10
1.61867	-13
1.62233	-15
1.62600	-18
1.62967	-21
1.63333	-25
1.63700	-29
1.64067	-32
1.64433	-36
1.64800	-40
1.65167	-44
1.65533	-48
1.65900	-51
1.66267	-55
1.66633	-58
1.67000	-61
1.67367	-65
1.67733	-69
1.68100	-74
1.68467	-78
1.68833	-83
1.69200	-87
1.69567	-91
1.69933	-95
1.70300	-98
1.70667	-100
1.71033	-102
1.71400	-103
1.71767	-105
1.72133	-105
1.72500	-106
1.72867	-107
1.73233	-108
1.73600	-109
1.73967	-110
1.74333	-111
1.74700	-112
1.75067	-113
1.75433	-113
1.75800	-113
1.76167	-113
1.76533	-113
1.76900	-112
1.77267	-112
1.77633	-111
1.78000	-112
1.78367	-112
1.78733	-113
1.79100	-114
1.79467	-115
1.79833	-116
1.80200	-117
1.80567	-117
1.80933	-117
1.81300	-116
1.81667	-115
1.82033	-114
1.82400	-114
1.82767	-114
1.83133	-114
1.83500	-114
1.83867	-114
1.84233	-115
1.84600	-115
1.84967	-115
1.85333	-115
1.85700	-115
1.86067	-115
1.86433	-115
1.86800	-115
1.87167	-114
1.87533	-114
1.87900	-114
1.88267	-114
1.88633	-114
1.89000	-114
1.89367	-113
1.89733	-113
1.90100	-113
1.90467	-113
1.90833	-113
1.91200	-112
1.91567	-112
1.91933	-112
1.92300	-112
1.92667	-112
1.93033	-112
1.93400	-112
1.93767	-111
1.94133	-111
1.94500	-111
1.94867	-110
1.95233	-110
1.95600	-110
1.95967	-110
1.96333	-110
1.96700	-109
1.97067	-109
1.97433	-109
1.97800	-109
1.98167	-109
1.98533	-109
1.98900	-109
1.99267	-109
1.99633	-109
2.00000	-109
2.00367	-109
2.00733	-108
2.01100	-108
2.01467	-107
2.01833	-107
2.02200	-107
2.02567	-106
2.02933	-106
2.03300	-106
2.03667	-106
2.04033	-105
2.04400	-105
2.04767	-105
2.05133	-105
2.05500	-105
2.05867	-105
2.06233	-105
2.06600	-104
2.06967	-104
2.07333	-103
2.07700	-102
2.08067	-102
2.08433	-101
2.08800	-101
2.09167	-100
2.09533	-100
2.09900	-100
2.10267	-100
2.10633	-100
2.11000	-101
2.11367	-101
2.11733	-101
2.12100	-101
2.12467	-101
2.12833	-100
2.13200	-99
2.13567	-99
2.13933	-98
2.14300	-97
2.14667	-96
2.15033	-96
2.15400	-95
2.15767	-95
2.16133	-95
2.16500	-95
2.16867	-95
2.17233	-95
2.17600	-94
2.17967	-94
2.18333	-93
2.18700	-92
2.19067	-91
2.19433	-90
2.19800	-89
2.20167	-88
2.20533	-88
2.20900	-88
2.21267	-88
2.21633	-88
2.22000	-88
2.22367	-88
2.22733	-88
2.23100	-88
2.23467	-88
2.23833	-87
2.24200	-87
2.24567	-87
2.24933	-86
2.25300	-86
2.25667	-85
2.26033	-85
2.26400	-86
2.26767	-86
2.27133	-86
2.27500	-86
2.27867	-86
2.28233	-86
2.28600	-86
2.28967	-86
2.29333	-85
2.29700	-85
2.30067	-85
2.30433	-84
2.30800	-84
2.31167	-83
2.31533	-83
2.31900	-83
2.32267	-83
2.32633	-82
2.33000	-82
2.33367	-81
2.33733	-81
2.34100	-80
2.34467	-78
2.34833	-77
2.35200	-75
2.35567	-74
2.35933	-73
2.36300	-72
2.36667	-71
2.37033	-70
2.37400	-68
2.37767	-66
2.38133	-63
2.38500	-60
2.38867	-56
2.39233	-52
2.39600	-47
2.39967	-43
2.40333	-38
2.40700	-34
2.41067	-30
2.41433	-27
2.41800	-23
2.42167	-20
2.42533	-18
2.42900	-16
2.43267	-15
2.43633	-13
2.44000	-11
2.44367	-9
2.44733	-7
2.45100	-5
2.45467	-4
2.45833	-3
2.46200	-2
2.46567	-1
2.46933	0
2.47300	1
2.47667	2
2.48033	3
2.48400	4
2.48767	4
2.49133	5
2.49500	5
2.49867	6
2.50233	6
2.50600	7
2.50967	8
2.51333	9
2.51700	10
2.52067	11
2.52433	13
2.52800	14
2.53167	14
2.53533	15
2.53900	15
2.54267	15
2.54633	15
2.55000	15
2.55367	14
2.55733	14
2.56100	15
2.56467	15
2.56833	16
2.57200	17
2.57567	18
2.57933	18
2.58300	19
2.58667	19
2.59033	19
2.59400	19
2.59767	20
2.60133	20
2.60500	20
2.60867	19
2.61233	19
2.61600	19
2.61967	19
2.62333	19
2.62700	19
2.63067	19
2.63433	20
2.63800	20
2.64167	20
2.64533	20
2.64900	20
2.65267	20
2.65633	20
2.66000	20
2.66367	20
2.66733	20
2.67100	20
2.67467	20
2.67833	20
2.68200	21
2.68567	22
2.68933	23
2.69300	24
2.69667	25
2.70033	25
2.70400	26
2.70767	26
2.71133	26
2.71500	26
2.71867	26
2.72233	26
2.72600	26
2.72967	26
2.73333	26
2.73700	26
2.74067	26
2.74433	26
2.74800	27
2.75167	27
2.75533	28
2.75900	28
2.76267	29
2.76633	28
2.77000	28
2.77367	28
2.77733	28
2.78100	27
2.78467	27
2.78833	26
2.79200	26
2.79567	26
2.79933	26
2.80300	25
2.80667	25
2.81033	25
2.81400	26
2.81767	26
2.82133	26
2.82500	27
2.82867	27
2.83233	27
2.83600	26
2.83967	25
2.84333	22
2.84700	18
2.85067	11
2.85433	2
2.85800	-12
2.86167	-29
2.86533	-51
2.86900	-77
2.87267	-107
2.87633	-141
2.88000	-179
2.88367	-221
2.88733	-265
2.89100	-313
2.89467	-362
2.89833	-414
2.90200	-467
2.90567	-521
2.90933	-575
2.91300	-629
2.91667	-683
2.92033	-736
2.92400	-788
2.92767	-839
2.93133	-892
2.93500	-949
2.93867	-1008
2.94233	-1061
2.94600	-1096
2.94967	-1107
2.95333	-1092
2.95700	-1053
2.96067	-995
2.96433	-925
2.96800	-847
2.97167	-766
2.97533	-685
2.97900	-607
2.98267	-534
2.98633	-467
2.99000	-406
2.99367	-351
2.99733	-302
3.00100	-259
3.00467	-221
3.00833	-188
3.01200	-160
3.01567	-135
3.01933	-113
3.02300	-95
3.02667	-79
3.03033	-66
3.03400	-54
3.03767	-44
3.04133	-36
3.04500	-28
3.04867	-22
3.05233	-17
3.05600	-12
3.05967	-9
3.06333	-5
3.06700	-3
3.07067	-0
3.07433	2
3.07800	4
3.08167	6
3.08533	7
3.08900	8
3.09267	10
3.09633	11
3.10000	12
3.10367	13
3.10733	13
3.11100	14
3.11467	14
3.11833	15
3.12200	15
3.12567	16
3.12933	16
3.13300	17
3.13667	17
3.14033	18
3.14400	18
3.14767	18
3.15133	19
3.15500	19
3.15867	20
3.16233	20
3.16600	20
3.16967	21
3.17333	21
3.17700	22
3.18067	22
3.18433	22
3.18800	23
3.19167	23
3.19533	23
3.19900	23
3.20267	23
3.20633	23
3.21000	23
3.21367	23
3.21733	24
3.22100	24
3.22467	24
3.22833	25
3.23200	25
3.23567	25
3.23933	25
3.24300	25
3.24667	25
3.25033	25
3.25400	25
3.25767	25
3.26133	25
3.26500	25
3.26867	25
3.27233	25
3.27600	25
3.27967	25
3.28333	24
3.28700	24
3.29067	24
3.29433	24
3.29800	24
3.30167	24
3.30533	24
3.30900	25
3.31267	25
3.31633	25
3.32000	26
3.32367	27
3.32733	27
3.33100	28
3.33467	28
3.33833	28
3.34200	28
3.34567	29
3.34933	29
3.35300	29
3.35667	30
3.36033	30
3.36400	30
3.36767	30
3.37133	30
3.37500	30
3.37867	30
3.38233	30
3.38600	30
3.38967	30
3.39333	30
3.39700	30
3.40067	30
3.40433	29
3.40800	29
3.41167	29
3.41533	29
3.41900	29
3.42267	29
3.42633	30
3.43000	30
3.43367	30
3.43733	30
3.44100	30
3.44467	30
3.44833	30
3.45200	30
3.45567	30
3.45933	30
3.46300	30
3.46667	30
3.47033	30
3.47400	30
3.47767	30
3.48133	30
3.48500	30
3.48867	30
3.49233	30
3.49600	30
3.49967	30
3.50333	30
3.50700	31
3.51067	31
3.51433	31
3.51800	31
3.52167	31
3.52533	31
3.52900	30
3.53267	30
3.53633	30
3.54000	30
3.54367	30
3.54733	29
3.55100	29
3.55467	29
3.55833	29
3.56200	29
3.56567	29
3.56933	29
3.57300	29
3.57667	28
3.58033	28
3.58400	28
3.58767	28
3.59133	28
3.59500	28
3.59867	28
3.60233	28
3.60600	28
3.60967	27
3.61333	27
3.61700	27
3.62067	27
3.62433	27
3.62800	27
3.63167	27
3.63533	27
3.63900	27
3.64267	27
3.64633	28
3.65000	28
3.65367	28
3.65733	28
3.66100	28
3.66467	28
3.66833	28
3.67200	28
3.67567	28
3.67933	28
3.68300	28
3.68667	29
3.69033	29
3.69400	29
3.69767	29
3.70133	29
3.70500	29
3.70867	29
3.71233	29
3.71600	29
3.71967	30
3.72333	30
3.72700	30
3.73067	30
3.73433	30
3.73800	30
3.74167	29
3.74533	29
3.74900	29
3.75267	28
3.75633	28
3.76000	28
3.76367	28
3.76733	28
3.77100	28
3.77467	29
3.77833	29
3.78200	29
3.78567	29
3.78933	29
3.79300	29
3.79667	29
3.80033	29
3.80400	29
3.80767	29
3.81133	29
3.81500	30
3.81867	30
3.82233	30
3.82600	30
3.82967	30
3.83333	30
3.83700	30
3.84067	30
3.84433	30
3.84800	30
3.85167	30
3.85533	30
3.85900	30
3.86267	30
3.86633	29
3.87000	29
3.87367	29
3.87733	29
3.88100	29
3.88467	29
3.88833	29
3.89200	29
3.89567	29
3.89933	29
3.90300	29
3.90667	29
3.91033	29
3.91400	29
3.91767	29
3.92133	29
3.92500	29
3.92867	28
3.93233	28
3.93600	28
3.93967	27
3.94333	27
3.94700	27
3.95067	27
3.95433	27
3.95800	27
3.96167	27
3.96533	27
3.96900	27
3.97267	27
3.97633	27
3.98000	27
3.98367	27
3.98733	27
3.99100	27
3.99467	27
3.99833	27

[Chromatogram (Ch3)]
Interval(msec)	220
# of Points	1091
Start Time(min)	0.002
End Time(min)	3.998
R.Time (min)	Intensity
0.00167	1
0.00533	3
0.00900	5
0.01267	7
0.01633	6
0.02000	8
0.02367	11
0.02733	11
0.03100	9
0.03467	6
0.03833	4
0.04200	2
0.04567	1
0.04933	2
0.05300	3
0.05667	3
0.06033	3
0.06400	3
0.06767	2
0.07133	0
0.07500	1
0.07867	1
0.08233	1
0.08600	2
0.08967	2
0.09333	4
0.09700	5
0.10067	4
0.10433	4
0.10800	4
0.11167	3
0.11533	2
0.11900	0
0.12267	-1
0.12633	-1
0.13000	-0
0.13367	1
0.13733	3
0.14100	2
0.14467	-1
0.14833	-1
0.15200	-1
0.15567	-0
0.15933	-0
0.16300	2
0.16667	4
0.17033	6
0.17400	7
0.17767	8
0.18133	10
0.18500	11
0.18867	11
0.19233	10
0.19600	8
0.19967	8
0.20333	6
0.20700	5
0.21067	5
0.21433	2
0.21800	1
0.22167	2
0.22533	3
0.22900	6
0.23267	5
0.23633	4
0.24000	4
0.24367	5
0.24733	4
0.25100	3
0.25467	1
0.25833	0
0.26200	-2
0.26567	-4
0.26933	-5
0.27300	-4
0.27667	-5
0.28033	-3
0.28400	1
0.28767	3
0.29133	1
0.29500	1
0.29867	0
0.30233	-1
0.30600	-3
0.30967	-3
0.31333	-1
0.31700	3
0.32067	5
0.32433	4
0.32800	2
0.33167	-1
0.33533	-4
0.33900	-2
0.34267	0
0.34633	2
0.35000	3
0.35367	4
0.35733	7
0.36100	9
0.36467	8
0.36833	6
0.37200	4
0.37567	3
0.37933	2
0.38300	-0
0.38667	-3
0.39033	-3
0.39400	-2
0.39767	-2
0.40133	-1
0.40500	0
0.40867	2
0.41233	3
0.41600	3
0.41967	4
0.42333	7
0.42700	9
0.43067	8
0.43433	5
0.43800	4
0.44167	5
0.44533	3
0.44900	1
0.45267	-0
0.45633	-0
0.46000	-0
0.46367	-1
0.46733	-0
0.47100	-2
0.47467	-2
0.47833	-2
0.48200	1
0.48567	2
0.48933	3
0.49300	3
0.49667	3
0.50033	3
0.50400	3
0.50767	2
0.51133	3
0.51500	3
0.51867	3
0.52233	3
0.52600	3
0.52967	-0
0.53333	1
0.53700	2
0.54067	2
0.54433	2
0.54800	2
0.55167	2
0.55533	4
0.55900	5
0.56267	3
0.56633	0
0.57000	-1
0.57367	0
0.57733	1
0.58100	1
0.58467	4
0.58833	7
0.59200	8
0.59567	8
0.59933	7
0.60300	5
0.60667	6
0.61033	7
0.61400	8
0.61767	8
0.62133	8
0.62500	8
0.62867	9
0.63233	8
0.63600	11
0.63967	13
0.64333	14
0.64700	15
0.65067	15
0.65433	16
0.65800	16
0.66167	17
0.66533	18
0.66900	19
0.67267	17
0.67633	15
0.68000	15
0.68367	13
0.68733	13
0.69100	11
0.69467	11
0.69833	9
0.70200	7
0.70567	6
0.70933	7
0.71300	10
0.71667	12
0.72033	12
0.72400	12
0.72767	10
0.73133	8
0.73500	8
0.73867	9
0.74233	10
0.74600	9
0.74967	7
0.75333	4
0.75700	4
0.76067	5
0.76433	7
0.76800	8
0.77167	7
0.77533	7
0.77900	7
0.78267	6
0.78633	6
0.79000	8
0.79367	10
0.79733	9
0.80100	10
0.80467	13
0.80833	15
0.81200	15
0.81567	12
0.81933	10
0.82300	9
0.82667	10
0.83033	11
0.83400	12
0.83767	12
0.84133	11
0.84500	11
0.84867	12
0.85233	12
0.85600	8
0.85967	6
0.86333	6
0.86700	8
0.87067	9
0.87433	9
0.87800	8
0.88167	9
0.88533	12
0.88900	15
0.89267	16
0.89633	16
0.90000	15
0.90367	16
0.90733	16
0.91100	18
0.91467	19
0.91833	18
0.92200	17
0.92567	17
0.92933	15
0.93300	11
0.93667	11
0.94033	10
0.94400	9
0.94767	8
0.95133	6
0.95500	5
0.95867	7
0.96233	12
0.96600	14
0.96967	15
0.97333	17
0.97700	18
0.98067	18
0.98433	16
0.98800	14
0.99167	12
0.99533	12
0.99900	13
1.00267	11
1.00633	11
1.01000	11
1.01367	12
1.01733	13
1.02100	13
1.02467	14
1.02833	13
1.03200	14
1.03567	13
1.03933	13
1.04300	12
1.04667	16
1.05033	16
1.05400	15
1.05767	14
1.06133	14
1.06500	15
1.06867	16
1.07233	17
1.07600	17
1.07967	18
1.08333	20
1.08700	18
1.09067	16
1.09433	17
1.09800	19
1.10167	19
1.10533	19
1.10900	19
1.11267	19
1.11633	19
1.12000	17
1.12367	14
1.12733	15
1.13100	17
1.13467	19
1.13833	17
1.14200	17
1.14567	16
1.14933	18
1.15300	21
1.15667	21
1.16033	23
1.16400	22
1.16767	21
1.17133	19
1.17500	16
1.17867	15
1.18233	16
1.18600	15
1.18967	15
1.19333	15
1.19700	14
1.20067	14
1.20433	14
1.20800	16
1.21167	18
1.21533	19
1.21900	18
1.22267	16
1.22633	16
1.23000	18
1.23367	17
1.23733	16
1.24100	15
1.24467	17
1.24833	20
1.25200	20
1.25567	21
1.25933	20
1.26300	20
1.26667	18
1.27033	16
1.27400	16
1.27767	16
1.28133	17
1.28500	18
1.28867	18
1.29233	15
1.29600	17
1.29967	18
1.30333	17
1.30700	19
1.31067	20
1.31433	19
1.31800	16
1.32167	16
1.32533	17
1.32900	17
1.33267	15
1.33633	15
1.34000	19
1.34367	20
1.34733	21
1.35100	20
1.35467	18
1.35833	18
1.36200	19
1.36567	19
1.36933	19
1.37300	20
1.37667	20
1.38033	21
1.38400	22
1.38767	23
1.39133	23
1.39500	22
1.39867	22
1.40233	22
1.40600	24
1.40967	24
1.41333	24
1.41700	24
1.42067	23
1.42433	20
1.42800	19
1.43167	20
1.43533	20
1.43900	21
1.44267	23
1.44633	24
1.45000	25
1.45367	26
1.45733	24
1.46100	22
1.46467	21
1.46833	20
1.47200	22
1.47567	25
1.47933	26
1.48300	24
1.48667	23
1.49033	23
1.49400	22
1.49767	22
1.50133	22
1.50500	22
1.50867	23
1.51233	25
1.51600	27
1.51967	29
1.52333	29
1.52700	29
1.53067	29
1.53433	28
1.53800	27
1.54167	27
1.54533	26
1.54900	25
1.55267	24
1.55633	24
1.56000	25
1.56367	26
1.56733	27
1.57100	26
1.57467	26
1.57833	26
1.58200	24
1.58567	25
1.58933	27
1.59300	30
1.59667	33
1.60033	33
1.60400	32
1.60767	32
1.61133	34
1.61500	33
1.61867	31
1.62233	31
1.62600	30
1.62967	30
1.63333	31
1.63700	31
1.64067	33
1.64433	35
1.64800	37
1.65167	37
1.65533	36
1.65900	36
1.66267	35
1.66633	32
1.67000	31
1.67367	34
1.67733	36
1.68100	36
1.68467	37
1.68833	37
1.69200	37
1.69567	38
1.69933	39
1.70300	38
1.70667	39
1.71033	39
1.71400	40
1.71767	39
1.72133	40
1.72500	42
1.72867	43
1.73233	43
1.73600	42
1.73967	41
1.74333	40
1.74700	39
1.75067	39
1.75433	41
1.75800	42
1.76167	42
1.76533	44
1.76900	44
1.77267	42
1.77633	41
1.78000	41
1.78367	41
1.78733	40
1.79100	41
1.79467	42
1.79833	42
1.80200	43
1.80567	44
1.80933	46
1.81300	47
1.81667	46
1.82033	46
1.82400	48
1.82767	50
1.83133	49
1.83500	50
1.83867	50
1.84233	49
1.84600	49
1.84967	50
1.85333	50
1.85700	51
1.86067	55
1.86433	57
1.86800	57
1.87167	55
1.87533	54
1.87900	54
1.88267	54
1.88633	57
1.89000	56
1.89367	54
1.89733	53
1.90100	53
1.90467	57
1.90833	62
1.91200	64
1.91567	63
1.91933	62
1.92300	62
1.92667	62
1.93033	61
1.93400	61
1.93767	63
1.94133	67
1.94500	70
1.94867	71
1.95233	72
1.95600	73
1.95967	72
1.96333	73
1.96700	75
1.97067	76
1.97433	76
1.97800	76
1.98167	76
1.98533	76
1.98900	75
1.99267	77
1.99633	79
2.00000	80
2.00367	78
2.00733	78
2.01100	79
2.01467	81
2.01833	82
2.02200	84
2.02567	84
2.02933	85
2.03300	85
2.03667	86
2.04033	86
2.04400	84
2.04767	84
2.05133	88
2.05500	89
2.05867	89
2.06233	92
2.06600	96
2.06967	97
2.07333	97
2.07700	99
2.08067	100
2.08433	98
2.08800	98
2.09167	98
2.09533	100
2.09900	102
2.10267	102
2.10633	103
2.11000	104
2.11367	106
2.11733	107
2.12100	108
2.12467	109
2.12833	110
2.13200	109
2.13567	108
2.13933	109
2.14300	111
2.14667	112
2.15033	114
2.15400	115
2.15767	114
2.16133	113
2.16500	113
2.16867	112
2.17233	111
2.17600	113
2.17967	117
2.18333	120
2.18700	120
2.19067	121
2.19433	121
2.19800	122
2.20167	126
2.20533	130
2.20900	133
2.21267	133
2.21633	132
2.22000	132
2.22367	133
2.22733	134
2.23100	135
2.23467	136
2.23833	135
2.24200	135
2.24567	138
2.24933	143
2.25300	146
2.25667	147
2.26033	147
2.26400	146
2.26767	147
2.27133	147
2.27500	148
2.27867	148
2.28233	150
2.28600	150
2.28967	152
2.29333	153
2.29700	155
2.30067	157
2.30433	160
2.30800	160
2.31167	160
2.31533	162
2.31900	164
2.32267	167
2.32633	170
2.33000	173
2.33367	176
2.33733	177
2.34100	176
2.34467	176
2.34833	177
2.35200	177
2.35567	178
2.35933	181
2.36300	181
2.36667	181
2.37033	182
2.37400	184
2.37767	186
2.38133	187
2.38500	189
2.38867	189
2.39233	191
2.39600	196
2.39967	201
2.40333	206
2.40700	208
2.41067	212
2.41433	216
2.41800	219
2.42167	222
2.42533	224
2.42900	226
2.43267	228
2.43633	229
2.44000	230
2.44367	265
2.44733	364
2.45100	472
2.45467	560
2.45833	616
2.46200	630
2.46567	614
2.46933	589
2.47300	567
2.47667	555
2.48033	546
2.48400	536
2.48767	517
2.49133	491
2.49500	463
2.49867	437
2.50233	414
2.50600	395
2.50967	382
2.51333	376
2.51700	374
2.52067	378
2.52433	387
2.52800	399
2.53167	411
2.53533	423
2.53900	432
2.54267	432
2.54633	423
2.55000	413
2.55367	401
2.55733	385
2.56100	370
2.56467	359
2.56833	347
2.57200	337
2.57567	330
2.57933	324
2.58300	320
2.58667	314
2.59033	310
2.59400	306
2.59767	300
2.60133	288
2.60500	273
2.60867	254
2.61233	236
2.61600	216
2.61967	196
2.62333	180
2.62700	165
2.63067	154
2.63433	149
2.63800	147
2.64167	147
2.64533	150
2.64900	156
2.65267	167
2.65633	178
2.66000	191
2.66367	204
2.66733	215
2.67100	222
2.67467	226
2.67833	229
2.68200	231
2.68567	231
2.68933	231
2.69300	231
2.69667	229
2.70033	227
2.70400	224
2.70767	220
2.71133	218
2.71500	216
2.71867	214
2.72233	212
2.72600	210
2.72967	207
2.73333	206
2.73700	205
2.74067	204
2.74433	204
2.74800	205
2.75167	207
2.75533	209
2.75900	210
2.76267	212
2.76633	212
2.77000	212
2.77367	213
2.77733	213
2.78100	214
2.78467	216
2.78833	217
2.79200	216
2.79567	215
2.79933	216
2.80300	219
2.80667	223
2.81033	225
2.81400	226
2.81767	233
2.82133	251
2.82500	288
2.82867	365
2.83233	504
2.83600	728
2.83967	1052
2.84333	1478
2.84700	1993
2.85067	2574
2.85433	3181
2.85800	3765
2.86167	4274
2.86533	4669
2.86900	4926
2.87267	5038
2.87633	5014
2.88000	4872
2.88367	4634
2.88733	4332
2.89100	3993
2.89467	3640
2.89833	3291
2.90200	2954
2.90567	2639
2.90933	2350
2.91300	2089
2.91667	1854
2.92033	1644
2.92400	1459
2.92767	1298
2.93133	1158
2.93500	1035
2.93867	929
2.94233	838
2.94600	757
2.94967	688
2.95333	629
2.95700	578
2.96067	533
2.96433	494
2.96800	459
2.97167	430
2.97533	407
2.97900	386
2.98267	369
2.98633	351
2.99000	333
2.99367	319
2.99733	307
3.00100	296
3.00467	286
3.00833	278
3.01200	273
3.01567	266
3.01933	258
3.02300	252
3.02667	246
3.03033	240
3.03400	236
3.03767	233
3.04133	230
3.04500	228
3.04867	228
3.05233	224
3.05600	221
3.05967	217
3.06333	215
3.06700	213
3.07067	211
3.07433	208
3.07800	204
3.08167	200
3.08533	197
3.08900	196
3.09267	194
3.09633	194
3.10000	194
3.10367	195
3.10733	195
3.11100	193
3.11467	191
3.11833	185
3.12200	165
3.12567	124
3.12933	91
3.13300	77
3.13667	80
3.14033	95
3.14400	121
3.14767	152
3.15133	189
3.15500	231
3.15867	274
3.16233	316
3.16600	355
3.16967	392
3.17333	426
3.17700	457
3.18067	487
3.18433	513
3.18800	533
3.19167	550
3.19533	567
3.19900	582
3.20267	593
3.20633	602
3.21000	608
3.21367	614
3.21733	617
3.22100	621
3.22467	626
3.22833	632
3.23200	639
3.23567	643
3.23933	649
3.24300	654
3.24667	654
3.25033	655
3.25400	658
3.25767	660
3.26133	663
3.26500	668
3.26867	675
3.27233	680
3.27600	685
3.27967	687
3.28333	688
3.28700	690
3.29067	691
3.29433	692
3.29800	692
3.30167	694
3.30533	695
3.30900	695
3.31267	693
3.31633	691
3.32000	691
3.32367	691
3.32733	691
3.33100	691
3.33467	689
3.33833	686
3.34200	680
3.34567	677
3.34933	676
3.35300	675
3.35667	675
3.36033	673
3.36400	669
3.36767	666
3.37133	661
3.37500	658
3.37867	657
3.38233	655
3.38600	655
3.38967	653
3.39333	651
3.39700	649
3.40067	645
3.40433	643
3.40800	642
3.41167	639
3.41533	636
3.41900	632
3.42267	631
3.42633	630
3.43000	628
3.43367	626
3.43733	626
3.44100	625
3.44467	624
3.44833	619
3.45200	618
3.45567	618
3.45933	617
3.46300	616
3.46667	612
3.47033	611
3.47400	610
3.47767	609
3.48133	609
3.48500	610
3.48867	609
3.49233	603
3.49600	600
3.49967	597
3.50333	595
3.50700	590
3.51067	588
3.51433	587
3.51800	584
3.52167	581
3.52533	578
3.52900	575
3.53267	572
3.53633	570
3.54000	568
3.54367	565
3.54733	562
3.55100	560
3.55467	556
3.55833	551
3.56200	550
3.56567	548
3.56933	546
3.57300	544
3.57667	543
3.58033	542
3.58400	541
3.58767	541
3.59133	540
3.59500	539
3.59867	540
3.60233	539
3.60600	537
3.60967	535
3.61333	533
3.61700	528
3.62067	526
3.62433	525
3.62800	524
3.63167	524
3.63533	525
3.63900	525
3.64267	522
3.64633	520
3.65000	518
3.65367	515
3.65733	514
3.66100	514
3.66467	515
3.66833	519
3.67200	518
3.67567	516
3.67933	513
3.68300	511
3.68667	509
3.69033	506
3.69400	504
3.69767	502
3.70133	501
3.70500	501
3.70867	500
3.71233	499
3.71600	499
3.71967	497
3.72333	497
3.72700	498
3.73067	495
3.73433	495
3.73800	495
3.74167	494
3.74533	494
3.74900	495
3.75267	496
3.75633	495
3.76000	493
3.76367	493
3.76733	492
3.77100	491
3.77467	490
3.77833	488
3.78200	486
3.78567	488
3.78933	489
3.79300	490
3.79667	489
3.80033	487
3.80400	486
3.80767	485
3.81133	482
3.81500	481
3.81867	482
3.82233	481
3.82600	483
3.82967	481
3.83333	478
3.83700	477
3.84067	476
3.84433	476
3.84800	476
3.85167	473
3.85533	471
3.85900	470
3.86267	471
3.86633	470
3.87000	470
3.87367	472
3.87733	471
3.88100	470
3.88467	470
3.88833	470
3.89200	467
3.89567	465
3.89933	464
3.90300	465
3.90667	464
3.91033	462
3.91400	461
3.91767	460
3.92133	459
3.92500	459
3.92867	457
3.93233	453
3.93600	452
3.93967	452
3.94333	451
3.94700	451
3.95067	450
3.95433	449
3.95800	448
3.96167	447
3.96533	448
3.96900	449
3.97267	450
3.97633	449
3.98000	446
3.98367	444
3.98733	441
3.99100	436
3.99467	433
3.99833	431

[Status Trace (Column Oven Temperature)]
Interval(msec)	1000
# of Points	240
Start Time(min)	0.004
End Time(min)	3.987
Intensity Units	
Intensity Multiplier	1
R.Time (min)	Intensity
0.00395	35.06
0.02062	35.06
0.03728	35.05
0.05395	35.05
0.07062	35.04
0.08728	35.03
0.10395	35.02
0.12062	35.02
0.13728	35.02
0.15395	35.04
0.17062	35.02
0.18728	35.02
0.20395	35.01
0.22062	35.00
0.23728	35.00
0.25395	35.00
0.27062	35.01
0.28728	35.02
0.30395	35.02
0.32062	35.03
0.33728	35.03
0.35395	35.01
0.37062	35.00
0.38728	34.99
0.40395	34.98
0.42062	34.98
0.43728	34.97
0.45395	34.97
0.47062	34.97
0.48728	34.99
0.50395	35.00
0.52062	35.01
0.53728	35.00
0.55395	34.99
0.57062	34.98
0.58728	34.99
0.60395	34.98
0.62062	34.97
0.63728	34.97
0.65395	34.99
0.67062	34.98
0.68728	34.97
0.70395	34.95
0.72062	34.94
0.73728	34.94
0.75395	34.93
0.77062	34.94
0.78728	34.94
0.80395	34.96
0.82062	34.97
0.83728	34.97
0.85395	34.98
0.87062	34.99
0.88728	35.00
0.90395	35.01
0.92062	35.02
0.93728	35.00
0.95395	35.00
0.97062	35.01
0.98728	35.01
1.00395	35.00
1.02062	34.99
1.03728	34.97
1.05395	34.98
1.07062	34.99
1.08728	34.98
1.10395	34.99
1.12062	34.97
1.13728	34.97
1.15395	34.97
1.17062	34.97
1.18728	34.99
1.20395	35.01
1.22062	35.01
1.23728	35.00
1.25395	34.99
1.27062	34.97
1.28728	34.95
1.30395	34.96
1.32062	34.96
1.33728	34.97
1.35395	34.98
1.37062	35.01
1.38728	35.02
1.40395	35.01
1.42062	35.02
1.43728	35.01
1.45395	35.00
1.47062	34.99
1.48728	34.98
1.50395	34.97
1.52062	34.98
1.53728	34.99
1.55395	34.99
1.57062	35.00
1.58728	35.01
1.60395	35.06
1.62062	35.18
1.63728	35.37
1.65395	35.60
1.67062	35.89
1.68728	36.25
1.70395	36.60
1.72062	36.94
1.73728	37.28
1.75395	37.61
1.77062	37.93
1.78728	38.28
1.80395	38.61
1.82062	38.91
1.83728	39.25
1.85395	39.59
1.87062	39.91
1.88728	40.24
1.90395	40.55
1.92062	40.88
1.93728	41.21
1.95395	41.53
1.97062	41.86
1.98728	42.19
2.00395	42.52
2.02062	42.84
2.03728	43.16
2.05395	43.50
2.07062	43.82
2.08728	44.13
2.10395	44.47
2.12062	44.81
2.13728	45.13
2.15395	45.44
2.17062	45.78
2.18728	46.09
2.20395	46.42
2.22062	46.76
2.23728	47.08
2.25395	47.41
2.27062	47.76
2.28728	48.10
2.30395	48.42
2.32062	48.75
2.33728	49.07
2.35395	49.37
2.37062	49.62
2.38728	49.71
2.40395	49.71
2.42062	49.70
2.43728	49.70
2.45395	49.71
2.47062	49.71
2.48728	49.74
2.50395	49.76
2.52062	49.76
2.53728	49.79
2.55395	49.82
2.57062	49.80
2.58728	49.80
2.60395	49.82
2.62062	49.84
2.63728	49.82
2.65395	49.85
2.67062	49.86
2.68728	49.84
2.70395	49.84
2.72062	49.86
2.73728	49.86
2.75395	49.84
2.77062	49.87
2.78728	49.89
2.80395	49.90
2.82062	49.91
2.83728	49.91
2.85395	49.90
2.87062	49.90
2.88728	49.91
2.90395	49.93
2.92062	49.93
2.93728	49.94
2.95395	49.94
2.97062	49.94
2.98728	49.96
3.00395	49.98
3.02062	50.00
3.03728	50.01
3.05395	50.03
3.07062	50.03
3.08728	50.03
3.10395	50.05
3.12062	50.05
3.13728	50.06
3.15395	50.07
3.17062	50.07
3.18728	50.07
3.20395	50.07
3.22062	50.07
3.23728	50.07
3.25395	50.08
3.27062	50.09
3.28728	50.11
3.30395	50.11
3.32062	50.10
3.33728	50.09
3.35395	50.07
3.37062	50.07
3.38728	50.06
3.40395	50.06
3.42062	50.06
3.43728	50.04
3.45395	50.04
3.47062	50.04
3.48728	50.03
3.50395	50.02
3.52062	50.02
3.53728	50.02
3.55395	50.02
3.57062	50.03
3.58728	50.04
3.60395	50.05
3.62062	50.06
3.63728	50.06
3.65395	50.06
3.67062	50.06
3.68728	50.05
3.70395	50.05
3.72062	50.05
3.73728	50.05
3.75395	50.05
3.77062	50.05
3.78728	50.05
3.80395	50.04
3.82062	50.03
3.83728	50.04
3.85395	50.04
3.87062	50.03
3.88728	50.03
3.90395	50.03
3.92062	50.04
3.93728	50.05
3.95395	50.07
3.97062	50.08
3.98728	50.09

[Status Trace (Injection Unit Temperature)]
Interval(msec)	1000
# of Points	240
Start Time(min)	0.004
End Time(min)	3.987
Intensity Units	
Intensity Multiplier	1
R.Time (min)	Intensity
0.00395	99.97
0.02062	99.97
0.03728	99.97
0.05395	99.98
0.07062	99.98
0.08728	99.98
0.10395	99.98
0.12062	99.97
0.13728	99.98
0.15395	99.98
0.17062	99.98
0.18728	99.97
0.20395	99.98
0.22062	99.98
0.23728	99.98
0.25395	99.98
0.27062	99.98
0.28728	99.98
0.30395	99.98
0.32062	99.98
0.33728	99.98
0.35395	99.97
0.37062	99.97
0.38728	99.98
0.40395	99.98
0.42062	99.98
0.43728	99.98
0.45395	99.97
0.47062	99.98
0.48728	99.98
0.50395	99.98
0.52062	99.98
0.53728	99.97
0.55395	99.98
0.57062	99.98
0.58728	99.98
0.60395	99.98
0.62062	99.98
0.63728	99.98
0.65395	99.98
0.67062	99.98
0.68728	99.98
0.70395	99.98
0.72062	99.98
0.73728	99.98
0.75395	99.99
0.77062	99.98
0.78728	99.99
0.80395	99.98
0.82062	99.98
0.83728	99.98
0.85395	99.98
0.87062	99.98
0.88728	99.98
0.90395	99.98
0.92062	99.98
0.93728	99.98
0.95395	99.98
0.97062	99.98
0.98728	99.98
1.00395	99.98
1.02062	99.98
1.03728	99.99
1.05395	99.99
1.07062	99.99
1.08728	99.99
1.10395	99.98
1.12062	99.99
1.13728	99.98
1.15395	99.98
1.17062	99.99
1.18728	99.98
1.20395	99.99
1.22062	99.98
1.23728	99.99
1.25395	99.98
1.27062	99.99
1.28728	99.98
1.30395	99.99
1.32062	99.98
1.33728	99.98
1.35395	99.98
1.37062	99.98
1.38728	99.98
1.40395	99.98
1.42062	99.98
1.43728	99.98
1.45395	99.98
1.47062	99.98
1.48728	99.98
1.50395	99.98
1.52062	99.98
1.53728	99.98
1.55395	99.98
1.57062	99.98
1.58728	99.98
1.60395	99.98
1.62062	99.98
1.63728	99.98
1.65395	99.99
1.67062	99.98
1.68728	99.98
1.70395	99.98
1.72062	99.98
1.73728	99.98
1.75395	99.98
1.77062	99.98
1.78728	99.98
1.80395	99.98
1.82062	99.98
1.83728	99.98
1.85395	99.99
1.87062	99.98
1.88728	99.98
1.90395	99.98
1.92062	99.98
1.93728	99.98
1.95395	99.98
1.97062	99.98
1.98728	99.98
2.00395	99.98
2.02062	99.98
2.03728	99.98
2.05395	99.98
2.07062	99.98
2.08728	99.97
2.10395	99.98
2.12062	99.97
2.13728	99.97
2.15395	99.97
2.17062	99.97
2.18728	99.97
2.20395	99.97
2.22062	99.97
2.23728	99.97
2.25395	99.97
2.27062	99.97
2.28728	99.97
2.30395	99.96
2.32062	99.96
2.33728	99.96
2.35395	99.96
2.37062	99.96
2.38728	99.96
2.40395	99.96
2.42062	99.96
2.43728	99.96
2.45395	99.96
2.47062	99.95
2.48728	99.96
2.50395	99.96
2.52062	99.96
2.53728	99.96
2.55395	99.95
2.57062	99.96
2.58728	99.95
2.60395	99.96
2.62062	99.97
2.63728	99.96
2.65395	99.96
2.67062	99.96
2.68728	99.97
2.70395	99.97
2.72062	99.96
2.73728	99.97
2.75395	99.98
2.77062	99.97
2.78728	99.98
2.80395	99.98
2.82062	99.98
2.83728	99.98
2.85395	99.99
2.87062	99.99
2.88728	99.99
2.90395	99.99
2.92062	99.99
2.93728	99.99
2.95395	100.00
2.97062	100.00
2.98728	100.01
3.00395	100.00
3.02062	100.01
3.03728	100.00
3.05395	100.01
3.07062	100.01
3.08728	100.01
3.10395	100.01
3.12062	100.02
3.13728	100.02
3.15395	100.02
3.17062	100.02
3.18728	100.02
3.20395	100.02
3.22062	100.02
3.23728	100.02
3.25395	100.03
3.27062	100.02
3.28728	100.03
3.30395	100.02
3.32062	100.03
3.33728	100.03
3.35395	100.03
3.37062	100.03
3.38728	100.03
3.40395	100.04
3.42062	100.04
3.43728	100.04
3.45395	100.04
3.47062	100.04
3.48728	100.04
3.50395	100.04
3.52062	100.04
3.53728	100.04
3.55395	100.04
3.57062	100.04
3.58728	100.04
3.60395	100.04
3.62062	100.05
3.63728	100.04
3.65395	100.05
3.67062	100.04
3.68728	100.05
3.70395	100.05
3.72062	100.05
3.73728	100.05
3.75395	100.05
3.77062	100.05
3.78728	100.05
3.80395	100.05
3.82062	100.05
3.83728	100.05
3.85395	100.05
3.87062	100.05
3.88728	100.05
3.90395	100.05
3.92062	100.05
3.93728	100.05
3.95395	100.05
3.97062	100.05
3.98728	100.05

[Status Trace (Carrier Gas Pressure)]
Interval(msec)	1000
# of Points	240
Start Time(min)	0.004
End Time(min)	3.987
Intensity Units	
Intensity Multiplier	1
R.Time (min)	Intensity
0.00395	58.00
0.02062	55.99
0.03728	56.60
0.05395	58.72
0.07062	59.79
0.08728	58.20
0.10395	57.97
0.12062	58.01
0.13728	58.01
0.15395	58.01
0.17062	58.00
0.18728	58.00
0.20395	58.00
0.22062	58.00
0.23728	58.00
0.25395	58.00
0.27062	58.00
0.28728	58.00
0.30395	58.00
0.32062	58.00
0.33728	58.00
0.35395	58.00
0.37062	58.00
0.38728	58.00
0.40395	58.00
0.42062	58.00
0.43728	58.00
0.45395	58.00
0.47062	58.00
0.48728	58.00
0.50395	58.00
0.52062	58.00
0.53728	58.00
0.55395	58.00
0.57062	58.00
0.58728	58.00
0.60395	58.00
0.62062	58.00
0.63728	58.00
0.65395	58.00
0.67062	58.00
0.68728	58.00
0.70395	58.00
0.72062	58.00
0.73728	58.00
0.75395	58.00
0.77062	58.00
0.78728	58.00
0.80395	58.00
0.82062	58.00
0.83728	58.00
0.85395	58.00
0.87062	58.00
0.88728	58.00
0.90395	58.00
0.92062	58.00
0.93728	58.00
0.95395	58.00
0.97062	58.00
0.98728	58.00
1.00395	58.00
1.02062	58.00
1.03728	58.00
1.05395	58.00
1.07062	58.00
1.08728	58.00
1.10395	58.00
1.12062	58.00
1.13728	58.00
1.15395	58.00
1.17062	58.00
1.18728	58.00
1.20395	58.00
1.22062	58.00
1.23728	58.00
1.25395	58.00
1.27062	58.00
1.28728	58.00
1.30395	58.00
1.32062	58.00
1.33728	58.00
1.35395	58.00
1.37062	58.00
1.38728	58.00
1.40395	58.00
1.42062	58.00
1.43728	58.00
1.45395	58.00
1.47062	58.00
1.48728	58.00
1.50395	58.00
1.52062	58.00
1.53728	58.00
1.55395	58.00
1.57062	58.00
1.58728	58.00
1.60395	58.00
1.62062	58.00
1.63728	58.00
1.65395	58.00
1.67062	58.00
1.68728	58.01
1.70395	58.00
1.72062	58.00
1.73728	58.00
1.75395	58.00
1.77062	58.00
1.78728	58.00
1.80395	58.00
1.82062	58.00
1.83728	58.00
1.85395	58.00
1.87062	58.00
1.88728	58.00
1.90395	58.00
1.92062	58.00
1.93728	58.00
1.95395	58.00
1.97062	58.00
1.98728	58.00
2.00395	58.00
2.02062	58.00
2.03728	58.00
2.05395	58.00
2.07062	58.00
2.08728	58.00
2.10395	58.00
2.12062	58.00
2.13728	58.00
2.15395	58.00
2.17062	58.00
2.18728	58.00
2.20395	58.00
2.22062	58.00
2.23728	58.00
2.25395	58.00
2.27062	58.00
2.28728	58.00
2.30395	58.00
2.32062	58.00
2.33728	58.00
2.35395	58.00
2.37062	58.00
2.38728	57.99
2.40395	57.99
2.42062	58.00
2.43728	58.00
2.45395	58.00
2.47062	58.00
2.48728	58.00
2.50395	57.98
2.52062	57.99
2.53728	58.00
2.55395	58.00
2.57062	58.00
2.58728	58.00
2.60395	58.00
2.62062	58.00
2.63728	58.00
2.65395	58.00
2.67062	58.00
2.68728	58.00
2.70395	58.00
2.72062	58.00
2.73728	58.00
2.75395	58.00
2.77062	58.00
2.78728	58.00
2.80395	58.00
2.82062	58.00
2.83728	58.00
2.85395	58.00
2.87062	58.00
2.88728	58.00
2.90395	58.00
2.92062	58.00
2.93728	58.00
2.95395	58.00
2.97062	58.00
2.98728	58.00
3.00395	58.00
3.02062	58.00
3.03728	58.00
3.05395	58.00
3.07062	58.00
3.08728	58.00
3.10395	58.00
3.12062	58.00
3.13728	58.00
3.15395	58.00
3.17062	58.00
3.18728	58.00
3.20395	58.00
3.22062	58.00
3.23728	58.00
3.25395	58.00
3.27062	58.00
3.28728	58.00
3.30395	58.00
3.32062	58.00
3.33728	58.00
3.35395	58.00
3.37062	58.00
3.38728	58.00
3.40395	58.00
3.42062	58.00
3.43728	58.00
3.45395	58.00
3.47062	58.00
3.48728	58.00
3.50395	58.00
3.52062	58.00
3.53728	58.00
3.55395	58.00
3.57062	58.00
3.58728	58.00
3.60395	58.00
3.62062	58.00
3.63728	58.00
3.65395	58.00
3.67062	58.00
3.68728	58.00
3.70395	58.00
3.72062	58.00
3.73728	58.00
3.75395	58.00
3.77062	58.00
3.78728	58.00
3.80395	58.00
3.82062	58.00
3.83728	58.00
3.85395	58.00
3.87062	58.00
3.88728	58.00
3.90395	58.00
3.92062	58.00
3.93728	58.00
3.95395	58.00
3.97062	58.00
3.98728	58.00

[Status Trace (Carrier Gas Flow)]
Interval(msec)	1000
# of Points	240
Start Time(min)	0.004
End Time(min)	3.987
Intensity Units	
Intensity Multiplier	1
R.Time (min)	Intensity
0.00395	34.53
0.02062	34.57
0.03728	34.54
0.05395	34.54
0.07062	34.49
0.08728	34.51
0.10395	34.52
0.12062	34.52
0.13728	34.51
0.15395	34.51
0.17062	34.52
0.18728	34.52
0.20395	34.52
0.22062	34.52
0.23728	34.52
0.25395	34.52
0.27062	34.52
0.28728	34.52
0.30395	34.52
0.32062	34.52
0.33728	34.53
0.35395	34.52
0.37062	34.52
0.38728	34.52
0.40395	34.52
0.42062	34.52
0.43728	34.51
0.45395	34.52
0.47062	34.52
0.48728	34.53
0.50395	34.52
0.52062	34.52
0.53728	34.52
0.55395	34.52
0.57062	34.51
0.58728	34.51
0.60395	34.52
0.62062	34.52
0.63728	34.52
0.65395	34.51
0.67062	34.53
0.68728	34.52
0.70395	34.52
0.72062	34.52
0.73728	34.52
0.75395	34.52
0.77062	34.52
0.78728	34.52
0.80395	34.52
0.82062	34.52
0.83728	34.52
0.85395	34.52
0.87062	34.52
0.88728	34.51
0.90395	34.52
0.92062	34.52
0.93728	34.52
0.95395	34.52
0.97062	34.51
0.98728	34.52
1.00395	34.51
1.02062	34.52
1.03728	34.51
1.05395	34.52
1.07062	34.52
1.08728	34.52
1.10395	34.52
1.12062	34.52
1.13728	34.52
1.15395	34.52
1.17062	34.52
1.18728	34.52
1.20395	34.52
1.22062	34.52
1.23728	34.52
1.25395	34.52
1.27062	34.52
1.28728	34.52
1.30395	34.51
1.32062	34.52
1.33728	34.52
1.35395	34.52
1.37062	34.52
1.38728	34.52
1.40395	34.52
1.42062	34.52
1.43728	34.52
1.45395	34.52
1.47062	34.52
1.48728	34.52
1.50395	34.51
1.52062	34.52
1.53728	34.52
1.55395	34.52
1.57062	34.52
1.58728	34.52
1.60395	34.52
1.62062	34.52
1.63728	34.52
1.65395	34.51
1.67062	34.52
1.68728	34.52
1.70395	34.53
1.72062	34.52
1.73728	34.52
1.75395	34.52
1.77062	34.52
1.78728	34.52
1.80395	34.52
1.82062	34.52
1.83728	34.52
1.85395	34.52
1.87062	34.51
1.88728	34.52
1.90395	34.52
1.92062	34.52
1.93728	34.52
1.95395	34.52
1.97062	34.52
1.98728	34.52
2.00395	34.52
2.02062	34.52
2.03728	34.52
2.05395	34.52
2.07062	34.52
2.08728	34.52
2.10395	34.52
2.12062	34.52
2.13728	34.51
2.15395	34.52
2.17062	34.52
2.18728	34.52
2.20395	34.51
2.22062	34.52
2.23728	34.52
2.25395	34.52
2.27062	34.52
2.28728	34.52
2.30395	34.52
2.32062	34.52
2.33728	34.52
2.35395	34.52
2.37062	34.51
2.38728	34.53
2.40395	34.52
2.42062	34.52
2.43728	34.52
2.45395	34.52
2.47062	34.52
2.48728	34.52
2.50395	34.65
2.52062	34.51
2.53728	34.52
2.55395	34.52
2.57062	34.52
2.58728	34.51
2.60395	34.52
2.62062	34.53
2.63728	34.52
2.65395	34.52
2.67062	34.51
2.68728	34.52
2.70395	34.52
2.72062	34.52
2.73728	34.52
2.75395	34.52
2.77062	34.52
2.78728	34.52
2.80395	34.52
2.82062	34.52
2.83728	34.52
2.85395	34.52
2.87062	34.52
2.88728	34.52
2.90395	34.52
2.92062	34.52
2.93728	34.52
2.95395	34.52
2.97062	34.52
2.98728	34.52
3.00395	34.52
3.02062	34.52
3.03728	34.52
3.05395	34.52
3.07062	34.52
3.08728	34.52
3.10395	34.53
3.12062	34.52
3.13728	34.52
3.15395	34.52
3.17062	34.52
3.18728	34.52
3.20395	34.52
3.22062	34.52
3.23728	34.52
3.25395	34.52
3.27062	34.52
3.28728	34.51
3.30395	34.51
3.32062	34.52
3.33728	34.52
3.35395	34.52
3.37062	34.52
3.38728	34.52
3.40395	34.52
3.42062	34.51
3.43728	34.52
3.45395	34.52
3.47062	34.51
3.48728	34.52
3.50395	34.52
3.52062	34.52
3.53728	34.51
3.55395	34.52
3.57062	34.53
3.58728	34.51
3.60395	34.52
3.62062	34.52
3.63728	34.52
3.65395	34.52
3.67062	34.52
3.68728	34.52
3.70395	34.51
3.72062	34.52
3.73728	34.52
3.75395	34.52
3.77062	34.52
3.78728	34.52
3.80395	34.52
3.82062	34.52
3.83728	34.52
3.85395	34.52
3.87062	34.51
3.88728	34.52
3.90395	34.52
3.92062	34.52
3.93728	34.52
3.95395	34.52
3.97062	34.52
3.98728	34.53

[Status Trace (Column Flow)]
Interval(msec)	1000
# of Points	240
Start Time(min)	0.004
End Time(min)	3.987
Intensity Units	
Intensity Multiplier	1
R.Time (min)	Intensity
0.00395	5.57
0.02062	5.33
0.03728	5.41
0.05395	5.66
0.07062	5.78
0.08728	5.59
0.10395	5.57
0.12062	5.57
0.13728	5.57
0.15395	5.57
0.17062	5.57
0.18728	5.57
0.20395	5.57
0.22062	5.57
0.23728	5.57
0.25395	5.57
0.27062	5.57
0.28728	5.57
0.30395	5.57
0.32062	5.57
0.33728	5.57
0.35395	5.57
0.37062	5.57
0.38728	5.57
0.40395	5.57
0.42062	5.57
0.43728	5.57
0.45395	5.57
0.47062	5.57
0.48728	5.57
0.50395	5.57
0.52062	5.57
0.53728	5.57
0.55395	5.57
0.57062	5.57
0.58728	5.57
0.60395	5.57
0.62062	5.57
0.63728	5.57
0.65395	5.57
0.67062	5.57
0.68728	5.57
0.70395	5.57
0.72062	5.57
0.73728	5.57
0.75395	5.57
0.77062	5.57
0.78728	5.57
0.80395	5.57
0.82062	5.57
0.83728	5.57
0.85395	5.57
0.87062	5.57
0.88728	5.57
0.90395	5.57
0.92062	5.57
0.93728	5.57
0.95395	5.57
0.97062	5.57
0.98728	5.57
1.00395	5.57
1.02062	5.57
1.03728	5.57
1.05395	5.57
1.07062	5.57
1.08728	5.57
1.10395	5.57
1.12062	5.57
1.13728	5.57
1.15395	5.57
1.17062	5.57
1.18728	5.57
1.20395	5.57
1.22062	5.57
1.23728	5.57
1.25395	5.57
1.27062	5.57
1.28728	5.57
1.30395	5.57
1.32062	5.57
1.33728	5.57
1.35395	5.57
1.37062	5.57
1.38728	5.57
1.40395	5.57
1.42062	5.57
1.43728	5.57
1.45395	5.57
1.47062	5.57
1.48728	5.57
1.50395	5.57
1.52062	5.57
1.53728	5.57
1.55395	5.57
1.57062	5.57
1.58728	5.57
1.60395	5.57
1.62062	5.57
1.63728	5.56
1.65395	5.55
1.67062	5.54
1.68728	5.53
1.70395	5.52
1.72062	5.51
1.73728	5.50
1.75395	5.49
1.77062	5.48
1.78728	5.47
1.80395	5.46
1.82062	5.45
1.83728	5.44
1.85395	5.43
1.87062	5.42
1.88728	5.41
1.90395	5.40
1.92062	5.39
1.93728	5.38
1.95395	5.37
1.97062	5.36
1.98728	5.35
2.00395	5.34
2.02062	5.33
2.03728	5.32
2.05395	5.31
2.07062	5.30
2.08728	5.29
2.10395	5.28
2.12062	5.27
2.13728	5.26
2.15395	5.25
2.17062	5.24
2.18728	5.23
2.20395	5.23
2.22062	5.22
2.23728	5.21
2.25395	5.20
2.27062	5.19
2.28728	5.18
2.30395	5.17
2.32062	5.16
2.33728	5.15
2.35395	5.14
2.37062	5.13
2.38728	5.13
2.40395	5.13
2.42062	5.13
2.43728	5.13
2.45395	5.13
2.47062	5.13
2.48728	5.13
2.50395	5.13
2.52062	5.13
2.53728	5.13
2.55395	5.13
2.57062	5.13
2.58728	5.13
2.60395	5.13
2.62062	5.13
2.63728	5.13
2.65395	5.13
2.67062	5.13
2.68728	5.13
2.70395	5.13
2.72062	5.13
2.73728	5.13
2.75395	5.13
2.77062	5.13
2.78728	5.13
2.80395	5.13
2.82062	5.13
2.83728	5.13
2.85395	5.13
2.87062	5.13
2.88728	5.13
2.90395	5.13
2.92062	5.13
2.93728	5.13
2.95395	5.13
2.97062	5.13
2.98728	5.13
3.00395	5.12
3.02062	5.12
3.03728	5.12
3.05395	5.12
3.07062	5.12
3.08728	5.12
3.10395	5.12
3.12062	5.12
3.13728	5.12
3.15395	5.12
3.17062	5.12
3.18728	5.12
3.20395	5.12
3.22062	5.12
3.23728	5.12
3.25395	5.12
3.27062	5.12
3.28728	5.12
3.30395	5.12
3.32062	5.12
3.33728	5.12
3.35395	5.12
3.37062	5.12
3.38728	5.12
3.40395	5.12
3.42062	5.12
3.43728	5.12
3.45395	5.12
3.47062	5.12
3.48728	5.12
3.50395	5.12
3.52062	5.12
3.53728	5.12
3.55395	5.12
3.57062	5.12
3.58728	5.12
3.60395	5.12
3.62062	5.12
3.63728	5.12
3.65395	5.12
3.67062	5.12
3.68728	5.12
3.70395	5.12
3.72062	5.12
3.73728	5.12
3.75395	5.12
3.77062	5.12
3.78728	5.12
3.80395	5.12
3.82062	5.12
3.83728	5.12
3.85395	5.12
3.87062	5.12
3.88728	5.12
3.90395	5.12
3.92062	5.12
3.93728	5.12
3.95395	5.12
3.97062	5.12
3.98728	5.12

[Status Trace (Linear Velocity)]
Interval(msec)	1000
# of Points	240
Start Time(min)	0.004
End Time(min)	3.987
Intensity Units	
Intensity Multiplier	1
R.Time (min)	Intensity
0.00395	39.02
0.02062	37.70
0.03728	38.10
0.05395	39.50
0.07062	40.20
0.08728	39.15
0.10395	39.01
0.12062	39.03
0.13728	39.03
0.15395	39.03
0.17062	39.03
0.18728	39.03
0.20395	39.03
0.22062	39.03
0.23728	39.03
0.25395	39.03
0.27062	39.03
0.28728	39.03
0.30395	39.03
0.32062	39.03
0.33728	39.03
0.35395	39.03
0.37062	39.03
0.38728	39.03
0.40395	39.03
0.42062	39.03
0.43728	39.03
0.45395	39.03
0.47062	39.03
0.48728	39.03
0.50395	39.03
0.52062	39.03
0.53728	39.03
0.55395	39.03
0.57062	39.03
0.58728	39.03
0.60395	39.03
0.62062	39.03
0.63728	39.03
0.65395	39.03
0.67062	39.03
0.68728	39.03
0.70395	39.03
0.72062	39.03
0.73728	39.03
0.75395	39.03
0.77062	39.03
0.78728	39.03
0.80395	39.03
0.82062	39.03
0.83728	39.03
0.85395	39.03
0.87062	39.03
0.88728	39.03
0.90395	39.03
0.92062	39.03
0.93728	39.03
0.95395	39.03
0.97062	39.03
0.98728	39.03
1.00395	39.03
1.02062	39.03
1.03728	39.03
1.05395	39.03
1.07062	39.03
1.08728	39.03
1.10395	39.03
1.12062	39.03
1.13728	39.03
1.15395	39.03
1.17062	39.03
1.18728	39.03
1.20395	39.03
1.22062	39.03
1.23728	39.03
1.25395	39.03
1.27062	39.03
1.28728	39.03
1.30395	39.03
1.32062	39.03
1.33728	39.03
1.35395	39.03
1.37062	39.03
1.38728	39.03
1.40395	39.03
1.42062	39.03
1.43728	39.03
1.45395	39.03
1.47062	39.03
1.48728	39.03
1.50395	39.03
1.52062	39.03
1.53728	39.03
1.55395	39.03
1.57062	39.03
1.58728	39.03
1.60395	39.02
1.62062	39.01
1.63728	39.00
1.65395	38.97
1.67062	38.95
1.68728	38.91
1.70395	38.88
1.72062	38.84
1.73728	38.81
1.75395	38.78
1.77062	38.75
1.78728	38.72
1.80395	38.69
1.82062	38.65
1.83728	38.62
1.85395	38.59
1.87062	38.56
1.88728	38.53
1.90395	38.50
1.92062	38.47
1.93728	38.44
1.95395	38.41
1.97062	38.38
1.98728	38.35
2.00395	38.32
2.02062	38.29
2.03728	38.26
2.05395	38.23
2.07062	38.20
2.08728	38.17
2.10395	38.14
2.12062	38.11
2.13728	38.08
2.15395	38.05
2.17062	38.02
2.18728	37.99
2.20395	37.97
2.22062	37.93
2.23728	37.90
2.25395	37.88
2.27062	37.84
2.28728	37.81
2.30395	37.79
2.32062	37.75
2.33728	37.73
2.35395	37.70
2.37062	37.68
2.38728	37.67
2.40395	37.66
2.42062	37.67
2.43728	37.67
2.45395	37.67
2.47062	37.67
2.48728	37.67
2.50395	37.65
2.52062	37.66
2.53728	37.66
2.55395	37.66
2.57062	37.66
2.58728	37.66
2.60395	37.66
2.62062	37.66
2.63728	37.66
2.65395	37.66
2.67062	37.66
2.68728	37.66
2.70395	37.66
2.72062	37.66
2.73728	37.66
2.75395	37.66
2.77062	37.66
2.78728	37.65
2.80395	37.65
2.82062	37.65
2.83728	37.65
2.85395	37.65
2.87062	37.65
2.88728	37.65
2.90395	37.65
2.92062	37.65
2.93728	37.65
2.95395	37.65
2.97062	37.65
2.98728	37.65
3.00395	37.65
3.02062	37.64
3.03728	37.64
3.05395	37.64
3.07062	37.64
3.08728	37.64
3.10395	37.64
3.12062	37.64
3.13728	37.64
3.15395	37.64
3.17062	37.64
3.18728	37.64
3.20395	37.64
3.22062	37.64
3.23728	37.64
3.25395	37.64
3.27062	37.64
3.28728	37.63
3.30395	37.63
3.32062	37.63
3.33728	37.64
3.35395	37.64
3.37062	37.64
3.38728	37.64
3.40395	37.64
3.42062	37.64
3.43728	37.64
3.45395	37.64
3.47062	37.64
3.48728	37.64
3.50395	37.64
3.52062	37.64
3.53728	37.64
3.55395	37.64
3.57062	37.64
3.58728	37.64
3.60395	37.64
3.62062	37.64
3.63728	37.64
3.65395	37.64
3.67062	37.64
3.68728	37.64
3.70395	37.64
3.72062	37.64
3.73728	37.64
3.75395	37.64
3.77062	37.64
3.78728	37.64
3.80395	37.64
3.82062	37.64
3.83728	37.64
3.85395	37.64
3.87062	37.64
3.88728	37.64
3.90395	37.64
3.92062	37.64
3.93728	37.64
3.95395	37.64
3.97062	37.64
3.98728	37.64

