[Header]
Application Name	LabSolutions
Version	5.110
Data File Name	C:\Users\User\Desktop\GC Analyses\Jack\Nachusa Grasslands Sampling\T1 Timepoint July 12th\T1_07122022_036.gcd
Output Date	3/14/2023
Output Time	3:40:59 PM

[File Information]
Type	Data File
Generated	3/8/2023 5:10:53 PM
Generated by	System Administrator
Modified	3/8/2023 5:17:44 PM
Modified by	System Administrator

[Sample Information]
Operator Name	System Administrator
Acquired	3/8/2023 5:13:44 PM
Sample Type	0:Unknown
Level	0
Sample Name	036
Sample ID	036
ISTD Amount1	1
ISTD Amount2	1
ISTD Amount3	1
ISTD Amount4	1
ISTD Amount5	1
ISTD Amount6	1
ISTD Amount7	1
ISTD Amount8	1
ISTD Amount9	1
ISTD Amount10	1
ISTD Amount11	1
ISTD Amount12	1
ISTD Amount13	1
ISTD Amount14	1
ISTD Amount15	1
ISTD Amount16	1
ISTD Amount17	1
ISTD Amount18	1
ISTD Amount19	1
ISTD Amount20	1
ISTD Amount21	1
ISTD Amount22	1
ISTD Amount23	1
ISTD Amount24	1
ISTD Amount25	1
ISTD Amount26	1
ISTD Amount27	1
ISTD Amount28	1
ISTD Amount29	1
ISTD Amount30	1
ISTD Amount31	1
ISTD Amount32	1
Sample Amount	1
Dilution Factor	1
Vial#	35
Injection Volume	1
Injection Count	1
Bar Code	

[Original Files]
Data File	C:\Users\User\Desktop\GC Analyses\Jack\Nachusa Grasslands Sampling\T1 Timepoint July 12th\T1_07122022_036.gcd
Method File	C:\LabSolutions\Data\GHG_4min_2022\ghg3_togas_w_acet_4 min_new_int.gcm
Batch File	C:\LabSolutions\Data\AutoSamplerTesting\T1_07122022.gcb
Report Format File	c:\LabSolutions\System\DEFAULT.lsr

[File Description]


[Configuration]
Instrument Name	C0B7VH3-Instrument1
Instrument #	1
Line #	1
# of Detectors	3
Detector ID	DET#1	DET#2	DET#3
Detector Name	FID	PTCD	ECD
# of Channels	1	1	1

[Peak Table(Ch1)]
# of Peaks	3
Peak#	R.Time	I.Time	F.Time	Area	Height	A/H	Conc.	Mark	ID#	Name	k'	Plate #	Plate Ht.	Tailing	Resolution	Sep.Factor	Area Ratio	Height Ratio	Conc. %	Norm Conc.
1	1.476	1.439	1.538	39777	19028	2.090	280.824	   	1	CO	0.000	9267	16.186	1.326	0.000	0.000	0	0	40.845	40.845
2	1.567	1.538	1.630	4725	2241	2.108	91.356	 V 	2	CH4	0.062	10067	14.900	0.000	1.481	0.000	0	0	13.287	13.287
3	1.996	1.952	2.451	1256535	594117	2.115	315.356	   	3	CO2	0.353	17373	8.634	1.316	6.972	5.680	0	0	45.868	45.868

[Peak Table(Ch2)]
# of Peaks	0

[Peak Table(Ch3)]
# of Peaks	4
Peak#	R.Time	I.Time	F.Time	Area	Height	A/H	Conc.	Mark	ID#	Name	k'	Plate #	Plate Ht.	Tailing	Resolution	Sep.Factor	Area Ratio	Height Ratio	Conc. %	Norm Conc.
1	2.462	2.392	2.517	1418	450	3.154	0.000	   			0.000	9392	15.971	0.000	0.000	0.000	0	0	0.000	0.000
2	2.543	2.517	2.631	991	241	4.121	0.000	 V 			0.033	4260	35.214	0.000	0.627	0.000	0	0	0.000	0.000
3	2.678	2.642	2.785	431	80	5.399	0.000	   			0.088	6237	24.048	0.000	0.931	2.682	0	0	0.000	0.000
4	2.873	2.785	3.133	19223	4995	3.849	0.491	 V 	1	N2O	0.167	13301	11.277	1.662	1.652	1.898	0	0	100.000	100.000

[Compound Results(Ch1)]
# of IDs	6
ID#	Name	R.Time	Area	Height	Conc.	Curve	3rd	2nd	1st	Constant	Area Ratio	Height Ratio	Conc. %	Norm Conc.
1	CO	1.476	39777	19028	280.824	Linear	0.000000e+00	0.000000e+00	1.416423e+002	0.000000e+00	0	0	40.845	40.845
2	CH4	1.567	4725	2241	91.356	Linear	0.000000e+00	0.000000e+00	5.171738e+001	0.000000e+00	0	0	13.287	13.287
3	CO2	1.996	1256535	594117	315.356	Linear	0.000000e+00	0.000000e+00	3.984494e+003	0.000000e+00	0	0	45.868	45.868
4	Ethylene	0.000	0	0	0.000	Linear	0.000000e+00	0.000000e+00	0.000000e+00	0.000000e+00	0	0	0.000	0.000
5	Acetylene	0.000	0	0	0.000	Linear	0.000000e+00	0.000000e+00	0.000000e+00	0.000000e+00	0	0	0.000	0.000
6	Ethane	0.000	0	0	0.000	Linear	0.000000e+00	0.000000e+00	0.000000e+00	0.000000e+00	0	0	0.000	0.000

[Compound Results(Ch2)]
# of IDs	5
ID#	Name	R.Time	Area	Height	Conc.	Curve	3rd	2nd	1st	Constant	Area Ratio	Height Ratio	Conc. %	Norm Conc.
1	Hydrogen	0.000	0	0	0.000	Linear	0.000000e+00	0.000000e+00	0.000000e+00	0.000000e+00	0	0	0.000	0.000
2	Oxygen	0.000	0	0	0.000	Linear	0.000000e+00	0.000000e+00	0.000000e+00	0.000000e+00	0	0	0.000	0.000
3	Nitrogen	0.000	0	0	0.000	Linear	0.000000e+00	0.000000e+00	0.000000e+00	0.000000e+00	0	0	0.000	0.000
4	Methane	0.000	0	0	0.000	Linear	0.000000e+00	0.000000e+00	0.000000e+00	0.000000e+00	0	0	0.000	0.000
5	Carbon Monoxide	0.000	0	0	0.000	Linear	0.000000e+00	0.000000e+00	0.000000e+00	0.000000e+00	0	0	0.000	0.000

[Compound Results(Ch3)]
# of IDs	2
ID#	Name	R.Time	Area	Height	Conc.	Curve	3rd	2nd	1st	Constant	Area Ratio	Height Ratio	Conc. %	Norm Conc.
1	N2O	2.873	19223	4995	0.491	Linear	0.000000e+00	0.000000e+00	3.915173e+004	0.000000e+00	0	0	100.000	100.000
2	SF6	0.000	0	0	0.000	Linear	0.000000e+00	0.000000e+00	0.000000e+00	0.000000e+00	0	0	0.000	0.000

[Group Results(Ch1)]
# of Groups	0

[Group Results(Ch2)]
# of Groups	0

[Group Results(Ch3)]
# of Groups	0

[Chromatogram (Ch1)]
Interval(msec)	220
# of Points	1091
Start Time(min)	0.002
End Time(min)	3.998
R.Time (min)	Intensity
0.00167	0
0.00533	-1
0.00900	-4
0.01267	-7
0.01633	-7
0.02000	-3
0.02367	4
0.02733	12
0.03100	21
0.03467	30
0.03833	37
0.04200	42
0.04567	44
0.04933	41
0.05300	34
0.05667	26
0.06033	21
0.06400	19
0.06767	17
0.07133	12
0.07500	1
0.07867	-6
0.08233	-6
0.08600	-4
0.08967	-1
0.09333	3
0.09700	9
0.10067	15
0.10433	22
0.10800	30
0.11167	37
0.11533	44
0.11900	49
0.12267	50
0.12633	45
0.13000	37
0.13367	29
0.13733	24
0.14100	23
0.14467	26
0.14833	28
0.15200	28
0.15567	26
0.15933	26
0.16300	26
0.16667	31
0.17033	36
0.17400	38
0.17767	42
0.18133	49
0.18500	56
0.18867	59
0.19233	54
0.19600	40
0.19967	21
0.20333	1
0.20700	-16
0.21067	-22
0.21433	-21
0.21800	-20
0.22167	-20
0.22533	-20
0.22900	-19
0.23267	-19
0.23633	-18
0.24000	-16
0.24367	-13
0.24733	-10
0.25100	-5
0.25467	1
0.25833	9
0.26200	16
0.26567	23
0.26933	26
0.27300	24
0.27667	21
0.28033	19
0.28400	17
0.28767	18
0.29133	23
0.29500	26
0.29867	28
0.30233	28
0.30600	24
0.30967	21
0.31333	21
0.31700	20
0.32067	19
0.32433	20
0.32800	23
0.33167	28
0.33533	32
0.33900	36
0.34267	41
0.34633	41
0.35000	39
0.35367	35
0.35733	28
0.36100	21
0.36467	17
0.36833	19
0.37200	23
0.37567	22
0.37933	19
0.38300	17
0.38667	15
0.39033	14
0.39400	14
0.39767	16
0.40133	20
0.40500	29
0.40867	42
0.41233	53
0.41600	59
0.41967	61
0.42333	59
0.42700	51
0.43067	35
0.43433	17
0.43800	2
0.44167	-7
0.44533	-10
0.44900	-7
0.45267	0
0.45633	12
0.46000	24
0.46367	30
0.46733	31
0.47100	28
0.47467	24
0.47833	20
0.48200	16
0.48567	11
0.48933	7
0.49300	7
0.49667	10
0.50033	12
0.50400	14
0.50767	8
0.51133	-1
0.51500	-6
0.51867	-1
0.52233	6
0.52600	12
0.52967	13
0.53333	10
0.53700	5
0.54067	4
0.54433	6
0.54800	8
0.55167	16
0.55533	23
0.55900	22
0.56267	19
0.56633	16
0.57000	12
0.57367	10
0.57733	8
0.58100	7
0.58467	8
0.58833	13
0.59200	21
0.59567	24
0.59933	23
0.60300	21
0.60667	18
0.61033	15
0.61400	11
0.61767	7
0.62133	7
0.62500	16
0.62867	31
0.63233	43
0.63600	48
0.63967	48
0.64333	47
0.64700	41
0.65067	33
0.65433	25
0.65800	21
0.66167	18
0.66533	14
0.66900	11
0.67267	12
0.67633	20
0.68000	29
0.68367	36
0.68733	39
0.69100	33
0.69467	25
0.69833	16
0.70200	9
0.70567	7
0.70933	13
0.71300	19
0.71667	23
0.72033	24
0.72400	23
0.72767	23
0.73133	21
0.73500	17
0.73867	16
0.74233	16
0.74600	17
0.74967	18
0.75333	17
0.75700	14
0.76067	8
0.76433	3
0.76800	5
0.77167	9
0.77533	10
0.77900	11
0.78267	13
0.78633	12
0.79000	11
0.79367	10
0.79733	10
0.80100	10
0.80467	8
0.80833	3
0.81200	-1
0.81567	-2
0.81933	3
0.82300	11
0.82667	22
0.83033	25
0.83400	23
0.83767	24
0.84133	24
0.84500	18
0.84867	7
0.85233	-0
0.85600	4
0.85967	16
0.86333	31
0.86700	45
0.87067	55
0.87433	59
0.87800	58
0.88167	58
0.88533	55
0.88900	47
0.89267	41
0.89633	39
0.90000	44
0.90367	53
0.90733	56
0.91100	54
0.91467	51
0.91833	50
0.92200	53
0.92567	50
0.92933	38
0.93300	27
0.93667	22
0.94033	20
0.94400	18
0.94767	16
0.95133	14
0.95500	13
0.95867	13
0.96233	13
0.96600	14
0.96967	15
0.97333	20
0.97700	26
0.98067	32
0.98433	36
0.98800	40
0.99167	40
0.99533	41
0.99900	41
1.00267	37
1.00633	35
1.01000	34
1.01367	34
1.01733	33
1.02100	31
1.02467	32
1.02833	34
1.03200	36
1.03567	36
1.03933	34
1.04300	35
1.04667	41
1.05033	48
1.05400	51
1.05767	51
1.06133	51
1.06500	50
1.06867	45
1.07233	37
1.07600	34
1.07967	38
1.08333	46
1.08700	51
1.09067	51
1.09433	49
1.09800	45
1.10167	40
1.10533	29
1.10900	20
1.11267	15
1.11633	16
1.12000	19
1.12367	22
1.12733	23
1.13100	25
1.13467	31
1.13833	37
1.14200	36
1.14567	33
1.14933	31
1.15300	26
1.15667	18
1.16033	11
1.16400	9
1.16767	12
1.17133	11
1.17500	10
1.17867	15
1.18233	22
1.18600	29
1.18967	31
1.19333	29
1.19700	24
1.20067	15
1.20433	7
1.20800	4
1.21167	5
1.21533	9
1.21900	16
1.22267	25
1.22633	31
1.23000	33
1.23367	32
1.23733	30
1.24100	28
1.24467	26
1.24833	27
1.25200	30
1.25567	35
1.25933	37
1.26300	35
1.26667	29
1.27033	19
1.27400	6
1.27767	-6
1.28133	-14
1.28500	-16
1.28867	-13
1.29233	-11
1.29600	-8
1.29967	-3
1.30333	3
1.30700	4
1.31067	4
1.31433	5
1.31800	5
1.32167	4
1.32533	8
1.32900	14
1.33267	20
1.33633	24
1.34000	24
1.34367	20
1.34733	13
1.35100	5
1.35467	0
1.35833	-0
1.36200	2
1.36567	2
1.36933	4
1.37300	11
1.37667	16
1.38033	17
1.38400	12
1.38767	1
1.39133	-11
1.39500	-25
1.39867	-31
1.40233	-33
1.40600	-32
1.40967	-22
1.41333	-8
1.41700	3
1.42067	8
1.42433	7
1.42800	5
1.43167	6
1.43533	7
1.43900	24
1.44267	115
1.44633	374
1.45000	1105
1.45367	2916
1.45733	5987
1.46100	9710
1.46467	13272
1.46833	16165
1.47200	18151
1.47567	19056
1.47933	18722
1.48300	17151
1.48667	14651
1.49033	11754
1.49400	8970
1.49767	6608
1.50133	4763
1.50500	3398
1.50867	2422
1.51233	1736
1.51600	1261
1.51967	941
1.52333	727
1.52700	583
1.53067	484
1.53433	413
1.53800	373
1.54167	401
1.54533	546
1.54900	831
1.55267	1208
1.55633	1597
1.56000	1929
1.56367	2164
1.56733	2283
1.57100	2260
1.57467	2078
1.57833	1768
1.58200	1400
1.58567	1051
1.58933	767
1.59300	555
1.59667	400
1.60033	290
1.60400	215
1.60767	165
1.61133	131
1.61500	107
1.61867	90
1.62233	76
1.62600	62
1.62967	51
1.63333	47
1.63700	46
1.64067	46
1.64433	44
1.64800	40
1.65167	37
1.65533	37
1.65900	38
1.66267	39
1.66633	36
1.67000	32
1.67367	29
1.67733	24
1.68100	24
1.68467	26
1.68833	24
1.69200	17
1.69567	14
1.69933	14
1.70300	12
1.70667	11
1.71033	10
1.71400	6
1.71767	5
1.72133	3
1.72500	0
1.72867	2
1.73233	4
1.73600	7
1.73967	12
1.74333	20
1.74700	23
1.75067	22
1.75433	18
1.75800	13
1.76167	6
1.76533	3
1.76900	-1
1.77267	-4
1.77633	-2
1.78000	2
1.78367	5
1.78733	10
1.79100	14
1.79467	15
1.79833	15
1.80200	12
1.80567	8
1.80933	8
1.81300	14
1.81667	16
1.82033	12
1.82400	9
1.82767	12
1.83133	16
1.83500	18
1.83867	19
1.84233	18
1.84600	18
1.84967	18
1.85333	15
1.85700	10
1.86067	3
1.86433	-3
1.86800	-2
1.87167	4
1.87533	11
1.87900	14
1.88267	12
1.88633	9
1.89000	9
1.89367	12
1.89733	13
1.90100	13
1.90467	13
1.90833	15
1.91200	16
1.91567	14
1.91933	12
1.92300	9
1.92667	4
1.93033	0
1.93400	-1
1.93767	0
1.94133	6
1.94500	7
1.94867	4
1.95233	14
1.95600	112
1.95967	671
1.96333	3186
1.96700	11909
1.97067	35132
1.97433	83198
1.97800	161710
1.98167	265167
1.98533	377693
1.98900	479977
1.99267	555839
1.99633	594163
2.00000	589832
2.00367	545441
2.00733	471527
2.01100	383341
2.01467	295683
2.01833	218766
2.02200	157082
2.02567	110724
2.02933	77440
2.03300	54263
2.03667	38429
2.04033	27719
2.04400	20497
2.04767	15601
2.05133	12240
2.05500	9895
2.05867	8223
2.06233	7007
2.06600	6097
2.06967	5395
2.07333	4832
2.07700	4375
2.08067	3996
2.08433	3676
2.08800	3404
2.09167	3171
2.09533	2967
2.09900	2790
2.10267	2633
2.10633	2493
2.11000	2366
2.11367	2254
2.11733	2155
2.12100	2065
2.12467	1980
2.12833	1900
2.13200	1825
2.13567	1754
2.13933	1689
2.14300	1627
2.14667	1564
2.15033	1509
2.15400	1460
2.15767	1416
2.16133	1377
2.16500	1339
2.16867	1303
2.17233	1271
2.17600	1239
2.17967	1208
2.18333	1183
2.18700	1157
2.19067	1126
2.19433	1091
2.19800	1054
2.20167	1021
2.20533	988
2.20900	951
2.21267	917
2.21633	888
2.22000	861
2.22367	836
2.22733	814
2.23100	798
2.23467	787
2.23833	781
2.24200	776
2.24567	768
2.24933	759
2.25300	748
2.25667	738
2.26033	727
2.26400	713
2.26767	695
2.27133	680
2.27500	668
2.27867	657
2.28233	649
2.28600	641
2.28967	632
2.29333	624
2.29700	622
2.30067	619
2.30433	611
2.30800	597
2.31167	584
2.31533	572
2.31900	562
2.32267	552
2.32633	545
2.33000	539
2.33367	536
2.33733	534
2.34100	536
2.34467	535
2.34833	528
2.35200	517
2.35567	506
2.35933	498
2.36300	492
2.36667	484
2.37033	476
2.37400	474
2.37767	480
2.38133	489
2.38500	492
2.38867	483
2.39233	467
2.39600	449
2.39967	439
2.40333	434
2.40700	431
2.41067	429
2.41433	430
2.41800	428
2.42167	426
2.42533	420
2.42900	409
2.43267	396
2.43633	387
2.44000	383
2.44367	385
2.44733	381
2.45100	377
2.45467	375
2.45833	373
2.46200	373
2.46567	374
2.46933	376
2.47300	377
2.47667	377
2.48033	382
2.48400	394
2.48767	404
2.49133	402
2.49500	390
2.49867	374
2.50233	359
2.50600	347
2.50967	341
2.51333	334
2.51700	331
2.52067	334
2.52433	337
2.52800	339
2.53167	338
2.53533	337
2.53900	338
2.54267	345
2.54633	355
2.55000	364
2.55367	367
2.55733	366
2.56100	364
2.56467	360
2.56833	354
2.57200	349
2.57567	343
2.57933	341
2.58300	344
2.58667	349
2.59033	357
2.59400	363
2.59767	367
2.60133	367
2.60500	365
2.60867	361
2.61233	356
2.61600	351
2.61967	347
2.62333	346
2.62700	346
2.63067	341
2.63433	332
2.63800	320
2.64167	311
2.64533	309
2.64900	310
2.65267	305
2.65633	299
2.66000	292
2.66367	290
2.66733	289
2.67100	286
2.67467	282
2.67833	280
2.68200	283
2.68567	290
2.68933	298
2.69300	306
2.69667	314
2.70033	322
2.70400	329
2.70767	330
2.71133	325
2.71500	316
2.71867	310
2.72233	312
2.72600	317
2.72967	319
2.73333	321
2.73700	325
2.74067	327
2.74433	323
2.74800	318
2.75167	316
2.75533	316
2.75900	317
2.76267	318
2.76633	320
2.77000	321
2.77367	322
2.77733	320
2.78100	317
2.78467	318
2.78833	322
2.79200	325
2.79567	329
2.79933	335
2.80300	341
2.80667	342
2.81033	336
2.81400	333
2.81767	334
2.82133	335
2.82500	332
2.82867	332
2.83233	334
2.83600	338
2.83967	340
2.84333	337
2.84700	331
2.85067	323
2.85433	314
2.85800	306
2.86167	303
2.86533	302
2.86900	306
2.87267	312
2.87633	316
2.88000	319
2.88367	322
2.88733	325
2.89100	327
2.89467	327
2.89833	325
2.90200	320
2.90567	314
2.90933	312
2.91300	311
2.91667	318
2.92033	329
2.92400	338
2.92767	340
2.93133	335
2.93500	328
2.93867	325
2.94233	326
2.94600	327
2.94967	324
2.95333	322
2.95700	323
2.96067	325
2.96433	326
2.96800	328
2.97167	334
2.97533	341
2.97900	345
2.98267	343
2.98633	339
2.99000	335
2.99367	331
2.99733	328
3.00100	327
3.00467	329
3.00833	332
3.01200	339
3.01567	343
3.01933	342
3.02300	339
3.02667	336
3.03033	335
3.03400	333
3.03767	330
3.04133	327
3.04500	325
3.04867	324
3.05233	328
3.05600	335
3.05967	340
3.06333	347
3.06700	350
3.07067	347
3.07433	340
3.07800	331
3.08167	318
3.08533	306
3.08900	301
3.09267	302
3.09633	307
3.10000	309
3.10367	310
3.10733	313
3.11100	317
3.11467	321
3.11833	325
3.12200	328
3.12567	332
3.12933	333
3.13300	326
3.13667	317
3.14033	314
3.14400	318
3.14767	323
3.15133	325
3.15500	325
3.15867	323
3.16233	323
3.16600	327
3.16967	333
3.17333	332
3.17700	325
3.18067	318
3.18433	310
3.18800	302
3.19167	297
3.19533	297
3.19900	298
3.20267	302
3.20633	304
3.21000	305
3.21367	309
3.21733	313
3.22100	319
3.22467	325
3.22833	330
3.23200	334
3.23567	334
3.23933	329
3.24300	321
3.24667	313
3.25033	304
3.25400	294
3.25767	285
3.26133	280
3.26500	282
3.26867	286
3.27233	291
3.27600	292
3.27967	291
3.28333	291
3.28700	295
3.29067	302
3.29433	311
3.29800	321
3.30167	332
3.30533	336
3.30900	332
3.31267	326
3.31633	322
3.32000	318
3.32367	314
3.32733	311
3.33100	307
3.33467	301
3.33833	293
3.34200	287
3.34567	283
3.34933	284
3.35300	286
3.35667	286
3.36033	284
3.36400	282
3.36767	280
3.37133	279
3.37500	278
3.37867	280
3.38233	285
3.38600	293
3.38967	303
3.39333	309
3.39700	314
3.40067	316
3.40433	314
3.40800	307
3.41167	301
3.41533	300
3.41900	299
3.42267	297
3.42633	298
3.43000	302
3.43367	309
3.43733	316
3.44100	317
3.44467	308
3.44833	297
3.45200	285
3.45567	278
3.45933	274
3.46300	272
3.46667	273
3.47033	274
3.47400	278
3.47767	283
3.48133	286
3.48500	281
3.48867	273
3.49233	264
3.49600	261
3.49967	261
3.50333	257
3.50700	251
3.51067	247
3.51433	249
3.51800	253
3.52167	255
3.52533	252
3.52900	250
3.53267	248
3.53633	248
3.54000	248
3.54367	251
3.54733	256
3.55100	261
3.55467	265
3.55833	266
3.56200	266
3.56567	270
3.56933	274
3.57300	274
3.57667	274
3.58033	270
3.58400	263
3.58767	257
3.59133	255
3.59500	259
3.59867	267
3.60233	274
3.60600	278
3.60967	277
3.61333	275
3.61700	267
3.62067	254
3.62433	242
3.62800	234
3.63167	229
3.63533	228
3.63900	228
3.64267	228
3.64633	229
3.65000	230
3.65367	229
3.65733	228
3.66100	228
3.66467	233
3.66833	244
3.67200	258
3.67567	271
3.67933	273
3.68300	260
3.68667	239
3.69033	221
3.69400	207
3.69767	198
3.70133	196
3.70500	198
3.70867	203
3.71233	211
3.71600	216
3.71967	221
3.72333	224
3.72700	221
3.73067	218
3.73433	219
3.73800	224
3.74167	227
3.74533	228
3.74900	229
3.75267	229
3.75633	224
3.76000	217
3.76367	213
3.76733	211
3.77100	208
3.77467	206
3.77833	205
3.78200	207
3.78567	209
3.78933	210
3.79300	214
3.79667	216
3.80033	216
3.80400	214
3.80767	214
3.81133	213
3.81500	215
3.81867	216
3.82233	215
3.82600	215
3.82967	216
3.83333	215
3.83700	211
3.84067	206
3.84433	207
3.84800	213
3.85167	220
3.85533	221
3.85900	217
3.86267	213
3.86633	212
3.87000	214
3.87367	216
3.87733	216
3.88100	214
3.88467	213
3.88833	216
3.89200	216
3.89567	214
3.89933	211
3.90300	205
3.90667	197
3.91033	188
3.91400	177
3.91767	166
3.92133	159
3.92500	155
3.92867	153
3.93233	154
3.93600	159
3.93967	163
3.94333	170
3.94700	179
3.95067	187
3.95433	197
3.95800	201
3.96167	198
3.96533	193
3.96900	187
3.97267	185
3.97633	181
3.98000	175
3.98367	170
3.98733	167
3.99100	163
3.99467	159
3.99833	165

[Chromatogram (Ch2)]
Interval(msec)	220
# of Points	1091
Start Time(min)	0.002
End Time(min)	3.998
R.Time (min)	Intensity
0.00167	1
0.00533	1
0.00900	1
0.01267	1
0.01633	2
0.02000	2
0.02367	2
0.02733	2
0.03100	2
0.03467	2
0.03833	2
0.04200	2
0.04567	2
0.04933	2
0.05300	2
0.05667	2
0.06033	3
0.06400	3
0.06767	3
0.07133	3
0.07500	3
0.07867	4
0.08233	4
0.08600	4
0.08967	4
0.09333	4
0.09700	4
0.10067	5
0.10433	5
0.10800	5
0.11167	5
0.11533	5
0.11900	4
0.12267	4
0.12633	4
0.13000	3
0.13367	3
0.13733	3
0.14100	3
0.14467	3
0.14833	3
0.15200	3
0.15567	3
0.15933	2
0.16300	2
0.16667	2
0.17033	2
0.17400	2
0.17767	2
0.18133	1
0.18500	1
0.18867	1
0.19233	0
0.19600	0
0.19967	-0
0.20333	-0
0.20700	0
0.21067	0
0.21433	0
0.21800	1
0.22167	1
0.22533	1
0.22900	1
0.23267	1
0.23633	1
0.24000	2
0.24367	2
0.24733	2
0.25100	2
0.25467	3
0.25833	3
0.26200	3
0.26567	3
0.26933	3
0.27300	3
0.27667	2
0.28033	2
0.28400	2
0.28767	2
0.29133	2
0.29500	2
0.29867	3
0.30233	3
0.30600	3
0.30967	2
0.31333	2
0.31700	2
0.32067	2
0.32433	2
0.32800	2
0.33167	2
0.33533	2
0.33900	2
0.34267	2
0.34633	2
0.35000	2
0.35367	3
0.35733	3
0.36100	3
0.36467	3
0.36833	3
0.37200	3
0.37567	3
0.37933	3
0.38300	4
0.38667	4
0.39033	4
0.39400	4
0.39767	4
0.40133	3
0.40500	3
0.40867	3
0.41233	3
0.41600	3
0.41967	3
0.42333	2
0.42700	2
0.43067	2
0.43433	2
0.43800	1
0.44167	1
0.44533	0
0.44900	0
0.45267	-0
0.45633	-1
0.46000	-1
0.46367	-1
0.46733	-1
0.47100	-1
0.47467	-1
0.47833	-1
0.48200	-1
0.48567	-1
0.48933	-1
0.49300	-1
0.49667	-1
0.50033	-1
0.50400	-1
0.50767	-1
0.51133	-0
0.51500	-0
0.51867	-0
0.52233	0
0.52600	0
0.52967	1
0.53333	1
0.53700	1
0.54067	1
0.54433	1
0.54800	1
0.55167	1
0.55533	1
0.55900	1
0.56267	1
0.56633	1
0.57000	1
0.57367	1
0.57733	1
0.58100	1
0.58467	1
0.58833	1
0.59200	1
0.59567	1
0.59933	1
0.60300	1
0.60667	1
0.61033	1
0.61400	1
0.61767	1
0.62133	1
0.62500	1
0.62867	1
0.63233	1
0.63600	1
0.63967	2
0.64333	2
0.64700	2
0.65067	3
0.65433	3
0.65800	3
0.66167	3
0.66533	4
0.66900	4
0.67267	3
0.67633	3
0.68000	3
0.68367	3
0.68733	3
0.69100	3
0.69467	3
0.69833	2
0.70200	2
0.70567	1
0.70933	1
0.71300	0
0.71667	0
0.72033	-0
0.72400	-0
0.72767	-1
0.73133	-1
0.73500	-1
0.73867	-1
0.74233	-1
0.74600	-0
0.74967	-0
0.75333	1
0.75700	1
0.76067	1
0.76433	1
0.76800	2
0.77167	2
0.77533	2
0.77900	2
0.78267	2
0.78633	1
0.79000	1
0.79367	1
0.79733	1
0.80100	0
0.80467	0
0.80833	-0
0.81200	-0
0.81567	-0
0.81933	-0
0.82300	-0
0.82667	-0
0.83033	-0
0.83400	-0
0.83767	-0
0.84133	-1
0.84500	-1
0.84867	-1
0.85233	-1
0.85600	-1
0.85967	-1
0.86333	-1
0.86700	-1
0.87067	-1
0.87433	-1
0.87800	-1
0.88167	-1
0.88533	-1
0.88900	-0
0.89267	-0
0.89633	0
0.90000	1
0.90367	1
0.90733	1
0.91100	2
0.91467	2
0.91833	2
0.92200	2
0.92567	2
0.92933	2
0.93300	2
0.93667	2
0.94033	1
0.94400	1
0.94767	1
0.95133	0
0.95500	0
0.95867	0
0.96233	-0
0.96600	0
0.96967	0
0.97333	0
0.97700	0
0.98067	0
0.98433	0
0.98800	1
0.99167	1
0.99533	1
0.99900	1
1.00267	2
1.00633	2
1.01000	1
1.01367	1
1.01733	1
1.02100	1
1.02467	0
1.02833	0
1.03200	-0
1.03567	-0
1.03933	-1
1.04300	-1
1.04667	-1
1.05033	-2
1.05400	-2
1.05767	-2
1.06133	-3
1.06500	-3
1.06867	-3
1.07233	-3
1.07600	-3
1.07967	-4
1.08333	-4
1.08700	-4
1.09067	-4
1.09433	-4
1.09800	-4
1.10167	-4
1.10533	-3
1.10900	-3
1.11267	-3
1.11633	-3
1.12000	-2
1.12367	-2
1.12733	-2
1.13100	-2
1.13467	-2
1.13833	-1
1.14200	-1
1.14567	-1
1.14933	-1
1.15300	-1
1.15667	-1
1.16033	-2
1.16400	-1
1.16767	-1
1.17133	-1
1.17500	-1
1.17867	-1
1.18233	-0
1.18600	-0
1.18967	-0
1.19333	0
1.19700	0
1.20067	1
1.20433	1
1.20800	1
1.21167	1
1.21533	1
1.21900	1
1.22267	2
1.22633	2
1.23000	2
1.23367	1
1.23733	1
1.24100	1
1.24467	0
1.24833	-0
1.25200	-0
1.25567	-1
1.25933	-1
1.26300	-1
1.26667	-1
1.27033	-1
1.27400	-2
1.27767	-2
1.28133	-2
1.28500	-2
1.28867	-3
1.29233	-3
1.29600	-3
1.29967	-3
1.30333	-3
1.30700	-2
1.31067	-2
1.31433	-2
1.31800	-2
1.32167	-2
1.32533	-2
1.32900	-2
1.33267	-2
1.33633	-2
1.34000	-3
1.34367	-3
1.34733	-3
1.35100	-3
1.35467	-3
1.35833	-3
1.36200	-3
1.36567	-3
1.36933	-3
1.37300	-3
1.37667	-3
1.38033	-3
1.38400	-2
1.38767	-2
1.39133	-2
1.39500	-1
1.39867	-1
1.40233	-1
1.40600	-1
1.40967	-1
1.41333	-1
1.41700	-0
1.42067	-0
1.42433	0
1.42800	-0
1.43167	-0
1.43533	-0
1.43900	-0
1.44267	-0
1.44633	-0
1.45000	0
1.45367	0
1.45733	0
1.46100	-0
1.46467	-1
1.46833	-1
1.47200	-2
1.47567	-2
1.47933	-3
1.48300	-3
1.48667	-4
1.49033	-4
1.49400	-4
1.49767	-4
1.50133	-3
1.50500	-3
1.50867	-3
1.51233	-2
1.51600	-2
1.51967	-2
1.52333	-1
1.52700	-1
1.53067	-0
1.53433	-0
1.53800	-0
1.54167	-0
1.54533	-0
1.54900	-0
1.55267	-0
1.55633	-0
1.56000	-0
1.56367	-0
1.56733	-0
1.57100	-1
1.57467	-1
1.57833	-2
1.58200	-3
1.58567	-3
1.58933	-4
1.59300	-4
1.59667	-5
1.60033	-5
1.60400	-6
1.60767	-8
1.61133	-9
1.61500	-11
1.61867	-14
1.62233	-16
1.62600	-19
1.62967	-21
1.63333	-24
1.63700	-28
1.64067	-32
1.64433	-35
1.64800	-39
1.65167	-43
1.65533	-46
1.65900	-50
1.66267	-54
1.66633	-58
1.67000	-62
1.67367	-67
1.67733	-72
1.68100	-77
1.68467	-82
1.68833	-87
1.69200	-91
1.69567	-95
1.69933	-98
1.70300	-100
1.70667	-102
1.71033	-103
1.71400	-105
1.71767	-106
1.72133	-107
1.72500	-108
1.72867	-109
1.73233	-110
1.73600	-110
1.73967	-110
1.74333	-110
1.74700	-110
1.75067	-110
1.75433	-109
1.75800	-109
1.76167	-109
1.76533	-110
1.76900	-110
1.77267	-111
1.77633	-112
1.78000	-114
1.78367	-115
1.78733	-115
1.79100	-116
1.79467	-116
1.79833	-116
1.80200	-116
1.80567	-116
1.80933	-116
1.81300	-116
1.81667	-116
1.82033	-117
1.82400	-117
1.82767	-117
1.83133	-117
1.83500	-117
1.83867	-116
1.84233	-116
1.84600	-116
1.84967	-116
1.85333	-117
1.85700	-117
1.86067	-117
1.86433	-118
1.86800	-118
1.87167	-118
1.87533	-118
1.87900	-118
1.88267	-118
1.88633	-118
1.89000	-118
1.89367	-118
1.89733	-117
1.90100	-117
1.90467	-116
1.90833	-116
1.91200	-116
1.91567	-116
1.91933	-115
1.92300	-115
1.92667	-115
1.93033	-114
1.93400	-114
1.93767	-113
1.94133	-113
1.94500	-113
1.94867	-113
1.95233	-113
1.95600	-113
1.95967	-113
1.96333	-112
1.96700	-111
1.97067	-111
1.97433	-110
1.97800	-109
1.98167	-108
1.98533	-108
1.98900	-108
1.99267	-108
1.99633	-108
2.00000	-109
2.00367	-109
2.00733	-109
2.01100	-109
2.01467	-109
2.01833	-108
2.02200	-107
2.02567	-106
2.02933	-106
2.03300	-106
2.03667	-106
2.04033	-105
2.04400	-105
2.04767	-106
2.05133	-106
2.05500	-106
2.05867	-106
2.06233	-106
2.06600	-106
2.06967	-105
2.07333	-105
2.07700	-104
2.08067	-104
2.08433	-103
2.08800	-102
2.09167	-101
2.09533	-100
2.09900	-100
2.10267	-100
2.10633	-101
2.11000	-101
2.11367	-102
2.11733	-102
2.12100	-101
2.12467	-101
2.12833	-100
2.13200	-99
2.13567	-98
2.13933	-98
2.14300	-97
2.14667	-97
2.15033	-96
2.15400	-96
2.15767	-96
2.16133	-96
2.16500	-96
2.16867	-96
2.17233	-95
2.17600	-95
2.17967	-94
2.18333	-94
2.18700	-93
2.19067	-93
2.19433	-92
2.19800	-91
2.20167	-91
2.20533	-91
2.20900	-91
2.21267	-92
2.21633	-92
2.22000	-93
2.22367	-93
2.22733	-93
2.23100	-93
2.23467	-92
2.23833	-92
2.24200	-91
2.24567	-90
2.24933	-89
2.25300	-89
2.25667	-89
2.26033	-89
2.26400	-90
2.26767	-90
2.27133	-90
2.27500	-90
2.27867	-89
2.28233	-88
2.28600	-87
2.28967	-86
2.29333	-85
2.29700	-84
2.30067	-84
2.30433	-84
2.30800	-84
2.31167	-85
2.31533	-85
2.31900	-86
2.32267	-86
2.32633	-86
2.33000	-86
2.33367	-85
2.33733	-84
2.34100	-83
2.34467	-82
2.34833	-80
2.35200	-79
2.35567	-77
2.35933	-75
2.36300	-73
2.36667	-71
2.37033	-68
2.37400	-65
2.37767	-62
2.38133	-58
2.38500	-54
2.38867	-50
2.39233	-45
2.39600	-41
2.39967	-37
2.40333	-34
2.40700	-30
2.41067	-27
2.41433	-24
2.41800	-22
2.42167	-21
2.42533	-19
2.42900	-18
2.43267	-17
2.43633	-15
2.44000	-14
2.44367	-12
2.44733	-10
2.45100	-9
2.45467	-7
2.45833	-6
2.46200	-5
2.46567	-4
2.46933	-3
2.47300	-2
2.47667	-1
2.48033	0
2.48400	2
2.48767	3
2.49133	5
2.49500	6
2.49867	7
2.50233	7
2.50600	8
2.50967	8
2.51333	8
2.51700	8
2.52067	9
2.52433	9
2.52800	10
2.53167	11
2.53533	12
2.53900	12
2.54267	13
2.54633	14
2.55000	14
2.55367	15
2.55733	15
2.56100	15
2.56467	16
2.56833	16
2.57200	16
2.57567	15
2.57933	15
2.58300	15
2.58667	14
2.59033	14
2.59400	14
2.59767	14
2.60133	15
2.60500	15
2.60867	16
2.61233	16
2.61600	17
2.61967	16
2.62333	16
2.62700	15
2.63067	14
2.63433	14
2.63800	14
2.64167	14
2.64533	14
2.64900	15
2.65267	15
2.65633	16
2.66000	17
2.66367	18
2.66733	19
2.67100	19
2.67467	20
2.67833	20
2.68200	21
2.68567	21
2.68933	22
2.69300	22
2.69667	23
2.70033	23
2.70400	24
2.70767	24
2.71133	25
2.71500	26
2.71867	26
2.72233	27
2.72600	27
2.72967	27
2.73333	26
2.73700	26
2.74067	26
2.74433	25
2.74800	25
2.75167	25
2.75533	25
2.75900	25
2.76267	25
2.76633	25
2.77000	25
2.77367	25
2.77733	26
2.78100	26
2.78467	26
2.78833	27
2.79200	27
2.79567	27
2.79933	27
2.80300	27
2.80667	27
2.81033	27
2.81400	27
2.81767	26
2.82133	26
2.82500	26
2.82867	26
2.83233	26
2.83600	25
2.83967	24
2.84333	21
2.84700	16
2.85067	9
2.85433	-1
2.85800	-15
2.86167	-32
2.86533	-54
2.86900	-81
2.87267	-111
2.87633	-146
2.88000	-184
2.88367	-226
2.88733	-271
2.89100	-319
2.89467	-369
2.89833	-421
2.90200	-474
2.90567	-528
2.90933	-582
2.91300	-637
2.91667	-691
2.92033	-744
2.92400	-796
2.92767	-847
2.93133	-900
2.93500	-957
2.93867	-1016
2.94233	-1068
2.94600	-1102
2.94967	-1111
2.95333	-1094
2.95700	-1054
2.96067	-995
2.96433	-924
2.96800	-845
2.97167	-764
2.97533	-683
2.97900	-606
2.98267	-533
2.98633	-466
2.99000	-405
2.99367	-350
2.99733	-302
3.00100	-259
3.00467	-221
3.00833	-188
3.01200	-160
3.01567	-135
3.01933	-114
3.02300	-95
3.02667	-79
3.03033	-66
3.03400	-54
3.03767	-44
3.04133	-35
3.04500	-28
3.04867	-22
3.05233	-17
3.05600	-12
3.05967	-8
3.06333	-5
3.06700	-2
3.07067	0
3.07433	3
3.07800	4
3.08167	6
3.08533	7
3.08900	8
3.09267	9
3.09633	10
3.10000	11
3.10367	12
3.10733	13
3.11100	13
3.11467	14
3.11833	15
3.12200	15
3.12567	16
3.12933	16
3.13300	17
3.13667	17
3.14033	18
3.14400	18
3.14767	18
3.15133	19
3.15500	19
3.15867	19
3.16233	19
3.16600	19
3.16967	19
3.17333	19
3.17700	19
3.18067	19
3.18433	19
3.18800	19
3.19167	19
3.19533	19
3.19900	19
3.20267	19
3.20633	19
3.21000	20
3.21367	20
3.21733	20
3.22100	20
3.22467	20
3.22833	20
3.23200	20
3.23567	20
3.23933	21
3.24300	21
3.24667	21
3.25033	22
3.25400	22
3.25767	23
3.26133	23
3.26500	23
3.26867	23
3.27233	23
3.27600	24
3.27967	24
3.28333	25
3.28700	25
3.29067	26
3.29433	26
3.29800	26
3.30167	27
3.30533	27
3.30900	27
3.31267	27
3.31633	28
3.32000	28
3.32367	28
3.32733	28
3.33100	28
3.33467	29
3.33833	29
3.34200	29
3.34567	29
3.34933	29
3.35300	29
3.35667	29
3.36033	29
3.36400	29
3.36767	29
3.37133	29
3.37500	29
3.37867	29
3.38233	29
3.38600	29
3.38967	29
3.39333	29
3.39700	29
3.40067	29
3.40433	29
3.40800	29
3.41167	29
3.41533	28
3.41900	28
3.42267	28
3.42633	27
3.43000	27
3.43367	27
3.43733	27
3.44100	27
3.44467	27
3.44833	27
3.45200	27
3.45567	27
3.45933	27
3.46300	26
3.46667	26
3.47033	26
3.47400	26
3.47767	26
3.48133	26
3.48500	26
3.48867	26
3.49233	26
3.49600	27
3.49967	27
3.50333	27
3.50700	27
3.51067	28
3.51433	28
3.51800	28
3.52167	28
3.52533	28
3.52900	28
3.53267	28
3.53633	28
3.54000	28
3.54367	28
3.54733	28
3.55100	28
3.55467	27
3.55833	27
3.56200	27
3.56567	27
3.56933	26
3.57300	26
3.57667	26
3.58033	26
3.58400	26
3.58767	26
3.59133	27
3.59500	27
3.59867	27
3.60233	28
3.60600	28
3.60967	28
3.61333	28
3.61700	28
3.62067	28
3.62433	28
3.62800	28
3.63167	27
3.63533	27
3.63900	27
3.64267	27
3.64633	27
3.65000	27
3.65367	27
3.65733	27
3.66100	27
3.66467	26
3.66833	26
3.67200	26
3.67567	26
3.67933	26
3.68300	26
3.68667	26
3.69033	26
3.69400	26
3.69767	26
3.70133	26
3.70500	26
3.70867	27
3.71233	27
3.71600	27
3.71967	27
3.72333	27
3.72700	27
3.73067	27
3.73433	27
3.73800	27
3.74167	27
3.74533	27
3.74900	27
3.75267	27
3.75633	27
3.76000	28
3.76367	28
3.76733	28
3.77100	28
3.77467	28
3.77833	28
3.78200	28
3.78567	28
3.78933	28
3.79300	29
3.79667	29
3.80033	29
3.80400	29
3.80767	29
3.81133	29
3.81500	29
3.81867	29
3.82233	29
3.82600	29
3.82967	29
3.83333	29
3.83700	29
3.84067	29
3.84433	28
3.84800	28
3.85167	28
3.85533	28
3.85900	28
3.86267	28
3.86633	28
3.87000	28
3.87367	28
3.87733	28
3.88100	28
3.88467	28
3.88833	28
3.89200	28
3.89567	28
3.89933	28
3.90300	28
3.90667	28
3.91033	28
3.91400	28
3.91767	29
3.92133	29
3.92500	29
3.92867	29
3.93233	29
3.93600	29
3.93967	29
3.94333	29
3.94700	29
3.95067	29
3.95433	28
3.95800	28
3.96167	28
3.96533	28
3.96900	27
3.97267	27
3.97633	27
3.98000	27
3.98367	27
3.98733	27
3.99100	27
3.99467	27
3.99833	27

[Chromatogram (Ch3)]
Interval(msec)	220
# of Points	1091
Start Time(min)	0.002
End Time(min)	3.998
R.Time (min)	Intensity
0.00167	-0
0.00533	-2
0.00900	-4
0.01267	-5
0.01633	-6
0.02000	-6
0.02367	-6
0.02733	-5
0.03100	-5
0.03467	-6
0.03833	-8
0.04200	-9
0.04567	-10
0.04933	-9
0.05300	-7
0.05667	-3
0.06033	-3
0.06400	-3
0.06767	-2
0.07133	-3
0.07500	-6
0.07867	-5
0.08233	-6
0.08600	-6
0.08967	-5
0.09333	-7
0.09700	-5
0.10067	-3
0.10433	-2
0.10800	-3
0.11167	-7
0.11533	-8
0.11900	-9
0.12267	-11
0.12633	-10
0.13000	-7
0.13367	-7
0.13733	-9
0.14100	-11
0.14467	-11
0.14833	-9
0.15200	-7
0.15567	-7
0.15933	-9
0.16300	-10
0.16667	-10
0.17033	-8
0.17400	-5
0.17767	-6
0.18133	-6
0.18500	-6
0.18867	-7
0.19233	-8
0.19600	-10
0.19967	-14
0.20333	-16
0.20700	-16
0.21067	-17
0.21433	-19
0.21800	-21
0.22167	-21
0.22533	-19
0.22900	-18
0.23267	-17
0.23633	-17
0.24000	-16
0.24367	-16
0.24733	-15
0.25100	-15
0.25467	-14
0.25833	-14
0.26200	-13
0.26567	-13
0.26933	-15
0.27300	-15
0.27667	-15
0.28033	-12
0.28400	-10
0.28767	-10
0.29133	-11
0.29500	-11
0.29867	-12
0.30233	-12
0.30600	-10
0.30967	-7
0.31333	-5
0.31700	-4
0.32067	-3
0.32433	-1
0.32800	-1
0.33167	-2
0.33533	-4
0.33900	-8
0.34267	-11
0.34633	-10
0.35000	-12
0.35367	-12
0.35733	-12
0.36100	-12
0.36467	-12
0.36833	-13
0.37200	-15
0.37567	-15
0.37933	-13
0.38300	-13
0.38667	-13
0.39033	-13
0.39400	-15
0.39767	-16
0.40133	-16
0.40500	-17
0.40867	-17
0.41233	-17
0.41600	-16
0.41967	-16
0.42333	-17
0.42700	-17
0.43067	-16
0.43433	-14
0.43800	-14
0.44167	-14
0.44533	-14
0.44900	-15
0.45267	-14
0.45633	-14
0.46000	-15
0.46367	-15
0.46733	-14
0.47100	-12
0.47467	-10
0.47833	-8
0.48200	-8
0.48567	-8
0.48933	-8
0.49300	-11
0.49667	-14
0.50033	-14
0.50400	-13
0.50767	-15
0.51133	-16
0.51500	-13
0.51867	-10
0.52233	-8
0.52600	-8
0.52967	-8
0.53333	-6
0.53700	-4
0.54067	-5
0.54433	-4
0.54800	-4
0.55167	-4
0.55533	-6
0.55900	-7
0.56267	-8
0.56633	-9
0.57000	-9
0.57367	-9
0.57733	-9
0.58100	-9
0.58467	-8
0.58833	-6
0.59200	-4
0.59567	-2
0.59933	-3
0.60300	-5
0.60667	-8
0.61033	-11
0.61400	-13
0.61767	-15
0.62133	-14
0.62500	-14
0.62867	-14
0.63233	-15
0.63600	-16
0.63967	-16
0.64333	-15
0.64700	-14
0.65067	-13
0.65433	-14
0.65800	-13
0.66167	-13
0.66533	-15
0.66900	-15
0.67267	-15
0.67633	-16
0.68000	-18
0.68367	-18
0.68733	-16
0.69100	-15
0.69467	-15
0.69833	-15
0.70200	-15
0.70567	-15
0.70933	-16
0.71300	-14
0.71667	-12
0.72033	-12
0.72400	-13
0.72767	-13
0.73133	-14
0.73500	-16
0.73867	-17
0.74233	-16
0.74600	-16
0.74967	-15
0.75333	-14
0.75700	-15
0.76067	-14
0.76433	-13
0.76800	-15
0.77167	-15
0.77533	-15
0.77900	-15
0.78267	-14
0.78633	-15
0.79000	-16
0.79367	-16
0.79733	-18
0.80100	-18
0.80467	-19
0.80833	-18
0.81200	-14
0.81567	-13
0.81933	-16
0.82300	-20
0.82667	-20
0.83033	-18
0.83400	-17
0.83767	-17
0.84133	-19
0.84500	-20
0.84867	-19
0.85233	-19
0.85600	-19
0.85967	-20
0.86333	-22
0.86700	-22
0.87067	-23
0.87433	-23
0.87800	-22
0.88167	-20
0.88533	-17
0.88900	-14
0.89267	-14
0.89633	-17
0.90000	-20
0.90367	-20
0.90733	-21
0.91100	-19
0.91467	-18
0.91833	-18
0.92200	-20
0.92567	-22
0.92933	-22
0.93300	-24
0.93667	-24
0.94033	-23
0.94400	-23
0.94767	-21
0.95133	-18
0.95500	-18
0.95867	-20
0.96233	-21
0.96600	-21
0.96967	-19
0.97333	-18
0.97700	-20
0.98067	-18
0.98433	-14
0.98800	-13
0.99167	-14
0.99533	-16
0.99900	-15
1.00267	-16
1.00633	-15
1.01000	-16
1.01367	-17
1.01733	-19
1.02100	-19
1.02467	-20
1.02833	-19
1.03200	-20
1.03567	-21
1.03933	-20
1.04300	-19
1.04667	-19
1.05033	-19
1.05400	-19
1.05767	-19
1.06133	-18
1.06500	-19
1.06867	-20
1.07233	-20
1.07600	-20
1.07967	-21
1.08333	-16
1.08700	-14
1.09067	-15
1.09433	-16
1.09800	-17
1.10167	-16
1.10533	-15
1.10900	-14
1.11267	-13
1.11633	-12
1.12000	-13
1.12367	-14
1.12733	-14
1.13100	-14
1.13467	-12
1.13833	-10
1.14200	-10
1.14567	-11
1.14933	-14
1.15300	-16
1.15667	-15
1.16033	-13
1.16400	-12
1.16767	-11
1.17133	-11
1.17500	-12
1.17867	-12
1.18233	-10
1.18600	-11
1.18967	-11
1.19333	-11
1.19700	-11
1.20067	-10
1.20433	-8
1.20800	-8
1.21167	-6
1.21533	-5
1.21900	-6
1.22267	-6
1.22633	-8
1.23000	-9
1.23367	-9
1.23733	-9
1.24100	-10
1.24467	-12
1.24833	-16
1.25200	-17
1.25567	-15
1.25933	-16
1.26300	-16
1.26667	-15
1.27033	-13
1.27400	-10
1.27767	-9
1.28133	-9
1.28500	-12
1.28867	-12
1.29233	-13
1.29600	-14
1.29967	-12
1.30333	-11
1.30700	-12
1.31067	-13
1.31433	-13
1.31800	-14
1.32167	-13
1.32533	-10
1.32900	-9
1.33267	-8
1.33633	-7
1.34000	-6
1.34367	-6
1.34733	-8
1.35100	-9
1.35467	-9
1.35833	-9
1.36200	-8
1.36567	-7
1.36933	-9
1.37300	-10
1.37667	-11
1.38033	-14
1.38400	-18
1.38767	-19
1.39133	-17
1.39500	-15
1.39867	-16
1.40233	-15
1.40600	-14
1.40967	-10
1.41333	-7
1.41700	-5
1.42067	-5
1.42433	-5
1.42800	-5
1.43167	-6
1.43533	-8
1.43900	-9
1.44267	-7
1.44633	-5
1.45000	-7
1.45367	-9
1.45733	-9
1.46100	-8
1.46467	-7
1.46833	-4
1.47200	-3
1.47567	-2
1.47933	-2
1.48300	-4
1.48667	-7
1.49033	-9
1.49400	-9
1.49767	-8
1.50133	-7
1.50500	-6
1.50867	-6
1.51233	-5
1.51600	-6
1.51967	-7
1.52333	-10
1.52700	-11
1.53067	-10
1.53433	-7
1.53800	-6
1.54167	-6
1.54533	-5
1.54900	-6
1.55267	-9
1.55633	-6
1.56000	-5
1.56367	-3
1.56733	-2
1.57100	-2
1.57467	-1
1.57833	0
1.58200	1
1.58567	1
1.58933	2
1.59300	1
1.59667	1
1.60033	2
1.60400	2
1.60767	1
1.61133	0
1.61500	1
1.61867	3
1.62233	4
1.62600	5
1.62967	5
1.63333	2
1.63700	-0
1.64067	0
1.64433	1
1.64800	2
1.65167	4
1.65533	4
1.65900	3
1.66267	3
1.66633	4
1.67000	6
1.67367	7
1.67733	10
1.68100	11
1.68467	11
1.68833	14
1.69200	15
1.69567	16
1.69933	16
1.70300	16
1.70667	15
1.71033	13
1.71400	13
1.71767	13
1.72133	11
1.72500	12
1.72867	12
1.73233	14
1.73600	18
1.73967	18
1.74333	16
1.74700	15
1.75067	16
1.75433	16
1.75800	17
1.76167	18
1.76533	16
1.76900	15
1.77267	15
1.77633	15
1.78000	16
1.78367	17
1.78733	17
1.79100	21
1.79467	23
1.79833	24
1.80200	25
1.80567	24
1.80933	22
1.81300	23
1.81667	25
1.82033	26
1.82400	27
1.82767	30
1.83133	30
1.83500	30
1.83867	28
1.84233	26
1.84600	26
1.84967	28
1.85333	29
1.85700	30
1.86067	33
1.86433	34
1.86800	34
1.87167	34
1.87533	33
1.87900	30
1.88267	28
1.88633	29
1.89000	32
1.89367	36
1.89733	37
1.90100	39
1.90467	42
1.90833	43
1.91200	41
1.91567	38
1.91933	37
1.92300	37
1.92667	38
1.93033	39
1.93400	41
1.93767	42
1.94133	43
1.94500	42
1.94867	41
1.95233	42
1.95600	45
1.95967	47
1.96333	47
1.96700	48
1.97067	48
1.97433	47
1.97800	47
1.98167	49
1.98533	50
1.98900	51
1.99267	54
1.99633	55
2.00000	56
2.00367	58
2.00733	57
2.01100	55
2.01467	55
2.01833	55
2.02200	56
2.02567	59
2.02933	60
2.03300	62
2.03667	64
2.04033	65
2.04400	64
2.04767	63
2.05133	63
2.05500	65
2.05867	66
2.06233	67
2.06600	67
2.06967	68
2.07333	69
2.07700	72
2.08067	74
2.08433	75
2.08800	75
2.09167	75
2.09533	76
2.09900	79
2.10267	80
2.10633	81
2.11000	81
2.11367	83
2.11733	88
2.12100	91
2.12467	91
2.12833	90
2.13200	91
2.13567	90
2.13933	88
2.14300	89
2.14667	91
2.15033	94
2.15400	95
2.15767	93
2.16133	96
2.16500	99
2.16867	100
2.17233	100
2.17600	101
2.17967	103
2.18333	103
2.18700	103
2.19067	105
2.19433	107
2.19800	109
2.20167	111
2.20533	111
2.20900	112
2.21267	114
2.21633	116
2.22000	119
2.22367	120
2.22733	122
2.23100	122
2.23467	121
2.23833	123
2.24200	124
2.24567	124
2.24933	127
2.25300	130
2.25667	132
2.26033	133
2.26400	133
2.26767	134
2.27133	135
2.27500	136
2.27867	136
2.28233	137
2.28600	138
2.28967	139
2.29333	141
2.29700	142
2.30067	142
2.30433	145
2.30800	151
2.31167	153
2.31533	152
2.31900	151
2.32267	153
2.32633	154
2.33000	155
2.33367	158
2.33733	160
2.34100	163
2.34467	168
2.34833	169
2.35200	169
2.35567	170
2.35933	172
2.36300	174
2.36667	177
2.37033	178
2.37400	180
2.37767	182
2.38133	184
2.38500	184
2.38867	182
2.39233	181
2.39600	185
2.39967	191
2.40333	193
2.40700	196
2.41067	200
2.41433	202
2.41800	205
2.42167	209
2.42533	209
2.42900	211
2.43267	214
2.43633	216
2.44000	218
2.44367	254
2.44733	354
2.45100	463
2.45467	552
2.45833	607
2.46200	615
2.46567	592
2.46933	560
2.47300	537
2.47667	522
2.48033	512
2.48400	503
2.48767	483
2.49133	454
2.49500	424
2.49867	395
2.50233	371
2.50600	354
2.50967	343
2.51333	337
2.51700	337
2.52067	342
2.52433	352
2.52800	361
2.53167	373
2.53533	384
2.53900	389
2.54267	389
2.54633	386
2.55000	376
2.55367	360
2.55733	340
2.56100	322
2.56467	306
2.56833	292
2.57200	285
2.57567	279
2.57933	275
2.58300	273
2.58667	272
2.59033	267
2.59400	261
2.59767	254
2.60133	245
2.60500	234
2.60867	219
2.61233	202
2.61600	183
2.61967	165
2.62333	151
2.62700	139
2.63067	130
2.63433	124
2.63800	123
2.64167	126
2.64533	134
2.64900	144
2.65267	157
2.65633	169
2.66000	178
2.66367	187
2.66733	193
2.67100	199
2.67467	204
2.67833	206
2.68200	205
2.68567	203
2.68933	203
2.69300	202
2.69667	199
2.70033	195
2.70400	191
2.70767	188
2.71133	185
2.71500	182
2.71867	178
2.72233	174
2.72600	170
2.72967	166
2.73333	165
2.73700	165
2.74067	165
2.74433	164
2.74800	163
2.75167	164
2.75533	166
2.75900	168
2.76267	169
2.76633	168
2.77000	168
2.77367	167
2.77733	166
2.78100	164
2.78467	162
2.78833	162
2.79200	164
2.79567	165
2.79933	166
2.80300	168
2.80667	172
2.81033	174
2.81400	177
2.81767	185
2.82133	203
2.82500	245
2.82867	329
2.83233	480
2.83600	718
2.83967	1057
2.84333	1504
2.84700	2043
2.85067	2643
2.85433	3262
2.85800	3854
2.86167	4368
2.86533	4765
2.86900	5019
2.87267	5121
2.87633	5084
2.88000	4929
2.88367	4681
2.88733	4369
2.89100	4017
2.89467	3651
2.89833	3289
2.90200	2945
2.90567	2624
2.90933	2332
2.91300	2066
2.91667	1824
2.92033	1609
2.92400	1421
2.92767	1257
2.93133	1116
2.93500	994
2.93867	888
2.94233	796
2.94600	714
2.94967	643
2.95333	582
2.95700	528
2.96067	482
2.96433	446
2.96800	412
2.97167	381
2.97533	353
2.97900	332
2.98267	313
2.98633	295
2.99000	280
2.99367	267
2.99733	257
3.00100	248
3.00467	239
3.00833	230
3.01200	222
3.01567	214
3.01933	206
3.02300	200
3.02667	194
3.03033	190
3.03400	187
3.03767	183
3.04133	176
3.04500	170
3.04867	166
3.05233	162
3.05600	159
3.05967	157
3.06333	155
3.06700	153
3.07067	149
3.07433	145
3.07800	142
3.08167	140
3.08533	137
3.08900	136
3.09267	135
3.09633	137
3.10000	138
3.10367	137
3.10733	136
3.11100	133
3.11467	130
3.11833	128
3.12200	129
3.12567	129
3.12933	127
3.13300	127
3.13667	126
3.14033	124
3.14400	124
3.14767	126
3.15133	126
3.15500	127
3.15867	127
3.16233	128
3.16600	128
3.16967	127
3.17333	125
3.17700	122
3.18067	121
3.18433	122
3.18800	122
3.19167	122
3.19533	124
3.19900	127
3.20267	127
3.20633	125
3.21000	125
3.21367	126
3.21733	127
3.22100	131
3.22467	134
3.22833	137
3.23200	137
3.23567	138
3.23933	135
3.24300	133
3.24667	133
3.25033	133
3.25400	134
3.25767	135
3.26133	136
3.26500	137
3.26867	136
3.27233	135
3.27600	135
3.27967	138
3.28333	140
3.28700	138
3.29067	136
3.29433	136
3.29800	134
3.30167	132
3.30533	131
3.30900	129
3.31267	129
3.31633	128
3.32000	129
3.32367	130
3.32733	129
3.33100	130
3.33467	130
3.33833	128
3.34200	126
3.34567	124
3.34933	124
3.35300	125
3.35667	126
3.36033	126
3.36400	126
3.36767	128
3.37133	132
3.37500	134
3.37867	133
3.38233	131
3.38600	129
3.38967	129
3.39333	129
3.39700	128
3.40067	127
3.40433	128
3.40800	127
3.41167	126
3.41533	125
3.41900	124
3.42267	123
3.42633	121
3.43000	122
3.43367	126
3.43733	129
3.44100	130
3.44467	130
3.44833	131
3.45200	132
3.45567	133
3.45933	134
3.46300	133
3.46667	130
3.47033	129
3.47400	129
3.47767	130
3.48133	131
3.48500	132
3.48867	132
3.49233	133
3.49600	133
3.49967	132
3.50333	134
3.50700	135
3.51067	137
3.51433	136
3.51800	136
3.52167	136
3.52533	137
3.52900	138
3.53267	135
3.53633	135
3.54000	136
3.54367	134
3.54733	134
3.55100	136
3.55467	136
3.55833	137
3.56200	139
3.56567	140
3.56933	139
3.57300	139
3.57667	139
3.58033	139
3.58400	139
3.58767	141
3.59133	144
3.59500	145
3.59867	143
3.60233	143
3.60600	143
3.60967	140
3.61333	136
3.61700	128
3.62067	112
3.62433	93
3.62800	75
3.63167	62
3.63533	57
3.63900	58
3.64267	64
3.64633	71
3.65000	82
3.65367	96
3.65733	111
3.66100	126
3.66467	142
3.66833	157
3.67200	172
3.67567	188
3.67933	204
3.68300	219
3.68667	233
3.69033	247
3.69400	261
3.69767	275
3.70133	289
3.70500	300
3.70867	310
3.71233	318
3.71600	324
3.71967	328
3.72333	333
3.72700	339
3.73067	345
3.73433	349
3.73800	351
3.74167	353
3.74533	356
3.74900	358
3.75267	362
3.75633	366
3.76000	368
3.76367	370
3.76733	371
3.77100	373
3.77467	373
3.77833	372
3.78200	371
3.78567	372
3.78933	372
3.79300	371
3.79667	374
3.80033	375
3.80400	374
3.80767	373
3.81133	373
3.81500	372
3.81867	371
3.82233	371
3.82600	371
3.82967	370
3.83333	372
3.83700	372
3.84067	372
3.84433	372
3.84800	373
3.85167	373
3.85533	374
3.85900	373
3.86267	370
3.86633	369
3.87000	371
3.87367	373
3.87733	371
3.88100	369
3.88467	369
3.88833	369
3.89200	370
3.89567	369
3.89933	366
3.90300	363
3.90667	362
3.91033	362
3.91400	362
3.91767	359
3.92133	357
3.92500	357
3.92867	357
3.93233	358
3.93600	359
3.93967	360
3.94333	361
3.94700	362
3.95067	361
3.95433	361
3.95800	361
3.96167	359
3.96533	358
3.96900	356
3.97267	354
3.97633	354
3.98000	353
3.98367	354
3.98733	353
3.99100	351
3.99467	351
3.99833	351

[Status Trace (Column Oven Temperature)]
Interval(msec)	1000
# of Points	240
Start Time(min)	0.004
End Time(min)	3.987
Intensity Units	
Intensity Multiplier	1
R.Time (min)	Intensity
0.00400	35.08
0.02067	35.07
0.03733	35.07
0.05400	35.06
0.07067	35.05
0.08733	35.04
0.10400	35.04
0.12067	35.04
0.13733	35.03
0.15400	35.03
0.17067	35.02
0.18733	35.03
0.20400	35.04
0.22067	35.04
0.23733	35.04
0.25400	35.03
0.27067	35.03
0.28733	35.02
0.30400	35.02
0.32067	35.02
0.33733	35.01
0.35400	35.01
0.37067	35.00
0.38733	34.99
0.40400	34.99
0.42067	35.00
0.43733	35.00
0.45400	35.01
0.47067	35.03
0.48733	35.03
0.50400	35.02
0.52067	35.01
0.53733	35.02
0.55400	35.01
0.57067	35.02
0.58733	35.02
0.60400	35.01
0.62067	35.01
0.63733	35.00
0.65400	34.99
0.67067	34.98
0.68733	34.98
0.70400	34.98
0.72067	35.00
0.73733	35.00
0.75400	35.00
0.77067	34.99
0.78733	34.98
0.80400	34.98
0.82067	34.97
0.83733	34.99
0.85400	35.01
0.87067	35.00
0.88733	34.99
0.90400	34.98
0.92067	34.98
0.93733	34.98
0.95400	34.98
0.97067	34.98
0.98733	34.98
1.00400	34.98
1.02067	34.97
1.03733	34.98
1.05400	34.99
1.07067	35.01
1.08733	35.02
1.10400	35.03
1.12067	35.03
1.13733	35.04
1.15400	35.04
1.17067	35.03
1.18733	35.02
1.20400	35.00
1.22067	34.99
1.23733	34.99
1.25400	34.99
1.27067	35.00
1.28733	35.00
1.30400	35.00
1.32067	35.00
1.33733	35.00
1.35400	35.01
1.37067	35.01
1.38733	35.01
1.40400	35.00
1.42067	35.00
1.43733	34.99
1.45400	34.99
1.47067	35.00
1.48733	35.01
1.50400	34.99
1.52067	34.99
1.53733	34.98
1.55400	34.97
1.57067	34.97
1.58733	34.99
1.60400	35.04
1.62067	35.16
1.63733	35.33
1.65400	35.57
1.67067	35.88
1.68733	36.25
1.70400	36.59
1.72067	36.94
1.73733	37.28
1.75400	37.59
1.77067	37.94
1.78733	38.26
1.80400	38.59
1.82067	38.93
1.83733	39.25
1.85400	39.58
1.87067	39.92
1.88733	40.25
1.90400	40.56
1.92067	40.90
1.93733	41.22
1.95400	41.56
1.97067	41.85
1.98733	42.18
2.00400	42.52
2.02067	42.83
2.03733	43.15
2.05400	43.49
2.07067	43.82
2.08733	44.12
2.10400	44.47
2.12067	44.79
2.13733	45.10
2.15400	45.43
2.17067	45.74
2.18733	46.09
2.20400	46.41
2.22067	46.76
2.23733	47.08
2.25400	47.42
2.27067	47.76
2.28733	48.08
2.30400	48.42
2.32067	48.78
2.33733	49.11
2.35400	49.39
2.37067	49.56
2.38733	49.61
2.40400	49.61
2.42067	49.64
2.43733	49.63
2.45400	49.64
2.47067	49.66
2.48733	49.67
2.50400	49.69
2.52067	49.72
2.53733	49.72
2.55400	49.74
2.57067	49.77
2.58733	49.80
2.60400	49.80
2.62067	49.83
2.63733	49.86
2.65400	49.85
2.67067	49.86
2.68733	49.85
2.70400	49.84
2.72067	49.84
2.73733	49.86
2.75400	49.88
2.77067	49.87
2.78733	49.86
2.80400	49.86
2.82067	49.88
2.83733	49.88
2.85400	49.90
2.87067	49.90
2.88733	49.92
2.90400	49.93
2.92067	49.93
2.93733	49.94
2.95400	49.95
2.97067	49.95
2.98733	49.96
3.00400	49.98
3.02067	49.99
3.03733	49.99
3.05400	50.00
3.07067	50.01
3.08733	50.02
3.10400	50.03
3.12067	50.03
3.13733	50.04
3.15400	50.05
3.17067	50.06
3.18733	50.08
3.20400	50.09
3.22067	50.10
3.23733	50.10
3.25400	50.10
3.27067	50.10
3.28733	50.09
3.30400	50.07
3.32067	50.06
3.33733	50.04
3.35400	50.03
3.37067	50.02
3.38733	50.02
3.40400	50.01
3.42067	50.02
3.43733	50.03
3.45400	50.04
3.47067	50.05
3.48733	50.05
3.50400	50.05
3.52067	50.05
3.53733	50.05
3.55400	50.06
3.57067	50.06
3.58733	50.06
3.60400	50.06
3.62067	50.06
3.63733	50.07
3.65400	50.08
3.67067	50.08
3.68733	50.09
3.70400	50.10
3.72067	50.10
3.73733	50.10
3.75400	50.09
3.77067	50.10
3.78733	50.09
3.80400	50.08
3.82067	50.08
3.83733	50.07
3.85400	50.07
3.87067	50.07
3.88733	50.07
3.90400	50.06
3.92067	50.05
3.93733	50.05
3.95400	50.05
3.97067	50.05
3.98733	50.05

[Status Trace (Injection Unit Temperature)]
Interval(msec)	1000
# of Points	240
Start Time(min)	0.004
End Time(min)	3.987
Intensity Units	
Intensity Multiplier	1
R.Time (min)	Intensity
0.00400	99.98
0.02067	99.98
0.03733	99.98
0.05400	99.98
0.07067	99.98
0.08733	99.98
0.10400	99.98
0.12067	99.98
0.13733	99.98
0.15400	99.98
0.17067	99.98
0.18733	99.98
0.20400	99.98
0.22067	99.98
0.23733	99.98
0.25400	99.98
0.27067	99.98
0.28733	99.98
0.30400	99.98
0.32067	99.98
0.33733	99.98
0.35400	99.98
0.37067	99.98
0.38733	99.98
0.40400	99.98
0.42067	99.98
0.43733	99.98
0.45400	99.98
0.47067	99.98
0.48733	99.98
0.50400	99.98
0.52067	99.98
0.53733	99.98
0.55400	99.98
0.57067	99.97
0.58733	99.98
0.60400	99.98
0.62067	99.98
0.63733	99.98
0.65400	99.97
0.67067	99.98
0.68733	99.98
0.70400	99.98
0.72067	99.98
0.73733	99.98
0.75400	99.98
0.77067	99.98
0.78733	99.97
0.80400	99.98
0.82067	99.98
0.83733	99.98
0.85400	99.98
0.87067	99.98
0.88733	99.98
0.90400	99.98
0.92067	99.98
0.93733	99.98
0.95400	99.98
0.97067	99.98
0.98733	99.98
1.00400	99.99
1.02067	99.98
1.03733	99.98
1.05400	99.98
1.07067	99.98
1.08733	99.98
1.10400	99.99
1.12067	99.99
1.13733	99.98
1.15400	99.99
1.17067	99.99
1.18733	99.98
1.20400	99.99
1.22067	99.99
1.23733	99.98
1.25400	99.99
1.27067	99.99
1.28733	99.98
1.30400	99.98
1.32067	99.98
1.33733	99.99
1.35400	99.99
1.37067	99.98
1.38733	99.99
1.40400	99.99
1.42067	99.99
1.43733	99.98
1.45400	99.99
1.47067	99.98
1.48733	99.99
1.50400	99.99
1.52067	99.98
1.53733	99.99
1.55400	99.99
1.57067	99.99
1.58733	99.99
1.60400	99.99
1.62067	99.99
1.63733	99.98
1.65400	99.99
1.67067	99.98
1.68733	99.99
1.70400	99.99
1.72067	99.98
1.73733	99.99
1.75400	99.99
1.77067	99.98
1.78733	99.99
1.80400	99.99
1.82067	99.99
1.83733	99.98
1.85400	99.98
1.87067	99.98
1.88733	99.98
1.90400	99.98
1.92067	99.98
1.93733	99.98
1.95400	99.98
1.97067	99.98
1.98733	99.97
2.00400	99.98
2.02067	99.98
2.03733	99.97
2.05400	99.98
2.07067	99.97
2.08733	99.97
2.10400	99.97
2.12067	99.97
2.13733	99.97
2.15400	99.97
2.17067	99.97
2.18733	99.97
2.20400	99.97
2.22067	99.97
2.23733	99.97
2.25400	99.97
2.27067	99.97
2.28733	99.96
2.30400	99.97
2.32067	99.97
2.33733	99.96
2.35400	99.96
2.37067	99.97
2.38733	99.97
2.40400	99.97
2.42067	99.97
2.43733	99.97
2.45400	99.96
2.47067	99.97
2.48733	99.97
2.50400	99.96
2.52067	99.97
2.53733	99.96
2.55400	99.97
2.57067	99.97
2.58733	99.97
2.60400	99.97
2.62067	99.97
2.63733	99.98
2.65400	99.98
2.67067	99.98
2.68733	99.98
2.70400	99.98
2.72067	99.98
2.73733	99.99
2.75400	99.99
2.77067	99.98
2.78733	99.99
2.80400	99.99
2.82067	99.99
2.83733	99.99
2.85400	100.00
2.87067	100.00
2.88733	100.00
2.90400	100.00
2.92067	100.00
2.93733	100.00
2.95400	100.01
2.97067	100.00
2.98733	100.01
3.00400	100.01
3.02067	100.01
3.03733	100.01
3.05400	100.01
3.07067	100.02
3.08733	100.01
3.10400	100.02
3.12067	100.01
3.13733	100.02
3.15400	100.02
3.17067	100.02
3.18733	100.02
3.20400	100.02
3.22067	100.03
3.23733	100.02
3.25400	100.03
3.27067	100.03
3.28733	100.02
3.30400	100.03
3.32067	100.03
3.33733	100.03
3.35400	100.03
3.37067	100.03
3.38733	100.03
3.40400	100.03
3.42067	100.03
3.43733	100.03
3.45400	100.04
3.47067	100.04
3.48733	100.03
3.50400	100.04
3.52067	100.04
3.53733	100.04
3.55400	100.04
3.57067	100.04
3.58733	100.04
3.60400	100.04
3.62067	100.04
3.63733	100.05
3.65400	100.04
3.67067	100.05
3.68733	100.04
3.70400	100.05
3.72067	100.05
3.73733	100.05
3.75400	100.05
3.77067	100.04
3.78733	100.04
3.80400	100.04
3.82067	100.05
3.83733	100.05
3.85400	100.04
3.87067	100.05
3.88733	100.05
3.90400	100.05
3.92067	100.04
3.93733	100.05
3.95400	100.05
3.97067	100.05
3.98733	100.05

[Status Trace (Carrier Gas Pressure)]
Interval(msec)	1000
# of Points	240
Start Time(min)	0.004
End Time(min)	3.987
Intensity Units	
Intensity Multiplier	1
R.Time (min)	Intensity
0.00400	58.00
0.02067	56.04
0.03733	56.55
0.05400	58.80
0.07067	59.81
0.08733	58.22
0.10400	57.97
0.12067	58.01
0.13733	58.01
0.15400	58.01
0.17067	58.00
0.18733	58.00
0.20400	58.00
0.22067	58.00
0.23733	58.00
0.25400	58.00
0.27067	58.00
0.28733	58.00
0.30400	58.00
0.32067	58.00
0.33733	58.00
0.35400	58.00
0.37067	58.00
0.38733	58.00
0.40400	58.00
0.42067	58.00
0.43733	58.00
0.45400	58.00
0.47067	58.00
0.48733	58.00
0.50400	58.00
0.52067	58.00
0.53733	58.00
0.55400	58.00
0.57067	58.00
0.58733	58.00
0.60400	58.00
0.62067	58.00
0.63733	58.00
0.65400	58.00
0.67067	58.00
0.68733	58.00
0.70400	58.00
0.72067	58.00
0.73733	58.00
0.75400	58.00
0.77067	58.00
0.78733	58.00
0.80400	58.00
0.82067	58.00
0.83733	58.00
0.85400	58.00
0.87067	58.00
0.88733	58.00
0.90400	58.00
0.92067	58.00
0.93733	58.00
0.95400	58.00
0.97067	58.00
0.98733	58.00
1.00400	58.00
1.02067	58.00
1.03733	58.00
1.05400	58.00
1.07067	58.00
1.08733	58.00
1.10400	58.00
1.12067	58.00
1.13733	58.00
1.15400	58.00
1.17067	58.00
1.18733	58.00
1.20400	58.00
1.22067	58.00
1.23733	58.00
1.25400	58.00
1.27067	58.00
1.28733	58.00
1.30400	58.00
1.32067	58.00
1.33733	58.00
1.35400	58.00
1.37067	58.00
1.38733	58.00
1.40400	58.00
1.42067	58.00
1.43733	58.00
1.45400	58.00
1.47067	58.00
1.48733	58.00
1.50400	58.00
1.52067	58.00
1.53733	58.00
1.55400	58.00
1.57067	58.00
1.58733	58.00
1.60400	58.00
1.62067	58.00
1.63733	58.00
1.65400	58.00
1.67067	58.01
1.68733	58.01
1.70400	58.00
1.72067	58.00
1.73733	58.00
1.75400	58.00
1.77067	58.00
1.78733	58.00
1.80400	58.00
1.82067	58.00
1.83733	58.00
1.85400	58.00
1.87067	58.00
1.88733	58.00
1.90400	58.00
1.92067	58.00
1.93733	58.00
1.95400	58.00
1.97067	58.00
1.98733	58.00
2.00400	58.00
2.02067	58.00
2.03733	58.00
2.05400	58.00
2.07067	58.00
2.08733	58.00
2.10400	58.00
2.12067	58.00
2.13733	58.00
2.15400	58.00
2.17067	58.00
2.18733	58.00
2.20400	58.00
2.22067	58.00
2.23733	58.00
2.25400	58.00
2.27067	58.00
2.28733	58.00
2.30400	58.00
2.32067	58.00
2.33733	58.00
2.35400	58.00
2.37067	58.00
2.38733	57.99
2.40400	57.99
2.42067	58.00
2.43733	58.00
2.45400	58.00
2.47067	58.00
2.48733	58.00
2.50400	57.99
2.52067	58.00
2.53733	57.99
2.55400	58.00
2.57067	58.00
2.58733	58.00
2.60400	58.00
2.62067	58.00
2.63733	58.00
2.65400	58.00
2.67067	58.00
2.68733	58.00
2.70400	58.00
2.72067	58.00
2.73733	58.00
2.75400	58.00
2.77067	58.00
2.78733	58.00
2.80400	58.00
2.82067	58.00
2.83733	58.00
2.85400	58.00
2.87067	58.00
2.88733	58.00
2.90400	58.00
2.92067	58.00
2.93733	58.00
2.95400	58.00
2.97067	58.00
2.98733	58.00
3.00400	58.00
3.02067	58.00
3.03733	58.00
3.05400	58.00
3.07067	58.00
3.08733	58.00
3.10400	58.00
3.12067	58.00
3.13733	58.00
3.15400	58.00
3.17067	58.00
3.18733	58.00
3.20400	58.00
3.22067	58.00
3.23733	58.00
3.25400	58.00
3.27067	58.00
3.28733	58.00
3.30400	58.00
3.32067	58.00
3.33733	58.00
3.35400	58.00
3.37067	58.00
3.38733	58.00
3.40400	58.00
3.42067	58.00
3.43733	58.00
3.45400	58.00
3.47067	58.00
3.48733	58.00
3.50400	58.00
3.52067	58.00
3.53733	58.00
3.55400	58.00
3.57067	58.00
3.58733	58.00
3.60400	58.00
3.62067	58.00
3.63733	58.00
3.65400	58.00
3.67067	58.00
3.68733	58.00
3.70400	58.00
3.72067	58.00
3.73733	58.00
3.75400	58.00
3.77067	58.00
3.78733	58.00
3.80400	58.00
3.82067	58.00
3.83733	58.00
3.85400	58.00
3.87067	58.00
3.88733	58.00
3.90400	58.00
3.92067	58.00
3.93733	58.00
3.95400	58.00
3.97067	58.00
3.98733	58.00

[Status Trace (Carrier Gas Flow)]
Interval(msec)	1000
# of Points	240
Start Time(min)	0.004
End Time(min)	3.987
Intensity Units	
Intensity Multiplier	1
R.Time (min)	Intensity
0.00400	34.52
0.02067	34.58
0.03733	34.54
0.05400	34.54
0.07067	34.49
0.08733	34.51
0.10400	34.52
0.12067	34.52
0.13733	34.52
0.15400	34.52
0.17067	34.52
0.18733	34.52
0.20400	34.52
0.22067	34.52
0.23733	34.52
0.25400	34.52
0.27067	34.52
0.28733	34.52
0.30400	34.52
0.32067	34.51
0.33733	34.52
0.35400	34.52
0.37067	34.52
0.38733	34.52
0.40400	34.52
0.42067	34.52
0.43733	34.52
0.45400	34.51
0.47067	34.52
0.48733	34.52
0.50400	34.52
0.52067	34.52
0.53733	34.52
0.55400	34.52
0.57067	34.52
0.58733	34.52
0.60400	34.52
0.62067	34.52
0.63733	34.52
0.65400	34.52
0.67067	34.52
0.68733	34.52
0.70400	34.52
0.72067	34.52
0.73733	34.52
0.75400	34.52
0.77067	34.51
0.78733	34.51
0.80400	34.52
0.82067	34.52
0.83733	34.52
0.85400	34.52
0.87067	34.52
0.88733	34.52
0.90400	34.52
0.92067	34.52
0.93733	34.51
0.95400	34.52
0.97067	34.52
0.98733	34.52
1.00400	34.52
1.02067	34.52
1.03733	34.52
1.05400	34.52
1.07067	34.52
1.08733	34.52
1.10400	34.52
1.12067	34.52
1.13733	34.52
1.15400	34.52
1.17067	34.52
1.18733	34.52
1.20400	34.52
1.22067	34.52
1.23733	34.52
1.25400	34.52
1.27067	34.52
1.28733	34.52
1.30400	34.52
1.32067	34.51
1.33733	34.52
1.35400	34.52
1.37067	34.52
1.38733	34.52
1.40400	34.52
1.42067	34.52
1.43733	34.52
1.45400	34.52
1.47067	34.52
1.48733	34.52
1.50400	34.52
1.52067	34.51
1.53733	34.52
1.55400	34.52
1.57067	34.52
1.58733	34.52
1.60400	34.52
1.62067	34.52
1.63733	34.52
1.65400	34.52
1.67067	34.52
1.68733	34.52
1.70400	34.52
1.72067	34.52
1.73733	34.52
1.75400	34.52
1.77067	34.51
1.78733	34.52
1.80400	34.52
1.82067	34.52
1.83733	34.52
1.85400	34.52
1.87067	34.52
1.88733	34.52
1.90400	34.52
1.92067	34.51
1.93733	34.53
1.95400	34.52
1.97067	34.52
1.98733	34.52
2.00400	34.52
2.02067	34.51
2.03733	34.52
2.05400	34.52
2.07067	34.52
2.08733	34.52
2.10400	34.52
2.12067	34.51
2.13733	34.52
2.15400	34.52
2.17067	34.52
2.18733	34.52
2.20400	34.53
2.22067	34.53
2.23733	34.52
2.25400	34.52
2.27067	34.52
2.28733	34.52
2.30400	34.52
2.32067	34.52
2.33733	34.52
2.35400	34.52
2.37067	34.52
2.38733	34.52
2.40400	34.52
2.42067	34.52
2.43733	34.52
2.45400	34.52
2.47067	34.52
2.48733	34.52
2.50400	34.58
2.52067	34.52
2.53733	34.52
2.55400	34.51
2.57067	34.52
2.58733	34.52
2.60400	34.53
2.62067	34.52
2.63733	34.52
2.65400	34.51
2.67067	34.52
2.68733	34.52
2.70400	34.52
2.72067	34.52
2.73733	34.52
2.75400	34.52
2.77067	34.52
2.78733	34.52
2.80400	34.52
2.82067	34.52
2.83733	34.52
2.85400	34.52
2.87067	34.52
2.88733	34.52
2.90400	34.52
2.92067	34.52
2.93733	34.52
2.95400	34.52
2.97067	34.52
2.98733	34.52
3.00400	34.52
3.02067	34.52
3.03733	34.52
3.05400	34.51
3.07067	34.52
3.08733	34.53
3.10400	34.51
3.12067	34.52
3.13733	34.52
3.15400	34.52
3.17067	34.51
3.18733	34.52
3.20400	34.52
3.22067	34.52
3.23733	34.52
3.25400	34.52
3.27067	34.52
3.28733	34.52
3.30400	34.52
3.32067	34.52
3.33733	34.51
3.35400	34.52
3.37067	34.52
3.38733	34.52
3.40400	34.52
3.42067	34.52
3.43733	34.52
3.45400	34.52
3.47067	34.51
3.48733	34.51
3.50400	34.52
3.52067	34.52
3.53733	34.51
3.55400	34.52
3.57067	34.52
3.58733	34.52
3.60400	34.52
3.62067	34.52
3.63733	34.52
3.65400	34.52
3.67067	34.52
3.68733	34.52
3.70400	34.51
3.72067	34.51
3.73733	34.52
3.75400	34.52
3.77067	34.52
3.78733	34.52
3.80400	34.52
3.82067	34.52
3.83733	34.52
3.85400	34.52
3.87067	34.52
3.88733	34.52
3.90400	34.52
3.92067	34.52
3.93733	34.52
3.95400	34.52
3.97067	34.52
3.98733	34.52

[Status Trace (Column Flow)]
Interval(msec)	1000
# of Points	240
Start Time(min)	0.004
End Time(min)	3.987
Intensity Units	
Intensity Multiplier	1
R.Time (min)	Intensity
0.00400	5.57
0.02067	5.34
0.03733	5.40
0.05400	5.66
0.07067	5.78
0.08733	5.59
0.10400	5.56
0.12067	5.57
0.13733	5.57
0.15400	5.57
0.17067	5.57
0.18733	5.57
0.20400	5.57
0.22067	5.57
0.23733	5.57
0.25400	5.57
0.27067	5.57
0.28733	5.57
0.30400	5.57
0.32067	5.57
0.33733	5.57
0.35400	5.57
0.37067	5.57
0.38733	5.57
0.40400	5.57
0.42067	5.57
0.43733	5.57
0.45400	5.57
0.47067	5.57
0.48733	5.57
0.50400	5.57
0.52067	5.57
0.53733	5.57
0.55400	5.57
0.57067	5.57
0.58733	5.57
0.60400	5.57
0.62067	5.57
0.63733	5.57
0.65400	5.57
0.67067	5.57
0.68733	5.57
0.70400	5.57
0.72067	5.57
0.73733	5.57
0.75400	5.57
0.77067	5.57
0.78733	5.57
0.80400	5.57
0.82067	5.57
0.83733	5.57
0.85400	5.57
0.87067	5.57
0.88733	5.57
0.90400	5.57
0.92067	5.57
0.93733	5.57
0.95400	5.57
0.97067	5.57
0.98733	5.57
1.00400	5.57
1.02067	5.57
1.03733	5.57
1.05400	5.57
1.07067	5.57
1.08733	5.57
1.10400	5.57
1.12067	5.57
1.13733	5.57
1.15400	5.57
1.17067	5.57
1.18733	5.57
1.20400	5.57
1.22067	5.57
1.23733	5.57
1.25400	5.57
1.27067	5.57
1.28733	5.57
1.30400	5.57
1.32067	5.57
1.33733	5.57
1.35400	5.57
1.37067	5.57
1.38733	5.57
1.40400	5.57
1.42067	5.57
1.43733	5.57
1.45400	5.57
1.47067	5.57
1.48733	5.57
1.50400	5.57
1.52067	5.57
1.53733	5.57
1.55400	5.57
1.57067	5.57
1.58733	5.57
1.60400	5.57
1.62067	5.56
1.63733	5.56
1.65400	5.55
1.67067	5.54
1.68733	5.53
1.70400	5.52
1.72067	5.51
1.73733	5.50
1.75400	5.49
1.77067	5.48
1.78733	5.47
1.80400	5.46
1.82067	5.45
1.83733	5.44
1.85400	5.43
1.87067	5.42
1.88733	5.41
1.90400	5.40
1.92067	5.39
1.93733	5.38
1.95400	5.37
1.97067	5.36
1.98733	5.35
2.00400	5.34
2.02067	5.33
2.03733	5.32
2.05400	5.31
2.07067	5.30
2.08733	5.29
2.10400	5.28
2.12067	5.27
2.13733	5.26
2.15400	5.25
2.17067	5.24
2.18733	5.23
2.20400	5.22
2.22067	5.21
2.23733	5.20
2.25400	5.19
2.27067	5.19
2.28733	5.18
2.30400	5.17
2.32067	5.16
2.33733	5.15
2.35400	5.14
2.37067	5.13
2.38733	5.13
2.40400	5.13
2.42067	5.13
2.43733	5.13
2.45400	5.13
2.47067	5.13
2.48733	5.13
2.50400	5.13
2.52067	5.13
2.53733	5.13
2.55400	5.13
2.57067	5.13
2.58733	5.13
2.60400	5.13
2.62067	5.13
2.63733	5.13
2.65400	5.13
2.67067	5.13
2.68733	5.13
2.70400	5.13
2.72067	5.13
2.73733	5.13
2.75400	5.12
2.77067	5.12
2.78733	5.13
2.80400	5.13
2.82067	5.12
2.83733	5.12
2.85400	5.12
2.87067	5.12
2.88733	5.12
2.90400	5.12
2.92067	5.12
2.93733	5.12
2.95400	5.12
2.97067	5.12
2.98733	5.12
3.00400	5.12
3.02067	5.12
3.03733	5.12
3.05400	5.12
3.07067	5.12
3.08733	5.12
3.10400	5.12
3.12067	5.12
3.13733	5.12
3.15400	5.12
3.17067	5.12
3.18733	5.12
3.20400	5.12
3.22067	5.12
3.23733	5.12
3.25400	5.12
3.27067	5.12
3.28733	5.12
3.30400	5.12
3.32067	5.12
3.33733	5.12
3.35400	5.12
3.37067	5.12
3.38733	5.12
3.40400	5.12
3.42067	5.12
3.43733	5.12
3.45400	5.12
3.47067	5.12
3.48733	5.12
3.50400	5.12
3.52067	5.12
3.53733	5.12
3.55400	5.12
3.57067	5.12
3.58733	5.12
3.60400	5.12
3.62067	5.12
3.63733	5.12
3.65400	5.12
3.67067	5.12
3.68733	5.12
3.70400	5.12
3.72067	5.12
3.73733	5.12
3.75400	5.12
3.77067	5.12
3.78733	5.12
3.80400	5.12
3.82067	5.12
3.83733	5.12
3.85400	5.12
3.87067	5.12
3.88733	5.12
3.90400	5.12
3.92067	5.12
3.93733	5.12
3.95400	5.12
3.97067	5.12
3.98733	5.12

[Status Trace (Linear Velocity)]
Interval(msec)	1000
# of Points	240
Start Time(min)	0.004
End Time(min)	3.987
Intensity Units	
Intensity Multiplier	1
R.Time (min)	Intensity
0.00400	39.02
0.02067	37.73
0.03733	38.07
0.05400	39.55
0.07067	40.21
0.08733	39.16
0.10400	39.00
0.12067	39.03
0.13733	39.03
0.15400	39.03
0.17067	39.03
0.18733	39.03
0.20400	39.03
0.22067	39.02
0.23733	39.02
0.25400	39.03
0.27067	39.03
0.28733	39.03
0.30400	39.03
0.32067	39.03
0.33733	39.03
0.35400	39.03
0.37067	39.03
0.38733	39.03
0.40400	39.03
0.42067	39.03
0.43733	39.03
0.45400	39.03
0.47067	39.03
0.48733	39.03
0.50400	39.03
0.52067	39.03
0.53733	39.03
0.55400	39.03
0.57067	39.03
0.58733	39.03
0.60400	39.03
0.62067	39.03
0.63733	39.03
0.65400	39.03
0.67067	39.03
0.68733	39.03
0.70400	39.03
0.72067	39.03
0.73733	39.03
0.75400	39.03
0.77067	39.03
0.78733	39.03
0.80400	39.03
0.82067	39.03
0.83733	39.03
0.85400	39.03
0.87067	39.03
0.88733	39.03
0.90400	39.03
0.92067	39.03
0.93733	39.03
0.95400	39.03
0.97067	39.03
0.98733	39.03
1.00400	39.03
1.02067	39.03
1.03733	39.03
1.05400	39.03
1.07067	39.03
1.08733	39.03
1.10400	39.02
1.12067	39.02
1.13733	39.02
1.15400	39.02
1.17067	39.02
1.18733	39.03
1.20400	39.03
1.22067	39.03
1.23733	39.03
1.25400	39.03
1.27067	39.03
1.28733	39.03
1.30400	39.03
1.32067	39.03
1.33733	39.03
1.35400	39.03
1.37067	39.03
1.38733	39.03
1.40400	39.03
1.42067	39.03
1.43733	39.03
1.45400	39.03
1.47067	39.03
1.48733	39.03
1.50400	39.03
1.52067	39.03
1.53733	39.03
1.55400	39.03
1.57067	39.03
1.58733	39.03
1.60400	39.03
1.62067	39.02
1.63733	39.00
1.65400	38.98
1.67067	38.95
1.68733	38.91
1.70400	38.88
1.72067	38.85
1.73733	38.81
1.75400	38.78
1.77067	38.75
1.78733	38.72
1.80400	38.68
1.82067	38.66
1.83733	38.62
1.85400	38.59
1.87067	38.56
1.88733	38.53
1.90400	38.50
1.92067	38.47
1.93733	38.44
1.95400	38.41
1.97067	38.38
1.98733	38.35
2.00400	38.32
2.02067	38.29
2.03733	38.26
2.05400	38.23
2.07067	38.20
2.08733	38.17
2.10400	38.14
2.12067	38.11
2.13733	38.08
2.15400	38.05
2.17067	38.03
2.18733	37.99
2.20400	37.96
2.22067	37.94
2.23733	37.90
2.25400	37.87
2.27067	37.85
2.28733	37.81
2.30400	37.78
2.32067	37.76
2.33733	37.72
2.35400	37.70
2.37067	37.68
2.38733	37.67
2.40400	37.67
2.42067	37.67
2.43733	37.67
2.45400	37.67
2.47067	37.67
2.48733	37.67
2.50400	37.66
2.52067	37.67
2.53733	37.66
2.55400	37.67
2.57067	37.66
2.58733	37.66
2.60400	37.66
2.62067	37.66
2.63733	37.66
2.65400	37.66
2.67067	37.66
2.68733	37.66
2.70400	37.66
2.72067	37.66
2.73733	37.66
2.75400	37.65
2.77067	37.65
2.78733	37.65
2.80400	37.66
2.82067	37.65
2.83733	37.65
2.85400	37.65
2.87067	37.65
2.88733	37.65
2.90400	37.65
2.92067	37.65
2.93733	37.65
2.95400	37.65
2.97067	37.65
2.98733	37.65
3.00400	37.65
3.02067	37.64
3.03733	37.64
3.05400	37.64
3.07067	37.64
3.08733	37.64
3.10400	37.64
3.12067	37.64
3.13733	37.64
3.15400	37.64
3.17067	37.64
3.18733	37.64
3.20400	37.64
3.22067	37.63
3.23733	37.63
3.25400	37.63
3.27067	37.63
3.28733	37.64
3.30400	37.64
3.32067	37.64
3.33733	37.64
3.35400	37.64
3.37067	37.64
3.38733	37.64
3.40400	37.64
3.42067	37.64
3.43733	37.64
3.45400	37.64
3.47067	37.64
3.48733	37.64
3.50400	37.64
3.52067	37.64
3.53733	37.64
3.55400	37.64
3.57067	37.64
3.58733	37.64
3.60400	37.64
3.62067	37.64
3.63733	37.64
3.65400	37.64
3.67067	37.64
3.68733	37.63
3.70400	37.63
3.72067	37.63
3.73733	37.63
3.75400	37.63
3.77067	37.63
3.78733	37.64
3.80400	37.64
3.82067	37.64
3.83733	37.64
3.85400	37.64
3.87067	37.64
3.88733	37.64
3.90400	37.64
3.92067	37.64
3.93733	37.64
3.95400	37.64
3.97067	37.64
3.98733	37.64

