[Header]
Application Name	LabSolutions
Version	5.110
Data File Name	C:\Users\User\Desktop\GC Analyses\Jack\Nachusa Grasslands Sampling\T1 Timepoint July 12th\T1_07122022_082.gcd
Output Date	3/14/2023
Output Time	3:41:02 PM

[File Information]
Type	Data File
Generated	3/8/2023 10:24:06 PM
Generated by	System Administrator
Modified	3/8/2023 10:30:46 PM
Modified by	System Administrator

[Sample Information]
Operator Name	System Administrator
Acquired	3/8/2023 10:26:44 PM
Sample Type	0:Unknown
Level	0
Sample Name	082
Sample ID	082
ISTD Amount1	1
ISTD Amount2	1
ISTD Amount3	1
ISTD Amount4	1
ISTD Amount5	1
ISTD Amount6	1
ISTD Amount7	1
ISTD Amount8	1
ISTD Amount9	1
ISTD Amount10	1
ISTD Amount11	1
ISTD Amount12	1
ISTD Amount13	1
ISTD Amount14	1
ISTD Amount15	1
ISTD Amount16	1
ISTD Amount17	1
ISTD Amount18	1
ISTD Amount19	1
ISTD Amount20	1
ISTD Amount21	1
ISTD Amount22	1
ISTD Amount23	1
ISTD Amount24	1
ISTD Amount25	1
ISTD Amount26	1
ISTD Amount27	1
ISTD Amount28	1
ISTD Amount29	1
ISTD Amount30	1
ISTD Amount31	1
ISTD Amount32	1
Sample Amount	1
Dilution Factor	1
Vial#	81
Injection Volume	1
Injection Count	1
Bar Code	

[Original Files]
Data File	C:\Users\User\Desktop\GC Analyses\Jack\Nachusa Grasslands Sampling\T1 Timepoint July 12th\T1_07122022_082.gcd
Method File	C:\LabSolutions\Data\GHG_4min_2022\ghg3_togas_w_acet_4 min_new_int.gcm
Batch File	C:\LabSolutions\Data\AutoSamplerTesting\T1_07122022.gcb
Report Format File	c:\LabSolutions\System\DEFAULT.lsr

[File Description]


[Configuration]
Instrument Name	C0B7VH3-Instrument1
Instrument #	1
Line #	1
# of Detectors	3
Detector ID	DET#1	DET#2	DET#3
Detector Name	FID	PTCD	ECD
# of Channels	1	1	1

[Peak Table(Ch1)]
# of Peaks	3
Peak#	R.Time	I.Time	F.Time	Area	Height	A/H	Conc.	Mark	ID#	Name	k'	Plate #	Plate Ht.	Tailing	Resolution	Sep.Factor	Area Ratio	Height Ratio	Conc. %	Norm Conc.
1	1.476	1.435	1.538	35017	16621	2.107	247.223	   	1	CO	0.000	9207	16.292	1.333	0.000	0.000	0	0	29.911	29.911
2	1.567	1.538	1.637	4943	2338	2.114	95.568	 V 	2	CH4	0.062	10073	14.892	0.000	1.479	0.000	0	0	11.563	11.563
3	1.996	1.949	2.502	1927460	913225	2.111	483.740	   	3	CO2	0.353	17269	8.686	1.301	6.962	5.680	0	0	58.527	58.527

[Peak Table(Ch2)]
# of Peaks	0

[Peak Table(Ch3)]
# of Peaks	6
Peak#	R.Time	I.Time	F.Time	Area	Height	A/H	Conc.	Mark	ID#	Name	k'	Plate #	Plate Ht.	Tailing	Resolution	Sep.Factor	Area Ratio	Height Ratio	Conc. %	Norm Conc.
1	2.458	2.271	2.513	2241	598	3.745	0.000	   			0.000	10235	14.656	0.000	0.000	0.000	0	0	0.000	0.000
2	2.539	2.513	2.627	1038	264	3.939	0.000	 V 			0.033	5627	26.655	0.000	0.694	0.000	0	0	0.000	0.000
3	2.675	2.638	2.726	292	78	3.762	0.000	   			0.088	4981	30.112	0.000	0.946	2.682	0	0	0.000	0.000
4	2.873	2.726	3.045	20698	5123	4.040	0.529	 V 	1	N2O	0.169	12897	11.631	1.805	1.567	1.915	0	0	100.000	100.000
5	3.122	3.049	3.269	6608	581	11.374	0.000	   	2	SF6	0.270	120	1246.983	0.000	0.402	1.602	0	0	0.000	0.000
6	3.338	3.269	3.995	12120	559	21.667	0.000	 V 	2	SF6	0.358	46	3230.659	0.000	0.140	1.326	0	0	0.000	0.000

[Compound Results(Ch1)]
# of IDs	6
ID#	Name	R.Time	Area	Height	Conc.	Curve	3rd	2nd	1st	Constant	Area Ratio	Height Ratio	Conc. %	Norm Conc.
1	CO	1.476	35017	16621	247.223	Linear	0.000000e+00	0.000000e+00	1.416423e+002	0.000000e+00	0	0	29.911	29.911
2	CH4	1.567	4943	2338	95.568	Linear	0.000000e+00	0.000000e+00	5.171738e+001	0.000000e+00	0	0	11.563	11.563
3	CO2	1.996	1927460	913225	483.740	Linear	0.000000e+00	0.000000e+00	3.984494e+003	0.000000e+00	0	0	58.527	58.527
4	Ethylene	0.000	0	0	0.000	Linear	0.000000e+00	0.000000e+00	0.000000e+00	0.000000e+00	0	0	0.000	0.000
5	Acetylene	0.000	0	0	0.000	Linear	0.000000e+00	0.000000e+00	0.000000e+00	0.000000e+00	0	0	0.000	0.000
6	Ethane	0.000	0	0	0.000	Linear	0.000000e+00	0.000000e+00	0.000000e+00	0.000000e+00	0	0	0.000	0.000

[Compound Results(Ch2)]
# of IDs	5
ID#	Name	R.Time	Area	Height	Conc.	Curve	3rd	2nd	1st	Constant	Area Ratio	Height Ratio	Conc. %	Norm Conc.
1	Hydrogen	0.000	0	0	0.000	Linear	0.000000e+00	0.000000e+00	0.000000e+00	0.000000e+00	0	0	0.000	0.000
2	Oxygen	0.000	0	0	0.000	Linear	0.000000e+00	0.000000e+00	0.000000e+00	0.000000e+00	0	0	0.000	0.000
3	Nitrogen	0.000	0	0	0.000	Linear	0.000000e+00	0.000000e+00	0.000000e+00	0.000000e+00	0	0	0.000	0.000
4	Methane	0.000	0	0	0.000	Linear	0.000000e+00	0.000000e+00	0.000000e+00	0.000000e+00	0	0	0.000	0.000
5	Carbon Monoxide	0.000	0	0	0.000	Linear	0.000000e+00	0.000000e+00	0.000000e+00	0.000000e+00	0	0	0.000	0.000

[Compound Results(Ch3)]
# of IDs	2
ID#	Name	R.Time	Area	Height	Conc.	Curve	3rd	2nd	1st	Constant	Area Ratio	Height Ratio	Conc. %	Norm Conc.
1	N2O	2.873	20698	5123	0.529	Linear	0.000000e+00	0.000000e+00	3.915173e+004	0.000000e+00	0	0	100.000	100.000
2	SF6	3.122	18728	1140	0.000	Linear	0.000000e+00	0.000000e+00	0.000000e+00	0.000000e+00	0	0	0.000	0.000

[Group Results(Ch1)]
# of Groups	0

[Group Results(Ch2)]
# of Groups	0

[Group Results(Ch3)]
# of Groups	0

[Chromatogram (Ch1)]
Interval(msec)	220
# of Points	1091
Start Time(min)	0.002
End Time(min)	3.998
R.Time (min)	Intensity
0.00167	5
0.00533	7
0.00900	12
0.01267	13
0.01633	12
0.02000	10
0.02367	7
0.02733	3
0.03100	1
0.03467	-1
0.03833	-3
0.04200	-2
0.04567	-1
0.04933	2
0.05300	6
0.05667	11
0.06033	17
0.06400	23
0.06767	26
0.07133	27
0.07500	26
0.07867	23
0.08233	21
0.08600	24
0.08967	32
0.09333	38
0.09700	38
0.10067	33
0.10433	29
0.10800	27
0.11167	26
0.11533	25
0.11900	24
0.12267	20
0.12633	17
0.13000	18
0.13367	18
0.13733	16
0.14100	11
0.14467	8
0.14833	6
0.15200	1
0.15567	-2
0.15933	-1
0.16300	-0
0.16667	3
0.17033	5
0.17400	9
0.17767	16
0.18133	28
0.18500	34
0.18867	34
0.19233	29
0.19600	16
0.19967	4
0.20333	-1
0.20700	1
0.21067	6
0.21433	12
0.21800	19
0.22167	27
0.22533	34
0.22900	38
0.23267	36
0.23633	34
0.24000	36
0.24367	43
0.24733	51
0.25100	61
0.25467	70
0.25833	80
0.26200	94
0.26567	104
0.26933	105
0.27300	97
0.27667	86
0.28033	79
0.28400	76
0.28767	77
0.29133	79
0.29500	86
0.29867	92
0.30233	97
0.30600	103
0.30967	104
0.31333	98
0.31700	92
0.32067	87
0.32433	81
0.32800	74
0.33167	69
0.33533	66
0.33900	67
0.34267	68
0.34633	72
0.35000	80
0.35367	87
0.35733	91
0.36100	88
0.36467	83
0.36833	79
0.37200	73
0.37567	66
0.37933	59
0.38300	53
0.38667	47
0.39033	39
0.39400	32
0.39767	23
0.40133	13
0.40500	9
0.40867	6
0.41233	4
0.41600	8
0.41967	16
0.42333	26
0.42700	31
0.43067	30
0.43433	30
0.43800	28
0.44167	23
0.44533	14
0.44900	2
0.45267	-10
0.45633	-19
0.46000	-23
0.46367	-22
0.46733	-15
0.47100	-6
0.47467	-1
0.47833	1
0.48200	2
0.48567	2
0.48933	4
0.49300	7
0.49667	9
0.50033	10
0.50400	13
0.50767	19
0.51133	23
0.51500	22
0.51867	18
0.52233	13
0.52600	14
0.52967	21
0.53333	25
0.53700	25
0.54067	20
0.54433	16
0.54800	17
0.55167	24
0.55533	33
0.55900	39
0.56267	37
0.56633	30
0.57000	20
0.57367	13
0.57733	10
0.58100	8
0.58467	12
0.58833	16
0.59200	19
0.59567	20
0.59933	18
0.60300	15
0.60667	12
0.61033	9
0.61400	8
0.61767	7
0.62133	6
0.62500	7
0.62867	6
0.63233	7
0.63600	7
0.63967	9
0.64333	13
0.64700	15
0.65067	14
0.65433	12
0.65800	8
0.66167	1
0.66533	-0
0.66900	3
0.67267	6
0.67633	3
0.68000	3
0.68367	8
0.68733	16
0.69100	22
0.69467	25
0.69833	24
0.70200	19
0.70567	9
0.70933	3
0.71300	1
0.71667	3
0.72033	5
0.72400	7
0.72767	7
0.73133	10
0.73500	15
0.73867	18
0.74233	18
0.74600	20
0.74967	29
0.75333	36
0.75700	41
0.76067	46
0.76433	50
0.76800	49
0.77167	48
0.77533	46
0.77900	42
0.78267	41
0.78633	46
0.79000	53
0.79367	58
0.79733	57
0.80100	51
0.80467	44
0.80833	36
0.81200	31
0.81567	32
0.81933	35
0.82300	40
0.82667	45
0.83033	52
0.83400	55
0.83767	50
0.84133	43
0.84500	35
0.84867	28
0.85233	25
0.85600	27
0.85967	31
0.86333	37
0.86700	48
0.87067	60
0.87433	65
0.87800	60
0.88167	50
0.88533	41
0.88900	34
0.89267	29
0.89633	29
0.90000	30
0.90367	30
0.90733	31
0.91100	30
0.91467	29
0.91833	29
0.92200	33
0.92567	40
0.92933	44
0.93300	45
0.93667	47
0.94033	47
0.94400	45
0.94767	42
0.95133	40
0.95500	38
0.95867	35
0.96233	31
0.96600	31
0.96967	35
0.97333	40
0.97700	40
0.98067	36
0.98433	38
0.98800	45
0.99167	47
0.99533	47
0.99900	49
1.00267	51
1.00633	52
1.01000	54
1.01367	58
1.01733	57
1.02100	49
1.02467	41
1.02833	38
1.03200	42
1.03567	45
1.03933	44
1.04300	40
1.04667	31
1.05033	21
1.05400	12
1.05767	9
1.06133	12
1.06500	19
1.06867	24
1.07233	28
1.07600	31
1.07967	34
1.08333	39
1.08700	42
1.09067	40
1.09433	36
1.09800	31
1.10167	24
1.10533	18
1.10900	18
1.11267	25
1.11633	30
1.12000	32
1.12367	28
1.12733	19
1.13100	8
1.13467	-6
1.13833	-17
1.14200	-22
1.14567	-21
1.14933	-19
1.15300	-19
1.15667	-19
1.16033	-17
1.16400	-8
1.16767	3
1.17133	11
1.17500	14
1.17867	14
1.18233	12
1.18600	9
1.18967	8
1.19333	6
1.19700	1
1.20067	-7
1.20433	-17
1.20800	-26
1.21167	-34
1.21533	-35
1.21900	-30
1.22267	-24
1.22633	-20
1.23000	-18
1.23367	-17
1.23733	-17
1.24100	-18
1.24467	-18
1.24833	-14
1.25200	-4
1.25567	6
1.25933	10
1.26300	6
1.26667	1
1.27033	-4
1.27400	-7
1.27767	-9
1.28133	-13
1.28500	-14
1.28867	-15
1.29233	-15
1.29600	-15
1.29967	-8
1.30333	1
1.30700	6
1.31067	10
1.31433	10
1.31800	6
1.32167	2
1.32533	1
1.32900	4
1.33267	4
1.33633	3
1.34000	4
1.34367	7
1.34733	8
1.35100	5
1.35467	3
1.35833	-3
1.36200	-14
1.36567	-29
1.36933	-40
1.37300	-42
1.37667	-37
1.38033	-31
1.38400	-27
1.38767	-28
1.39133	-27
1.39500	-19
1.39867	-11
1.40233	-7
1.40600	-8
1.40967	-12
1.41333	-16
1.41700	-23
1.42067	-33
1.42433	-38
1.42800	-39
1.43167	-40
1.43533	-37
1.43900	-11
1.44267	90
1.44633	346
1.45000	990
1.45367	2532
1.45733	5156
1.46100	8367
1.46467	11466
1.46833	14001
1.47200	15765
1.47567	16595
1.47933	16340
1.48300	15002
1.48667	12844
1.49033	10323
1.49400	7888
1.49767	5820
1.50133	4203
1.50500	3003
1.50867	2145
1.51233	1543
1.51600	1127
1.51967	846
1.52333	657
1.52700	527
1.53067	435
1.53433	368
1.53800	330
1.54167	354
1.54533	502
1.54900	798
1.55267	1194
1.55633	1601
1.56000	1949
1.56367	2201
1.56733	2336
1.57100	2319
1.57467	2135
1.57833	1821
1.58200	1446
1.58567	1083
1.58933	778
1.59300	543
1.59667	372
1.60033	253
1.60400	173
1.60767	122
1.61133	93
1.61500	76
1.61867	65
1.62233	56
1.62600	46
1.62967	34
1.63333	24
1.63700	16
1.64067	12
1.64433	10
1.64800	7
1.65167	6
1.65533	5
1.65900	2
1.66267	-2
1.66633	-7
1.67000	-12
1.67367	-13
1.67733	-8
1.68100	-3
1.68467	-2
1.68833	0
1.69200	5
1.69567	12
1.69933	17
1.70300	18
1.70667	18
1.71033	17
1.71400	10
1.71767	-3
1.72133	-16
1.72500	-26
1.72867	-35
1.73233	-41
1.73600	-44
1.73967	-46
1.74333	-46
1.74700	-45
1.75067	-42
1.75433	-38
1.75800	-37
1.76167	-38
1.76533	-39
1.76900	-40
1.77267	-40
1.77633	-41
1.78000	-43
1.78367	-46
1.78733	-46
1.79100	-47
1.79467	-47
1.79833	-44
1.80200	-39
1.80567	-34
1.80933	-32
1.81300	-34
1.81667	-35
1.82033	-33
1.82400	-31
1.82767	-34
1.83133	-38
1.83500	-38
1.83867	-39
1.84233	-44
1.84600	-49
1.84967	-47
1.85333	-43
1.85700	-40
1.86067	-37
1.86433	-40
1.86800	-47
1.87167	-55
1.87533	-61
1.87900	-61
1.88267	-60
1.88633	-57
1.89000	-56
1.89367	-59
1.89733	-60
1.90100	-56
1.90467	-54
1.90833	-54
1.91200	-54
1.91567	-53
1.91933	-51
1.92300	-47
1.92667	-43
1.93033	-41
1.93400	-38
1.93767	-35
1.94133	-32
1.94500	-30
1.94867	-25
1.95233	0
1.95600	154
1.95967	1047
1.96333	5143
1.96700	19408
1.97067	57498
1.97433	136258
1.97800	263615
1.98167	428050
1.98533	602353
1.98900	755880
1.99267	864454
1.99633	913237
2.00000	897313
2.00367	822910
2.00733	706841
2.01100	571884
2.01467	439560
2.01833	324391
2.02200	232528
2.02567	163744
2.02933	114478
2.03300	80222
2.03667	56840
2.04033	41023
2.04400	30338
2.04767	23084
2.05133	18107
2.05500	14634
2.05867	12155
2.06233	10338
2.06600	8976
2.06967	7926
2.07333	7093
2.07700	6419
2.08067	5863
2.08433	5397
2.08800	4997
2.09167	4651
2.09533	4352
2.09900	4092
2.10267	3863
2.10633	3659
2.11000	3476
2.11367	3311
2.11733	3158
2.12100	3016
2.12467	2884
2.12833	2759
2.13200	2641
2.13567	2531
2.13933	2432
2.14300	2341
2.14667	2254
2.15033	2171
2.15400	2094
2.15767	2026
2.16133	1966
2.16500	1910
2.16867	1853
2.17233	1797
2.17600	1739
2.17967	1683
2.18333	1628
2.18700	1579
2.19067	1534
2.19433	1494
2.19800	1455
2.20167	1418
2.20533	1381
2.20900	1344
2.21267	1308
2.21633	1271
2.22000	1237
2.22367	1211
2.22733	1191
2.23100	1173
2.23467	1152
2.23833	1125
2.24200	1097
2.24567	1069
2.24933	1040
2.25300	1012
2.25667	987
2.26033	963
2.26400	937
2.26767	916
2.27133	897
2.27500	881
2.27867	867
2.28233	855
2.28600	844
2.28967	829
2.29333	812
2.29700	794
2.30067	781
2.30433	772
2.30800	765
2.31167	759
2.31533	750
2.31900	737
2.32267	722
2.32633	709
2.33000	693
2.33367	674
2.33733	661
2.34100	654
2.34467	648
2.34833	639
2.35200	632
2.35567	629
2.35933	628
2.36300	621
2.36667	605
2.37033	589
2.37400	580
2.37767	572
2.38133	567
2.38500	561
2.38867	549
2.39233	532
2.39600	517
2.39967	505
2.40333	497
2.40700	496
2.41067	501
2.41433	508
2.41800	514
2.42167	514
2.42533	507
2.42900	498
2.43267	492
2.43633	492
2.44000	493
2.44367	487
2.44733	479
2.45100	471
2.45467	462
2.45833	454
2.46200	444
2.46567	430
2.46933	418
2.47300	408
2.47667	401
2.48033	396
2.48400	393
2.48767	393
2.49133	395
2.49500	399
2.49867	403
2.50233	402
2.50600	398
2.50967	394
2.51333	392
2.51700	394
2.52067	398
2.52433	398
2.52800	394
2.53167	390
2.53533	390
2.53900	393
2.54267	395
2.54633	395
2.55000	392
2.55367	388
2.55733	380
2.56100	368
2.56467	353
2.56833	341
2.57200	333
2.57567	327
2.57933	328
2.58300	338
2.58667	348
2.59033	352
2.59400	347
2.59767	337
2.60133	324
2.60500	310
2.60867	299
2.61233	294
2.61600	294
2.61967	298
2.62333	300
2.62700	297
2.63067	295
2.63433	294
2.63800	291
2.64167	287
2.64533	284
2.64900	283
2.65267	285
2.65633	283
2.66000	279
2.66367	275
2.66733	272
2.67100	273
2.67467	276
2.67833	280
2.68200	282
2.68567	281
2.68933	280
2.69300	279
2.69667	277
2.70033	273
2.70400	269
2.70767	264
2.71133	265
2.71500	266
2.71867	263
2.72233	259
2.72600	256
2.72967	257
2.73333	263
2.73700	268
2.74067	269
2.74433	268
2.74800	266
2.75167	265
2.75533	266
2.75900	268
2.76267	267
2.76633	266
2.77000	270
2.77367	276
2.77733	276
2.78100	266
2.78467	252
2.78833	236
2.79200	227
2.79567	223
2.79933	222
2.80300	225
2.80667	229
2.81033	237
2.81400	243
2.81767	242
2.82133	238
2.82500	237
2.82867	237
2.83233	236
2.83600	234
2.83967	230
2.84333	227
2.84700	227
2.85067	228
2.85433	230
2.85800	232
2.86167	235
2.86533	238
2.86900	242
2.87267	244
2.87633	246
2.88000	247
2.88367	247
2.88733	243
2.89100	235
2.89467	229
2.89833	229
2.90200	235
2.90567	238
2.90933	239
2.91300	238
2.91667	236
2.92033	232
2.92400	226
2.92767	220
2.93133	217
2.93500	213
2.93867	212
2.94233	216
2.94600	217
2.94967	213
2.95333	210
2.95700	209
2.96067	209
2.96433	208
2.96800	205
2.97167	199
2.97533	192
2.97900	187
2.98267	184
2.98633	182
2.99000	182
2.99367	185
2.99733	190
3.00100	196
3.00467	203
3.00833	209
3.01200	214
3.01567	216
3.01933	218
3.02300	219
3.02667	215
3.03033	209
3.03400	205
3.03767	202
3.04133	194
3.04500	187
3.04867	187
3.05233	191
3.05600	188
3.05967	181
3.06333	175
3.06700	170
3.07067	166
3.07433	168
3.07800	176
3.08167	182
3.08533	185
3.08900	185
3.09267	187
3.09633	191
3.10000	193
3.10367	188
3.10733	176
3.11100	166
3.11467	162
3.11833	163
3.12200	167
3.12567	173
3.12933	180
3.13300	184
3.13667	184
3.14033	180
3.14400	172
3.14767	166
3.15133	161
3.15500	158
3.15867	160
3.16233	160
3.16600	156
3.16967	150
3.17333	147
3.17700	149
3.18067	153
3.18433	158
3.18800	160
3.19167	164
3.19533	166
3.19900	164
3.20267	161
3.20633	160
3.21000	160
3.21367	160
3.21733	159
3.22100	161
3.22467	167
3.22833	170
3.23200	170
3.23567	166
3.23933	158
3.24300	148
3.24667	137
3.25033	130
3.25400	129
3.25767	129
3.26133	130
3.26500	131
3.26867	131
3.27233	131
3.27600	133
3.27967	134
3.28333	136
3.28700	138
3.29067	142
3.29433	152
3.29800	162
3.30167	166
3.30533	167
3.30900	165
3.31267	161
3.31633	157
3.32000	155
3.32367	154
3.32733	151
3.33100	146
3.33467	139
3.33833	130
3.34200	119
3.34567	111
3.34933	112
3.35300	119
3.35667	127
3.36033	131
3.36400	128
3.36767	123
3.37133	120
3.37500	122
3.37867	125
3.38233	130
3.38600	134
3.38967	136
3.39333	134
3.39700	130
3.40067	125
3.40433	122
3.40800	123
3.41167	126
3.41533	125
3.41900	122
3.42267	121
3.42633	125
3.43000	129
3.43367	125
3.43733	119
3.44100	116
3.44467	114
3.44833	110
3.45200	109
3.45567	110
3.45933	110
3.46300	107
3.46667	104
3.47033	109
3.47400	118
3.47767	124
3.48133	127
3.48500	128
3.48867	131
3.49233	132
3.49600	129
3.49967	121
3.50333	109
3.50700	98
3.51067	88
3.51433	83
3.51800	83
3.52167	86
3.52533	90
3.52900	96
3.53267	102
3.53633	109
3.54000	112
3.54367	109
3.54733	104
3.55100	100
3.55467	99
3.55833	101
3.56200	104
3.56567	109
3.56933	114
3.57300	117
3.57667	118
3.58033	115
3.58400	110
3.58767	104
3.59133	96
3.59500	90
3.59867	87
3.60233	88
3.60600	94
3.60967	102
3.61333	109
3.61700	113
3.62067	110
3.62433	103
3.62800	93
3.63167	83
3.63533	77
3.63900	77
3.64267	81
3.64633	86
3.65000	88
3.65367	92
3.65733	90
3.66100	84
3.66467	83
3.66833	83
3.67200	82
3.67567	79
3.67933	77
3.68300	77
3.68667	79
3.69033	82
3.69400	85
3.69767	85
3.70133	88
3.70500	89
3.70867	91
3.71233	94
3.71600	99
3.71967	103
3.72333	109
3.72700	113
3.73067	113
3.73433	109
3.73800	103
3.74167	95
3.74533	82
3.74900	68
3.75267	57
3.75633	55
3.76000	55
3.76367	51
3.76733	48
3.77100	51
3.77467	57
3.77833	61
3.78200	62
3.78567	58
3.78933	57
3.79300	58
3.79667	58
3.80033	55
3.80400	50
3.80767	50
3.81133	52
3.81500	58
3.81867	66
3.82233	73
3.82600	76
3.82967	76
3.83333	69
3.83700	63
3.84067	58
3.84433	54
3.84800	46
3.85167	37
3.85533	35
3.85900	40
3.86267	49
3.86633	57
3.87000	63
3.87367	69
3.87733	77
3.88100	82
3.88467	83
3.88833	75
3.89200	61
3.89567	48
3.89933	38
3.90300	31
3.90667	28
3.91033	30
3.91400	37
3.91767	49
3.92133	59
3.92500	62
3.92867	59
3.93233	55
3.93600	50
3.93967	47
3.94333	42
3.94700	40
3.95067	40
3.95433	39
3.95800	39
3.96167	41
3.96533	47
3.96900	52
3.97267	55
3.97633	55
3.98000	53
3.98367	48
3.98733	46
3.99100	45
3.99467	48
3.99833	54

[Chromatogram (Ch2)]
Interval(msec)	220
# of Points	1091
Start Time(min)	0.002
End Time(min)	3.998
R.Time (min)	Intensity
0.00167	1
0.00533	1
0.00900	1
0.01267	1
0.01633	1
0.02000	1
0.02367	1
0.02733	1
0.03100	1
0.03467	1
0.03833	1
0.04200	1
0.04567	2
0.04933	2
0.05300	2
0.05667	3
0.06033	3
0.06400	3
0.06767	3
0.07133	3
0.07500	2
0.07867	2
0.08233	1
0.08600	1
0.08967	0
0.09333	-0
0.09700	-1
0.10067	-1
0.10433	-1
0.10800	-1
0.11167	-1
0.11533	-1
0.11900	-1
0.12267	-1
0.12633	-1
0.13000	-1
0.13367	-2
0.13733	-2
0.14100	-2
0.14467	-2
0.14833	-2
0.15200	-1
0.15567	-1
0.15933	-1
0.16300	-1
0.16667	-1
0.17033	-1
0.17400	-2
0.17767	-2
0.18133	-2
0.18500	-2
0.18867	-2
0.19233	-2
0.19600	-2
0.19967	-2
0.20333	-2
0.20700	-2
0.21067	-3
0.21433	-3
0.21800	-3
0.22167	-3
0.22533	-3
0.22900	-4
0.23267	-4
0.23633	-4
0.24000	-4
0.24367	-4
0.24733	-4
0.25100	-4
0.25467	-4
0.25833	-3
0.26200	-3
0.26567	-3
0.26933	-2
0.27300	-2
0.27667	-2
0.28033	-2
0.28400	-2
0.28767	-2
0.29133	-3
0.29500	-3
0.29867	-3
0.30233	-3
0.30600	-4
0.30967	-4
0.31333	-4
0.31700	-4
0.32067	-4
0.32433	-4
0.32800	-4
0.33167	-4
0.33533	-3
0.33900	-3
0.34267	-2
0.34633	-2
0.35000	-1
0.35367	-1
0.35733	-1
0.36100	-0
0.36467	0
0.36833	1
0.37200	1
0.37567	1
0.37933	0
0.38300	0
0.38667	0
0.39033	-0
0.39400	-1
0.39767	-1
0.40133	-1
0.40500	-1
0.40867	-2
0.41233	-2
0.41600	-2
0.41967	-2
0.42333	-2
0.42700	-2
0.43067	-2
0.43433	-2
0.43800	-2
0.44167	-2
0.44533	-2
0.44900	-2
0.45267	-2
0.45633	-2
0.46000	-2
0.46367	-2
0.46733	-2
0.47100	-2
0.47467	-1
0.47833	-1
0.48200	-2
0.48567	-2
0.48933	-2
0.49300	-2
0.49667	-3
0.50033	-3
0.50400	-3
0.50767	-4
0.51133	-4
0.51500	-4
0.51867	-5
0.52233	-5
0.52600	-5
0.52967	-5
0.53333	-5
0.53700	-5
0.54067	-4
0.54433	-4
0.54800	-3
0.55167	-3
0.55533	-2
0.55900	-2
0.56267	-2
0.56633	-1
0.57000	-1
0.57367	-1
0.57733	-1
0.58100	-1
0.58467	-1
0.58833	-0
0.59200	-0
0.59567	-0
0.59933	-1
0.60300	-1
0.60667	-2
0.61033	-2
0.61400	-2
0.61767	-3
0.62133	-3
0.62500	-4
0.62867	-4
0.63233	-4
0.63600	-5
0.63967	-5
0.64333	-5
0.64700	-5
0.65067	-5
0.65433	-5
0.65800	-5
0.66167	-5
0.66533	-5
0.66900	-5
0.67267	-5
0.67633	-5
0.68000	-5
0.68367	-5
0.68733	-5
0.69100	-5
0.69467	-5
0.69833	-5
0.70200	-5
0.70567	-4
0.70933	-4
0.71300	-4
0.71667	-4
0.72033	-4
0.72400	-4
0.72767	-4
0.73133	-4
0.73500	-4
0.73867	-4
0.74233	-4
0.74600	-3
0.74967	-3
0.75333	-3
0.75700	-3
0.76067	-3
0.76433	-3
0.76800	-3
0.77167	-2
0.77533	-2
0.77900	-2
0.78267	-2
0.78633	-2
0.79000	-2
0.79367	-2
0.79733	-2
0.80100	-2
0.80467	-2
0.80833	-2
0.81200	-2
0.81567	-2
0.81933	-2
0.82300	-2
0.82667	-3
0.83033	-3
0.83400	-3
0.83767	-3
0.84133	-4
0.84500	-4
0.84867	-4
0.85233	-4
0.85600	-4
0.85967	-4
0.86333	-4
0.86700	-4
0.87067	-4
0.87433	-4
0.87800	-4
0.88167	-4
0.88533	-4
0.88900	-4
0.89267	-4
0.89633	-4
0.90000	-3
0.90367	-3
0.90733	-3
0.91100	-3
0.91467	-2
0.91833	-2
0.92200	-2
0.92567	-2
0.92933	-2
0.93300	-2
0.93667	-2
0.94033	-2
0.94400	-2
0.94767	-2
0.95133	-2
0.95500	-2
0.95867	-2
0.96233	-2
0.96600	-2
0.96967	-2
0.97333	-2
0.97700	-2
0.98067	-2
0.98433	-2
0.98800	-2
0.99167	-2
0.99533	-2
0.99900	-2
1.00267	-2
1.00633	-2
1.01000	-2
1.01367	-2
1.01733	-2
1.02100	-2
1.02467	-2
1.02833	-2
1.03200	-3
1.03567	-3
1.03933	-3
1.04300	-4
1.04667	-4
1.05033	-3
1.05400	-4
1.05767	-4
1.06133	-4
1.06500	-4
1.06867	-4
1.07233	-4
1.07600	-4
1.07967	-4
1.08333	-4
1.08700	-4
1.09067	-4
1.09433	-4
1.09800	-4
1.10167	-4
1.10533	-4
1.10900	-4
1.11267	-4
1.11633	-4
1.12000	-3
1.12367	-3
1.12733	-4
1.13100	-4
1.13467	-4
1.13833	-4
1.14200	-5
1.14567	-5
1.14933	-5
1.15300	-5
1.15667	-6
1.16033	-6
1.16400	-6
1.16767	-6
1.17133	-6
1.17500	-6
1.17867	-6
1.18233	-5
1.18600	-5
1.18967	-4
1.19333	-4
1.19700	-4
1.20067	-4
1.20433	-4
1.20800	-4
1.21167	-4
1.21533	-4
1.21900	-3
1.22267	-3
1.22633	-3
1.23000	-3
1.23367	-3
1.23733	-3
1.24100	-3
1.24467	-3
1.24833	-3
1.25200	-3
1.25567	-4
1.25933	-4
1.26300	-4
1.26667	-4
1.27033	-4
1.27400	-5
1.27767	-5
1.28133	-5
1.28500	-5
1.28867	-5
1.29233	-5
1.29600	-5
1.29967	-6
1.30333	-6
1.30700	-6
1.31067	-7
1.31433	-7
1.31800	-7
1.32167	-7
1.32533	-7
1.32900	-7
1.33267	-7
1.33633	-6
1.34000	-6
1.34367	-6
1.34733	-5
1.35100	-5
1.35467	-4
1.35833	-4
1.36200	-3
1.36567	-3
1.36933	-2
1.37300	-2
1.37667	-2
1.38033	-2
1.38400	-1
1.38767	-1
1.39133	-1
1.39500	-1
1.39867	-0
1.40233	-0
1.40600	0
1.40967	0
1.41333	0
1.41700	0
1.42067	0
1.42433	0
1.42800	0
1.43167	0
1.43533	-0
1.43900	-0
1.44267	-0
1.44633	-1
1.45000	-1
1.45367	-1
1.45733	-1
1.46100	-1
1.46467	-2
1.46833	-2
1.47200	-3
1.47567	-4
1.47933	-4
1.48300	-4
1.48667	-5
1.49033	-5
1.49400	-5
1.49767	-5
1.50133	-5
1.50500	-5
1.50867	-5
1.51233	-5
1.51600	-5
1.51967	-5
1.52333	-5
1.52700	-5
1.53067	-5
1.53433	-4
1.53800	-4
1.54167	-4
1.54533	-4
1.54900	-4
1.55267	-4
1.55633	-4
1.56000	-4
1.56367	-3
1.56733	-3
1.57100	-3
1.57467	-3
1.57833	-3
1.58200	-4
1.58567	-4
1.58933	-5
1.59300	-5
1.59667	-6
1.60033	-7
1.60400	-8
1.60767	-10
1.61133	-11
1.61500	-13
1.61867	-15
1.62233	-18
1.62600	-21
1.62967	-24
1.63333	-27
1.63700	-30
1.64067	-34
1.64433	-37
1.64800	-41
1.65167	-44
1.65533	-48
1.65900	-51
1.66267	-55
1.66633	-59
1.67000	-64
1.67367	-70
1.67733	-75
1.68100	-80
1.68467	-85
1.68833	-89
1.69200	-92
1.69567	-95
1.69933	-98
1.70300	-100
1.70667	-102
1.71033	-103
1.71400	-105
1.71767	-107
1.72133	-108
1.72500	-109
1.72867	-110
1.73233	-111
1.73600	-111
1.73967	-112
1.74333	-112
1.74700	-112
1.75067	-111
1.75433	-111
1.75800	-111
1.76167	-111
1.76533	-111
1.76900	-111
1.77267	-112
1.77633	-112
1.78000	-113
1.78367	-114
1.78733	-116
1.79100	-117
1.79467	-118
1.79833	-118
1.80200	-118
1.80567	-118
1.80933	-118
1.81300	-117
1.81667	-117
1.82033	-117
1.82400	-117
1.82767	-117
1.83133	-117
1.83500	-118
1.83867	-118
1.84233	-118
1.84600	-118
1.84967	-118
1.85333	-118
1.85700	-118
1.86067	-117
1.86433	-118
1.86800	-118
1.87167	-118
1.87533	-118
1.87900	-118
1.88267	-118
1.88633	-118
1.89000	-118
1.89367	-118
1.89733	-118
1.90100	-118
1.90467	-117
1.90833	-117
1.91200	-116
1.91567	-116
1.91933	-115
1.92300	-114
1.92667	-114
1.93033	-114
1.93400	-114
1.93767	-113
1.94133	-113
1.94500	-113
1.94867	-113
1.95233	-113
1.95600	-113
1.95967	-113
1.96333	-114
1.96700	-114
1.97067	-115
1.97433	-114
1.97800	-114
1.98167	-113
1.98533	-112
1.98900	-112
1.99267	-111
1.99633	-110
2.00000	-110
2.00367	-109
2.00733	-109
2.01100	-108
2.01467	-108
2.01833	-108
2.02200	-108
2.02567	-108
2.02933	-108
2.03300	-108
2.03667	-108
2.04033	-107
2.04400	-107
2.04767	-107
2.05133	-106
2.05500	-105
2.05867	-105
2.06233	-105
2.06600	-105
2.06967	-105
2.07333	-105
2.07700	-105
2.08067	-104
2.08433	-103
2.08800	-101
2.09167	-100
2.09533	-100
2.09900	-99
2.10267	-100
2.10633	-100
2.11000	-101
2.11367	-101
2.11733	-102
2.12100	-102
2.12467	-102
2.12833	-102
2.13200	-102
2.13567	-101
2.13933	-100
2.14300	-100
2.14667	-99
2.15033	-99
2.15400	-99
2.15767	-99
2.16133	-100
2.16500	-100
2.16867	-99
2.17233	-99
2.17600	-98
2.17967	-98
2.18333	-98
2.18700	-97
2.19067	-97
2.19433	-97
2.19800	-97
2.20167	-98
2.20533	-98
2.20900	-99
2.21267	-99
2.21633	-99
2.22000	-99
2.22367	-98
2.22733	-97
2.23100	-96
2.23467	-94
2.23833	-93
2.24200	-92
2.24567	-92
2.24933	-91
2.25300	-91
2.25667	-90
2.26033	-90
2.26400	-89
2.26767	-89
2.27133	-89
2.27500	-89
2.27867	-89
2.28233	-89
2.28600	-89
2.28967	-89
2.29333	-88
2.29700	-88
2.30067	-87
2.30433	-87
2.30800	-86
2.31167	-85
2.31533	-84
2.31900	-83
2.32267	-83
2.32633	-82
2.33000	-81
2.33367	-82
2.33733	-82
2.34100	-82
2.34467	-82
2.34833	-82
2.35200	-82
2.35567	-82
2.35933	-81
2.36300	-80
2.36667	-78
2.37033	-76
2.37400	-74
2.37767	-71
2.38133	-67
2.38500	-63
2.38867	-59
2.39233	-54
2.39600	-49
2.39967	-44
2.40333	-39
2.40700	-34
2.41067	-30
2.41433	-26
2.41800	-24
2.42167	-21
2.42533	-20
2.42900	-19
2.43267	-17
2.43633	-16
2.44000	-15
2.44367	-14
2.44733	-12
2.45100	-11
2.45467	-9
2.45833	-8
2.46200	-7
2.46567	-6
2.46933	-5
2.47300	-4
2.47667	-3
2.48033	-1
2.48400	0
2.48767	2
2.49133	3
2.49500	3
2.49867	4
2.50233	5
2.50600	6
2.50967	6
2.51333	7
2.51700	8
2.52067	8
2.52433	9
2.52800	10
2.53167	10
2.53533	11
2.53900	11
2.54267	11
2.54633	11
2.55000	11
2.55367	12
2.55733	13
2.56100	13
2.56467	14
2.56833	14
2.57200	14
2.57567	15
2.57933	15
2.58300	15
2.58667	15
2.59033	15
2.59400	14
2.59767	14
2.60133	14
2.60500	15
2.60867	15
2.61233	15
2.61600	16
2.61967	16
2.62333	16
2.62700	16
2.63067	16
2.63433	17
2.63800	17
2.64167	18
2.64533	18
2.64900	19
2.65267	19
2.65633	20
2.66000	20
2.66367	20
2.66733	20
2.67100	20
2.67467	20
2.67833	20
2.68200	19
2.68567	19
2.68933	20
2.69300	20
2.69667	20
2.70033	21
2.70400	21
2.70767	22
2.71133	23
2.71500	24
2.71867	25
2.72233	25
2.72600	25
2.72967	25
2.73333	25
2.73700	24
2.74067	24
2.74433	23
2.74800	22
2.75167	22
2.75533	22
2.75900	22
2.76267	22
2.76633	22
2.77000	23
2.77367	23
2.77733	23
2.78100	24
2.78467	24
2.78833	25
2.79200	25
2.79567	26
2.79933	26
2.80300	26
2.80667	27
2.81033	27
2.81400	27
2.81767	27
2.82133	27
2.82500	27
2.82867	27
2.83233	26
2.83600	26
2.83967	24
2.84333	22
2.84700	17
2.85067	10
2.85433	-1
2.85800	-15
2.86167	-33
2.86533	-56
2.86900	-82
2.87267	-113
2.87633	-148
2.88000	-187
2.88367	-230
2.88733	-276
2.89100	-324
2.89467	-375
2.89833	-427
2.90200	-481
2.90567	-536
2.90933	-591
2.91300	-645
2.91667	-699
2.92033	-752
2.92400	-804
2.92767	-855
2.93133	-908
2.93500	-966
2.93867	-1024
2.94233	-1074
2.94600	-1104
2.94967	-1108
2.95333	-1087
2.95700	-1043
2.96067	-982
2.96433	-909
2.96800	-830
2.97167	-749
2.97533	-669
2.97900	-592
2.98267	-520
2.98633	-454
2.99000	-394
2.99367	-341
2.99733	-293
3.00100	-251
3.00467	-215
3.00833	-182
3.01200	-154
3.01567	-130
3.01933	-109
3.02300	-91
3.02667	-75
3.03033	-62
3.03400	-51
3.03767	-41
3.04133	-33
3.04500	-27
3.04867	-21
3.05233	-16
3.05600	-12
3.05967	-8
3.06333	-5
3.06700	-2
3.07067	0
3.07433	2
3.07800	4
3.08167	5
3.08533	6
3.08900	7
3.09267	8
3.09633	9
3.10000	10
3.10367	11
3.10733	11
3.11100	12
3.11467	13
3.11833	13
3.12200	14
3.12567	14
3.12933	14
3.13300	14
3.13667	14
3.14033	14
3.14400	14
3.14767	14
3.15133	14
3.15500	14
3.15867	14
3.16233	14
3.16600	15
3.16967	15
3.17333	16
3.17700	16
3.18067	16
3.18433	17
3.18800	17
3.19167	17
3.19533	17
3.19900	18
3.20267	18
3.20633	19
3.21000	19
3.21367	19
3.21733	19
3.22100	20
3.22467	20
3.22833	20
3.23200	20
3.23567	20
3.23933	20
3.24300	21
3.24667	21
3.25033	21
3.25400	21
3.25767	21
3.26133	22
3.26500	22
3.26867	22
3.27233	22
3.27600	22
3.27967	23
3.28333	23
3.28700	23
3.29067	23
3.29433	23
3.29800	23
3.30167	23
3.30533	23
3.30900	23
3.31267	22
3.31633	22
3.32000	22
3.32367	22
3.32733	22
3.33100	22
3.33467	22
3.33833	22
3.34200	22
3.34567	22
3.34933	22
3.35300	22
3.35667	22
3.36033	22
3.36400	22
3.36767	23
3.37133	23
3.37500	23
3.37867	24
3.38233	24
3.38600	24
3.38967	24
3.39333	24
3.39700	25
3.40067	25
3.40433	25
3.40800	26
3.41167	26
3.41533	25
3.41900	25
3.42267	25
3.42633	25
3.43000	25
3.43367	24
3.43733	24
3.44100	24
3.44467	24
3.44833	24
3.45200	24
3.45567	24
3.45933	24
3.46300	24
3.46667	24
3.47033	25
3.47400	25
3.47767	25
3.48133	26
3.48500	26
3.48867	26
3.49233	27
3.49600	27
3.49967	27
3.50333	27
3.50700	28
3.51067	28
3.51433	28
3.51800	28
3.52167	28
3.52533	28
3.52900	28
3.53267	28
3.53633	28
3.54000	28
3.54367	28
3.54733	28
3.55100	28
3.55467	28
3.55833	28
3.56200	28
3.56567	28
3.56933	28
3.57300	28
3.57667	28
3.58033	28
3.58400	27
3.58767	27
3.59133	26
3.59500	26
3.59867	26
3.60233	26
3.60600	26
3.60967	26
3.61333	25
3.61700	25
3.62067	25
3.62433	25
3.62800	26
3.63167	26
3.63533	26
3.63900	26
3.64267	26
3.64633	26
3.65000	26
3.65367	26
3.65733	26
3.66100	26
3.66467	26
3.66833	27
3.67200	27
3.67567	27
3.67933	27
3.68300	28
3.68667	28
3.69033	28
3.69400	28
3.69767	28
3.70133	28
3.70500	28
3.70867	28
3.71233	28
3.71600	27
3.71967	27
3.72333	27
3.72700	27
3.73067	27
3.73433	27
3.73800	27
3.74167	27
3.74533	27
3.74900	27
3.75267	27
3.75633	27
3.76000	27
3.76367	26
3.76733	26
3.77100	26
3.77467	26
3.77833	25
3.78200	25
3.78567	25
3.78933	25
3.79300	24
3.79667	24
3.80033	24
3.80400	24
3.80767	24
3.81133	24
3.81500	24
3.81867	24
3.82233	24
3.82600	25
3.82967	25
3.83333	25
3.83700	25
3.84067	26
3.84433	26
3.84800	26
3.85167	27
3.85533	27
3.85900	27
3.86267	27
3.86633	27
3.87000	27
3.87367	27
3.87733	27
3.88100	27
3.88467	27
3.88833	26
3.89200	26
3.89567	26
3.89933	26
3.90300	26
3.90667	25
3.91033	25
3.91400	25
3.91767	25
3.92133	24
3.92500	24
3.92867	24
3.93233	23
3.93600	23
3.93967	23
3.94333	23
3.94700	22
3.95067	22
3.95433	22
3.95800	22
3.96167	23
3.96533	23
3.96900	23
3.97267	23
3.97633	23
3.98000	24
3.98367	24
3.98733	24
3.99100	24
3.99467	24
3.99833	24

[Chromatogram (Ch3)]
Interval(msec)	220
# of Points	1091
Start Time(min)	0.002
End Time(min)	3.998
R.Time (min)	Intensity
0.00167	-1
0.00533	0
0.00900	2
0.01267	4
0.01633	4
0.02000	2
0.02367	0
0.02733	-0
0.03100	1
0.03467	0
0.03833	-0
0.04200	3
0.04567	7
0.04933	8
0.05300	6
0.05667	2
0.06033	0
0.06400	-0
0.06767	0
0.07133	1
0.07500	1
0.07867	3
0.08233	4
0.08600	4
0.08967	2
0.09333	1
0.09700	2
0.10067	3
0.10433	3
0.10800	4
0.11167	4
0.11533	6
0.11900	6
0.12267	5
0.12633	5
0.13000	5
0.13367	4
0.13733	1
0.14100	1
0.14467	2
0.14833	2
0.15200	-0
0.15567	-1
0.15933	-2
0.16300	-4
0.16667	-2
0.17033	1
0.17400	2
0.17767	3
0.18133	4
0.18500	3
0.18867	3
0.19233	2
0.19600	1
0.19967	1
0.20333	0
0.20700	1
0.21067	3
0.21433	6
0.21800	6
0.22167	5
0.22533	6
0.22900	7
0.23267	5
0.23633	4
0.24000	3
0.24367	2
0.24733	2
0.25100	3
0.25467	5
0.25833	5
0.26200	3
0.26567	2
0.26933	1
0.27300	1
0.27667	3
0.28033	5
0.28400	6
0.28767	8
0.29133	10
0.29500	10
0.29867	9
0.30233	9
0.30600	10
0.30967	8
0.31333	6
0.31700	6
0.32067	7
0.32433	7
0.32800	5
0.33167	5
0.33533	7
0.33900	9
0.34267	9
0.34633	9
0.35000	9
0.35367	5
0.35733	2
0.36100	1
0.36467	3
0.36833	5
0.37200	5
0.37567	6
0.37933	7
0.38300	8
0.38667	8
0.39033	7
0.39400	8
0.39767	9
0.40133	9
0.40500	10
0.40867	9
0.41233	9
0.41600	7
0.41967	5
0.42333	5
0.42700	3
0.43067	1
0.43433	3
0.43800	5
0.44167	5
0.44533	5
0.44900	5
0.45267	3
0.45633	1
0.46000	1
0.46367	2
0.46733	3
0.47100	6
0.47467	7
0.47833	6
0.48200	5
0.48567	7
0.48933	12
0.49300	12
0.49667	10
0.50033	9
0.50400	7
0.50767	9
0.51133	11
0.51500	11
0.51867	10
0.52233	12
0.52600	13
0.52967	13
0.53333	11
0.53700	10
0.54067	9
0.54433	10
0.54800	9
0.55167	9
0.55533	7
0.55900	6
0.56267	4
0.56633	4
0.57000	5
0.57367	6
0.57733	8
0.58100	12
0.58467	11
0.58833	9
0.59200	6
0.59567	4
0.59933	5
0.60300	6
0.60667	7
0.61033	10
0.61400	11
0.61767	12
0.62133	11
0.62500	11
0.62867	11
0.63233	12
0.63600	14
0.63967	14
0.64333	14
0.64700	13
0.65067	14
0.65433	14
0.65800	15
0.66167	15
0.66533	16
0.66900	18
0.67267	17
0.67633	14
0.68000	12
0.68367	10
0.68733	9
0.69100	10
0.69467	11
0.69833	13
0.70200	12
0.70567	11
0.70933	9
0.71300	9
0.71667	9
0.72033	10
0.72400	11
0.72767	11
0.73133	12
0.73500	13
0.73867	15
0.74233	17
0.74600	17
0.74967	16
0.75333	15
0.75700	17
0.76067	18
0.76433	20
0.76800	20
0.77167	17
0.77533	17
0.77900	18
0.78267	17
0.78633	18
0.79000	21
0.79367	22
0.79733	22
0.80100	20
0.80467	20
0.80833	21
0.81200	18
0.81567	16
0.81933	16
0.82300	16
0.82667	16
0.83033	16
0.83400	17
0.83767	18
0.84133	19
0.84500	19
0.84867	21
0.85233	23
0.85600	23
0.85967	22
0.86333	20
0.86700	20
0.87067	20
0.87433	19
0.87800	17
0.88167	17
0.88533	19
0.88900	19
0.89267	17
0.89633	17
0.90000	19
0.90367	18
0.90733	16
0.91100	15
0.91467	14
0.91833	13
0.92200	13
0.92567	13
0.92933	14
0.93300	15
0.93667	18
0.94033	19
0.94400	20
0.94767	21
0.95133	20
0.95500	20
0.95867	21
0.96233	21
0.96600	19
0.96967	20
0.97333	20
0.97700	21
0.98067	19
0.98433	19
0.98800	17
0.99167	15
0.99533	15
0.99900	18
1.00267	22
1.00633	23
1.01000	23
1.01367	21
1.01733	20
1.02100	20
1.02467	18
1.02833	15
1.03200	14
1.03567	16
1.03933	17
1.04300	17
1.04667	17
1.05033	19
1.05400	20
1.05767	20
1.06133	22
1.06500	21
1.06867	22
1.07233	21
1.07600	19
1.07967	17
1.08333	17
1.08700	19
1.09067	21
1.09433	21
1.09800	21
1.10167	22
1.10533	23
1.10900	24
1.11267	24
1.11633	24
1.12000	22
1.12367	23
1.12733	24
1.13100	24
1.13467	23
1.13833	22
1.14200	22
1.14567	22
1.14933	24
1.15300	25
1.15667	25
1.16033	24
1.16400	21
1.16767	20
1.17133	22
1.17500	25
1.17867	26
1.18233	25
1.18600	25
1.18967	26
1.19333	27
1.19700	26
1.20067	25
1.20433	23
1.20800	23
1.21167	22
1.21533	20
1.21900	18
1.22267	17
1.22633	17
1.23000	19
1.23367	23
1.23733	25
1.24100	26
1.24467	25
1.24833	25
1.25200	27
1.25567	29
1.25933	30
1.26300	29
1.26667	29
1.27033	27
1.27400	27
1.27767	27
1.28133	27
1.28500	27
1.28867	27
1.29233	26
1.29600	26
1.29967	25
1.30333	23
1.30700	23
1.31067	27
1.31433	29
1.31800	28
1.32167	27
1.32533	27
1.32900	28
1.33267	29
1.33633	32
1.34000	32
1.34367	31
1.34733	31
1.35100	30
1.35467	28
1.35833	26
1.36200	27
1.36567	28
1.36933	29
1.37300	29
1.37667	30
1.38033	33
1.38400	34
1.38767	31
1.39133	28
1.39500	28
1.39867	29
1.40233	28
1.40600	25
1.40967	25
1.41333	26
1.41700	25
1.42067	25
1.42433	25
1.42800	26
1.43167	27
1.43533	27
1.43900	26
1.44267	25
1.44633	24
1.45000	23
1.45367	21
1.45733	21
1.46100	25
1.46467	28
1.46833	30
1.47200	33
1.47567	35
1.47933	36
1.48300	37
1.48667	38
1.49033	36
1.49400	34
1.49767	30
1.50133	29
1.50500	28
1.50867	28
1.51233	29
1.51600	29
1.51967	27
1.52333	25
1.52700	25
1.53067	25
1.53433	26
1.53800	28
1.54167	29
1.54533	30
1.54900	30
1.55267	30
1.55633	30
1.56000	31
1.56367	31
1.56733	32
1.57100	32
1.57467	29
1.57833	25
1.58200	25
1.58567	27
1.58933	29
1.59300	29
1.59667	32
1.60033	34
1.60400	35
1.60767	35
1.61133	35
1.61500	36
1.61867	37
1.62233	38
1.62600	41
1.62967	41
1.63333	40
1.63700	38
1.64067	36
1.64433	37
1.64800	38
1.65167	38
1.65533	35
1.65900	36
1.66267	38
1.66633	38
1.67000	40
1.67367	43
1.67733	44
1.68100	45
1.68467	46
1.68833	45
1.69200	44
1.69567	44
1.69933	45
1.70300	47
1.70667	49
1.71033	50
1.71400	52
1.71767	53
1.72133	54
1.72500	53
1.72867	51
1.73233	50
1.73600	50
1.73967	51
1.74333	52
1.74700	52
1.75067	51
1.75433	51
1.75800	53
1.76167	54
1.76533	52
1.76900	52
1.77267	53
1.77633	54
1.78000	55
1.78367	55
1.78733	56
1.79100	57
1.79467	57
1.79833	59
1.80200	61
1.80567	61
1.80933	59
1.81300	60
1.81667	63
1.82033	64
1.82400	64
1.82767	63
1.83133	63
1.83500	63
1.83867	63
1.84233	65
1.84600	67
1.84967	67
1.85333	68
1.85700	70
1.86067	72
1.86433	72
1.86800	71
1.87167	71
1.87533	71
1.87900	74
1.88267	75
1.88633	76
1.89000	77
1.89367	75
1.89733	74
1.90100	73
1.90467	74
1.90833	76
1.91200	77
1.91567	77
1.91933	77
1.92300	78
1.92667	78
1.93033	77
1.93400	77
1.93767	78
1.94133	78
1.94500	79
1.94867	79
1.95233	79
1.95600	81
1.95967	84
1.96333	85
1.96700	85
1.97067	85
1.97433	84
1.97800	82
1.98167	82
1.98533	81
1.98900	80
1.99267	82
1.99633	84
2.00000	85
2.00367	87
2.00733	89
2.01100	91
2.01467	93
2.01833	93
2.02200	95
2.02567	96
2.02933	97
2.03300	99
2.03667	100
2.04033	100
2.04400	101
2.04767	101
2.05133	103
2.05500	107
2.05867	109
2.06233	108
2.06600	107
2.06967	107
2.07333	107
2.07700	107
2.08067	109
2.08433	112
2.08800	112
2.09167	110
2.09533	109
2.09900	109
2.10267	112
2.10633	115
2.11000	117
2.11367	116
2.11733	117
2.12100	117
2.12467	120
2.12833	122
2.13200	123
2.13567	123
2.13933	126
2.14300	127
2.14667	127
2.15033	126
2.15400	128
2.15767	131
2.16133	133
2.16500	135
2.16867	138
2.17233	140
2.17600	143
2.17967	146
2.18333	144
2.18700	142
2.19067	142
2.19433	144
2.19800	147
2.20167	148
2.20533	151
2.20900	154
2.21267	155
2.21633	154
2.22000	154
2.22367	156
2.22733	157
2.23100	158
2.23467	159
2.23833	161
2.24200	163
2.24567	165
2.24933	168
2.25300	171
2.25667	172
2.26033	176
2.26400	179
2.26767	179
2.27133	178
2.27500	177
2.27867	178
2.28233	180
2.28600	181
2.28967	181
2.29333	183
2.29700	186
2.30067	188
2.30433	190
2.30800	191
2.31167	192
2.31533	193
2.31900	193
2.32267	195
2.32633	198
2.33000	201
2.33367	204
2.33733	205
2.34100	208
2.34467	211
2.34833	211
2.35200	212
2.35567	214
2.35933	217
2.36300	219
2.36667	222
2.37033	223
2.37400	222
2.37767	223
2.38133	224
2.38500	223
2.38867	221
2.39233	223
2.39600	227
2.39967	231
2.40333	234
2.40700	238
2.41067	242
2.41433	249
2.41800	254
2.42167	257
2.42533	260
2.42900	261
2.43267	262
2.43633	264
2.44000	268
2.44367	310
2.44733	425
2.45100	551
2.45467	659
2.45833	722
2.46200	720
2.46567	672
2.46933	616
2.47300	569
2.47667	540
2.48033	523
2.48400	503
2.48767	474
2.49133	437
2.49500	400
2.49867	366
2.50233	339
2.50600	319
2.50967	304
2.51333	297
2.51700	300
2.52067	309
2.52433	323
2.52800	340
2.53167	355
2.53533	365
2.53900	365
2.54267	357
2.54633	342
2.55000	321
2.55367	299
2.55733	281
2.56100	265
2.56467	250
2.56833	236
2.57200	225
2.57567	218
2.57933	214
2.58300	212
2.58667	211
2.59033	209
2.59400	207
2.59767	203
2.60133	193
2.60500	179
2.60867	160
2.61233	141
2.61600	122
2.61967	102
2.62333	87
2.62700	76
2.63067	69
2.63433	69
2.63800	72
2.64167	78
2.64533	88
2.64900	99
2.65267	110
2.65633	121
2.66000	130
2.66367	138
2.66733	140
2.67100	142
2.67467	142
2.67833	140
2.68200	137
2.68567	133
2.68933	128
2.69300	123
2.69667	118
2.70033	115
2.70400	115
2.70767	115
2.71133	114
2.71500	112
2.71867	108
2.72233	103
2.72600	101
2.72967	102
2.73333	104
2.73700	105
2.74067	104
2.74433	105
2.74800	106
2.75167	107
2.75533	109
2.75900	112
2.76267	114
2.76633	115
2.77000	117
2.77367	121
2.77733	120
2.78100	120
2.78467	120
2.78833	121
2.79200	120
2.79567	117
2.79933	116
2.80300	119
2.80667	122
2.81033	124
2.81400	126
2.81767	132
2.82133	151
2.82500	196
2.82867	280
2.83233	425
2.83600	658
2.83967	995
2.84333	1435
2.84700	1973
2.85067	2579
2.85433	3209
2.85800	3814
2.86167	4344
2.86533	4759
2.86900	5028
2.87267	5146
2.87633	5120
2.88000	4967
2.88367	4717
2.88733	4406
2.89100	4057
2.89467	3695
2.89833	3333
2.90200	2985
2.90567	2658
2.90933	2357
2.91300	2085
2.91667	1842
2.92033	1625
2.92400	1434
2.92767	1265
2.93133	1119
2.93500	994
2.93867	885
2.94233	790
2.94600	707
2.94967	633
2.95333	568
2.95700	511
2.96067	461
2.96433	420
2.96800	385
2.97167	352
2.97533	323
2.97900	296
2.98267	274
2.98633	257
2.99000	243
2.99367	227
2.99733	211
3.00100	199
3.00467	187
3.00833	178
3.01200	170
3.01567	163
3.01933	158
3.02300	150
3.02667	144
3.03033	140
3.03400	118
3.03767	65
3.04133	12
3.04500	-14
3.04867	-8
3.05233	21
3.05600	64
3.05967	114
3.06333	168
3.06700	225
3.07067	279
3.07433	331
3.07800	379
3.08167	422
3.08533	456
3.08900	485
3.09267	511
3.09633	535
3.10000	554
3.10367	569
3.10733	580
3.11100	590
3.11467	599
3.11833	606
3.12200	610
3.12567	611
3.12933	613
3.13300	613
3.13667	612
3.14033	612
3.14400	615
3.14767	616
3.15133	618
3.15500	618
3.15867	618
3.16233	622
3.16600	625
3.16967	625
3.17333	626
3.17700	629
3.18067	630
3.18433	629
3.18800	629
3.19167	629
3.19533	630
3.19900	630
3.20267	630
3.20633	631
3.21000	629
3.21367	630
3.21733	628
3.22100	627
3.22467	628
3.22833	627
3.23200	629
3.23567	632
3.23933	634
3.24300	637
3.24667	639
3.25033	637
3.25400	635
3.25767	637
3.26133	637
3.26500	636
3.26867	636
3.27233	639
3.27600	642
3.27967	645
3.28333	648
3.28700	652
3.29067	655
3.29433	656
3.29800	660
3.30167	665
3.30533	669
3.30900	675
3.31267	677
3.31633	679
3.32000	682
3.32367	684
3.32733	688
3.33100	690
3.33467	693
3.33833	695
3.34200	696
3.34567	695
3.34933	695
3.35300	695
3.35667	693
3.36033	691
3.36400	687
3.36767	685
3.37133	683
3.37500	680
3.37867	677
3.38233	674
3.38600	669
3.38967	667
3.39333	665
3.39700	664
3.40067	661
3.40433	657
3.40800	650
3.41167	645
3.41533	643
3.41900	641
3.42267	638
3.42633	634
3.43000	630
3.43367	626
3.43733	620
3.44100	615
3.44467	611
3.44833	609
3.45200	608
3.45567	607
3.45933	606
3.46300	602
3.46667	598
3.47033	595
3.47400	590
3.47767	584
3.48133	581
3.48500	579
3.48867	579
3.49233	577
3.49600	574
3.49967	570
3.50333	567
3.50700	566
3.51067	565
3.51433	562
3.51800	560
3.52167	558
3.52533	557
3.52900	558
3.53267	556
3.53633	554
3.54000	553
3.54367	553
3.54733	552
3.55100	549
3.55467	545
3.55833	547
3.56200	547
3.56567	548
3.56933	548
3.57300	545
3.57667	543
3.58033	542
3.58400	541
3.58767	539
3.59133	539
3.59500	538
3.59867	539
3.60233	540
3.60600	537
3.60967	534
3.61333	533
3.61700	534
3.62067	536
3.62433	539
3.62800	538
3.63167	539
3.63533	538
3.63900	538
3.64267	539
3.64633	537
3.65000	536
3.65367	534
3.65733	532
3.66100	533
3.66467	534
3.66833	534
3.67200	534
3.67567	534
3.67933	533
3.68300	531
3.68667	529
3.69033	528
3.69400	528
3.69767	529
3.70133	528
3.70500	529
3.70867	530
3.71233	530
3.71600	528
3.71967	527
3.72333	526
3.72700	527
3.73067	525
3.73433	524
3.73800	524
3.74167	524
3.74533	522
3.74900	521
3.75267	521
3.75633	520
3.76000	521
3.76367	522
3.76733	522
3.77100	525
3.77467	526
3.77833	526
3.78200	526
3.78567	524
3.78933	522
3.79300	521
3.79667	520
3.80033	519
3.80400	519
3.80767	518
3.81133	518
3.81500	519
3.81867	519
3.82233	518
3.82600	516
3.82967	513
3.83333	511
3.83700	510
3.84067	510
3.84433	508
3.84800	505
3.85167	503
3.85533	502
3.85900	502
3.86267	503
3.86633	502
3.87000	501
3.87367	500
3.87733	501
3.88100	502
3.88467	500
3.88833	498
3.89200	495
3.89567	494
3.89933	491
3.90300	488
3.90667	486
3.91033	486
3.91400	487
3.91767	486
3.92133	486
3.92500	486
3.92867	488
3.93233	488
3.93600	484
3.93967	479
3.94333	476
3.94700	476
3.95067	476
3.95433	474
3.95800	471
3.96167	468
3.96533	469
3.96900	470
3.97267	468
3.97633	467
3.98000	467
3.98367	467
3.98733	465
3.99100	464
3.99467	462
3.99833	460

[Status Trace (Column Oven Temperature)]
Interval(msec)	1000
# of Points	240
Start Time(min)	0.012
End Time(min)	3.996
Intensity Units	
Intensity Multiplier	1
R.Time (min)	Intensity
0.01245	35.05
0.02912	35.04
0.04578	35.03
0.06245	35.01
0.07912	35.01
0.09578	35.02
0.11245	35.02
0.12912	35.03
0.14578	35.01
0.16245	35.01
0.17912	35.02
0.19578	35.02
0.21245	35.03
0.22912	35.04
0.24578	35.05
0.26245	35.05
0.27912	35.05
0.29578	35.05
0.31245	35.04
0.32912	35.03
0.34578	35.03
0.36245	35.02
0.37912	35.01
0.39578	35.01
0.41245	35.02
0.42912	35.01
0.44578	35.00
0.46245	35.00
0.47912	34.99
0.49578	35.00
0.51245	35.00
0.52912	35.00
0.54578	35.00
0.56245	34.99
0.57912	34.98
0.59578	34.98
0.61245	35.00
0.62912	35.00
0.64578	35.00
0.66245	34.99
0.67912	35.00
0.69578	35.00
0.71245	35.01
0.72912	35.01
0.74578	35.00
0.76245	34.99
0.77912	34.99
0.79578	34.98
0.81245	34.98
0.82912	34.99
0.84578	34.99
0.86245	34.99
0.87912	35.01
0.89578	35.00
0.91245	34.99
0.92912	34.98
0.94578	34.99
0.96245	34.99
0.97912	34.98
0.99578	34.98
1.01245	34.97
1.02912	34.97
1.04578	34.97
1.06245	34.98
1.07912	34.98
1.09578	34.98
1.11245	34.99
1.12912	35.00
1.14578	35.00
1.16245	35.02
1.17912	35.02
1.19578	35.01
1.21245	35.01
1.22912	35.01
1.24578	35.02
1.26245	35.01
1.27912	35.02
1.29578	35.04
1.31245	35.05
1.32912	35.04
1.34578	35.03
1.36245	35.03
1.37912	35.03
1.39578	35.01
1.41245	35.00
1.42912	34.99
1.44578	34.98
1.46245	34.99
1.47912	34.99
1.49578	34.99
1.51245	35.00
1.52912	35.00
1.54578	35.01
1.56245	34.99
1.57912	35.00
1.59578	35.03
1.61245	35.11
1.62912	35.24
1.64578	35.44
1.66245	35.71
1.67912	36.07
1.69578	36.43
1.71245	36.77
1.72912	37.12
1.74578	37.43
1.76245	37.74
1.77912	38.09
1.79578	38.43
1.81245	38.75
1.82912	39.09
1.84578	39.42
1.86245	39.75
1.87912	40.07
1.89578	40.41
1.91245	40.73
1.92912	41.05
1.94578	41.37
1.96245	41.71
1.97912	42.04
1.99578	42.34
2.01245	42.66
2.02912	43.00
2.04578	43.31
2.06245	43.65
2.07912	43.96
2.09578	44.28
2.11245	44.62
2.12912	44.94
2.14578	45.25
2.16245	45.58
2.17912	45.91
2.19578	46.27
2.21245	46.64
2.22912	46.93
2.24578	47.27
2.26245	47.60
2.27912	47.94
2.29578	48.27
2.31245	48.58
2.32912	48.91
2.34578	49.24
2.36245	49.54
2.37912	49.68
2.39578	49.71
2.41245	49.68
2.42912	49.70
2.44578	49.71
2.46245	49.73
2.47912	49.72
2.49578	49.74
2.51245	49.75
2.52912	49.77
2.54578	49.79
2.56245	49.79
2.57912	49.80
2.59578	49.82
2.61245	49.82
2.62912	49.83
2.64578	49.84
2.66245	49.84
2.67912	49.87
2.69578	49.87
2.71245	49.84
2.72912	49.84
2.74578	49.86
2.76245	49.88
2.77912	49.87
2.79578	49.86
2.81245	49.86
2.82912	49.85
2.84578	49.86
2.86245	49.89
2.87912	49.91
2.89578	49.93
2.91245	49.93
2.92912	49.95
2.94578	49.95
2.96245	49.95
2.97912	49.95
2.99578	49.95
3.01245	49.95
3.02912	49.94
3.04578	49.95
3.06245	49.95
3.07912	49.96
3.09578	49.96
3.11245	49.97
3.12912	49.97
3.14578	50.01
3.16245	50.02
3.17912	50.03
3.19578	50.04
3.21245	50.05
3.22912	50.05
3.24578	50.06
3.26245	50.05
3.27912	50.05
3.29578	50.06
3.31245	50.08
3.32912	50.09
3.34578	50.09
3.36245	50.10
3.37912	50.09
3.39578	50.09
3.41245	50.10
3.42912	50.10
3.44578	50.11
3.46245	50.11
3.47912	50.10
3.49578	50.10
3.51245	50.09
3.52912	50.07
3.54578	50.05
3.56245	50.04
3.57912	50.04
3.59578	50.04
3.61245	50.04
3.62912	50.04
3.64578	50.04
3.66245	50.04
3.67912	50.03
3.69578	50.02
3.71245	50.03
3.72912	50.03
3.74578	50.03
3.76245	50.03
3.77912	50.03
3.79578	50.04
3.81245	50.03
3.82912	50.04
3.84578	50.02
3.86245	50.00
3.87912	50.01
3.89578	50.03
3.91245	50.05
3.92912	50.06
3.94578	50.07
3.96245	50.08
3.97912	50.08
3.99578	50.08

[Status Trace (Injection Unit Temperature)]
Interval(msec)	1000
# of Points	240
Start Time(min)	0.012
End Time(min)	3.996
Intensity Units	
Intensity Multiplier	1
R.Time (min)	Intensity
0.01245	99.98
0.02912	99.98
0.04578	99.98
0.06245	99.98
0.07912	99.98
0.09578	99.98
0.11245	99.99
0.12912	99.98
0.14578	99.99
0.16245	99.99
0.17912	99.99
0.19578	99.99
0.21245	99.99
0.22912	99.98
0.24578	99.99
0.26245	99.99
0.27912	99.99
0.29578	99.98
0.31245	99.99
0.32912	99.99
0.34578	99.99
0.36245	99.98
0.37912	99.99
0.39578	99.98
0.41245	99.99
0.42912	99.99
0.44578	99.99
0.46245	99.99
0.47912	99.99
0.49578	99.99
0.51245	99.99
0.52912	99.99
0.54578	99.99
0.56245	99.99
0.57912	99.99
0.59578	99.99
0.61245	99.99
0.62912	99.98
0.64578	99.99
0.66245	99.98
0.67912	99.98
0.69578	99.99
0.71245	99.99
0.72912	99.98
0.74578	99.98
0.76245	99.98
0.77912	99.98
0.79578	99.99
0.81245	99.98
0.82912	99.99
0.84578	99.98
0.86245	99.98
0.87912	99.98
0.89578	99.98
0.91245	99.98
0.92912	99.98
0.94578	99.98
0.96245	99.98
0.97912	99.98
0.99578	99.98
1.01245	99.98
1.02912	99.98
1.04578	99.98
1.06245	99.98
1.07912	99.98
1.09578	99.98
1.11245	99.98
1.12912	99.98
1.14578	99.98
1.16245	99.98
1.17912	99.98
1.19578	99.98
1.21245	99.98
1.22912	99.98
1.24578	99.98
1.26245	99.98
1.27912	99.99
1.29578	99.98
1.31245	99.98
1.32912	99.98
1.34578	99.98
1.36245	99.98
1.37912	99.98
1.39578	99.99
1.41245	99.98
1.42912	99.98
1.44578	99.98
1.46245	99.98
1.47912	99.98
1.49578	99.99
1.51245	99.98
1.52912	99.98
1.54578	99.98
1.56245	99.99
1.57912	99.98
1.59578	99.98
1.61245	99.99
1.62912	99.98
1.64578	99.99
1.66245	99.99
1.67912	99.98
1.69578	99.99
1.71245	99.98
1.72912	99.99
1.74578	99.98
1.76245	99.99
1.77912	99.99
1.79578	99.99
1.81245	99.99
1.82912	99.99
1.84578	99.98
1.86245	99.99
1.87912	99.99
1.89578	99.98
1.91245	99.98
1.92912	99.98
1.94578	99.98
1.96245	99.98
1.97912	99.98
1.99578	99.98
2.01245	99.98
2.02912	99.98
2.04578	99.98
2.06245	99.97
2.07912	99.97
2.09578	99.97
2.11245	99.97
2.12912	99.97
2.14578	99.97
2.16245	99.97
2.17912	99.97
2.19578	99.97
2.21245	99.97
2.22912	99.97
2.24578	99.97
2.26245	99.97
2.27912	99.97
2.29578	99.97
2.31245	99.97
2.32912	99.97
2.34578	99.97
2.36245	99.97
2.37912	99.97
2.39578	99.97
2.41245	99.97
2.42912	99.97
2.44578	99.97
2.46245	99.97
2.47912	99.97
2.49578	99.97
2.51245	99.97
2.52912	99.97
2.54578	99.97
2.56245	99.97
2.57912	99.97
2.59578	99.97
2.61245	99.97
2.62912	99.98
2.64578	99.98
2.66245	99.98
2.67912	99.98
2.69578	99.98
2.71245	99.98
2.72912	99.99
2.74578	99.98
2.76245	99.99
2.77912	99.99
2.79578	99.99
2.81245	99.99
2.82912	100.00
2.84578	99.99
2.86245	99.99
2.87912	100.00
2.89578	100.00
2.91245	100.00
2.92912	100.01
2.94578	100.00
2.96245	100.00
2.97912	100.01
2.99578	100.01
3.01245	100.01
3.02912	100.02
3.04578	100.01
3.06245	100.01
3.07912	100.02
3.09578	100.02
3.11245	100.02
3.12912	100.02
3.14578	100.02
3.16245	100.02
3.17912	100.03
3.19578	100.03
3.21245	100.02
3.22912	100.03
3.24578	100.03
3.26245	100.03
3.27912	100.02
3.29578	100.03
3.31245	100.03
3.32912	100.03
3.34578	100.03
3.36245	100.03
3.37912	100.03
3.39578	100.03
3.41245	100.03
3.42912	100.04
3.44578	100.03
3.46245	100.03
3.47912	100.04
3.49578	100.03
3.51245	100.03
3.52912	100.03
3.54578	100.03
3.56245	100.04
3.57912	100.03
3.59578	100.03
3.61245	100.03
3.62912	100.03
3.64578	100.03
3.66245	100.04
3.67912	100.03
3.69578	100.03
3.71245	100.03
3.72912	100.03
3.74578	100.03
3.76245	100.03
3.77912	100.03
3.79578	100.03
3.81245	100.04
3.82912	100.03
3.84578	100.03
3.86245	100.03
3.87912	100.03
3.89578	100.04
3.91245	100.04
3.92912	100.04
3.94578	100.04
3.96245	100.04
3.97912	100.04
3.99578	100.04

[Status Trace (Carrier Gas Pressure)]
Interval(msec)	1000
# of Points	240
Start Time(min)	0.012
End Time(min)	3.996
Intensity Units	
Intensity Multiplier	1
R.Time (min)	Intensity
0.01245	57.98
0.02912	55.06
0.04578	57.69
0.06245	59.72
0.07912	58.84
0.09578	57.99
0.11245	57.99
0.12912	58.01
0.14578	58.01
0.16245	58.00
0.17912	58.00
0.19578	58.00
0.21245	58.00
0.22912	58.00
0.24578	58.00
0.26245	58.00
0.27912	58.00
0.29578	58.00
0.31245	58.00
0.32912	58.00
0.34578	58.00
0.36245	58.00
0.37912	58.00
0.39578	58.00
0.41245	58.00
0.42912	58.00
0.44578	58.00
0.46245	58.00
0.47912	58.00
0.49578	58.00
0.51245	58.00
0.52912	58.00
0.54578	58.00
0.56245	58.00
0.57912	58.00
0.59578	58.00
0.61245	58.00
0.62912	58.00
0.64578	58.00
0.66245	58.00
0.67912	58.00
0.69578	58.00
0.71245	58.00
0.72912	58.00
0.74578	58.00
0.76245	58.00
0.77912	58.00
0.79578	58.00
0.81245	58.00
0.82912	58.00
0.84578	58.00
0.86245	58.00
0.87912	58.00
0.89578	58.00
0.91245	58.00
0.92912	58.00
0.94578	58.00
0.96245	58.00
0.97912	58.00
0.99578	58.00
1.01245	58.00
1.02912	58.00
1.04578	58.00
1.06245	58.00
1.07912	58.00
1.09578	58.00
1.11245	58.00
1.12912	58.00
1.14578	58.00
1.16245	58.00
1.17912	58.00
1.19578	58.00
1.21245	58.00
1.22912	58.00
1.24578	58.00
1.26245	58.00
1.27912	58.00
1.29578	58.00
1.31245	58.00
1.32912	58.00
1.34578	58.00
1.36245	58.00
1.37912	58.00
1.39578	58.00
1.41245	58.00
1.42912	58.00
1.44578	58.00
1.46245	58.00
1.47912	58.00
1.49578	58.00
1.51245	58.00
1.52912	58.00
1.54578	58.00
1.56245	58.00
1.57912	58.00
1.59578	58.00
1.61245	58.00
1.62912	58.00
1.64578	58.00
1.66245	58.01
1.67912	58.01
1.69578	58.00
1.71245	58.00
1.72912	58.00
1.74578	58.00
1.76245	58.00
1.77912	58.00
1.79578	58.00
1.81245	58.00
1.82912	58.00
1.84578	58.00
1.86245	58.00
1.87912	58.00
1.89578	58.00
1.91245	58.00
1.92912	58.00
1.94578	58.00
1.96245	58.00
1.97912	58.00
1.99578	58.00
2.01245	58.00
2.02912	58.00
2.04578	58.00
2.06245	58.00
2.07912	58.00
2.09578	58.00
2.11245	58.00
2.12912	58.00
2.14578	58.00
2.16245	58.00
2.17912	58.00
2.19578	58.00
2.21245	58.00
2.22912	58.00
2.24578	58.00
2.26245	58.00
2.27912	58.00
2.29578	58.00
2.31245	58.00
2.32912	58.00
2.34578	58.00
2.36245	58.00
2.37912	57.99
2.39578	57.99
2.41245	58.00
2.42912	58.00
2.44578	58.00
2.46245	58.00
2.47912	58.00
2.49578	58.00
2.51245	57.99
2.52912	57.99
2.54578	58.00
2.56245	58.00
2.57912	58.00
2.59578	58.00
2.61245	58.00
2.62912	58.00
2.64578	58.00
2.66245	58.00
2.67912	58.00
2.69578	58.00
2.71245	58.00
2.72912	58.00
2.74578	58.00
2.76245	58.00
2.77912	58.00
2.79578	58.00
2.81245	58.00
2.82912	58.00
2.84578	58.00
2.86245	58.00
2.87912	58.00
2.89578	58.00
2.91245	58.00
2.92912	58.00
2.94578	58.00
2.96245	58.00
2.97912	58.00
2.99578	58.00
3.01245	58.00
3.02912	58.00
3.04578	58.00
3.06245	58.00
3.07912	58.00
3.09578	58.00
3.11245	58.00
3.12912	58.00
3.14578	58.00
3.16245	58.00
3.17912	58.00
3.19578	58.00
3.21245	58.00
3.22912	58.00
3.24578	58.00
3.26245	58.00
3.27912	58.00
3.29578	58.00
3.31245	58.00
3.32912	58.00
3.34578	58.00
3.36245	58.00
3.37912	58.00
3.39578	58.00
3.41245	58.00
3.42912	58.00
3.44578	58.00
3.46245	58.00
3.47912	58.00
3.49578	58.00
3.51245	58.00
3.52912	58.00
3.54578	58.00
3.56245	58.00
3.57912	58.00
3.59578	58.00
3.61245	58.00
3.62912	58.00
3.64578	58.00
3.66245	58.00
3.67912	58.00
3.69578	58.00
3.71245	58.00
3.72912	58.00
3.74578	58.00
3.76245	58.00
3.77912	58.00
3.79578	58.00
3.81245	58.00
3.82912	58.00
3.84578	58.00
3.86245	58.00
3.87912	58.00
3.89578	58.00
3.91245	58.00
3.92912	58.00
3.94578	58.00
3.96245	58.00
3.97912	58.00
3.99578	58.00

[Status Trace (Carrier Gas Flow)]
Interval(msec)	1000
# of Points	240
Start Time(min)	0.012
End Time(min)	3.996
Intensity Units	
Intensity Multiplier	1
R.Time (min)	Intensity
0.01245	34.60
0.02912	34.53
0.04578	34.54
0.06245	34.53
0.07912	34.51
0.09578	34.52
0.11245	34.52
0.12912	34.52
0.14578	34.52
0.16245	34.52
0.17912	34.52
0.19578	34.51
0.21245	34.52
0.22912	34.52
0.24578	34.53
0.26245	34.53
0.27912	34.52
0.29578	34.52
0.31245	34.52
0.32912	34.52
0.34578	34.52
0.36245	34.52
0.37912	34.52
0.39578	34.52
0.41245	34.52
0.42912	34.53
0.44578	34.52
0.46245	34.52
0.47912	34.51
0.49578	34.51
0.51245	34.52
0.52912	34.52
0.54578	34.52
0.56245	34.52
0.57912	34.52
0.59578	34.53
0.61245	34.52
0.62912	34.51
0.64578	34.52
0.66245	34.52
0.67912	34.52
0.69578	34.52
0.71245	34.53
0.72912	34.52
0.74578	34.52
0.76245	34.52
0.77912	34.52
0.79578	34.51
0.81245	34.51
0.82912	34.51
0.84578	34.52
0.86245	34.53
0.87912	34.51
0.89578	34.52
0.91245	34.51
0.92912	34.52
0.94578	34.52
0.96245	34.52
0.97912	34.52
0.99578	34.52
1.01245	34.52
1.02912	34.52
1.04578	34.52
1.06245	34.52
1.07912	34.52
1.09578	34.51
1.11245	34.52
1.12912	34.52
1.14578	34.51
1.16245	34.52
1.17912	34.51
1.19578	34.52
1.21245	34.52
1.22912	34.52
1.24578	34.51
1.26245	34.51
1.27912	34.51
1.29578	34.52
1.31245	34.52
1.32912	34.51
1.34578	34.52
1.36245	34.52
1.37912	34.52
1.39578	34.52
1.41245	34.52
1.42912	34.52
1.44578	34.52
1.46245	34.52
1.47912	34.51
1.49578	34.51
1.51245	34.52
1.52912	34.52
1.54578	34.51
1.56245	34.52
1.57912	34.52
1.59578	34.52
1.61245	34.51
1.62912	34.52
1.64578	34.52
1.66245	34.51
1.67912	34.52
1.69578	34.52
1.71245	34.52
1.72912	34.52
1.74578	34.51
1.76245	34.51
1.77912	34.52
1.79578	34.52
1.81245	34.51
1.82912	34.52
1.84578	34.52
1.86245	34.52
1.87912	34.51
1.89578	34.52
1.91245	34.51
1.92912	34.52
1.94578	34.52
1.96245	34.52
1.97912	34.52
1.99578	34.52
2.01245	34.52
2.02912	34.52
2.04578	34.52
2.06245	34.52
2.07912	34.52
2.09578	34.52
2.11245	34.52
2.12912	34.52
2.14578	34.53
2.16245	34.52
2.17912	34.52
2.19578	34.51
2.21245	34.52
2.22912	34.51
2.24578	34.52
2.26245	34.52
2.27912	34.51
2.29578	34.52
2.31245	34.52
2.32912	34.52
2.34578	34.51
2.36245	34.51
2.37912	34.52
2.39578	34.52
2.41245	34.51
2.42912	34.52
2.44578	34.52
2.46245	34.52
2.47912	34.52
2.49578	34.51
2.51245	34.52
2.52912	34.52
2.54578	34.51
2.56245	34.52
2.57912	34.52
2.59578	34.52
2.61245	34.52
2.62912	34.52
2.64578	34.53
2.66245	34.51
2.67912	34.52
2.69578	34.51
2.71245	34.52
2.72912	34.52
2.74578	34.51
2.76245	34.52
2.77912	34.52
2.79578	34.53
2.81245	34.52
2.82912	34.52
2.84578	34.52
2.86245	34.52
2.87912	34.52
2.89578	34.51
2.91245	34.52
2.92912	34.52
2.94578	34.52
2.96245	34.52
2.97912	34.52
2.99578	34.52
3.01245	34.52
3.02912	34.52
3.04578	34.52
3.06245	34.51
3.07912	34.52
3.09578	34.52
3.11245	34.52
3.12912	34.51
3.14578	34.52
3.16245	34.52
3.17912	34.51
3.19578	34.52
3.21245	34.52
3.22912	34.52
3.24578	34.52
3.26245	34.52
3.27912	34.52
3.29578	34.52
3.31245	34.52
3.32912	34.52
3.34578	34.52
3.36245	34.53
3.37912	34.52
3.39578	34.52
3.41245	34.52
3.42912	34.52
3.44578	34.51
3.46245	34.52
3.47912	34.52
3.49578	34.53
3.51245	34.52
3.52912	34.51
3.54578	34.52
3.56245	34.52
3.57912	34.52
3.59578	34.52
3.61245	34.52
3.62912	34.52
3.64578	34.52
3.66245	34.52
3.67912	34.51
3.69578	34.52
3.71245	34.52
3.72912	34.52
3.74578	34.52
3.76245	34.52
3.77912	34.52
3.79578	34.52
3.81245	34.52
3.82912	34.52
3.84578	34.52
3.86245	34.52
3.87912	34.51
3.89578	34.52
3.91245	34.52
3.92912	34.52
3.94578	34.52
3.96245	34.52
3.97912	34.52
3.99578	34.52

[Status Trace (Column Flow)]
Interval(msec)	1000
# of Points	240
Start Time(min)	0.012
End Time(min)	3.996
Intensity Units	
Intensity Multiplier	1
R.Time (min)	Intensity
0.01245	5.56
0.02912	5.22
0.04578	5.53
0.06245	5.77
0.07912	5.66
0.09578	5.56
0.11245	5.56
0.12912	5.57
0.14578	5.57
0.16245	5.57
0.17912	5.56
0.19578	5.56
0.21245	5.56
0.22912	5.56
0.24578	5.56
0.26245	5.56
0.27912	5.56
0.29578	5.56
0.31245	5.56
0.32912	5.56
0.34578	5.56
0.36245	5.56
0.37912	5.56
0.39578	5.56
0.41245	5.56
0.42912	5.56
0.44578	5.56
0.46245	5.56
0.47912	5.57
0.49578	5.57
0.51245	5.56
0.52912	5.56
0.54578	5.56
0.56245	5.57
0.57912	5.57
0.59578	5.57
0.61245	5.56
0.62912	5.56
0.64578	5.56
0.66245	5.56
0.67912	5.56
0.69578	5.56
0.71245	5.56
0.72912	5.56
0.74578	5.56
0.76245	5.57
0.77912	5.57
0.79578	5.57
0.81245	5.57
0.82912	5.57
0.84578	5.57
0.86245	5.57
0.87912	5.56
0.89578	5.57
0.91245	5.57
0.92912	5.57
0.94578	5.57
0.96245	5.57
0.97912	5.57
0.99578	5.57
1.01245	5.57
1.02912	5.57
1.04578	5.57
1.06245	5.57
1.07912	5.57
1.09578	5.57
1.11245	5.57
1.12912	5.57
1.14578	5.57
1.16245	5.56
1.17912	5.56
1.19578	5.56
1.21245	5.56
1.22912	5.56
1.24578	5.56
1.26245	5.56
1.27912	5.56
1.29578	5.56
1.31245	5.56
1.32912	5.56
1.34578	5.56
1.36245	5.56
1.37912	5.56
1.39578	5.56
1.41245	5.56
1.42912	5.57
1.44578	5.57
1.46245	5.57
1.47912	5.57
1.49578	5.57
1.51245	5.56
1.52912	5.56
1.54578	5.56
1.56245	5.56
1.57912	5.56
1.59578	5.56
1.61245	5.56
1.62912	5.56
1.64578	5.55
1.66245	5.54
1.67912	5.53
1.69578	5.52
1.71245	5.51
1.72912	5.50
1.74578	5.49
1.76245	5.48
1.77912	5.47
1.79578	5.46
1.81245	5.45
1.82912	5.44
1.84578	5.43
1.86245	5.42
1.87912	5.41
1.89578	5.40
1.91245	5.39
1.92912	5.38
1.94578	5.37
1.96245	5.36
1.97912	5.35
1.99578	5.34
2.01245	5.33
2.02912	5.32
2.04578	5.31
2.06245	5.30
2.07912	5.29
2.09578	5.28
2.11245	5.27
2.12912	5.26
2.14578	5.25
2.16245	5.24
2.17912	5.23
2.19578	5.22
2.21245	5.21
2.22912	5.20
2.24578	5.20
2.26245	5.19
2.27912	5.18
2.29578	5.17
2.31245	5.16
2.32912	5.15
2.34578	5.14
2.36245	5.13
2.37912	5.13
2.39578	5.13
2.41245	5.13
2.42912	5.13
2.44578	5.13
2.46245	5.13
2.47912	5.13
2.49578	5.13
2.51245	5.12
2.52912	5.12
2.54578	5.12
2.56245	5.12
2.57912	5.12
2.59578	5.12
2.61245	5.12
2.62912	5.12
2.64578	5.12
2.66245	5.12
2.67912	5.12
2.69578	5.12
2.71245	5.12
2.72912	5.12
2.74578	5.12
2.76245	5.12
2.77912	5.12
2.79578	5.12
2.81245	5.12
2.82912	5.12
2.84578	5.12
2.86245	5.12
2.87912	5.12
2.89578	5.12
2.91245	5.12
2.92912	5.12
2.94578	5.12
2.96245	5.12
2.97912	5.12
2.99578	5.12
3.01245	5.12
3.02912	5.12
3.04578	5.12
3.06245	5.12
3.07912	5.12
3.09578	5.12
3.11245	5.12
3.12912	5.12
3.14578	5.12
3.16245	5.12
3.17912	5.12
3.19578	5.12
3.21245	5.12
3.22912	5.12
3.24578	5.12
3.26245	5.12
3.27912	5.12
3.29578	5.12
3.31245	5.12
3.32912	5.12
3.34578	5.12
3.36245	5.12
3.37912	5.12
3.39578	5.12
3.41245	5.12
3.42912	5.12
3.44578	5.12
3.46245	5.12
3.47912	5.12
3.49578	5.12
3.51245	5.12
3.52912	5.12
3.54578	5.12
3.56245	5.12
3.57912	5.12
3.59578	5.12
3.61245	5.12
3.62912	5.12
3.64578	5.12
3.66245	5.12
3.67912	5.12
3.69578	5.12
3.71245	5.12
3.72912	5.12
3.74578	5.12
3.76245	5.12
3.77912	5.12
3.79578	5.12
3.81245	5.12
3.82912	5.12
3.84578	5.12
3.86245	5.12
3.87912	5.12
3.89578	5.12
3.91245	5.12
3.92912	5.12
3.94578	5.12
3.96245	5.12
3.97912	5.12
3.99578	5.12

[Status Trace (Linear Velocity)]
Interval(msec)	1000
# of Points	240
Start Time(min)	0.012
End Time(min)	3.996
Intensity Units	
Intensity Multiplier	1
R.Time (min)	Intensity
0.01245	39.01
0.02912	37.09
0.04578	38.82
0.06245	40.15
0.07912	39.57
0.09578	39.02
0.11245	39.02
0.12912	39.03
0.14578	39.03
0.16245	39.03
0.17912	39.03
0.19578	39.03
0.21245	39.03
0.22912	39.02
0.24578	39.02
0.26245	39.02
0.27912	39.02
0.29578	39.02
0.31245	39.02
0.32912	39.03
0.34578	39.02
0.36245	39.02
0.37912	39.03
0.39578	39.03
0.41245	39.03
0.42912	39.03
0.44578	39.03
0.46245	39.03
0.47912	39.03
0.49578	39.03
0.51245	39.03
0.52912	39.03
0.54578	39.03
0.56245	39.03
0.57912	39.03
0.59578	39.03
0.61245	39.03
0.62912	39.03
0.64578	39.03
0.66245	39.03
0.67912	39.03
0.69578	39.03
0.71245	39.03
0.72912	39.03
0.74578	39.03
0.76245	39.03
0.77912	39.03
0.79578	39.03
0.81245	39.03
0.82912	39.03
0.84578	39.03
0.86245	39.03
0.87912	39.03
0.89578	39.03
0.91245	39.03
0.92912	39.03
0.94578	39.03
0.96245	39.03
0.97912	39.03
0.99578	39.03
1.01245	39.03
1.02912	39.03
1.04578	39.03
1.06245	39.03
1.07912	39.03
1.09578	39.03
1.11245	39.03
1.12912	39.03
1.14578	39.03
1.16245	39.03
1.17912	39.02
1.19578	39.03
1.21245	39.03
1.22912	39.03
1.24578	39.03
1.26245	39.03
1.27912	39.02
1.29578	39.02
1.31245	39.02
1.32912	39.02
1.34578	39.02
1.36245	39.02
1.37912	39.02
1.39578	39.03
1.41245	39.03
1.42912	39.03
1.44578	39.03
1.46245	39.03
1.47912	39.03
1.49578	39.03
1.51245	39.03
1.52912	39.03
1.54578	39.03
1.56245	39.03
1.57912	39.03
1.59578	39.02
1.61245	39.02
1.62912	39.01
1.64578	38.99
1.66245	38.96
1.67912	38.93
1.69578	38.89
1.71245	38.86
1.72912	38.82
1.74578	38.80
1.76245	38.76
1.77912	38.73
1.79578	38.70
1.81245	38.67
1.82912	38.64
1.84578	38.61
1.86245	38.58
1.87912	38.55
1.89578	38.52
1.91245	38.48
1.92912	38.45
1.94578	38.43
1.96245	38.39
1.97912	38.36
1.99578	38.34
2.01245	38.31
2.02912	38.27
2.04578	38.25
2.06245	38.21
2.07912	38.18
2.09578	38.16
2.11245	38.13
2.12912	38.10
2.14578	38.07
2.16245	38.04
2.17912	38.01
2.19578	37.98
2.21245	37.94
2.22912	37.91
2.24578	37.89
2.26245	37.86
2.27912	37.83
2.29578	37.80
2.31245	37.77
2.32912	37.74
2.34578	37.71
2.36245	37.68
2.37912	37.67
2.39578	37.66
2.41245	37.67
2.42912	37.67
2.44578	37.67
2.46245	37.67
2.47912	37.67
2.49578	37.67
2.51245	37.66
2.52912	37.65
2.54578	37.66
2.56245	37.66
2.57912	37.66
2.59578	37.66
2.61245	37.66
2.62912	37.66
2.64578	37.66
2.66245	37.66
2.67912	37.65
2.69578	37.65
2.71245	37.66
2.72912	37.66
2.74578	37.66
2.76245	37.65
2.77912	37.65
2.79578	37.65
2.81245	37.66
2.82912	37.66
2.84578	37.66
2.86245	37.65
2.87912	37.65
2.89578	37.65
2.91245	37.65
2.92912	37.65
2.94578	37.65
2.96245	37.65
2.97912	37.65
2.99578	37.65
3.01245	37.65
3.02912	37.65
3.04578	37.65
3.06245	37.65
3.07912	37.65
3.09578	37.65
3.11245	37.65
3.12912	37.64
3.14578	37.64
3.16245	37.64
3.17912	37.64
3.19578	37.64
3.21245	37.64
3.22912	37.64
3.24578	37.64
3.26245	37.64
3.27912	37.64
3.29578	37.64
3.31245	37.64
3.32912	37.63
3.34578	37.63
3.36245	37.63
3.37912	37.63
3.39578	37.63
3.41245	37.63
3.42912	37.63
3.44578	37.63
3.46245	37.63
3.47912	37.63
3.49578	37.63
3.51245	37.63
3.52912	37.64
3.54578	37.64
3.56245	37.64
3.57912	37.64
3.59578	37.64
3.61245	37.64
3.62912	37.64
3.64578	37.64
3.66245	37.64
3.67912	37.64
3.69578	37.64
3.71245	37.64
3.72912	37.64
3.74578	37.64
3.76245	37.64
3.77912	37.64
3.79578	37.64
3.81245	37.64
3.82912	37.64
3.84578	37.64
3.86245	37.64
3.87912	37.64
3.89578	37.64
3.91245	37.64
3.92912	37.64
3.94578	37.64
3.96245	37.64
3.97912	37.64
3.99578	37.64

