[Header]
Application Name	LabSolutions
Version	5.110
Data File Name	C:\Users\User\Desktop\GC Analyses\Jack\Nachusa Grasslands Sampling\T1 Timepoint July 12th\T1_07122022_001.gcd
Output Date	3/14/2023
Output Time	3:40:56 PM

[File Information]
Type	Data File
Generated	3/8/2023 1:20:17 PM
Generated by	System Administrator
Modified	3/8/2023 1:24:29 PM
Modified by	System Administrator

[Sample Information]
Operator Name	System Administrator
Acquired	3/8/2023 1:20:28 PM
Sample Type	0:Unknown
Level	0
Sample Name	001
Sample ID	001
ISTD Amount1	1
ISTD Amount2	1
ISTD Amount3	1
ISTD Amount4	1
ISTD Amount5	1
ISTD Amount6	1
ISTD Amount7	1
ISTD Amount8	1
ISTD Amount9	1
ISTD Amount10	1
ISTD Amount11	1
ISTD Amount12	1
ISTD Amount13	1
ISTD Amount14	1
ISTD Amount15	1
ISTD Amount16	1
ISTD Amount17	1
ISTD Amount18	1
ISTD Amount19	1
ISTD Amount20	1
ISTD Amount21	1
ISTD Amount22	1
ISTD Amount23	1
ISTD Amount24	1
ISTD Amount25	1
ISTD Amount26	1
ISTD Amount27	1
ISTD Amount28	1
ISTD Amount29	1
ISTD Amount30	1
ISTD Amount31	1
ISTD Amount32	1
Sample Amount	1
Dilution Factor	1
Vial#	0
Injection Volume	1
Injection Count	1
Bar Code	

[Original Files]
Data File	C:\Users\User\Desktop\GC Analyses\Jack\Nachusa Grasslands Sampling\T1 Timepoint July 12th\T1_07122022_001.gcd
Method File	C:\LabSolutions\Data\GHG_4min_2022\ghg3_togas_w_acet_4 min_new_int.gcm
Batch File	C:\LabSolutions\Data\AutoSamplerTesting\T1_07122022.gcb
Report Format File	c:\LabSolutions\System\DEFAULT.lsr

[File Description]


[Configuration]
Instrument Name	C0B7VH3-Instrument1
Instrument #	1
Line #	1
# of Detectors	3
Detector ID	DET#1	DET#2	DET#3
Detector Name	FID	PTCD	ECD
# of Channels	1	1	1

[Peak Table(Ch1)]
# of Peaks	3
Peak#	R.Time	I.Time	F.Time	Area	Height	A/H	Conc.	Mark	ID#	Name	k'	Plate #	Plate Ht.	Tailing	Resolution	Sep.Factor	Area Ratio	Height Ratio	Conc. %	Norm Conc.
1	1.457	1.421	1.534	9115	4120	2.213	64.354	   	1	CO	0.000	9366	16.015	2.551	0.000	0.000	0	0	6.315	6.315
2	1.567	1.534	1.644	21480	10645	2.018	415.326	 V 	2	CH4	0.075	11053	13.571	1.238	1.835	0.000	0	0	40.755	40.755
3	1.996	1.949	2.535	2149278	1014490	2.119	539.410	   	3	CO2	0.370	17043	8.801	1.290	7.103	4.900	0	0	52.931	52.931

[Peak Table(Ch2)]
# of Peaks	0

[Peak Table(Ch3)]
# of Peaks	5
Peak#	R.Time	I.Time	F.Time	Area	Height	A/H	Conc.	Mark	ID#	Name	k'	Plate #	Plate Ht.	Tailing	Resolution	Sep.Factor	Area Ratio	Height Ratio	Conc. %	Norm Conc.
1	2.462	2.323	2.521	1605	376	4.264	0.000	   			0.000	5542	27.065	0.000	0.000	0.000	0	0	0.000	0.000
2	2.550	2.521	2.634	1224	261	4.684	0.000	 V 			0.036	2621	57.238	0.000	0.531	0.000	0	0	0.000	0.000
3	2.689	2.656	2.752	171	49	3.508	0.000	   			0.092	12401	12.096	1.440	0.942	2.583	0	0	0.000	0.000
4	2.873	2.796	3.140	62022	16017	3.872	1.584	   	1	N2O	0.167	12629	11.878	1.637	1.844	1.806	0	0	100.000	100.000
5	3.709	3.591	3.848	121	14	8.819	0.000	   			0.506	17591	8.527	1.096	7.809	3.036	0	0	0.000	0.000

[Compound Results(Ch1)]
# of IDs	6
ID#	Name	R.Time	Area	Height	Conc.	Curve	3rd	2nd	1st	Constant	Area Ratio	Height Ratio	Conc. %	Norm Conc.
1	CO	1.457	9115	4120	64.354	Linear	0.000000e+00	0.000000e+00	1.416423e+002	0.000000e+00	0	0	6.315	6.315
2	CH4	1.567	21480	10645	415.326	Linear	0.000000e+00	0.000000e+00	5.171738e+001	0.000000e+00	0	0	40.755	40.755
3	CO2	1.996	2149278	1014490	539.410	Linear	0.000000e+00	0.000000e+00	3.984494e+003	0.000000e+00	0	0	52.931	52.931
4	Ethylene	0.000	0	0	0.000	Linear	0.000000e+00	0.000000e+00	0.000000e+00	0.000000e+00	0	0	0.000	0.000
5	Acetylene	0.000	0	0	0.000	Linear	0.000000e+00	0.000000e+00	0.000000e+00	0.000000e+00	0	0	0.000	0.000
6	Ethane	0.000	0	0	0.000	Linear	0.000000e+00	0.000000e+00	0.000000e+00	0.000000e+00	0	0	0.000	0.000

[Compound Results(Ch2)]
# of IDs	5
ID#	Name	R.Time	Area	Height	Conc.	Curve	3rd	2nd	1st	Constant	Area Ratio	Height Ratio	Conc. %	Norm Conc.
1	Hydrogen	0.000	0	0	0.000	Linear	0.000000e+00	0.000000e+00	0.000000e+00	0.000000e+00	0	0	0.000	0.000
2	Oxygen	0.000	0	0	0.000	Linear	0.000000e+00	0.000000e+00	0.000000e+00	0.000000e+00	0	0	0.000	0.000
3	Nitrogen	0.000	0	0	0.000	Linear	0.000000e+00	0.000000e+00	0.000000e+00	0.000000e+00	0	0	0.000	0.000
4	Methane	0.000	0	0	0.000	Linear	0.000000e+00	0.000000e+00	0.000000e+00	0.000000e+00	0	0	0.000	0.000
5	Carbon Monoxide	0.000	0	0	0.000	Linear	0.000000e+00	0.000000e+00	0.000000e+00	0.000000e+00	0	0	0.000	0.000

[Compound Results(Ch3)]
# of IDs	2
ID#	Name	R.Time	Area	Height	Conc.	Curve	3rd	2nd	1st	Constant	Area Ratio	Height Ratio	Conc. %	Norm Conc.
1	N2O	2.873	62022	16017	1.584	Linear	0.000000e+00	0.000000e+00	3.915173e+004	0.000000e+00	0	0	100.000	100.000
2	SF6	0.000	0	0	0.000	Linear	0.000000e+00	0.000000e+00	0.000000e+00	0.000000e+00	0	0	0.000	0.000

[Group Results(Ch1)]
# of Groups	0

[Group Results(Ch2)]
# of Groups	0

[Group Results(Ch3)]
# of Groups	0

[Chromatogram (Ch1)]
Interval(msec)	220
# of Points	1091
Start Time(min)	0.002
End Time(min)	3.998
R.Time (min)	Intensity
0.00167	-4
0.00533	-13
0.00900	-22
0.01267	-31
0.01633	-35
0.02000	-33
0.02367	-31
0.02733	-31
0.03100	-31
0.03467	-31
0.03833	-31
0.04200	-26
0.04567	-16
0.04933	-7
0.05300	-4
0.05667	-7
0.06033	-13
0.06400	-22
0.06767	-25
0.07133	-20
0.07500	-14
0.07867	-16
0.08233	-22
0.08600	-26
0.08967	-29
0.09333	-22
0.09700	-9
0.10067	-0
0.10433	1
0.10800	-3
0.11167	-7
0.11533	-15
0.11900	-26
0.12267	-31
0.12633	-28
0.13000	-20
0.13367	-9
0.13733	0
0.14100	5
0.14467	3
0.14833	-6
0.15200	-15
0.15567	-19
0.15933	-26
0.16300	-33
0.16667	-34
0.17033	-32
0.17400	-32
0.17767	-35
0.18133	-37
0.18500	-39
0.18867	-39
0.19233	-37
0.19600	-34
0.19967	-31
0.20333	-28
0.20700	-24
0.21067	-21
0.21433	-17
0.21800	-11
0.22167	-5
0.22533	-5
0.22900	-9
0.23267	-11
0.23633	-13
0.24000	-18
0.24367	-23
0.24733	-29
0.25100	-31
0.25467	-28
0.25833	-21
0.26200	-12
0.26567	-1
0.26933	4
0.27300	0
0.27667	-8
0.28033	-18
0.28400	-26
0.28767	-31
0.29133	-34
0.29500	-35
0.29867	-34
0.30233	-26
0.30600	-12
0.30967	-4
0.31333	-4
0.31700	-9
0.32067	-16
0.32433	-21
0.32800	-22
0.33167	-24
0.33533	-25
0.33900	-24
0.34267	-23
0.34633	-24
0.35000	-24
0.35367	-26
0.35733	-27
0.36100	-27
0.36467	-29
0.36833	-29
0.37200	-31
0.37567	-33
0.37933	-34
0.38300	-33
0.38667	-27
0.39033	-20
0.39400	-16
0.39767	-18
0.40133	-20
0.40500	-24
0.40867	-30
0.41233	-35
0.41600	-38
0.41967	-39
0.42333	-36
0.42700	-31
0.43067	-25
0.43433	-19
0.43800	-16
0.44167	-12
0.44533	-8
0.44900	-4
0.45267	-4
0.45633	-10
0.46000	-14
0.46367	-17
0.46733	-20
0.47100	-19
0.47467	-18
0.47833	-16
0.48200	-15
0.48567	-14
0.48933	-18
0.49300	-20
0.49667	-23
0.50033	-24
0.50400	-28
0.50767	-35
0.51133	-40
0.51500	-40
0.51867	-34
0.52233	-24
0.52600	-14
0.52967	-5
0.53333	1
0.53700	0
0.54067	-7
0.54433	-18
0.54800	-26
0.55167	-28
0.55533	-30
0.55900	-30
0.56267	-31
0.56633	-29
0.57000	-26
0.57367	-24
0.57733	-24
0.58100	-24
0.58467	-26
0.58833	-32
0.59200	-38
0.59567	-39
0.59933	-35
0.60300	-21
0.60667	-8
0.61033	0
0.61400	1
0.61767	-5
0.62133	-10
0.62500	-21
0.62867	-31
0.63233	-38
0.63600	-43
0.63967	-42
0.64333	-39
0.64700	-36
0.65067	-36
0.65433	-36
0.65800	-34
0.66167	-31
0.66533	-30
0.66900	-30
0.67267	-27
0.67633	-23
0.68000	-16
0.68367	-12
0.68733	-16
0.69100	-24
0.69467	-31
0.69833	-31
0.70200	-27
0.70567	-20
0.70933	-11
0.71300	-5
0.71667	-6
0.72033	-14
0.72400	-22
0.72767	-26
0.73133	-31
0.73500	-38
0.73867	-44
0.74233	-47
0.74600	-44
0.74967	-37
0.75333	-29
0.75700	-25
0.76067	-25
0.76433	-27
0.76800	-32
0.77167	-33
0.77533	-31
0.77900	-27
0.78267	-27
0.78633	-33
0.79000	-38
0.79367	-38
0.79733	-35
0.80100	-31
0.80467	-28
0.80833	-22
0.81200	-17
0.81567	-12
0.81933	-6
0.82300	2
0.82667	8
0.83033	9
0.83400	4
0.83767	-6
0.84133	-12
0.84500	-16
0.84867	-21
0.85233	-27
0.85600	-30
0.85967	-29
0.86333	-27
0.86700	-31
0.87067	-40
0.87433	-46
0.87800	-47
0.88167	-48
0.88533	-48
0.88900	-44
0.89267	-37
0.89633	-27
0.90000	-21
0.90367	-17
0.90733	-16
0.91100	-12
0.91467	-6
0.91833	1
0.92200	6
0.92567	5
0.92933	0
0.93300	-5
0.93667	-8
0.94033	-10
0.94400	-11
0.94767	-15
0.95133	-21
0.95500	-27
0.95867	-30
0.96233	-31
0.96600	-29
0.96967	-30
0.97333	-31
0.97700	-29
0.98067	-22
0.98433	-14
0.98800	-9
0.99167	-8
0.99533	-14
0.99900	-24
1.00267	-29
1.00633	-25
1.01000	-19
1.01367	-10
1.01733	1
1.02100	10
1.02467	11
1.02833	4
1.03200	-11
1.03567	-29
1.03933	-43
1.04300	-56
1.04667	-65
1.05033	-68
1.05400	-71
1.05767	-70
1.06133	-68
1.06500	-66
1.06867	-63
1.07233	-54
1.07600	-40
1.07967	-31
1.08333	-31
1.08700	-36
1.09067	-35
1.09433	-33
1.09800	-32
1.10167	-32
1.10533	-32
1.10900	-32
1.11267	-32
1.11633	-31
1.12000	-29
1.12367	-24
1.12733	-16
1.13100	-7
1.13467	-2
1.13833	1
1.14200	2
1.14567	-1
1.14933	-4
1.15300	-5
1.15667	-5
1.16033	-4
1.16400	-5
1.16767	-11
1.17133	-20
1.17500	-26
1.17867	-26
1.18233	-24
1.18600	-22
1.18967	-23
1.19333	-24
1.19700	-27
1.20067	-35
1.20433	-42
1.20800	-43
1.21167	-40
1.21533	-38
1.21900	-39
1.22267	-43
1.22633	-49
1.23000	-52
1.23367	-51
1.23733	-48
1.24100	-45
1.24467	-42
1.24833	-40
1.25200	-34
1.25567	-24
1.25933	-12
1.26300	-2
1.26667	2
1.27033	-2
1.27400	-11
1.27767	-16
1.28133	-16
1.28500	-17
1.28867	-19
1.29233	-21
1.29600	-25
1.29967	-30
1.30333	-35
1.30700	-42
1.31067	-45
1.31433	-43
1.31800	-44
1.32167	-44
1.32533	-44
1.32900	-42
1.33267	-38
1.33633	-30
1.34000	-23
1.34367	-23
1.34733	-23
1.35100	-23
1.35467	-25
1.35833	-25
1.36200	-21
1.36567	-19
1.36933	-18
1.37300	-18
1.37667	-17
1.38033	-16
1.38400	-22
1.38767	-26
1.39133	-30
1.39500	-30
1.39867	-30
1.40233	-32
1.40600	-35
1.40967	-38
1.41333	-38
1.41700	-35
1.42067	-29
1.42433	-22
1.42800	-12
1.43167	-2
1.43533	14
1.43900	107
1.44267	622
1.44633	1882
1.45000	3245
1.45367	3983
1.45733	4105
1.46100	3855
1.46467	3451
1.46833	3018
1.47200	2617
1.47567	2262
1.47933	1957
1.48300	1689
1.48667	1444
1.49033	1219
1.49400	1020
1.49767	853
1.50133	720
1.50500	616
1.50867	532
1.51233	462
1.51600	401
1.51967	344
1.52333	292
1.52700	250
1.53067	216
1.53433	205
1.53800	283
1.54167	646
1.54533	1591
1.54900	3219
1.55267	5252
1.55633	7250
1.56000	8905
1.56367	10082
1.56733	10673
1.57100	10547
1.57467	9651
1.57833	8164
1.58200	6432
1.58567	4785
1.58933	3414
1.59300	2367
1.59667	1614
1.60033	1092
1.60400	741
1.60767	511
1.61133	362
1.61500	262
1.61867	192
1.62233	147
1.62600	117
1.62967	97
1.63333	82
1.63700	72
1.64067	64
1.64433	58
1.64800	53
1.65167	49
1.65533	45
1.65900	44
1.66267	46
1.66633	49
1.67000	52
1.67367	57
1.67733	57
1.68100	48
1.68467	40
1.68833	35
1.69200	33
1.69567	28
1.69933	25
1.70300	25
1.70667	27
1.71033	28
1.71400	31
1.71767	35
1.72133	38
1.72500	43
1.72867	44
1.73233	41
1.73600	41
1.73967	40
1.74333	38
1.74700	37
1.75067	33
1.75433	28
1.75800	23
1.76167	19
1.76533	20
1.76900	24
1.77267	31
1.77633	42
1.78000	52
1.78367	58
1.78733	58
1.79100	55
1.79467	51
1.79833	45
1.80200	33
1.80567	21
1.80933	10
1.81300	2
1.81667	2
1.82033	4
1.82400	4
1.82767	3
1.83133	3
1.83500	6
1.83867	11
1.84233	15
1.84600	21
1.84967	28
1.85333	38
1.85700	45
1.86067	49
1.86433	53
1.86800	58
1.87167	60
1.87533	59
1.87900	52
1.88267	41
1.88633	28
1.89000	17
1.89367	12
1.89733	9
1.90100	6
1.90467	6
1.90833	10
1.91200	12
1.91567	13
1.91933	16
1.92300	17
1.92667	20
1.93033	25
1.93400	33
1.93767	41
1.94133	46
1.94500	46
1.94867	47
1.95233	72
1.95600	255
1.95967	1329
1.96333	6243
1.96700	23153
1.97067	67706
1.97433	158481
1.97800	303001
1.98167	486917
1.98533	678798
1.98900	845669
1.99267	962655
1.99633	1014578
2.00000	996227
2.00367	914112
2.00733	786250
2.01100	637195
2.01467	490426
2.01833	362148
2.02200	259475
2.02567	182429
2.02933	127190
2.03300	88793
2.03667	62610
2.04033	44931
2.04400	33020
2.04767	24954
2.05133	19434
2.05500	15596
2.05867	12870
2.06233	10886
2.06600	9405
2.06967	8272
2.07333	7383
2.07700	6668
2.08067	6080
2.08433	5587
2.08800	5166
2.09167	4802
2.09533	4483
2.09900	4198
2.10267	3951
2.10633	3737
2.11000	3548
2.11367	3379
2.11733	3224
2.12100	3081
2.12467	2949
2.12833	2826
2.13200	2714
2.13567	2606
2.13933	2501
2.14300	2404
2.14667	2315
2.15033	2235
2.15400	2160
2.15767	2088
2.16133	2021
2.16500	1955
2.16867	1892
2.17233	1836
2.17600	1783
2.17967	1729
2.18333	1675
2.18700	1620
2.19067	1569
2.19433	1528
2.19800	1495
2.20167	1469
2.20533	1443
2.20900	1411
2.21267	1377
2.21633	1345
2.22000	1313
2.22367	1282
2.22733	1254
2.23100	1228
2.23467	1200
2.23833	1173
2.24200	1147
2.24567	1125
2.24933	1100
2.25300	1071
2.25667	1048
2.26033	1031
2.26400	1015
2.26767	999
2.27133	983
2.27500	970
2.27867	960
2.28233	946
2.28600	928
2.28967	911
2.29333	894
2.29700	881
2.30067	868
2.30433	858
2.30800	849
2.31167	840
2.31533	833
2.31900	827
2.32267	823
2.32633	819
2.33000	813
2.33367	807
2.33733	798
2.34100	787
2.34467	773
2.34833	756
2.35200	739
2.35567	727
2.35933	720
2.36300	718
2.36667	715
2.37033	709
2.37400	703
2.37767	697
2.38133	694
2.38500	689
2.38867	683
2.39233	679
2.39600	670
2.39967	655
2.40333	639
2.40700	626
2.41067	614
2.41433	613
2.41800	621
2.42167	626
2.42533	630
2.42900	632
2.43267	630
2.43633	625
2.44000	620
2.44367	616
2.44733	611
2.45100	603
2.45467	601
2.45833	602
2.46200	604
2.46567	606
2.46933	602
2.47300	595
2.47667	586
2.48033	578
2.48400	570
2.48767	564
2.49133	563
2.49500	563
2.49867	560
2.50233	553
2.50600	544
2.50967	539
2.51333	539
2.51700	544
2.52067	551
2.52433	558
2.52800	563
2.53167	560
2.53533	555
2.53900	550
2.54267	545
2.54633	541
2.55000	536
2.55367	532
2.55733	533
2.56100	539
2.56467	544
2.56833	541
2.57200	533
2.57567	529
2.57933	523
2.58300	516
2.58667	510
2.59033	510
2.59400	510
2.59767	510
2.60133	514
2.60500	520
2.60867	524
2.61233	523
2.61600	519
2.61967	517
2.62333	516
2.62700	513
2.63067	510
2.63433	509
2.63800	508
2.64167	507
2.64533	510
2.64900	517
2.65267	530
2.65633	540
2.66000	542
2.66367	536
2.66733	528
2.67100	520
2.67467	511
2.67833	506
2.68200	509
2.68567	515
2.68933	521
2.69300	525
2.69667	528
2.70033	528
2.70400	525
2.70767	521
2.71133	518
2.71500	517
2.71867	517
2.72233	513
2.72600	506
2.72967	498
2.73333	493
2.73700	492
2.74067	496
2.74433	502
2.74800	505
2.75167	506
2.75533	509
2.75900	512
2.76267	516
2.76633	521
2.77000	522
2.77367	517
2.77733	514
2.78100	514
2.78467	512
2.78833	520
2.79200	528
2.79567	530
2.79933	531
2.80300	534
2.80667	538
2.81033	541
2.81400	539
2.81767	532
2.82133	521
2.82500	510
2.82867	501
2.83233	496
2.83600	499
2.83967	510
2.84333	521
2.84700	529
2.85067	532
2.85433	530
2.85800	525
2.86167	521
2.86533	519
2.86900	522
2.87267	524
2.87633	527
2.88000	530
2.88367	535
2.88733	544
2.89100	554
2.89467	556
2.89833	555
2.90200	550
2.90567	544
2.90933	542
2.91300	548
2.91667	559
2.92033	564
2.92400	564
2.92767	561
2.93133	556
2.93500	549
2.93867	542
2.94233	534
2.94600	526
2.94967	520
2.95333	518
2.95700	522
2.96067	528
2.96433	534
2.96800	538
2.97167	546
2.97533	557
2.97900	570
2.98267	567
2.98633	563
2.99000	558
2.99367	550
2.99733	543
3.00100	539
3.00467	539
3.00833	538
3.01200	540
3.01567	543
3.01933	546
3.02300	546
3.02667	545
3.03033	550
3.03400	557
3.03767	561
3.04133	559
3.04500	555
3.04867	552
3.05233	551
3.05600	550
3.05967	551
3.06333	552
3.06700	552
3.07067	554
3.07433	558
3.07800	567
3.08167	573
3.08533	575
3.08900	571
3.09267	563
3.09633	553
3.10000	545
3.10367	544
3.10733	548
3.11100	555
3.11467	563
3.11833	570
3.12200	572
3.12567	569
3.12933	563
3.13300	557
3.13667	548
3.14033	537
3.14400	531
3.14767	527
3.15133	523
3.15500	520
3.15867	520
3.16233	525
3.16600	532
3.16967	542
3.17333	553
3.17700	565
3.18067	574
3.18433	575
3.18800	574
3.19167	567
3.19533	558
3.19900	553
3.20267	551
3.20633	550
3.21000	547
3.21367	543
3.21733	543
3.22100	545
3.22467	544
3.22833	542
3.23200	539
3.23567	537
3.23933	538
3.24300	542
3.24667	545
3.25033	546
3.25400	545
3.25767	547
3.26133	552
3.26500	559
3.26867	564
3.27233	569
3.27600	568
3.27967	561
3.28333	554
3.28700	552
3.29067	552
3.29433	551
3.29800	547
3.30167	542
3.30533	541
3.30900	543
3.31267	545
3.31633	547
3.32000	547
3.32367	547
3.32733	547
3.33100	549
3.33467	550
3.33833	546
3.34200	542
3.34567	541
3.34933	544
3.35300	546
3.35667	548
3.36033	546
3.36400	539
3.36767	532
3.37133	526
3.37500	527
3.37867	529
3.38233	533
3.38600	537
3.38967	536
3.39333	525
3.39700	518
3.40067	522
3.40433	535
3.40800	546
3.41167	551
3.41533	551
3.41900	547
3.42267	544
3.42633	540
3.43000	537
3.43367	537
3.43733	539
3.44100	541
3.44467	540
3.44833	537
3.45200	537
3.45567	543
3.45933	547
3.46300	548
3.46667	549
3.47033	549
3.47400	545
3.47767	538
3.48133	527
3.48500	518
3.48867	513
3.49233	512
3.49600	516
3.49967	519
3.50333	520
3.50700	523
3.51067	526
3.51433	529
3.51800	533
3.52167	536
3.52533	534
3.52900	528
3.53267	523
3.53633	523
3.54000	529
3.54367	537
3.54733	541
3.55100	541
3.55467	539
3.55833	535
3.56200	537
3.56567	543
3.56933	551
3.57300	558
3.57667	560
3.58033	555
3.58400	550
3.58767	545
3.59133	542
3.59500	541
3.59867	534
3.60233	522
3.60600	513
3.60967	507
3.61333	508
3.61700	515
3.62067	522
3.62433	522
3.62800	514
3.63167	499
3.63533	483
3.63900	470
3.64267	464
3.64633	460
3.65000	460
3.65367	464
3.65733	471
3.66100	481
3.66467	489
3.66833	497
3.67200	506
3.67567	512
3.67933	514
3.68300	512
3.68667	510
3.69033	508
3.69400	507
3.69767	505
3.70133	505
3.70500	505
3.70867	504
3.71233	506
3.71600	512
3.71967	518
3.72333	521
3.72700	518
3.73067	513
3.73433	508
3.73800	506
3.74167	511
3.74533	518
3.74900	520
3.75267	518
3.75633	517
3.76000	519
3.76367	519
3.76733	514
3.77100	506
3.77467	502
3.77833	505
3.78200	510
3.78567	513
3.78933	513
3.79300	512
3.79667	511
3.80033	508
3.80400	504
3.80767	501
3.81133	498
3.81500	497
3.81867	498
3.82233	501
3.82600	504
3.82967	509
3.83333	514
3.83700	516
3.84067	512
3.84433	502
3.84800	495
3.85167	495
3.85533	499
3.85900	505
3.86267	507
3.86633	507
3.87000	508
3.87367	511
3.87733	510
3.88100	502
3.88467	489
3.88833	478
3.89200	475
3.89567	477
3.89933	476
3.90300	474
3.90667	472
3.91033	472
3.91400	473
3.91767	474
3.92133	474
3.92500	473
3.92867	473
3.93233	474
3.93600	474
3.93967	473
3.94333	476
3.94700	483
3.95067	491
3.95433	495
3.95800	500
3.96167	499
3.96533	496
3.96900	491
3.97267	483
3.97633	476
3.98000	473
3.98367	470
3.98733	467
3.99100	468
3.99467	471
3.99833	474

[Chromatogram (Ch2)]
Interval(msec)	220
# of Points	1091
Start Time(min)	0.002
End Time(min)	3.998
R.Time (min)	Intensity
0.00167	-0
0.00533	-0
0.00900	-0
0.01267	-0
0.01633	-0
0.02000	-0
0.02367	-1
0.02733	-1
0.03100	-1
0.03467	-1
0.03833	-1
0.04200	-1
0.04567	-1
0.04933	-1
0.05300	-1
0.05667	-1
0.06033	-1
0.06400	-1
0.06767	-1
0.07133	-1
0.07500	-1
0.07867	-1
0.08233	-1
0.08600	-1
0.08967	-1
0.09333	-1
0.09700	-0
0.10067	-0
0.10433	0
0.10800	0
0.11167	1
0.11533	1
0.11900	1
0.12267	1
0.12633	1
0.13000	1
0.13367	1
0.13733	1
0.14100	2
0.14467	2
0.14833	2
0.15200	2
0.15567	2
0.15933	2
0.16300	2
0.16667	2
0.17033	2
0.17400	2
0.17767	2
0.18133	2
0.18500	2
0.18867	2
0.19233	2
0.19600	1
0.19967	1
0.20333	1
0.20700	1
0.21067	1
0.21433	1
0.21800	0
0.22167	-0
0.22533	-0
0.22900	-0
0.23267	-1
0.23633	-1
0.24000	-1
0.24367	-1
0.24733	-1
0.25100	-1
0.25467	-1
0.25833	-0
0.26200	-0
0.26567	-0
0.26933	-0
0.27300	-0
0.27667	0
0.28033	0
0.28400	0
0.28767	0
0.29133	0
0.29500	0
0.29867	0
0.30233	0
0.30600	-0
0.30967	-0
0.31333	-0
0.31700	-0
0.32067	-0
0.32433	0
0.32800	0
0.33167	1
0.33533	1
0.33900	1
0.34267	1
0.34633	1
0.35000	1
0.35367	1
0.35733	1
0.36100	1
0.36467	1
0.36833	0
0.37200	-0
0.37567	-1
0.37933	-1
0.38300	-1
0.38667	-1
0.39033	-1
0.39400	-1
0.39767	-1
0.40133	-1
0.40500	-2
0.40867	-2
0.41233	-2
0.41600	-2
0.41967	-2
0.42333	-2
0.42700	-2
0.43067	-1
0.43433	-1
0.43800	-1
0.44167	-0
0.44533	0
0.44900	1
0.45267	1
0.45633	1
0.46000	1
0.46367	1
0.46733	1
0.47100	1
0.47467	1
0.47833	1
0.48200	1
0.48567	1
0.48933	1
0.49300	1
0.49667	1
0.50033	2
0.50400	2
0.50767	2
0.51133	3
0.51500	3
0.51867	4
0.52233	4
0.52600	4
0.52967	4
0.53333	3
0.53700	3
0.54067	3
0.54433	3
0.54800	3
0.55167	2
0.55533	2
0.55900	2
0.56267	3
0.56633	3
0.57000	3
0.57367	3
0.57733	3
0.58100	2
0.58467	2
0.58833	2
0.59200	1
0.59567	1
0.59933	0
0.60300	0
0.60667	-0
0.61033	-0
0.61400	-1
0.61767	-1
0.62133	-1
0.62500	-2
0.62867	-2
0.63233	-3
0.63600	-3
0.63967	-3
0.64333	-3
0.64700	-4
0.65067	-4
0.65433	-4
0.65800	-4
0.66167	-5
0.66533	-5
0.66900	-5
0.67267	-5
0.67633	-5
0.68000	-5
0.68367	-5
0.68733	-5
0.69100	-5
0.69467	-4
0.69833	-4
0.70200	-4
0.70567	-3
0.70933	-2
0.71300	-2
0.71667	-1
0.72033	-0
0.72400	0
0.72767	1
0.73133	1
0.73500	2
0.73867	2
0.74233	2
0.74600	2
0.74967	2
0.75333	2
0.75700	2
0.76067	2
0.76433	2
0.76800	2
0.77167	2
0.77533	3
0.77900	2
0.78267	2
0.78633	2
0.79000	2
0.79367	3
0.79733	3
0.80100	3
0.80467	3
0.80833	3
0.81200	3
0.81567	3
0.81933	3
0.82300	3
0.82667	3
0.83033	3
0.83400	3
0.83767	3
0.84133	3
0.84500	2
0.84867	2
0.85233	1
0.85600	1
0.85967	1
0.86333	1
0.86700	1
0.87067	1
0.87433	1
0.87800	0
0.88167	-0
0.88533	-0
0.88900	-1
0.89267	-1
0.89633	-1
0.90000	-1
0.90367	-1
0.90733	-0
0.91100	0
0.91467	0
0.91833	1
0.92200	1
0.92567	1
0.92933	1
0.93300	1
0.93667	1
0.94033	0
0.94400	0
0.94767	-0
0.95133	-0
0.95500	-0
0.95867	-0
0.96233	-0
0.96600	0
0.96967	0
0.97333	1
0.97700	1
0.98067	1
0.98433	1
0.98800	1
0.99167	1
0.99533	1
0.99900	0
1.00267	0
1.00633	-0
1.01000	-0
1.01367	-0
1.01733	-0
1.02100	-0
1.02467	-0
1.02833	-0
1.03200	-0
1.03567	0
1.03933	0
1.04300	1
1.04667	1
1.05033	1
1.05400	1
1.05767	1
1.06133	1
1.06500	1
1.06867	0
1.07233	0
1.07600	-0
1.07967	-0
1.08333	-0
1.08700	0
1.09067	0
1.09433	1
1.09800	0
1.10167	1
1.10533	1
1.10900	1
1.11267	1
1.11633	1
1.12000	1
1.12367	2
1.12733	2
1.13100	2
1.13467	2
1.13833	2
1.14200	2
1.14567	2
1.14933	1
1.15300	1
1.15667	0
1.16033	-0
1.16400	-1
1.16767	-1
1.17133	-1
1.17500	-1
1.17867	-1
1.18233	-1
1.18600	-1
1.18967	-2
1.19333	-1
1.19700	-1
1.20067	-1
1.20433	-1
1.20800	-2
1.21167	-2
1.21533	-2
1.21900	-3
1.22267	-3
1.22633	-4
1.23000	-4
1.23367	-4
1.23733	-3
1.24100	-3
1.24467	-2
1.24833	-2
1.25200	-1
1.25567	-1
1.25933	-0
1.26300	0
1.26667	0
1.27033	1
1.27400	1
1.27767	2
1.28133	2
1.28500	2
1.28867	3
1.29233	3
1.29600	3
1.29967	4
1.30333	4
1.30700	4
1.31067	4
1.31433	4
1.31800	3
1.32167	3
1.32533	3
1.32900	4
1.33267	4
1.33633	4
1.34000	4
1.34367	3
1.34733	3
1.35100	3
1.35467	3
1.35833	3
1.36200	2
1.36567	2
1.36933	2
1.37300	2
1.37667	2
1.38033	2
1.38400	2
1.38767	2
1.39133	2
1.39500	2
1.39867	2
1.40233	2
1.40600	2
1.40967	2
1.41333	2
1.41700	1
1.42067	1
1.42433	1
1.42800	1
1.43167	1
1.43533	0
1.43900	0
1.44267	-0
1.44633	-0
1.45000	-0
1.45367	-0
1.45733	0
1.46100	1
1.46467	1
1.46833	1
1.47200	1
1.47567	1
1.47933	1
1.48300	1
1.48667	1
1.49033	1
1.49400	0
1.49767	0
1.50133	-0
1.50500	-0
1.50867	-0
1.51233	-0
1.51600	-1
1.51967	-1
1.52333	-1
1.52700	-2
1.53067	-2
1.53433	-3
1.53800	-3
1.54167	-3
1.54533	-3
1.54900	-2
1.55267	-2
1.55633	-1
1.56000	-1
1.56367	-1
1.56733	-1
1.57100	-1
1.57467	-1
1.57833	-1
1.58200	-1
1.58567	-1
1.58933	-1
1.59300	-2
1.59667	-3
1.60033	-4
1.60400	-5
1.60767	-6
1.61133	-7
1.61500	-9
1.61867	-10
1.62233	-12
1.62600	-15
1.62967	-17
1.63333	-20
1.63700	-24
1.64067	-27
1.64433	-30
1.64800	-33
1.65167	-37
1.65533	-40
1.65900	-44
1.66267	-48
1.66633	-52
1.67000	-56
1.67367	-61
1.67733	-66
1.68100	-71
1.68467	-76
1.68833	-81
1.69200	-85
1.69567	-89
1.69933	-93
1.70300	-95
1.70667	-98
1.71033	-100
1.71400	-101
1.71767	-103
1.72133	-104
1.72500	-105
1.72867	-106
1.73233	-107
1.73600	-108
1.73967	-109
1.74333	-110
1.74700	-110
1.75067	-110
1.75433	-111
1.75800	-111
1.76167	-112
1.76533	-113
1.76900	-113
1.77267	-114
1.77633	-113
1.78000	-113
1.78367	-113
1.78733	-112
1.79100	-111
1.79467	-111
1.79833	-111
1.80200	-111
1.80567	-111
1.80933	-112
1.81300	-112
1.81667	-113
1.82033	-114
1.82400	-114
1.82767	-114
1.83133	-114
1.83500	-114
1.83867	-114
1.84233	-113
1.84600	-113
1.84967	-112
1.85333	-112
1.85700	-113
1.86067	-113
1.86433	-114
1.86800	-114
1.87167	-114
1.87533	-114
1.87900	-115
1.88267	-115
1.88633	-115
1.89000	-114
1.89367	-114
1.89733	-114
1.90100	-114
1.90467	-113
1.90833	-113
1.91200	-113
1.91567	-113
1.91933	-113
1.92300	-113
1.92667	-112
1.93033	-112
1.93400	-111
1.93767	-109
1.94133	-109
1.94500	-108
1.94867	-108
1.95233	-108
1.95600	-108
1.95967	-108
1.96333	-109
1.96700	-109
1.97067	-110
1.97433	-110
1.97800	-110
1.98167	-110
1.98533	-110
1.98900	-109
1.99267	-108
1.99633	-107
2.00000	-107
2.00367	-106
2.00733	-106
2.01100	-105
2.01467	-104
2.01833	-104
2.02200	-103
2.02567	-103
2.02933	-102
2.03300	-102
2.03667	-103
2.04033	-103
2.04400	-103
2.04767	-103
2.05133	-103
2.05500	-102
2.05867	-101
2.06233	-100
2.06600	-99
2.06967	-98
2.07333	-98
2.07700	-97
2.08067	-97
2.08433	-97
2.08800	-97
2.09167	-98
2.09533	-98
2.09900	-98
2.10267	-98
2.10633	-98
2.11000	-98
2.11367	-97
2.11733	-97
2.12100	-97
2.12467	-98
2.12833	-98
2.13200	-97
2.13567	-97
2.13933	-96
2.14300	-95
2.14667	-95
2.15033	-94
2.15400	-94
2.15767	-94
2.16133	-94
2.16500	-94
2.16867	-94
2.17233	-93
2.17600	-93
2.17967	-92
2.18333	-91
2.18700	-91
2.19067	-91
2.19433	-90
2.19800	-90
2.20167	-89
2.20533	-88
2.20900	-87
2.21267	-86
2.21633	-86
2.22000	-86
2.22367	-87
2.22733	-87
2.23100	-87
2.23467	-87
2.23833	-87
2.24200	-87
2.24567	-87
2.24933	-87
2.25300	-86
2.25667	-85
2.26033	-84
2.26400	-83
2.26767	-83
2.27133	-82
2.27500	-82
2.27867	-81
2.28233	-82
2.28600	-83
2.28967	-83
2.29333	-84
2.29700	-84
2.30067	-83
2.30433	-82
2.30800	-81
2.31167	-80
2.31533	-79
2.31900	-78
2.32267	-78
2.32633	-77
2.33000	-77
2.33367	-76
2.33733	-76
2.34100	-75
2.34467	-75
2.34833	-74
2.35200	-73
2.35567	-73
2.35933	-71
2.36300	-70
2.36667	-67
2.37033	-64
2.37400	-61
2.37767	-58
2.38133	-54
2.38500	-50
2.38867	-46
2.39233	-42
2.39600	-38
2.39967	-34
2.40333	-30
2.40700	-26
2.41067	-23
2.41433	-20
2.41800	-18
2.42167	-15
2.42533	-14
2.42900	-12
2.43267	-11
2.43633	-10
2.44000	-9
2.44367	-8
2.44733	-6
2.45100	-5
2.45467	-3
2.45833	-1
2.46200	1
2.46567	2
2.46933	4
2.47300	4
2.47667	5
2.48033	5
2.48400	6
2.48767	7
2.49133	8
2.49500	9
2.49867	11
2.50233	12
2.50600	13
2.50967	14
2.51333	15
2.51700	15
2.52067	16
2.52433	16
2.52800	16
2.53167	17
2.53533	17
2.53900	18
2.54267	19
2.54633	19
2.55000	19
2.55367	20
2.55733	20
2.56100	20
2.56467	21
2.56833	21
2.57200	21
2.57567	21
2.57933	21
2.58300	21
2.58667	22
2.59033	22
2.59400	22
2.59767	22
2.60133	22
2.60500	22
2.60867	22
2.61233	22
2.61600	23
2.61967	23
2.62333	24
2.62700	24
2.63067	25
2.63433	25
2.63800	25
2.64167	25
2.64533	25
2.64900	25
2.65267	25
2.65633	25
2.66000	25
2.66367	26
2.66733	26
2.67100	26
2.67467	27
2.67833	27
2.68200	27
2.68567	27
2.68933	27
2.69300	27
2.69667	27
2.70033	27
2.70400	27
2.70767	28
2.71133	28
2.71500	28
2.71867	29
2.72233	29
2.72600	30
2.72967	31
2.73333	31
2.73700	32
2.74067	33
2.74433	33
2.74800	33
2.75167	33
2.75533	32
2.75900	31
2.76267	31
2.76633	30
2.77000	30
2.77367	30
2.77733	30
2.78100	30
2.78467	30
2.78833	30
2.79200	30
2.79567	31
2.79933	31
2.80300	31
2.80667	31
2.81033	31
2.81400	31
2.81767	31
2.82133	31
2.82500	32
2.82867	32
2.83233	31
2.83600	30
2.83967	28
2.84333	24
2.84700	17
2.85067	8
2.85433	-6
2.85800	-23
2.86167	-46
2.86533	-73
2.86900	-106
2.87267	-145
2.87633	-189
2.88000	-238
2.88367	-292
2.88733	-351
2.89100	-415
2.89467	-482
2.89833	-553
2.90200	-627
2.90567	-705
2.90933	-785
2.91300	-867
2.91667	-953
2.92033	-1040
2.92400	-1129
2.92767	-1219
2.93133	-1312
2.93500	-1403
2.93867	-1484
2.94233	-1540
2.94600	-1562
2.94967	-1547
2.95333	-1499
2.95700	-1422
2.96067	-1326
2.96433	-1219
2.96800	-1106
2.97167	-993
2.97533	-884
2.97900	-780
2.98267	-684
2.98633	-596
2.99000	-518
2.99367	-447
2.99733	-385
3.00100	-330
3.00467	-282
3.00833	-240
3.01200	-204
3.01567	-173
3.01933	-146
3.02300	-123
3.02667	-103
3.03033	-86
3.03400	-72
3.03767	-59
3.04133	-49
3.04500	-39
3.04867	-31
3.05233	-25
3.05600	-19
3.05967	-14
3.06333	-9
3.06700	-6
3.07067	-2
3.07433	0
3.07800	3
3.08167	5
3.08533	7
3.08900	8
3.09267	10
3.09633	11
3.10000	12
3.10367	13
3.10733	14
3.11100	15
3.11467	16
3.11833	17
3.12200	17
3.12567	18
3.12933	18
3.13300	19
3.13667	19
3.14033	20
3.14400	20
3.14767	20
3.15133	20
3.15500	20
3.15867	20
3.16233	20
3.16600	20
3.16967	20
3.17333	20
3.17700	20
3.18067	20
3.18433	21
3.18800	21
3.19167	22
3.19533	22
3.19900	23
3.20267	23
3.20633	24
3.21000	24
3.21367	25
3.21733	25
3.22100	25
3.22467	25
3.22833	26
3.23200	26
3.23567	26
3.23933	26
3.24300	27
3.24667	27
3.25033	27
3.25400	28
3.25767	28
3.26133	28
3.26500	28
3.26867	28
3.27233	29
3.27600	29
3.27967	29
3.28333	29
3.28700	29
3.29067	30
3.29433	30
3.29800	30
3.30167	31
3.30533	31
3.30900	31
3.31267	31
3.31633	31
3.32000	31
3.32367	31
3.32733	32
3.33100	32
3.33467	32
3.33833	32
3.34200	32
3.34567	32
3.34933	32
3.35300	32
3.35667	32
3.36033	32
3.36400	32
3.36767	32
3.37133	32
3.37500	32
3.37867	32
3.38233	32
3.38600	32
3.38967	32
3.39333	32
3.39700	32
3.40067	32
3.40433	32
3.40800	32
3.41167	32
3.41533	33
3.41900	33
3.42267	33
3.42633	33
3.43000	33
3.43367	33
3.43733	33
3.44100	33
3.44467	33
3.44833	33
3.45200	33
3.45567	33
3.45933	33
3.46300	33
3.46667	33
3.47033	33
3.47400	33
3.47767	33
3.48133	33
3.48500	33
3.48867	33
3.49233	33
3.49600	32
3.49967	32
3.50333	32
3.50700	32
3.51067	32
3.51433	32
3.51800	32
3.52167	33
3.52533	33
3.52900	33
3.53267	33
3.53633	33
3.54000	33
3.54367	33
3.54733	34
3.55100	34
3.55467	34
3.55833	34
3.56200	34
3.56567	34
3.56933	34
3.57300	34
3.57667	34
3.58033	33
3.58400	33
3.58767	33
3.59133	33
3.59500	33
3.59867	32
3.60233	32
3.60600	32
3.60967	32
3.61333	33
3.61700	33
3.62067	33
3.62433	33
3.62800	34
3.63167	34
3.63533	35
3.63900	35
3.64267	36
3.64633	36
3.65000	37
3.65367	37
3.65733	37
3.66100	37
3.66467	38
3.66833	38
3.67200	38
3.67567	38
3.67933	38
3.68300	38
3.68667	38
3.69033	38
3.69400	38
3.69767	38
3.70133	38
3.70500	38
3.70867	37
3.71233	37
3.71600	37
3.71967	37
3.72333	36
3.72700	36
3.73067	36
3.73433	36
3.73800	36
3.74167	36
3.74533	36
3.74900	36
3.75267	36
3.75633	36
3.76000	36
3.76367	36
3.76733	36
3.77100	36
3.77467	36
3.77833	36
3.78200	36
3.78567	36
3.78933	36
3.79300	36
3.79667	36
3.80033	35
3.80400	35
3.80767	35
3.81133	34
3.81500	34
3.81867	34
3.82233	34
3.82600	34
3.82967	33
3.83333	33
3.83700	33
3.84067	32
3.84433	32
3.84800	32
3.85167	32
3.85533	32
3.85900	31
3.86267	31
3.86633	31
3.87000	32
3.87367	32
3.87733	32
3.88100	32
3.88467	33
3.88833	33
3.89200	34
3.89567	34
3.89933	34
3.90300	34
3.90667	34
3.91033	35
3.91400	35
3.91767	35
3.92133	35
3.92500	35
3.92867	35
3.93233	35
3.93600	36
3.93967	36
3.94333	36
3.94700	36
3.95067	36
3.95433	36
3.95800	35
3.96167	35
3.96533	35
3.96900	35
3.97267	34
3.97633	34
3.98000	34
3.98367	34
3.98733	34
3.99100	34
3.99467	34
3.99833	34

[Chromatogram (Ch3)]
Interval(msec)	220
# of Points	1091
Start Time(min)	0.002
End Time(min)	3.998
R.Time (min)	Intensity
0.00167	-1
0.00533	-4
0.00900	-4
0.01267	-4
0.01633	-4
0.02000	-6
0.02367	-7
0.02733	-9
0.03100	-11
0.03467	-11
0.03833	-12
0.04200	-13
0.04567	-14
0.04933	-13
0.05300	-10
0.05667	-8
0.06033	-6
0.06400	-5
0.06767	-6
0.07133	-7
0.07500	-7
0.07867	-4
0.08233	-2
0.08600	-2
0.08967	-5
0.09333	-5
0.09700	-4
0.10067	-2
0.10433	-4
0.10800	-6
0.11167	-8
0.11533	-8
0.11900	-7
0.12267	-5
0.12633	-4
0.13000	-6
0.13367	-9
0.13733	-9
0.14100	-8
0.14467	-10
0.14833	-10
0.15200	-10
0.15567	-10
0.15933	-9
0.16300	-7
0.16667	-5
0.17033	-5
0.17400	-5
0.17767	-7
0.18133	-9
0.18500	-10
0.18867	-10
0.19233	-10
0.19600	-10
0.19967	-9
0.20333	-8
0.20700	-9
0.21067	-11
0.21433	-13
0.21800	-13
0.22167	-12
0.22533	-9
0.22900	-6
0.23267	-4
0.23633	-5
0.24000	-4
0.24367	-4
0.24733	-4
0.25100	-6
0.25467	-6
0.25833	-6
0.26200	-6
0.26567	-6
0.26933	-7
0.27300	-7
0.27667	-7
0.28033	-7
0.28400	-7
0.28767	-5
0.29133	-3
0.29500	-2
0.29867	-3
0.30233	-5
0.30600	-7
0.30967	-6
0.31333	-5
0.31700	-5
0.32067	-5
0.32433	-4
0.32800	-5
0.33167	-5
0.33533	-5
0.33900	-7
0.34267	-8
0.34633	-8
0.35000	-8
0.35367	-7
0.35733	-6
0.36100	-7
0.36467	-4
0.36833	-1
0.37200	-1
0.37567	-1
0.37933	-3
0.38300	-5
0.38667	-6
0.39033	-3
0.39400	-2
0.39767	-4
0.40133	-4
0.40500	-3
0.40867	-3
0.41233	-4
0.41600	-7
0.41967	-9
0.42333	-10
0.42700	-9
0.43067	-6
0.43433	-4
0.43800	-1
0.44167	-1
0.44533	-3
0.44900	-7
0.45267	-10
0.45633	-10
0.46000	-10
0.46367	-12
0.46733	-13
0.47100	-12
0.47467	-11
0.47833	-9
0.48200	-6
0.48567	-4
0.48933	-4
0.49300	-6
0.49667	-8
0.50033	-8
0.50400	-8
0.50767	-7
0.51133	-8
0.51500	-10
0.51867	-11
0.52233	-12
0.52600	-13
0.52967	-13
0.53333	-15
0.53700	-16
0.54067	-15
0.54433	-14
0.54800	-11
0.55167	-8
0.55533	-6
0.55900	-7
0.56267	-10
0.56633	-13
0.57000	-14
0.57367	-11
0.57733	-7
0.58100	-6
0.58467	-8
0.58833	-12
0.59200	-14
0.59567	-13
0.59933	-11
0.60300	-12
0.60667	-12
0.61033	-11
0.61400	-12
0.61767	-14
0.62133	-14
0.62500	-15
0.62867	-14
0.63233	-13
0.63600	-13
0.63967	-15
0.64333	-15
0.64700	-16
0.65067	-16
0.65433	-15
0.65800	-13
0.66167	-12
0.66533	-11
0.66900	-10
0.67267	-9
0.67633	-8
0.68000	-9
0.68367	-11
0.68733	-10
0.69100	-8
0.69467	-7
0.69833	-8
0.70200	-9
0.70567	-8
0.70933	-8
0.71300	-8
0.71667	-10
0.72033	-10
0.72400	-10
0.72767	-12
0.73133	-14
0.73500	-12
0.73867	-8
0.74233	-6
0.74600	-5
0.74967	-5
0.75333	-5
0.75700	-5
0.76067	-6
0.76433	-7
0.76800	-8
0.77167	-9
0.77533	-10
0.77900	-12
0.78267	-13
0.78633	-15
0.79000	-15
0.79367	-12
0.79733	-11
0.80100	-9
0.80467	-7
0.80833	-7
0.81200	-7
0.81567	-6
0.81933	-7
0.82300	-8
0.82667	-9
0.83033	-10
0.83400	-10
0.83767	-9
0.84133	-9
0.84500	-8
0.84867	-7
0.85233	-7
0.85600	-6
0.85967	-5
0.86333	-3
0.86700	-4
0.87067	-5
0.87433	-5
0.87800	-7
0.88167	-9
0.88533	-10
0.88900	-11
0.89267	-11
0.89633	-10
0.90000	-10
0.90367	-8
0.90733	-6
0.91100	-6
0.91467	-6
0.91833	-6
0.92200	-9
0.92567	-10
0.92933	-12
0.93300	-11
0.93667	-9
0.94033	-8
0.94400	-7
0.94767	-6
0.95133	-6
0.95500	-6
0.95867	-6
0.96233	-5
0.96600	-4
0.96967	-3
0.97333	-3
0.97700	-4
0.98067	-4
0.98433	-6
0.98800	-5
0.99167	-6
0.99533	-7
0.99900	-5
1.00267	-4
1.00633	-5
1.01000	-5
1.01367	-5
1.01733	-5
1.02100	-9
1.02467	-12
1.02833	-12
1.03200	-13
1.03567	-12
1.03933	-9
1.04300	-6
1.04667	-4
1.05033	-4
1.05400	-5
1.05767	-6
1.06133	-6
1.06500	-8
1.06867	-7
1.07233	-7
1.07600	-8
1.07967	-11
1.08333	-11
1.08700	-11
1.09067	-10
1.09433	-8
1.09800	-5
1.10167	-3
1.10533	-2
1.10900	-2
1.11267	-2
1.11633	-2
1.12000	-2
1.12367	-3
1.12733	-5
1.13100	-7
1.13467	-8
1.13833	-8
1.14200	-10
1.14567	-11
1.14933	-12
1.15300	-12
1.15667	-10
1.16033	-8
1.16400	-8
1.16767	-9
1.17133	-10
1.17500	-10
1.17867	-10
1.18233	-9
1.18600	-7
1.18967	-5
1.19333	-6
1.19700	-8
1.20067	-9
1.20433	-8
1.20800	-10
1.21167	-12
1.21533	-14
1.21900	-14
1.22267	-13
1.22633	-12
1.23000	-10
1.23367	-9
1.23733	-8
1.24100	-8
1.24467	-9
1.24833	-13
1.25200	-14
1.25567	-15
1.25933	-16
1.26300	-17
1.26667	-17
1.27033	-17
1.27400	-18
1.27767	-15
1.28133	-13
1.28500	-15
1.28867	-15
1.29233	-15
1.29600	-16
1.29967	-15
1.30333	-15
1.30700	-15
1.31067	-12
1.31433	-9
1.31800	-8
1.32167	-8
1.32533	-8
1.32900	-8
1.33267	-11
1.33633	-11
1.34000	-11
1.34367	-12
1.34733	-15
1.35100	-16
1.35467	-16
1.35833	-13
1.36200	-9
1.36567	-8
1.36933	-10
1.37300	-12
1.37667	-14
1.38033	-15
1.38400	-16
1.38767	-15
1.39133	-13
1.39500	-11
1.39867	-10
1.40233	-11
1.40600	-11
1.40967	-11
1.41333	-10
1.41700	-7
1.42067	-5
1.42433	-3
1.42800	-4
1.43167	-5
1.43533	-6
1.43900	-8
1.44267	-9
1.44633	-10
1.45000	-10
1.45367	-9
1.45733	-9
1.46100	-10
1.46467	-11
1.46833	-9
1.47200	-9
1.47567	-9
1.47933	-10
1.48300	-11
1.48667	-11
1.49033	-12
1.49400	-12
1.49767	-14
1.50133	-16
1.50500	-15
1.50867	-14
1.51233	-11
1.51600	-9
1.51967	-8
1.52333	-10
1.52700	-12
1.53067	-14
1.53433	-16
1.53800	-18
1.54167	-17
1.54533	-16
1.54900	-15
1.55267	-16
1.55633	-16
1.56000	-15
1.56367	-16
1.56733	-17
1.57100	-16
1.57467	-15
1.57833	-15
1.58200	-15
1.58567	-16
1.58933	-15
1.59300	-15
1.59667	-14
1.60033	-14
1.60400	-15
1.60767	-15
1.61133	-15
1.61500	-15
1.61867	-16
1.62233	-17
1.62600	-16
1.62967	-15
1.63333	-15
1.63700	-16
1.64067	-15
1.64433	-15
1.64800	-16
1.65167	-16
1.65533	-14
1.65900	-10
1.66267	-6
1.66633	-3
1.67000	-1
1.67367	-1
1.67733	-4
1.68100	-6
1.68467	-7
1.68833	-8
1.69200	-6
1.69567	-3
1.69933	-0
1.70300	1
1.70667	0
1.71033	0
1.71400	2
1.71767	2
1.72133	0
1.72500	-1
1.72867	-2
1.73233	-1
1.73600	-1
1.73967	-1
1.74333	-1
1.74700	0
1.75067	0
1.75433	1
1.75800	2
1.76167	1
1.76533	1
1.76900	-0
1.77267	2
1.77633	3
1.78000	2
1.78367	1
1.78733	3
1.79100	3
1.79467	3
1.79833	3
1.80200	4
1.80567	6
1.80933	7
1.81300	8
1.81667	7
1.82033	4
1.82400	3
1.82767	2
1.83133	3
1.83500	3
1.83867	6
1.84233	9
1.84600	11
1.84967	10
1.85333	9
1.85700	11
1.86067	10
1.86433	8
1.86800	8
1.87167	8
1.87533	9
1.87900	11
1.88267	11
1.88633	9
1.89000	7
1.89367	5
1.89733	3
1.90100	3
1.90467	3
1.90833	5
1.91200	5
1.91567	5
1.91933	5
1.92300	5
1.92667	8
1.93033	11
1.93400	14
1.93767	15
1.94133	15
1.94500	14
1.94867	13
1.95233	13
1.95600	12
1.95967	14
1.96333	15
1.96700	15
1.97067	16
1.97433	15
1.97800	13
1.98167	11
1.98533	10
1.98900	12
1.99267	14
1.99633	16
2.00000	17
2.00367	16
2.00733	15
2.01100	11
2.01467	9
2.01833	12
2.02200	17
2.02567	19
2.02933	19
2.03300	20
2.03667	19
2.04033	21
2.04400	21
2.04767	21
2.05133	20
2.05500	19
2.05867	19
2.06233	20
2.06600	21
2.06967	22
2.07333	23
2.07700	24
2.08067	24
2.08433	24
2.08800	25
2.09167	25
2.09533	27
2.09900	26
2.10267	25
2.10633	26
2.11000	27
2.11367	28
2.11733	26
2.12100	25
2.12467	25
2.12833	25
2.13200	27
2.13567	29
2.13933	31
2.14300	31
2.14667	31
2.15033	30
2.15400	30
2.15767	32
2.16133	33
2.16500	34
2.16867	35
2.17233	36
2.17600	39
2.17967	42
2.18333	44
2.18700	45
2.19067	43
2.19433	41
2.19800	41
2.20167	41
2.20533	42
2.20900	43
2.21267	45
2.21633	47
2.22000	49
2.22367	52
2.22733	53
2.23100	54
2.23467	53
2.23833	50
2.24200	50
2.24567	52
2.24933	54
2.25300	54
2.25667	52
2.26033	51
2.26400	54
2.26767	58
2.27133	58
2.27500	56
2.27867	56
2.28233	58
2.28600	60
2.28967	60
2.29333	61
2.29700	62
2.30067	64
2.30433	65
2.30800	65
2.31167	66
2.31533	66
2.31900	65
2.32267	65
2.32633	67
2.33000	71
2.33367	72
2.33733	70
2.34100	67
2.34467	68
2.34833	69
2.35200	71
2.35567	73
2.35933	75
2.36300	76
2.36667	76
2.37033	74
2.37400	72
2.37767	73
2.38133	73
2.38500	72
2.38867	69
2.39233	69
2.39600	71
2.39967	75
2.40333	76
2.40700	76
2.41067	78
2.41433	79
2.41800	80
2.42167	81
2.42533	81
2.42900	81
2.43267	81
2.43633	80
2.44000	83
2.44367	107
2.44733	175
2.45100	251
2.45467	315
2.45833	356
2.46200	363
2.46567	350
2.46933	329
2.47300	312
2.47667	300
2.48033	293
2.48400	287
2.48767	277
2.49133	259
2.49500	237
2.49867	214
2.50233	196
2.50600	185
2.50967	178
2.51333	171
2.51700	166
2.52067	164
2.52433	165
2.52800	168
2.53167	175
2.53533	184
2.53900	192
2.54267	197
2.54633	200
2.55000	199
2.55367	193
2.55733	181
2.56100	168
2.56467	156
2.56833	146
2.57200	137
2.57567	128
2.57933	121
2.58300	117
2.58667	112
2.59033	108
2.59400	105
2.59767	95
2.60133	80
2.60500	60
2.60867	37
2.61233	7
2.61600	-22
2.61967	-46
2.62333	-67
2.62700	-85
2.63067	-99
2.63433	-110
2.63800	-116
2.64167	-118
2.64533	-116
2.64900	-113
2.65267	-105
2.65633	-96
2.66000	-83
2.66367	-72
2.66733	-60
2.67100	-49
2.67467	-37
2.67833	-27
2.68200	-17
2.68567	-9
2.68933	-3
2.69300	2
2.69667	6
2.70033	10
2.70400	15
2.70767	16
2.71133	19
2.71500	22
2.71867	23
2.72233	24
2.72600	24
2.72967	27
2.73333	28
2.73700	30
2.74067	30
2.74433	30
2.74800	31
2.75167	32
2.75533	35
2.75900	38
2.76267	42
2.76633	46
2.77000	48
2.77367	48
2.77733	50
2.78100	52
2.78467	51
2.78833	50
2.79200	50
2.79567	50
2.79933	53
2.80300	56
2.80667	61
2.81033	66
2.81400	78
2.81767	108
2.82133	184
2.82500	345
2.82867	653
2.83233	1181
2.83600	1990
2.83967	3118
2.84333	4566
2.84700	6285
2.85067	8185
2.85433	10135
2.85800	11990
2.86167	13610
2.86533	14873
2.86900	15706
2.87267	16080
2.87633	16020
2.88000	15586
2.88367	14856
2.88733	13921
2.89100	12861
2.89467	11742
2.89833	10620
2.90200	9532
2.90567	8505
2.90933	7554
2.91300	6684
2.91667	5893
2.92033	5181
2.92400	4546
2.92767	3983
2.93133	3486
2.93500	3051
2.93867	2667
2.94233	2330
2.94600	2034
2.94967	1777
2.95333	1554
2.95700	1362
2.96067	1195
2.96433	1050
2.96800	925
2.97167	817
2.97533	722
2.97900	641
2.98267	574
2.98633	517
2.99000	466
2.99367	421
2.99733	383
3.00100	350
3.00467	322
3.00833	297
3.01200	277
3.01567	260
3.01933	246
3.02300	230
3.02667	216
3.03033	204
3.03400	196
3.03767	189
3.04133	181
3.04500	172
3.04867	166
3.05233	163
3.05600	160
3.05967	158
3.06333	154
3.06700	150
3.07067	145
3.07433	142
3.07800	138
3.08167	135
3.08533	133
3.08900	133
3.09267	132
3.09633	130
3.10000	129
3.10367	128
3.10733	129
3.11100	127
3.11467	124
3.11833	121
3.12200	119
3.12567	115
3.12933	111
3.13300	109
3.13667	108
3.14033	108
3.14400	108
3.14767	108
3.15133	109
3.15500	113
3.15867	116
3.16233	117
3.16600	116
3.16967	116
3.17333	115
3.17700	113
3.18067	109
3.18433	107
3.18800	109
3.19167	110
3.19533	109
3.19900	110
3.20267	112
3.20633	112
3.21000	113
3.21367	113
3.21733	112
3.22100	111
3.22467	109
3.22833	108
3.23200	109
3.23567	108
3.23933	107
3.24300	109
3.24667	111
3.25033	114
3.25400	114
3.25767	113
3.26133	110
3.26500	107
3.26867	106
3.27233	105
3.27600	105
3.27967	104
3.28333	105
3.28700	105
3.29067	105
3.29433	105
3.29800	106
3.30167	106
3.30533	103
3.30900	101
3.31267	101
3.31633	102
3.32000	103
3.32367	103
3.32733	102
3.33100	100
3.33467	96
3.33833	95
3.34200	94
3.34567	93
3.34933	92
3.35300	89
3.35667	88
3.36033	87
3.36400	86
3.36767	86
3.37133	87
3.37500	88
3.37867	87
3.38233	88
3.38600	86
3.38967	84
3.39333	82
3.39700	81
3.40067	82
3.40433	84
3.40800	84
3.41167	84
3.41533	83
3.41900	83
3.42267	80
3.42633	77
3.43000	79
3.43367	79
3.43733	80
3.44100	79
3.44467	79
3.44833	77
3.45200	76
3.45567	77
3.45933	77
3.46300	76
3.46667	79
3.47033	81
3.47400	82
3.47767	81
3.48133	82
3.48500	82
3.48867	78
3.49233	77
3.49600	76
3.49967	76
3.50333	75
3.50700	74
3.51067	71
3.51433	71
3.51800	73
3.52167	73
3.52533	75
3.52900	75
3.53267	76
3.53633	77
3.54000	79
3.54367	81
3.54733	82
3.55100	81
3.55467	78
3.55833	76
3.56200	77
3.56567	76
3.56933	74
3.57300	73
3.57667	71
3.58033	69
3.58400	69
3.58767	71
3.59133	72
3.59500	74
3.59867	74
3.60233	74
3.60600	75
3.60967	76
3.61333	77
3.61700	79
3.62067	77
3.62433	74
3.62800	72
3.63167	72
3.63533	71
3.63900	71
3.64267	73
3.64633	76
3.65000	77
3.65367	76
3.65733	75
3.66100	76
3.66467	77
3.66833	76
3.67200	75
3.67567	74
3.67933	74
3.68300	75
3.68667	77
3.69033	78
3.69400	79
3.69767	78
3.70133	77
3.70500	77
3.70867	78
3.71233	77
3.71600	77
3.71967	77
3.72333	75
3.72700	73
3.73067	70
3.73433	67
3.73800	66
3.74167	70
3.74533	71
3.74900	71
3.75267	72
3.75633	71
3.76000	70
3.76367	72
3.76733	72
3.77100	71
3.77467	68
3.77833	66
3.78200	64
3.78567	62
3.78933	62
3.79300	63
3.79667	66
3.80033	67
3.80400	68
3.80767	68
3.81133	69
3.81500	69
3.81867	68
3.82233	66
3.82600	66
3.82967	64
3.83333	63
3.83700	61
3.84067	60
3.84433	57
3.84800	55
3.85167	55
3.85533	57
3.85900	58
3.86267	59
3.86633	59
3.87000	57
3.87367	55
3.87733	52
3.88100	50
3.88467	50
3.88833	50
3.89200	50
3.89567	49
3.89933	48
3.90300	49
3.90667	50
3.91033	50
3.91400	49
3.91767	50
3.92133	51
3.92500	51
3.92867	49
3.93233	50
3.93600	51
3.93967	49
3.94333	49
3.94700	48
3.95067	46
3.95433	45
3.95800	44
3.96167	43
3.96533	42
3.96900	42
3.97267	42
3.97633	43
3.98000	44
3.98367	42
3.98733	40
3.99100	38
3.99467	38
3.99833	39

[Status Trace (Column Oven Temperature)]
Interval(msec)	1000
# of Points	240
Start Time(min)	0.004
End Time(min)	3.988
Intensity Units	
Intensity Multiplier	1
R.Time (min)	Intensity
0.00418	34.99
0.02085	34.99
0.03752	34.99
0.05418	35.00
0.07085	35.01
0.08752	35.01
0.10418	35.01
0.12085	35.01
0.13752	35.01
0.15418	35.00
0.17085	35.00
0.18752	35.00
0.20418	35.00
0.22085	35.00
0.23752	35.01
0.25418	35.01
0.27085	35.02
0.28752	35.01
0.30418	35.00
0.32085	34.99
0.33752	34.98
0.35418	34.98
0.37085	34.99
0.38752	35.00
0.40418	35.00
0.42085	35.00
0.43752	35.00
0.45418	35.00
0.47085	35.00
0.48752	34.99
0.50418	34.98
0.52085	34.96
0.53752	34.95
0.55418	34.94
0.57085	34.94
0.58752	34.94
0.60418	34.96
0.62085	34.96
0.63752	34.98
0.65418	34.99
0.67085	35.01
0.68752	35.01
0.70418	35.02
0.72085	35.01
0.73752	34.99
0.75418	34.99
0.77085	34.98
0.78752	34.96
0.80418	34.95
0.82085	34.94
0.83752	34.95
0.85418	34.95
0.87085	34.95
0.88752	34.96
0.90418	34.98
0.92085	34.98
0.93752	34.97
0.95418	34.99
0.97085	34.98
0.98752	34.99
1.00418	35.00
1.02085	35.01
1.03752	34.99
1.05418	34.99
1.07085	34.99
1.08752	34.98
1.10418	34.98
1.12085	34.97
1.13752	34.96
1.15418	34.97
1.17085	34.98
1.18752	34.99
1.20418	34.99
1.22085	35.01
1.23752	35.02
1.25418	35.02
1.27085	35.02
1.28752	35.00
1.30418	34.99
1.32085	34.99
1.33752	34.99
1.35418	34.99
1.37085	34.98
1.38752	34.97
1.40418	34.97
1.42085	34.97
1.43752	34.98
1.45418	34.98
1.47085	34.98
1.48752	34.99
1.50418	34.99
1.52085	35.00
1.53752	35.01
1.55418	35.01
1.57085	35.01
1.58752	35.03
1.60418	35.08
1.62085	35.18
1.63752	35.35
1.65418	35.57
1.67085	35.87
1.68752	36.24
1.70418	36.59
1.72085	36.92
1.73752	37.27
1.75418	37.61
1.77085	37.95
1.78752	38.25
1.80418	38.58
1.82085	38.92
1.83752	39.24
1.85418	39.57
1.87085	39.91
1.88752	40.24
1.90418	40.56
1.92085	40.90
1.93752	41.22
1.95418	41.54
1.97085	41.88
1.98752	42.20
2.00418	42.50
2.02085	42.82
2.03752	43.15
2.05418	43.47
2.07085	43.79
2.08752	44.11
2.10418	44.44
2.12085	44.79
2.13752	45.10
2.15418	45.44
2.17085	45.77
2.18752	46.10
2.20418	46.40
2.22085	46.77
2.23752	47.10
2.25418	47.42
2.27085	47.75
2.28752	48.13
2.30418	48.44
2.32085	48.76
2.33752	49.09
2.35418	49.38
2.37085	49.57
2.38752	49.63
2.40418	49.63
2.42085	49.64
2.43752	49.66
2.45418	49.66
2.47085	49.68
2.48752	49.69
2.50418	49.70
2.52085	49.71
2.53752	49.72
2.55418	49.74
2.57085	49.77
2.58752	49.78
2.60418	49.81
2.62085	49.81
2.63752	49.83
2.65418	49.83
2.67085	49.82
2.68752	49.85
2.70418	49.86
2.72085	49.85
2.73752	49.83
2.75418	49.85
2.77085	49.86
2.78752	49.86
2.80418	49.86
2.82085	49.87
2.83752	49.87
2.85418	49.88
2.87085	49.89
2.88752	49.89
2.90418	49.90
2.92085	49.92
2.93752	49.94
2.95418	49.96
2.97085	49.97
2.98752	49.98
3.00418	49.99
3.02085	50.00
3.03752	50.00
3.05418	50.01
3.07085	50.01
3.08752	50.01
3.10418	50.01
3.12085	50.01
3.13752	50.02
3.15418	50.04
3.17085	50.05
3.18752	50.07
3.20418	50.08
3.22085	50.09
3.23752	50.09
3.25418	50.09
3.27085	50.10
3.28752	50.10
3.30418	50.09
3.32085	50.08
3.33752	50.08
3.35418	50.08
3.37085	50.08
3.38752	50.09
3.40418	50.08
3.42085	50.08
3.43752	50.08
3.45418	50.08
3.47085	50.08
3.48752	50.09
3.50418	50.09
3.52085	50.08
3.53752	50.09
3.55418	50.09
3.57085	50.10
3.58752	50.11
3.60418	50.11
3.62085	50.09
3.63752	50.08
3.65418	50.07
3.67085	50.05
3.68752	50.04
3.70418	50.03
3.72085	50.03
3.73752	50.02
3.75418	50.01
3.77085	50.01
3.78752	50.00
3.80418	50.00
3.82085	50.00
3.83752	50.02
3.85418	50.03
3.87085	50.03
3.88752	50.03
3.90418	50.03
3.92085	50.02
3.93752	50.02
3.95418	50.02
3.97085	50.03
3.98752	50.03

[Status Trace (Injection Unit Temperature)]
Interval(msec)	1000
# of Points	240
Start Time(min)	0.004
End Time(min)	3.988
Intensity Units	
Intensity Multiplier	1
R.Time (min)	Intensity
0.00418	99.99
0.02085	99.99
0.03752	99.99
0.05418	99.99
0.07085	99.99
0.08752	99.99
0.10418	99.99
0.12085	99.99
0.13752	99.99
0.15418	99.99
0.17085	99.99
0.18752	99.99
0.20418	100.00
0.22085	99.99
0.23752	99.99
0.25418	100.00
0.27085	100.00
0.28752	99.99
0.30418	100.00
0.32085	100.00
0.33752	99.99
0.35418	99.99
0.37085	100.00
0.38752	99.99
0.40418	100.00
0.42085	100.00
0.43752	99.99
0.45418	100.00
0.47085	100.00
0.48752	99.99
0.50418	100.00
0.52085	100.00
0.53752	99.99
0.55418	99.99
0.57085	99.99
0.58752	100.00
0.60418	100.00
0.62085	100.00
0.63752	99.99
0.65418	100.00
0.67085	100.00
0.68752	100.00
0.70418	100.00
0.72085	100.00
0.73752	100.00
0.75418	100.00
0.77085	100.00
0.78752	100.00
0.80418	100.00
0.82085	100.00
0.83752	100.00
0.85418	100.00
0.87085	100.00
0.88752	100.00
0.90418	100.00
0.92085	100.00
0.93752	99.99
0.95418	100.00
0.97085	100.00
0.98752	100.00
1.00418	100.00
1.02085	100.00
1.03752	100.00
1.05418	100.00
1.07085	100.00
1.08752	100.00
1.10418	99.99
1.12085	100.00
1.13752	99.99
1.15418	100.00
1.17085	100.00
1.18752	100.00
1.20418	99.99
1.22085	100.00
1.23752	100.00
1.25418	99.99
1.27085	99.99
1.28752	100.00
1.30418	100.00
1.32085	100.00
1.33752	100.00
1.35418	100.00
1.37085	100.00
1.38752	100.00
1.40418	100.00
1.42085	100.00
1.43752	99.99
1.45418	100.00
1.47085	100.00
1.48752	100.00
1.50418	100.00
1.52085	100.00
1.53752	100.00
1.55418	100.00
1.57085	100.00
1.58752	100.00
1.60418	100.00
1.62085	100.00
1.63752	100.00
1.65418	100.00
1.67085	100.00
1.68752	100.00
1.70418	100.00
1.72085	100.00
1.73752	100.00
1.75418	100.00
1.77085	100.00
1.78752	100.00
1.80418	100.00
1.82085	100.00
1.83752	100.00
1.85418	99.99
1.87085	100.00
1.88752	100.00
1.90418	100.00
1.92085	99.99
1.93752	99.99
1.95418	99.99
1.97085	99.99
1.98752	99.99
2.00418	99.99
2.02085	99.99
2.03752	99.99
2.05418	99.99
2.07085	99.99
2.08752	99.99
2.10418	99.99
2.12085	99.99
2.13752	99.99
2.15418	99.99
2.17085	99.98
2.18752	99.98
2.20418	99.98
2.22085	99.98
2.23752	99.98
2.25418	99.98
2.27085	99.98
2.28752	99.98
2.30418	99.98
2.32085	99.98
2.33752	99.97
2.35418	99.98
2.37085	99.98
2.38752	99.97
2.40418	99.98
2.42085	99.98
2.43752	99.98
2.45418	99.98
2.47085	99.98
2.48752	99.98
2.50418	99.98
2.52085	99.98
2.53752	99.98
2.55418	99.98
2.57085	99.98
2.58752	99.99
2.60418	99.99
2.62085	99.98
2.63752	99.99
2.65418	99.99
2.67085	99.99
2.68752	99.99
2.70418	99.99
2.72085	100.00
2.73752	100.00
2.75418	100.00
2.77085	100.00
2.78752	100.00
2.80418	100.00
2.82085	100.00
2.83752	100.00
2.85418	100.01
2.87085	100.01
2.88752	100.01
2.90418	100.01
2.92085	100.01
2.93752	100.01
2.95418	100.02
2.97085	100.01
2.98752	100.02
3.00418	100.02
3.02085	100.02
3.03752	100.02
3.05418	100.02
3.07085	100.02
3.08752	100.03
3.10418	100.03
3.12085	100.03
3.13752	100.03
3.15418	100.03
3.17085	100.03
3.18752	100.03
3.20418	100.04
3.22085	100.03
3.23752	100.04
3.25418	100.04
3.27085	100.04
3.28752	100.04
3.30418	100.04
3.32085	100.04
3.33752	100.04
3.35418	100.04
3.37085	100.04
3.38752	100.05
3.40418	100.04
3.42085	100.05
3.43752	100.05
3.45418	100.05
3.47085	100.06
3.48752	100.05
3.50418	100.05
3.52085	100.05
3.53752	100.05
3.55418	100.06
3.57085	100.06
3.58752	100.05
3.60418	100.06
3.62085	100.06
3.63752	100.06
3.65418	100.06
3.67085	100.06
3.68752	100.06
3.70418	100.06
3.72085	100.06
3.73752	100.06
3.75418	100.06
3.77085	100.07
3.78752	100.06
3.80418	100.06
3.82085	100.06
3.83752	100.07
3.85418	100.06
3.87085	100.06
3.88752	100.06
3.90418	100.06
3.92085	100.07
3.93752	100.06
3.95418	100.07
3.97085	100.07
3.98752	100.06

[Status Trace (Carrier Gas Pressure)]
Interval(msec)	1000
# of Points	240
Start Time(min)	0.004
End Time(min)	3.988
Intensity Units	
Intensity Multiplier	1
R.Time (min)	Intensity
0.00418	58.00
0.02085	56.02
0.03752	56.57
0.05418	58.82
0.07085	59.78
0.08752	58.20
0.10418	57.97
0.12085	58.01
0.13752	58.01
0.15418	58.00
0.17085	58.00
0.18752	58.00
0.20418	58.00
0.22085	58.00
0.23752	58.00
0.25418	58.00
0.27085	58.00
0.28752	58.00
0.30418	58.00
0.32085	58.00
0.33752	58.00
0.35418	58.00
0.37085	58.00
0.38752	58.00
0.40418	58.00
0.42085	58.00
0.43752	58.00
0.45418	58.00
0.47085	58.00
0.48752	58.00
0.50418	58.00
0.52085	58.00
0.53752	58.00
0.55418	58.00
0.57085	58.00
0.58752	58.00
0.60418	58.00
0.62085	58.00
0.63752	58.00
0.65418	58.00
0.67085	58.00
0.68752	58.00
0.70418	58.00
0.72085	58.00
0.73752	58.00
0.75418	58.00
0.77085	58.00
0.78752	58.00
0.80418	58.00
0.82085	58.00
0.83752	58.00
0.85418	58.00
0.87085	58.00
0.88752	58.00
0.90418	58.00
0.92085	58.00
0.93752	58.00
0.95418	58.00
0.97085	58.00
0.98752	58.00
1.00418	58.00
1.02085	58.00
1.03752	58.00
1.05418	58.00
1.07085	58.00
1.08752	58.00
1.10418	58.00
1.12085	58.00
1.13752	58.00
1.15418	58.00
1.17085	58.00
1.18752	58.00
1.20418	58.00
1.22085	58.00
1.23752	58.00
1.25418	58.00
1.27085	58.00
1.28752	58.00
1.30418	58.00
1.32085	58.00
1.33752	58.00
1.35418	58.00
1.37085	58.00
1.38752	58.00
1.40418	58.00
1.42085	58.00
1.43752	58.00
1.45418	58.00
1.47085	58.00
1.48752	58.00
1.50418	58.00
1.52085	58.00
1.53752	58.00
1.55418	58.00
1.57085	58.00
1.58752	58.00
1.60418	58.00
1.62085	58.00
1.63752	58.00
1.65418	58.00
1.67085	58.01
1.68752	58.01
1.70418	58.00
1.72085	58.00
1.73752	58.00
1.75418	58.00
1.77085	58.00
1.78752	58.00
1.80418	58.00
1.82085	58.00
1.83752	58.00
1.85418	58.00
1.87085	58.00
1.88752	58.00
1.90418	58.00
1.92085	58.00
1.93752	58.00
1.95418	58.00
1.97085	58.00
1.98752	58.00
2.00418	58.00
2.02085	58.00
2.03752	58.00
2.05418	58.00
2.07085	58.00
2.08752	58.00
2.10418	58.00
2.12085	58.00
2.13752	58.00
2.15418	58.00
2.17085	58.00
2.18752	58.00
2.20418	58.00
2.22085	58.00
2.23752	58.00
2.25418	58.00
2.27085	58.00
2.28752	58.00
2.30418	58.00
2.32085	58.00
2.33752	58.00
2.35418	58.00
2.37085	58.00
2.38752	57.99
2.40418	57.99
2.42085	58.00
2.43752	58.00
2.45418	58.00
2.47085	58.00
2.48752	58.00
2.50418	57.99
2.52085	58.00
2.53752	57.99
2.55418	58.00
2.57085	58.00
2.58752	58.00
2.60418	58.00
2.62085	58.00
2.63752	58.00
2.65418	58.00
2.67085	58.00
2.68752	58.00
2.70418	58.00
2.72085	58.00
2.73752	58.00
2.75418	58.00
2.77085	58.00
2.78752	58.00
2.80418	58.00
2.82085	58.00
2.83752	58.00
2.85418	58.00
2.87085	58.00
2.88752	58.00
2.90418	58.00
2.92085	58.00
2.93752	58.00
2.95418	58.00
2.97085	58.00
2.98752	58.00
3.00418	58.00
3.02085	58.00
3.03752	58.00
3.05418	58.00
3.07085	58.00
3.08752	58.00
3.10418	58.00
3.12085	58.00
3.13752	58.00
3.15418	58.00
3.17085	58.00
3.18752	58.00
3.20418	58.00
3.22085	58.00
3.23752	58.00
3.25418	58.00
3.27085	58.00
3.28752	58.00
3.30418	58.00
3.32085	58.00
3.33752	58.00
3.35418	58.00
3.37085	58.00
3.38752	58.00
3.40418	58.00
3.42085	58.00
3.43752	58.00
3.45418	58.00
3.47085	58.00
3.48752	58.00
3.50418	58.00
3.52085	58.00
3.53752	58.00
3.55418	58.00
3.57085	58.00
3.58752	58.00
3.60418	58.00
3.62085	58.00
3.63752	58.00
3.65418	58.00
3.67085	58.00
3.68752	58.00
3.70418	58.00
3.72085	58.00
3.73752	58.00
3.75418	58.00
3.77085	58.00
3.78752	58.00
3.80418	58.00
3.82085	58.00
3.83752	58.00
3.85418	58.00
3.87085	58.00
3.88752	58.00
3.90418	58.00
3.92085	58.00
3.93752	58.00
3.95418	58.00
3.97085	58.00
3.98752	58.00

[Status Trace (Carrier Gas Flow)]
Interval(msec)	1000
# of Points	240
Start Time(min)	0.004
End Time(min)	3.988
Intensity Units	
Intensity Multiplier	1
R.Time (min)	Intensity
0.00418	34.52
0.02085	34.59
0.03752	34.54
0.05418	34.55
0.07085	34.49
0.08752	34.51
0.10418	34.52
0.12085	34.52
0.13752	34.52
0.15418	34.52
0.17085	34.52
0.18752	34.52
0.20418	34.52
0.22085	34.52
0.23752	34.52
0.25418	34.52
0.27085	34.52
0.28752	34.52
0.30418	34.52
0.32085	34.52
0.33752	34.52
0.35418	34.52
0.37085	34.52
0.38752	34.52
0.40418	34.52
0.42085	34.52
0.43752	34.52
0.45418	34.52
0.47085	34.52
0.48752	34.52
0.50418	34.52
0.52085	34.52
0.53752	34.52
0.55418	34.52
0.57085	34.52
0.58752	34.52
0.60418	34.52
0.62085	34.52
0.63752	34.52
0.65418	34.52
0.67085	34.52
0.68752	34.52
0.70418	34.52
0.72085	34.52
0.73752	34.52
0.75418	34.52
0.77085	34.52
0.78752	34.52
0.80418	34.52
0.82085	34.52
0.83752	34.52
0.85418	34.52
0.87085	34.52
0.88752	34.52
0.90418	34.52
0.92085	34.52
0.93752	34.52
0.95418	34.52
0.97085	34.52
0.98752	34.52
1.00418	34.52
1.02085	34.52
1.03752	34.52
1.05418	34.52
1.07085	34.52
1.08752	34.52
1.10418	34.51
1.12085	34.52
1.13752	34.51
1.15418	34.52
1.17085	34.52
1.18752	34.52
1.20418	34.52
1.22085	34.52
1.23752	34.52
1.25418	34.52
1.27085	34.52
1.28752	34.52
1.30418	34.51
1.32085	34.52
1.33752	34.52
1.35418	34.52
1.37085	34.53
1.38752	34.52
1.40418	34.52
1.42085	34.52
1.43752	34.51
1.45418	34.52
1.47085	34.52
1.48752	34.52
1.50418	34.52
1.52085	34.52
1.53752	34.52
1.55418	34.52
1.57085	34.51
1.58752	34.52
1.60418	34.51
1.62085	34.51
1.63752	34.52
1.65418	34.52
1.67085	34.52
1.68752	34.52
1.70418	34.52
1.72085	34.52
1.73752	34.52
1.75418	34.52
1.77085	34.52
1.78752	34.52
1.80418	34.52
1.82085	34.52
1.83752	34.52
1.85418	34.52
1.87085	34.52
1.88752	34.52
1.90418	34.52
1.92085	34.52
1.93752	34.52
1.95418	34.52
1.97085	34.52
1.98752	34.52
2.00418	34.52
2.02085	34.52
2.03752	34.52
2.05418	34.51
2.07085	34.51
2.08752	34.52
2.10418	34.52
2.12085	34.52
2.13752	34.51
2.15418	34.53
2.17085	34.52
2.18752	34.52
2.20418	34.52
2.22085	34.52
2.23752	34.52
2.25418	34.52
2.27085	34.52
2.28752	34.52
2.30418	34.52
2.32085	34.52
2.33752	34.53
2.35418	34.52
2.37085	34.52
2.38752	34.56
2.40418	34.52
2.42085	34.52
2.43752	34.52
2.45418	34.52
2.47085	34.52
2.48752	34.52
2.50418	34.56
2.52085	34.52
2.53752	34.52
2.55418	34.52
2.57085	34.52
2.58752	34.52
2.60418	34.52
2.62085	34.52
2.63752	34.52
2.65418	34.52
2.67085	34.52
2.68752	34.52
2.70418	34.52
2.72085	34.51
2.73752	34.52
2.75418	34.52
2.77085	34.52
2.78752	34.52
2.80418	34.52
2.82085	34.52
2.83752	34.53
2.85418	34.52
2.87085	34.52
2.88752	34.52
2.90418	34.52
2.92085	34.51
2.93752	34.52
2.95418	34.52
2.97085	34.51
2.98752	34.52
3.00418	34.52
3.02085	34.52
3.03752	34.52
3.05418	34.52
3.07085	34.52
3.08752	34.51
3.10418	34.51
3.12085	34.51
3.13752	34.52
3.15418	34.52
3.17085	34.52
3.18752	34.52
3.20418	34.52
3.22085	34.52
3.23752	34.51
3.25418	34.52
3.27085	34.51
3.28752	34.52
3.30418	34.52
3.32085	34.52
3.33752	34.52
3.35418	34.52
3.37085	34.52
3.38752	34.51
3.40418	34.51
3.42085	34.52
3.43752	34.51
3.45418	34.52
3.47085	34.52
3.48752	34.52
3.50418	34.52
3.52085	34.52
3.53752	34.51
3.55418	34.52
3.57085	34.52
3.58752	34.52
3.60418	34.52
3.62085	34.52
3.63752	34.52
3.65418	34.52
3.67085	34.52
3.68752	34.52
3.70418	34.51
3.72085	34.52
3.73752	34.52
3.75418	34.52
3.77085	34.52
3.78752	34.52
3.80418	34.52
3.82085	34.52
3.83752	34.52
3.85418	34.52
3.87085	34.52
3.88752	34.52
3.90418	34.52
3.92085	34.52
3.93752	34.52
3.95418	34.52
3.97085	34.52
3.98752	34.52

[Status Trace (Column Flow)]
Interval(msec)	1000
# of Points	240
Start Time(min)	0.004
End Time(min)	3.988
Intensity Units	
Intensity Multiplier	1
R.Time (min)	Intensity
0.00418	5.58
0.02085	5.34
0.03752	5.41
0.05418	5.67
0.07085	5.79
0.08752	5.60
0.10418	5.57
0.12085	5.58
0.13752	5.58
0.15418	5.58
0.17085	5.58
0.18752	5.58
0.20418	5.58
0.22085	5.58
0.23752	5.58
0.25418	5.57
0.27085	5.57
0.28752	5.57
0.30418	5.57
0.32085	5.58
0.33752	5.58
0.35418	5.58
0.37085	5.58
0.38752	5.57
0.40418	5.57
0.42085	5.57
0.43752	5.57
0.45418	5.57
0.47085	5.57
0.48752	5.57
0.50418	5.58
0.52085	5.58
0.53752	5.58
0.55418	5.58
0.57085	5.58
0.58752	5.58
0.60418	5.58
0.62085	5.58
0.63752	5.58
0.65418	5.57
0.67085	5.57
0.68752	5.57
0.70418	5.57
0.72085	5.57
0.73752	5.58
0.75418	5.58
0.77085	5.58
0.78752	5.58
0.80418	5.58
0.82085	5.58
0.83752	5.58
0.85418	5.58
0.87085	5.58
0.88752	5.58
0.90418	5.58
0.92085	5.58
0.93752	5.58
0.95418	5.58
0.97085	5.58
0.98752	5.57
1.00418	5.57
1.02085	5.57
1.03752	5.57
1.05418	5.58
1.07085	5.57
1.08752	5.58
1.10418	5.58
1.12085	5.58
1.13752	5.58
1.15418	5.58
1.17085	5.58
1.18752	5.57
1.20418	5.57
1.22085	5.57
1.23752	5.57
1.25418	5.57
1.27085	5.57
1.28752	5.57
1.30418	5.57
1.32085	5.57
1.33752	5.58
1.35418	5.57
1.37085	5.58
1.38752	5.58
1.40418	5.58
1.42085	5.58
1.43752	5.58
1.45418	5.58
1.47085	5.58
1.48752	5.58
1.50418	5.57
1.52085	5.57
1.53752	5.57
1.55418	5.57
1.57085	5.57
1.58752	5.57
1.60418	5.57
1.62085	5.57
1.63752	5.56
1.65418	5.56
1.67085	5.55
1.68752	5.54
1.70418	5.52
1.72085	5.51
1.73752	5.50
1.75418	5.49
1.77085	5.48
1.78752	5.47
1.80418	5.46
1.82085	5.45
1.83752	5.44
1.85418	5.43
1.87085	5.42
1.88752	5.41
1.90418	5.40
1.92085	5.39
1.93752	5.38
1.95418	5.37
1.97085	5.36
1.98752	5.35
2.00418	5.34
2.02085	5.33
2.03752	5.32
2.05418	5.31
2.07085	5.31
2.08752	5.30
2.10418	5.29
2.12085	5.28
2.13752	5.27
2.15418	5.26
2.17085	5.25
2.18752	5.24
2.20418	5.23
2.22085	5.22
2.23752	5.21
2.25418	5.20
2.27085	5.19
2.28752	5.18
2.30418	5.17
2.32085	5.16
2.33752	5.15
2.35418	5.14
2.37085	5.14
2.38752	5.14
2.40418	5.14
2.42085	5.14
2.43752	5.14
2.45418	5.14
2.47085	5.14
2.48752	5.14
2.50418	5.13
2.52085	5.13
2.53752	5.13
2.55418	5.13
2.57085	5.13
2.58752	5.13
2.60418	5.13
2.62085	5.13
2.63752	5.13
2.65418	5.13
2.67085	5.13
2.68752	5.13
2.70418	5.13
2.72085	5.13
2.73752	5.13
2.75418	5.13
2.77085	5.13
2.78752	5.13
2.80418	5.13
2.82085	5.13
2.83752	5.13
2.85418	5.13
2.87085	5.13
2.88752	5.13
2.90418	5.13
2.92085	5.13
2.93752	5.13
2.95418	5.13
2.97085	5.13
2.98752	5.13
3.00418	5.13
3.02085	5.13
3.03752	5.13
3.05418	5.13
3.07085	5.13
3.08752	5.13
3.10418	5.13
3.12085	5.13
3.13752	5.13
3.15418	5.13
3.17085	5.13
3.18752	5.13
3.20418	5.13
3.22085	5.12
3.23752	5.12
3.25418	5.12
3.27085	5.12
3.28752	5.12
3.30418	5.12
3.32085	5.12
3.33752	5.12
3.35418	5.12
3.37085	5.12
3.38752	5.12
3.40418	5.12
3.42085	5.12
3.43752	5.12
3.45418	5.12
3.47085	5.12
3.48752	5.12
3.50418	5.12
3.52085	5.12
3.53752	5.12
3.55418	5.12
3.57085	5.12
3.58752	5.12
3.60418	5.12
3.62085	5.12
3.63752	5.12
3.65418	5.13
3.67085	5.13
3.68752	5.13
3.70418	5.13
3.72085	5.13
3.73752	5.13
3.75418	5.13
3.77085	5.13
3.78752	5.13
3.80418	5.13
3.82085	5.13
3.83752	5.13
3.85418	5.13
3.87085	5.13
3.88752	5.13
3.90418	5.13
3.92085	5.13
3.93752	5.13
3.95418	5.13
3.97085	5.13
3.98752	5.13

[Status Trace (Linear Velocity)]
Interval(msec)	1000
# of Points	240
Start Time(min)	0.004
End Time(min)	3.988
Intensity Units	
Intensity Multiplier	1
R.Time (min)	Intensity
0.00418	39.03
0.02085	37.73
0.03752	38.09
0.05418	39.57
0.07085	40.20
0.08752	39.16
0.10418	39.01
0.12085	39.03
0.13752	39.04
0.15418	39.03
0.17085	39.03
0.18752	39.03
0.20418	39.03
0.22085	39.03
0.23752	39.03
0.25418	39.03
0.27085	39.03
0.28752	39.03
0.30418	39.03
0.32085	39.03
0.33752	39.03
0.35418	39.03
0.37085	39.03
0.38752	39.03
0.40418	39.03
0.42085	39.03
0.43752	39.03
0.45418	39.03
0.47085	39.03
0.48752	39.03
0.50418	39.03
0.52085	39.03
0.53752	39.03
0.55418	39.03
0.57085	39.04
0.58752	39.04
0.60418	39.03
0.62085	39.03
0.63752	39.03
0.65418	39.03
0.67085	39.03
0.68752	39.03
0.70418	39.03
0.72085	39.03
0.73752	39.03
0.75418	39.03
0.77085	39.03
0.78752	39.03
0.80418	39.03
0.82085	39.03
0.83752	39.03
0.85418	39.03
0.87085	39.03
0.88752	39.03
0.90418	39.03
0.92085	39.03
0.93752	39.03
0.95418	39.03
0.97085	39.03
0.98752	39.03
1.00418	39.03
1.02085	39.03
1.03752	39.03
1.05418	39.03
1.07085	39.03
1.08752	39.03
1.10418	39.03
1.12085	39.03
1.13752	39.03
1.15418	39.03
1.17085	39.03
1.18752	39.03
1.20418	39.03
1.22085	39.03
1.23752	39.03
1.25418	39.03
1.27085	39.03
1.28752	39.03
1.30418	39.03
1.32085	39.03
1.33752	39.03
1.35418	39.03
1.37085	39.03
1.38752	39.03
1.40418	39.03
1.42085	39.03
1.43752	39.03
1.45418	39.03
1.47085	39.03
1.48752	39.03
1.50418	39.03
1.52085	39.03
1.53752	39.03
1.55418	39.03
1.57085	39.03
1.58752	39.03
1.60418	39.02
1.62085	39.01
1.63752	39.00
1.65418	38.98
1.67085	38.95
1.68752	38.91
1.70418	38.88
1.72085	38.85
1.73752	38.81
1.75418	38.78
1.77085	38.75
1.78752	38.72
1.80418	38.69
1.82085	38.66
1.83752	38.62
1.85418	38.59
1.87085	38.57
1.88752	38.53
1.90418	38.50
1.92085	38.47
1.93752	38.44
1.95418	38.41
1.97085	38.38
1.98752	38.35
2.00418	38.32
2.02085	38.30
2.03752	38.26
2.05418	38.23
2.07085	38.21
2.08752	38.17
2.10418	38.14
2.12085	38.11
2.13752	38.08
2.15418	38.05
2.17085	38.03
2.18752	37.99
2.20418	37.96
2.22085	37.94
2.23752	37.91
2.25418	37.87
2.27085	37.85
2.28752	37.81
2.30418	37.78
2.32085	37.76
2.33752	37.72
2.35418	37.70
2.37085	37.68
2.38752	37.67
2.40418	37.67
2.42085	37.67
2.43752	37.67
2.45418	37.67
2.47085	37.67
2.48752	37.67
2.50418	37.66
2.52085	37.67
2.53752	37.67
2.55418	37.67
2.57085	37.66
2.58752	37.66
2.60418	37.66
2.62085	37.66
2.63752	37.66
2.65418	37.66
2.67085	37.66
2.68752	37.66
2.70418	37.66
2.72085	37.66
2.73752	37.66
2.75418	37.66
2.77085	37.66
2.78752	37.66
2.80418	37.66
2.82085	37.66
2.83752	37.66
2.85418	37.66
2.87085	37.65
2.88752	37.65
2.90418	37.65
2.92085	37.65
2.93752	37.65
2.95418	37.65
2.97085	37.65
2.98752	37.65
3.00418	37.64
3.02085	37.65
3.03752	37.64
3.05418	37.64
3.07085	37.64
3.08752	37.64
3.10418	37.64
3.12085	37.64
3.13752	37.64
3.15418	37.64
3.17085	37.64
3.18752	37.64
3.20418	37.64
3.22085	37.64
3.23752	37.64
3.25418	37.64
3.27085	37.64
3.28752	37.64
3.30418	37.64
3.32085	37.64
3.33752	37.64
3.35418	37.64
3.37085	37.64
3.38752	37.64
3.40418	37.64
3.42085	37.64
3.43752	37.64
3.45418	37.64
3.47085	37.64
3.48752	37.64
3.50418	37.64
3.52085	37.64
3.53752	37.64
3.55418	37.64
3.57085	37.64
3.58752	37.63
3.60418	37.63
3.62085	37.64
3.63752	37.64
3.65418	37.64
3.67085	37.64
3.68752	37.64
3.70418	37.64
3.72085	37.64
3.73752	37.64
3.75418	37.64
3.77085	37.64
3.78752	37.64
3.80418	37.64
3.82085	37.64
3.83752	37.64
3.85418	37.64
3.87085	37.64
3.88752	37.64
3.90418	37.64
3.92085	37.64
3.93752	37.64
3.95418	37.64
3.97085	37.64
3.98752	37.64

