[Header]
Application Name	LabSolutions
Version	5.110
Data File Name	C:\Users\User\Desktop\GC Analyses\Jack\Nachusa Grasslands Sampling\T1 Timepoint July 12th\T1_07122022_084.gcd
Output Date	3/14/2023
Output Time	3:41:02 PM

[File Information]
Type	Data File
Generated	3/8/2023 10:37:45 PM
Generated by	System Administrator
Modified	3/8/2023 10:44:35 PM
Modified by	System Administrator

[Sample Information]
Operator Name	System Administrator
Acquired	3/8/2023 10:40:34 PM
Sample Type	0:Unknown
Level	0
Sample Name	084
Sample ID	084
ISTD Amount1	1
ISTD Amount2	1
ISTD Amount3	1
ISTD Amount4	1
ISTD Amount5	1
ISTD Amount6	1
ISTD Amount7	1
ISTD Amount8	1
ISTD Amount9	1
ISTD Amount10	1
ISTD Amount11	1
ISTD Amount12	1
ISTD Amount13	1
ISTD Amount14	1
ISTD Amount15	1
ISTD Amount16	1
ISTD Amount17	1
ISTD Amount18	1
ISTD Amount19	1
ISTD Amount20	1
ISTD Amount21	1
ISTD Amount22	1
ISTD Amount23	1
ISTD Amount24	1
ISTD Amount25	1
ISTD Amount26	1
ISTD Amount27	1
ISTD Amount28	1
ISTD Amount29	1
ISTD Amount30	1
ISTD Amount31	1
ISTD Amount32	1
Sample Amount	1
Dilution Factor	1
Vial#	83
Injection Volume	1
Injection Count	1
Bar Code	

[Original Files]
Data File	C:\Users\User\Desktop\GC Analyses\Jack\Nachusa Grasslands Sampling\T1 Timepoint July 12th\T1_07122022_084.gcd
Method File	C:\LabSolutions\Data\GHG_4min_2022\ghg3_togas_w_acet_4 min_new_int.gcm
Batch File	C:\LabSolutions\Data\AutoSamplerTesting\T1_07122022.gcb
Report Format File	c:\LabSolutions\System\DEFAULT.lsr

[File Description]


[Configuration]
Instrument Name	C0B7VH3-Instrument1
Instrument #	1
Line #	1
# of Detectors	3
Detector ID	DET#1	DET#2	DET#3
Detector Name	FID	PTCD	ECD
# of Channels	1	1	1

[Peak Table(Ch1)]
# of Peaks	3
Peak#	R.Time	I.Time	F.Time	Area	Height	A/H	Conc.	Mark	ID#	Name	k'	Plate #	Plate Ht.	Tailing	Resolution	Sep.Factor	Area Ratio	Height Ratio	Conc. %	Norm Conc.
1	1.476	1.435	1.538	32495	15419	2.107	229.414	   	1	CO	0.000	9157	16.381	1.319	0.000	0.000	0	0	28.580	28.580
2	1.567	1.538	1.626	4740	2309	2.053	91.649	 V 	2	CH4	0.062	10431	14.380	0.000	1.490	0.000	0	0	11.417	11.417
3	1.996	1.949	2.642	1919129	907288	2.115	481.649	   	3	CO2	0.353	17278	8.682	1.301	7.025	5.680	0	0	60.003	60.003

[Peak Table(Ch2)]
# of Peaks	0

[Peak Table(Ch3)]
# of Peaks	4
Peak#	R.Time	I.Time	F.Time	Area	Height	A/H	Conc.	Mark	ID#	Name	k'	Plate #	Plate Ht.	Tailing	Resolution	Sep.Factor	Area Ratio	Height Ratio	Conc. %	Norm Conc.
1	2.458	2.323	2.513	1917	566	3.387	0.000	   			0.000	10193	14.717	0.000	0.000	0.000	0	0	0.000	0.000
2	2.539	2.513	2.627	1003	255	3.933	0.000	 V 			0.033	5221	28.728	0.000	0.678	0.000	0	0	0.000	0.000
3	2.671	2.642	2.744	172	58	2.933	0.000	   			0.087	16326	9.188	1.735	1.178	2.636	0	0	0.000	0.000
4	2.873	2.807	3.126	18773	4940	3.800	0.480	   	1	N2O	0.169	13381	11.210	1.679	2.205	1.948	0	0	100.000	100.000

[Compound Results(Ch1)]
# of IDs	6
ID#	Name	R.Time	Area	Height	Conc.	Curve	3rd	2nd	1st	Constant	Area Ratio	Height Ratio	Conc. %	Norm Conc.
1	CO	1.476	32495	15419	229.414	Linear	0.000000e+00	0.000000e+00	1.416423e+002	0.000000e+00	0	0	28.580	28.580
2	CH4	1.567	4740	2309	91.649	Linear	0.000000e+00	0.000000e+00	5.171738e+001	0.000000e+00	0	0	11.417	11.417
3	CO2	1.996	1919129	907288	481.649	Linear	0.000000e+00	0.000000e+00	3.984494e+003	0.000000e+00	0	0	60.003	60.003
4	Ethylene	0.000	0	0	0.000	Linear	0.000000e+00	0.000000e+00	0.000000e+00	0.000000e+00	0	0	0.000	0.000
5	Acetylene	0.000	0	0	0.000	Linear	0.000000e+00	0.000000e+00	0.000000e+00	0.000000e+00	0	0	0.000	0.000
6	Ethane	0.000	0	0	0.000	Linear	0.000000e+00	0.000000e+00	0.000000e+00	0.000000e+00	0	0	0.000	0.000

[Compound Results(Ch2)]
# of IDs	5
ID#	Name	R.Time	Area	Height	Conc.	Curve	3rd	2nd	1st	Constant	Area Ratio	Height Ratio	Conc. %	Norm Conc.
1	Hydrogen	0.000	0	0	0.000	Linear	0.000000e+00	0.000000e+00	0.000000e+00	0.000000e+00	0	0	0.000	0.000
2	Oxygen	0.000	0	0	0.000	Linear	0.000000e+00	0.000000e+00	0.000000e+00	0.000000e+00	0	0	0.000	0.000
3	Nitrogen	0.000	0	0	0.000	Linear	0.000000e+00	0.000000e+00	0.000000e+00	0.000000e+00	0	0	0.000	0.000
4	Methane	0.000	0	0	0.000	Linear	0.000000e+00	0.000000e+00	0.000000e+00	0.000000e+00	0	0	0.000	0.000
5	Carbon Monoxide	0.000	0	0	0.000	Linear	0.000000e+00	0.000000e+00	0.000000e+00	0.000000e+00	0	0	0.000	0.000

[Compound Results(Ch3)]
# of IDs	2
ID#	Name	R.Time	Area	Height	Conc.	Curve	3rd	2nd	1st	Constant	Area Ratio	Height Ratio	Conc. %	Norm Conc.
1	N2O	2.873	18773	4940	0.480	Linear	0.000000e+00	0.000000e+00	3.915173e+004	0.000000e+00	0	0	100.000	100.000
2	SF6	0.000	0	0	0.000	Linear	0.000000e+00	0.000000e+00	0.000000e+00	0.000000e+00	0	0	0.000	0.000

[Group Results(Ch1)]
# of Groups	0

[Group Results(Ch2)]
# of Groups	0

[Group Results(Ch3)]
# of Groups	0

[Chromatogram (Ch1)]
Interval(msec)	220
# of Points	1091
Start Time(min)	0.002
End Time(min)	3.998
R.Time (min)	Intensity
0.00167	-17
0.00533	-20
0.00900	-22
0.01267	-23
0.01633	-21
0.02000	-21
0.02367	-28
0.02733	-37
0.03100	-35
0.03467	-15
0.03833	-3
0.04200	0
0.04567	-4
0.04933	-14
0.05300	-22
0.05667	-29
0.06033	-32
0.06400	-33
0.06767	-31
0.07133	-27
0.07500	-23
0.07867	-19
0.08233	-14
0.08600	-7
0.08967	-2
0.09333	-3
0.09700	-8
0.10067	-9
0.10433	-4
0.10800	-0
0.11167	3
0.11533	6
0.11900	8
0.12267	11
0.12633	10
0.13000	5
0.13367	-1
0.13733	-6
0.14100	-10
0.14467	-12
0.14833	-12
0.15200	-15
0.15567	-19
0.15933	-21
0.16300	-15
0.16667	-7
0.17033	-7
0.17400	-13
0.17767	-18
0.18133	-21
0.18500	-16
0.18867	-8
0.19233	-1
0.19600	5
0.19967	5
0.20333	5
0.20700	4
0.21067	2
0.21433	0
0.21800	-2
0.22167	-0
0.22533	6
0.22900	12
0.23267	8
0.23633	-3
0.24000	-13
0.24367	-18
0.24733	-21
0.25100	-21
0.25467	-19
0.25833	-18
0.26200	-17
0.26567	-17
0.26933	-14
0.27300	-7
0.27667	-1
0.28033	5
0.28400	8
0.28767	4
0.29133	-5
0.29500	-9
0.29867	-10
0.30233	-11
0.30600	-10
0.30967	-6
0.31333	-1
0.31700	3
0.32067	5
0.32433	9
0.32800	14
0.33167	19
0.33533	23
0.33900	23
0.34267	19
0.34633	14
0.35000	13
0.35367	15
0.35733	14
0.36100	12
0.36467	13
0.36833	14
0.37200	14
0.37567	11
0.37933	9
0.38300	7
0.38667	2
0.39033	-3
0.39400	-4
0.39767	-7
0.40133	-11
0.40500	-11
0.40867	-8
0.41233	-3
0.41600	4
0.41967	11
0.42333	17
0.42700	23
0.43067	28
0.43433	27
0.43800	22
0.44167	19
0.44533	21
0.44900	21
0.45267	18
0.45633	15
0.46000	15
0.46367	15
0.46733	17
0.47100	20
0.47467	19
0.47833	16
0.48200	15
0.48567	15
0.48933	16
0.49300	23
0.49667	31
0.50033	30
0.50400	22
0.50767	11
0.51133	2
0.51500	-3
0.51867	-1
0.52233	9
0.52600	20
0.52967	26
0.53333	23
0.53700	14
0.54067	8
0.54433	7
0.54800	6
0.55167	5
0.55533	8
0.55900	9
0.56267	11
0.56633	15
0.57000	16
0.57367	14
0.57733	13
0.58100	15
0.58467	22
0.58833	33
0.59200	43
0.59567	47
0.59933	50
0.60300	52
0.60667	49
0.61033	46
0.61400	45
0.61767	44
0.62133	40
0.62500	31
0.62867	28
0.63233	29
0.63600	34
0.63967	40
0.64333	46
0.64700	54
0.65067	62
0.65433	68
0.65800	67
0.66167	60
0.66533	54
0.66900	52
0.67267	50
0.67633	48
0.68000	50
0.68367	52
0.68733	51
0.69100	47
0.69467	41
0.69833	37
0.70200	37
0.70567	45
0.70933	51
0.71300	51
0.71667	51
0.72033	53
0.72400	54
0.72767	56
0.73133	61
0.73500	68
0.73867	70
0.74233	65
0.74600	58
0.74967	53
0.75333	50
0.75700	47
0.76067	46
0.76433	47
0.76800	48
0.77167	45
0.77533	37
0.77900	28
0.78267	26
0.78633	34
0.79000	45
0.79367	50
0.79733	54
0.80100	55
0.80467	53
0.80833	49
0.81200	47
0.81567	51
0.81933	55
0.82300	52
0.82667	46
0.83033	43
0.83400	37
0.83767	32
0.84133	28
0.84500	25
0.84867	25
0.85233	27
0.85600	29
0.85967	34
0.86333	40
0.86700	43
0.87067	43
0.87433	35
0.87800	25
0.88167	21
0.88533	21
0.88900	24
0.89267	27
0.89633	31
0.90000	30
0.90367	29
0.90733	28
0.91100	30
0.91467	35
0.91833	38
0.92200	40
0.92567	37
0.92933	35
0.93300	31
0.93667	25
0.94033	21
0.94400	18
0.94767	18
0.95133	21
0.95500	20
0.95867	20
0.96233	24
0.96600	27
0.96967	29
0.97333	32
0.97700	39
0.98067	45
0.98433	45
0.98800	40
0.99167	34
0.99533	29
0.99900	25
1.00267	23
1.00633	22
1.01000	23
1.01367	26
1.01733	27
1.02100	24
1.02467	17
1.02833	10
1.03200	6
1.03567	5
1.03933	7
1.04300	12
1.04667	21
1.05033	30
1.05400	33
1.05767	29
1.06133	23
1.06500	13
1.06867	1
1.07233	-14
1.07600	-23
1.07967	-29
1.08333	-34
1.08700	-34
1.09067	-29
1.09433	-21
1.09800	-11
1.10167	-1
1.10533	7
1.10900	12
1.11267	13
1.11633	15
1.12000	16
1.12367	13
1.12733	6
1.13100	2
1.13467	2
1.13833	2
1.14200	-2
1.14567	-7
1.14933	-12
1.15300	-15
1.15667	-21
1.16033	-21
1.16400	-15
1.16767	-9
1.17133	-8
1.17500	-9
1.17867	-13
1.18233	-21
1.18600	-32
1.18967	-36
1.19333	-34
1.19700	-29
1.20067	-23
1.20433	-19
1.20800	-16
1.21167	-13
1.21533	-13
1.21900	-15
1.22267	-11
1.22633	-3
1.23000	4
1.23367	3
1.23733	-7
1.24100	-18
1.24467	-27
1.24833	-29
1.25200	-27
1.25567	-25
1.25933	-22
1.26300	-22
1.26667	-22
1.27033	-22
1.27400	-25
1.27767	-29
1.28133	-31
1.28500	-31
1.28867	-31
1.29233	-25
1.29600	-16
1.29967	-9
1.30333	-7
1.30700	-8
1.31067	-12
1.31433	-18
1.31800	-23
1.32167	-28
1.32533	-29
1.32900	-27
1.33267	-27
1.33633	-26
1.34000	-22
1.34367	-18
1.34733	-17
1.35100	-21
1.35467	-34
1.35833	-49
1.36200	-62
1.36567	-71
1.36933	-69
1.37300	-62
1.37667	-53
1.38033	-45
1.38400	-34
1.38767	-23
1.39133	-15
1.39500	-15
1.39867	-21
1.40233	-31
1.40600	-38
1.40967	-45
1.41333	-50
1.41700	-53
1.42067	-53
1.42433	-51
1.42800	-51
1.43167	-48
1.43533	-40
1.43900	-9
1.44267	93
1.44633	345
1.45000	973
1.45367	2452
1.45733	4922
1.46100	7901
1.46467	10747
1.46833	13065
1.47200	14663
1.47567	15395
1.47933	15124
1.48300	13857
1.48667	11839
1.49033	9502
1.49400	7255
1.49767	5346
1.50133	3855
1.50500	2757
1.50867	1975
1.51233	1424
1.51600	1041
1.51967	778
1.52333	593
1.52700	460
1.53067	365
1.53433	305
1.53800	277
1.54167	309
1.54533	461
1.54900	764
1.55267	1171
1.55633	1586
1.56000	1938
1.56367	2189
1.56733	2319
1.57100	2295
1.57467	2097
1.57833	1771
1.58200	1399
1.58567	1050
1.58933	758
1.59300	535
1.59667	370
1.60033	252
1.60400	172
1.60767	118
1.61133	81
1.61500	58
1.61867	46
1.62233	38
1.62600	33
1.62967	29
1.63333	28
1.63700	30
1.64067	32
1.64433	34
1.64800	29
1.65167	19
1.65533	7
1.65900	-2
1.66267	-11
1.66633	-21
1.67000	-28
1.67367	-31
1.67733	-33
1.68100	-36
1.68467	-36
1.68833	-34
1.69200	-27
1.69567	-18
1.69933	-16
1.70300	-23
1.70667	-33
1.71033	-39
1.71400	-43
1.71767	-47
1.72133	-49
1.72500	-46
1.72867	-40
1.73233	-34
1.73600	-32
1.73967	-34
1.74333	-33
1.74700	-27
1.75067	-23
1.75433	-23
1.75800	-26
1.76167	-30
1.76533	-32
1.76900	-34
1.77267	-35
1.77633	-37
1.78000	-38
1.78367	-37
1.78733	-34
1.79100	-28
1.79467	-20
1.79833	-13
1.80200	-10
1.80567	-11
1.80933	-15
1.81300	-22
1.81667	-27
1.82033	-31
1.82400	-34
1.82767	-36
1.83133	-36
1.83500	-39
1.83867	-41
1.84233	-41
1.84600	-38
1.84967	-33
1.85333	-32
1.85700	-33
1.86067	-36
1.86433	-36
1.86800	-34
1.87167	-33
1.87533	-32
1.87900	-34
1.88267	-36
1.88633	-33
1.89000	-32
1.89367	-29
1.89733	-26
1.90100	-26
1.90467	-27
1.90833	-30
1.91200	-33
1.91567	-35
1.91933	-36
1.92300	-39
1.92667	-38
1.93033	-34
1.93400	-28
1.93767	-26
1.94133	-26
1.94500	-25
1.94867	-20
1.95233	3
1.95600	154
1.95967	1046
1.96333	5119
1.96700	19267
1.97067	56987
1.97433	134867
1.97800	260966
1.98167	424162
1.98533	597207
1.98900	749925
1.99267	858284
1.99633	907290
2.00000	891929
2.00367	818228
2.00733	702860
2.01100	568712
2.01467	437185
2.01833	322691
2.02200	231332
2.02567	162900
2.02933	113873
2.03300	79781
2.03667	56506
2.04033	40768
2.04400	30145
2.04767	22938
2.05133	17991
2.05500	14534
2.05867	12070
2.06233	10276
2.06600	8937
2.06967	7906
2.07333	7091
2.07700	6425
2.08067	5874
2.08433	5415
2.08800	5025
2.09167	4687
2.09533	4395
2.09900	4142
2.10267	3917
2.10633	3709
2.11000	3519
2.11367	3346
2.11733	3186
2.12100	3037
2.12467	2901
2.12833	2775
2.13200	2655
2.13567	2543
2.13933	2447
2.14300	2362
2.14667	2281
2.15033	2197
2.15400	2113
2.15767	2035
2.16133	1969
2.16500	1913
2.16867	1860
2.17233	1804
2.17600	1748
2.17967	1697
2.18333	1651
2.18700	1607
2.19067	1568
2.19433	1534
2.19800	1494
2.20167	1449
2.20533	1406
2.20900	1370
2.21267	1338
2.21633	1309
2.22000	1281
2.22367	1257
2.22733	1233
2.23100	1204
2.23467	1174
2.23833	1143
2.24200	1112
2.24567	1082
2.24933	1056
2.25300	1033
2.25667	1010
2.26033	985
2.26400	959
2.26767	940
2.27133	926
2.27500	912
2.27867	899
2.28233	888
2.28600	875
2.28967	862
2.29333	851
2.29700	842
2.30067	829
2.30433	815
2.30800	800
2.31167	787
2.31533	776
2.31900	762
2.32267	746
2.32633	732
2.33000	723
2.33367	721
2.33733	716
2.34100	707
2.34467	691
2.34833	672
2.35200	656
2.35567	642
2.35933	636
2.36300	635
2.36667	632
2.37033	624
2.37400	612
2.37767	599
2.38133	591
2.38500	582
2.38867	574
2.39233	568
2.39600	566
2.39967	566
2.40333	561
2.40700	550
2.41067	535
2.41433	523
2.41800	519
2.42167	514
2.42533	508
2.42900	502
2.43267	497
2.43633	494
2.44000	490
2.44367	484
2.44733	479
2.45100	476
2.45467	469
2.45833	462
2.46200	457
2.46567	452
2.46933	446
2.47300	440
2.47667	435
2.48033	433
2.48400	431
2.48767	430
2.49133	430
2.49500	431
2.49867	428
2.50233	423
2.50600	417
2.50967	411
2.51333	405
2.51700	397
2.52067	394
2.52433	396
2.52800	400
2.53167	405
2.53533	406
2.53900	401
2.54267	394
2.54633	387
2.55000	381
2.55367	376
2.55733	372
2.56100	364
2.56467	356
2.56833	350
2.57200	347
2.57567	347
2.57933	347
2.58300	344
2.58667	343
2.59033	344
2.59400	344
2.59767	342
2.60133	341
2.60500	345
2.60867	350
2.61233	348
2.61600	341
2.61967	331
2.62333	318
2.62700	305
2.63067	298
2.63433	297
2.63800	296
2.64167	290
2.64533	283
2.64900	278
2.65267	277
2.65633	282
2.66000	289
2.66367	294
2.66733	295
2.67100	292
2.67467	289
2.67833	288
2.68200	288
2.68567	288
2.68933	290
2.69300	295
2.69667	296
2.70033	296
2.70400	290
2.70767	279
2.71133	269
2.71500	263
2.71867	259
2.72233	258
2.72600	255
2.72967	256
2.73333	260
2.73700	261
2.74067	258
2.74433	251
2.74800	245
2.75167	244
2.75533	244
2.75900	246
2.76267	246
2.76633	241
2.77000	239
2.77367	240
2.77733	240
2.78100	242
2.78467	245
2.78833	249
2.79200	254
2.79567	254
2.79933	244
2.80300	232
2.80667	226
2.81033	220
2.81400	210
2.81767	203
2.82133	201
2.82500	201
2.82867	200
2.83233	201
2.83600	205
2.83967	211
2.84333	218
2.84700	227
2.85067	233
2.85433	233
2.85800	229
2.86167	227
2.86533	228
2.86900	225
2.87267	218
2.87633	215
2.88000	214
2.88367	213
2.88733	214
2.89100	214
2.89467	205
2.89833	193
2.90200	188
2.90567	186
2.90933	185
2.91300	190
2.91667	200
2.92033	209
2.92400	212
2.92767	211
2.93133	207
2.93500	201
2.93867	197
2.94233	192
2.94600	184
2.94967	178
2.95333	176
2.95700	174
2.96067	172
2.96433	174
2.96800	178
2.97167	181
2.97533	181
2.97900	178
2.98267	176
2.98633	178
2.99000	180
2.99367	182
2.99733	183
3.00100	185
3.00467	187
3.00833	190
3.01200	191
3.01567	189
3.01933	185
3.02300	181
3.02667	176
3.03033	173
3.03400	173
3.03767	168
3.04133	157
3.04500	149
3.04867	146
3.05233	149
3.05600	153
3.05967	156
3.06333	161
3.06700	164
3.07067	163
3.07433	160
3.07800	155
3.08167	150
3.08533	147
3.08900	148
3.09267	147
3.09633	144
3.10000	142
3.10367	141
3.10733	141
3.11100	142
3.11467	143
3.11833	144
3.12200	145
3.12567	142
3.12933	136
3.13300	127
3.13667	118
3.14033	112
3.14400	108
3.14767	109
3.15133	110
3.15500	113
3.15867	115
3.16233	110
3.16600	102
3.16967	96
3.17333	90
3.17700	82
3.18067	75
3.18433	75
3.18800	83
3.19167	95
3.19533	105
3.19900	107
3.20267	103
3.20633	101
3.21000	99
3.21367	97
3.21733	97
3.22100	100
3.22467	103
3.22833	104
3.23200	107
3.23567	110
3.23933	114
3.24300	118
3.24667	122
3.25033	123
3.25400	121
3.25767	118
3.26133	115
3.26500	113
3.26867	113
3.27233	113
3.27600	107
3.27967	102
3.28333	102
3.28700	102
3.29067	102
3.29433	102
3.29800	105
3.30167	107
3.30533	104
3.30900	98
3.31267	95
3.31633	97
3.32000	106
3.32367	109
3.32733	105
3.33100	99
3.33467	93
3.33833	87
3.34200	83
3.34567	82
3.34933	83
3.35300	86
3.35667	90
3.36033	92
3.36400	95
3.36767	96
3.37133	98
3.37500	101
3.37867	100
3.38233	93
3.38600	85
3.38967	79
3.39333	75
3.39700	72
3.40067	72
3.40433	72
3.40800	69
3.41167	67
3.41533	70
3.41900	76
3.42267	84
3.42633	90
3.43000	90
3.43367	87
3.43733	79
3.44100	69
3.44467	63
3.44833	63
3.45200	65
3.45567	69
3.45933	71
3.46300	73
3.46667	77
3.47033	80
3.47400	79
3.47767	73
3.48133	67
3.48500	63
3.48867	56
3.49233	48
3.49600	46
3.49967	50
3.50333	54
3.50700	53
3.51067	51
3.51433	51
3.51800	50
3.52167	47
3.52533	44
3.52900	40
3.53267	37
3.53633	36
3.54000	39
3.54367	45
3.54733	50
3.55100	53
3.55467	54
3.55833	53
3.56200	50
3.56567	50
3.56933	53
3.57300	56
3.57667	62
3.58033	69
3.58400	71
3.58767	64
3.59133	48
3.59500	31
3.59867	19
3.60233	14
3.60600	13
3.60967	15
3.61333	18
3.61700	21
3.62067	24
3.62433	31
3.62800	37
3.63167	40
3.63533	36
3.63900	30
3.64267	25
3.64633	22
3.65000	23
3.65367	26
3.65733	32
3.66100	34
3.66467	32
3.66833	29
3.67200	28
3.67567	31
3.67933	32
3.68300	31
3.68667	29
3.69033	25
3.69400	24
3.69767	19
3.70133	12
3.70500	9
3.70867	8
3.71233	11
3.71600	15
3.71967	21
3.72333	27
3.72700	30
3.73067	32
3.73433	31
3.73800	24
3.74167	17
3.74533	13
3.74900	14
3.75267	20
3.75633	27
3.76000	32
3.76367	29
3.76733	18
3.77100	5
3.77467	-6
3.77833	-8
3.78200	-5
3.78567	-4
3.78933	-7
3.79300	-9
3.79667	-9
3.80033	-11
3.80400	-15
3.80767	-18
3.81133	-18
3.81500	-13
3.81867	-7
3.82233	-5
3.82600	-8
3.82967	-13
3.83333	-11
3.83700	-9
3.84067	-8
3.84433	-2
3.84800	7
3.85167	15
3.85533	19
3.85900	18
3.86267	12
3.86633	2
3.87000	-8
3.87367	-13
3.87733	-14
3.88100	-16
3.88467	-20
3.88833	-22
3.89200	-18
3.89567	-11
3.89933	-5
3.90300	-4
3.90667	-8
3.91033	-13
3.91400	-18
3.91767	-22
3.92133	-23
3.92500	-23
3.92867	-28
3.93233	-34
3.93600	-35
3.93967	-33
3.94333	-27
3.94700	-19
3.95067	-10
3.95433	-1
3.95800	3
3.96167	3
3.96533	1
3.96900	-2
3.97267	-5
3.97633	-9
3.98000	-14
3.98367	-17
3.98733	-22
3.99100	-27
3.99467	-33
3.99833	-37

[Chromatogram (Ch2)]
Interval(msec)	220
# of Points	1091
Start Time(min)	0.002
End Time(min)	3.998
R.Time (min)	Intensity
0.00167	1
0.00533	1
0.00900	2
0.01267	2
0.01633	2
0.02000	2
0.02367	2
0.02733	2
0.03100	2
0.03467	2
0.03833	2
0.04200	2
0.04567	2
0.04933	2
0.05300	2
0.05667	2
0.06033	2
0.06400	2
0.06767	2
0.07133	2
0.07500	2
0.07867	2
0.08233	2
0.08600	2
0.08967	2
0.09333	2
0.09700	2
0.10067	2
0.10433	2
0.10800	2
0.11167	2
0.11533	2
0.11900	3
0.12267	3
0.12633	3
0.13000	3
0.13367	3
0.13733	3
0.14100	2
0.14467	2
0.14833	2
0.15200	1
0.15567	1
0.15933	0
0.16300	0
0.16667	-0
0.17033	-0
0.17400	-0
0.17767	-0
0.18133	-0
0.18500	-1
0.18867	-1
0.19233	-1
0.19600	-2
0.19967	-2
0.20333	-1
0.20700	-1
0.21067	-1
0.21433	-1
0.21800	-1
0.22167	-1
0.22533	-1
0.22900	-1
0.23267	-1
0.23633	-1
0.24000	-0
0.24367	0
0.24733	0
0.25100	0
0.25467	-0
0.25833	-0
0.26200	-1
0.26567	-1
0.26933	-2
0.27300	-2
0.27667	-2
0.28033	-1
0.28400	-1
0.28767	-1
0.29133	-1
0.29500	-1
0.29867	-1
0.30233	-0
0.30600	-0
0.30967	0
0.31333	1
0.31700	1
0.32067	1
0.32433	1
0.32800	2
0.33167	2
0.33533	2
0.33900	2
0.34267	2
0.34633	2
0.35000	3
0.35367	3
0.35733	3
0.36100	4
0.36467	4
0.36833	4
0.37200	4
0.37567	4
0.37933	4
0.38300	4
0.38667	4
0.39033	3
0.39400	3
0.39767	2
0.40133	2
0.40500	2
0.40867	2
0.41233	2
0.41600	2
0.41967	2
0.42333	2
0.42700	2
0.43067	1
0.43433	1
0.43800	1
0.44167	0
0.44533	0
0.44900	-0
0.45267	-1
0.45633	-1
0.46000	-1
0.46367	-2
0.46733	-2
0.47100	-2
0.47467	-2
0.47833	-2
0.48200	-2
0.48567	-2
0.48933	-2
0.49300	-2
0.49667	-2
0.50033	-1
0.50400	-1
0.50767	-1
0.51133	-1
0.51500	-1
0.51867	-1
0.52233	-0
0.52600	0
0.52967	1
0.53333	1
0.53700	1
0.54067	2
0.54433	2
0.54800	2
0.55167	2
0.55533	2
0.55900	2
0.56267	2
0.56633	2
0.57000	3
0.57367	3
0.57733	3
0.58100	3
0.58467	3
0.58833	3
0.59200	3
0.59567	3
0.59933	3
0.60300	3
0.60667	3
0.61033	3
0.61400	3
0.61767	4
0.62133	4
0.62500	4
0.62867	3
0.63233	3
0.63600	3
0.63967	2
0.64333	2
0.64700	2
0.65067	2
0.65433	2
0.65800	1
0.66167	1
0.66533	1
0.66900	1
0.67267	0
0.67633	-0
0.68000	-1
0.68367	-1
0.68733	-2
0.69100	-2
0.69467	-2
0.69833	-2
0.70200	-2
0.70567	-2
0.70933	-1
0.71300	-1
0.71667	-1
0.72033	-0
0.72400	0
0.72767	0
0.73133	0
0.73500	0
0.73867	0
0.74233	0
0.74600	0
0.74967	0
0.75333	0
0.75700	0
0.76067	0
0.76433	-0
0.76800	-0
0.77167	-1
0.77533	-1
0.77900	-1
0.78267	-1
0.78633	-1
0.79000	-1
0.79367	-1
0.79733	-1
0.80100	-1
0.80467	-1
0.80833	-0
0.81200	-0
0.81567	0
0.81933	1
0.82300	1
0.82667	1
0.83033	1
0.83400	1
0.83767	1
0.84133	1
0.84500	1
0.84867	1
0.85233	1
0.85600	1
0.85967	1
0.86333	1
0.86700	0
0.87067	0
0.87433	0
0.87800	1
0.88167	1
0.88533	1
0.88900	1
0.89267	1
0.89633	1
0.90000	1
0.90367	1
0.90733	1
0.91100	1
0.91467	1
0.91833	1
0.92200	0
0.92567	0
0.92933	0
0.93300	0
0.93667	-0
0.94033	-0
0.94400	-0
0.94767	-0
0.95133	-0
0.95500	-0
0.95867	-0
0.96233	-1
0.96600	-1
0.96967	-1
0.97333	-2
0.97700	-2
0.98067	-2
0.98433	-2
0.98800	-2
0.99167	-2
0.99533	-2
0.99900	-2
1.00267	-1
1.00633	-1
1.01000	-1
1.01367	-1
1.01733	-1
1.02100	-1
1.02467	-1
1.02833	-1
1.03200	-1
1.03567	-1
1.03933	-1
1.04300	-1
1.04667	-1
1.05033	-1
1.05400	-1
1.05767	-1
1.06133	-1
1.06500	-1
1.06867	-0
1.07233	-0
1.07600	0
1.07967	0
1.08333	0
1.08700	0
1.09067	-0
1.09433	-1
1.09800	-1
1.10167	-1
1.10533	-1
1.10900	-1
1.11267	-1
1.11633	-1
1.12000	-1
1.12367	-1
1.12733	-1
1.13100	-2
1.13467	-2
1.13833	-2
1.14200	-2
1.14567	-2
1.14933	-2
1.15300	-2
1.15667	-2
1.16033	-2
1.16400	-2
1.16767	-2
1.17133	-2
1.17500	-2
1.17867	-2
1.18233	-2
1.18600	-2
1.18967	-2
1.19333	-2
1.19700	-2
1.20067	-2
1.20433	-2
1.20800	-2
1.21167	-2
1.21533	-1
1.21900	-1
1.22267	-1
1.22633	-1
1.23000	-0
1.23367	-0
1.23733	-0
1.24100	-0
1.24467	-0
1.24833	0
1.25200	0
1.25567	0
1.25933	1
1.26300	1
1.26667	0
1.27033	0
1.27400	0
1.27767	0
1.28133	-0
1.28500	-0
1.28867	-1
1.29233	-1
1.29600	-1
1.29967	-1
1.30333	-1
1.30700	-1
1.31067	-1
1.31433	-1
1.31800	-1
1.32167	-1
1.32533	-1
1.32900	-1
1.33267	-2
1.33633	-2
1.34000	-2
1.34367	-3
1.34733	-3
1.35100	-3
1.35467	-4
1.35833	-4
1.36200	-4
1.36567	-5
1.36933	-5
1.37300	-4
1.37667	-4
1.38033	-4
1.38400	-4
1.38767	-4
1.39133	-4
1.39500	-5
1.39867	-5
1.40233	-5
1.40600	-5
1.40967	-5
1.41333	-5
1.41700	-5
1.42067	-5
1.42433	-5
1.42800	-5
1.43167	-5
1.43533	-5
1.43900	-5
1.44267	-4
1.44633	-4
1.45000	-3
1.45367	-3
1.45733	-2
1.46100	-1
1.46467	-1
1.46833	-1
1.47200	-0
1.47567	-0
1.47933	-0
1.48300	-0
1.48667	-0
1.49033	-0
1.49400	-0
1.49767	-0
1.50133	-0
1.50500	-0
1.50867	-0
1.51233	-1
1.51600	-1
1.51967	-1
1.52333	-1
1.52700	-1
1.53067	-1
1.53433	-1
1.53800	-1
1.54167	-1
1.54533	-1
1.54900	-2
1.55267	-2
1.55633	-2
1.56000	-1
1.56367	-1
1.56733	-1
1.57100	-1
1.57467	-0
1.57833	-0
1.58200	-0
1.58567	0
1.58933	0
1.59300	0
1.59667	-0
1.60033	-1
1.60400	-2
1.60767	-4
1.61133	-6
1.61500	-8
1.61867	-11
1.62233	-13
1.62600	-16
1.62967	-20
1.63333	-23
1.63700	-27
1.64067	-31
1.64433	-35
1.64800	-39
1.65167	-42
1.65533	-46
1.65900	-50
1.66267	-54
1.66633	-59
1.67000	-63
1.67367	-68
1.67733	-73
1.68100	-78
1.68467	-83
1.68833	-88
1.69200	-92
1.69567	-96
1.69933	-99
1.70300	-101
1.70667	-104
1.71033	-105
1.71400	-107
1.71767	-107
1.72133	-108
1.72500	-108
1.72867	-108
1.73233	-108
1.73600	-108
1.73967	-108
1.74333	-107
1.74700	-107
1.75067	-107
1.75433	-107
1.75800	-107
1.76167	-108
1.76533	-109
1.76900	-110
1.77267	-111
1.77633	-112
1.78000	-114
1.78367	-115
1.78733	-115
1.79100	-116
1.79467	-116
1.79833	-116
1.80200	-117
1.80567	-117
1.80933	-117
1.81300	-116
1.81667	-116
1.82033	-116
1.82400	-116
1.82767	-117
1.83133	-117
1.83500	-117
1.83867	-118
1.84233	-117
1.84600	-117
1.84967	-117
1.85333	-116
1.85700	-116
1.86067	-116
1.86433	-115
1.86800	-115
1.87167	-114
1.87533	-114
1.87900	-113
1.88267	-113
1.88633	-113
1.89000	-113
1.89367	-113
1.89733	-114
1.90100	-114
1.90467	-115
1.90833	-115
1.91200	-115
1.91567	-115
1.91933	-114
1.92300	-113
1.92667	-113
1.93033	-112
1.93400	-111
1.93767	-111
1.94133	-112
1.94500	-112
1.94867	-112
1.95233	-112
1.95600	-112
1.95967	-112
1.96333	-112
1.96700	-112
1.97067	-111
1.97433	-111
1.97800	-110
1.98167	-110
1.98533	-110
1.98900	-110
1.99267	-111
1.99633	-111
2.00000	-110
2.00367	-110
2.00733	-109
2.01100	-108
2.01467	-107
2.01833	-106
2.02200	-106
2.02567	-105
2.02933	-105
2.03300	-105
2.03667	-105
2.04033	-106
2.04400	-105
2.04767	-105
2.05133	-104
2.05500	-104
2.05867	-103
2.06233	-102
2.06600	-102
2.06967	-101
2.07333	-101
2.07700	-101
2.08067	-101
2.08433	-101
2.08800	-101
2.09167	-101
2.09533	-100
2.09900	-100
2.10267	-100
2.10633	-100
2.11000	-99
2.11367	-99
2.11733	-100
2.12100	-100
2.12467	-100
2.12833	-100
2.13200	-99
2.13567	-99
2.13933	-99
2.14300	-99
2.14667	-98
2.15033	-98
2.15400	-97
2.15767	-96
2.16133	-95
2.16500	-94
2.16867	-94
2.17233	-94
2.17600	-94
2.17967	-94
2.18333	-95
2.18700	-95
2.19067	-95
2.19433	-94
2.19800	-94
2.20167	-93
2.20533	-92
2.20900	-92
2.21267	-92
2.21633	-92
2.22000	-92
2.22367	-91
2.22733	-91
2.23100	-91
2.23467	-90
2.23833	-89
2.24200	-89
2.24567	-88
2.24933	-88
2.25300	-88
2.25667	-87
2.26033	-87
2.26400	-87
2.26767	-86
2.27133	-86
2.27500	-85
2.27867	-84
2.28233	-84
2.28600	-83
2.28967	-83
2.29333	-83
2.29700	-83
2.30067	-84
2.30433	-86
2.30800	-87
2.31167	-88
2.31533	-88
2.31900	-88
2.32267	-88
2.32633	-87
2.33000	-86
2.33367	-85
2.33733	-84
2.34100	-83
2.34467	-81
2.34833	-80
2.35200	-79
2.35567	-77
2.35933	-76
2.36300	-73
2.36667	-71
2.37033	-68
2.37400	-65
2.37767	-62
2.38133	-58
2.38500	-55
2.38867	-50
2.39233	-46
2.39600	-42
2.39967	-37
2.40333	-33
2.40700	-29
2.41067	-26
2.41433	-23
2.41800	-21
2.42167	-19
2.42533	-18
2.42900	-16
2.43267	-15
2.43633	-14
2.44000	-13
2.44367	-11
2.44733	-10
2.45100	-9
2.45467	-8
2.45833	-7
2.46200	-6
2.46567	-5
2.46933	-3
2.47300	-2
2.47667	-1
2.48033	1
2.48400	2
2.48767	3
2.49133	4
2.49500	6
2.49867	6
2.50233	7
2.50600	8
2.50967	9
2.51333	10
2.51700	11
2.52067	12
2.52433	12
2.52800	13
2.53167	13
2.53533	13
2.53900	13
2.54267	14
2.54633	14
2.55000	15
2.55367	15
2.55733	15
2.56100	15
2.56467	15
2.56833	16
2.57200	16
2.57567	16
2.57933	16
2.58300	16
2.58667	16
2.59033	15
2.59400	15
2.59767	16
2.60133	16
2.60500	16
2.60867	17
2.61233	17
2.61600	18
2.61967	18
2.62333	19
2.62700	19
2.63067	19
2.63433	18
2.63800	18
2.64167	18
2.64533	18
2.64900	18
2.65267	18
2.65633	18
2.66000	19
2.66367	20
2.66733	20
2.67100	21
2.67467	22
2.67833	22
2.68200	22
2.68567	22
2.68933	22
2.69300	22
2.69667	22
2.70033	22
2.70400	22
2.70767	22
2.71133	22
2.71500	23
2.71867	23
2.72233	23
2.72600	23
2.72967	23
2.73333	24
2.73700	24
2.74067	25
2.74433	26
2.74800	26
2.75167	27
2.75533	27
2.75900	27
2.76267	27
2.76633	27
2.77000	27
2.77367	26
2.77733	26
2.78100	25
2.78467	24
2.78833	24
2.79200	24
2.79567	23
2.79933	23
2.80300	24
2.80667	24
2.81033	24
2.81400	25
2.81767	25
2.82133	26
2.82500	26
2.82867	26
2.83233	26
2.83600	26
2.83967	24
2.84333	22
2.84700	17
2.85067	10
2.85433	1
2.85800	-13
2.86167	-30
2.86533	-52
2.86900	-77
2.87267	-107
2.87633	-141
2.88000	-179
2.88367	-220
2.88733	-265
2.89100	-312
2.89467	-362
2.89833	-413
2.90200	-466
2.90567	-520
2.90933	-574
2.91300	-628
2.91667	-683
2.92033	-736
2.92400	-788
2.92767	-840
2.93133	-893
2.93500	-950
2.93867	-1010
2.94233	-1062
2.94600	-1097
2.94967	-1108
2.95333	-1092
2.95700	-1054
2.96067	-996
2.96433	-926
2.96800	-848
2.97167	-767
2.97533	-687
2.97900	-609
2.98267	-537
2.98633	-470
2.99000	-408
2.99367	-353
2.99733	-304
3.00100	-261
3.00467	-223
3.00833	-190
3.01200	-160
3.01567	-135
3.01933	-114
3.02300	-95
3.02667	-79
3.03033	-66
3.03400	-54
3.03767	-44
3.04133	-36
3.04500	-29
3.04867	-23
3.05233	-18
3.05600	-13
3.05967	-9
3.06333	-6
3.06700	-3
3.07067	-0
3.07433	2
3.07800	4
3.08167	5
3.08533	6
3.08900	7
3.09267	8
3.09633	9
3.10000	10
3.10367	11
3.10733	12
3.11100	13
3.11467	14
3.11833	14
3.12200	15
3.12567	15
3.12933	16
3.13300	16
3.13667	16
3.14033	17
3.14400	17
3.14767	17
3.15133	17
3.15500	17
3.15867	17
3.16233	17
3.16600	18
3.16967	18
3.17333	18
3.17700	18
3.18067	18
3.18433	19
3.18800	19
3.19167	19
3.19533	19
3.19900	19
3.20267	19
3.20633	20
3.21000	20
3.21367	21
3.21733	21
3.22100	21
3.22467	22
3.22833	22
3.23200	23
3.23567	23
3.23933	23
3.24300	23
3.24667	23
3.25033	23
3.25400	23
3.25767	23
3.26133	23
3.26500	23
3.26867	23
3.27233	24
3.27600	24
3.27967	24
3.28333	24
3.28700	24
3.29067	24
3.29433	25
3.29800	25
3.30167	25
3.30533	25
3.30900	25
3.31267	26
3.31633	26
3.32000	27
3.32367	27
3.32733	27
3.33100	27
3.33467	27
3.33833	28
3.34200	28
3.34567	28
3.34933	28
3.35300	28
3.35667	28
3.36033	28
3.36400	28
3.36767	28
3.37133	28
3.37500	28
3.37867	28
3.38233	29
3.38600	29
3.38967	29
3.39333	29
3.39700	30
3.40067	30
3.40433	30
3.40800	30
3.41167	30
3.41533	30
3.41900	30
3.42267	30
3.42633	30
3.43000	30
3.43367	30
3.43733	30
3.44100	30
3.44467	30
3.44833	30
3.45200	30
3.45567	30
3.45933	30
3.46300	30
3.46667	30
3.47033	30
3.47400	30
3.47767	30
3.48133	30
3.48500	30
3.48867	30
3.49233	30
3.49600	30
3.49967	30
3.50333	30
3.50700	30
3.51067	30
3.51433	30
3.51800	29
3.52167	29
3.52533	29
3.52900	29
3.53267	28
3.53633	28
3.54000	28
3.54367	28
3.54733	27
3.55100	27
3.55467	27
3.55833	27
3.56200	27
3.56567	27
3.56933	27
3.57300	27
3.57667	27
3.58033	27
3.58400	27
3.58767	27
3.59133	27
3.59500	27
3.59867	27
3.60233	27
3.60600	27
3.60967	27
3.61333	27
3.61700	27
3.62067	27
3.62433	27
3.62800	27
3.63167	27
3.63533	27
3.63900	27
3.64267	27
3.64633	27
3.65000	27
3.65367	27
3.65733	27
3.66100	27
3.66467	27
3.66833	27
3.67200	27
3.67567	27
3.67933	27
3.68300	27
3.68667	27
3.69033	27
3.69400	27
3.69767	27
3.70133	27
3.70500	27
3.70867	27
3.71233	28
3.71600	28
3.71967	28
3.72333	28
3.72700	28
3.73067	28
3.73433	28
3.73800	28
3.74167	27
3.74533	27
3.74900	27
3.75267	27
3.75633	26
3.76000	26
3.76367	26
3.76733	26
3.77100	26
3.77467	26
3.77833	26
3.78200	25
3.78567	26
3.78933	26
3.79300	26
3.79667	26
3.80033	27
3.80400	27
3.80767	26
3.81133	26
3.81500	26
3.81867	26
3.82233	26
3.82600	26
3.82967	26
3.83333	26
3.83700	26
3.84067	27
3.84433	27
3.84800	27
3.85167	27
3.85533	26
3.85900	26
3.86267	26
3.86633	26
3.87000	26
3.87367	26
3.87733	26
3.88100	26
3.88467	26
3.88833	26
3.89200	27
3.89567	27
3.89933	28
3.90300	28
3.90667	28
3.91033	28
3.91400	28
3.91767	28
3.92133	28
3.92500	28
3.92867	28
3.93233	28
3.93600	28
3.93967	27
3.94333	27
3.94700	27
3.95067	27
3.95433	27
3.95800	27
3.96167	27
3.96533	27
3.96900	27
3.97267	27
3.97633	27
3.98000	27
3.98367	27
3.98733	27
3.99100	27
3.99467	27
3.99833	27

[Chromatogram (Ch3)]
Interval(msec)	220
# of Points	1091
Start Time(min)	0.002
End Time(min)	3.998
R.Time (min)	Intensity
0.00167	1
0.00533	1
0.00900	1
0.01267	2
0.01633	4
0.02000	6
0.02367	6
0.02733	5
0.03100	5
0.03467	5
0.03833	2
0.04200	1
0.04567	3
0.04933	5
0.05300	6
0.05667	7
0.06033	7
0.06400	7
0.06767	7
0.07133	9
0.07500	10
0.07867	10
0.08233	10
0.08600	11
0.08967	11
0.09333	13
0.09700	11
0.10067	10
0.10433	9
0.10800	8
0.11167	6
0.11533	6
0.11900	6
0.12267	7
0.12633	8
0.13000	10
0.13367	9
0.13733	9
0.14100	12
0.14467	14
0.14833	13
0.15200	14
0.15567	13
0.15933	9
0.16300	4
0.16667	4
0.17033	4
0.17400	7
0.17767	7
0.18133	8
0.18500	9
0.18867	10
0.19233	10
0.19600	10
0.19967	10
0.20333	7
0.20700	5
0.21067	5
0.21433	4
0.21800	3
0.22167	3
0.22533	3
0.22900	4
0.23267	8
0.23633	9
0.24000	8
0.24367	6
0.24733	7
0.25100	10
0.25467	12
0.25833	13
0.26200	12
0.26567	12
0.26933	12
0.27300	11
0.27667	10
0.28033	10
0.28400	10
0.28767	10
0.29133	9
0.29500	11
0.29867	11
0.30233	10
0.30600	10
0.30967	11
0.31333	9
0.31700	7
0.32067	8
0.32433	10
0.32800	8
0.33167	6
0.33533	6
0.33900	5
0.34267	6
0.34633	8
0.35000	11
0.35367	12
0.35733	12
0.36100	14
0.36467	15
0.36833	16
0.37200	15
0.37567	14
0.37933	14
0.38300	15
0.38667	16
0.39033	17
0.39400	18
0.39767	17
0.40133	16
0.40500	16
0.40867	15
0.41233	15
0.41600	17
0.41967	15
0.42333	16
0.42700	16
0.43067	15
0.43433	12
0.43800	12
0.44167	13
0.44533	13
0.44900	14
0.45267	16
0.45633	16
0.46000	15
0.46367	14
0.46733	15
0.47100	17
0.47467	18
0.47833	19
0.48200	19
0.48567	19
0.48933	18
0.49300	17
0.49667	15
0.50033	16
0.50400	14
0.50767	15
0.51133	16
0.51500	15
0.51867	14
0.52233	13
0.52600	14
0.52967	14
0.53333	14
0.53700	12
0.54067	9
0.54433	9
0.54800	10
0.55167	10
0.55533	12
0.55900	13
0.56267	13
0.56633	13
0.57000	13
0.57367	13
0.57733	13
0.58100	13
0.58467	14
0.58833	14
0.59200	13
0.59567	12
0.59933	12
0.60300	14
0.60667	13
0.61033	13
0.61400	13
0.61767	13
0.62133	13
0.62500	14
0.62867	16
0.63233	16
0.63600	14
0.63967	12
0.64333	12
0.64700	14
0.65067	17
0.65433	19
0.65800	20
0.66167	21
0.66533	21
0.66900	20
0.67267	17
0.67633	14
0.68000	11
0.68367	11
0.68733	10
0.69100	10
0.69467	10
0.69833	13
0.70200	17
0.70567	17
0.70933	18
0.71300	19
0.71667	20
0.72033	19
0.72400	18
0.72767	16
0.73133	13
0.73500	14
0.73867	15
0.74233	17
0.74600	17
0.74967	19
0.75333	19
0.75700	21
0.76067	19
0.76433	15
0.76800	15
0.77167	14
0.77533	14
0.77900	16
0.78267	18
0.78633	19
0.79000	20
0.79367	20
0.79733	21
0.80100	21
0.80467	21
0.80833	18
0.81200	16
0.81567	15
0.81933	15
0.82300	16
0.82667	17
0.83033	16
0.83400	15
0.83767	14
0.84133	14
0.84500	16
0.84867	20
0.85233	24
0.85600	26
0.85967	25
0.86333	22
0.86700	22
0.87067	21
0.87433	21
0.87800	20
0.88167	19
0.88533	19
0.88900	20
0.89267	23
0.89633	25
0.90000	26
0.90367	26
0.90733	23
0.91100	20
0.91467	19
0.91833	19
0.92200	21
0.92567	25
0.92933	27
0.93300	26
0.93667	22
0.94033	19
0.94400	17
0.94767	18
0.95133	20
0.95500	20
0.95867	21
0.96233	24
0.96600	23
0.96967	22
0.97333	20
0.97700	20
0.98067	21
0.98433	21
0.98800	21
0.99167	22
0.99533	24
0.99900	24
1.00267	21
1.00633	21
1.01000	21
1.01367	23
1.01733	23
1.02100	22
1.02467	23
1.02833	23
1.03200	23
1.03567	24
1.03933	25
1.04300	23
1.04667	24
1.05033	25
1.05400	23
1.05767	21
1.06133	20
1.06500	22
1.06867	24
1.07233	26
1.07600	27
1.07967	27
1.08333	27
1.08700	25
1.09067	24
1.09433	24
1.09800	24
1.10167	23
1.10533	25
1.10900	27
1.11267	29
1.11633	26
1.12000	23
1.12367	21
1.12733	23
1.13100	22
1.13467	22
1.13833	23
1.14200	22
1.14567	21
1.14933	22
1.15300	24
1.15667	24
1.16033	23
1.16400	22
1.16767	22
1.17133	23
1.17500	25
1.17867	26
1.18233	28
1.18600	28
1.18967	26
1.19333	26
1.19700	24
1.20067	23
1.20433	23
1.20800	25
1.21167	25
1.21533	25
1.21900	25
1.22267	23
1.22633	24
1.23000	25
1.23367	26
1.23733	28
1.24100	27
1.24467	27
1.24833	27
1.25200	26
1.25567	27
1.25933	27
1.26300	27
1.26667	29
1.27033	30
1.27400	31
1.27767	31
1.28133	31
1.28500	30
1.28867	29
1.29233	28
1.29600	27
1.29967	28
1.30333	27
1.30700	27
1.31067	27
1.31433	26
1.31800	28
1.32167	29
1.32533	29
1.32900	28
1.33267	30
1.33633	30
1.34000	29
1.34367	29
1.34733	31
1.35100	33
1.35467	34
1.35833	34
1.36200	33
1.36567	33
1.36933	34
1.37300	33
1.37667	31
1.38033	30
1.38400	28
1.38767	26
1.39133	26
1.39500	26
1.39867	26
1.40233	26
1.40600	28
1.40967	28
1.41333	29
1.41700	30
1.42067	29
1.42433	29
1.42800	28
1.43167	27
1.43533	26
1.43900	27
1.44267	28
1.44633	29
1.45000	30
1.45367	34
1.45733	36
1.46100	38
1.46467	37
1.46833	35
1.47200	35
1.47567	36
1.47933	36
1.48300	34
1.48667	33
1.49033	32
1.49400	30
1.49767	29
1.50133	31
1.50500	31
1.50867	32
1.51233	34
1.51600	34
1.51967	31
1.52333	28
1.52700	25
1.53067	24
1.53433	26
1.53800	29
1.54167	31
1.54533	33
1.54900	34
1.55267	34
1.55633	34
1.56000	30
1.56367	27
1.56733	29
1.57100	31
1.57467	33
1.57833	34
1.58200	34
1.58567	34
1.58933	36
1.59300	37
1.59667	39
1.60033	39
1.60400	35
1.60767	32
1.61133	32
1.61500	32
1.61867	34
1.62233	35
1.62600	37
1.62967	39
1.63333	41
1.63700	42
1.64067	41
1.64433	40
1.64800	41
1.65167	42
1.65533	43
1.65900	45
1.66267	44
1.66633	42
1.67000	41
1.67367	41
1.67733	43
1.68100	45
1.68467	46
1.68833	46
1.69200	47
1.69567	46
1.69933	45
1.70300	45
1.70667	45
1.71033	47
1.71400	47
1.71767	47
1.72133	49
1.72500	49
1.72867	49
1.73233	47
1.73600	48
1.73967	47
1.74333	45
1.74700	44
1.75067	44
1.75433	47
1.75800	48
1.76167	48
1.76533	47
1.76900	46
1.77267	47
1.77633	50
1.78000	53
1.78367	56
1.78733	56
1.79100	56
1.79467	56
1.79833	56
1.80200	56
1.80567	57
1.80933	60
1.81300	64
1.81667	66
1.82033	68
1.82400	68
1.82767	65
1.83133	63
1.83500	63
1.83867	65
1.84233	67
1.84600	68
1.84967	68
1.85333	68
1.85700	66
1.86067	63
1.86433	61
1.86800	62
1.87167	63
1.87533	64
1.87900	65
1.88267	67
1.88633	69
1.89000	70
1.89367	69
1.89733	68
1.90100	68
1.90467	68
1.90833	68
1.91200	68
1.91567	68
1.91933	70
1.92300	73
1.92667	75
1.93033	75
1.93400	77
1.93767	76
1.94133	76
1.94500	78
1.94867	80
1.95233	79
1.95600	78
1.95967	78
1.96333	80
1.96700	83
1.97067	86
1.97433	86
1.97800	87
1.98167	89
1.98533	90
1.98900	92
1.99267	93
1.99633	94
2.00000	96
2.00367	96
2.00733	97
2.01100	100
2.01467	100
2.01833	100
2.02200	97
2.02567	97
2.02933	99
2.03300	101
2.03667	102
2.04033	102
2.04400	102
2.04767	103
2.05133	104
2.05500	105
2.05867	109
2.06233	109
2.06600	108
2.06967	109
2.07333	111
2.07700	113
2.08067	114
2.08433	113
2.08800	115
2.09167	116
2.09533	117
2.09900	119
2.10267	120
2.10633	122
2.11000	125
2.11367	126
2.11733	127
2.12100	127
2.12467	125
2.12833	124
2.13200	123
2.13567	124
2.13933	126
2.14300	128
2.14667	131
2.15033	134
2.15400	139
2.15767	141
2.16133	141
2.16500	141
2.16867	140
2.17233	140
2.17600	140
2.17967	143
2.18333	145
2.18700	148
2.19067	148
2.19433	149
2.19800	150
2.20167	151
2.20533	153
2.20900	157
2.21267	158
2.21633	159
2.22000	158
2.22367	159
2.22733	162
2.23100	165
2.23467	168
2.23833	172
2.24200	172
2.24567	171
2.24933	173
2.25300	174
2.25667	175
2.26033	176
2.26400	179
2.26767	182
2.27133	187
2.27500	189
2.27867	192
2.28233	195
2.28600	197
2.28967	198
2.29333	199
2.29700	201
2.30067	202
2.30433	201
2.30800	202
2.31167	203
2.31533	203
2.31900	206
2.32267	209
2.32633	209
2.33000	212
2.33367	214
2.33733	216
2.34100	217
2.34467	219
2.34833	221
2.35200	223
2.35567	227
2.35933	229
2.36300	232
2.36667	232
2.37033	232
2.37400	232
2.37767	231
2.38133	229
2.38500	229
2.38867	228
2.39233	230
2.39600	237
2.39967	243
2.40333	246
2.40700	251
2.41067	257
2.41433	258
2.41800	258
2.42167	260
2.42533	261
2.42900	261
2.43267	260
2.43633	261
2.44000	266
2.44367	311
2.44733	427
2.45100	552
2.45467	655
2.45833	713
2.46200	706
2.46567	657
2.46933	603
2.47300	563
2.47667	539
2.48033	523
2.48400	506
2.48767	481
2.49133	446
2.49500	407
2.49867	373
2.50233	347
2.50600	329
2.50967	316
2.51333	309
2.51700	309
2.52067	315
2.52433	327
2.52800	342
2.53167	355
2.53533	363
2.53900	365
2.54267	360
2.54633	347
2.55000	328
2.55367	309
2.55733	289
2.56100	267
2.56467	248
2.56833	234
2.57200	223
2.57567	215
2.57933	210
2.58300	207
2.58667	204
2.59033	200
2.59400	197
2.59767	192
2.60133	183
2.60500	169
2.60867	152
2.61233	133
2.61600	113
2.61967	95
2.62333	81
2.62700	70
2.63067	62
2.63433	60
2.63800	63
2.64167	67
2.64533	74
2.64900	83
2.65267	96
2.65633	109
2.66000	119
2.66367	126
2.66733	131
2.67100	135
2.67467	136
2.67833	133
2.68200	131
2.68567	128
2.68933	126
2.69300	124
2.69667	121
2.70033	117
2.70400	111
2.70767	109
2.71133	107
2.71500	105
2.71867	102
2.72233	100
2.72600	102
2.72967	103
2.73333	103
2.73700	101
2.74067	100
2.74433	99
2.74800	98
2.75167	98
2.75533	99
2.75900	101
2.76267	104
2.76633	106
2.77000	107
2.77367	110
2.77733	111
2.78100	113
2.78467	114
2.78833	115
2.79200	117
2.79567	117
2.79933	117
2.80300	117
2.80667	116
2.81033	117
2.81400	120
2.81767	126
2.82133	146
2.82500	192
2.82867	275
2.83233	420
2.83600	655
2.83967	994
2.84333	1436
2.84700	1970
2.85067	2568
2.85433	3185
2.85800	3778
2.86167	4295
2.86533	4693
2.86900	4946
2.87267	5049
2.87633	5013
2.88000	4859
2.88367	4613
2.88733	4307
2.89100	3962
2.89467	3601
2.89833	3242
2.90200	2899
2.90567	2581
2.90933	2288
2.91300	2025
2.91667	1789
2.92033	1580
2.92400	1395
2.92767	1232
2.93133	1090
2.93500	964
2.93867	855
2.94233	760
2.94600	680
2.94967	609
2.95333	545
2.95700	492
2.96067	447
2.96433	408
2.96800	373
2.97167	341
2.97533	317
2.97900	295
2.98267	274
2.98633	254
2.99000	235
2.99367	219
2.99733	208
3.00100	198
3.00467	188
3.00833	179
3.01200	170
3.01567	162
3.01933	154
3.02300	149
3.02667	145
3.03033	141
3.03400	137
3.03767	131
3.04133	125
3.04500	119
3.04867	115
3.05233	115
3.05600	112
3.05967	108
3.06333	107
3.06700	105
3.07067	105
3.07433	104
3.07800	101
3.08167	99
3.08533	97
3.08900	95
3.09267	93
3.09633	90
3.10000	86
3.10367	84
3.10733	84
3.11100	84
3.11467	83
3.11833	83
3.12200	82
3.12567	80
3.12933	77
3.13300	74
3.13667	74
3.14033	75
3.14400	76
3.14767	78
3.15133	80
3.15500	80
3.15867	80
3.16233	81
3.16600	79
3.16967	78
3.17333	79
3.17700	79
3.18067	77
3.18433	76
3.18800	75
3.19167	74
3.19533	75
3.19900	77
3.20267	78
3.20633	77
3.21000	78
3.21367	80
3.21733	82
3.22100	83
3.22467	84
3.22833	84
3.23200	85
3.23567	85
3.23933	86
3.24300	87
3.24667	88
3.25033	88
3.25400	89
3.25767	88
3.26133	88
3.26500	87
3.26867	85
3.27233	86
3.27600	87
3.27967	88
3.28333	89
3.28700	91
3.29067	89
3.29433	88
3.29800	88
3.30167	86
3.30533	84
3.30900	85
3.31267	84
3.31633	83
3.32000	85
3.32367	85
3.32733	86
3.33100	86
3.33467	86
3.33833	85
3.34200	83
3.34567	80
3.34933	78
3.35300	77
3.35667	78
3.36033	81
3.36400	84
3.36767	87
3.37133	89
3.37500	90
3.37867	89
3.38233	88
3.38600	86
3.38967	87
3.39333	86
3.39700	85
3.40067	85
3.40433	86
3.40800	85
3.41167	85
3.41533	87
3.41900	89
3.42267	91
3.42633	93
3.43000	95
3.43367	96
3.43733	97
3.44100	97
3.44467	95
3.44833	95
3.45200	99
3.45567	104
3.45933	107
3.46300	109
3.46667	108
3.47033	106
3.47400	105
3.47767	102
3.48133	102
3.48500	104
3.48867	106
3.49233	107
3.49600	107
3.49967	109
3.50333	111
3.50700	112
3.51067	113
3.51433	112
3.51800	111
3.52167	113
3.52533	113
3.52900	115
3.53267	117
3.53633	119
3.54000	112
3.54367	80
3.54733	44
3.55100	22
3.55467	12
3.55833	9
3.56200	11
3.56567	22
3.56933	36
3.57300	53
3.57667	72
3.58033	92
3.58400	113
3.58767	133
3.59133	151
3.59500	169
3.59867	185
3.60233	203
3.60600	222
3.60967	239
3.61333	255
3.61700	272
3.62067	287
3.62433	300
3.62800	313
3.63167	325
3.63533	335
3.63900	345
3.64267	354
3.64633	362
3.65000	368
3.65367	373
3.65733	378
3.66100	381
3.66467	385
3.66833	390
3.67200	395
3.67567	401
3.67933	404
3.68300	405
3.68667	407
3.69033	410
3.69400	410
3.69767	410
3.70133	413
3.70500	415
3.70867	416
3.71233	416
3.71600	413
3.71967	412
3.72333	411
3.72700	409
3.73067	409
3.73433	410
3.73800	410
3.74167	411
3.74533	410
3.74900	408
3.75267	408
3.75633	410
3.76000	410
3.76367	409
3.76733	409
3.77100	410
3.77467	410
3.77833	408
3.78200	408
3.78567	408
3.78933	405
3.79300	401
3.79667	401
3.80033	400
3.80400	399
3.80767	399
3.81133	401
3.81500	402
3.81867	403
3.82233	403
3.82600	403
3.82967	402
3.83333	401
3.83700	399
3.84067	397
3.84433	398
3.84800	399
3.85167	399
3.85533	400
3.85900	401
3.86267	402
3.86633	403
3.87000	404
3.87367	404
3.87733	401
3.88100	402
3.88467	404
3.88833	405
3.89200	403
3.89567	404
3.89933	404
3.90300	404
3.90667	402
3.91033	400
3.91400	401
3.91767	401
3.92133	402
3.92500	402
3.92867	402
3.93233	402
3.93600	403
3.93967	404
3.94333	406
3.94700	407
3.95067	407
3.95433	406
3.95800	405
3.96167	404
3.96533	402
3.96900	401
3.97267	402
3.97633	403
3.98000	405
3.98367	406
3.98733	408
3.99100	408
3.99467	408
3.99833	411

[Status Trace (Column Oven Temperature)]
Interval(msec)	1000
# of Points	240
Start Time(min)	0.002
End Time(min)	3.985
Intensity Units	
Intensity Multiplier	1
R.Time (min)	Intensity
0.00202	35.03
0.01868	35.03
0.03535	35.03
0.05202	35.02
0.06868	35.01
0.08535	35.01
0.10202	35.01
0.11868	35.02
0.13535	35.02
0.15202	35.02
0.16868	35.03
0.18535	35.04
0.20202	35.06
0.21868	35.06
0.23535	35.06
0.25202	35.06
0.26868	35.07
0.28535	35.07
0.30202	35.06
0.31868	35.06
0.33535	35.05
0.35202	35.03
0.36868	35.02
0.38535	35.01
0.40202	35.02
0.41868	35.01
0.43535	35.02
0.45202	35.03
0.46868	35.04
0.48535	35.05
0.50202	35.05
0.51868	35.04
0.53535	35.04
0.55202	35.03
0.56868	35.02
0.58535	35.00
0.60202	35.00
0.61868	34.99
0.63535	34.99
0.65202	35.00
0.66868	35.01
0.68535	35.01
0.70202	35.01
0.71868	35.00
0.73535	35.00
0.75202	35.00
0.76868	35.00
0.78535	35.00
0.80202	35.00
0.81868	34.99
0.83535	34.99
0.85202	34.99
0.86868	34.98
0.88535	34.98
0.90202	34.97
0.91868	34.97
0.93535	34.96
0.95202	34.98
0.96868	34.97
0.98535	34.98
1.00202	34.98
1.01868	34.98
1.03535	35.00
1.05202	35.00
1.06868	34.99
1.08535	35.00
1.10202	34.99
1.11868	34.99
1.13535	35.00
1.15202	35.00
1.16868	35.00
1.18535	35.00
1.20202	34.99
1.21868	34.99
1.23535	34.99
1.25202	34.98
1.26868	34.96
1.28535	34.96
1.30202	34.97
1.31868	34.97
1.33535	34.99
1.35202	35.00
1.36868	35.01
1.38535	35.02
1.40202	35.04
1.41868	35.05
1.43535	35.05
1.45202	35.04
1.46868	35.03
1.48535	35.02
1.50202	35.02
1.51868	35.01
1.53535	35.01
1.55202	35.02
1.56868	35.00
1.58535	34.99
1.60202	35.03
1.61868	35.13
1.63535	35.31
1.65202	35.53
1.66868	35.83
1.68535	36.22
1.70202	36.58
1.71868	36.92
1.73535	37.22
1.75202	37.54
1.76868	37.87
1.78535	38.22
1.80202	38.56
1.81868	38.89
1.83535	39.23
1.85202	39.56
1.86868	39.88
1.88535	40.20
1.90202	40.56
1.91868	40.87
1.93535	41.19
1.95202	41.53
1.96868	41.83
1.98535	42.18
2.00202	42.49
2.01868	42.81
2.03535	43.15
2.05202	43.47
2.06868	43.78
2.08535	44.13
2.10202	44.45
2.11868	44.78
2.13535	45.12
2.15202	45.43
2.16868	45.76
2.18535	46.10
2.20202	46.41
2.21868	46.75
2.23535	47.06
2.25202	47.39
2.26868	47.72
2.28535	48.02
2.30202	48.41
2.31868	48.76
2.33535	49.09
2.35202	49.38
2.36868	49.59
2.38535	49.68
2.40202	49.67
2.41868	49.68
2.43535	49.69
2.45202	49.70
2.46868	49.71
2.48535	49.72
2.50202	49.73
2.51868	49.74
2.53535	49.75
2.55202	49.78
2.56868	49.78
2.58535	49.80
2.60202	49.81
2.61868	49.81
2.63535	49.83
2.65202	49.84
2.66868	49.82
2.68535	49.84
2.70202	49.85
2.71868	49.86
2.73535	49.86
2.75202	49.85
2.76868	49.87
2.78535	49.89
2.80202	49.90
2.81868	49.90
2.83535	49.89
2.85202	49.88
2.86868	49.88
2.88535	49.87
2.90202	49.88
2.91868	49.89
2.93535	49.90
2.95202	49.92
2.96868	49.94
2.98535	49.96
3.00202	49.97
3.01868	49.97
3.03535	49.98
3.05202	50.00
3.06868	50.00
3.08535	50.01
3.10202	50.02
3.11868	50.04
3.13535	50.05
3.15202	50.06
3.16868	50.08
3.18535	50.08
3.20202	50.09
3.21868	50.09
3.23535	50.09
3.25202	50.10
3.26868	50.11
3.28535	50.11
3.30202	50.11
3.31868	50.10
3.33535	50.08
3.35202	50.07
3.36868	50.07
3.38535	50.05
3.40202	50.04
3.41868	50.03
3.43535	50.02
3.45202	50.01
3.46868	50.00
3.48535	49.99
3.50202	49.99
3.51868	49.98
3.53535	49.99
3.55202	50.00
3.56868	50.01
3.58535	50.01
3.60202	50.02
3.61868	50.02
3.63535	50.02
3.65202	50.03
3.66868	50.02
3.68535	50.03
3.70202	50.03
3.71868	50.03
3.73535	50.03
3.75202	50.03
3.76868	50.05
3.78535	50.06
3.80202	50.06
3.81868	50.06
3.83535	50.06
3.85202	50.06
3.86868	50.07
3.88535	50.05
3.90202	50.05
3.91868	50.04
3.93535	50.05
3.95202	50.05
3.96868	50.05
3.98535	50.05

[Status Trace (Injection Unit Temperature)]
Interval(msec)	1000
# of Points	240
Start Time(min)	0.002
End Time(min)	3.985
Intensity Units	
Intensity Multiplier	1
R.Time (min)	Intensity
0.00202	99.98
0.01868	99.98
0.03535	99.98
0.05202	99.98
0.06868	99.98
0.08535	99.98
0.10202	99.98
0.11868	99.98
0.13535	99.98
0.15202	99.98
0.16868	99.98
0.18535	99.97
0.20202	99.98
0.21868	99.98
0.23535	99.98
0.25202	99.98
0.26868	99.98
0.28535	99.98
0.30202	99.98
0.31868	99.98
0.33535	99.98
0.35202	99.98
0.36868	99.98
0.38535	99.98
0.40202	99.98
0.41868	99.98
0.43535	99.98
0.45202	99.98
0.46868	99.98
0.48535	99.98
0.50202	99.98
0.51868	99.98
0.53535	99.98
0.55202	99.98
0.56868	99.98
0.58535	99.98
0.60202	99.99
0.61868	99.98
0.63535	99.98
0.65202	99.99
0.66868	99.98
0.68535	99.98
0.70202	99.98
0.71868	99.98
0.73535	99.98
0.75202	99.98
0.76868	99.98
0.78535	99.98
0.80202	99.98
0.81868	99.98
0.83535	99.98
0.85202	99.98
0.86868	99.98
0.88535	99.98
0.90202	99.98
0.91868	99.98
0.93535	99.98
0.95202	99.98
0.96868	99.98
0.98535	99.98
1.00202	99.98
1.01868	99.98
1.03535	99.98
1.05202	99.98
1.06868	99.97
1.08535	99.98
1.10202	99.97
1.11868	99.98
1.13535	99.98
1.15202	99.98
1.16868	99.98
1.18535	99.98
1.20202	99.98
1.21868	99.98
1.23535	99.98
1.25202	99.98
1.26868	99.98
1.28535	99.98
1.30202	99.98
1.31868	99.98
1.33535	99.98
1.35202	99.98
1.36868	99.98
1.38535	99.98
1.40202	99.98
1.41868	99.98
1.43535	99.98
1.45202	99.98
1.46868	99.98
1.48535	99.98
1.50202	99.99
1.51868	99.98
1.53535	99.98
1.55202	99.99
1.56868	99.98
1.58535	99.98
1.60202	99.99
1.61868	99.99
1.63535	99.99
1.65202	99.99
1.66868	99.98
1.68535	99.99
1.70202	99.99
1.71868	99.99
1.73535	99.99
1.75202	99.99
1.76868	99.98
1.78535	99.99
1.80202	99.99
1.81868	99.99
1.83535	99.99
1.85202	99.98
1.86868	99.99
1.88535	99.99
1.90202	99.99
1.91868	99.99
1.93535	99.98
1.95202	99.98
1.96868	99.98
1.98535	99.98
2.00202	99.98
2.01868	99.98
2.03535	99.98
2.05202	99.98
2.06868	99.97
2.08535	99.98
2.10202	99.98
2.11868	99.97
2.13535	99.98
2.15202	99.97
2.16868	99.97
2.18535	99.97
2.20202	99.97
2.21868	99.97
2.23535	99.97
2.25202	99.97
2.26868	99.97
2.28535	99.97
2.30202	99.97
2.31868	99.97
2.33535	99.97
2.35202	99.97
2.36868	99.97
2.38535	99.97
2.40202	99.97
2.41868	99.97
2.43535	99.97
2.45202	99.96
2.46868	99.97
2.48535	99.97
2.50202	99.97
2.51868	99.97
2.53535	99.97
2.55202	99.97
2.56868	99.98
2.58535	99.98
2.60202	99.97
2.61868	99.98
2.63535	99.98
2.65202	99.98
2.66868	99.97
2.68535	99.98
2.70202	99.98
2.71868	99.98
2.73535	99.98
2.75202	99.99
2.76868	99.99
2.78535	99.99
2.80202	99.99
2.81868	99.99
2.83535	99.99
2.85202	99.99
2.86868	100.00
2.88535	99.99
2.90202	100.00
2.91868	100.00
2.93535	100.00
2.95202	100.01
2.96868	100.00
2.98535	100.01
3.00202	100.01
3.01868	100.01
3.03535	100.01
3.05202	100.01
3.06868	100.01
3.08535	100.02
3.10202	100.02
3.11868	100.02
3.13535	100.02
3.15202	100.02
3.16868	100.02
3.18535	100.02
3.20202	100.02
3.21868	100.02
3.23535	100.02
3.25202	100.02
3.26868	100.02
3.28535	100.02
3.30202	100.02
3.31868	100.02
3.33535	100.02
3.35202	100.03
3.36868	100.03
3.38535	100.03
3.40202	100.03
3.41868	100.03
3.43535	100.03
3.45202	100.03
3.46868	100.03
3.48535	100.03
3.50202	100.03
3.51868	100.04
3.53535	100.04
3.55202	100.03
3.56868	100.04
3.58535	100.03
3.60202	100.03
3.61868	100.04
3.63535	100.04
3.65202	100.04
3.66868	100.04
3.68535	100.04
3.70202	100.04
3.71868	100.04
3.73535	100.04
3.75202	100.04
3.76868	100.04
3.78535	100.04
3.80202	100.04
3.81868	100.04
3.83535	100.04
3.85202	100.05
3.86868	100.04
3.88535	100.04
3.90202	100.04
3.91868	100.04
3.93535	100.04
3.95202	100.05
3.96868	100.04
3.98535	100.04

[Status Trace (Carrier Gas Pressure)]
Interval(msec)	1000
# of Points	240
Start Time(min)	0.002
End Time(min)	3.985
Intensity Units	
Intensity Multiplier	1
R.Time (min)	Intensity
0.00202	58.00
0.01868	56.43
0.03535	56.26
0.05202	58.56
0.06868	59.88
0.08535	58.32
0.10202	57.97
0.11868	58.00
0.13535	58.01
0.15202	58.01
0.16868	58.00
0.18535	58.00
0.20202	58.00
0.21868	58.00
0.23535	58.00
0.25202	58.00
0.26868	58.00
0.28535	58.00
0.30202	58.00
0.31868	58.00
0.33535	58.00
0.35202	58.00
0.36868	58.00
0.38535	58.00
0.40202	58.00
0.41868	58.00
0.43535	58.00
0.45202	58.00
0.46868	58.00
0.48535	58.00
0.50202	58.00
0.51868	58.00
0.53535	58.00
0.55202	58.00
0.56868	58.00
0.58535	58.00
0.60202	58.00
0.61868	58.00
0.63535	58.00
0.65202	58.00
0.66868	58.00
0.68535	58.00
0.70202	58.00
0.71868	58.00
0.73535	58.00
0.75202	58.00
0.76868	58.00
0.78535	58.00
0.80202	58.00
0.81868	58.00
0.83535	58.00
0.85202	58.00
0.86868	58.00
0.88535	58.00
0.90202	58.00
0.91868	58.00
0.93535	58.00
0.95202	58.00
0.96868	58.00
0.98535	58.00
1.00202	58.00
1.01868	58.00
1.03535	58.00
1.05202	58.00
1.06868	58.00
1.08535	58.00
1.10202	58.00
1.11868	58.00
1.13535	58.00
1.15202	58.00
1.16868	58.00
1.18535	58.00
1.20202	58.00
1.21868	58.00
1.23535	58.00
1.25202	58.00
1.26868	58.00
1.28535	58.00
1.30202	58.00
1.31868	58.00
1.33535	58.00
1.35202	58.00
1.36868	58.00
1.38535	58.00
1.40202	58.00
1.41868	58.00
1.43535	58.00
1.45202	58.00
1.46868	58.00
1.48535	58.00
1.50202	58.00
1.51868	58.00
1.53535	58.00
1.55202	58.00
1.56868	58.00
1.58535	58.00
1.60202	58.00
1.61868	58.00
1.63535	58.00
1.65202	58.00
1.66868	58.01
1.68535	58.01
1.70202	58.00
1.71868	58.00
1.73535	58.00
1.75202	58.00
1.76868	58.00
1.78535	58.00
1.80202	58.00
1.81868	58.00
1.83535	58.00
1.85202	58.00
1.86868	58.00
1.88535	58.00
1.90202	58.00
1.91868	58.00
1.93535	58.00
1.95202	58.00
1.96868	58.00
1.98535	58.00
2.00202	58.00
2.01868	58.00
2.03535	58.00
2.05202	58.00
2.06868	58.00
2.08535	58.00
2.10202	58.00
2.11868	58.00
2.13535	58.00
2.15202	58.00
2.16868	58.00
2.18535	58.00
2.20202	58.00
2.21868	58.00
2.23535	58.00
2.25202	58.00
2.26868	58.00
2.28535	58.00
2.30202	58.00
2.31868	58.00
2.33535	58.00
2.35202	58.00
2.36868	58.00
2.38535	57.99
2.40202	57.99
2.41868	58.00
2.43535	58.00
2.45202	58.00
2.46868	58.00
2.48535	58.00
2.50202	57.98
2.51868	58.00
2.53535	57.99
2.55202	58.00
2.56868	58.00
2.58535	58.00
2.60202	58.00
2.61868	58.00
2.63535	58.00
2.65202	58.00
2.66868	58.00
2.68535	58.00
2.70202	58.00
2.71868	58.00
2.73535	58.00
2.75202	58.00
2.76868	58.00
2.78535	58.00
2.80202	58.00
2.81868	58.00
2.83535	58.00
2.85202	58.00
2.86868	58.00
2.88535	58.00
2.90202	58.00
2.91868	58.00
2.93535	58.00
2.95202	58.00
2.96868	58.00
2.98535	58.00
3.00202	58.00
3.01868	58.00
3.03535	58.00
3.05202	58.00
3.06868	58.00
3.08535	58.00
3.10202	58.00
3.11868	58.00
3.13535	58.00
3.15202	58.00
3.16868	58.00
3.18535	58.00
3.20202	58.00
3.21868	58.00
3.23535	58.00
3.25202	58.00
3.26868	58.00
3.28535	58.00
3.30202	58.00
3.31868	58.00
3.33535	58.00
3.35202	58.00
3.36868	58.00
3.38535	58.00
3.40202	58.00
3.41868	58.00
3.43535	58.00
3.45202	58.00
3.46868	58.00
3.48535	58.00
3.50202	58.00
3.51868	58.00
3.53535	58.00
3.55202	58.00
3.56868	58.00
3.58535	58.00
3.60202	58.00
3.61868	58.00
3.63535	58.00
3.65202	58.00
3.66868	58.00
3.68535	58.00
3.70202	58.00
3.71868	58.00
3.73535	58.00
3.75202	58.00
3.76868	58.00
3.78535	58.00
3.80202	58.00
3.81868	58.00
3.83535	58.00
3.85202	58.00
3.86868	58.00
3.88535	58.00
3.90202	58.00
3.91868	58.00
3.93535	58.00
3.95202	58.00
3.96868	58.00
3.98535	58.00

[Status Trace (Carrier Gas Flow)]
Interval(msec)	1000
# of Points	240
Start Time(min)	0.002
End Time(min)	3.985
Intensity Units	
Intensity Multiplier	1
R.Time (min)	Intensity
0.00202	34.52
0.01868	34.40
0.03535	34.54
0.05202	34.55
0.06868	34.50
0.08535	34.51
0.10202	34.52
0.11868	34.52
0.13535	34.51
0.15202	34.52
0.16868	34.52
0.18535	34.52
0.20202	34.52
0.21868	34.52
0.23535	34.52
0.25202	34.52
0.26868	34.52
0.28535	34.52
0.30202	34.52
0.31868	34.52
0.33535	34.52
0.35202	34.52
0.36868	34.52
0.38535	34.52
0.40202	34.51
0.41868	34.52
0.43535	34.52
0.45202	34.52
0.46868	34.52
0.48535	34.52
0.50202	34.52
0.51868	34.52
0.53535	34.52
0.55202	34.52
0.56868	34.52
0.58535	34.52
0.60202	34.52
0.61868	34.52
0.63535	34.52
0.65202	34.52
0.66868	34.51
0.68535	34.52
0.70202	34.52
0.71868	34.52
0.73535	34.52
0.75202	34.52
0.76868	34.52
0.78535	34.52
0.80202	34.52
0.81868	34.52
0.83535	34.52
0.85202	34.52
0.86868	34.52
0.88535	34.52
0.90202	34.52
0.91868	34.52
0.93535	34.52
0.95202	34.52
0.96868	34.52
0.98535	34.52
1.00202	34.52
1.01868	34.52
1.03535	34.52
1.05202	34.52
1.06868	34.52
1.08535	34.52
1.10202	34.52
1.11868	34.52
1.13535	34.52
1.15202	34.52
1.16868	34.52
1.18535	34.52
1.20202	34.51
1.21868	34.52
1.23535	34.52
1.25202	34.52
1.26868	34.52
1.28535	34.51
1.30202	34.52
1.31868	34.52
1.33535	34.51
1.35202	34.52
1.36868	34.52
1.38535	34.52
1.40202	34.52
1.41868	34.51
1.43535	34.52
1.45202	34.52
1.46868	34.52
1.48535	34.52
1.50202	34.52
1.51868	34.52
1.53535	34.52
1.55202	34.52
1.56868	34.52
1.58535	34.52
1.60202	34.52
1.61868	34.52
1.63535	34.52
1.65202	34.52
1.66868	34.52
1.68535	34.52
1.70202	34.51
1.71868	34.52
1.73535	34.52
1.75202	34.51
1.76868	34.52
1.78535	34.53
1.80202	34.51
1.81868	34.52
1.83535	34.52
1.85202	34.51
1.86868	34.52
1.88535	34.52
1.90202	34.52
1.91868	34.52
1.93535	34.52
1.95202	34.51
1.96868	34.52
1.98535	34.52
2.00202	34.52
2.01868	34.52
2.03535	34.52
2.05202	34.52
2.06868	34.51
2.08535	34.52
2.10202	34.52
2.11868	34.51
2.13535	34.52
2.15202	34.52
2.16868	34.52
2.18535	34.52
2.20202	34.52
2.21868	34.52
2.23535	34.52
2.25202	34.51
2.26868	34.51
2.28535	34.51
2.30202	34.52
2.31868	34.52
2.33535	34.52
2.35202	34.52
2.36868	34.51
2.38535	34.52
2.40202	34.52
2.41868	34.51
2.43535	34.52
2.45202	34.52
2.46868	34.53
2.48535	34.52
2.50202	34.57
2.51868	34.51
2.53535	34.52
2.55202	34.52
2.56868	34.52
2.58535	34.52
2.60202	34.52
2.61868	34.52
2.63535	34.52
2.65202	34.52
2.66868	34.52
2.68535	34.52
2.70202	34.51
2.71868	34.52
2.73535	34.52
2.75202	34.52
2.76868	34.52
2.78535	34.52
2.80202	34.52
2.81868	34.52
2.83535	34.52
2.85202	34.51
2.86868	34.52
2.88535	34.52
2.90202	34.51
2.91868	34.52
2.93535	34.53
2.95202	34.52
2.96868	34.52
2.98535	34.52
3.00202	34.52
3.01868	34.52
3.03535	34.52
3.05202	34.52
3.06868	34.52
3.08535	34.52
3.10202	34.52
3.11868	34.52
3.13535	34.51
3.15202	34.51
3.16868	34.52
3.18535	34.52
3.20202	34.51
3.21868	34.52
3.23535	34.52
3.25202	34.52
3.26868	34.51
3.28535	34.52
3.30202	34.52
3.31868	34.52
3.33535	34.51
3.35202	34.51
3.36868	34.52
3.38535	34.52
3.40202	34.52
3.41868	34.52
3.43535	34.52
3.45202	34.52
3.46868	34.52
3.48535	34.52
3.50202	34.51
3.51868	34.52
3.53535	34.51
3.55202	34.52
3.56868	34.52
3.58535	34.52
3.60202	34.53
3.61868	34.52
3.63535	34.52
3.65202	34.52
3.66868	34.52
3.68535	34.52
3.70202	34.52
3.71868	34.52
3.73535	34.52
3.75202	34.52
3.76868	34.52
3.78535	34.52
3.80202	34.52
3.81868	34.52
3.83535	34.52
3.85202	34.52
3.86868	34.52
3.88535	34.52
3.90202	34.52
3.91868	34.52
3.93535	34.52
3.95202	34.52
3.96868	34.52
3.98535	34.52

[Status Trace (Column Flow)]
Interval(msec)	1000
# of Points	240
Start Time(min)	0.002
End Time(min)	3.985
Intensity Units	
Intensity Multiplier	1
R.Time (min)	Intensity
0.00202	5.56
0.01868	5.38
0.03535	5.36
0.05202	5.63
0.06868	5.79
0.08535	5.60
0.10202	5.56
0.11868	5.56
0.13535	5.56
0.15202	5.56
0.16868	5.56
0.18535	5.56
0.20202	5.56
0.21868	5.56
0.23535	5.56
0.25202	5.56
0.26868	5.56
0.28535	5.56
0.30202	5.56
0.31868	5.56
0.33535	5.56
0.35202	5.56
0.36868	5.56
0.38535	5.56
0.40202	5.56
0.41868	5.56
0.43535	5.56
0.45202	5.56
0.46868	5.56
0.48535	5.56
0.50202	5.56
0.51868	5.56
0.53535	5.56
0.55202	5.56
0.56868	5.56
0.58535	5.56
0.60202	5.56
0.61868	5.56
0.63535	5.56
0.65202	5.56
0.66868	5.56
0.68535	5.56
0.70202	5.56
0.71868	5.56
0.73535	5.56
0.75202	5.56
0.76868	5.56
0.78535	5.56
0.80202	5.56
0.81868	5.56
0.83535	5.56
0.85202	5.56
0.86868	5.56
0.88535	5.56
0.90202	5.57
0.91868	5.57
0.93535	5.57
0.95202	5.57
0.96868	5.57
0.98535	5.56
1.00202	5.56
1.01868	5.56
1.03535	5.56
1.05202	5.56
1.06868	5.56
1.08535	5.56
1.10202	5.56
1.11868	5.56
1.13535	5.56
1.15202	5.56
1.16868	5.56
1.18535	5.56
1.20202	5.56
1.21868	5.56
1.23535	5.56
1.25202	5.56
1.26868	5.57
1.28535	5.57
1.30202	5.57
1.31868	5.57
1.33535	5.56
1.35202	5.56
1.36868	5.56
1.38535	5.56
1.40202	5.56
1.41868	5.56
1.43535	5.56
1.45202	5.56
1.46868	5.56
1.48535	5.56
1.50202	5.56
1.51868	5.56
1.53535	5.56
1.55202	5.56
1.56868	5.56
1.58535	5.56
1.60202	5.56
1.61868	5.56
1.63535	5.56
1.65202	5.55
1.66868	5.54
1.68535	5.53
1.70202	5.51
1.71868	5.50
1.73535	5.49
1.75202	5.48
1.76868	5.48
1.78535	5.46
1.80202	5.45
1.81868	5.44
1.83535	5.43
1.85202	5.42
1.86868	5.41
1.88535	5.40
1.90202	5.39
1.91868	5.38
1.93535	5.37
1.95202	5.36
1.96868	5.35
1.98535	5.34
2.00202	5.33
2.01868	5.33
2.03535	5.31
2.05202	5.30
2.06868	5.30
2.08535	5.29
2.10202	5.28
2.11868	5.27
2.13535	5.26
2.15202	5.25
2.16868	5.24
2.18535	5.23
2.20202	5.22
2.21868	5.21
2.23535	5.20
2.25202	5.19
2.26868	5.18
2.28535	5.17
2.30202	5.16
2.31868	5.15
2.33535	5.14
2.35202	5.13
2.36868	5.13
2.38535	5.13
2.40202	5.13
2.41868	5.13
2.43535	5.13
2.45202	5.13
2.46868	5.13
2.48535	5.13
2.50202	5.12
2.51868	5.12
2.53535	5.12
2.55202	5.12
2.56868	5.12
2.58535	5.12
2.60202	5.12
2.61868	5.12
2.63535	5.12
2.65202	5.12
2.66868	5.12
2.68535	5.12
2.70202	5.12
2.71868	5.12
2.73535	5.12
2.75202	5.12
2.76868	5.12
2.78535	5.12
2.80202	5.12
2.81868	5.12
2.83535	5.12
2.85202	5.12
2.86868	5.12
2.88535	5.12
2.90202	5.12
2.91868	5.12
2.93535	5.12
2.95202	5.12
2.96868	5.12
2.98535	5.12
3.00202	5.12
3.01868	5.12
3.03535	5.12
3.05202	5.12
3.06868	5.12
3.08535	5.12
3.10202	5.12
3.11868	5.12
3.13535	5.12
3.15202	5.12
3.16868	5.12
3.18535	5.12
3.20202	5.11
3.21868	5.12
3.23535	5.12
3.25202	5.12
3.26868	5.11
3.28535	5.11
3.30202	5.11
3.31868	5.11
3.33535	5.12
3.35202	5.12
3.36868	5.12
3.38535	5.12
3.40202	5.12
3.41868	5.12
3.43535	5.12
3.45202	5.12
3.46868	5.12
3.48535	5.12
3.50202	5.12
3.51868	5.12
3.53535	5.12
3.55202	5.12
3.56868	5.12
3.58535	5.12
3.60202	5.12
3.61868	5.12
3.63535	5.12
3.65202	5.12
3.66868	5.12
3.68535	5.12
3.70202	5.12
3.71868	5.12
3.73535	5.12
3.75202	5.12
3.76868	5.12
3.78535	5.12
3.80202	5.12
3.81868	5.12
3.83535	5.12
3.85202	5.12
3.86868	5.12
3.88535	5.12
3.90202	5.12
3.91868	5.12
3.93535	5.12
3.95202	5.12
3.96868	5.12
3.98535	5.12

[Status Trace (Linear Velocity)]
Interval(msec)	1000
# of Points	240
Start Time(min)	0.002
End Time(min)	3.985
Intensity Units	
Intensity Multiplier	1
R.Time (min)	Intensity
0.00202	39.02
0.01868	37.99
0.03535	37.88
0.05202	39.39
0.06868	40.26
0.08535	39.23
0.10202	39.01
0.11868	39.03
0.13535	39.03
0.15202	39.03
0.16868	39.03
0.18535	39.02
0.20202	39.02
0.21868	39.02
0.23535	39.02
0.25202	39.02
0.26868	39.02
0.28535	39.02
0.30202	39.02
0.31868	39.02
0.33535	39.02
0.35202	39.02
0.36868	39.02
0.38535	39.03
0.40202	39.02
0.41868	39.02
0.43535	39.03
0.45202	39.02
0.46868	39.02
0.48535	39.02
0.50202	39.02
0.51868	39.02
0.53535	39.02
0.55202	39.02
0.56868	39.02
0.58535	39.03
0.60202	39.03
0.61868	39.03
0.63535	39.03
0.65202	39.03
0.66868	39.03
0.68535	39.03
0.70202	39.02
0.71868	39.03
0.73535	39.03
0.75202	39.03
0.76868	39.03
0.78535	39.03
0.80202	39.03
0.81868	39.03
0.83535	39.03
0.85202	39.03
0.86868	39.03
0.88535	39.03
0.90202	39.03
0.91868	39.03
0.93535	39.03
0.95202	39.03
0.96868	39.03
0.98535	39.03
1.00202	39.03
1.01868	39.03
1.03535	39.03
1.05202	39.03
1.06868	39.03
1.08535	39.03
1.10202	39.03
1.11868	39.03
1.13535	39.03
1.15202	39.03
1.16868	39.03
1.18535	39.03
1.20202	39.03
1.21868	39.03
1.23535	39.03
1.25202	39.03
1.26868	39.03
1.28535	39.03
1.30202	39.03
1.31868	39.03
1.33535	39.03
1.35202	39.03
1.36868	39.03
1.38535	39.02
1.40202	39.02
1.41868	39.02
1.43535	39.02
1.45202	39.02
1.46868	39.02
1.48535	39.02
1.50202	39.03
1.51868	39.03
1.53535	39.03
1.55202	39.02
1.56868	39.03
1.58535	39.03
1.60202	39.03
1.61868	39.02
1.63535	39.00
1.65202	38.98
1.66868	38.95
1.68535	38.91
1.70202	38.88
1.71868	38.85
1.73535	38.81
1.75202	38.78
1.76868	38.76
1.78535	38.72
1.80202	38.69
1.81868	38.66
1.83535	38.62
1.85202	38.59
1.86868	38.57
1.88535	38.53
1.90202	38.50
1.91868	38.47
1.93535	38.44
1.95202	38.41
1.96868	38.38
1.98535	38.35
2.00202	38.32
2.01868	38.29
2.03535	38.26
2.05202	38.23
2.06868	38.20
2.08535	38.17
2.10202	38.14
2.11868	38.11
2.13535	38.08
2.15202	38.05
2.16868	38.02
2.18535	37.99
2.20202	37.96
2.21868	37.94
2.23535	37.90
2.25202	37.87
2.26868	37.85
2.28535	37.82
2.30202	37.79
2.31868	37.76
2.33535	37.72
2.35202	37.70
2.36868	37.68
2.38535	37.67
2.40202	37.67
2.41868	37.67
2.43535	37.67
2.45202	37.67
2.46868	37.67
2.48535	37.67
2.50202	37.66
2.51868	37.66
2.53535	37.66
2.55202	37.66
2.56868	37.66
2.58535	37.66
2.60202	37.66
2.61868	37.66
2.63535	37.66
2.65202	37.66
2.66868	37.66
2.68535	37.66
2.70202	37.66
2.71868	37.65
2.73535	37.65
2.75202	37.66
2.76868	37.66
2.78535	37.65
2.80202	37.65
2.81868	37.65
2.83535	37.65
2.85202	37.65
2.86868	37.65
2.88535	37.65
2.90202	37.65
2.91868	37.65
2.93535	37.65
2.95202	37.65
2.96868	37.65
2.98535	37.65
3.00202	37.64
3.01868	37.64
3.03535	37.64
3.05202	37.64
3.06868	37.64
3.08535	37.64
3.10202	37.64
3.11868	37.64
3.13535	37.64
3.15202	37.64
3.16868	37.64
3.18535	37.63
3.20202	37.63
3.21868	37.63
3.23535	37.63
3.25202	37.63
3.26868	37.63
3.28535	37.63
3.30202	37.63
3.31868	37.63
3.33535	37.63
3.35202	37.64
3.36868	37.64
3.38535	37.64
3.40202	37.64
3.41868	37.64
3.43535	37.64
3.45202	37.64
3.46868	37.64
3.48535	37.64
3.50202	37.64
3.51868	37.64
3.53535	37.64
3.55202	37.64
3.56868	37.64
3.58535	37.64
3.60202	37.64
3.61868	37.64
3.63535	37.64
3.65202	37.64
3.66868	37.64
3.68535	37.64
3.70202	37.64
3.71868	37.64
3.73535	37.64
3.75202	37.64
3.76868	37.64
3.78535	37.64
3.80202	37.64
3.81868	37.64
3.83535	37.64
3.85202	37.64
3.86868	37.64
3.88535	37.64
3.90202	37.64
3.91868	37.64
3.93535	37.64
3.95202	37.64
3.96868	37.64
3.98535	37.64

