[Header]
Application Name	LabSolutions
Version	5.110
Data File Name	C:\Users\User\Desktop\GC Analyses\Jack\Nachusa Grasslands Sampling\T1 Timepoint July 12th\T1_07122022_056.gcd
Output Date	3/14/2023
Output Time	3:41:00 PM

[File Information]
Type	Data File
Generated	3/8/2023 7:27:06 PM
Generated by	System Administrator
Modified	3/8/2023 7:33:39 PM
Modified by	System Administrator

[Sample Information]
Operator Name	System Administrator
Acquired	3/8/2023 7:29:38 PM
Sample Type	0:Unknown
Level	0
Sample Name	056
Sample ID	056
ISTD Amount1	1
ISTD Amount2	1
ISTD Amount3	1
ISTD Amount4	1
ISTD Amount5	1
ISTD Amount6	1
ISTD Amount7	1
ISTD Amount8	1
ISTD Amount9	1
ISTD Amount10	1
ISTD Amount11	1
ISTD Amount12	1
ISTD Amount13	1
ISTD Amount14	1
ISTD Amount15	1
ISTD Amount16	1
ISTD Amount17	1
ISTD Amount18	1
ISTD Amount19	1
ISTD Amount20	1
ISTD Amount21	1
ISTD Amount22	1
ISTD Amount23	1
ISTD Amount24	1
ISTD Amount25	1
ISTD Amount26	1
ISTD Amount27	1
ISTD Amount28	1
ISTD Amount29	1
ISTD Amount30	1
ISTD Amount31	1
ISTD Amount32	1
Sample Amount	1
Dilution Factor	1
Vial#	55
Injection Volume	1
Injection Count	1
Bar Code	

[Original Files]
Data File	C:\Users\User\Desktop\GC Analyses\Jack\Nachusa Grasslands Sampling\T1 Timepoint July 12th\T1_07122022_056.gcd
Method File	C:\LabSolutions\Data\GHG_4min_2022\ghg3_togas_w_acet_4 min_new_int.gcm
Batch File	C:\LabSolutions\Data\AutoSamplerTesting\T1_07122022.gcb
Report Format File	c:\LabSolutions\System\DEFAULT.lsr

[File Description]


[Configuration]
Instrument Name	C0B7VH3-Instrument1
Instrument #	1
Line #	1
# of Detectors	3
Detector ID	DET#1	DET#2	DET#3
Detector Name	FID	PTCD	ECD
# of Channels	1	1	1

[Peak Table(Ch1)]
# of Peaks	3
Peak#	R.Time	I.Time	F.Time	Area	Height	A/H	Conc.	Mark	ID#	Name	k'	Plate #	Plate Ht.	Tailing	Resolution	Sep.Factor	Area Ratio	Height Ratio	Conc. %	Norm Conc.
1	1.476	1.439	1.538	28029	13169	2.128	197.885	   	1	CO	0.000	9128	16.434	1.355	0.000	0.000	0	0	24.748	24.748
2	1.571	1.538	1.633	4732	2273	2.082	91.493	 V 	2	CH4	0.065	10520	14.258	0.000	1.550	0.000	0	0	11.442	11.442
3	1.996	1.949	2.587	2033022	958820	2.120	510.233	   	3	CO2	0.353	17345	8.648	1.333	6.978	5.462	0	0	63.810	63.810

[Peak Table(Ch2)]
# of Peaks	0

[Peak Table(Ch3)]
# of Peaks	6
Peak#	R.Time	I.Time	F.Time	Area	Height	A/H	Conc.	Mark	ID#	Name	k'	Plate #	Plate Ht.	Tailing	Resolution	Sep.Factor	Area Ratio	Height Ratio	Conc. %	Norm Conc.
1	2.462	2.106	2.513	2459	507	4.852	0.000	   			0.000	8005	18.737	0.000	0.000	0.000	0	0	0.000	0.000
2	2.539	2.513	2.634	1252	291	4.301	0.000	 V 			0.031	3980	37.688	0.000	0.568	0.000	0	0	0.000	0.000
3	2.678	2.645	2.733	144	55	2.621	0.000	   			0.088	21265	7.054	1.337	1.189	2.810	0	0	0.000	0.000
4	2.873	2.810	3.041	17676	4732	3.736	0.451	   	1	N2O	0.167	13517	11.097	1.676	2.256	1.898	0	0	100.000	100.000
5	3.214	3.082	3.228	276	78	3.545	0.000	   	2	SF6	0.305	19701	7.614	0.554	3.582	1.830	0	0	0.000	0.000
6	3.401	3.236	3.995	12999	515	25.220	0.000	   	2	SF6	0.381	500	299.954	2.239	0.534	1.249	0	0	0.000	0.000

[Compound Results(Ch1)]
# of IDs	6
ID#	Name	R.Time	Area	Height	Conc.	Curve	3rd	2nd	1st	Constant	Area Ratio	Height Ratio	Conc. %	Norm Conc.
1	CO	1.476	28029	13169	197.885	Linear	0.000000e+00	0.000000e+00	1.416423e+002	0.000000e+00	0	0	24.748	24.748
2	CH4	1.571	4732	2273	91.493	Linear	0.000000e+00	0.000000e+00	5.171738e+001	0.000000e+00	0	0	11.442	11.442
3	CO2	1.996	2033022	958820	510.233	Linear	0.000000e+00	0.000000e+00	3.984494e+003	0.000000e+00	0	0	63.810	63.810
4	Ethylene	0.000	0	0	0.000	Linear	0.000000e+00	0.000000e+00	0.000000e+00	0.000000e+00	0	0	0.000	0.000
5	Acetylene	0.000	0	0	0.000	Linear	0.000000e+00	0.000000e+00	0.000000e+00	0.000000e+00	0	0	0.000	0.000
6	Ethane	0.000	0	0	0.000	Linear	0.000000e+00	0.000000e+00	0.000000e+00	0.000000e+00	0	0	0.000	0.000

[Compound Results(Ch2)]
# of IDs	5
ID#	Name	R.Time	Area	Height	Conc.	Curve	3rd	2nd	1st	Constant	Area Ratio	Height Ratio	Conc. %	Norm Conc.
1	Hydrogen	0.000	0	0	0.000	Linear	0.000000e+00	0.000000e+00	0.000000e+00	0.000000e+00	0	0	0.000	0.000
2	Oxygen	0.000	0	0	0.000	Linear	0.000000e+00	0.000000e+00	0.000000e+00	0.000000e+00	0	0	0.000	0.000
3	Nitrogen	0.000	0	0	0.000	Linear	0.000000e+00	0.000000e+00	0.000000e+00	0.000000e+00	0	0	0.000	0.000
4	Methane	0.000	0	0	0.000	Linear	0.000000e+00	0.000000e+00	0.000000e+00	0.000000e+00	0	0	0.000	0.000
5	Carbon Monoxide	0.000	0	0	0.000	Linear	0.000000e+00	0.000000e+00	0.000000e+00	0.000000e+00	0	0	0.000	0.000

[Compound Results(Ch3)]
# of IDs	2
ID#	Name	R.Time	Area	Height	Conc.	Curve	3rd	2nd	1st	Constant	Area Ratio	Height Ratio	Conc. %	Norm Conc.
1	N2O	2.873	17676	4732	0.451	Linear	0.000000e+00	0.000000e+00	3.915173e+004	0.000000e+00	0	0	100.000	100.000
2	SF6	3.401	13275	593	0.000	Linear	0.000000e+00	0.000000e+00	0.000000e+00	0.000000e+00	0	0	0.000	0.000

[Group Results(Ch1)]
# of Groups	0

[Group Results(Ch2)]
# of Groups	0

[Group Results(Ch3)]
# of Groups	0

[Chromatogram (Ch1)]
Interval(msec)	220
# of Points	1091
Start Time(min)	0.002
End Time(min)	3.998
R.Time (min)	Intensity
0.00167	9
0.00533	15
0.00900	11
0.01267	5
0.01633	1
0.02000	0
0.02367	4
0.02733	9
0.03100	10
0.03467	10
0.03833	10
0.04200	13
0.04567	17
0.04933	20
0.05300	18
0.05667	15
0.06033	13
0.06400	13
0.06767	17
0.07133	25
0.07500	32
0.07867	34
0.08233	32
0.08600	27
0.08967	22
0.09333	19
0.09700	16
0.10067	13
0.10433	8
0.10800	10
0.11167	16
0.11533	25
0.11900	32
0.12267	36
0.12633	36
0.13000	35
0.13367	31
0.13733	25
0.14100	13
0.14467	-1
0.14833	-12
0.15200	-19
0.15567	-19
0.15933	-12
0.16300	-3
0.16667	4
0.17033	7
0.17400	9
0.17767	11
0.18133	11
0.18500	9
0.18867	6
0.19233	9
0.19600	11
0.19967	12
0.20333	14
0.20700	15
0.21067	11
0.21433	7
0.21800	2
0.22167	-5
0.22533	-6
0.22900	-3
0.23267	1
0.23633	5
0.24000	8
0.24367	14
0.24733	22
0.25100	26
0.25467	22
0.25833	13
0.26200	8
0.26567	7
0.26933	10
0.27300	16
0.27667	22
0.28033	27
0.28400	33
0.28767	42
0.29133	48
0.29500	49
0.29867	51
0.30233	56
0.30600	56
0.30967	49
0.31333	41
0.31700	36
0.32067	30
0.32433	26
0.32800	25
0.33167	27
0.33533	34
0.33900	42
0.34267	49
0.34633	57
0.35000	65
0.35367	72
0.35733	78
0.36100	79
0.36467	73
0.36833	69
0.37200	68
0.37567	67
0.37933	70
0.38300	78
0.38667	89
0.39033	102
0.39400	115
0.39767	122
0.40133	121
0.40500	111
0.40867	97
0.41233	84
0.41600	74
0.41967	73
0.42333	80
0.42700	86
0.43067	88
0.43433	87
0.43800	82
0.44167	71
0.44533	58
0.44900	50
0.45267	48
0.45633	45
0.46000	45
0.46367	47
0.46733	48
0.47100	51
0.47467	54
0.47833	59
0.48200	65
0.48567	70
0.48933	70
0.49300	63
0.49667	55
0.50033	43
0.50400	28
0.50767	17
0.51133	11
0.51500	7
0.51867	7
0.52233	9
0.52600	13
0.52967	20
0.53333	30
0.53700	39
0.54067	46
0.54433	48
0.54800	48
0.55167	46
0.55533	43
0.55900	44
0.56267	48
0.56633	46
0.57000	41
0.57367	31
0.57733	19
0.58100	10
0.58467	1
0.58833	-6
0.59200	-10
0.59567	-9
0.59933	-10
0.60300	-12
0.60667	-12
0.61033	-9
0.61400	-3
0.61767	3
0.62133	9
0.62500	17
0.62867	24
0.63233	26
0.63600	27
0.63967	31
0.64333	33
0.64700	32
0.65067	25
0.65433	18
0.65800	17
0.66167	19
0.66533	22
0.66900	27
0.67267	31
0.67633	33
0.68000	33
0.68367	33
0.68733	34
0.69100	37
0.69467	36
0.69833	30
0.70200	19
0.70567	10
0.70933	7
0.71300	10
0.71667	15
0.72033	21
0.72400	26
0.72767	26
0.73133	18
0.73500	7
0.73867	-3
0.74233	-10
0.74600	-12
0.74967	-10
0.75333	-3
0.75700	8
0.76067	16
0.76433	18
0.76800	18
0.77167	16
0.77533	15
0.77900	12
0.78267	8
0.78633	4
0.79000	6
0.79367	10
0.79733	15
0.80100	18
0.80467	19
0.80833	20
0.81200	22
0.81567	21
0.81933	17
0.82300	15
0.82667	17
0.83033	21
0.83400	21
0.83767	17
0.84133	8
0.84500	-2
0.84867	-5
0.85233	-6
0.85600	-8
0.85967	-12
0.86333	-17
0.86700	-16
0.87067	-9
0.87433	3
0.87800	16
0.88167	20
0.88533	14
0.88900	8
0.89267	5
0.89633	1
0.90000	-7
0.90367	-13
0.90733	-14
0.91100	-15
0.91467	-15
0.91833	-13
0.92200	-7
0.92567	0
0.92933	6
0.93300	10
0.93667	14
0.94033	19
0.94400	18
0.94767	11
0.95133	5
0.95500	1
0.95867	1
0.96233	1
0.96600	-3
0.96967	-11
0.97333	-19
0.97700	-28
0.98067	-32
0.98433	-31
0.98800	-30
0.99167	-30
0.99533	-29
0.99900	-25
1.00267	-18
1.00633	-9
1.01000	-2
1.01367	4
1.01733	9
1.02100	12
1.02467	11
1.02833	5
1.03200	-3
1.03567	-11
1.03933	-16
1.04300	-16
1.04667	-11
1.05033	-7
1.05400	-6
1.05767	-8
1.06133	-11
1.06500	-14
1.06867	-14
1.07233	-15
1.07600	-21
1.07967	-25
1.08333	-26
1.08700	-22
1.09067	-17
1.09433	-12
1.09800	-10
1.10167	-7
1.10533	-3
1.10900	0
1.11267	4
1.11633	7
1.12000	4
1.12367	-2
1.12733	-7
1.13100	-12
1.13467	-16
1.13833	-17
1.14200	-18
1.14567	-21
1.14933	-24
1.15300	-27
1.15667	-27
1.16033	-24
1.16400	-18
1.16767	-11
1.17133	-4
1.17500	1
1.17867	2
1.18233	-3
1.18600	-8
1.18967	-10
1.19333	-8
1.19700	-5
1.20067	0
1.20433	5
1.20800	1
1.21167	-9
1.21533	-20
1.21900	-28
1.22267	-34
1.22633	-36
1.23000	-35
1.23367	-29
1.23733	-18
1.24100	-7
1.24467	-2
1.24833	-3
1.25200	-8
1.25567	-11
1.25933	-11
1.26300	-10
1.26667	-7
1.27033	-5
1.27400	-3
1.27767	-2
1.28133	-3
1.28500	-6
1.28867	-11
1.29233	-15
1.29600	-19
1.29967	-21
1.30333	-21
1.30700	-18
1.31067	-15
1.31433	-15
1.31800	-12
1.32167	-8
1.32533	-2
1.32900	0
1.33267	-4
1.33633	-14
1.34000	-24
1.34367	-33
1.34733	-38
1.35100	-38
1.35467	-36
1.35833	-33
1.36200	-34
1.36567	-38
1.36933	-38
1.37300	-33
1.37667	-26
1.38033	-21
1.38400	-19
1.38767	-20
1.39133	-23
1.39500	-28
1.39867	-36
1.40233	-41
1.40600	-41
1.40967	-37
1.41333	-27
1.41700	-20
1.42067	-20
1.42433	-25
1.42800	-35
1.43167	-46
1.43533	-51
1.43900	-35
1.44267	43
1.44633	251
1.45000	737
1.45367	1873
1.45733	3867
1.46100	6380
1.46467	8862
1.46833	10928
1.47200	12398
1.47567	13154
1.47933	13084
1.48300	12155
1.48667	10536
1.49033	8569
1.49400	6619
1.49767	4924
1.50133	3573
1.50500	2559
1.50867	1831
1.51233	1320
1.51600	965
1.51967	725
1.52333	564
1.52700	453
1.53067	371
1.53433	312
1.53800	281
1.54167	299
1.54533	425
1.54900	698
1.55267	1086
1.55633	1499
1.56000	1861
1.56367	2135
1.56733	2296
1.57100	2309
1.57467	2156
1.57833	1863
1.58200	1499
1.58567	1141
1.58933	836
1.59300	599
1.59667	428
1.60033	311
1.60400	231
1.60767	179
1.61133	148
1.61500	125
1.61867	105
1.62233	92
1.62600	84
1.62967	76
1.63333	70
1.63700	67
1.64067	66
1.64433	66
1.64800	65
1.65167	65
1.65533	65
1.65900	63
1.66267	61
1.66633	57
1.67000	56
1.67367	57
1.67733	61
1.68100	68
1.68467	75
1.68833	78
1.69200	77
1.69567	76
1.69933	75
1.70300	71
1.70667	65
1.71033	58
1.71400	54
1.71767	53
1.72133	54
1.72500	57
1.72867	62
1.73233	62
1.73600	60
1.73967	57
1.74333	54
1.74700	53
1.75067	53
1.75433	50
1.75800	44
1.76167	36
1.76533	30
1.76900	30
1.77267	34
1.77633	40
1.78000	46
1.78367	49
1.78733	52
1.79100	56
1.79467	55
1.79833	47
1.80200	38
1.80567	30
1.80933	27
1.81300	30
1.81667	33
1.82033	31
1.82400	30
1.82767	34
1.83133	45
1.83500	53
1.83867	55
1.84233	59
1.84600	59
1.84967	54
1.85333	48
1.85700	41
1.86067	33
1.86433	30
1.86800	33
1.87167	40
1.87533	46
1.87900	48
1.88267	45
1.88633	41
1.89000	37
1.89367	32
1.89733	25
1.90100	19
1.90467	16
1.90833	16
1.91200	21
1.91567	29
1.91933	38
1.92300	42
1.92667	43
1.93033	45
1.93400	46
1.93767	45
1.94133	44
1.94500	44
1.94867	48
1.95233	71
1.95600	198
1.95967	940
1.96333	4446
1.96700	17084
1.97067	52077
1.97433	127139
1.97800	253298
1.98167	422097
1.98533	606466
1.98900	773731
1.99267	897101
1.99633	958900
2.00000	952329
2.00367	882303
2.00733	765321
2.01100	624845
2.01467	484005
2.01833	359351
2.02200	258657
2.02567	182552
2.02933	127685
2.03300	89375
2.03667	63167
2.04033	45432
2.04400	33462
2.04767	25350
2.05133	19794
2.05500	15926
2.05867	13176
2.06233	11181
2.06600	9701
2.06967	8571
2.07333	7681
2.07700	6962
2.08067	6370
2.08433	5871
2.08800	5444
2.09167	5073
2.09533	4750
2.09900	4464
2.10267	4206
2.10633	3970
2.11000	3751
2.11367	3553
2.11733	3375
2.12100	3217
2.12467	3077
2.12833	2961
2.13200	2859
2.13567	2759
2.13933	2657
2.14300	2560
2.14667	2467
2.15033	2379
2.15400	2297
2.15767	2223
2.16133	2157
2.16500	2095
2.16867	2034
2.17233	1973
2.17600	1915
2.17967	1861
2.18333	1811
2.18700	1764
2.19067	1721
2.19433	1681
2.19800	1645
2.20167	1614
2.20533	1582
2.20900	1543
2.21267	1500
2.21633	1460
2.22000	1428
2.22367	1404
2.22733	1383
2.23100	1358
2.23467	1329
2.23833	1298
2.24200	1266
2.24567	1233
2.24933	1201
2.25300	1172
2.25667	1143
2.26033	1118
2.26400	1097
2.26767	1082
2.27133	1071
2.27500	1062
2.27867	1049
2.28233	1032
2.28600	1019
2.28967	1008
2.29333	995
2.29700	978
2.30067	960
2.30433	946
2.30800	932
2.31167	914
2.31533	896
2.31900	879
2.32267	861
2.32633	844
2.33000	831
2.33367	822
2.33733	816
2.34100	813
2.34467	808
2.34833	798
2.35200	788
2.35567	779
2.35933	773
2.36300	766
2.36667	757
2.37033	748
2.37400	741
2.37767	735
2.38133	730
2.38500	723
2.38867	715
2.39233	705
2.39600	693
2.39967	683
2.40333	674
2.40700	663
2.41067	656
2.41433	650
2.41800	649
2.42167	650
2.42533	648
2.42900	643
2.43267	640
2.43633	638
2.44000	637
2.44367	637
2.44733	637
2.45100	632
2.45467	623
2.45833	613
2.46200	606
2.46567	600
2.46933	590
2.47300	578
2.47667	565
2.48033	557
2.48400	558
2.48767	562
2.49133	565
2.49500	563
2.49867	559
2.50233	554
2.50600	547
2.50967	538
2.51333	530
2.51700	530
2.52067	535
2.52433	541
2.52800	543
2.53167	542
2.53533	540
2.53900	537
2.54267	536
2.54633	532
2.55000	525
2.55367	517
2.55733	512
2.56100	510
2.56467	507
2.56833	502
2.57200	491
2.57567	482
2.57933	476
2.58300	470
2.58667	469
2.59033	469
2.59400	470
2.59767	471
2.60133	473
2.60500	475
2.60867	475
2.61233	474
2.61600	473
2.61967	471
2.62333	471
2.62700	473
2.63067	473
2.63433	472
2.63800	467
2.64167	458
2.64533	451
2.64900	447
2.65267	442
2.65633	438
2.66000	438
2.66367	440
2.66733	446
2.67100	451
2.67467	455
2.67833	457
2.68200	458
2.68567	461
2.68933	460
2.69300	455
2.69667	451
2.70033	446
2.70400	444
2.70767	443
2.71133	444
2.71500	447
2.71867	451
2.72233	457
2.72600	462
2.72967	463
2.73333	457
2.73700	445
2.74067	433
2.74433	428
2.74800	428
2.75167	430
2.75533	434
2.75900	438
2.76267	442
2.76633	444
2.77000	444
2.77367	442
2.77733	440
2.78100	435
2.78467	433
2.78833	433
2.79200	430
2.79567	422
2.79933	412
2.80300	404
2.80667	400
2.81033	403
2.81400	410
2.81767	417
2.82133	424
2.82500	427
2.82867	427
2.83233	422
2.83600	416
2.83967	413
2.84333	414
2.84700	420
2.85067	430
2.85433	434
2.85800	433
2.86167	428
2.86533	418
2.86900	411
2.87267	410
2.87633	411
2.88000	411
2.88367	407
2.88733	402
2.89100	404
2.89467	409
2.89833	417
2.90200	423
2.90567	424
2.90933	421
2.91300	417
2.91667	413
2.92033	409
2.92400	409
2.92767	411
2.93133	417
2.93500	425
2.93867	423
2.94233	412
2.94600	401
2.94967	393
2.95333	387
2.95700	384
2.96067	383
2.96433	381
2.96800	380
2.97167	383
2.97533	391
2.97900	398
2.98267	405
2.98633	413
2.99000	418
2.99367	422
2.99733	426
3.00100	427
3.00467	421
3.00833	412
3.01200	402
3.01567	393
3.01933	387
3.02300	382
3.02667	379
3.03033	379
3.03400	380
3.03767	384
3.04133	390
3.04500	400
3.04867	405
3.05233	406
3.05600	407
3.05967	410
3.06333	414
3.06700	413
3.07067	409
3.07433	406
3.07800	406
3.08167	409
3.08533	410
3.08900	408
3.09267	405
3.09633	398
3.10000	387
3.10367	374
3.10733	365
3.11100	365
3.11467	367
3.11833	369
3.12200	375
3.12567	380
3.12933	383
3.13300	385
3.13667	389
3.14033	393
3.14400	395
3.14767	396
3.15133	396
3.15500	396
3.15867	395
3.16233	394
3.16600	392
3.16967	388
3.17333	383
3.17700	382
3.18067	386
3.18433	392
3.18800	392
3.19167	388
3.19533	382
3.19900	379
3.20267	379
3.20633	377
3.21000	370
3.21367	363
3.21733	361
3.22100	361
3.22467	364
3.22833	370
3.23200	377
3.23567	381
3.23933	383
3.24300	381
3.24667	379
3.25033	377
3.25400	374
3.25767	370
3.26133	362
3.26500	355
3.26867	352
3.27233	352
3.27600	353
3.27967	356
3.28333	357
3.28700	360
3.29067	363
3.29433	365
3.29800	366
3.30167	363
3.30533	356
3.30900	347
3.31267	340
3.31633	336
3.32000	336
3.32367	338
3.32733	342
3.33100	346
3.33467	347
3.33833	344
3.34200	343
3.34567	343
3.34933	345
3.35300	345
3.35667	344
3.36033	343
3.36400	342
3.36767	342
3.37133	339
3.37500	334
3.37867	333
3.38233	339
3.38600	352
3.38967	363
3.39333	367
3.39700	363
3.40067	359
3.40433	355
3.40800	348
3.41167	342
3.41533	339
3.41900	342
3.42267	343
3.42633	340
3.43000	336
3.43367	335
3.43733	339
3.44100	340
3.44467	336
3.44833	333
3.45200	325
3.45567	316
3.45933	311
3.46300	309
3.46667	305
3.47033	305
3.47400	308
3.47767	314
3.48133	322
3.48500	324
3.48867	321
3.49233	318
3.49600	321
3.49967	327
3.50333	328
3.50700	325
3.51067	318
3.51433	313
3.51800	310
3.52167	312
3.52533	314
3.52900	314
3.53267	311
3.53633	306
3.54000	301
3.54367	300
3.54733	303
3.55100	306
3.55467	310
3.55833	316
3.56200	320
3.56567	318
3.56933	316
3.57300	314
3.57667	311
3.58033	304
3.58400	299
3.58767	295
3.59133	296
3.59500	298
3.59867	304
3.60233	310
3.60600	314
3.60967	314
3.61333	309
3.61700	305
3.62067	300
3.62433	294
3.62800	289
3.63167	286
3.63533	283
3.63900	282
3.64267	283
3.64633	286
3.65000	291
3.65367	298
3.65733	305
3.66100	306
3.66467	299
3.66833	292
3.67200	288
3.67567	288
3.67933	289
3.68300	289
3.68667	288
3.69033	287
3.69400	284
3.69767	281
3.70133	282
3.70500	284
3.70867	282
3.71233	280
3.71600	277
3.71967	275
3.72333	273
3.72700	272
3.73067	273
3.73433	274
3.73800	270
3.74167	267
3.74533	271
3.74900	275
3.75267	280
3.75633	279
3.76000	270
3.76367	260
3.76733	255
3.77100	259
3.77467	269
3.77833	275
3.78200	277
3.78567	274
3.78933	268
3.79300	262
3.79667	259
3.80033	262
3.80400	266
3.80767	268
3.81133	267
3.81500	265
3.81867	264
3.82233	265
3.82600	269
3.82967	269
3.83333	265
3.83700	263
3.84067	261
3.84433	256
3.84800	249
3.85167	244
3.85533	247
3.85900	251
3.86267	254
3.86633	253
3.87000	251
3.87367	254
3.87733	261
3.88100	268
3.88467	269
3.88833	268
3.89200	270
3.89567	273
3.89933	271
3.90300	265
3.90667	255
3.91033	248
3.91400	245
3.91767	243
3.92133	239
3.92500	239
3.92867	242
3.93233	243
3.93600	243
3.93967	243
3.94333	246
3.94700	249
3.95067	250
3.95433	248
3.95800	245
3.96167	240
3.96533	235
3.96900	233
3.97267	234
3.97633	235
3.98000	240
3.98367	242
3.98733	240
3.99100	239
3.99467	238
3.99833	235

[Chromatogram (Ch2)]
Interval(msec)	220
# of Points	1091
Start Time(min)	0.002
End Time(min)	3.998
R.Time (min)	Intensity
0.00167	1
0.00533	1
0.00900	1
0.01267	1
0.01633	1
0.02000	2
0.02367	2
0.02733	2
0.03100	1
0.03467	1
0.03833	1
0.04200	0
0.04567	-0
0.04933	-0
0.05300	-0
0.05667	0
0.06033	1
0.06400	1
0.06767	1
0.07133	0
0.07500	-0
0.07867	-0
0.08233	-1
0.08600	-1
0.08967	-1
0.09333	-2
0.09700	-2
0.10067	-1
0.10433	-1
0.10800	-1
0.11167	-0
0.11533	0
0.11900	0
0.12267	1
0.12633	1
0.13000	1
0.13367	1
0.13733	1
0.14100	1
0.14467	1
0.14833	1
0.15200	1
0.15567	1
0.15933	1
0.16300	0
0.16667	0
0.17033	-0
0.17400	-0
0.17767	-0
0.18133	-1
0.18500	-1
0.18867	-1
0.19233	-0
0.19600	-0
0.19967	-0
0.20333	0
0.20700	0
0.21067	1
0.21433	1
0.21800	1
0.22167	1
0.22533	1
0.22900	1
0.23267	1
0.23633	1
0.24000	1
0.24367	1
0.24733	0
0.25100	0
0.25467	-0
0.25833	-0
0.26200	-0
0.26567	-1
0.26933	-1
0.27300	-1
0.27667	-1
0.28033	-1
0.28400	-2
0.28767	-2
0.29133	-2
0.29500	-3
0.29867	-3
0.30233	-3
0.30600	-3
0.30967	-3
0.31333	-3
0.31700	-3
0.32067	-3
0.32433	-3
0.32800	-2
0.33167	-2
0.33533	-2
0.33900	-2
0.34267	-1
0.34633	-1
0.35000	-1
0.35367	-1
0.35733	-1
0.36100	-0
0.36467	-0
0.36833	0
0.37200	0
0.37567	0
0.37933	1
0.38300	1
0.38667	1
0.39033	1
0.39400	1
0.39767	2
0.40133	2
0.40500	3
0.40867	3
0.41233	3
0.41600	4
0.41967	4
0.42333	4
0.42700	4
0.43067	3
0.43433	3
0.43800	2
0.44167	2
0.44533	2
0.44900	1
0.45267	1
0.45633	1
0.46000	1
0.46367	1
0.46733	1
0.47100	1
0.47467	1
0.47833	0
0.48200	0
0.48567	1
0.48933	1
0.49300	1
0.49667	1
0.50033	2
0.50400	2
0.50767	2
0.51133	2
0.51500	3
0.51867	3
0.52233	2
0.52600	2
0.52967	2
0.53333	2
0.53700	2
0.54067	1
0.54433	1
0.54800	1
0.55167	1
0.55533	1
0.55900	1
0.56267	1
0.56633	1
0.57000	1
0.57367	1
0.57733	1
0.58100	1
0.58467	1
0.58833	1
0.59200	1
0.59567	1
0.59933	1
0.60300	1
0.60667	0
0.61033	-0
0.61400	-0
0.61767	-1
0.62133	-1
0.62500	-1
0.62867	-1
0.63233	-1
0.63600	-1
0.63967	-1
0.64333	-1
0.64700	-1
0.65067	-1
0.65433	-1
0.65800	-1
0.66167	-0
0.66533	-0
0.66900	0
0.67267	0
0.67633	1
0.68000	1
0.68367	1
0.68733	1
0.69100	1
0.69467	1
0.69833	1
0.70200	1
0.70567	1
0.70933	1
0.71300	1
0.71667	0
0.72033	0
0.72400	-0
0.72767	-1
0.73133	-1
0.73500	-1
0.73867	-1
0.74233	-1
0.74600	-1
0.74967	-1
0.75333	-1
0.75700	-1
0.76067	-1
0.76433	-1
0.76800	-1
0.77167	-1
0.77533	-1
0.77900	-0
0.78267	-0
0.78633	0
0.79000	0
0.79367	1
0.79733	1
0.80100	1
0.80467	1
0.80833	1
0.81200	1
0.81567	1
0.81933	1
0.82300	1
0.82667	1
0.83033	1
0.83400	1
0.83767	-0
0.84133	-1
0.84500	-2
0.84867	-2
0.85233	-3
0.85600	-3
0.85967	-3
0.86333	-3
0.86700	-3
0.87067	-3
0.87433	-3
0.87800	-2
0.88167	-2
0.88533	-2
0.88900	-2
0.89267	-2
0.89633	-2
0.90000	-2
0.90367	-2
0.90733	-1
0.91100	-1
0.91467	-1
0.91833	-1
0.92200	-2
0.92567	-2
0.92933	-2
0.93300	-2
0.93667	-2
0.94033	-2
0.94400	-2
0.94767	-1
0.95133	-1
0.95500	-1
0.95867	-0
0.96233	-0
0.96600	0
0.96967	0
0.97333	0
0.97700	0
0.98067	0
0.98433	0
0.98800	0
0.99167	0
0.99533	0
0.99900	-0
1.00267	-0
1.00633	-0
1.01000	-1
1.01367	-1
1.01733	-1
1.02100	-1
1.02467	-2
1.02833	-2
1.03200	-2
1.03567	-2
1.03933	-2
1.04300	-1
1.04667	-2
1.05033	-2
1.05400	-2
1.05767	-2
1.06133	-2
1.06500	-2
1.06867	-2
1.07233	-2
1.07600	-2
1.07967	-2
1.08333	-2
1.08700	-2
1.09067	-2
1.09433	-2
1.09800	-2
1.10167	-2
1.10533	-2
1.10900	-1
1.11267	-1
1.11633	-0
1.12000	-0
1.12367	0
1.12733	0
1.13100	1
1.13467	1
1.13833	1
1.14200	1
1.14567	1
1.14933	1
1.15300	0
1.15667	0
1.16033	0
1.16400	1
1.16767	1
1.17133	1
1.17500	1
1.17867	2
1.18233	2
1.18600	2
1.18967	2
1.19333	2
1.19700	2
1.20067	2
1.20433	2
1.20800	2
1.21167	2
1.21533	1
1.21900	1
1.22267	0
1.22633	-0
1.23000	-0
1.23367	-0
1.23733	-0
1.24100	0
1.24467	0
1.24833	0
1.25200	0
1.25567	0
1.25933	0
1.26300	0
1.26667	-0
1.27033	-0
1.27400	-0
1.27767	-1
1.28133	-1
1.28500	-1
1.28867	-1
1.29233	-1
1.29600	-1
1.29967	-1
1.30333	-1
1.30700	-1
1.31067	-1
1.31433	-1
1.31800	-1
1.32167	-0
1.32533	-0
1.32900	-0
1.33267	-0
1.33633	-1
1.34000	-0
1.34367	-0
1.34733	0
1.35100	1
1.35467	1
1.35833	1
1.36200	1
1.36567	2
1.36933	2
1.37300	2
1.37667	2
1.38033	2
1.38400	2
1.38767	2
1.39133	2
1.39500	2
1.39867	2
1.40233	2
1.40600	2
1.40967	2
1.41333	2
1.41700	2
1.42067	1
1.42433	1
1.42800	0
1.43167	0
1.43533	-0
1.43900	-1
1.44267	-1
1.44633	-2
1.45000	-2
1.45367	-2
1.45733	-2
1.46100	-2
1.46467	-2
1.46833	-2
1.47200	-2
1.47567	-1
1.47933	-1
1.48300	-1
1.48667	-1
1.49033	-1
1.49400	-1
1.49767	-1
1.50133	-1
1.50500	-0
1.50867	-0
1.51233	-0
1.51600	0
1.51967	0
1.52333	0
1.52700	0
1.53067	0
1.53433	0
1.53800	-0
1.54167	-0
1.54533	-1
1.54900	-2
1.55267	-2
1.55633	-3
1.56000	-3
1.56367	-3
1.56733	-4
1.57100	-4
1.57467	-4
1.57833	-4
1.58200	-4
1.58567	-4
1.58933	-3
1.59300	-4
1.59667	-4
1.60033	-4
1.60400	-5
1.60767	-6
1.61133	-7
1.61500	-9
1.61867	-11
1.62233	-13
1.62600	-16
1.62967	-18
1.63333	-21
1.63700	-25
1.64067	-28
1.64433	-32
1.64800	-36
1.65167	-39
1.65533	-43
1.65900	-47
1.66267	-51
1.66633	-56
1.67000	-61
1.67367	-66
1.67733	-71
1.68100	-76
1.68467	-81
1.68833	-86
1.69200	-90
1.69567	-94
1.69933	-97
1.70300	-100
1.70667	-103
1.71033	-105
1.71400	-106
1.71767	-107
1.72133	-108
1.72500	-108
1.72867	-108
1.73233	-107
1.73600	-107
1.73967	-106
1.74333	-106
1.74700	-106
1.75067	-106
1.75433	-106
1.75800	-107
1.76167	-108
1.76533	-109
1.76900	-111
1.77267	-112
1.77633	-112
1.78000	-112
1.78367	-113
1.78733	-113
1.79100	-114
1.79467	-114
1.79833	-114
1.80200	-115
1.80567	-116
1.80933	-116
1.81300	-116
1.81667	-116
1.82033	-116
1.82400	-116
1.82767	-116
1.83133	-116
1.83500	-117
1.83867	-117
1.84233	-117
1.84600	-117
1.84967	-117
1.85333	-117
1.85700	-116
1.86067	-116
1.86433	-116
1.86800	-115
1.87167	-115
1.87533	-115
1.87900	-115
1.88267	-115
1.88633	-114
1.89000	-114
1.89367	-114
1.89733	-113
1.90100	-113
1.90467	-112
1.90833	-112
1.91200	-112
1.91567	-112
1.91933	-112
1.92300	-112
1.92667	-112
1.93033	-112
1.93400	-111
1.93767	-111
1.94133	-110
1.94500	-109
1.94867	-109
1.95233	-110
1.95600	-110
1.95967	-110
1.96333	-110
1.96700	-110
1.97067	-110
1.97433	-110
1.97800	-110
1.98167	-109
1.98533	-109
1.98900	-108
1.99267	-108
1.99633	-107
2.00000	-107
2.00367	-107
2.00733	-107
2.01100	-107
2.01467	-106
2.01833	-106
2.02200	-106
2.02567	-106
2.02933	-107
2.03300	-106
2.03667	-106
2.04033	-106
2.04400	-105
2.04767	-105
2.05133	-104
2.05500	-103
2.05867	-103
2.06233	-102
2.06600	-102
2.06967	-102
2.07333	-102
2.07700	-102
2.08067	-102
2.08433	-102
2.08800	-103
2.09167	-103
2.09533	-102
2.09900	-102
2.10267	-101
2.10633	-100
2.11000	-99
2.11367	-97
2.11733	-96
2.12100	-95
2.12467	-95
2.12833	-94
2.13200	-94
2.13567	-94
2.13933	-94
2.14300	-94
2.14667	-95
2.15033	-95
2.15400	-96
2.15767	-96
2.16133	-96
2.16500	-96
2.16867	-95
2.17233	-95
2.17600	-94
2.17967	-94
2.18333	-93
2.18700	-92
2.19067	-92
2.19433	-92
2.19800	-92
2.20167	-91
2.20533	-91
2.20900	-91
2.21267	-91
2.21633	-91
2.22000	-91
2.22367	-90
2.22733	-90
2.23100	-89
2.23467	-89
2.23833	-89
2.24200	-89
2.24567	-88
2.24933	-88
2.25300	-87
2.25667	-87
2.26033	-87
2.26400	-87
2.26767	-87
2.27133	-87
2.27500	-86
2.27867	-85
2.28233	-85
2.28600	-84
2.28967	-83
2.29333	-83
2.29700	-83
2.30067	-83
2.30433	-83
2.30800	-83
2.31167	-84
2.31533	-84
2.31900	-84
2.32267	-83
2.32633	-83
2.33000	-82
2.33367	-82
2.33733	-81
2.34100	-80
2.34467	-80
2.34833	-79
2.35200	-78
2.35567	-77
2.35933	-75
2.36300	-74
2.36667	-72
2.37033	-70
2.37400	-68
2.37767	-65
2.38133	-62
2.38500	-59
2.38867	-55
2.39233	-51
2.39600	-47
2.39967	-43
2.40333	-39
2.40700	-35
2.41067	-31
2.41433	-28
2.41800	-25
2.42167	-22
2.42533	-20
2.42900	-17
2.43267	-16
2.43633	-14
2.44000	-13
2.44367	-12
2.44733	-11
2.45100	-10
2.45467	-8
2.45833	-7
2.46200	-5
2.46567	-4
2.46933	-2
2.47300	-1
2.47667	0
2.48033	1
2.48400	2
2.48767	3
2.49133	4
2.49500	5
2.49867	6
2.50233	7
2.50600	7
2.50967	8
2.51333	9
2.51700	9
2.52067	9
2.52433	10
2.52800	11
2.53167	11
2.53533	12
2.53900	13
2.54267	14
2.54633	14
2.55000	13
2.55367	13
2.55733	13
2.56100	12
2.56467	12
2.56833	12
2.57200	12
2.57567	13
2.57933	13
2.58300	14
2.58667	15
2.59033	15
2.59400	16
2.59767	17
2.60133	17
2.60500	18
2.60867	19
2.61233	19
2.61600	19
2.61967	19
2.62333	19
2.62700	18
2.63067	18
2.63433	18
2.63800	18
2.64167	18
2.64533	19
2.64900	19
2.65267	20
2.65633	20
2.66000	20
2.66367	21
2.66733	21
2.67100	21
2.67467	21
2.67833	21
2.68200	21
2.68567	21
2.68933	21
2.69300	21
2.69667	21
2.70033	21
2.70400	21
2.70767	22
2.71133	22
2.71500	23
2.71867	23
2.72233	24
2.72600	25
2.72967	26
2.73333	26
2.73700	27
2.74067	27
2.74433	27
2.74800	27
2.75167	27
2.75533	26
2.75900	26
2.76267	26
2.76633	26
2.77000	26
2.77367	26
2.77733	25
2.78100	25
2.78467	24
2.78833	24
2.79200	24
2.79567	24
2.79933	24
2.80300	24
2.80667	24
2.81033	25
2.81400	25
2.81767	26
2.82133	26
2.82500	26
2.82867	27
2.83233	27
2.83600	26
2.83967	25
2.84333	22
2.84700	17
2.85067	10
2.85433	0
2.85800	-13
2.86167	-30
2.86533	-51
2.86900	-77
2.87267	-107
2.87633	-140
2.88000	-178
2.88367	-219
2.88733	-264
2.89100	-312
2.89467	-361
2.89833	-413
2.90200	-466
2.90567	-520
2.90933	-575
2.91300	-629
2.91667	-683
2.92033	-737
2.92400	-789
2.92767	-840
2.93133	-893
2.93500	-951
2.93867	-1011
2.94233	-1063
2.94600	-1097
2.94967	-1106
2.95333	-1088
2.95700	-1048
2.96067	-989
2.96433	-917
2.96800	-839
2.97167	-758
2.97533	-678
2.97900	-601
2.98267	-528
2.98633	-462
2.99000	-401
2.99367	-347
2.99733	-299
3.00100	-256
3.00467	-219
3.00833	-186
3.01200	-157
3.01567	-133
3.01933	-111
3.02300	-93
3.02667	-78
3.03033	-64
3.03400	-53
3.03767	-43
3.04133	-35
3.04500	-28
3.04867	-22
3.05233	-17
3.05600	-12
3.05967	-9
3.06333	-5
3.06700	-3
3.07067	-0
3.07433	2
3.07800	4
3.08167	5
3.08533	6
3.08900	7
3.09267	8
3.09633	9
3.10000	10
3.10367	11
3.10733	12
3.11100	13
3.11467	14
3.11833	14
3.12200	15
3.12567	16
3.12933	16
3.13300	17
3.13667	17
3.14033	17
3.14400	18
3.14767	18
3.15133	19
3.15500	19
3.15867	19
3.16233	20
3.16600	21
3.16967	21
3.17333	21
3.17700	22
3.18067	22
3.18433	22
3.18800	22
3.19167	22
3.19533	23
3.19900	23
3.20267	23
3.20633	22
3.21000	22
3.21367	22
3.21733	22
3.22100	22
3.22467	22
3.22833	22
3.23200	22
3.23567	22
3.23933	22
3.24300	22
3.24667	22
3.25033	22
3.25400	23
3.25767	23
3.26133	23
3.26500	24
3.26867	24
3.27233	25
3.27600	25
3.27967	25
3.28333	26
3.28700	26
3.29067	26
3.29433	26
3.29800	26
3.30167	26
3.30533	27
3.30900	27
3.31267	27
3.31633	27
3.32000	27
3.32367	27
3.32733	27
3.33100	28
3.33467	28
3.33833	29
3.34200	29
3.34567	29
3.34933	30
3.35300	30
3.35667	30
3.36033	30
3.36400	31
3.36767	31
3.37133	31
3.37500	31
3.37867	31
3.38233	31
3.38600	31
3.38967	30
3.39333	30
3.39700	30
3.40067	30
3.40433	29
3.40800	29
3.41167	29
3.41533	29
3.41900	29
3.42267	28
3.42633	29
3.43000	29
3.43367	29
3.43733	29
3.44100	29
3.44467	29
3.44833	29
3.45200	29
3.45567	29
3.45933	29
3.46300	29
3.46667	29
3.47033	28
3.47400	28
3.47767	28
3.48133	28
3.48500	28
3.48867	28
3.49233	28
3.49600	28
3.49967	29
3.50333	29
3.50700	29
3.51067	29
3.51433	29
3.51800	29
3.52167	28
3.52533	28
3.52900	28
3.53267	28
3.53633	28
3.54000	28
3.54367	28
3.54733	28
3.55100	28
3.55467	28
3.55833	28
3.56200	29
3.56567	29
3.56933	29
3.57300	29
3.57667	29
3.58033	29
3.58400	29
3.58767	29
3.59133	29
3.59500	29
3.59867	29
3.60233	28
3.60600	28
3.60967	28
3.61333	28
3.61700	28
3.62067	27
3.62433	27
3.62800	27
3.63167	27
3.63533	27
3.63900	26
3.64267	26
3.64633	26
3.65000	26
3.65367	26
3.65733	26
3.66100	26
3.66467	26
3.66833	26
3.67200	26
3.67567	26
3.67933	26
3.68300	26
3.68667	26
3.69033	26
3.69400	26
3.69767	26
3.70133	25
3.70500	25
3.70867	25
3.71233	25
3.71600	25
3.71967	26
3.72333	26
3.72700	26
3.73067	26
3.73433	27
3.73800	27
3.74167	27
3.74533	27
3.74900	27
3.75267	27
3.75633	26
3.76000	26
3.76367	27
3.76733	27
3.77100	27
3.77467	27
3.77833	27
3.78200	27
3.78567	26
3.78933	26
3.79300	26
3.79667	26
3.80033	26
3.80400	26
3.80767	27
3.81133	26
3.81500	26
3.81867	27
3.82233	26
3.82600	26
3.82967	26
3.83333	26
3.83700	26
3.84067	26
3.84433	26
3.84800	26
3.85167	26
3.85533	26
3.85900	26
3.86267	26
3.86633	26
3.87000	27
3.87367	27
3.87733	27
3.88100	27
3.88467	27
3.88833	27
3.89200	27
3.89567	26
3.89933	26
3.90300	26
3.90667	26
3.91033	26
3.91400	25
3.91767	25
3.92133	26
3.92500	26
3.92867	26
3.93233	26
3.93600	26
3.93967	26
3.94333	26
3.94700	26
3.95067	26
3.95433	27
3.95800	27
3.96167	27
3.96533	26
3.96900	26
3.97267	26
3.97633	26
3.98000	26
3.98367	27
3.98733	27
3.99100	27
3.99467	27
3.99833	27

[Chromatogram (Ch3)]
Interval(msec)	220
# of Points	1091
Start Time(min)	0.002
End Time(min)	3.998
R.Time (min)	Intensity
0.00167	-0
0.00533	-1
0.00900	-1
0.01267	-2
0.01633	-2
0.02000	-2
0.02367	-2
0.02733	-1
0.03100	0
0.03467	-0
0.03833	3
0.04200	3
0.04567	4
0.04933	5
0.05300	6
0.05667	7
0.06033	6
0.06400	4
0.06767	2
0.07133	1
0.07500	2
0.07867	4
0.08233	5
0.08600	5
0.08967	5
0.09333	7
0.09700	9
0.10067	9
0.10433	9
0.10800	8
0.11167	7
0.11533	5
0.11900	6
0.12267	5
0.12633	3
0.13000	1
0.13367	1
0.13733	2
0.14100	2
0.14467	2
0.14833	1
0.15200	-1
0.15567	-2
0.15933	1
0.16300	2
0.16667	3
0.17033	3
0.17400	5
0.17767	6
0.18133	7
0.18500	6
0.18867	4
0.19233	2
0.19600	3
0.19967	5
0.20333	6
0.20700	8
0.21067	8
0.21433	8
0.21800	7
0.22167	6
0.22533	4
0.22900	2
0.23267	3
0.23633	6
0.24000	9
0.24367	10
0.24733	9
0.25100	8
0.25467	7
0.25833	7
0.26200	8
0.26567	10
0.26933	11
0.27300	11
0.27667	11
0.28033	11
0.28400	11
0.28767	11
0.29133	9
0.29500	7
0.29867	8
0.30233	10
0.30600	10
0.30967	8
0.31333	8
0.31700	7
0.32067	4
0.32433	2
0.32800	1
0.33167	0
0.33533	3
0.33900	8
0.34267	11
0.34633	13
0.35000	13
0.35367	13
0.35733	13
0.36100	14
0.36467	13
0.36833	11
0.37200	10
0.37567	7
0.37933	6
0.38300	8
0.38667	7
0.39033	6
0.39400	5
0.39767	3
0.40133	7
0.40500	9
0.40867	9
0.41233	8
0.41600	7
0.41967	10
0.42333	12
0.42700	15
0.43067	15
0.43433	13
0.43800	11
0.44167	9
0.44533	8
0.44900	10
0.45267	13
0.45633	12
0.46000	12
0.46367	11
0.46733	9
0.47100	6
0.47467	5
0.47833	5
0.48200	5
0.48567	8
0.48933	8
0.49300	9
0.49667	9
0.50033	12
0.50400	14
0.50767	16
0.51133	17
0.51500	14
0.51867	11
0.52233	8
0.52600	6
0.52967	6
0.53333	6
0.53700	4
0.54067	5
0.54433	7
0.54800	7
0.55167	8
0.55533	7
0.55900	6
0.56267	7
0.56633	7
0.57000	7
0.57367	7
0.57733	7
0.58100	7
0.58467	6
0.58833	7
0.59200	6
0.59567	6
0.59933	5
0.60300	6
0.60667	6
0.61033	6
0.61400	6
0.61767	6
0.62133	8
0.62500	10
0.62867	10
0.63233	8
0.63600	6
0.63967	5
0.64333	4
0.64700	4
0.65067	4
0.65433	5
0.65800	8
0.66167	10
0.66533	11
0.66900	9
0.67267	7
0.67633	7
0.68000	9
0.68367	11
0.68733	12
0.69100	12
0.69467	13
0.69833	12
0.70200	11
0.70567	9
0.70933	7
0.71300	7
0.71667	9
0.72033	9
0.72400	11
0.72767	14
0.73133	15
0.73500	13
0.73867	12
0.74233	10
0.74600	11
0.74967	12
0.75333	15
0.75700	15
0.76067	12
0.76433	8
0.76800	6
0.77167	5
0.77533	5
0.77900	6
0.78267	5
0.78633	5
0.79000	8
0.79367	9
0.79733	9
0.80100	11
0.80467	11
0.80833	9
0.81200	8
0.81567	8
0.81933	10
0.82300	10
0.82667	8
0.83033	7
0.83400	7
0.83767	7
0.84133	7
0.84500	7
0.84867	8
0.85233	9
0.85600	10
0.85967	9
0.86333	10
0.86700	11
0.87067	11
0.87433	13
0.87800	15
0.88167	16
0.88533	16
0.88900	15
0.89267	15
0.89633	15
0.90000	15
0.90367	14
0.90733	13
0.91100	11
0.91467	9
0.91833	8
0.92200	8
0.92567	9
0.92933	10
0.93300	11
0.93667	12
0.94033	13
0.94400	13
0.94767	12
0.95133	14
0.95500	12
0.95867	11
0.96233	9
0.96600	8
0.96967	10
0.97333	12
0.97700	12
0.98067	10
0.98433	9
0.98800	11
0.99167	11
0.99533	10
0.99900	10
1.00267	11
1.00633	11
1.01000	12
1.01367	15
1.01733	15
1.02100	13
1.02467	11
1.02833	12
1.03200	13
1.03567	12
1.03933	11
1.04300	11
1.04667	11
1.05033	13
1.05400	16
1.05767	17
1.06133	17
1.06500	16
1.06867	15
1.07233	14
1.07600	14
1.07967	13
1.08333	12
1.08700	13
1.09067	14
1.09433	16
1.09800	18
1.10167	18
1.10533	17
1.10900	15
1.11267	11
1.11633	10
1.12000	12
1.12367	14
1.12733	14
1.13100	14
1.13467	14
1.13833	16
1.14200	16
1.14567	15
1.14933	14
1.15300	14
1.15667	15
1.16033	17
1.16400	17
1.16767	18
1.17133	20
1.17500	18
1.17867	14
1.18233	15
1.18600	16
1.18967	17
1.19333	18
1.19700	21
1.20067	21
1.20433	21
1.20800	20
1.21167	18
1.21533	18
1.21900	20
1.22267	21
1.22633	21
1.23000	20
1.23367	20
1.23733	20
1.24100	17
1.24467	18
1.24833	19
1.25200	20
1.25567	19
1.25933	20
1.26300	20
1.26667	21
1.27033	20
1.27400	19
1.27767	17
1.28133	17
1.28500	18
1.28867	20
1.29233	20
1.29600	21
1.29967	21
1.30333	22
1.30700	24
1.31067	23
1.31433	22
1.31800	23
1.32167	24
1.32533	24
1.32900	24
1.33267	25
1.33633	24
1.34000	24
1.34367	24
1.34733	23
1.35100	23
1.35467	24
1.35833	24
1.36200	26
1.36567	26
1.36933	23
1.37300	23
1.37667	23
1.38033	23
1.38400	23
1.38767	26
1.39133	27
1.39500	26
1.39867	25
1.40233	23
1.40600	21
1.40967	19
1.41333	19
1.41700	19
1.42067	23
1.42433	27
1.42800	29
1.43167	28
1.43533	25
1.43900	25
1.44267	27
1.44633	26
1.45000	23
1.45367	21
1.45733	19
1.46100	18
1.46467	17
1.46833	17
1.47200	20
1.47567	20
1.47933	20
1.48300	20
1.48667	18
1.49033	16
1.49400	16
1.49767	16
1.50133	16
1.50500	14
1.50867	13
1.51233	15
1.51600	17
1.51967	21
1.52333	25
1.52700	25
1.53067	24
1.53433	21
1.53800	19
1.54167	22
1.54533	23
1.54900	22
1.55267	21
1.55633	23
1.56000	23
1.56367	22
1.56733	22
1.57100	21
1.57467	22
1.57833	21
1.58200	20
1.58567	22
1.58933	22
1.59300	21
1.59667	21
1.60033	19
1.60400	18
1.60767	19
1.61133	22
1.61500	24
1.61867	23
1.62233	22
1.62600	20
1.62967	20
1.63333	23
1.63700	26
1.64067	27
1.64433	27
1.64800	26
1.65167	25
1.65533	25
1.65900	26
1.66267	25
1.66633	26
1.67000	28
1.67367	29
1.67733	30
1.68100	29
1.68467	29
1.68833	28
1.69200	29
1.69567	30
1.69933	32
1.70300	33
1.70667	33
1.71033	29
1.71400	28
1.71767	29
1.72133	29
1.72500	30
1.72867	31
1.73233	30
1.73600	29
1.73967	30
1.74333	31
1.74700	32
1.75067	34
1.75433	34
1.75800	36
1.76167	36
1.76533	37
1.76900	38
1.77267	37
1.77633	37
1.78000	37
1.78367	36
1.78733	36
1.79100	35
1.79467	37
1.79833	40
1.80200	42
1.80567	42
1.80933	43
1.81300	42
1.81667	42
1.82033	41
1.82400	42
1.82767	43
1.83133	44
1.83500	45
1.83867	48
1.84233	49
1.84600	46
1.84967	45
1.85333	44
1.85700	44
1.86067	45
1.86433	47
1.86800	49
1.87167	49
1.87533	48
1.87900	48
1.88267	49
1.88633	49
1.89000	47
1.89367	44
1.89733	45
1.90100	46
1.90467	46
1.90833	46
1.91200	47
1.91567	49
1.91933	52
1.92300	53
1.92667	53
1.93033	54
1.93400	54
1.93767	53
1.94133	54
1.94500	55
1.94867	54
1.95233	54
1.95600	55
1.95967	58
1.96333	58
1.96700	59
1.97067	61
1.97433	62
1.97800	62
1.98167	62
1.98533	62
1.98900	63
1.99267	62
1.99633	64
2.00000	65
2.00367	66
2.00733	70
2.01100	74
2.01467	78
2.01833	80
2.02200	79
2.02567	78
2.02933	78
2.03300	77
2.03667	78
2.04033	79
2.04400	81
2.04767	82
2.05133	83
2.05500	85
2.05867	89
2.06233	89
2.06600	88
2.06967	89
2.07333	90
2.07700	90
2.08067	90
2.08433	89
2.08800	88
2.09167	87
2.09533	86
2.09900	88
2.10267	91
2.10633	94
2.11000	99
2.11367	101
2.11733	99
2.12100	97
2.12467	97
2.12833	99
2.13200	101
2.13567	100
2.13933	101
2.14300	100
2.14667	100
2.15033	102
2.15400	104
2.15767	105
2.16133	107
2.16500	108
2.16867	109
2.17233	109
2.17600	109
2.17967	110
2.18333	112
2.18700	115
2.19067	118
2.19433	122
2.19800	125
2.20167	126
2.20533	128
2.20900	129
2.21267	128
2.21633	130
2.22000	130
2.22367	130
2.22733	129
2.23100	131
2.23467	134
2.23833	135
2.24200	135
2.24567	136
2.24933	138
2.25300	141
2.25667	144
2.26033	145
2.26400	148
2.26767	151
2.27133	152
2.27500	154
2.27867	157
2.28233	157
2.28600	157
2.28967	156
2.29333	155
2.29700	155
2.30067	158
2.30433	161
2.30800	162
2.31167	166
2.31533	168
2.31900	169
2.32267	169
2.32633	169
2.33000	171
2.33367	172
2.33733	175
2.34100	178
2.34467	180
2.34833	181
2.35200	182
2.35567	184
2.35933	187
2.36300	189
2.36667	192
2.37033	196
2.37400	200
2.37767	201
2.38133	202
2.38500	203
2.38867	203
2.39233	204
2.39600	206
2.39967	210
2.40333	216
2.40700	220
2.41067	224
2.41433	226
2.41800	227
2.42167	225
2.42533	226
2.42900	227
2.43267	228
2.43633	229
2.44000	235
2.44367	275
2.44733	376
2.45100	485
2.45467	573
2.45833	625
2.46200	630
2.46567	603
2.46933	570
2.47300	546
2.47667	534
2.48033	526
2.48400	515
2.48767	495
2.49133	465
2.49500	433
2.49867	405
2.50233	382
2.50600	366
2.50967	354
2.51333	350
2.51700	352
2.52067	357
2.52433	367
2.52800	383
2.53167	400
2.53533	414
2.53900	421
2.54267	416
2.54633	409
2.55000	394
2.55367	373
2.55733	356
2.56100	341
2.56467	327
2.56833	316
2.57200	309
2.57567	302
2.57933	298
2.58300	293
2.58667	289
2.59033	287
2.59400	285
2.59767	281
2.60133	271
2.60500	259
2.60867	244
2.61233	224
2.61600	203
2.61967	183
2.62333	167
2.62700	152
2.63067	142
2.63433	137
2.63800	134
2.64167	135
2.64533	139
2.64900	146
2.65267	157
2.65633	168
2.66000	177
2.66367	186
2.66733	194
2.67100	200
2.67467	204
2.67833	207
2.68200	207
2.68567	205
2.68933	202
2.69300	198
2.69667	193
2.70033	189
2.70400	185
2.70767	181
2.71133	179
2.71500	177
2.71867	174
2.72233	176
2.72600	177
2.72967	176
2.73333	174
2.73700	171
2.74067	171
2.74433	174
2.74800	178
2.75167	181
2.75533	183
2.75900	184
2.76267	186
2.76633	186
2.77000	187
2.77367	187
2.77733	189
2.78100	193
2.78467	197
2.78833	199
2.79200	199
2.79567	196
2.79933	196
2.80300	196
2.80667	197
2.81033	199
2.81400	202
2.81767	207
2.82133	221
2.82500	255
2.82867	322
2.83233	445
2.83600	647
2.83967	943
2.84333	1341
2.84700	1835
2.85067	2399
2.85433	2994
2.85800	3578
2.86167	4097
2.86533	4512
2.86900	4794
2.87267	4931
2.87633	4929
2.88000	4805
2.88367	4589
2.88733	4306
2.89100	3982
2.89467	3636
2.89833	3290
2.90200	2954
2.90567	2639
2.90933	2351
2.91300	2088
2.91667	1854
2.92033	1645
2.92400	1459
2.92767	1295
2.93133	1154
2.93500	1030
2.93867	919
2.94233	823
2.94600	743
2.94967	674
2.95333	613
2.95700	560
2.96067	514
2.96433	472
2.96800	438
2.97167	410
2.97533	382
2.97900	358
2.98267	339
2.98633	324
2.99000	311
2.99367	298
2.99733	284
3.00100	272
3.00467	262
3.00833	252
3.01200	243
3.01567	236
3.01933	232
3.02300	227
3.02667	219
3.03033	213
3.03400	208
3.03767	206
3.04133	201
3.04500	195
3.04867	190
3.05233	186
3.05600	183
3.05967	179
3.06333	177
3.06700	174
3.07067	172
3.07433	169
3.07800	166
3.08167	164
3.08533	164
3.08900	166
3.09267	165
3.09633	163
3.10000	161
3.10367	159
3.10733	157
3.11100	157
3.11467	155
3.11833	151
3.12200	148
3.12567	146
3.12933	147
3.13300	148
3.13667	150
3.14033	151
3.14400	152
3.14767	150
3.15133	147
3.15500	145
3.15867	145
3.16233	145
3.16600	144
3.16967	144
3.17333	147
3.17700	149
3.18067	152
3.18433	153
3.18800	155
3.19167	157
3.19533	158
3.19900	160
3.20267	161
3.20633	161
3.21000	162
3.21367	160
3.21733	144
3.22100	117
3.22467	92
3.22833	74
3.23200	67
3.23567	77
3.23933	99
3.24300	132
3.24667	174
3.25033	219
3.25400	264
3.25767	311
3.26133	355
3.26500	398
3.26867	435
3.27233	466
3.27600	491
3.27967	513
3.28333	532
3.28700	549
3.29067	562
3.29433	574
3.29800	583
3.30167	589
3.30533	595
3.30900	600
3.31267	607
3.31633	614
3.32000	618
3.32367	620
3.32733	623
3.33100	629
3.33467	634
3.33833	638
3.34200	641
3.34567	644
3.34933	644
3.35300	645
3.35667	648
3.36033	651
3.36400	654
3.36767	656
3.37133	659
3.37500	661
3.37867	665
3.38233	670
3.38600	674
3.38967	677
3.39333	679
3.39700	685
3.40067	690
3.40433	690
3.40800	690
3.41167	692
3.41533	695
3.41900	697
3.42267	699
3.42633	701
3.43000	704
3.43367	706
3.43733	706
3.44100	704
3.44467	703
3.44833	705
3.45200	706
3.45567	705
3.45933	703
3.46300	700
3.46667	698
3.47033	694
3.47400	693
3.47767	689
3.48133	685
3.48500	681
3.48867	681
3.49233	682
3.49600	681
3.49967	677
3.50333	672
3.50700	668
3.51067	666
3.51433	664
3.51800	663
3.52167	663
3.52533	662
3.52900	660
3.53267	657
3.53633	654
3.54000	651
3.54367	649
3.54733	647
3.55100	645
3.55467	642
3.55833	640
3.56200	635
3.56567	630
3.56933	626
3.57300	623
3.57667	623
3.58033	624
3.58400	625
3.58767	625
3.59133	624
3.59500	620
3.59867	616
3.60233	613
3.60600	612
3.60967	609
3.61333	607
3.61700	605
3.62067	603
3.62433	599
3.62800	596
3.63167	594
3.63533	591
3.63900	589
3.64267	588
3.64633	586
3.65000	585
3.65367	585
3.65733	586
3.66100	584
3.66467	583
3.66833	583
3.67200	580
3.67567	578
3.67933	577
3.68300	577
3.68667	579
3.69033	580
3.69400	578
3.69767	577
3.70133	576
3.70500	576
3.70867	574
3.71233	572
3.71600	573
3.71967	574
3.72333	575
3.72700	576
3.73067	577
3.73433	577
3.73800	576
3.74167	574
3.74533	570
3.74900	570
3.75267	572
3.75633	571
3.76000	570
3.76367	572
3.76733	572
3.77100	572
3.77467	572
3.77833	572
3.78200	572
3.78567	571
3.78933	570
3.79300	571
3.79667	571
3.80033	572
3.80400	572
3.80767	573
3.81133	573
3.81500	569
3.81867	568
3.82233	568
3.82600	567
3.82967	564
3.83333	560
3.83700	558
3.84067	555
3.84433	556
3.84800	557
3.85167	558
3.85533	558
3.85900	558
3.86267	559
3.86633	557
3.87000	554
3.87367	554
3.87733	555
3.88100	553
3.88467	552
3.88833	550
3.89200	549
3.89567	548
3.89933	551
3.90300	551
3.90667	550
3.91033	549
3.91400	549
3.91767	548
3.92133	548
3.92500	548
3.92867	547
3.93233	546
3.93600	547
3.93967	545
3.94333	542
3.94700	540
3.95067	537
3.95433	534
3.95800	533
3.96167	532
3.96533	533
3.96900	535
3.97267	534
3.97633	533
3.98000	531
3.98367	529
3.98733	527
3.99100	527
3.99467	528
3.99833	527

[Status Trace (Column Oven Temperature)]
Interval(msec)	1000
# of Points	240
Start Time(min)	0.011
End Time(min)	3.994
Intensity Units	
Intensity Multiplier	1
R.Time (min)	Intensity
0.01078	35.01
0.02745	35.01
0.04412	35.03
0.06078	35.03
0.07745	35.04
0.09412	35.04
0.11078	35.03
0.12745	35.04
0.14412	35.05
0.16078	35.06
0.17745	35.07
0.19412	35.06
0.21078	35.04
0.22745	35.04
0.24412	35.05
0.26078	35.06
0.27745	35.07
0.29412	35.06
0.31078	35.07
0.32745	35.07
0.34412	35.06
0.36078	35.06
0.37745	35.04
0.39412	35.03
0.41078	35.01
0.42745	35.01
0.44412	35.01
0.46078	35.01
0.47745	35.02
0.49412	35.00
0.51078	35.00
0.52745	34.99
0.54412	34.99
0.56078	34.99
0.57745	34.98
0.59412	34.99
0.61078	34.98
0.62745	34.99
0.64412	34.99
0.66078	34.99
0.67745	34.98
0.69412	34.98
0.71078	34.98
0.72745	34.99
0.74412	34.99
0.76078	34.99
0.77745	34.99
0.79412	34.98
0.81078	34.98
0.82745	34.98
0.84412	34.99
0.86078	35.00
0.87745	35.00
0.89412	35.00
0.91078	35.00
0.92745	35.00
0.94412	35.00
0.96078	35.00
0.97745	35.00
0.99412	35.00
1.01078	35.01
1.02745	35.01
1.04412	35.02
1.06078	35.03
1.07745	35.03
1.09412	35.04
1.11078	35.04
1.12745	35.03
1.14412	35.03
1.16078	35.03
1.17745	35.02
1.19412	35.00
1.21078	35.00
1.22745	35.01
1.24412	35.00
1.26078	35.00
1.27745	34.99
1.29412	35.00
1.31078	35.00
1.32745	35.00
1.34412	35.00
1.36078	34.99
1.37745	34.99
1.39412	34.98
1.41078	34.97
1.42745	34.98
1.44412	34.99
1.46078	34.99
1.47745	34.99
1.49412	34.99
1.51078	34.99
1.52745	35.00
1.54412	35.01
1.56078	35.02
1.57745	35.03
1.59412	35.03
1.61078	35.09
1.62745	35.21
1.64412	35.41
1.66078	35.67
1.67745	36.04
1.69412	36.42
1.71078	36.76
1.72745	37.08
1.74412	37.39
1.76078	37.72
1.77745	38.05
1.79412	38.39
1.81078	38.73
1.82745	39.05
1.84412	39.40
1.86078	39.72
1.87745	40.05
1.89412	40.37
1.91078	40.71
1.92745	41.02
1.94412	41.33
1.96078	41.67
1.97745	41.99
1.99412	42.31
2.01078	42.63
2.02745	42.97
2.04412	43.29
2.06078	43.60
2.07745	43.94
2.09412	44.29
2.11078	44.58
2.12745	44.89
2.14412	45.22
2.16078	45.56
2.17745	45.89
2.19412	46.22
2.21078	46.56
2.22745	46.89
2.24412	47.21
2.26078	47.55
2.27745	47.89
2.29412	48.21
2.31078	48.55
2.32745	48.88
2.34412	49.19
2.36078	49.47
2.37745	49.63
2.39412	49.69
2.41078	49.69
2.42745	49.68
2.44412	49.70
2.46078	49.71
2.47745	49.72
2.49412	49.73
2.51078	49.75
2.52745	49.75
2.54412	49.79
2.56078	49.82
2.57745	49.82
2.59412	49.81
2.61078	49.81
2.62745	49.83
2.64412	49.83
2.66078	49.84
2.67745	49.85
2.69412	49.87
2.71078	49.86
2.72745	49.84
2.74412	49.85
2.76078	49.86
2.77745	49.87
2.79412	49.89
2.81078	49.88
2.82745	49.88
2.84412	49.88
2.86078	49.89
2.87745	49.89
2.89412	49.91
2.91078	49.93
2.92745	49.95
2.94412	49.97
2.96078	49.97
2.97745	49.98
2.99412	49.98
3.01078	49.99
3.02745	49.99
3.04412	50.01
3.06078	50.03
3.07745	50.04
3.09412	50.06
3.11078	50.07
3.12745	50.07
3.14412	50.07
3.16078	50.06
3.17745	50.07
3.19412	50.08
3.21078	50.09
3.22745	50.10
3.24412	50.12
3.26078	50.11
3.27745	50.11
3.29412	50.11
3.31078	50.10
3.32745	50.08
3.34412	50.06
3.36078	50.04
3.37745	50.02
3.39412	50.01
3.41078	50.01
3.42745	49.99
3.44412	49.99
3.46078	49.99
3.47745	49.99
3.49412	49.98
3.51078	49.99
3.52745	49.99
3.54412	49.98
3.56078	49.98
3.57745	49.97
3.59412	49.97
3.61078	49.98
3.62745	49.99
3.64412	50.00
3.66078	50.00
3.67745	50.01
3.69412	50.02
3.71078	50.03
3.72745	50.03
3.74412	50.03
3.76078	50.03
3.77745	50.03
3.79412	50.04
3.81078	50.04
3.82745	50.04
3.84412	50.05
3.86078	50.05
3.87745	50.04
3.89412	50.05
3.91078	50.07
3.92745	50.07
3.94412	50.06
3.96078	50.07
3.97745	50.08
3.99412	50.08

[Status Trace (Injection Unit Temperature)]
Interval(msec)	1000
# of Points	240
Start Time(min)	0.011
End Time(min)	3.994
Intensity Units	
Intensity Multiplier	1
R.Time (min)	Intensity
0.01078	99.98
0.02745	99.98
0.04412	99.98
0.06078	99.98
0.07745	99.98
0.09412	99.98
0.11078	99.98
0.12745	99.98
0.14412	99.97
0.16078	99.98
0.17745	99.98
0.19412	99.98
0.21078	99.98
0.22745	99.97
0.24412	99.98
0.26078	99.98
0.27745	99.98
0.29412	99.98
0.31078	99.98
0.32745	99.98
0.34412	99.98
0.36078	99.98
0.37745	99.98
0.39412	99.98
0.41078	99.98
0.42745	99.98
0.44412	99.98
0.46078	99.98
0.47745	99.98
0.49412	99.98
0.51078	99.98
0.52745	99.98
0.54412	99.98
0.56078	99.97
0.57745	99.98
0.59412	99.98
0.61078	99.98
0.62745	99.98
0.64412	99.98
0.66078	99.97
0.67745	99.98
0.69412	99.98
0.71078	99.98
0.72745	99.98
0.74412	99.97
0.76078	99.98
0.77745	99.97
0.79412	99.98
0.81078	99.98
0.82745	99.97
0.84412	99.98
0.86078	99.98
0.87745	99.98
0.89412	99.98
0.91078	99.98
0.92745	99.98
0.94412	99.97
0.96078	99.98
0.97745	99.98
0.99412	99.98
1.01078	99.98
1.02745	99.98
1.04412	99.98
1.06078	99.98
1.07745	99.98
1.09412	99.98
1.11078	99.98
1.12745	99.98
1.14412	99.98
1.16078	99.98
1.17745	99.97
1.19412	99.98
1.21078	99.98
1.22745	99.98
1.24412	99.98
1.26078	99.97
1.27745	99.98
1.29412	99.98
1.31078	99.98
1.32745	99.98
1.34412	99.98
1.36078	99.98
1.37745	99.98
1.39412	99.98
1.41078	99.98
1.42745	99.98
1.44412	99.98
1.46078	99.98
1.47745	99.99
1.49412	99.98
1.51078	99.99
1.52745	99.99
1.54412	99.98
1.56078	99.98
1.57745	99.98
1.59412	99.98
1.61078	99.98
1.62745	99.98
1.64412	99.98
1.66078	99.98
1.67745	99.98
1.69412	99.98
1.71078	99.98
1.72745	99.98
1.74412	99.98
1.76078	99.99
1.77745	99.98
1.79412	99.98
1.81078	99.98
1.82745	99.98
1.84412	99.98
1.86078	99.98
1.87745	99.98
1.89412	99.98
1.91078	99.98
1.92745	99.98
1.94412	99.98
1.96078	99.98
1.97745	99.98
1.99412	99.97
2.01078	99.97
2.02745	99.97
2.04412	99.97
2.06078	99.97
2.07745	99.97
2.09412	99.97
2.11078	99.97
2.12745	99.97
2.14412	99.97
2.16078	99.97
2.17745	99.97
2.19412	99.97
2.21078	99.97
2.22745	99.97
2.24412	99.97
2.26078	99.96
2.27745	99.97
2.29412	99.96
2.31078	99.97
2.32745	99.96
2.34412	99.97
2.36078	99.97
2.37745	99.97
2.39412	99.96
2.41078	99.97
2.42745	99.97
2.44412	99.97
2.46078	99.97
2.47745	99.97
2.49412	99.97
2.51078	99.97
2.52745	99.97
2.54412	99.97
2.56078	99.97
2.57745	99.97
2.59412	99.97
2.61078	99.98
2.62745	99.98
2.64412	99.98
2.66078	99.98
2.67745	99.98
2.69412	99.98
2.71078	99.98
2.72745	99.99
2.74412	99.99
2.76078	99.99
2.77745	99.99
2.79412	99.99
2.81078	100.00
2.82745	99.99
2.84412	100.00
2.86078	100.00
2.87745	100.00
2.89412	100.00
2.91078	100.00
2.92745	100.01
2.94412	100.01
2.96078	100.01
2.97745	100.01
2.99412	100.01
3.01078	100.01
3.02745	100.02
3.04412	100.02
3.06078	100.02
3.07745	100.02
3.09412	100.03
3.11078	100.02
3.12745	100.02
3.14412	100.03
3.16078	100.02
3.17745	100.02
3.19412	100.02
3.21078	100.03
3.22745	100.03
3.24412	100.03
3.26078	100.03
3.27745	100.03
3.29412	100.03
3.31078	100.03
3.32745	100.03
3.34412	100.03
3.36078	100.04
3.37745	100.04
3.39412	100.03
3.41078	100.03
3.42745	100.04
3.44412	100.04
3.46078	100.03
3.47745	100.04
3.49412	100.04
3.51078	100.04
3.52745	100.04
3.54412	100.04
3.56078	100.04
3.57745	100.04
3.59412	100.05
3.61078	100.04
3.62745	100.04
3.64412	100.05
3.66078	100.05
3.67745	100.04
3.69412	100.05
3.71078	100.05
3.72745	100.05
3.74412	100.04
3.76078	100.05
3.77745	100.05
3.79412	100.04
3.81078	100.04
3.82745	100.05
3.84412	100.05
3.86078	100.05
3.87745	100.05
3.89412	100.05
3.91078	100.05
3.92745	100.05
3.94412	100.05
3.96078	100.05
3.97745	100.05
3.99412	100.04

[Status Trace (Carrier Gas Pressure)]
Interval(msec)	1000
# of Points	240
Start Time(min)	0.011
End Time(min)	3.994
Intensity Units	
Intensity Multiplier	1
R.Time (min)	Intensity
0.01078	58.00
0.02745	55.04
0.04412	57.56
0.06078	59.54
0.07745	59.08
0.09412	58.01
0.11078	57.99
0.12745	58.01
0.14412	58.01
0.16078	58.01
0.17745	58.00
0.19412	58.00
0.21078	58.00
0.22745	58.00
0.24412	58.00
0.26078	58.00
0.27745	58.00
0.29412	58.00
0.31078	58.00
0.32745	58.00
0.34412	58.00
0.36078	58.00
0.37745	58.00
0.39412	58.00
0.41078	58.00
0.42745	58.00
0.44412	58.00
0.46078	58.00
0.47745	58.00
0.49412	58.00
0.51078	58.00
0.52745	58.00
0.54412	58.00
0.56078	58.00
0.57745	58.00
0.59412	58.00
0.61078	58.00
0.62745	58.00
0.64412	58.00
0.66078	58.00
0.67745	58.00
0.69412	58.00
0.71078	58.00
0.72745	58.00
0.74412	58.00
0.76078	58.00
0.77745	58.00
0.79412	58.00
0.81078	58.00
0.82745	58.00
0.84412	58.00
0.86078	58.00
0.87745	58.00
0.89412	58.00
0.91078	58.00
0.92745	58.00
0.94412	58.00
0.96078	58.00
0.97745	58.00
0.99412	58.00
1.01078	58.00
1.02745	58.00
1.04412	58.00
1.06078	58.00
1.07745	58.00
1.09412	58.00
1.11078	58.00
1.12745	58.00
1.14412	58.00
1.16078	58.00
1.17745	58.00
1.19412	58.00
1.21078	58.00
1.22745	58.00
1.24412	58.00
1.26078	58.00
1.27745	58.00
1.29412	58.00
1.31078	58.00
1.32745	58.00
1.34412	58.00
1.36078	58.00
1.37745	58.00
1.39412	58.00
1.41078	58.00
1.42745	58.00
1.44412	58.00
1.46078	58.00
1.47745	58.00
1.49412	58.00
1.51078	58.00
1.52745	58.00
1.54412	58.00
1.56078	58.00
1.57745	58.00
1.59412	58.00
1.61078	58.00
1.62745	58.01
1.64412	58.00
1.66078	58.00
1.67745	58.01
1.69412	58.00
1.71078	58.00
1.72745	58.00
1.74412	58.00
1.76078	58.00
1.77745	58.00
1.79412	58.00
1.81078	58.00
1.82745	58.00
1.84412	58.00
1.86078	58.00
1.87745	58.00
1.89412	58.00
1.91078	58.00
1.92745	58.00
1.94412	58.00
1.96078	58.00
1.97745	58.00
1.99412	58.00
2.01078	58.00
2.02745	58.00
2.04412	58.00
2.06078	58.00
2.07745	58.00
2.09412	58.00
2.11078	58.00
2.12745	58.00
2.14412	58.00
2.16078	58.00
2.17745	58.00
2.19412	58.00
2.21078	58.00
2.22745	58.00
2.24412	58.00
2.26078	58.00
2.27745	58.00
2.29412	58.00
2.31078	58.00
2.32745	58.00
2.34412	58.00
2.36078	58.00
2.37745	58.00
2.39412	57.99
2.41078	57.99
2.42745	58.00
2.44412	58.00
2.46078	58.00
2.47745	58.00
2.49412	58.00
2.51078	58.00
2.52745	57.99
2.54412	58.00
2.56078	58.00
2.57745	58.00
2.59412	58.00
2.61078	58.00
2.62745	58.00
2.64412	58.00
2.66078	58.00
2.67745	58.00
2.69412	58.00
2.71078	58.00
2.72745	58.00
2.74412	58.00
2.76078	58.00
2.77745	58.00
2.79412	58.00
2.81078	58.00
2.82745	58.00
2.84412	58.00
2.86078	58.00
2.87745	58.00
2.89412	58.00
2.91078	58.00
2.92745	58.00
2.94412	58.00
2.96078	58.00
2.97745	58.00
2.99412	58.00
3.01078	58.00
3.02745	58.00
3.04412	58.00
3.06078	58.00
3.07745	58.00
3.09412	58.00
3.11078	58.00
3.12745	58.00
3.14412	58.00
3.16078	58.00
3.17745	58.00
3.19412	58.00
3.21078	58.00
3.22745	58.00
3.24412	58.00
3.26078	58.00
3.27745	58.00
3.29412	58.00
3.31078	58.00
3.32745	58.00
3.34412	58.00
3.36078	58.00
3.37745	58.00
3.39412	58.00
3.41078	58.00
3.42745	58.00
3.44412	58.00
3.46078	58.00
3.47745	58.00
3.49412	58.00
3.51078	58.00
3.52745	58.00
3.54412	58.00
3.56078	58.00
3.57745	58.00
3.59412	58.00
3.61078	58.00
3.62745	58.00
3.64412	58.00
3.66078	58.00
3.67745	58.00
3.69412	58.00
3.71078	58.00
3.72745	58.00
3.74412	58.00
3.76078	58.00
3.77745	58.00
3.79412	58.00
3.81078	58.00
3.82745	58.00
3.84412	58.00
3.86078	58.00
3.87745	58.00
3.89412	58.00
3.91078	58.00
3.92745	58.00
3.94412	58.00
3.96078	58.00
3.97745	58.00
3.99412	58.00

[Status Trace (Carrier Gas Flow)]
Interval(msec)	1000
# of Points	240
Start Time(min)	0.011
End Time(min)	3.994
Intensity Units	
Intensity Multiplier	1
R.Time (min)	Intensity
0.01078	34.52
0.02745	34.53
0.04412	34.54
0.06078	34.55
0.07745	34.50
0.09412	34.52
0.11078	34.52
0.12745	34.52
0.14412	34.52
0.16078	34.52
0.17745	34.52
0.19412	34.52
0.21078	34.51
0.22745	34.52
0.24412	34.51
0.26078	34.52
0.27745	34.53
0.29412	34.52
0.31078	34.52
0.32745	34.52
0.34412	34.52
0.36078	34.51
0.37745	34.52
0.39412	34.52
0.41078	34.52
0.42745	34.52
0.44412	34.52
0.46078	34.52
0.47745	34.52
0.49412	34.52
0.51078	34.52
0.52745	34.52
0.54412	34.52
0.56078	34.52
0.57745	34.52
0.59412	34.52
0.61078	34.52
0.62745	34.52
0.64412	34.52
0.66078	34.51
0.67745	34.51
0.69412	34.52
0.71078	34.52
0.72745	34.52
0.74412	34.52
0.76078	34.52
0.77745	34.52
0.79412	34.52
0.81078	34.52
0.82745	34.52
0.84412	34.52
0.86078	34.52
0.87745	34.52
0.89412	34.52
0.91078	34.52
0.92745	34.52
0.94412	34.52
0.96078	34.51
0.97745	34.52
0.99412	34.52
1.01078	34.52
1.02745	34.52
1.04412	34.52
1.06078	34.52
1.07745	34.52
1.09412	34.52
1.11078	34.51
1.12745	34.52
1.14412	34.52
1.16078	34.52
1.17745	34.52
1.19412	34.52
1.21078	34.52
1.22745	34.52
1.24412	34.52
1.26078	34.52
1.27745	34.52
1.29412	34.52
1.31078	34.52
1.32745	34.52
1.34412	34.52
1.36078	34.52
1.37745	34.52
1.39412	34.52
1.41078	34.52
1.42745	34.51
1.44412	34.52
1.46078	34.52
1.47745	34.52
1.49412	34.52
1.51078	34.52
1.52745	34.52
1.54412	34.52
1.56078	34.52
1.57745	34.52
1.59412	34.52
1.61078	34.52
1.62745	34.52
1.64412	34.52
1.66078	34.52
1.67745	34.52
1.69412	34.53
1.71078	34.52
1.72745	34.52
1.74412	34.52
1.76078	34.52
1.77745	34.52
1.79412	34.52
1.81078	34.52
1.82745	34.52
1.84412	34.52
1.86078	34.51
1.87745	34.52
1.89412	34.52
1.91078	34.52
1.92745	34.52
1.94412	34.52
1.96078	34.52
1.97745	34.52
1.99412	34.51
2.01078	34.52
2.02745	34.52
2.04412	34.52
2.06078	34.52
2.07745	34.52
2.09412	34.52
2.11078	34.52
2.12745	34.52
2.14412	34.51
2.16078	34.52
2.17745	34.52
2.19412	34.52
2.21078	34.52
2.22745	34.52
2.24412	34.52
2.26078	34.52
2.27745	34.52
2.29412	34.52
2.31078	34.52
2.32745	34.52
2.34412	34.52
2.36078	34.51
2.37745	34.52
2.39412	34.52
2.41078	34.51
2.42745	34.51
2.44412	34.52
2.46078	34.52
2.47745	34.52
2.49412	34.52
2.51078	34.52
2.52745	34.52
2.54412	34.52
2.56078	34.52
2.57745	34.52
2.59412	34.52
2.61078	34.52
2.62745	34.51
2.64412	34.51
2.66078	34.52
2.67745	34.52
2.69412	34.52
2.71078	34.52
2.72745	34.52
2.74412	34.52
2.76078	34.51
2.77745	34.51
2.79412	34.52
2.81078	34.52
2.82745	34.52
2.84412	34.52
2.86078	34.52
2.87745	34.52
2.89412	34.51
2.91078	34.51
2.92745	34.52
2.94412	34.52
2.96078	34.52
2.97745	34.52
2.99412	34.52
3.01078	34.52
3.02745	34.51
3.04412	34.52
3.06078	34.52
3.07745	34.52
3.09412	34.52
3.11078	34.52
3.12745	34.51
3.14412	34.52
3.16078	34.52
3.17745	34.52
3.19412	34.52
3.21078	34.51
3.22745	34.51
3.24412	34.51
3.26078	34.52
3.27745	34.51
3.29412	34.52
3.31078	34.52
3.32745	34.52
3.34412	34.52
3.36078	34.52
3.37745	34.52
3.39412	34.52
3.41078	34.52
3.42745	34.52
3.44412	34.52
3.46078	34.52
3.47745	34.52
3.49412	34.52
3.51078	34.52
3.52745	34.52
3.54412	34.53
3.56078	34.52
3.57745	34.52
3.59412	34.52
3.61078	34.52
3.62745	34.52
3.64412	34.52
3.66078	34.51
3.67745	34.51
3.69412	34.53
3.71078	34.51
3.72745	34.52
3.74412	34.52
3.76078	34.51
3.77745	34.52
3.79412	34.52
3.81078	34.51
3.82745	34.52
3.84412	34.52
3.86078	34.52
3.87745	34.52
3.89412	34.52
3.91078	34.52
3.92745	34.52
3.94412	34.51
3.96078	34.52
3.97745	34.52
3.99412	34.52

[Status Trace (Column Flow)]
Interval(msec)	1000
# of Points	240
Start Time(min)	0.011
End Time(min)	3.994
Intensity Units	
Intensity Multiplier	1
R.Time (min)	Intensity
0.01078	5.57
0.02745	5.22
0.04412	5.51
0.06078	5.75
0.07745	5.69
0.09412	5.56
0.11078	5.56
0.12745	5.57
0.14412	5.57
0.16078	5.56
0.17745	5.56
0.19412	5.56
0.21078	5.56
0.22745	5.56
0.24412	5.56
0.26078	5.56
0.27745	5.56
0.29412	5.56
0.31078	5.56
0.32745	5.56
0.34412	5.56
0.36078	5.56
0.37745	5.56
0.39412	5.56
0.41078	5.57
0.42745	5.57
0.44412	5.57
0.46078	5.57
0.47745	5.57
0.49412	5.57
0.51078	5.57
0.52745	5.57
0.54412	5.57
0.56078	5.57
0.57745	5.57
0.59412	5.57
0.61078	5.57
0.62745	5.57
0.64412	5.57
0.66078	5.57
0.67745	5.57
0.69412	5.57
0.71078	5.57
0.72745	5.57
0.74412	5.57
0.76078	5.57
0.77745	5.57
0.79412	5.57
0.81078	5.57
0.82745	5.57
0.84412	5.57
0.86078	5.57
0.87745	5.57
0.89412	5.57
0.91078	5.57
0.92745	5.57
0.94412	5.57
0.96078	5.57
0.97745	5.57
0.99412	5.57
1.01078	5.57
1.02745	5.57
1.04412	5.57
1.06078	5.56
1.07745	5.56
1.09412	5.56
1.11078	5.56
1.12745	5.56
1.14412	5.56
1.16078	5.56
1.17745	5.57
1.19412	5.57
1.21078	5.57
1.22745	5.57
1.24412	5.57
1.26078	5.57
1.27745	5.57
1.29412	5.57
1.31078	5.57
1.32745	5.57
1.34412	5.57
1.36078	5.57
1.37745	5.57
1.39412	5.57
1.41078	5.57
1.42745	5.57
1.44412	5.57
1.46078	5.57
1.47745	5.57
1.49412	5.57
1.51078	5.57
1.52745	5.57
1.54412	5.57
1.56078	5.56
1.57745	5.56
1.59412	5.56
1.61078	5.56
1.62745	5.56
1.64412	5.55
1.66078	5.55
1.67745	5.53
1.69412	5.52
1.71078	5.51
1.72745	5.50
1.74412	5.49
1.76078	5.48
1.77745	5.47
1.79412	5.46
1.81078	5.45
1.82745	5.44
1.84412	5.43
1.86078	5.42
1.87745	5.41
1.89412	5.40
1.91078	5.39
1.92745	5.38
1.94412	5.37
1.96078	5.36
1.97745	5.35
1.99412	5.34
2.01078	5.33
2.02745	5.32
2.04412	5.31
2.06078	5.30
2.07745	5.29
2.09412	5.28
2.11078	5.27
2.12745	5.26
2.14412	5.25
2.16078	5.25
2.17745	5.24
2.19412	5.23
2.21078	5.22
2.22745	5.21
2.24412	5.20
2.26078	5.19
2.27745	5.18
2.29412	5.17
2.31078	5.16
2.32745	5.15
2.34412	5.14
2.36078	5.13
2.37745	5.13
2.39412	5.13
2.41078	5.13
2.42745	5.13
2.44412	5.13
2.46078	5.13
2.47745	5.13
2.49412	5.13
2.51078	5.13
2.52745	5.12
2.54412	5.12
2.56078	5.12
2.57745	5.12
2.59412	5.12
2.61078	5.12
2.62745	5.12
2.64412	5.12
2.66078	5.12
2.67745	5.12
2.69412	5.12
2.71078	5.12
2.72745	5.12
2.74412	5.12
2.76078	5.12
2.77745	5.12
2.79412	5.12
2.81078	5.12
2.82745	5.12
2.84412	5.12
2.86078	5.12
2.87745	5.12
2.89412	5.12
2.91078	5.12
2.92745	5.12
2.94412	5.12
2.96078	5.12
2.97745	5.12
2.99412	5.12
3.01078	5.12
3.02745	5.12
3.04412	5.12
3.06078	5.12
3.07745	5.12
3.09412	5.12
3.11078	5.12
3.12745	5.12
3.14412	5.12
3.16078	5.12
3.17745	5.12
3.19412	5.12
3.21078	5.12
3.22745	5.12
3.24412	5.12
3.26078	5.12
3.27745	5.12
3.29412	5.12
3.31078	5.12
3.32745	5.12
3.34412	5.12
3.36078	5.12
3.37745	5.12
3.39412	5.12
3.41078	5.12
3.42745	5.12
3.44412	5.12
3.46078	5.12
3.47745	5.12
3.49412	5.12
3.51078	5.12
3.52745	5.12
3.54412	5.12
3.56078	5.12
3.57745	5.12
3.59412	5.12
3.61078	5.12
3.62745	5.12
3.64412	5.12
3.66078	5.12
3.67745	5.12
3.69412	5.12
3.71078	5.12
3.72745	5.12
3.74412	5.12
3.76078	5.12
3.77745	5.12
3.79412	5.12
3.81078	5.12
3.82745	5.12
3.84412	5.12
3.86078	5.12
3.87745	5.12
3.89412	5.12
3.91078	5.12
3.92745	5.12
3.94412	5.12
3.96078	5.12
3.97745	5.12
3.99412	5.12

[Status Trace (Linear Velocity)]
Interval(msec)	1000
# of Points	240
Start Time(min)	0.011
End Time(min)	3.994
Intensity Units	
Intensity Multiplier	1
R.Time (min)	Intensity
0.01078	39.02
0.02745	37.08
0.04412	38.73
0.06078	40.03
0.07745	39.73
0.09412	39.03
0.11078	39.01
0.12745	39.03
0.14412	39.03
0.16078	39.02
0.17745	39.02
0.19412	39.02
0.21078	39.02
0.22745	39.02
0.24412	39.02
0.26078	39.02
0.27745	39.02
0.29412	39.02
0.31078	39.02
0.32745	39.02
0.34412	39.02
0.36078	39.02
0.37745	39.02
0.39412	39.02
0.41078	39.03
0.42745	39.03
0.44412	39.03
0.46078	39.03
0.47745	39.03
0.49412	39.03
0.51078	39.03
0.52745	39.03
0.54412	39.03
0.56078	39.03
0.57745	39.03
0.59412	39.03
0.61078	39.03
0.62745	39.03
0.64412	39.03
0.66078	39.03
0.67745	39.03
0.69412	39.03
0.71078	39.03
0.72745	39.03
0.74412	39.03
0.76078	39.03
0.77745	39.03
0.79412	39.03
0.81078	39.03
0.82745	39.03
0.84412	39.03
0.86078	39.03
0.87745	39.03
0.89412	39.03
0.91078	39.03
0.92745	39.03
0.94412	39.03
0.96078	39.03
0.97745	39.03
0.99412	39.03
1.01078	39.03
1.02745	39.03
1.04412	39.03
1.06078	39.02
1.07745	39.02
1.09412	39.02
1.11078	39.02
1.12745	39.02
1.14412	39.02
1.16078	39.02
1.17745	39.03
1.19412	39.03
1.21078	39.03
1.22745	39.03
1.24412	39.03
1.26078	39.03
1.27745	39.03
1.29412	39.03
1.31078	39.03
1.32745	39.03
1.34412	39.03
1.36078	39.03
1.37745	39.03
1.39412	39.03
1.41078	39.03
1.42745	39.03
1.44412	39.03
1.46078	39.03
1.47745	39.03
1.49412	39.03
1.51078	39.03
1.52745	39.03
1.54412	39.03
1.56078	39.02
1.57745	39.02
1.59412	39.02
1.61078	39.02
1.62745	39.01
1.64412	38.99
1.66078	38.97
1.67745	38.93
1.69412	38.89
1.71078	38.86
1.72745	38.83
1.74412	38.80
1.76078	38.77
1.77745	38.74
1.79412	38.70
1.81078	38.68
1.82745	38.64
1.84412	38.61
1.86078	38.58
1.87745	38.55
1.89412	38.52
1.91078	38.49
1.92745	38.46
1.94412	38.43
1.96078	38.40
1.97745	38.37
1.99412	38.34
2.01078	38.31
2.02745	38.28
2.04412	38.25
2.06078	38.22
2.07745	38.19
2.09412	38.16
2.11078	38.13
2.12745	38.10
2.14412	38.07
2.16078	38.04
2.17745	38.01
2.19412	37.98
2.21078	37.95
2.22745	37.92
2.24412	37.89
2.26078	37.86
2.27745	37.83
2.29412	37.80
2.31078	37.78
2.32745	37.74
2.34412	37.71
2.36078	37.69
2.37745	37.67
2.39412	37.67
2.41078	37.67
2.42745	37.67
2.44412	37.67
2.46078	37.67
2.47745	37.67
2.49412	37.67
2.51078	37.66
2.52745	37.66
2.54412	37.66
2.56078	37.66
2.57745	37.66
2.59412	37.66
2.61078	37.66
2.62745	37.66
2.64412	37.66
2.66078	37.66
2.67745	37.66
2.69412	37.65
2.71078	37.65
2.72745	37.66
2.74412	37.66
2.76078	37.66
2.77745	37.65
2.79412	37.65
2.81078	37.65
2.82745	37.65
2.84412	37.65
2.86078	37.65
2.87745	37.65
2.89412	37.65
2.91078	37.65
2.92745	37.65
2.94412	37.65
2.96078	37.65
2.97745	37.64
2.99412	37.64
3.01078	37.64
3.02745	37.64
3.04412	37.64
3.06078	37.64
3.07745	37.64
3.09412	37.64
3.11078	37.64
3.12745	37.64
3.14412	37.64
3.16078	37.64
3.17745	37.64
3.19412	37.64
3.21078	37.63
3.22745	37.63
3.24412	37.63
3.26078	37.63
3.27745	37.63
3.29412	37.63
3.31078	37.63
3.32745	37.64
3.34412	37.64
3.36078	37.64
3.37745	37.64
3.39412	37.64
3.41078	37.64
3.42745	37.64
3.44412	37.64
3.46078	37.64
3.47745	37.64
3.49412	37.64
3.51078	37.64
3.52745	37.64
3.54412	37.64
3.56078	37.64
3.57745	37.64
3.59412	37.64
3.61078	37.64
3.62745	37.64
3.64412	37.64
3.66078	37.64
3.67745	37.64
3.69412	37.64
3.71078	37.64
3.72745	37.64
3.74412	37.64
3.76078	37.64
3.77745	37.64
3.79412	37.64
3.81078	37.64
3.82745	37.64
3.84412	37.64
3.86078	37.64
3.87745	37.64
3.89412	37.64
3.91078	37.64
3.92745	37.64
3.94412	37.64
3.96078	37.64
3.97745	37.64
3.99412	37.63

