[Header]
Application Name	LabSolutions
Version	5.110
Data File Name	C:\Users\User\Desktop\GC Analyses\Jack\Nachusa Grasslands Sampling\T1 Timepoint July 12th\T1_07122022_016.gcd
Output Date	3/14/2023
Output Time	3:40:57 PM

[File Information]
Type	Data File
Generated	3/8/2023 2:56:28 PM
Generated by	System Administrator
Modified	3/8/2023 3:02:57 PM
Modified by	System Administrator

[Sample Information]
Operator Name	System Administrator
Acquired	3/8/2023 2:58:55 PM
Sample Type	0:Unknown
Level	0
Sample Name	016
Sample ID	016
ISTD Amount1	1
ISTD Amount2	1
ISTD Amount3	1
ISTD Amount4	1
ISTD Amount5	1
ISTD Amount6	1
ISTD Amount7	1
ISTD Amount8	1
ISTD Amount9	1
ISTD Amount10	1
ISTD Amount11	1
ISTD Amount12	1
ISTD Amount13	1
ISTD Amount14	1
ISTD Amount15	1
ISTD Amount16	1
ISTD Amount17	1
ISTD Amount18	1
ISTD Amount19	1
ISTD Amount20	1
ISTD Amount21	1
ISTD Amount22	1
ISTD Amount23	1
ISTD Amount24	1
ISTD Amount25	1
ISTD Amount26	1
ISTD Amount27	1
ISTD Amount28	1
ISTD Amount29	1
ISTD Amount30	1
ISTD Amount31	1
ISTD Amount32	1
Sample Amount	1
Dilution Factor	1
Vial#	15
Injection Volume	1
Injection Count	1
Bar Code	

[Original Files]
Data File	C:\Users\User\Desktop\GC Analyses\Jack\Nachusa Grasslands Sampling\T1 Timepoint July 12th\T1_07122022_016.gcd
Method File	C:\LabSolutions\Data\GHG_4min_2022\ghg3_togas_w_acet_4 min_new_int.gcm
Batch File	C:\LabSolutions\Data\AutoSamplerTesting\T1_07122022.gcb
Report Format File	c:\LabSolutions\System\DEFAULT.lsr

[File Description]


[Configuration]
Instrument Name	C0B7VH3-Instrument1
Instrument #	1
Line #	1
# of Detectors	3
Detector ID	DET#1	DET#2	DET#3
Detector Name	FID	PTCD	ECD
# of Channels	1	1	1

[Peak Table(Ch1)]
# of Peaks	3
Peak#	R.Time	I.Time	F.Time	Area	Height	A/H	Conc.	Mark	ID#	Name	k'	Plate #	Plate Ht.	Tailing	Resolution	Sep.Factor	Area Ratio	Height Ratio	Conc. %	Norm Conc.
1	1.476	1.439	1.538	28010	13148	2.130	197.755	   	1	CO	0.000	9049	16.576	1.340	0.000	0.000	0	0	31.279	31.279
2	1.571	1.538	1.633	4782	2271	2.106	92.461	 V 	2	CH4	0.065	10190	14.720	0.000	1.534	0.000	0	0	14.625	14.625
3	1.996	1.941	2.484	1362740	641507	2.124	342.011	   	3	CO2	0.353	17297	8.672	1.329	6.918	5.462	0	0	54.096	54.096

[Peak Table(Ch2)]
# of Peaks	0

[Peak Table(Ch3)]
# of Peaks	7
Peak#	R.Time	I.Time	F.Time	Area	Height	A/H	Conc.	Mark	ID#	Name	k'	Plate #	Plate Ht.	Tailing	Resolution	Sep.Factor	Area Ratio	Height Ratio	Conc. %	Norm Conc.
1	2.458	2.282	2.513	1321	340	3.884	0.000	   			0.000	18270	8.210	0.000	0.000	0.000	0	0	0.000	0.000
2	2.546	2.513	2.587	463	145	3.198	0.000	 V 			0.036	8086	18.550	0.000	0.946	0.000	0	0	0.000	0.000
3	2.594	2.587	2.627	151	95	1.591	0.000	 V 			0.055	9906	15.142	0.000	0.438	1.542	0	0	0.000	0.000
4	2.682	2.645	2.722	127	47	2.719	0.000	   			0.091	20616	7.276	1.045	0.983	1.649	0	0	0.000	0.000
5	2.873	2.810	3.030	18140	4896	3.705	0.463	   	1	N2O	0.169	13517	11.097	1.626	2.197	1.852	0	0	100.000	100.000
6	3.331	3.118	3.349	855	114	7.511	0.000	   	2	SF6	0.355	4367	34.352	0.542	3.051	2.106	0	0	0.000	0.000
7	3.467	3.357	3.995	10148	516	19.654	0.000	   			0.410	767	195.583	2.816	0.386	1.155	0	0	0.000	0.000

[Compound Results(Ch1)]
# of IDs	6
ID#	Name	R.Time	Area	Height	Conc.	Curve	3rd	2nd	1st	Constant	Area Ratio	Height Ratio	Conc. %	Norm Conc.
1	CO	1.476	28010	13148	197.755	Linear	0.000000e+00	0.000000e+00	1.416423e+002	0.000000e+00	0	0	31.279	31.279
2	CH4	1.571	4782	2271	92.461	Linear	0.000000e+00	0.000000e+00	5.171738e+001	0.000000e+00	0	0	14.625	14.625
3	CO2	1.996	1362740	641507	342.011	Linear	0.000000e+00	0.000000e+00	3.984494e+003	0.000000e+00	0	0	54.096	54.096
4	Ethylene	0.000	0	0	0.000	Linear	0.000000e+00	0.000000e+00	0.000000e+00	0.000000e+00	0	0	0.000	0.000
5	Acetylene	0.000	0	0	0.000	Linear	0.000000e+00	0.000000e+00	0.000000e+00	0.000000e+00	0	0	0.000	0.000
6	Ethane	0.000	0	0	0.000	Linear	0.000000e+00	0.000000e+00	0.000000e+00	0.000000e+00	0	0	0.000	0.000

[Compound Results(Ch2)]
# of IDs	5
ID#	Name	R.Time	Area	Height	Conc.	Curve	3rd	2nd	1st	Constant	Area Ratio	Height Ratio	Conc. %	Norm Conc.
1	Hydrogen	0.000	0	0	0.000	Linear	0.000000e+00	0.000000e+00	0.000000e+00	0.000000e+00	0	0	0.000	0.000
2	Oxygen	0.000	0	0	0.000	Linear	0.000000e+00	0.000000e+00	0.000000e+00	0.000000e+00	0	0	0.000	0.000
3	Nitrogen	0.000	0	0	0.000	Linear	0.000000e+00	0.000000e+00	0.000000e+00	0.000000e+00	0	0	0.000	0.000
4	Methane	0.000	0	0	0.000	Linear	0.000000e+00	0.000000e+00	0.000000e+00	0.000000e+00	0	0	0.000	0.000
5	Carbon Monoxide	0.000	0	0	0.000	Linear	0.000000e+00	0.000000e+00	0.000000e+00	0.000000e+00	0	0	0.000	0.000

[Compound Results(Ch3)]
# of IDs	2
ID#	Name	R.Time	Area	Height	Conc.	Curve	3rd	2nd	1st	Constant	Area Ratio	Height Ratio	Conc. %	Norm Conc.
1	N2O	2.873	18140	4896	0.463	Linear	0.000000e+00	0.000000e+00	3.915173e+004	0.000000e+00	0	0	100.000	100.000
2	SF6	3.331	855	114	0.000	Linear	0.000000e+00	0.000000e+00	0.000000e+00	0.000000e+00	0	0	0.000	0.000

[Group Results(Ch1)]
# of Groups	0

[Group Results(Ch2)]
# of Groups	0

[Group Results(Ch3)]
# of Groups	0

[Chromatogram (Ch1)]
Interval(msec)	220
# of Points	1091
Start Time(min)	0.002
End Time(min)	3.998
R.Time (min)	Intensity
0.00167	13
0.00533	6
0.00900	-1
0.01267	-3
0.01633	2
0.02000	10
0.02367	14
0.02733	18
0.03100	24
0.03467	30
0.03833	32
0.04200	33
0.04567	32
0.04933	29
0.05300	27
0.05667	28
0.06033	26
0.06400	24
0.06767	22
0.07133	22
0.07500	21
0.07867	20
0.08233	19
0.08600	20
0.08967	21
0.09333	23
0.09700	25
0.10067	27
0.10433	25
0.10800	20
0.11167	14
0.11533	10
0.11900	5
0.12267	5
0.12633	10
0.13000	13
0.13367	14
0.13733	15
0.14100	14
0.14467	13
0.14833	16
0.15200	16
0.15567	15
0.15933	14
0.16300	12
0.16667	13
0.17033	13
0.17400	15
0.17767	18
0.18133	20
0.18500	22
0.18867	27
0.19233	35
0.19600	42
0.19967	47
0.20333	50
0.20700	46
0.21067	37
0.21433	28
0.21800	22
0.22167	17
0.22533	15
0.22900	14
0.23267	12
0.23633	12
0.24000	17
0.24367	23
0.24733	30
0.25100	38
0.25467	48
0.25833	57
0.26200	59
0.26567	57
0.26933	53
0.27300	49
0.27667	47
0.28033	43
0.28400	30
0.28767	14
0.29133	0
0.29500	-10
0.29867	-10
0.30233	2
0.30600	15
0.30967	24
0.31333	29
0.31700	33
0.32067	32
0.32433	27
0.32800	19
0.33167	12
0.33533	8
0.33900	11
0.34267	20
0.34633	27
0.35000	31
0.35367	33
0.35733	37
0.36100	41
0.36467	42
0.36833	40
0.37200	40
0.37567	37
0.37933	32
0.38300	26
0.38667	21
0.39033	20
0.39400	19
0.39767	17
0.40133	16
0.40500	18
0.40867	25
0.41233	36
0.41600	46
0.41967	53
0.42333	60
0.42700	63
0.43067	66
0.43433	68
0.43800	69
0.44167	66
0.44533	65
0.44900	68
0.45267	73
0.45633	79
0.46000	86
0.46367	92
0.46733	92
0.47100	90
0.47467	88
0.47833	85
0.48200	76
0.48567	65
0.48933	58
0.49300	53
0.49667	51
0.50033	56
0.50400	68
0.50767	73
0.51133	72
0.51500	73
0.51867	80
0.52233	88
0.52600	86
0.52967	80
0.53333	75
0.53700	71
0.54067	70
0.54433	70
0.54800	73
0.55167	77
0.55533	77
0.55900	72
0.56267	68
0.56633	72
0.57000	85
0.57367	95
0.57733	91
0.58100	76
0.58467	55
0.58833	34
0.59200	19
0.59567	9
0.59933	2
0.60300	-2
0.60667	-3
0.61033	-5
0.61400	-8
0.61767	-8
0.62133	-5
0.62500	-1
0.62867	7
0.63233	12
0.63600	12
0.63967	14
0.64333	19
0.64700	22
0.65067	23
0.65433	30
0.65800	41
0.66167	46
0.66533	41
0.66900	30
0.67267	15
0.67633	1
0.68000	-7
0.68367	-11
0.68733	-10
0.69100	-5
0.69467	1
0.69833	7
0.70200	15
0.70567	22
0.70933	24
0.71300	22
0.71667	20
0.72033	18
0.72400	20
0.72767	26
0.73133	31
0.73500	35
0.73867	34
0.74233	27
0.74600	21
0.74967	19
0.75333	17
0.75700	10
0.76067	3
0.76433	-1
0.76800	-4
0.77167	-4
0.77533	-3
0.77900	0
0.78267	6
0.78633	11
0.79000	11
0.79367	7
0.79733	3
0.80100	-2
0.80467	-7
0.80833	-9
0.81200	-4
0.81567	4
0.81933	17
0.82300	26
0.82667	24
0.83033	20
0.83400	17
0.83767	16
0.84133	14
0.84500	13
0.84867	10
0.85233	6
0.85600	6
0.85967	12
0.86333	16
0.86700	14
0.87067	4
0.87433	-4
0.87800	-10
0.88167	-14
0.88533	-17
0.88900	-17
0.89267	-13
0.89633	-9
0.90000	-9
0.90367	-12
0.90733	-16
0.91100	-21
0.91467	-20
0.91833	-11
0.92200	-0
0.92567	7
0.92933	7
0.93300	6
0.93667	1
0.94033	-10
0.94400	-18
0.94767	-19
0.95133	-13
0.95500	-8
0.95867	-9
0.96233	-11
0.96600	-9
0.96967	-5
0.97333	-7
0.97700	-9
0.98067	-2
0.98433	9
0.98800	11
0.99167	4
0.99533	-2
0.99900	-7
1.00267	-12
1.00633	-13
1.01000	-8
1.01367	0
1.01733	5
1.02100	6
1.02467	3
1.02833	-1
1.03200	-8
1.03567	-17
1.03933	-21
1.04300	-19
1.04667	-10
1.05033	-0
1.05400	7
1.05767	10
1.06133	11
1.06500	12
1.06867	13
1.07233	10
1.07600	1
1.07967	-5
1.08333	-9
1.08700	-12
1.09067	-15
1.09433	-14
1.09800	-9
1.10167	-0
1.10533	5
1.10900	3
1.11267	-5
1.11633	-15
1.12000	-23
1.12367	-26
1.12733	-24
1.13100	-17
1.13467	-13
1.13833	-12
1.14200	-12
1.14567	-10
1.14933	-5
1.15300	2
1.15667	7
1.16033	6
1.16400	3
1.16767	-5
1.17133	-13
1.17500	-13
1.17867	-5
1.18233	5
1.18600	8
1.18967	4
1.19333	-1
1.19700	-4
1.20067	-5
1.20433	-5
1.20800	-4
1.21167	-7
1.21533	-11
1.21900	-14
1.22267	-13
1.22633	-10
1.23000	-7
1.23367	-6
1.23733	-5
1.24100	-1
1.24467	2
1.24833	3
1.25200	0
1.25567	-6
1.25933	-10
1.26300	-12
1.26667	-7
1.27033	1
1.27400	5
1.27767	-2
1.28133	-16
1.28500	-21
1.28867	-16
1.29233	-10
1.29600	-4
1.29967	1
1.30333	4
1.30700	3
1.31067	-1
1.31433	-10
1.31800	-15
1.32167	-15
1.32533	-12
1.32900	-11
1.33267	-9
1.33633	-8
1.34000	-9
1.34367	-9
1.34733	-5
1.35100	-5
1.35467	-4
1.35833	-4
1.36200	-8
1.36567	-13
1.36933	-16
1.37300	-14
1.37667	-14
1.38033	-16
1.38400	-15
1.38767	-9
1.39133	-4
1.39500	-4
1.39867	-6
1.40233	-9
1.40600	-8
1.40967	-5
1.41333	-1
1.41700	1
1.42067	0
1.42433	-3
1.42800	-7
1.43167	-14
1.43533	-20
1.43900	-10
1.44267	68
1.44633	290
1.45000	831
1.45367	2067
1.45733	4140
1.46100	6662
1.46467	9087
1.46833	11072
1.47200	12465
1.47567	13148
1.47933	13001
1.48300	12006
1.48667	10348
1.49033	8379
1.49400	6450
1.49767	4789
1.50133	3475
1.50500	2494
1.50867	1793
1.51233	1300
1.51600	958
1.51967	722
1.52333	560
1.52700	450
1.53067	374
1.53433	322
1.53800	299
1.54167	334
1.54533	480
1.54900	771
1.55267	1162
1.55633	1562
1.56000	1899
1.56367	2148
1.56733	2291
1.57100	2294
1.57467	2137
1.57833	1841
1.58200	1475
1.58567	1118
1.58933	812
1.59300	571
1.59667	393
1.60033	268
1.60400	184
1.60767	129
1.61133	94
1.61500	76
1.61867	69
1.62233	66
1.62600	60
1.62967	48
1.63333	40
1.63700	40
1.64067	40
1.64433	35
1.64800	27
1.65167	19
1.65533	15
1.65900	11
1.66267	8
1.66633	12
1.67000	23
1.67367	36
1.67733	48
1.68100	52
1.68467	53
1.68833	56
1.69200	59
1.69567	56
1.69933	48
1.70300	40
1.70667	35
1.71033	37
1.71400	42
1.71767	48
1.72133	53
1.72500	52
1.72867	45
1.73233	39
1.73600	36
1.73967	39
1.74333	46
1.74700	54
1.75067	64
1.75433	72
1.75800	77
1.76167	74
1.76533	64
1.76900	49
1.77267	38
1.77633	33
1.78000	31
1.78367	31
1.78733	32
1.79100	33
1.79467	40
1.79833	49
1.80200	52
1.80567	52
1.80933	51
1.81300	49
1.81667	48
1.82033	52
1.82400	60
1.82767	63
1.83133	60
1.83500	57
1.83867	56
1.84233	55
1.84600	52
1.84967	50
1.85333	50
1.85700	46
1.86067	38
1.86433	32
1.86800	33
1.87167	35
1.87533	36
1.87900	40
1.88267	50
1.88633	66
1.89000	80
1.89367	90
1.89733	91
1.90100	82
1.90467	73
1.90833	67
1.91200	65
1.91567	66
1.91933	64
1.92300	62
1.92667	56
1.93033	49
1.93400	42
1.93767	38
1.94133	42
1.94500	53
1.94867	66
1.95233	89
1.95600	191
1.95967	742
1.96333	3249
1.96700	12086
1.97067	36026
1.97433	86444
1.97800	170062
1.98167	281364
1.98533	402995
1.98900	514276
1.99267	597823
1.99633	641589
2.00000	639794
2.00367	594723
2.00733	516908
2.01100	422335
2.01467	327094
2.01833	242723
2.02200	174604
2.02567	123170
2.02933	86131
2.03300	60293
2.03667	42627
2.04033	30679
2.04400	22619
2.04767	17153
2.05133	13409
2.05500	10801
2.05867	8948
2.06233	7597
2.06600	6588
2.06967	5813
2.07333	5202
2.07700	4707
2.08067	4298
2.08433	3959
2.08800	3677
2.09167	3440
2.09533	3231
2.09900	3042
2.10267	2874
2.10633	2723
2.11000	2583
2.11367	2453
2.11733	2329
2.12100	2217
2.12467	2118
2.12833	2025
2.13200	1939
2.13567	1865
2.13933	1799
2.14300	1735
2.14667	1671
2.15033	1610
2.15400	1559
2.15767	1517
2.16133	1479
2.16500	1437
2.16867	1391
2.17233	1348
2.17600	1310
2.17967	1275
2.18333	1243
2.18700	1213
2.19067	1182
2.19433	1156
2.19800	1134
2.20167	1114
2.20533	1100
2.20900	1084
2.21267	1060
2.21633	1027
2.22000	987
2.22367	948
2.22733	915
2.23100	890
2.23467	872
2.23833	857
2.24200	844
2.24567	834
2.24933	824
2.25300	810
2.25667	795
2.26033	781
2.26400	770
2.26767	759
2.27133	749
2.27500	740
2.27867	732
2.28233	720
2.28600	708
2.28967	700
2.29333	693
2.29700	686
2.30067	678
2.30433	669
2.30800	659
2.31167	646
2.31533	632
2.31900	618
2.32267	607
2.32633	598
2.33000	596
2.33367	600
2.33733	602
2.34100	597
2.34467	588
2.34833	580
2.35200	575
2.35567	576
2.35933	579
2.36300	578
2.36667	570
2.37033	556
2.37400	543
2.37767	535
2.38133	527
2.38500	518
2.38867	511
2.39233	507
2.39600	508
2.39967	515
2.40333	522
2.40700	524
2.41067	522
2.41433	517
2.41800	510
2.42167	506
2.42533	502
2.42900	494
2.43267	484
2.43633	475
2.44000	473
2.44367	480
2.44733	488
2.45100	488
2.45467	481
2.45833	471
2.46200	463
2.46567	457
2.46933	452
2.47300	449
2.47667	448
2.48033	447
2.48400	440
2.48767	432
2.49133	427
2.49500	427
2.49867	430
2.50233	435
2.50600	439
2.50967	443
2.51333	445
2.51700	445
2.52067	448
2.52433	451
2.52800	450
2.53167	447
2.53533	445
2.53900	444
2.54267	442
2.54633	444
2.55000	445
2.55367	442
2.55733	437
2.56100	432
2.56467	429
2.56833	429
2.57200	429
2.57567	421
2.57933	403
2.58300	383
2.58667	372
2.59033	373
2.59400	379
2.59767	383
2.60133	386
2.60500	385
2.60867	384
2.61233	385
2.61600	388
2.61967	391
2.62333	398
2.62700	406
2.63067	409
2.63433	403
2.63800	395
2.64167	392
2.64533	390
2.64900	392
2.65267	398
2.65633	411
2.66000	424
2.66367	434
2.66733	437
2.67100	434
2.67467	428
2.67833	423
2.68200	421
2.68567	422
2.68933	423
2.69300	420
2.69667	411
2.70033	406
2.70400	404
2.70767	401
2.71133	400
2.71500	401
2.71867	404
2.72233	406
2.72600	406
2.72967	406
2.73333	411
2.73700	417
2.74067	420
2.74433	419
2.74800	420
2.75167	423
2.75533	430
2.75900	439
2.76267	445
2.76633	447
2.77000	440
2.77367	430
2.77733	423
2.78100	420
2.78467	422
2.78833	428
2.79200	432
2.79567	431
2.79933	426
2.80300	421
2.80667	416
2.81033	414
2.81400	414
2.81767	415
2.82133	419
2.82500	420
2.82867	415
2.83233	407
2.83600	403
2.83967	406
2.84333	413
2.84700	421
2.85067	428
2.85433	435
2.85800	442
2.86167	448
2.86533	453
2.86900	454
2.87267	450
2.87633	446
2.88000	440
2.88367	436
2.88733	438
2.89100	444
2.89467	450
2.89833	449
2.90200	443
2.90567	438
2.90933	434
2.91300	431
2.91667	428
2.92033	425
2.92400	424
2.92767	429
2.93133	435
2.93500	438
2.93867	440
2.94233	438
2.94600	433
2.94967	432
2.95333	438
2.95700	447
2.96067	453
2.96433	453
2.96800	453
2.97167	454
2.97533	456
2.97900	460
2.98267	466
2.98633	473
2.99000	475
2.99367	472
2.99733	464
3.00100	456
3.00467	449
3.00833	440
3.01200	433
3.01567	433
3.01933	439
3.02300	445
3.02667	450
3.03033	450
3.03400	450
3.03767	451
3.04133	452
3.04500	452
3.04867	451
3.05233	451
3.05600	450
3.05967	450
3.06333	449
3.06700	448
3.07067	451
3.07433	456
3.07800	459
3.08167	462
3.08533	461
3.08900	457
3.09267	453
3.09633	448
3.10000	444
3.10367	443
3.10733	444
3.11100	446
3.11467	448
3.11833	449
3.12200	452
3.12567	450
3.12933	451
3.13300	451
3.13667	451
3.14033	451
3.14400	449
3.14767	443
3.15133	438
3.15500	435
3.15867	431
3.16233	428
3.16600	427
3.16967	432
3.17333	439
3.17700	444
3.18067	447
3.18433	447
3.18800	444
3.19167	439
3.19533	435
3.19900	435
3.20267	436
3.20633	434
3.21000	429
3.21367	425
3.21733	427
3.22100	433
3.22467	440
3.22833	443
3.23200	442
3.23567	441
3.23933	442
3.24300	442
3.24667	440
3.25033	439
3.25400	440
3.25767	440
3.26133	443
3.26500	446
3.26867	446
3.27233	444
3.27600	444
3.27967	441
3.28333	437
3.28700	432
3.29067	430
3.29433	430
3.29800	431
3.30167	433
3.30533	434
3.30900	434
3.31267	432
3.31633	431
3.32000	433
3.32367	436
3.32733	437
3.33100	439
3.33467	444
3.33833	450
3.34200	458
3.34567	468
3.34933	477
3.35300	478
3.35667	470
3.36033	460
3.36400	451
3.36767	447
3.37133	453
3.37500	465
3.37867	472
3.38233	465
3.38600	449
3.38967	430
3.39333	416
3.39700	409
3.40067	408
3.40433	410
3.40800	410
3.41167	410
3.41533	408
3.41900	404
3.42267	403
3.42633	404
3.43000	403
3.43367	403
3.43733	404
3.44100	406
3.44467	408
3.44833	411
3.45200	417
3.45567	421
3.45933	422
3.46300	422
3.46667	426
3.47033	429
3.47400	429
3.47767	425
3.48133	419
3.48500	412
3.48867	409
3.49233	408
3.49600	408
3.49967	409
3.50333	415
3.50700	420
3.51067	420
3.51433	417
3.51800	418
3.52167	421
3.52533	425
3.52900	429
3.53267	432
3.53633	434
3.54000	432
3.54367	430
3.54733	429
3.55100	431
3.55467	430
3.55833	426
3.56200	420
3.56567	413
3.56933	408
3.57300	407
3.57667	408
3.58033	412
3.58400	414
3.58767	417
3.59133	421
3.59500	421
3.59867	420
3.60233	423
3.60600	423
3.60967	418
3.61333	412
3.61700	409
3.62067	403
3.62433	397
3.62800	394
3.63167	398
3.63533	410
3.63900	421
3.64267	424
3.64633	420
3.65000	410
3.65367	395
3.65733	384
3.66100	376
3.66467	374
3.66833	375
3.67200	381
3.67567	391
3.67933	396
3.68300	395
3.68667	392
3.69033	393
3.69400	397
3.69767	400
3.70133	400
3.70500	400
3.70867	401
3.71233	401
3.71600	404
3.71967	409
3.72333	412
3.72700	412
3.73067	409
3.73433	402
3.73800	394
3.74167	387
3.74533	381
3.74900	376
3.75267	373
3.75633	371
3.76000	369
3.76367	371
3.76733	374
3.77100	380
3.77467	389
3.77833	396
3.78200	400
3.78567	398
3.78933	396
3.79300	395
3.79667	394
3.80033	388
3.80400	378
3.80767	371
3.81133	366
3.81500	365
3.81867	367
3.82233	370
3.82600	373
3.82967	376
3.83333	377
3.83700	377
3.84067	377
3.84433	376
3.84800	375
3.85167	375
3.85533	376
3.85900	376
3.86267	372
3.86633	362
3.87000	351
3.87367	344
3.87733	338
3.88100	335
3.88467	335
3.88833	339
3.89200	345
3.89567	352
3.89933	357
3.90300	358
3.90667	364
3.91033	376
3.91400	384
3.91767	384
3.92133	380
3.92500	375
3.92867	372
3.93233	371
3.93600	366
3.93967	358
3.94333	353
3.94700	350
3.95067	351
3.95433	351
3.95800	348
3.96167	348
3.96533	355
3.96900	366
3.97267	382
3.97633	396
3.98000	403
3.98367	403
3.98733	399
3.99100	390
3.99467	377
3.99833	365

[Chromatogram (Ch2)]
Interval(msec)	220
# of Points	1091
Start Time(min)	0.002
End Time(min)	3.998
R.Time (min)	Intensity
0.00167	0
0.00533	0
0.00900	0
0.01267	-0
0.01633	-0
0.02000	-0
0.02367	-1
0.02733	-1
0.03100	-0
0.03467	-0
0.03833	-0
0.04200	-0
0.04567	-1
0.04933	-1
0.05300	-1
0.05667	-1
0.06033	-1
0.06400	-1
0.06767	-1
0.07133	-1
0.07500	-1
0.07867	-1
0.08233	-0
0.08600	-0
0.08967	-0
0.09333	0
0.09700	0
0.10067	1
0.10433	1
0.10800	1
0.11167	1
0.11533	1
0.11900	1
0.12267	1
0.12633	1
0.13000	1
0.13367	1
0.13733	1
0.14100	1
0.14467	0
0.14833	-1
0.15200	-1
0.15567	-1
0.15933	-2
0.16300	-2
0.16667	-2
0.17033	-2
0.17400	-1
0.17767	-1
0.18133	-1
0.18500	-1
0.18867	-1
0.19233	-1
0.19600	-1
0.19967	-1
0.20333	-1
0.20700	-1
0.21067	-1
0.21433	-2
0.21800	-2
0.22167	-2
0.22533	-2
0.22900	-2
0.23267	-2
0.23633	-1
0.24000	-1
0.24367	-0
0.24733	0
0.25100	1
0.25467	1
0.25833	1
0.26200	1
0.26567	1
0.26933	1
0.27300	1
0.27667	1
0.28033	1
0.28400	1
0.28767	1
0.29133	1
0.29500	1
0.29867	1
0.30233	1
0.30600	1
0.30967	1
0.31333	1
0.31700	1
0.32067	2
0.32433	2
0.32800	2
0.33167	2
0.33533	2
0.33900	2
0.34267	2
0.34633	2
0.35000	2
0.35367	2
0.35733	2
0.36100	2
0.36467	2
0.36833	1
0.37200	1
0.37567	1
0.37933	1
0.38300	0
0.38667	0
0.39033	-0
0.39400	-0
0.39767	-0
0.40133	-0
0.40500	-0
0.40867	-0
0.41233	-0
0.41600	-0
0.41967	-0
0.42333	-1
0.42700	-1
0.43067	-1
0.43433	-1
0.43800	-1
0.44167	-1
0.44533	-1
0.44900	-1
0.45267	-1
0.45633	-1
0.46000	-1
0.46367	-2
0.46733	-2
0.47100	-2
0.47467	-2
0.47833	-2
0.48200	-2
0.48567	-3
0.48933	-3
0.49300	-3
0.49667	-3
0.50033	-3
0.50400	-3
0.50767	-3
0.51133	-2
0.51500	-2
0.51867	-2
0.52233	-2
0.52600	-2
0.52967	-2
0.53333	-2
0.53700	-2
0.54067	-2
0.54433	-3
0.54800	-3
0.55167	-3
0.55533	-4
0.55900	-4
0.56267	-4
0.56633	-5
0.57000	-5
0.57367	-5
0.57733	-5
0.58100	-5
0.58467	-5
0.58833	-4
0.59200	-4
0.59567	-4
0.59933	-4
0.60300	-4
0.60667	-3
0.61033	-3
0.61400	-3
0.61767	-2
0.62133	-2
0.62500	-2
0.62867	-1
0.63233	-1
0.63600	-1
0.63967	-1
0.64333	-0
0.64700	0
0.65067	1
0.65433	1
0.65800	1
0.66167	1
0.66533	1
0.66900	0
0.67267	0
0.67633	1
0.68000	0
0.68367	0
0.68733	0
0.69100	0
0.69467	0
0.69833	0
0.70200	0
0.70567	-0
0.70933	-0
0.71300	-1
0.71667	-1
0.72033	-1
0.72400	-2
0.72767	-2
0.73133	-2
0.73500	-2
0.73867	-2
0.74233	-2
0.74600	-2
0.74967	-2
0.75333	-2
0.75700	-1
0.76067	-1
0.76433	-1
0.76800	-1
0.77167	-1
0.77533	-1
0.77900	-1
0.78267	-1
0.78633	-1
0.79000	-1
0.79367	-1
0.79733	-1
0.80100	-1
0.80467	-1
0.80833	-1
0.81200	-1
0.81567	-1
0.81933	-1
0.82300	-1
0.82667	-0
0.83033	-0
0.83400	-0
0.83767	-0
0.84133	-0
0.84500	-0
0.84867	-0
0.85233	-0
0.85600	-1
0.85967	-0
0.86333	-0
0.86700	-0
0.87067	-0
0.87433	-0
0.87800	-1
0.88167	-1
0.88533	-1
0.88900	-1
0.89267	-2
0.89633	-2
0.90000	-3
0.90367	-3
0.90733	-4
0.91100	-4
0.91467	-4
0.91833	-4
0.92200	-4
0.92567	-4
0.92933	-4
0.93300	-4
0.93667	-4
0.94033	-4
0.94400	-3
0.94767	-3
0.95133	-3
0.95500	-3
0.95867	-2
0.96233	-2
0.96600	-2
0.96967	-2
0.97333	-2
0.97700	-3
0.98067	-3
0.98433	-2
0.98800	-2
0.99167	-2
0.99533	-2
0.99900	-2
1.00267	-3
1.00633	-3
1.01000	-3
1.01367	-3
1.01733	-3
1.02100	-4
1.02467	-4
1.02833	-5
1.03200	-6
1.03567	-6
1.03933	-7
1.04300	-8
1.04667	-8
1.05033	-9
1.05400	-9
1.05767	-9
1.06133	-9
1.06500	-8
1.06867	-8
1.07233	-8
1.07600	-7
1.07967	-7
1.08333	-6
1.08700	-6
1.09067	-5
1.09433	-5
1.09800	-4
1.10167	-4
1.10533	-4
1.10900	-3
1.11267	-2
1.11633	-2
1.12000	-1
1.12367	-0
1.12733	1
1.13100	1
1.13467	2
1.13833	2
1.14200	2
1.14567	2
1.14933	2
1.15300	2
1.15667	2
1.16033	1
1.16400	1
1.16767	1
1.17133	1
1.17500	1
1.17867	1
1.18233	1
1.18600	1
1.18967	1
1.19333	0
1.19700	0
1.20067	-0
1.20433	-0
1.20800	-1
1.21167	-1
1.21533	-2
1.21900	-2
1.22267	-3
1.22633	-3
1.23000	-3
1.23367	-3
1.23733	-3
1.24100	-3
1.24467	-4
1.24833	-4
1.25200	-4
1.25567	-5
1.25933	-5
1.26300	-5
1.26667	-5
1.27033	-5
1.27400	-5
1.27767	-5
1.28133	-5
1.28500	-5
1.28867	-5
1.29233	-5
1.29600	-5
1.29967	-5
1.30333	-5
1.30700	-5
1.31067	-5
1.31433	-4
1.31800	-4
1.32167	-4
1.32533	-3
1.32900	-3
1.33267	-3
1.33633	-3
1.34000	-4
1.34367	-4
1.34733	-4
1.35100	-4
1.35467	-4
1.35833	-4
1.36200	-4
1.36567	-4
1.36933	-4
1.37300	-4
1.37667	-4
1.38033	-4
1.38400	-4
1.38767	-4
1.39133	-4
1.39500	-3
1.39867	-3
1.40233	-3
1.40600	-4
1.40967	-4
1.41333	-4
1.41700	-4
1.42067	-3
1.42433	-3
1.42800	-3
1.43167	-3
1.43533	-3
1.43900	-3
1.44267	-3
1.44633	-3
1.45000	-3
1.45367	-3
1.45733	-3
1.46100	-3
1.46467	-3
1.46833	-3
1.47200	-2
1.47567	-2
1.47933	-1
1.48300	-1
1.48667	-1
1.49033	-1
1.49400	-1
1.49767	-1
1.50133	-2
1.50500	-2
1.50867	-2
1.51233	-2
1.51600	-2
1.51967	-2
1.52333	-2
1.52700	-2
1.53067	-2
1.53433	-3
1.53800	-3
1.54167	-3
1.54533	-3
1.54900	-3
1.55267	-3
1.55633	-3
1.56000	-3
1.56367	-2
1.56733	-3
1.57100	-3
1.57467	-3
1.57833	-4
1.58200	-4
1.58567	-4
1.58933	-5
1.59300	-5
1.59667	-6
1.60033	-7
1.60400	-8
1.60767	-10
1.61133	-11
1.61500	-13
1.61867	-16
1.62233	-18
1.62600	-21
1.62967	-24
1.63333	-27
1.63700	-31
1.64067	-34
1.64433	-38
1.64800	-41
1.65167	-45
1.65533	-48
1.65900	-51
1.66267	-55
1.66633	-59
1.67000	-63
1.67367	-67
1.67733	-72
1.68100	-77
1.68467	-82
1.68833	-86
1.69200	-91
1.69567	-94
1.69933	-98
1.70300	-101
1.70667	-103
1.71033	-105
1.71400	-106
1.71767	-108
1.72133	-109
1.72500	-111
1.72867	-112
1.73233	-113
1.73600	-114
1.73967	-114
1.74333	-115
1.74700	-115
1.75067	-115
1.75433	-114
1.75800	-114
1.76167	-113
1.76533	-112
1.76900	-112
1.77267	-111
1.77633	-111
1.78000	-112
1.78367	-113
1.78733	-113
1.79100	-115
1.79467	-116
1.79833	-117
1.80200	-117
1.80567	-117
1.80933	-117
1.81300	-117
1.81667	-117
1.82033	-117
1.82400	-118
1.82767	-118
1.83133	-118
1.83500	-118
1.83867	-118
1.84233	-119
1.84600	-119
1.84967	-119
1.85333	-119
1.85700	-119
1.86067	-119
1.86433	-119
1.86800	-118
1.87167	-118
1.87533	-119
1.87900	-119
1.88267	-119
1.88633	-120
1.89000	-120
1.89367	-120
1.89733	-121
1.90100	-120
1.90467	-120
1.90833	-119
1.91200	-119
1.91567	-118
1.91933	-118
1.92300	-118
1.92667	-118
1.93033	-118
1.93400	-118
1.93767	-118
1.94133	-118
1.94500	-118
1.94867	-118
1.95233	-118
1.95600	-117
1.95967	-116
1.96333	-115
1.96700	-115
1.97067	-115
1.97433	-115
1.97800	-114
1.98167	-114
1.98533	-114
1.98900	-113
1.99267	-112
1.99633	-112
2.00000	-112
2.00367	-111
2.00733	-111
2.01100	-111
2.01467	-110
2.01833	-109
2.02200	-108
2.02567	-107
2.02933	-107
2.03300	-107
2.03667	-107
2.04033	-106
2.04400	-106
2.04767	-106
2.05133	-106
2.05500	-106
2.05867	-105
2.06233	-105
2.06600	-105
2.06967	-105
2.07333	-105
2.07700	-105
2.08067	-105
2.08433	-105
2.08800	-105
2.09167	-105
2.09533	-105
2.09900	-104
2.10267	-103
2.10633	-102
2.11000	-102
2.11367	-101
2.11733	-100
2.12100	-100
2.12467	-99
2.12833	-99
2.13200	-99
2.13567	-99
2.13933	-100
2.14300	-100
2.14667	-100
2.15033	-99
2.15400	-98
2.15767	-98
2.16133	-97
2.16500	-97
2.16867	-96
2.17233	-96
2.17600	-95
2.17967	-95
2.18333	-96
2.18700	-96
2.19067	-96
2.19433	-96
2.19800	-96
2.20167	-95
2.20533	-95
2.20900	-94
2.21267	-94
2.21633	-94
2.22000	-93
2.22367	-93
2.22733	-92
2.23100	-91
2.23467	-90
2.23833	-90
2.24200	-89
2.24567	-89
2.24933	-89
2.25300	-89
2.25667	-89
2.26033	-89
2.26400	-89
2.26767	-89
2.27133	-89
2.27500	-89
2.27867	-89
2.28233	-88
2.28600	-87
2.28967	-87
2.29333	-86
2.29700	-86
2.30067	-86
2.30433	-86
2.30800	-86
2.31167	-85
2.31533	-85
2.31900	-84
2.32267	-84
2.32633	-83
2.33000	-83
2.33367	-83
2.33733	-83
2.34100	-84
2.34467	-84
2.34833	-84
2.35200	-84
2.35567	-83
2.35933	-81
2.36300	-80
2.36667	-77
2.37033	-74
2.37400	-71
2.37767	-67
2.38133	-62
2.38500	-58
2.38867	-54
2.39233	-49
2.39600	-45
2.39967	-41
2.40333	-37
2.40700	-33
2.41067	-29
2.41433	-25
2.41800	-23
2.42167	-21
2.42533	-19
2.42900	-18
2.43267	-17
2.43633	-16
2.44000	-14
2.44367	-12
2.44733	-11
2.45100	-9
2.45467	-8
2.45833	-7
2.46200	-6
2.46567	-5
2.46933	-5
2.47300	-4
2.47667	-3
2.48033	-2
2.48400	-1
2.48767	0
2.49133	2
2.49500	3
2.49867	4
2.50233	5
2.50600	6
2.50967	7
2.51333	7
2.51700	8
2.52067	8
2.52433	8
2.52800	8
2.53167	9
2.53533	10
2.53900	11
2.54267	12
2.54633	13
2.55000	13
2.55367	13
2.55733	13
2.56100	13
2.56467	13
2.56833	13
2.57200	13
2.57567	13
2.57933	13
2.58300	13
2.58667	13
2.59033	13
2.59400	13
2.59767	13
2.60133	13
2.60500	13
2.60867	14
2.61233	14
2.61600	14
2.61967	15
2.62333	15
2.62700	16
2.63067	16
2.63433	15
2.63800	15
2.64167	15
2.64533	15
2.64900	15
2.65267	15
2.65633	15
2.66000	16
2.66367	16
2.66733	16
2.67100	17
2.67467	17
2.67833	17
2.68200	18
2.68567	18
2.68933	19
2.69300	20
2.69667	20
2.70033	21
2.70400	22
2.70767	22
2.71133	22
2.71500	22
2.71867	22
2.72233	22
2.72600	22
2.72967	21
2.73333	21
2.73700	21
2.74067	21
2.74433	21
2.74800	21
2.75167	22
2.75533	22
2.75900	22
2.76267	22
2.76633	22
2.77000	22
2.77367	22
2.77733	23
2.78100	23
2.78467	23
2.78833	24
2.79200	24
2.79567	24
2.79933	24
2.80300	24
2.80667	24
2.81033	24
2.81400	24
2.81767	24
2.82133	24
2.82500	24
2.82867	24
2.83233	24
2.83600	23
2.83967	22
2.84333	19
2.84700	14
2.85067	7
2.85433	-4
2.85800	-17
2.86167	-35
2.86533	-57
2.86900	-83
2.87267	-114
2.87633	-149
2.88000	-187
2.88367	-230
2.88733	-275
2.89100	-323
2.89467	-373
2.89833	-425
2.90200	-478
2.90567	-532
2.90933	-587
2.91300	-641
2.91667	-696
2.92033	-749
2.92400	-801
2.92767	-853
2.93133	-906
2.93500	-964
2.93867	-1024
2.94233	-1076
2.94600	-1109
2.94967	-1117
2.95333	-1098
2.95700	-1056
2.96067	-996
2.96433	-924
2.96800	-845
2.97167	-764
2.97533	-683
2.97900	-606
2.98267	-534
2.98633	-467
2.99000	-406
2.99367	-352
2.99733	-303
3.00100	-261
3.00467	-223
3.00833	-191
3.01200	-162
3.01567	-138
3.01933	-116
3.02300	-98
3.02667	-82
3.03033	-69
3.03400	-58
3.03767	-48
3.04133	-40
3.04500	-32
3.04867	-27
3.05233	-22
3.05600	-17
3.05967	-14
3.06333	-10
3.06700	-7
3.07067	-4
3.07433	-2
3.07800	-0
3.08167	2
3.08533	3
3.08900	5
3.09267	6
3.09633	7
3.10000	8
3.10367	9
3.10733	10
3.11100	10
3.11467	11
3.11833	11
3.12200	12
3.12567	12
3.12933	13
3.13300	13
3.13667	13
3.14033	14
3.14400	14
3.14767	14
3.15133	14
3.15500	15
3.15867	15
3.16233	15
3.16600	16
3.16967	16
3.17333	16
3.17700	16
3.18067	17
3.18433	17
3.18800	18
3.19167	18
3.19533	19
3.19900	19
3.20267	19
3.20633	20
3.21000	20
3.21367	21
3.21733	21
3.22100	21
3.22467	21
3.22833	21
3.23200	22
3.23567	22
3.23933	22
3.24300	22
3.24667	22
3.25033	22
3.25400	22
3.25767	22
3.26133	22
3.26500	22
3.26867	22
3.27233	22
3.27600	22
3.27967	22
3.28333	22
3.28700	22
3.29067	23
3.29433	23
3.29800	23
3.30167	23
3.30533	23
3.30900	24
3.31267	24
3.31633	24
3.32000	24
3.32367	24
3.32733	24
3.33100	24
3.33467	24
3.33833	24
3.34200	24
3.34567	24
3.34933	23
3.35300	23
3.35667	23
3.36033	23
3.36400	23
3.36767	23
3.37133	23
3.37500	22
3.37867	22
3.38233	22
3.38600	22
3.38967	22
3.39333	22
3.39700	22
3.40067	22
3.40433	22
3.40800	22
3.41167	22
3.41533	22
3.41900	22
3.42267	23
3.42633	23
3.43000	23
3.43367	23
3.43733	24
3.44100	24
3.44467	24
3.44833	24
3.45200	24
3.45567	24
3.45933	24
3.46300	24
3.46667	24
3.47033	24
3.47400	24
3.47767	24
3.48133	24
3.48500	24
3.48867	24
3.49233	24
3.49600	24
3.49967	23
3.50333	23
3.50700	23
3.51067	23
3.51433	23
3.51800	23
3.52167	23
3.52533	23
3.52900	23
3.53267	23
3.53633	23
3.54000	23
3.54367	23
3.54733	23
3.55100	24
3.55467	24
3.55833	24
3.56200	25
3.56567	25
3.56933	25
3.57300	25
3.57667	25
3.58033	25
3.58400	25
3.58767	25
3.59133	25
3.59500	25
3.59867	25
3.60233	25
3.60600	25
3.60967	25
3.61333	25
3.61700	25
3.62067	25
3.62433	25
3.62800	24
3.63167	24
3.63533	24
3.63900	24
3.64267	24
3.64633	24
3.65000	24
3.65367	24
3.65733	24
3.66100	24
3.66467	24
3.66833	23
3.67200	23
3.67567	23
3.67933	23
3.68300	23
3.68667	23
3.69033	23
3.69400	23
3.69767	23
3.70133	23
3.70500	24
3.70867	24
3.71233	24
3.71600	24
3.71967	24
3.72333	24
3.72700	24
3.73067	24
3.73433	24
3.73800	24
3.74167	24
3.74533	24
3.74900	25
3.75267	25
3.75633	25
3.76000	25
3.76367	25
3.76733	25
3.77100	25
3.77467	25
3.77833	25
3.78200	25
3.78567	25
3.78933	25
3.79300	25
3.79667	25
3.80033	25
3.80400	24
3.80767	24
3.81133	24
3.81500	24
3.81867	24
3.82233	24
3.82600	24
3.82967	25
3.83333	25
3.83700	25
3.84067	25
3.84433	25
3.84800	25
3.85167	25
3.85533	25
3.85900	26
3.86267	26
3.86633	26
3.87000	26
3.87367	26
3.87733	26
3.88100	26
3.88467	26
3.88833	26
3.89200	25
3.89567	25
3.89933	25
3.90300	25
3.90667	25
3.91033	24
3.91400	24
3.91767	24
3.92133	25
3.92500	25
3.92867	25
3.93233	25
3.93600	25
3.93967	25
3.94333	25
3.94700	25
3.95067	26
3.95433	26
3.95800	26
3.96167	26
3.96533	26
3.96900	26
3.97267	26
3.97633	26
3.98000	25
3.98367	25
3.98733	25
3.99100	25
3.99467	25
3.99833	25

[Chromatogram (Ch3)]
Interval(msec)	220
# of Points	1091
Start Time(min)	0.002
End Time(min)	3.998
R.Time (min)	Intensity
0.00167	0
0.00533	0
0.00900	1
0.01267	2
0.01633	2
0.02000	3
0.02367	4
0.02733	3
0.03100	0
0.03467	-0
0.03833	0
0.04200	-2
0.04567	-2
0.04933	-1
0.05300	-2
0.05667	-4
0.06033	-4
0.06400	-2
0.06767	-3
0.07133	-6
0.07500	-7
0.07867	-5
0.08233	-3
0.08600	-3
0.08967	-3
0.09333	-1
0.09700	0
0.10067	0
0.10433	-3
0.10800	-4
0.11167	-4
0.11533	-4
0.11900	-3
0.12267	-3
0.12633	-2
0.13000	-2
0.13367	-3
0.13733	-3
0.14100	-4
0.14467	-5
0.14833	-4
0.15200	-1
0.15567	1
0.15933	2
0.16300	1
0.16667	-1
0.17033	-2
0.17400	-1
0.17767	-2
0.18133	-2
0.18500	-1
0.18867	0
0.19233	-0
0.19600	-0
0.19967	-2
0.20333	-2
0.20700	-3
0.21067	-2
0.21433	-2
0.21800	-1
0.22167	-1
0.22533	-3
0.22900	-4
0.23267	-3
0.23633	-1
0.24000	1
0.24367	2
0.24733	4
0.25100	4
0.25467	3
0.25833	3
0.26200	1
0.26567	-2
0.26933	-3
0.27300	-3
0.27667	-2
0.28033	-1
0.28400	0
0.28767	-1
0.29133	-3
0.29500	-3
0.29867	-5
0.30233	-6
0.30600	-4
0.30967	-3
0.31333	-2
0.31700	-2
0.32067	-2
0.32433	-3
0.32800	-2
0.33167	-1
0.33533	-0
0.33900	0
0.34267	2
0.34633	4
0.35000	3
0.35367	2
0.35733	1
0.36100	1
0.36467	3
0.36833	7
0.37200	8
0.37567	7
0.37933	6
0.38300	7
0.38667	5
0.39033	5
0.39400	5
0.39767	5
0.40133	7
0.40500	7
0.40867	7
0.41233	5
0.41600	3
0.41967	-0
0.42333	-2
0.42700	-1
0.43067	1
0.43433	3
0.43800	3
0.44167	1
0.44533	1
0.44900	-0
0.45267	-1
0.45633	1
0.46000	2
0.46367	3
0.46733	2
0.47100	0
0.47467	-1
0.47833	-1
0.48200	1
0.48567	4
0.48933	5
0.49300	4
0.49667	2
0.50033	3
0.50400	2
0.50767	2
0.51133	3
0.51500	2
0.51867	2
0.52233	3
0.52600	3
0.52967	5
0.53333	6
0.53700	7
0.54067	5
0.54433	5
0.54800	4
0.55167	6
0.55533	6
0.55900	4
0.56267	2
0.56633	1
0.57000	1
0.57367	2
0.57733	1
0.58100	2
0.58467	4
0.58833	7
0.59200	9
0.59567	11
0.59933	10
0.60300	11
0.60667	9
0.61033	6
0.61400	5
0.61767	6
0.62133	7
0.62500	7
0.62867	8
0.63233	10
0.63600	10
0.63967	9
0.64333	6
0.64700	4
0.65067	4
0.65433	4
0.65800	4
0.66167	4
0.66533	3
0.66900	2
0.67267	1
0.67633	3
0.68000	5
0.68367	5
0.68733	4
0.69100	4
0.69467	4
0.69833	3
0.70200	3
0.70567	2
0.70933	2
0.71300	4
0.71667	6
0.72033	7
0.72400	8
0.72767	9
0.73133	10
0.73500	12
0.73867	13
0.74233	13
0.74600	13
0.74967	13
0.75333	12
0.75700	10
0.76067	10
0.76433	11
0.76800	11
0.77167	12
0.77533	12
0.77900	14
0.78267	16
0.78633	16
0.79000	14
0.79367	11
0.79733	7
0.80100	6
0.80467	6
0.80833	7
0.81200	9
0.81567	9
0.81933	6
0.82300	6
0.82667	5
0.83033	2
0.83400	0
0.83767	1
0.84133	2
0.84500	1
0.84867	-2
0.85233	-2
0.85600	-1
0.85967	0
0.86333	-0
0.86700	-0
0.87067	0
0.87433	3
0.87800	4
0.88167	3
0.88533	2
0.88900	5
0.89267	6
0.89633	5
0.90000	5
0.90367	8
0.90733	9
0.91100	10
0.91467	9
0.91833	10
0.92200	9
0.92567	7
0.92933	7
0.93300	7
0.93667	8
0.94033	8
0.94400	8
0.94767	7
0.95133	7
0.95500	6
0.95867	6
0.96233	3
0.96600	2
0.96967	3
0.97333	6
0.97700	6
0.98067	7
0.98433	10
0.98800	10
0.99167	9
0.99533	7
0.99900	6
1.00267	3
1.00633	2
1.01000	4
1.01367	8
1.01733	12
1.02100	14
1.02467	13
1.02833	11
1.03200	7
1.03567	5
1.03933	6
1.04300	9
1.04667	9
1.05033	12
1.05400	12
1.05767	10
1.06133	8
1.06500	7
1.06867	7
1.07233	8
1.07600	8
1.07967	9
1.08333	10
1.08700	9
1.09067	7
1.09433	8
1.09800	7
1.10167	7
1.10533	7
1.10900	8
1.11267	11
1.11633	12
1.12000	11
1.12367	10
1.12733	10
1.13100	10
1.13467	10
1.13833	11
1.14200	12
1.14567	12
1.14933	13
1.15300	13
1.15667	12
1.16033	12
1.16400	12
1.16767	12
1.17133	12
1.17500	11
1.17867	11
1.18233	12
1.18600	11
1.18967	10
1.19333	10
1.19700	9
1.20067	9
1.20433	10
1.20800	10
1.21167	9
1.21533	10
1.21900	12
1.22267	14
1.22633	13
1.23000	11
1.23367	12
1.23733	15
1.24100	15
1.24467	13
1.24833	12
1.25200	12
1.25567	12
1.25933	12
1.26300	11
1.26667	11
1.27033	13
1.27400	15
1.27767	14
1.28133	13
1.28500	14
1.28867	16
1.29233	18
1.29600	18
1.29967	17
1.30333	18
1.30700	20
1.31067	19
1.31433	14
1.31800	11
1.32167	12
1.32533	14
1.32900	16
1.33267	16
1.33633	17
1.34000	16
1.34367	15
1.34733	14
1.35100	13
1.35467	13
1.35833	12
1.36200	11
1.36567	11
1.36933	11
1.37300	11
1.37667	12
1.38033	14
1.38400	15
1.38767	15
1.39133	14
1.39500	15
1.39867	16
1.40233	18
1.40600	20
1.40967	21
1.41333	20
1.41700	19
1.42067	19
1.42433	15
1.42800	12
1.43167	12
1.43533	14
1.43900	17
1.44267	19
1.44633	21
1.45000	20
1.45367	17
1.45733	15
1.46100	15
1.46467	14
1.46833	15
1.47200	17
1.47567	18
1.47933	19
1.48300	20
1.48667	18
1.49033	18
1.49400	20
1.49767	20
1.50133	19
1.50500	17
1.50867	15
1.51233	15
1.51600	14
1.51967	15
1.52333	17
1.52700	19
1.53067	20
1.53433	21
1.53800	24
1.54167	25
1.54533	23
1.54900	23
1.55267	22
1.55633	21
1.56000	19
1.56367	19
1.56733	19
1.57100	19
1.57467	19
1.57833	19
1.58200	18
1.58567	19
1.58933	18
1.59300	18
1.59667	19
1.60033	20
1.60400	20
1.60767	21
1.61133	22
1.61500	22
1.61867	22
1.62233	21
1.62600	20
1.62967	20
1.63333	19
1.63700	21
1.64067	21
1.64433	21
1.64800	21
1.65167	19
1.65533	20
1.65900	22
1.66267	25
1.66633	26
1.67000	27
1.67367	25
1.67733	23
1.68100	22
1.68467	24
1.68833	25
1.69200	25
1.69567	25
1.69933	25
1.70300	27
1.70667	29
1.71033	29
1.71400	30
1.71767	32
1.72133	31
1.72500	30
1.72867	28
1.73233	26
1.73600	26
1.73967	26
1.74333	26
1.74700	27
1.75067	29
1.75433	30
1.75800	29
1.76167	27
1.76533	24
1.76900	24
1.77267	26
1.77633	26
1.78000	26
1.78367	26
1.78733	28
1.79100	28
1.79467	29
1.79833	30
1.80200	31
1.80567	32
1.80933	34
1.81300	35
1.81667	37
1.82033	36
1.82400	35
1.82767	34
1.83133	35
1.83500	35
1.83867	35
1.84233	36
1.84600	37
1.84967	39
1.85333	41
1.85700	41
1.86067	41
1.86433	41
1.86800	40
1.87167	40
1.87533	39
1.87900	40
1.88267	40
1.88633	40
1.89000	41
1.89367	43
1.89733	42
1.90100	42
1.90467	43
1.90833	44
1.91200	46
1.91567	45
1.91933	44
1.92300	44
1.92667	45
1.93033	46
1.93400	48
1.93767	46
1.94133	45
1.94500	47
1.94867	49
1.95233	50
1.95600	51
1.95967	51
1.96333	52
1.96700	55
1.97067	57
1.97433	58
1.97800	58
1.98167	58
1.98533	59
1.98900	59
1.99267	59
1.99633	60
2.00000	60
2.00367	61
2.00733	61
2.01100	61
2.01467	61
2.01833	62
2.02200	64
2.02567	65
2.02933	62
2.03300	59
2.03667	62
2.04033	66
2.04400	68
2.04767	70
2.05133	70
2.05500	71
2.05867	72
2.06233	72
2.06600	72
2.06967	73
2.07333	75
2.07700	74
2.08067	73
2.08433	72
2.08800	71
2.09167	70
2.09533	71
2.09900	73
2.10267	74
2.10633	76
2.11000	78
2.11367	81
2.11733	82
2.12100	82
2.12467	82
2.12833	81
2.13200	79
2.13567	78
2.13933	78
2.14300	82
2.14667	84
2.15033	83
2.15400	81
2.15767	81
2.16133	82
2.16500	81
2.16867	81
2.17233	82
2.17600	85
2.17967	87
2.18333	89
2.18700	90
2.19067	90
2.19433	90
2.19800	90
2.20167	91
2.20533	93
2.20900	95
2.21267	96
2.21633	100
2.22000	101
2.22367	101
2.22733	102
2.23100	105
2.23467	109
2.23833	109
2.24200	108
2.24567	109
2.24933	110
2.25300	112
2.25667	116
2.26033	117
2.26400	119
2.26767	119
2.27133	119
2.27500	120
2.27867	120
2.28233	121
2.28600	121
2.28967	122
2.29333	124
2.29700	126
2.30067	128
2.30433	129
2.30800	129
2.31167	130
2.31533	132
2.31900	132
2.32267	133
2.32633	134
2.33000	136
2.33367	139
2.33733	142
2.34100	143
2.34467	145
2.34833	146
2.35200	147
2.35567	149
2.35933	148
2.36300	146
2.36667	148
2.37033	153
2.37400	155
2.37767	157
2.38133	157
2.38500	157
2.38867	156
2.39233	157
2.39600	161
2.39967	165
2.40333	168
2.40700	170
2.41067	170
2.41433	172
2.41800	175
2.42167	178
2.42533	181
2.42900	184
2.43267	186
2.43633	189
2.44000	193
2.44367	222
2.44733	294
2.45100	356
2.45467	395
2.45833	411
2.46200	391
2.46567	350
2.46933	310
2.47300	280
2.47667	262
2.48033	254
2.48400	242
2.48767	224
2.49133	203
2.49500	181
2.49867	158
2.50233	138
2.50600	126
2.50967	120
2.51333	118
2.51700	119
2.52067	125
2.52433	136
2.52800	147
2.53167	162
2.53533	176
2.53900	186
2.54267	190
2.54633	190
2.55000	186
2.55367	176
2.55733	165
2.56100	155
2.56467	144
2.56833	134
2.57200	125
2.57567	119
2.57933	117
2.58300	118
2.58667	120
2.59033	124
2.59400	127
2.59767	125
2.60133	119
2.60500	111
2.60867	96
2.61233	79
2.61600	62
2.61967	47
2.62333	34
2.62700	22
2.63067	15
2.63433	14
2.63800	15
2.64167	21
2.64533	32
2.64900	42
2.65267	52
2.65633	64
2.66000	78
2.66367	90
2.66733	101
2.67100	110
2.67467	117
2.67833	123
2.68200	129
2.68567	133
2.68933	136
2.69300	137
2.69667	136
2.70033	136
2.70400	137
2.70767	138
2.71133	137
2.71500	137
2.71867	137
2.72233	137
2.72600	139
2.72967	139
2.73333	140
2.73700	140
2.74067	142
2.74433	147
2.74800	150
2.75167	155
2.75533	159
2.75900	162
2.76267	165
2.76633	169
2.77000	172
2.77367	173
2.77733	174
2.78100	175
2.78467	176
2.78833	179
2.79200	182
2.79567	183
2.79933	185
2.80300	187
2.80667	187
2.81033	188
2.81400	193
2.81767	203
2.82133	222
2.82500	263
2.82867	343
2.83233	480
2.83600	701
2.83967	1021
2.84333	1448
2.84700	1968
2.85067	2556
2.85433	3173
2.85800	3769
2.86167	4294
2.86533	4709
2.86900	4984
2.87267	5106
2.87633	5086
2.88000	4945
2.88367	4709
2.88733	4408
2.89100	4067
2.89467	3710
2.89833	3357
2.90200	3016
2.90567	2695
2.90933	2400
2.91300	2131
2.91667	1890
2.92033	1676
2.92400	1487
2.92767	1321
2.93133	1177
2.93500	1051
2.93867	943
2.94233	848
2.94600	766
2.94967	694
2.95333	633
2.95700	582
2.96067	539
2.96433	502
2.96800	469
2.97167	439
2.97533	415
2.97900	394
2.98267	376
2.98633	359
2.99000	343
2.99367	331
2.99733	320
3.00100	312
3.00467	304
3.00833	297
3.01200	290
3.01567	285
3.01933	280
3.02300	274
3.02667	268
3.03033	265
3.03400	262
3.03767	258
3.04133	251
3.04500	246
3.04867	244
3.05233	244
3.05600	244
3.05967	242
3.06333	238
3.06700	235
3.07067	233
3.07433	231
3.07800	230
3.08167	229
3.08533	226
3.08900	224
3.09267	219
3.09633	214
3.10000	213
3.10367	213
3.10733	213
3.11100	211
3.11467	209
3.11833	207
3.12200	210
3.12567	211
3.12933	210
3.13300	208
3.13667	205
3.14033	205
3.14400	207
3.14767	209
3.15133	211
3.15500	211
3.15867	213
3.16233	214
3.16600	214
3.16967	212
3.17333	211
3.17700	210
3.18067	210
3.18433	213
3.18800	215
3.19167	216
3.19533	217
3.19900	219
3.20267	218
3.20633	215
3.21000	213
3.21367	212
3.21733	211
3.22100	211
3.22467	211
3.22833	212
3.23200	213
3.23567	215
3.23933	217
3.24300	217
3.24667	216
3.25033	216
3.25400	216
3.25767	217
3.26133	217
3.26500	218
3.26867	217
3.27233	215
3.27600	211
3.27967	210
3.28333	209
3.28700	210
3.29067	210
3.29433	211
3.29800	211
3.30167	209
3.30533	210
3.30900	211
3.31267	211
3.31633	210
3.32000	208
3.32367	209
3.32733	209
3.33100	209
3.33467	204
3.33833	188
3.34200	154
3.34567	114
3.34933	86
3.35300	76
3.35667	83
3.36033	102
3.36400	128
3.36767	158
3.37133	194
3.37500	233
3.37867	274
3.38233	314
3.38600	354
3.38967	392
3.39333	426
3.39700	455
3.40067	481
3.40433	505
3.40800	528
3.41167	548
3.41533	565
3.41900	579
3.42267	591
3.42633	604
3.43000	613
3.43367	622
3.43733	630
3.44100	635
3.44467	639
3.44833	647
3.45200	655
3.45567	659
3.45933	663
3.46300	667
3.46667	672
3.47033	674
3.47400	675
3.47767	675
3.48133	674
3.48500	674
3.48867	673
3.49233	676
3.49600	678
3.49967	677
3.50333	676
3.50700	675
3.51067	675
3.51433	676
3.51800	676
3.52167	674
3.52533	670
3.52900	665
3.53267	663
3.53633	664
3.54000	664
3.54367	663
3.54733	658
3.55100	655
3.55467	654
3.55833	655
3.56200	653
3.56567	649
3.56933	645
3.57300	643
3.57667	642
3.58033	638
3.58400	634
3.58767	632
3.59133	630
3.59500	628
3.59867	624
3.60233	623
3.60600	623
3.60967	623
3.61333	622
3.61700	620
3.62067	617
3.62433	614
3.62800	611
3.63167	607
3.63533	604
3.63900	601
3.64267	599
3.64633	596
3.65000	594
3.65367	592
3.65733	591
3.66100	591
3.66467	591
3.66833	591
3.67200	589
3.67567	588
3.67933	586
3.68300	581
3.68667	577
3.69033	574
3.69400	571
3.69767	571
3.70133	571
3.70500	571
3.70867	572
3.71233	571
3.71600	571
3.71967	566
3.72333	562
3.72700	560
3.73067	558
3.73433	559
3.73800	558
3.74167	556
3.74533	554
3.74900	550
3.75267	547
3.75633	547
3.76000	549
3.76367	548
3.76733	547
3.77100	545
3.77467	544
3.77833	543
3.78200	543
3.78567	542
3.78933	541
3.79300	540
3.79667	536
3.80033	533
3.80400	530
3.80767	530
3.81133	530
3.81500	528
3.81867	528
3.82233	526
3.82600	525
3.82967	524
3.83333	523
3.83700	523
3.84067	524
3.84433	522
3.84800	520
3.85167	518
3.85533	517
3.85900	518
3.86267	520
3.86633	523
3.87000	524
3.87367	523
3.87733	521
3.88100	520
3.88467	520
3.88833	522
3.89200	522
3.89567	518
3.89933	514
3.90300	514
3.90667	515
3.91033	516
3.91400	517
3.91767	518
3.92133	516
3.92500	514
3.92867	512
3.93233	509
3.93600	510
3.93967	509
3.94333	506
3.94700	503
3.95067	501
3.95433	499
3.95800	500
3.96167	502
3.96533	504
3.96900	504
3.97267	503
3.97633	502
3.98000	503
3.98367	504
3.98733	504
3.99100	503
3.99467	502
3.99833	498

[Status Trace (Column Oven Temperature)]
Interval(msec)	1000
# of Points	240
Start Time(min)	0.009
End Time(min)	3.993
Intensity Units	
Intensity Multiplier	1
R.Time (min)	Intensity
0.00950	35.05
0.02617	35.04
0.04283	35.04
0.05950	35.03
0.07617	35.03
0.09283	35.02
0.10950	35.01
0.12617	35.01
0.14283	35.02
0.15950	35.03
0.17617	35.03
0.19283	35.04
0.20950	35.04
0.22617	35.04
0.24283	35.03
0.25950	35.02
0.27617	35.02
0.29283	35.02
0.30950	35.00
0.32617	35.00
0.34283	34.99
0.35950	34.98
0.37617	34.98
0.39283	34.98
0.40950	34.98
0.42617	34.98
0.44283	34.98
0.45950	34.99
0.47617	34.99
0.49283	35.01
0.50950	35.01
0.52617	35.00
0.54283	35.01
0.55950	35.01
0.57617	35.03
0.59283	35.03
0.60950	35.01
0.62617	35.00
0.64283	34.99
0.65950	34.98
0.67617	34.98
0.69283	34.98
0.70950	34.98
0.72617	34.99
0.74283	34.99
0.75950	34.99
0.77617	34.99
0.79283	34.99
0.80950	34.99
0.82617	34.98
0.84283	34.97
0.85950	34.96
0.87617	34.97
0.89283	34.97
0.90950	34.98
0.92617	34.97
0.94283	34.97
0.95950	34.97
0.97617	34.97
0.99283	34.97
1.00950	34.97
1.02617	34.99
1.04283	35.02
1.05950	35.04
1.07617	35.04
1.09283	35.04
1.10950	35.02
1.12617	35.00
1.14283	34.98
1.15950	34.97
1.17617	34.96
1.19283	34.95
1.20950	34.95
1.22617	34.96
1.24283	34.98
1.25950	34.98
1.27617	34.99
1.29283	34.99
1.30950	34.99
1.32617	34.99
1.34283	35.00
1.35950	34.99
1.37617	35.00
1.39283	34.99
1.40950	34.99
1.42617	35.00
1.44283	35.01
1.45950	35.01
1.47617	35.00
1.49283	34.99
1.50950	34.99
1.52617	34.98
1.54283	34.98
1.55950	34.98
1.57617	34.99
1.59283	35.02
1.60950	35.08
1.62617	35.21
1.64283	35.40
1.65950	35.64
1.67617	35.98
1.69283	36.36
1.70950	36.71
1.72617	37.06
1.74283	37.40
1.75950	37.69
1.77617	38.01
1.79283	38.36
1.80950	38.68
1.82617	39.00
1.84283	39.36
1.85950	39.68
1.87617	40.02
1.89283	40.37
1.90950	40.69
1.92617	41.03
1.94283	41.37
1.95950	41.68
1.97617	42.01
1.99283	42.34
2.00950	42.66
2.02617	42.98
2.04283	43.31
2.05950	43.62
2.07617	43.95
2.09283	44.30
2.10950	44.59
2.12617	44.92
2.14283	45.25
2.15950	45.56
2.17617	45.89
2.19283	46.22
2.20950	46.55
2.22617	46.89
2.24283	47.19
2.25950	47.53
2.27617	47.86
2.29283	48.19
2.30950	48.53
2.32617	48.84
2.34283	49.19
2.35950	49.46
2.37617	49.61
2.39283	49.65
2.40950	49.63
2.42617	49.67
2.44283	49.66
2.45950	49.69
2.47617	49.70
2.49283	49.71
2.50950	49.72
2.52617	49.74
2.54283	49.74
2.55950	49.77
2.57617	49.77
2.59283	49.79
2.60950	49.80
2.62617	49.81
2.64283	49.83
2.65950	49.84
2.67617	49.86
2.69283	49.84
2.70950	49.84
2.72617	49.86
2.74283	49.87
2.75950	49.87
2.77617	49.87
2.79283	49.86
2.80950	49.86
2.82617	49.87
2.84283	49.86
2.85950	49.86
2.87617	49.87
2.89283	49.89
2.90950	49.91
2.92617	49.92
2.94283	49.93
2.95950	49.95
2.97617	49.97
2.99283	50.00
3.00950	50.01
3.02617	50.02
3.04283	50.04
3.05950	50.05
3.07617	50.06
3.09283	50.07
3.10950	50.08
3.12617	50.09
3.14283	50.10
3.15950	50.10
3.17617	50.10
3.19283	50.09
3.20950	50.08
3.22617	50.08
3.24283	50.07
3.25950	50.07
3.27617	50.06
3.29283	50.06
3.30950	50.05
3.32617	50.05
3.34283	50.05
3.35950	50.06
3.37617	50.07
3.39283	50.07
3.40950	50.08
3.42617	50.08
3.44283	50.08
3.45950	50.07
3.47617	50.07
3.49283	50.09
3.50950	50.09
3.52617	50.09
3.54283	50.09
3.55950	50.08
3.57617	50.06
3.59283	50.07
3.60950	50.07
3.62617	50.07
3.64283	50.07
3.65950	50.07
3.67617	50.08
3.69283	50.08
3.70950	50.08
3.72617	50.09
3.74283	50.09
3.75950	50.09
3.77617	50.09
3.79283	50.09
3.80950	50.09
3.82617	50.09
3.84283	50.08
3.85950	50.08
3.87617	50.07
3.89283	50.07
3.90950	50.07
3.92617	50.07
3.94283	50.07
3.95950	50.07
3.97617	50.07
3.99283	50.08

[Status Trace (Injection Unit Temperature)]
Interval(msec)	1000
# of Points	240
Start Time(min)	0.009
End Time(min)	3.993
Intensity Units	
Intensity Multiplier	1
R.Time (min)	Intensity
0.00950	99.97
0.02617	99.97
0.04283	99.98
0.05950	99.98
0.07617	99.98
0.09283	99.98
0.10950	99.98
0.12617	99.98
0.14283	99.98
0.15950	99.98
0.17617	99.98
0.19283	99.98
0.20950	99.98
0.22617	99.98
0.24283	99.99
0.25950	99.98
0.27617	99.98
0.29283	99.99
0.30950	99.99
0.32617	99.99
0.34283	99.98
0.35950	99.98
0.37617	99.99
0.39283	99.99
0.40950	99.98
0.42617	99.99
0.44283	99.98
0.45950	99.99
0.47617	99.99
0.49283	99.99
0.50950	99.98
0.52617	99.98
0.54283	99.98
0.55950	99.98
0.57617	99.98
0.59283	99.98
0.60950	99.98
0.62617	99.98
0.64283	99.98
0.65950	99.98
0.67617	99.98
0.69283	99.98
0.70950	99.98
0.72617	99.98
0.74283	99.98
0.75950	99.98
0.77617	99.98
0.79283	99.98
0.80950	99.98
0.82617	99.98
0.84283	99.97
0.85950	99.98
0.87617	99.98
0.89283	99.98
0.90950	99.98
0.92617	99.98
0.94283	99.98
0.95950	99.98
0.97617	99.98
0.99283	99.98
1.00950	99.98
1.02617	99.98
1.04283	99.98
1.05950	99.98
1.07617	99.98
1.09283	99.98
1.10950	99.98
1.12617	99.98
1.14283	99.98
1.15950	99.98
1.17617	99.98
1.19283	99.98
1.20950	99.98
1.22617	99.98
1.24283	99.98
1.25950	99.98
1.27617	99.99
1.29283	99.98
1.30950	99.98
1.32617	99.98
1.34283	99.98
1.35950	99.98
1.37617	99.98
1.39283	99.97
1.40950	99.98
1.42617	99.99
1.44283	99.98
1.45950	99.98
1.47617	99.98
1.49283	99.98
1.50950	99.98
1.52617	99.98
1.54283	99.98
1.55950	99.99
1.57617	99.98
1.59283	99.98
1.60950	99.98
1.62617	99.98
1.64283	99.98
1.65950	99.98
1.67617	99.98
1.69283	99.98
1.70950	99.98
1.72617	99.98
1.74283	99.98
1.75950	99.97
1.77617	99.98
1.79283	99.98
1.80950	99.98
1.82617	99.98
1.84283	99.97
1.85950	99.98
1.87617	99.98
1.89283	99.98
1.90950	99.98
1.92617	99.98
1.94283	99.97
1.95950	99.97
1.97617	99.97
1.99283	99.97
2.00950	99.97
2.02617	99.97
2.04283	99.97
2.05950	99.97
2.07617	99.98
2.09283	99.97
2.10950	99.97
2.12617	99.97
2.14283	99.97
2.15950	99.97
2.17617	99.97
2.19283	99.97
2.20950	99.97
2.22617	99.97
2.24283	99.97
2.25950	99.97
2.27617	99.97
2.29283	99.97
2.30950	99.97
2.32617	99.97
2.34283	99.97
2.35950	99.97
2.37617	99.97
2.39283	99.97
2.40950	99.97
2.42617	99.97
2.44283	99.97
2.45950	99.97
2.47617	99.97
2.49283	99.97
2.50950	99.97
2.52617	99.97
2.54283	99.97
2.55950	99.97
2.57617	99.97
2.59283	99.97
2.60950	99.98
2.62617	99.97
2.64283	99.98
2.65950	99.97
2.67617	99.98
2.69283	99.98
2.70950	99.98
2.72617	99.98
2.74283	99.98
2.75950	99.99
2.77617	99.99
2.79283	99.98
2.80950	99.99
2.82617	100.00
2.84283	99.99
2.85950	99.99
2.87617	100.00
2.89283	100.00
2.90950	100.00
2.92617	100.00
2.94283	100.00
2.95950	100.01
2.97617	100.00
2.99283	100.01
3.00950	100.01
3.02617	100.02
3.04283	100.01
3.05950	100.01
3.07617	100.02
3.09283	100.02
3.10950	100.01
3.12617	100.02
3.14283	100.02
3.15950	100.02
3.17617	100.02
3.19283	100.02
3.20950	100.02
3.22617	100.02
3.24283	100.03
3.25950	100.03
3.27617	100.03
3.29283	100.03
3.30950	100.03
3.32617	100.03
3.34283	100.03
3.35950	100.03
3.37617	100.03
3.39283	100.03
3.40950	100.03
3.42617	100.03
3.44283	100.03
3.45950	100.03
3.47617	100.03
3.49283	100.03
3.50950	100.03
3.52617	100.03
3.54283	100.03
3.55950	100.04
3.57617	100.03
3.59283	100.03
3.60950	100.03
3.62617	100.03
3.64283	100.04
3.65950	100.04
3.67617	100.03
3.69283	100.04
3.70950	100.03
3.72617	100.04
3.74283	100.03
3.75950	100.04
3.77617	100.04
3.79283	100.03
3.80950	100.04
3.82617	100.04
3.84283	100.04
3.85950	100.04
3.87617	100.04
3.89283	100.04
3.90950	100.04
3.92617	100.04
3.94283	100.04
3.95950	100.04
3.97617	100.04
3.99283	100.04

[Status Trace (Carrier Gas Pressure)]
Interval(msec)	1000
# of Points	240
Start Time(min)	0.009
End Time(min)	3.993
Intensity Units	
Intensity Multiplier	1
R.Time (min)	Intensity
0.00950	58.00
0.02617	55.22
0.04283	57.32
0.05950	59.46
0.07617	59.30
0.09283	58.04
0.10950	57.99
0.12617	58.01
0.14283	58.01
0.15950	58.01
0.17617	58.00
0.19283	58.00
0.20950	58.00
0.22617	58.00
0.24283	58.00
0.25950	58.00
0.27617	58.00
0.29283	58.00
0.30950	58.00
0.32617	58.00
0.34283	58.00
0.35950	58.00
0.37617	58.00
0.39283	58.00
0.40950	58.00
0.42617	58.00
0.44283	58.00
0.45950	58.00
0.47617	58.00
0.49283	58.00
0.50950	58.00
0.52617	58.00
0.54283	58.00
0.55950	58.00
0.57617	58.00
0.59283	58.00
0.60950	58.00
0.62617	58.00
0.64283	58.00
0.65950	58.00
0.67617	58.00
0.69283	58.00
0.70950	58.00
0.72617	58.00
0.74283	58.00
0.75950	58.00
0.77617	58.00
0.79283	58.00
0.80950	58.00
0.82617	58.00
0.84283	58.00
0.85950	58.00
0.87617	58.00
0.89283	58.00
0.90950	58.00
0.92617	58.00
0.94283	58.00
0.95950	58.00
0.97617	58.00
0.99283	58.00
1.00950	58.00
1.02617	58.00
1.04283	58.00
1.05950	58.00
1.07617	58.00
1.09283	58.00
1.10950	58.00
1.12617	58.00
1.14283	58.00
1.15950	58.00
1.17617	58.00
1.19283	58.00
1.20950	58.00
1.22617	58.00
1.24283	58.00
1.25950	58.00
1.27617	58.00
1.29283	58.00
1.30950	58.00
1.32617	58.00
1.34283	58.00
1.35950	58.00
1.37617	58.00
1.39283	58.00
1.40950	58.00
1.42617	58.00
1.44283	58.00
1.45950	58.00
1.47617	58.00
1.49283	58.00
1.50950	58.00
1.52617	58.00
1.54283	58.00
1.55950	58.00
1.57617	58.00
1.59283	58.00
1.60950	58.00
1.62617	58.00
1.64283	58.00
1.65950	58.00
1.67617	58.01
1.69283	58.00
1.70950	58.00
1.72617	58.00
1.74283	58.00
1.75950	58.00
1.77617	58.00
1.79283	58.00
1.80950	58.00
1.82617	58.00
1.84283	58.00
1.85950	58.00
1.87617	58.00
1.89283	58.00
1.90950	58.00
1.92617	58.00
1.94283	58.00
1.95950	58.00
1.97617	58.00
1.99283	58.00
2.00950	58.00
2.02617	58.00
2.04283	58.00
2.05950	58.00
2.07617	58.00
2.09283	58.00
2.10950	58.00
2.12617	58.00
2.14283	58.00
2.15950	58.00
2.17617	58.00
2.19283	58.00
2.20950	58.00
2.22617	58.00
2.24283	58.00
2.25950	58.00
2.27617	58.00
2.29283	58.00
2.30950	58.00
2.32617	58.00
2.34283	58.00
2.35950	58.00
2.37617	57.99
2.39283	57.99
2.40950	57.99
2.42617	58.00
2.44283	58.00
2.45950	58.00
2.47617	58.00
2.49283	58.00
2.50950	58.00
2.52617	57.99
2.54283	58.00
2.55950	58.00
2.57617	58.00
2.59283	58.00
2.60950	58.00
2.62617	58.00
2.64283	58.00
2.65950	58.00
2.67617	58.00
2.69283	58.00
2.70950	58.00
2.72617	58.00
2.74283	58.00
2.75950	58.00
2.77617	58.00
2.79283	58.00
2.80950	58.00
2.82617	58.00
2.84283	58.00
2.85950	58.00
2.87617	58.00
2.89283	58.00
2.90950	58.00
2.92617	58.00
2.94283	58.00
2.95950	58.00
2.97617	58.00
2.99283	58.00
3.00950	58.00
3.02617	58.00
3.04283	58.00
3.05950	58.00
3.07617	58.00
3.09283	58.00
3.10950	58.00
3.12617	58.00
3.14283	58.00
3.15950	58.00
3.17617	58.00
3.19283	58.00
3.20950	58.00
3.22617	58.00
3.24283	58.00
3.25950	58.00
3.27617	58.00
3.29283	58.00
3.30950	58.00
3.32617	58.00
3.34283	58.00
3.35950	58.00
3.37617	58.00
3.39283	58.00
3.40950	58.00
3.42617	58.00
3.44283	58.00
3.45950	58.00
3.47617	58.00
3.49283	58.00
3.50950	58.00
3.52617	58.00
3.54283	58.00
3.55950	58.00
3.57617	58.00
3.59283	58.00
3.60950	58.00
3.62617	58.00
3.64283	58.00
3.65950	58.00
3.67617	58.00
3.69283	58.00
3.70950	58.00
3.72617	58.00
3.74283	58.00
3.75950	58.00
3.77617	58.00
3.79283	58.00
3.80950	58.00
3.82617	58.00
3.84283	58.00
3.85950	58.00
3.87617	58.00
3.89283	58.00
3.90950	58.00
3.92617	58.00
3.94283	58.00
3.95950	58.00
3.97617	58.00
3.99283	58.00

[Status Trace (Carrier Gas Flow)]
Interval(msec)	1000
# of Points	240
Start Time(min)	0.009
End Time(min)	3.993
Intensity Units	
Intensity Multiplier	1
R.Time (min)	Intensity
0.00950	34.52
0.02617	34.53
0.04283	34.54
0.05950	34.54
0.07617	34.50
0.09283	34.52
0.10950	34.52
0.12617	34.51
0.14283	34.52
0.15950	34.52
0.17617	34.52
0.19283	34.51
0.20950	34.52
0.22617	34.52
0.24283	34.52
0.25950	34.52
0.27617	34.52
0.29283	34.52
0.30950	34.52
0.32617	34.52
0.34283	34.52
0.35950	34.52
0.37617	34.52
0.39283	34.52
0.40950	34.52
0.42617	34.52
0.44283	34.52
0.45950	34.52
0.47617	34.52
0.49283	34.52
0.50950	34.52
0.52617	34.52
0.54283	34.52
0.55950	34.51
0.57617	34.52
0.59283	34.52
0.60950	34.51
0.62617	34.52
0.64283	34.52
0.65950	34.52
0.67617	34.51
0.69283	34.52
0.70950	34.51
0.72617	34.52
0.74283	34.52
0.75950	34.52
0.77617	34.52
0.79283	34.53
0.80950	34.52
0.82617	34.52
0.84283	34.52
0.85950	34.51
0.87617	34.52
0.89283	34.52
0.90950	34.52
0.92617	34.52
0.94283	34.52
0.95950	34.53
0.97617	34.52
0.99283	34.52
1.00950	34.52
1.02617	34.52
1.04283	34.51
1.05950	34.52
1.07617	34.52
1.09283	34.52
1.10950	34.52
1.12617	34.53
1.14283	34.51
1.15950	34.52
1.17617	34.52
1.19283	34.51
1.20950	34.52
1.22617	34.51
1.24283	34.52
1.25950	34.52
1.27617	34.52
1.29283	34.51
1.30950	34.52
1.32617	34.52
1.34283	34.53
1.35950	34.52
1.37617	34.52
1.39283	34.52
1.40950	34.52
1.42617	34.52
1.44283	34.52
1.45950	34.52
1.47617	34.52
1.49283	34.51
1.50950	34.52
1.52617	34.52
1.54283	34.52
1.55950	34.52
1.57617	34.52
1.59283	34.52
1.60950	34.52
1.62617	34.52
1.64283	34.52
1.65950	34.52
1.67617	34.52
1.69283	34.52
1.70950	34.52
1.72617	34.52
1.74283	34.52
1.75950	34.52
1.77617	34.52
1.79283	34.52
1.80950	34.51
1.82617	34.52
1.84283	34.52
1.85950	34.52
1.87617	34.51
1.89283	34.52
1.90950	34.52
1.92617	34.52
1.94283	34.52
1.95950	34.52
1.97617	34.51
1.99283	34.52
2.00950	34.52
2.02617	34.52
2.04283	34.52
2.05950	34.52
2.07617	34.52
2.09283	34.52
2.10950	34.51
2.12617	34.51
2.14283	34.52
2.15950	34.52
2.17617	34.52
2.19283	34.52
2.20950	34.52
2.22617	34.52
2.24283	34.51
2.25950	34.51
2.27617	34.52
2.29283	34.52
2.30950	34.52
2.32617	34.52
2.34283	34.52
2.35950	34.52
2.37617	34.52
2.39283	34.51
2.40950	34.51
2.42617	34.52
2.44283	34.52
2.45950	34.52
2.47617	34.52
2.49283	34.52
2.50950	34.51
2.52617	34.51
2.54283	34.52
2.55950	34.52
2.57617	34.52
2.59283	34.52
2.60950	34.52
2.62617	34.52
2.64283	34.52
2.65950	34.52
2.67617	34.51
2.69283	34.51
2.70950	34.52
2.72617	34.52
2.74283	34.52
2.75950	34.52
2.77617	34.52
2.79283	34.52
2.80950	34.52
2.82617	34.52
2.84283	34.52
2.85950	34.52
2.87617	34.52
2.89283	34.52
2.90950	34.52
2.92617	34.51
2.94283	34.52
2.95950	34.52
2.97617	34.51
2.99283	34.52
3.00950	34.52
3.02617	34.52
3.04283	34.51
3.05950	34.51
3.07617	34.52
3.09283	34.53
3.10950	34.52
3.12617	34.52
3.14283	34.51
3.15950	34.51
3.17617	34.52
3.19283	34.52
3.20950	34.52
3.22617	34.52
3.24283	34.52
3.25950	34.52
3.27617	34.51
3.29283	34.52
3.30950	34.52
3.32617	34.52
3.34283	34.51
3.35950	34.51
3.37617	34.52
3.39283	34.51
3.40950	34.51
3.42617	34.52
3.44283	34.52
3.45950	34.52
3.47617	34.52
3.49283	34.52
3.50950	34.52
3.52617	34.52
3.54283	34.52
3.55950	34.52
3.57617	34.51
3.59283	34.51
3.60950	34.51
3.62617	34.51
3.64283	34.51
3.65950	34.52
3.67617	34.53
3.69283	34.52
3.70950	34.52
3.72617	34.51
3.74283	34.52
3.75950	34.52
3.77617	34.51
3.79283	34.51
3.80950	34.53
3.82617	34.52
3.84283	34.52
3.85950	34.53
3.87617	34.52
3.89283	34.53
3.90950	34.51
3.92617	34.52
3.94283	34.52
3.95950	34.52
3.97617	34.52
3.99283	34.53

[Status Trace (Column Flow)]
Interval(msec)	1000
# of Points	240
Start Time(min)	0.009
End Time(min)	3.993
Intensity Units	
Intensity Multiplier	1
R.Time (min)	Intensity
0.00950	5.57
0.02617	5.25
0.04283	5.49
0.05950	5.74
0.07617	5.72
0.09283	5.58
0.10950	5.57
0.12617	5.57
0.14283	5.57
0.15950	5.57
0.17617	5.57
0.19283	5.57
0.20950	5.57
0.22617	5.57
0.24283	5.57
0.25950	5.57
0.27617	5.57
0.29283	5.57
0.30950	5.57
0.32617	5.57
0.34283	5.57
0.35950	5.57
0.37617	5.57
0.39283	5.57
0.40950	5.57
0.42617	5.57
0.44283	5.57
0.45950	5.57
0.47617	5.57
0.49283	5.57
0.50950	5.57
0.52617	5.57
0.54283	5.57
0.55950	5.57
0.57617	5.57
0.59283	5.57
0.60950	5.57
0.62617	5.57
0.64283	5.57
0.65950	5.57
0.67617	5.57
0.69283	5.57
0.70950	5.57
0.72617	5.57
0.74283	5.57
0.75950	5.57
0.77617	5.57
0.79283	5.57
0.80950	5.57
0.82617	5.57
0.84283	5.57
0.85950	5.57
0.87617	5.57
0.89283	5.57
0.90950	5.57
0.92617	5.57
0.94283	5.57
0.95950	5.57
0.97617	5.57
0.99283	5.57
1.00950	5.57
1.02617	5.57
1.04283	5.57
1.05950	5.57
1.07617	5.57
1.09283	5.57
1.10950	5.57
1.12617	5.57
1.14283	5.57
1.15950	5.57
1.17617	5.57
1.19283	5.57
1.20950	5.57
1.22617	5.57
1.24283	5.57
1.25950	5.57
1.27617	5.57
1.29283	5.57
1.30950	5.57
1.32617	5.57
1.34283	5.57
1.35950	5.57
1.37617	5.57
1.39283	5.57
1.40950	5.57
1.42617	5.57
1.44283	5.57
1.45950	5.57
1.47617	5.57
1.49283	5.57
1.50950	5.57
1.52617	5.57
1.54283	5.57
1.55950	5.57
1.57617	5.57
1.59283	5.57
1.60950	5.57
1.62617	5.57
1.64283	5.56
1.65950	5.55
1.67617	5.54
1.69283	5.53
1.70950	5.52
1.72617	5.51
1.74283	5.50
1.75950	5.49
1.77617	5.48
1.79283	5.47
1.80950	5.46
1.82617	5.45
1.84283	5.44
1.85950	5.43
1.87617	5.42
1.89283	5.41
1.90950	5.40
1.92617	5.39
1.94283	5.38
1.95950	5.37
1.97617	5.36
1.99283	5.35
2.00950	5.34
2.02617	5.33
2.04283	5.32
2.05950	5.31
2.07617	5.30
2.09283	5.29
2.10950	5.28
2.12617	5.27
2.14283	5.26
2.15950	5.25
2.17617	5.24
2.19283	5.23
2.20950	5.22
2.22617	5.21
2.24283	5.20
2.25950	5.19
2.27617	5.19
2.29283	5.18
2.30950	5.17
2.32617	5.16
2.34283	5.15
2.35950	5.14
2.37617	5.14
2.39283	5.13
2.40950	5.13
2.42617	5.13
2.44283	5.13
2.45950	5.13
2.47617	5.13
2.49283	5.13
2.50950	5.13
2.52617	5.13
2.54283	5.13
2.55950	5.13
2.57617	5.13
2.59283	5.13
2.60950	5.13
2.62617	5.13
2.64283	5.13
2.65950	5.13
2.67617	5.13
2.69283	5.13
2.70950	5.13
2.72617	5.13
2.74283	5.13
2.75950	5.13
2.77617	5.13
2.79283	5.13
2.80950	5.13
2.82617	5.13
2.84283	5.13
2.85950	5.13
2.87617	5.13
2.89283	5.13
2.90950	5.13
2.92617	5.13
2.94283	5.13
2.95950	5.13
2.97617	5.13
2.99283	5.12
3.00950	5.12
3.02617	5.12
3.04283	5.12
3.05950	5.12
3.07617	5.12
3.09283	5.12
3.10950	5.12
3.12617	5.12
3.14283	5.12
3.15950	5.12
3.17617	5.12
3.19283	5.12
3.20950	5.12
3.22617	5.12
3.24283	5.12
3.25950	5.12
3.27617	5.12
3.29283	5.12
3.30950	5.12
3.32617	5.12
3.34283	5.12
3.35950	5.12
3.37617	5.12
3.39283	5.12
3.40950	5.12
3.42617	5.12
3.44283	5.12
3.45950	5.12
3.47617	5.12
3.49283	5.12
3.50950	5.12
3.52617	5.12
3.54283	5.12
3.55950	5.12
3.57617	5.12
3.59283	5.12
3.60950	5.12
3.62617	5.12
3.64283	5.12
3.65950	5.12
3.67617	5.12
3.69283	5.12
3.70950	5.12
3.72617	5.12
3.74283	5.12
3.75950	5.12
3.77617	5.12
3.79283	5.12
3.80950	5.12
3.82617	5.12
3.84283	5.12
3.85950	5.12
3.87617	5.12
3.89283	5.12
3.90950	5.12
3.92617	5.12
3.94283	5.12
3.95950	5.12
3.97617	5.12
3.99283	5.12

[Status Trace (Linear Velocity)]
Interval(msec)	1000
# of Points	240
Start Time(min)	0.009
End Time(min)	3.993
Intensity Units	
Intensity Multiplier	1
R.Time (min)	Intensity
0.00950	39.02
0.02617	37.20
0.04283	38.58
0.05950	39.98
0.07617	39.88
0.09283	39.05
0.10950	39.02
0.12617	39.03
0.14283	39.03
0.15950	39.03
0.17617	39.03
0.19283	39.03
0.20950	39.03
0.22617	39.03
0.24283	39.03
0.25950	39.03
0.27617	39.03
0.29283	39.03
0.30950	39.03
0.32617	39.03
0.34283	39.03
0.35950	39.03
0.37617	39.03
0.39283	39.03
0.40950	39.03
0.42617	39.03
0.44283	39.03
0.45950	39.03
0.47617	39.03
0.49283	39.03
0.50950	39.03
0.52617	39.03
0.54283	39.03
0.55950	39.03
0.57617	39.03
0.59283	39.03
0.60950	39.03
0.62617	39.03
0.64283	39.03
0.65950	39.03
0.67617	39.03
0.69283	39.03
0.70950	39.03
0.72617	39.03
0.74283	39.03
0.75950	39.03
0.77617	39.03
0.79283	39.03
0.80950	39.03
0.82617	39.03
0.84283	39.03
0.85950	39.03
0.87617	39.03
0.89283	39.03
0.90950	39.03
0.92617	39.03
0.94283	39.03
0.95950	39.03
0.97617	39.03
0.99283	39.03
1.00950	39.03
1.02617	39.03
1.04283	39.03
1.05950	39.02
1.07617	39.02
1.09283	39.02
1.10950	39.03
1.12617	39.03
1.14283	39.03
1.15950	39.03
1.17617	39.03
1.19283	39.03
1.20950	39.03
1.22617	39.03
1.24283	39.03
1.25950	39.03
1.27617	39.03
1.29283	39.03
1.30950	39.03
1.32617	39.03
1.34283	39.03
1.35950	39.03
1.37617	39.03
1.39283	39.03
1.40950	39.03
1.42617	39.03
1.44283	39.03
1.45950	39.03
1.47617	39.03
1.49283	39.03
1.50950	39.03
1.52617	39.03
1.54283	39.03
1.55950	39.03
1.57617	39.03
1.59283	39.03
1.60950	39.02
1.62617	39.01
1.64283	38.99
1.65950	38.97
1.67617	38.94
1.69283	38.90
1.70950	38.87
1.72617	38.84
1.74283	38.80
1.75950	38.77
1.77617	38.74
1.79283	38.71
1.80950	38.68
1.82617	38.65
1.84283	38.61
1.85950	38.58
1.87617	38.56
1.89283	38.52
1.90950	38.49
1.92617	38.46
1.94283	38.43
1.95950	38.40
1.97617	38.37
1.99283	38.34
2.00950	38.31
2.02617	38.28
2.04283	38.25
2.05950	38.22
2.07617	38.19
2.09283	38.16
2.10950	38.13
2.12617	38.10
2.14283	38.07
2.15950	38.04
2.17617	38.02
2.19283	37.98
2.20950	37.95
2.22617	37.92
2.24283	37.89
2.25950	37.86
2.27617	37.84
2.29283	37.80
2.30950	37.77
2.32617	37.75
2.34283	37.72
2.35950	37.69
2.37617	37.68
2.39283	37.67
2.40950	37.67
2.42617	37.67
2.44283	37.67
2.45950	37.67
2.47617	37.67
2.49283	37.67
2.50950	37.67
2.52617	37.66
2.54283	37.67
2.55950	37.67
2.57617	37.66
2.59283	37.66
2.60950	37.66
2.62617	37.66
2.64283	37.66
2.65950	37.66
2.67617	37.66
2.69283	37.66
2.70950	37.66
2.72617	37.66
2.74283	37.66
2.75950	37.66
2.77617	37.65
2.79283	37.66
2.80950	37.66
2.82617	37.66
2.84283	37.66
2.85950	37.66
2.87617	37.66
2.89283	37.65
2.90950	37.65
2.92617	37.65
2.94283	37.65
2.95950	37.65
2.97617	37.65
2.99283	37.64
3.00950	37.64
3.02617	37.64
3.04283	37.64
3.05950	37.64
3.07617	37.64
3.09283	37.64
3.10950	37.64
3.12617	37.64
3.14283	37.64
3.15950	37.63
3.17617	37.63
3.19283	37.64
3.20950	37.64
3.22617	37.64
3.24283	37.64
3.25950	37.64
3.27617	37.64
3.29283	37.64
3.30950	37.64
3.32617	37.64
3.34283	37.64
3.35950	37.64
3.37617	37.64
3.39283	37.64
3.40950	37.64
3.42617	37.64
3.44283	37.64
3.45950	37.64
3.47617	37.64
3.49283	37.64
3.50950	37.64
3.52617	37.64
3.54283	37.64
3.55950	37.64
3.57617	37.64
3.59283	37.64
3.60950	37.64
3.62617	37.64
3.64283	37.64
3.65950	37.64
3.67617	37.64
3.69283	37.64
3.70950	37.64
3.72617	37.64
3.74283	37.64
3.75950	37.64
3.77617	37.64
3.79283	37.64
3.80950	37.64
3.82617	37.64
3.84283	37.64
3.85950	37.64
3.87617	37.64
3.89283	37.64
3.90950	37.64
3.92617	37.64
3.94283	37.64
3.95950	37.64
3.97617	37.64
3.99283	37.64

