[Header]
Application Name	LabSolutions
Version	5.110
Data File Name	C:\Users\User\Desktop\GC Analyses\Jack\Nachusa Grasslands Sampling\T1 Timepoint July 12th\T1_07122022_041.gcd
Output Date	3/14/2023
Output Time	3:40:59 PM

[File Information]
Type	Data File
Generated	3/8/2023 5:44:37 PM
Generated by	System Administrator
Modified	3/8/2023 5:51:24 PM
Modified by	System Administrator

[Sample Information]
Operator Name	System Administrator
Acquired	3/8/2023 5:47:23 PM
Sample Type	0:Unknown
Level	0
Sample Name	041
Sample ID	041
ISTD Amount1	1
ISTD Amount2	1
ISTD Amount3	1
ISTD Amount4	1
ISTD Amount5	1
ISTD Amount6	1
ISTD Amount7	1
ISTD Amount8	1
ISTD Amount9	1
ISTD Amount10	1
ISTD Amount11	1
ISTD Amount12	1
ISTD Amount13	1
ISTD Amount14	1
ISTD Amount15	1
ISTD Amount16	1
ISTD Amount17	1
ISTD Amount18	1
ISTD Amount19	1
ISTD Amount20	1
ISTD Amount21	1
ISTD Amount22	1
ISTD Amount23	1
ISTD Amount24	1
ISTD Amount25	1
ISTD Amount26	1
ISTD Amount27	1
ISTD Amount28	1
ISTD Amount29	1
ISTD Amount30	1
ISTD Amount31	1
ISTD Amount32	1
Sample Amount	1
Dilution Factor	1
Vial#	40
Injection Volume	1
Injection Count	1
Bar Code	

[Original Files]
Data File	C:\Users\User\Desktop\GC Analyses\Jack\Nachusa Grasslands Sampling\T1 Timepoint July 12th\T1_07122022_041.gcd
Method File	C:\LabSolutions\Data\GHG_4min_2022\ghg3_togas_w_acet_4 min_new_int.gcm
Batch File	C:\LabSolutions\Data\AutoSamplerTesting\T1_07122022.gcb
Report Format File	c:\LabSolutions\System\DEFAULT.lsr

[File Description]


[Configuration]
Instrument Name	C0B7VH3-Instrument1
Instrument #	1
Line #	1
# of Detectors	3
Detector ID	DET#1	DET#2	DET#3
Detector Name	FID	PTCD	ECD
# of Channels	1	1	1

[Peak Table(Ch1)]
# of Peaks	3
Peak#	R.Time	I.Time	F.Time	Area	Height	A/H	Conc.	Mark	ID#	Name	k'	Plate #	Plate Ht.	Tailing	Resolution	Sep.Factor	Area Ratio	Height Ratio	Conc. %	Norm Conc.
1	1.461	1.435	1.534	2645	731	3.620	18.672	   	1	CO	0.000	4268	35.142	0.000	0.000	0.000	0	0	2.021	2.021
2	1.567	1.534	1.637	19678	9880	1.992	380.489	 V 	2	CH4	0.073	11304	13.270	1.256	1.433	0.000	0	0	41.192	41.192
3	1.996	1.949	2.546	2089987	985536	2.121	524.530	   	3	CO2	0.366	17090	8.777	1.293	7.147	5.034	0	0	56.786	56.786

[Peak Table(Ch2)]
# of Peaks	0

[Peak Table(Ch3)]
# of Peaks	5
Peak#	R.Time	I.Time	F.Time	Area	Height	A/H	Conc.	Mark	ID#	Name	k'	Plate #	Plate Ht.	Tailing	Resolution	Sep.Factor	Area Ratio	Height Ratio	Conc. %	Norm Conc.
1	2.462	2.165	2.517	2638	505	5.225	0.000	   			0.000	7168	20.926	0.000	0.000	0.000	0	0	0.000	0.000
2	2.539	2.517	2.631	1276	299	4.262	0.000	 V 			0.031	3007	49.880	0.000	0.511	0.000	0	0	0.000	0.000
3	2.686	2.642	2.730	306	75	4.080	0.000	   			0.091	1479	101.430	0.000	0.631	2.905	0	0	0.000	0.000
4	2.873	2.730	3.078	59598	15128	3.940	1.522	 V 	1	N2O	0.167	12531	11.971	1.656	0.979	1.836	0	0	100.000	100.000
5	3.221	3.082	3.995	15166	493	30.734	0.000	   	2	SF6	0.308	265	566.265	3.298	0.779	1.848	0	0	0.000	0.000

[Compound Results(Ch1)]
# of IDs	6
ID#	Name	R.Time	Area	Height	Conc.	Curve	3rd	2nd	1st	Constant	Area Ratio	Height Ratio	Conc. %	Norm Conc.
1	CO	1.461	2645	731	18.672	Linear	0.000000e+00	0.000000e+00	1.416423e+002	0.000000e+00	0	0	2.021	2.021
2	CH4	1.567	19678	9880	380.489	Linear	0.000000e+00	0.000000e+00	5.171738e+001	0.000000e+00	0	0	41.192	41.192
3	CO2	1.996	2089987	985536	524.530	Linear	0.000000e+00	0.000000e+00	3.984494e+003	0.000000e+00	0	0	56.786	56.786
4	Ethylene	0.000	0	0	0.000	Linear	0.000000e+00	0.000000e+00	0.000000e+00	0.000000e+00	0	0	0.000	0.000
5	Acetylene	0.000	0	0	0.000	Linear	0.000000e+00	0.000000e+00	0.000000e+00	0.000000e+00	0	0	0.000	0.000
6	Ethane	0.000	0	0	0.000	Linear	0.000000e+00	0.000000e+00	0.000000e+00	0.000000e+00	0	0	0.000	0.000

[Compound Results(Ch2)]
# of IDs	5
ID#	Name	R.Time	Area	Height	Conc.	Curve	3rd	2nd	1st	Constant	Area Ratio	Height Ratio	Conc. %	Norm Conc.
1	Hydrogen	0.000	0	0	0.000	Linear	0.000000e+00	0.000000e+00	0.000000e+00	0.000000e+00	0	0	0.000	0.000
2	Oxygen	0.000	0	0	0.000	Linear	0.000000e+00	0.000000e+00	0.000000e+00	0.000000e+00	0	0	0.000	0.000
3	Nitrogen	0.000	0	0	0.000	Linear	0.000000e+00	0.000000e+00	0.000000e+00	0.000000e+00	0	0	0.000	0.000
4	Methane	0.000	0	0	0.000	Linear	0.000000e+00	0.000000e+00	0.000000e+00	0.000000e+00	0	0	0.000	0.000
5	Carbon Monoxide	0.000	0	0	0.000	Linear	0.000000e+00	0.000000e+00	0.000000e+00	0.000000e+00	0	0	0.000	0.000

[Compound Results(Ch3)]
# of IDs	2
ID#	Name	R.Time	Area	Height	Conc.	Curve	3rd	2nd	1st	Constant	Area Ratio	Height Ratio	Conc. %	Norm Conc.
1	N2O	2.873	59598	15128	1.522	Linear	0.000000e+00	0.000000e+00	3.915173e+004	0.000000e+00	0	0	100.000	100.000
2	SF6	3.221	15166	493	0.000	Linear	0.000000e+00	0.000000e+00	0.000000e+00	0.000000e+00	0	0	0.000	0.000

[Group Results(Ch1)]
# of Groups	0

[Group Results(Ch2)]
# of Groups	0

[Group Results(Ch3)]
# of Groups	0

[Chromatogram (Ch1)]
Interval(msec)	220
# of Points	1091
Start Time(min)	0.002
End Time(min)	3.998
R.Time (min)	Intensity
0.00167	-38
0.00533	-43
0.00900	-43
0.01267	-42
0.01633	-41
0.02000	-41
0.02367	-41
0.02733	-42
0.03100	-41
0.03467	-38
0.03833	-33
0.04200	-28
0.04567	-27
0.04933	-26
0.05300	-27
0.05667	-27
0.06033	-25
0.06400	-23
0.06767	-23
0.07133	-26
0.07500	-30
0.07867	-29
0.08233	-24
0.08600	-17
0.08967	-13
0.09333	-10
0.09700	-8
0.10067	-5
0.10433	0
0.10800	7
0.11167	15
0.11533	20
0.11900	22
0.12267	21
0.12633	15
0.13000	9
0.13367	6
0.13733	3
0.14100	1
0.14467	1
0.14833	4
0.15200	6
0.15567	7
0.15933	8
0.16300	11
0.16667	14
0.17033	18
0.17400	23
0.17767	29
0.18133	36
0.18500	40
0.18867	41
0.19233	43
0.19600	46
0.19967	47
0.20333	45
0.20700	41
0.21067	35
0.21433	31
0.21800	29
0.22167	27
0.22533	24
0.22900	22
0.23267	22
0.23633	22
0.24000	26
0.24367	34
0.24733	41
0.25100	46
0.25467	46
0.25833	43
0.26200	38
0.26567	33
0.26933	25
0.27300	13
0.27667	-2
0.28033	-16
0.28400	-28
0.28767	-38
0.29133	-43
0.29500	-43
0.29867	-38
0.30233	-27
0.30600	-11
0.30967	5
0.31333	15
0.31700	22
0.32067	24
0.32433	20
0.32800	8
0.33167	-7
0.33533	-19
0.33900	-30
0.34267	-40
0.34633	-48
0.35000	-59
0.35367	-68
0.35733	-71
0.36100	-66
0.36467	-56
0.36833	-42
0.37200	-30
0.37567	-23
0.37933	-20
0.38300	-20
0.38667	-24
0.39033	-29
0.39400	-32
0.39767	-33
0.40133	-33
0.40500	-32
0.40867	-31
0.41233	-33
0.41600	-36
0.41967	-38
0.42333	-34
0.42700	-29
0.43067	-30
0.43433	-35
0.43800	-38
0.44167	-38
0.44533	-33
0.44900	-29
0.45267	-30
0.45633	-32
0.46000	-31
0.46367	-29
0.46733	-33
0.47100	-36
0.47467	-37
0.47833	-39
0.48200	-39
0.48567	-34
0.48933	-26
0.49300	-22
0.49667	-19
0.50033	-17
0.50400	-14
0.50767	-9
0.51133	-8
0.51500	-14
0.51867	-20
0.52233	-23
0.52600	-27
0.52967	-35
0.53333	-43
0.53700	-52
0.54067	-63
0.54433	-72
0.54800	-75
0.55167	-72
0.55533	-69
0.55900	-62
0.56267	-54
0.56633	-43
0.57000	-33
0.57367	-24
0.57733	-19
0.58100	-21
0.58467	-28
0.58833	-37
0.59200	-44
0.59567	-49
0.59933	-49
0.60300	-49
0.60667	-52
0.61033	-53
0.61400	-52
0.61767	-46
0.62133	-37
0.62500	-28
0.62867	-20
0.63233	-20
0.63600	-27
0.63967	-34
0.64333	-36
0.64700	-33
0.65067	-30
0.65433	-28
0.65800	-30
0.66167	-30
0.66533	-29
0.66900	-28
0.67267	-27
0.67633	-23
0.68000	-23
0.68367	-30
0.68733	-39
0.69100	-45
0.69467	-48
0.69833	-47
0.70200	-43
0.70567	-39
0.70933	-35
0.71300	-34
0.71667	-35
0.72033	-37
0.72400	-39
0.72767	-42
0.73133	-39
0.73500	-33
0.73867	-29
0.74233	-26
0.74600	-25
0.74967	-24
0.75333	-27
0.75700	-37
0.76067	-47
0.76433	-53
0.76800	-57
0.77167	-60
0.77533	-62
0.77900	-63
0.78267	-63
0.78633	-63
0.79000	-65
0.79367	-71
0.79733	-74
0.80100	-71
0.80467	-64
0.80833	-56
0.81200	-47
0.81567	-44
0.81933	-41
0.82300	-39
0.82667	-40
0.83033	-46
0.83400	-52
0.83767	-55
0.84133	-54
0.84500	-53
0.84867	-51
0.85233	-47
0.85600	-42
0.85967	-38
0.86333	-38
0.86700	-42
0.87067	-43
0.87433	-44
0.87800	-45
0.88167	-46
0.88533	-45
0.88900	-39
0.89267	-33
0.89633	-31
0.90000	-33
0.90367	-41
0.90733	-50
0.91100	-57
0.91467	-63
0.91833	-68
0.92200	-69
0.92567	-67
0.92933	-67
0.93300	-70
0.93667	-75
0.94033	-78
0.94400	-80
0.94767	-78
0.95133	-75
0.95500	-67
0.95867	-58
0.96233	-55
0.96600	-55
0.96967	-55
0.97333	-54
0.97700	-52
0.98067	-45
0.98433	-34
0.98800	-22
0.99167	-11
0.99533	-7
0.99900	-7
1.00267	-9
1.00633	-12
1.01000	-12
1.01367	-8
1.01733	-2
1.02100	2
1.02467	2
1.02833	-2
1.03200	-6
1.03567	-8
1.03933	-10
1.04300	-7
1.04667	-1
1.05033	6
1.05400	10
1.05767	10
1.06133	9
1.06500	8
1.06867	8
1.07233	10
1.07600	11
1.07967	9
1.08333	3
1.08700	-0
1.09067	0
1.09433	4
1.09800	5
1.10167	2
1.10533	3
1.10900	7
1.11267	14
1.11633	16
1.12000	11
1.12367	1
1.12733	-14
1.13100	-26
1.13467	-32
1.13833	-30
1.14200	-23
1.14567	-21
1.14933	-25
1.15300	-28
1.15667	-25
1.16033	-18
1.16400	-11
1.16767	-6
1.17133	-1
1.17500	2
1.17867	2
1.18233	-3
1.18600	-14
1.18967	-25
1.19333	-31
1.19700	-28
1.20067	-22
1.20433	-14
1.20800	-9
1.21167	-8
1.21533	-9
1.21900	-9
1.22267	-8
1.22633	-8
1.23000	-13
1.23367	-21
1.23733	-27
1.24100	-32
1.24467	-35
1.24833	-33
1.25200	-28
1.25567	-25
1.25933	-26
1.26300	-29
1.26667	-28
1.27033	-24
1.27400	-18
1.27767	-10
1.28133	-3
1.28500	-1
1.28867	-5
1.29233	-12
1.29600	-15
1.29967	-17
1.30333	-23
1.30700	-29
1.31067	-30
1.31433	-24
1.31800	-16
1.32167	-5
1.32533	7
1.32900	9
1.33267	1
1.33633	-12
1.34000	-22
1.34367	-27
1.34733	-26
1.35100	-20
1.35467	-15
1.35833	-13
1.36200	-12
1.36567	-15
1.36933	-21
1.37300	-21
1.37667	-20
1.38033	-22
1.38400	-28
1.38767	-37
1.39133	-41
1.39500	-41
1.39867	-40
1.40233	-40
1.40600	-39
1.40967	-37
1.41333	-36
1.41700	-36
1.42067	-36
1.42433	-37
1.42800	-35
1.43167	-32
1.43533	-27
1.43900	-1
1.44267	98
1.44633	282
1.45000	474
1.45367	611
1.45733	684
1.46100	706
1.46467	695
1.46833	673
1.47200	664
1.47567	672
1.47933	690
1.48300	701
1.48667	683
1.49033	632
1.49400	560
1.49767	483
1.50133	411
1.50500	349
1.50867	301
1.51233	259
1.51600	219
1.51967	183
1.52333	153
1.52700	123
1.53067	98
1.53433	88
1.53800	150
1.54167	457
1.54533	1292
1.54900	2777
1.55267	4671
1.55633	6558
1.56000	8134
1.56367	9269
1.56733	9866
1.57100	9794
1.57467	8989
1.57833	7608
1.58200	5976
1.58567	4414
1.58933	3112
1.59300	2122
1.59667	1415
1.60033	929
1.60400	602
1.60767	387
1.61133	243
1.61500	149
1.61867	88
1.62233	50
1.62600	26
1.62967	9
1.63333	-2
1.63700	-6
1.64067	-6
1.64433	-5
1.64800	-4
1.65167	-2
1.65533	-2
1.65900	-7
1.66267	-11
1.66633	-14
1.67000	-18
1.67367	-21
1.67733	-23
1.68100	-24
1.68467	-28
1.68833	-31
1.69200	-34
1.69567	-35
1.69933	-36
1.70300	-35
1.70667	-32
1.71033	-32
1.71400	-34
1.71767	-36
1.72133	-39
1.72500	-41
1.72867	-40
1.73233	-41
1.73600	-42
1.73967	-43
1.74333	-46
1.74700	-46
1.75067	-45
1.75433	-44
1.75800	-44
1.76167	-45
1.76533	-46
1.76900	-46
1.77267	-46
1.77633	-45
1.78000	-43
1.78367	-42
1.78733	-42
1.79100	-40
1.79467	-40
1.79833	-44
1.80200	-50
1.80567	-55
1.80933	-56
1.81300	-55
1.81667	-56
1.82033	-55
1.82400	-52
1.82767	-47
1.83133	-41
1.83500	-33
1.83867	-25
1.84233	-19
1.84600	-17
1.84967	-21
1.85333	-29
1.85700	-37
1.86067	-42
1.86433	-42
1.86800	-42
1.87167	-44
1.87533	-49
1.87900	-53
1.88267	-53
1.88633	-52
1.89000	-49
1.89367	-44
1.89733	-37
1.90100	-30
1.90467	-28
1.90833	-31
1.91200	-39
1.91567	-44
1.91933	-43
1.92300	-39
1.92667	-37
1.93033	-37
1.93400	-35
1.93767	-33
1.94133	-29
1.94500	-26
1.94867	-22
1.95233	5
1.95600	192
1.95967	1256
1.96333	6034
1.96700	22417
1.97067	65516
1.97433	153221
1.97800	293178
1.98167	471627
1.98533	658443
1.98900	821500
1.99267	935543
1.99633	985551
2.00000	966879
2.00367	886213
2.00733	761338
2.01100	616389
2.01467	474153
2.01833	350173
2.02200	251110
2.02567	176816
2.02933	123542
2.03300	86489
2.03667	61202
2.04033	44113
2.04400	32586
2.04767	24769
2.05133	19407
2.05500	15666
2.05867	13001
2.06233	11057
2.06600	9594
2.06967	8469
2.07333	7583
2.07700	6868
2.08067	6281
2.08433	5790
2.08800	5369
2.09167	5005
2.09533	4685
2.09900	4402
2.10267	4151
2.10633	3922
2.11000	3717
2.11367	3534
2.11733	3368
2.12100	3216
2.12467	3082
2.12833	2954
2.13200	2831
2.13567	2716
2.13933	2609
2.14300	2508
2.14667	2414
2.15033	2329
2.15400	2252
2.15767	2180
2.16133	2115
2.16500	2058
2.16867	2006
2.17233	1954
2.17600	1898
2.17967	1839
2.18333	1778
2.18700	1721
2.19067	1666
2.19433	1615
2.19800	1569
2.20167	1529
2.20533	1490
2.20900	1449
2.21267	1406
2.21633	1367
2.22000	1332
2.22367	1301
2.22733	1276
2.23100	1259
2.23467	1240
2.23833	1217
2.24200	1191
2.24567	1166
2.24933	1140
2.25300	1118
2.25667	1103
2.26033	1087
2.26400	1071
2.26767	1055
2.27133	1036
2.27500	1010
2.27867	984
2.28233	961
2.28600	944
2.28967	931
2.29333	917
2.29700	902
2.30067	889
2.30433	879
2.30800	870
2.31167	859
2.31533	849
2.31900	838
2.32267	826
2.32633	813
2.33000	800
2.33367	786
2.33733	771
2.34100	758
2.34467	748
2.34833	740
2.35200	729
2.35567	719
2.35933	710
2.36300	702
2.36667	694
2.37033	688
2.37400	684
2.37767	678
2.38133	671
2.38500	668
2.38867	668
2.39233	665
2.39600	660
2.39967	655
2.40333	650
2.40700	640
2.41067	625
2.41433	612
2.41800	604
2.42167	601
2.42533	599
2.42900	598
2.43267	596
2.43633	587
2.44000	579
2.44367	578
2.44733	579
2.45100	578
2.45467	573
2.45833	563
2.46200	555
2.46567	547
2.46933	541
2.47300	535
2.47667	527
2.48033	521
2.48400	517
2.48767	512
2.49133	506
2.49500	502
2.49867	498
2.50233	494
2.50600	488
2.50967	484
2.51333	482
2.51700	482
2.52067	481
2.52433	476
2.52800	468
2.53167	462
2.53533	459
2.53900	461
2.54267	460
2.54633	455
2.55000	451
2.55367	450
2.55733	453
2.56100	460
2.56467	466
2.56833	469
2.57200	471
2.57567	473
2.57933	475
2.58300	470
2.58667	458
2.59033	447
2.59400	439
2.59767	431
2.60133	429
2.60500	429
2.60867	429
2.61233	429
2.61600	430
2.61967	431
2.62333	427
2.62700	422
2.63067	422
2.63433	425
2.63800	432
2.64167	439
2.64533	443
2.64900	437
2.65267	426
2.65633	416
2.66000	415
2.66367	419
2.66733	420
2.67100	421
2.67467	424
2.67833	429
2.68200	432
2.68567	436
2.68933	435
2.69300	426
2.69667	413
2.70033	401
2.70400	397
2.70767	397
2.71133	395
2.71500	392
2.71867	392
2.72233	396
2.72600	401
2.72967	406
2.73333	411
2.73700	414
2.74067	416
2.74433	415
2.74800	415
2.75167	415
2.75533	414
2.75900	412
2.76267	410
2.76633	402
2.77000	390
2.77367	382
2.77733	377
2.78100	377
2.78467	382
2.78833	386
2.79200	387
2.79567	392
2.79933	401
2.80300	410
2.80667	411
2.81033	409
2.81400	408
2.81767	410
2.82133	413
2.82500	413
2.82867	413
2.83233	413
2.83600	412
2.83967	408
2.84333	402
2.84700	396
2.85067	393
2.85433	392
2.85800	392
2.86167	392
2.86533	393
2.86900	398
2.87267	400
2.87633	397
2.88000	392
2.88367	389
2.88733	386
2.89100	384
2.89467	385
2.89833	388
2.90200	392
2.90567	395
2.90933	397
2.91300	399
2.91667	402
2.92033	407
2.92400	412
2.92767	415
2.93133	416
2.93500	413
2.93867	407
2.94233	401
2.94600	402
2.94967	401
2.95333	394
2.95700	385
2.96067	381
2.96433	384
2.96800	389
2.97167	393
2.97533	394
2.97900	395
2.98267	398
2.98633	405
2.99000	410
2.99367	416
2.99733	420
3.00100	424
3.00467	429
3.00833	433
3.01200	434
3.01567	433
3.01933	429
3.02300	422
3.02667	417
3.03033	412
3.03400	406
3.03767	398
3.04133	389
3.04500	381
3.04867	383
3.05233	389
3.05600	395
3.05967	396
3.06333	393
3.06700	388
3.07067	385
3.07433	385
3.07800	388
3.08167	394
3.08533	401
3.08900	414
3.09267	426
3.09633	430
3.10000	429
3.10367	423
3.10733	412
3.11100	395
3.11467	378
3.11833	366
3.12200	364
3.12567	367
3.12933	368
3.13300	369
3.13667	370
3.14033	373
3.14400	375
3.14767	375
3.15133	377
3.15500	378
3.15867	379
3.16233	383
3.16600	386
3.16967	383
3.17333	378
3.17700	374
3.18067	372
3.18433	374
3.18800	377
3.19167	382
3.19533	389
3.19900	396
3.20267	401
3.20633	401
3.21000	399
3.21367	396
3.21733	390
3.22100	386
3.22467	384
3.22833	385
3.23200	384
3.23567	378
3.23933	376
3.24300	372
3.24667	369
3.25033	370
3.25400	372
3.25767	370
3.26133	366
3.26500	365
3.26867	366
3.27233	366
3.27600	367
3.27967	371
3.28333	375
3.28700	379
3.29067	382
3.29433	388
3.29800	389
3.30167	385
3.30533	379
3.30900	376
3.31267	374
3.31633	371
3.32000	374
3.32367	379
3.32733	382
3.33100	386
3.33467	391
3.33833	389
3.34200	381
3.34567	371
3.34933	365
3.35300	364
3.35667	365
3.36033	368
3.36400	369
3.36767	369
3.37133	369
3.37500	366
3.37867	360
3.38233	353
3.38600	346
3.38967	340
3.39333	336
3.39700	334
3.40067	337
3.40433	342
3.40800	347
3.41167	353
3.41533	356
3.41900	353
3.42267	346
3.42633	337
3.43000	333
3.43367	331
3.43733	331
3.44100	335
3.44467	340
3.44833	344
3.45200	341
3.45567	335
3.45933	331
3.46300	326
3.46667	321
3.47033	317
3.47400	318
3.47767	326
3.48133	341
3.48500	357
3.48867	366
3.49233	368
3.49600	367
3.49967	364
3.50333	355
3.50700	344
3.51067	327
3.51433	311
3.51800	302
3.52167	300
3.52533	301
3.52900	297
3.53267	290
3.53633	285
3.54000	283
3.54367	286
3.54733	297
3.55100	310
3.55467	318
3.55833	321
3.56200	327
3.56567	337
3.56933	340
3.57300	340
3.57667	337
3.58033	331
3.58400	325
3.58767	318
3.59133	312
3.59500	308
3.59867	305
3.60233	304
3.60600	305
3.60967	310
3.61333	319
3.61700	325
3.62067	326
3.62433	322
3.62800	315
3.63167	310
3.63533	310
3.63900	313
3.64267	317
3.64633	317
3.65000	314
3.65367	311
3.65733	312
3.66100	317
3.66467	322
3.66833	320
3.67200	318
3.67567	317
3.67933	317
3.68300	316
3.68667	314
3.69033	313
3.69400	313
3.69767	318
3.70133	321
3.70500	322
3.70867	322
3.71233	318
3.71600	310
3.71967	301
3.72333	295
3.72700	292
3.73067	292
3.73433	291
3.73800	291
3.74167	292
3.74533	291
3.74900	284
3.75267	278
3.75633	278
3.76000	284
3.76367	289
3.76733	290
3.77100	292
3.77467	294
3.77833	296
3.78200	296
3.78567	297
3.78933	295
3.79300	291
3.79667	284
3.80033	279
3.80400	277
3.80767	275
3.81133	271
3.81500	269
3.81867	267
3.82233	264
3.82600	262
3.82967	262
3.83333	265
3.83700	271
3.84067	277
3.84433	285
3.84800	291
3.85167	292
3.85533	289
3.85900	281
3.86267	271
3.86633	262
3.87000	257
3.87367	259
3.87733	262
3.88100	264
3.88467	268
3.88833	271
3.89200	271
3.89567	266
3.89933	262
3.90300	259
3.90667	263
3.91033	271
3.91400	274
3.91767	272
3.92133	266
3.92500	262
3.92867	261
3.93233	258
3.93600	251
3.93967	245
3.94333	244
3.94700	248
3.95067	253
3.95433	259
3.95800	263
3.96167	264
3.96533	262
3.96900	256
3.97267	246
3.97633	237
3.98000	231
3.98367	233
3.98733	243
3.99100	253
3.99467	260
3.99833	260

[Chromatogram (Ch2)]
Interval(msec)	220
# of Points	1091
Start Time(min)	0.002
End Time(min)	3.998
R.Time (min)	Intensity
0.00167	1
0.00533	1
0.00900	1
0.01267	1
0.01633	0
0.02000	0
0.02367	0
0.02733	0
0.03100	0
0.03467	0
0.03833	0
0.04200	0
0.04567	0
0.04933	-0
0.05300	-0
0.05667	-0
0.06033	0
0.06400	0
0.06767	1
0.07133	1
0.07500	1
0.07867	2
0.08233	2
0.08600	2
0.08967	3
0.09333	3
0.09700	3
0.10067	3
0.10433	4
0.10800	4
0.11167	4
0.11533	4
0.11900	3
0.12267	3
0.12633	3
0.13000	3
0.13367	3
0.13733	3
0.14100	3
0.14467	3
0.14833	3
0.15200	3
0.15567	3
0.15933	3
0.16300	3
0.16667	2
0.17033	2
0.17400	2
0.17767	2
0.18133	2
0.18500	2
0.18867	2
0.19233	1
0.19600	1
0.19967	1
0.20333	0
0.20700	-0
0.21067	-0
0.21433	-1
0.21800	-1
0.22167	-1
0.22533	-1
0.22900	-1
0.23267	-1
0.23633	-0
0.24000	-0
0.24367	-0
0.24733	-0
0.25100	0
0.25467	0
0.25833	0
0.26200	0
0.26567	0
0.26933	0
0.27300	0
0.27667	0
0.28033	0
0.28400	0
0.28767	-0
0.29133	-0
0.29500	-0
0.29867	-1
0.30233	-1
0.30600	-1
0.30967	-2
0.31333	-2
0.31700	-2
0.32067	-2
0.32433	-1
0.32800	-1
0.33167	-1
0.33533	-1
0.33900	-1
0.34267	-1
0.34633	-1
0.35000	-1
0.35367	-1
0.35733	-1
0.36100	-1
0.36467	-1
0.36833	-1
0.37200	-1
0.37567	-1
0.37933	-1
0.38300	-0
0.38667	0
0.39033	1
0.39400	1
0.39767	1
0.40133	2
0.40500	2
0.40867	2
0.41233	2
0.41600	3
0.41967	3
0.42333	2
0.42700	2
0.43067	2
0.43433	2
0.43800	3
0.44167	3
0.44533	3
0.44900	3
0.45267	2
0.45633	2
0.46000	2
0.46367	2
0.46733	2
0.47100	2
0.47467	2
0.47833	2
0.48200	2
0.48567	1
0.48933	1
0.49300	0
0.49667	0
0.50033	-0
0.50400	-0
0.50767	-1
0.51133	-1
0.51500	-1
0.51867	-1
0.52233	-1
0.52600	-2
0.52967	-2
0.53333	-2
0.53700	-3
0.54067	-3
0.54433	-3
0.54800	-3
0.55167	-3
0.55533	-3
0.55900	-2
0.56267	-2
0.56633	-2
0.57000	-3
0.57367	-3
0.57733	-3
0.58100	-3
0.58467	-3
0.58833	-3
0.59200	-3
0.59567	-3
0.59933	-3
0.60300	-3
0.60667	-3
0.61033	-3
0.61400	-3
0.61767	-3
0.62133	-3
0.62500	-2
0.62867	-2
0.63233	-2
0.63600	-2
0.63967	-2
0.64333	-1
0.64700	-1
0.65067	-1
0.65433	-0
0.65800	-0
0.66167	0
0.66533	0
0.66900	0
0.67267	-0
0.67633	-0
0.68000	-0
0.68367	-1
0.68733	-1
0.69100	-1
0.69467	-2
0.69833	-2
0.70200	-2
0.70567	-2
0.70933	-2
0.71300	-2
0.71667	-2
0.72033	-1
0.72400	-1
0.72767	-1
0.73133	-1
0.73500	-1
0.73867	-1
0.74233	-1
0.74600	-1
0.74967	-1
0.75333	-1
0.75700	-1
0.76067	-1
0.76433	-1
0.76800	-1
0.77167	-1
0.77533	-1
0.77900	-1
0.78267	-0
0.78633	-0
0.79000	-0
0.79367	0
0.79733	1
0.80100	1
0.80467	1
0.80833	1
0.81200	1
0.81567	1
0.81933	0
0.82300	-0
0.82667	-1
0.83033	-1
0.83400	-1
0.83767	-2
0.84133	-2
0.84500	-2
0.84867	-2
0.85233	-3
0.85600	-3
0.85967	-3
0.86333	-3
0.86700	-3
0.87067	-3
0.87433	-2
0.87800	-2
0.88167	-2
0.88533	-1
0.88900	-1
0.89267	-1
0.89633	-1
0.90000	-0
0.90367	-0
0.90733	-0
0.91100	-0
0.91467	-0
0.91833	-0
0.92200	-1
0.92567	-1
0.92933	-1
0.93300	-1
0.93667	-1
0.94033	-1
0.94400	-2
0.94767	-2
0.95133	-2
0.95500	-2
0.95867	-1
0.96233	-1
0.96600	-1
0.96967	-0
0.97333	-0
0.97700	0
0.98067	1
0.98433	1
0.98800	1
0.99167	1
0.99533	1
0.99900	1
1.00267	2
1.00633	2
1.01000	3
1.01367	3
1.01733	3
1.02100	3
1.02467	3
1.02833	3
1.03200	3
1.03567	2
1.03933	2
1.04300	1
1.04667	1
1.05033	0
1.05400	-1
1.05767	-1
1.06133	-1
1.06500	-2
1.06867	-2
1.07233	-2
1.07600	-2
1.07967	-2
1.08333	-2
1.08700	-2
1.09067	-2
1.09433	-2
1.09800	-2
1.10167	-2
1.10533	-2
1.10900	-2
1.11267	-2
1.11633	-2
1.12000	-2
1.12367	-3
1.12733	-3
1.13100	-3
1.13467	-3
1.13833	-3
1.14200	-3
1.14567	-3
1.14933	-3
1.15300	-3
1.15667	-3
1.16033	-3
1.16400	-3
1.16767	-3
1.17133	-3
1.17500	-3
1.17867	-3
1.18233	-4
1.18600	-3
1.18967	-3
1.19333	-3
1.19700	-3
1.20067	-2
1.20433	-2
1.20800	-2
1.21167	-2
1.21533	-2
1.21900	-2
1.22267	-2
1.22633	-2
1.23000	-1
1.23367	-1
1.23733	-1
1.24100	-2
1.24467	-2
1.24833	-2
1.25200	-2
1.25567	-2
1.25933	-2
1.26300	-2
1.26667	-2
1.27033	-2
1.27400	-2
1.27767	-1
1.28133	-1
1.28500	-1
1.28867	-1
1.29233	-1
1.29600	-1
1.29967	-0
1.30333	-0
1.30700	-0
1.31067	-1
1.31433	-1
1.31800	-1
1.32167	-1
1.32533	-2
1.32900	-2
1.33267	-2
1.33633	-2
1.34000	-2
1.34367	-2
1.34733	-2
1.35100	-2
1.35467	-2
1.35833	-2
1.36200	-2
1.36567	-1
1.36933	-1
1.37300	-1
1.37667	-1
1.38033	-1
1.38400	-1
1.38767	-1
1.39133	-1
1.39500	-0
1.39867	0
1.40233	0
1.40600	1
1.40967	1
1.41333	1
1.41700	1
1.42067	1
1.42433	1
1.42800	1
1.43167	1
1.43533	1
1.43900	2
1.44267	2
1.44633	2
1.45000	2
1.45367	1
1.45733	1
1.46100	1
1.46467	0
1.46833	-0
1.47200	-1
1.47567	-1
1.47933	-2
1.48300	-2
1.48667	-2
1.49033	-2
1.49400	-2
1.49767	-1
1.50133	-1
1.50500	-1
1.50867	-1
1.51233	-0
1.51600	-0
1.51967	-0
1.52333	-1
1.52700	-1
1.53067	-1
1.53433	-1
1.53800	-2
1.54167	-2
1.54533	-2
1.54900	-2
1.55267	-3
1.55633	-3
1.56000	-3
1.56367	-3
1.56733	-3
1.57100	-4
1.57467	-4
1.57833	-4
1.58200	-4
1.58567	-4
1.58933	-4
1.59300	-4
1.59667	-5
1.60033	-5
1.60400	-6
1.60767	-8
1.61133	-9
1.61500	-11
1.61867	-12
1.62233	-15
1.62600	-17
1.62967	-20
1.63333	-23
1.63700	-26
1.64067	-30
1.64433	-33
1.64800	-37
1.65167	-41
1.65533	-45
1.65900	-49
1.66267	-53
1.66633	-58
1.67000	-64
1.67367	-69
1.67733	-75
1.68100	-80
1.68467	-85
1.68833	-89
1.69200	-93
1.69567	-96
1.69933	-99
1.70300	-102
1.70667	-104
1.71033	-106
1.71400	-107
1.71767	-108
1.72133	-108
1.72500	-108
1.72867	-108
1.73233	-109
1.73600	-109
1.73967	-110
1.74333	-111
1.74700	-112
1.75067	-113
1.75433	-113
1.75800	-114
1.76167	-114
1.76533	-114
1.76900	-113
1.77267	-113
1.77633	-113
1.78000	-113
1.78367	-113
1.78733	-113
1.79100	-113
1.79467	-114
1.79833	-114
1.80200	-115
1.80567	-115
1.80933	-115
1.81300	-115
1.81667	-115
1.82033	-115
1.82400	-115
1.82767	-115
1.83133	-115
1.83500	-116
1.83867	-116
1.84233	-116
1.84600	-116
1.84967	-117
1.85333	-117
1.85700	-117
1.86067	-117
1.86433	-118
1.86800	-118
1.87167	-117
1.87533	-117
1.87900	-116
1.88267	-115
1.88633	-114
1.89000	-114
1.89367	-114
1.89733	-115
1.90100	-115
1.90467	-115
1.90833	-115
1.91200	-116
1.91567	-116
1.91933	-116
1.92300	-116
1.92667	-116
1.93033	-115
1.93400	-115
1.93767	-114
1.94133	-114
1.94500	-113
1.94867	-113
1.95233	-112
1.95600	-112
1.95967	-112
1.96333	-112
1.96700	-112
1.97067	-112
1.97433	-112
1.97800	-112
1.98167	-112
1.98533	-111
1.98900	-111
1.99267	-111
1.99633	-111
2.00000	-111
2.00367	-111
2.00733	-111
2.01100	-111
2.01467	-111
2.01833	-110
2.02200	-110
2.02567	-110
2.02933	-109
2.03300	-108
2.03667	-107
2.04033	-106
2.04400	-106
2.04767	-105
2.05133	-105
2.05500	-105
2.05867	-104
2.06233	-104
2.06600	-104
2.06967	-103
2.07333	-103
2.07700	-102
2.08067	-102
2.08433	-102
2.08800	-102
2.09167	-102
2.09533	-102
2.09900	-101
2.10267	-101
2.10633	-101
2.11000	-100
2.11367	-100
2.11733	-100
2.12100	-99
2.12467	-99
2.12833	-99
2.13200	-98
2.13567	-98
2.13933	-98
2.14300	-98
2.14667	-98
2.15033	-98
2.15400	-98
2.15767	-98
2.16133	-97
2.16500	-96
2.16867	-96
2.17233	-95
2.17600	-95
2.17967	-94
2.18333	-93
2.18700	-93
2.19067	-93
2.19433	-94
2.19800	-95
2.20167	-96
2.20533	-97
2.20900	-98
2.21267	-98
2.21633	-97
2.22000	-96
2.22367	-95
2.22733	-94
2.23100	-93
2.23467	-92
2.23833	-91
2.24200	-90
2.24567	-90
2.24933	-89
2.25300	-89
2.25667	-89
2.26033	-89
2.26400	-88
2.26767	-88
2.27133	-87
2.27500	-87
2.27867	-86
2.28233	-86
2.28600	-86
2.28967	-86
2.29333	-86
2.29700	-86
2.30067	-86
2.30433	-85
2.30800	-85
2.31167	-84
2.31533	-84
2.31900	-83
2.32267	-83
2.32633	-83
2.33000	-84
2.33367	-85
2.33733	-86
2.34100	-87
2.34467	-87
2.34833	-87
2.35200	-86
2.35567	-85
2.35933	-83
2.36300	-80
2.36667	-77
2.37033	-73
2.37400	-69
2.37767	-64
2.38133	-60
2.38500	-55
2.38867	-51
2.39233	-46
2.39600	-42
2.39967	-37
2.40333	-34
2.40700	-30
2.41067	-27
2.41433	-23
2.41800	-21
2.42167	-19
2.42533	-17
2.42900	-16
2.43267	-15
2.43633	-13
2.44000	-12
2.44367	-10
2.44733	-9
2.45100	-8
2.45467	-7
2.45833	-7
2.46200	-6
2.46567	-5
2.46933	-4
2.47300	-3
2.47667	-1
2.48033	0
2.48400	1
2.48767	2
2.49133	3
2.49500	3
2.49867	4
2.50233	5
2.50600	6
2.50967	7
2.51333	7
2.51700	8
2.52067	8
2.52433	9
2.52800	10
2.53167	10
2.53533	11
2.53900	12
2.54267	12
2.54633	13
2.55000	14
2.55367	14
2.55733	14
2.56100	14
2.56467	14
2.56833	14
2.57200	14
2.57567	14
2.57933	15
2.58300	15
2.58667	16
2.59033	16
2.59400	17
2.59767	17
2.60133	17
2.60500	17
2.60867	17
2.61233	16
2.61600	16
2.61967	16
2.62333	16
2.62700	16
2.63067	16
2.63433	17
2.63800	17
2.64167	17
2.64533	18
2.64900	19
2.65267	20
2.65633	20
2.66000	20
2.66367	21
2.66733	21
2.67100	21
2.67467	20
2.67833	20
2.68200	20
2.68567	19
2.68933	19
2.69300	19
2.69667	19
2.70033	19
2.70400	20
2.70767	20
2.71133	21
2.71500	22
2.71867	22
2.72233	23
2.72600	24
2.72967	24
2.73333	24
2.73700	24
2.74067	24
2.74433	24
2.74800	24
2.75167	24
2.75533	24
2.75900	24
2.76267	24
2.76633	24
2.77000	24
2.77367	24
2.77733	24
2.78100	25
2.78467	25
2.78833	25
2.79200	25
2.79567	25
2.79933	26
2.80300	26
2.80667	26
2.81033	27
2.81400	27
2.81767	27
2.82133	27
2.82500	27
2.82867	27
2.83233	27
2.83600	26
2.83967	23
2.84333	19
2.84700	13
2.85067	4
2.85433	-8
2.85800	-25
2.86167	-46
2.86533	-72
2.86900	-104
2.87267	-141
2.87633	-183
2.88000	-231
2.88367	-284
2.88733	-341
2.89100	-403
2.89467	-469
2.89833	-538
2.90200	-610
2.90567	-686
2.90933	-764
2.91300	-844
2.91667	-927
2.92033	-1012
2.92400	-1098
2.92767	-1186
2.93133	-1276
2.93500	-1366
2.93867	-1447
2.94233	-1507
2.94600	-1535
2.94967	-1527
2.95333	-1484
2.95700	-1414
2.96067	-1323
2.96433	-1219
2.96800	-1109
2.97167	-998
2.97533	-890
2.97900	-788
2.98267	-693
2.98633	-606
2.99000	-527
2.99367	-457
2.99733	-395
3.00100	-340
3.00467	-292
3.00833	-250
3.01200	-214
3.01567	-183
3.01933	-156
3.02300	-132
3.02667	-112
3.03033	-95
3.03400	-81
3.03767	-68
3.04133	-58
3.04500	-48
3.04867	-40
3.05233	-33
3.05600	-27
3.05967	-22
3.06333	-18
3.06700	-14
3.07067	-11
3.07433	-8
3.07800	-6
3.08167	-3
3.08533	-1
3.08900	1
3.09267	2
3.09633	4
3.10000	6
3.10367	7
3.10733	8
3.11100	9
3.11467	9
3.11833	10
3.12200	10
3.12567	11
3.12933	11
3.13300	11
3.13667	12
3.14033	12
3.14400	12
3.14767	13
3.15133	13
3.15500	14
3.15867	14
3.16233	15
3.16600	15
3.16967	15
3.17333	16
3.17700	16
3.18067	16
3.18433	17
3.18800	17
3.19167	17
3.19533	18
3.19900	18
3.20267	18
3.20633	18
3.21000	18
3.21367	19
3.21733	19
3.22100	19
3.22467	19
3.22833	19
3.23200	20
3.23567	19
3.23933	19
3.24300	20
3.24667	20
3.25033	20
3.25400	20
3.25767	20
3.26133	21
3.26500	21
3.26867	21
3.27233	21
3.27600	21
3.27967	21
3.28333	22
3.28700	22
3.29067	22
3.29433	22
3.29800	22
3.30167	22
3.30533	22
3.30900	22
3.31267	22
3.31633	22
3.32000	22
3.32367	22
3.32733	22
3.33100	22
3.33467	22
3.33833	23
3.34200	23
3.34567	23
3.34933	23
3.35300	23
3.35667	23
3.36033	23
3.36400	23
3.36767	23
3.37133	23
3.37500	23
3.37867	23
3.38233	24
3.38600	24
3.38967	24
3.39333	24
3.39700	25
3.40067	25
3.40433	26
3.40800	26
3.41167	26
3.41533	26
3.41900	26
3.42267	27
3.42633	27
3.43000	27
3.43367	27
3.43733	27
3.44100	27
3.44467	27
3.44833	27
3.45200	27
3.45567	28
3.45933	28
3.46300	28
3.46667	28
3.47033	28
3.47400	28
3.47767	28
3.48133	28
3.48500	28
3.48867	28
3.49233	28
3.49600	28
3.49967	27
3.50333	27
3.50700	27
3.51067	27
3.51433	26
3.51800	26
3.52167	26
3.52533	26
3.52900	26
3.53267	26
3.53633	26
3.54000	26
3.54367	26
3.54733	26
3.55100	26
3.55467	26
3.55833	26
3.56200	26
3.56567	26
3.56933	26
3.57300	26
3.57667	26
3.58033	26
3.58400	26
3.58767	26
3.59133	26
3.59500	26
3.59867	26
3.60233	26
3.60600	26
3.60967	26
3.61333	26
3.61700	26
3.62067	26
3.62433	26
3.62800	26
3.63167	26
3.63533	26
3.63900	26
3.64267	26
3.64633	26
3.65000	25
3.65367	25
3.65733	25
3.66100	25
3.66467	25
3.66833	25
3.67200	25
3.67567	25
3.67933	25
3.68300	25
3.68667	25
3.69033	25
3.69400	25
3.69767	25
3.70133	25
3.70500	24
3.70867	24
3.71233	24
3.71600	24
3.71967	24
3.72333	24
3.72700	23
3.73067	23
3.73433	23
3.73800	23
3.74167	23
3.74533	23
3.74900	23
3.75267	23
3.75633	23
3.76000	23
3.76367	23
3.76733	23
3.77100	23
3.77467	23
3.77833	23
3.78200	23
3.78567	24
3.78933	24
3.79300	24
3.79667	24
3.80033	25
3.80400	25
3.80767	25
3.81133	25
3.81500	25
3.81867	25
3.82233	26
3.82600	26
3.82967	26
3.83333	26
3.83700	26
3.84067	26
3.84433	26
3.84800	26
3.85167	26
3.85533	26
3.85900	26
3.86267	25
3.86633	25
3.87000	25
3.87367	25
3.87733	25
3.88100	25
3.88467	25
3.88833	25
3.89200	25
3.89567	25
3.89933	25
3.90300	25
3.90667	25
3.91033	25
3.91400	25
3.91767	25
3.92133	25
3.92500	25
3.92867	25
3.93233	25
3.93600	25
3.93967	25
3.94333	25
3.94700	25
3.95067	24
3.95433	24
3.95800	24
3.96167	24
3.96533	25
3.96900	25
3.97267	25
3.97633	25
3.98000	25
3.98367	25
3.98733	25
3.99100	25
3.99467	26
3.99833	26

[Chromatogram (Ch3)]
Interval(msec)	220
# of Points	1091
Start Time(min)	0.002
End Time(min)	3.998
R.Time (min)	Intensity
0.00167	-1
0.00533	-1
0.00900	-2
0.01267	-3
0.01633	-2
0.02000	1
0.02367	4
0.02733	4
0.03100	3
0.03467	2
0.03833	2
0.04200	3
0.04567	3
0.04933	2
0.05300	2
0.05667	-1
0.06033	-1
0.06400	-3
0.06767	-4
0.07133	-3
0.07500	-1
0.07867	2
0.08233	3
0.08600	5
0.08967	7
0.09333	5
0.09700	5
0.10067	6
0.10433	6
0.10800	7
0.11167	6
0.11533	5
0.11900	4
0.12267	7
0.12633	8
0.13000	10
0.13367	9
0.13733	6
0.14100	2
0.14467	1
0.14833	1
0.15200	1
0.15567	2
0.15933	1
0.16300	2
0.16667	2
0.17033	-1
0.17400	-0
0.17767	2
0.18133	4
0.18500	6
0.18867	6
0.19233	4
0.19600	1
0.19967	1
0.20333	2
0.20700	3
0.21067	5
0.21433	7
0.21800	9
0.22167	11
0.22533	10
0.22900	7
0.23267	8
0.23633	7
0.24000	8
0.24367	8
0.24733	7
0.25100	6
0.25467	4
0.25833	5
0.26200	6
0.26567	6
0.26933	8
0.27300	8
0.27667	7
0.28033	9
0.28400	13
0.28767	13
0.29133	14
0.29500	15
0.29867	13
0.30233	12
0.30600	11
0.30967	9
0.31333	11
0.31700	13
0.32067	14
0.32433	15
0.32800	15
0.33167	15
0.33533	14
0.33900	12
0.34267	12
0.34633	9
0.35000	7
0.35367	6
0.35733	7
0.36100	8
0.36467	9
0.36833	8
0.37200	8
0.37567	10
0.37933	11
0.38300	12
0.38667	13
0.39033	13
0.39400	13
0.39767	13
0.40133	12
0.40500	11
0.40867	10
0.41233	11
0.41600	13
0.41967	14
0.42333	15
0.42700	12
0.43067	9
0.43433	7
0.43800	6
0.44167	6
0.44533	7
0.44900	6
0.45267	8
0.45633	12
0.46000	14
0.46367	15
0.46733	16
0.47100	17
0.47467	17
0.47833	15
0.48200	13
0.48567	13
0.48933	13
0.49300	13
0.49667	13
0.50033	12
0.50400	13
0.50767	14
0.51133	14
0.51500	14
0.51867	13
0.52233	14
0.52600	14
0.52967	14
0.53333	15
0.53700	16
0.54067	16
0.54433	16
0.54800	15
0.55167	12
0.55533	10
0.55900	10
0.56267	11
0.56633	12
0.57000	12
0.57367	14
0.57733	15
0.58100	16
0.58467	17
0.58833	18
0.59200	18
0.59567	17
0.59933	17
0.60300	16
0.60667	15
0.61033	17
0.61400	18
0.61767	17
0.62133	17
0.62500	18
0.62867	21
0.63233	21
0.63600	19
0.63967	20
0.64333	22
0.64700	21
0.65067	21
0.65433	21
0.65800	22
0.66167	21
0.66533	18
0.66900	16
0.67267	16
0.67633	16
0.68000	16
0.68367	15
0.68733	15
0.69100	17
0.69467	20
0.69833	23
0.70200	26
0.70567	26
0.70933	25
0.71300	26
0.71667	26
0.72033	25
0.72400	24
0.72767	22
0.73133	20
0.73500	20
0.73867	21
0.74233	22
0.74600	22
0.74967	21
0.75333	21
0.75700	22
0.76067	24
0.76433	25
0.76800	26
0.77167	26
0.77533	27
0.77900	28
0.78267	27
0.78633	27
0.79000	26
0.79367	25
0.79733	25
0.80100	26
0.80467	25
0.80833	24
0.81200	22
0.81567	23
0.81933	25
0.82300	27
0.82667	27
0.83033	26
0.83400	26
0.83767	26
0.84133	26
0.84500	28
0.84867	30
0.85233	34
0.85600	33
0.85967	32
0.86333	32
0.86700	30
0.87067	29
0.87433	28
0.87800	30
0.88167	31
0.88533	30
0.88900	28
0.89267	28
0.89633	28
0.90000	30
0.90367	31
0.90733	29
0.91100	28
0.91467	29
0.91833	30
0.92200	31
0.92567	30
0.92933	28
0.93300	28
0.93667	29
0.94033	27
0.94400	27
0.94767	29
0.95133	32
0.95500	31
0.95867	31
0.96233	30
0.96600	30
0.96967	29
0.97333	29
0.97700	28
0.98067	28
0.98433	30
0.98800	31
0.99167	31
0.99533	29
0.99900	27
1.00267	27
1.00633	27
1.01000	27
1.01367	27
1.01733	27
1.02100	26
1.02467	27
1.02833	26
1.03200	24
1.03567	24
1.03933	26
1.04300	30
1.04667	32
1.05033	30
1.05400	28
1.05767	27
1.06133	26
1.06500	25
1.06867	26
1.07233	27
1.07600	29
1.07967	33
1.08333	31
1.08700	29
1.09067	29
1.09433	27
1.09800	25
1.10167	25
1.10533	26
1.10900	27
1.11267	27
1.11633	28
1.12000	29
1.12367	30
1.12733	30
1.13100	29
1.13467	28
1.13833	27
1.14200	25
1.14567	25
1.14933	25
1.15300	25
1.15667	26
1.16033	27
1.16400	27
1.16767	28
1.17133	29
1.17500	29
1.17867	28
1.18233	29
1.18600	30
1.18967	31
1.19333	29
1.19700	28
1.20067	28
1.20433	28
1.20800	27
1.21167	26
1.21533	26
1.21900	26
1.22267	27
1.22633	29
1.23000	29
1.23367	29
1.23733	28
1.24100	29
1.24467	31
1.24833	31
1.25200	31
1.25567	31
1.25933	30
1.26300	31
1.26667	32
1.27033	33
1.27400	32
1.27767	31
1.28133	33
1.28500	33
1.28867	31
1.29233	30
1.29600	31
1.29967	31
1.30333	31
1.30700	30
1.31067	28
1.31433	27
1.31800	28
1.32167	26
1.32533	26
1.32900	25
1.33267	24
1.33633	24
1.34000	27
1.34367	29
1.34733	31
1.35100	32
1.35467	31
1.35833	31
1.36200	31
1.36567	32
1.36933	34
1.37300	33
1.37667	33
1.38033	32
1.38400	28
1.38767	28
1.39133	28
1.39500	27
1.39867	27
1.40233	28
1.40600	29
1.40967	28
1.41333	27
1.41700	26
1.42067	28
1.42433	30
1.42800	31
1.43167	28
1.43533	26
1.43900	25
1.44267	25
1.44633	25
1.45000	26
1.45367	25
1.45733	24
1.46100	25
1.46467	26
1.46833	26
1.47200	26
1.47567	26
1.47933	28
1.48300	30
1.48667	31
1.49033	32
1.49400	31
1.49767	30
1.50133	31
1.50500	31
1.50867	28
1.51233	27
1.51600	28
1.51967	27
1.52333	29
1.52700	30
1.53067	31
1.53433	31
1.53800	32
1.54167	31
1.54533	30
1.54900	30
1.55267	31
1.55633	31
1.56000	32
1.56367	33
1.56733	33
1.57100	34
1.57467	35
1.57833	36
1.58200	36
1.58567	35
1.58933	35
1.59300	34
1.59667	33
1.60033	32
1.60400	32
1.60767	34
1.61133	37
1.61500	38
1.61867	38
1.62233	38
1.62600	37
1.62967	38
1.63333	41
1.63700	41
1.64067	41
1.64433	40
1.64800	40
1.65167	39
1.65533	41
1.65900	44
1.66267	46
1.66633	46
1.67000	46
1.67367	45
1.67733	45
1.68100	44
1.68467	45
1.68833	46
1.69200	44
1.69567	42
1.69933	42
1.70300	44
1.70667	43
1.71033	44
1.71400	45
1.71767	47
1.72133	49
1.72500	50
1.72867	54
1.73233	56
1.73600	56
1.73967	55
1.74333	54
1.74700	53
1.75067	54
1.75433	53
1.75800	53
1.76167	53
1.76533	55
1.76900	56
1.77267	57
1.77633	57
1.78000	56
1.78367	54
1.78733	54
1.79100	55
1.79467	57
1.79833	57
1.80200	58
1.80567	57
1.80933	57
1.81300	57
1.81667	56
1.82033	56
1.82400	57
1.82767	60
1.83133	60
1.83500	61
1.83867	60
1.84233	58
1.84600	57
1.84967	60
1.85333	63
1.85700	64
1.86067	64
1.86433	66
1.86800	65
1.87167	62
1.87533	61
1.87900	61
1.88267	62
1.88633	63
1.89000	65
1.89367	64
1.89733	62
1.90100	62
1.90467	62
1.90833	64
1.91200	68
1.91567	70
1.91933	72
1.92300	75
1.92667	75
1.93033	74
1.93400	74
1.93767	74
1.94133	75
1.94500	77
1.94867	79
1.95233	80
1.95600	79
1.95967	78
1.96333	76
1.96700	78
1.97067	82
1.97433	85
1.97800	87
1.98167	89
1.98533	90
1.98900	89
1.99267	88
1.99633	87
2.00000	88
2.00367	88
2.00733	86
2.01100	85
2.01467	85
2.01833	87
2.02200	87
2.02567	89
2.02933	91
2.03300	92
2.03667	93
2.04033	95
2.04400	94
2.04767	91
2.05133	90
2.05500	91
2.05867	93
2.06233	97
2.06600	98
2.06967	96
2.07333	97
2.07700	102
2.08067	105
2.08433	108
2.08800	111
2.09167	113
2.09533	115
2.09900	115
2.10267	115
2.10633	116
2.11000	117
2.11367	118
2.11733	119
2.12100	118
2.12467	120
2.12833	122
2.13200	123
2.13567	125
2.13933	126
2.14300	127
2.14667	127
2.15033	125
2.15400	125
2.15767	123
2.16133	122
2.16500	122
2.16867	125
2.17233	127
2.17600	128
2.17967	129
2.18333	131
2.18700	134
2.19067	135
2.19433	137
2.19800	140
2.20167	143
2.20533	145
2.20900	144
2.21267	144
2.21633	145
2.22000	148
2.22367	150
2.22733	152
2.23100	151
2.23467	153
2.23833	153
2.24200	156
2.24567	158
2.24933	160
2.25300	161
2.25667	160
2.26033	158
2.26400	158
2.26767	161
2.27133	162
2.27500	166
2.27867	171
2.28233	176
2.28600	179
2.28967	180
2.29333	181
2.29700	182
2.30067	182
2.30433	182
2.30800	183
2.31167	184
2.31533	185
2.31900	187
2.32267	190
2.32633	191
2.33000	193
2.33367	194
2.33733	197
2.34100	199
2.34467	199
2.34833	200
2.35200	203
2.35567	206
2.35933	208
2.36300	208
2.36667	209
2.37033	210
2.37400	213
2.37767	214
2.38133	215
2.38500	216
2.38867	217
2.39233	219
2.39600	223
2.39967	225
2.40333	227
2.40700	229
2.41067	232
2.41433	236
2.41800	239
2.42167	240
2.42533	242
2.42900	242
2.43267	241
2.43633	241
2.44000	244
2.44367	278
2.44733	370
2.45100	475
2.45467	562
2.45833	615
2.46200	623
2.46567	600
2.46933	570
2.47300	546
2.47667	533
2.48033	526
2.48400	515
2.48767	494
2.49133	467
2.49500	436
2.49867	409
2.50233	389
2.50600	375
2.50967	365
2.51333	360
2.51700	360
2.52067	363
2.52433	373
2.52800	387
2.53167	401
2.53533	412
2.53900	416
2.54267	413
2.54633	406
2.55000	393
2.55367	376
2.55733	359
2.56100	343
2.56467	329
2.56833	315
2.57200	306
2.57567	299
2.57933	294
2.58300	292
2.58667	290
2.59033	288
2.59400	284
2.59767	276
2.60133	263
2.60500	247
2.60867	228
2.61233	206
2.61600	183
2.61967	161
2.62333	141
2.62700	125
2.63067	116
2.63433	112
2.63800	111
2.64167	114
2.64533	120
2.64900	129
2.65267	140
2.65633	149
2.66000	158
2.66367	166
2.66733	173
2.67100	179
2.67467	183
2.67833	185
2.68200	187
2.68567	188
2.68933	188
2.69300	185
2.69667	184
2.70033	184
2.70400	184
2.70767	184
2.71133	184
2.71500	182
2.71867	179
2.72233	178
2.72600	177
2.72967	177
2.73333	179
2.73700	179
2.74067	178
2.74433	179
2.74800	180
2.75167	181
2.75533	183
2.75900	184
2.76267	184
2.76633	183
2.77000	183
2.77367	184
2.77733	188
2.78100	191
2.78467	192
2.78833	193
2.79200	194
2.79567	194
2.79933	194
2.80300	195
2.80667	197
2.81033	201
2.81400	209
2.81767	235
2.82133	303
2.82500	451
2.82867	738
2.83233	1231
2.83600	1987
2.83967	3045
2.84333	4403
2.84700	6018
2.85067	7805
2.85433	9641
2.85800	11386
2.86167	12912
2.86533	14104
2.86900	14887
2.87267	15237
2.87633	15178
2.88000	14768
2.88367	14083
2.88733	13205
2.89100	12213
2.89467	11165
2.89833	10110
2.90200	9085
2.90567	8114
2.90933	7214
2.91300	6391
2.91667	5648
2.92033	4979
2.92400	4383
2.92767	3853
2.93133	3384
2.93500	2972
2.93867	2612
2.94233	2298
2.94600	2022
2.94967	1781
2.95333	1570
2.95700	1388
2.96067	1233
2.96433	1099
2.96800	980
2.97167	876
2.97533	788
2.97900	714
2.98267	648
2.98633	589
2.99000	538
2.99367	495
2.99733	458
3.00100	424
3.00467	395
3.00833	367
3.01200	344
3.01567	325
3.01933	309
3.02300	293
3.02667	279
3.03033	268
3.03400	257
3.03767	248
3.04133	239
3.04500	231
3.04867	225
3.05233	219
3.05600	213
3.05967	207
3.06333	199
3.06700	184
3.07067	149
3.07433	116
3.07800	104
3.08167	109
3.08533	126
3.08900	150
3.09267	182
3.09633	219
3.10000	259
3.10367	301
3.10733	343
3.11100	383
3.11467	420
3.11833	455
3.12200	487
3.12567	513
3.12933	532
3.13300	550
3.13667	565
3.14033	576
3.14400	586
3.14767	595
3.15133	603
3.15500	610
3.15867	616
3.16233	622
3.16600	626
3.16967	630
3.17333	632
3.17700	635
3.18067	635
3.18433	635
3.18800	636
3.19167	639
3.19533	641
3.19900	643
3.20267	644
3.20633	646
3.21000	648
3.21367	651
3.21733	654
3.22100	658
3.22467	659
3.22833	660
3.23200	661
3.23567	662
3.23933	662
3.24300	661
3.24667	660
3.25033	659
3.25400	662
3.25767	666
3.26133	670
3.26500	673
3.26867	673
3.27233	673
3.27600	676
3.27967	678
3.28333	679
3.28700	677
3.29067	674
3.29433	674
3.29800	672
3.30167	673
3.30533	674
3.30900	675
3.31267	675
3.31633	675
3.32000	674
3.32367	673
3.32733	669
3.33100	666
3.33467	666
3.33833	666
3.34200	667
3.34567	665
3.34933	662
3.35300	660
3.35667	659
3.36033	658
3.36400	656
3.36767	656
3.37133	655
3.37500	655
3.37867	655
3.38233	654
3.38600	654
3.38967	654
3.39333	653
3.39700	650
3.40067	647
3.40433	644
3.40800	643
3.41167	642
3.41533	642
3.41900	642
3.42267	643
3.42633	642
3.43000	642
3.43367	641
3.43733	638
3.44100	636
3.44467	634
3.44833	632
3.45200	631
3.45567	630
3.45933	628
3.46300	625
3.46667	623
3.47033	624
3.47400	624
3.47767	621
3.48133	616
3.48500	613
3.48867	611
3.49233	607
3.49600	604
3.49967	602
3.50333	603
3.50700	602
3.51067	600
3.51433	598
3.51800	594
3.52167	591
3.52533	591
3.52900	594
3.53267	594
3.53633	593
3.54000	590
3.54367	587
3.54733	584
3.55100	583
3.55467	583
3.55833	582
3.56200	578
3.56567	577
3.56933	576
3.57300	574
3.57667	571
3.58033	569
3.58400	568
3.58767	565
3.59133	564
3.59500	562
3.59867	559
3.60233	559
3.60600	559
3.60967	557
3.61333	554
3.61700	552
3.62067	552
3.62433	553
3.62800	552
3.63167	552
3.63533	552
3.63900	550
3.64267	547
3.64633	547
3.65000	546
3.65367	545
3.65733	544
3.66100	543
3.66467	543
3.66833	543
3.67200	543
3.67567	543
3.67933	544
3.68300	544
3.68667	544
3.69033	543
3.69400	541
3.69767	541
3.70133	540
3.70500	539
3.70867	538
3.71233	536
3.71600	536
3.71967	536
3.72333	536
3.72700	534
3.73067	531
3.73433	528
3.73800	528
3.74167	531
3.74533	531
3.74900	529
3.75267	529
3.75633	529
3.76000	529
3.76367	529
3.76733	528
3.77100	528
3.77467	526
3.77833	525
3.78200	523
3.78567	522
3.78933	522
3.79300	522
3.79667	521
3.80033	519
3.80400	520
3.80767	521
3.81133	522
3.81500	522
3.81867	522
3.82233	520
3.82600	518
3.82967	517
3.83333	517
3.83700	519
3.84067	521
3.84433	522
3.84800	523
3.85167	520
3.85533	518
3.85900	516
3.86267	516
3.86633	518
3.87000	516
3.87367	514
3.87733	512
3.88100	508
3.88467	506
3.88833	505
3.89200	505
3.89567	504
3.89933	504
3.90300	503
3.90667	502
3.91033	503
3.91400	502
3.91767	499
3.92133	497
3.92500	497
3.92867	498
3.93233	497
3.93600	495
3.93967	493
3.94333	490
3.94700	489
3.95067	488
3.95433	489
3.95800	490
3.96167	491
3.96533	491
3.96900	490
3.97267	488
3.97633	490
3.98000	488
3.98367	483
3.98733	478
3.99100	475
3.99467	473
3.99833	470

[Status Trace (Column Oven Temperature)]
Interval(msec)	1000
# of Points	240
Start Time(min)	0.012
End Time(min)	3.995
Intensity Units	
Intensity Multiplier	1
R.Time (min)	Intensity
0.01212	35.07
0.02878	35.08
0.04545	35.08
0.06212	35.07
0.07878	35.07
0.09545	35.06
0.11212	35.06
0.12878	35.06
0.14545	35.04
0.16212	35.04
0.17878	35.03
0.19545	35.03
0.21212	35.03
0.22878	35.03
0.24545	35.02
0.26212	35.02
0.27878	35.03
0.29545	35.03
0.31212	35.04
0.32878	35.03
0.34545	35.04
0.36212	35.03
0.37878	35.02
0.39545	35.01
0.41212	35.00
0.42878	34.99
0.44545	34.98
0.46212	34.98
0.47878	34.99
0.49545	34.99
0.51212	34.99
0.52878	35.00
0.54545	35.00
0.56212	35.01
0.57878	35.01
0.59545	35.01
0.61212	35.02
0.62878	35.01
0.64545	35.01
0.66212	35.01
0.67878	35.01
0.69545	35.03
0.71212	35.04
0.72878	35.04
0.74545	35.03
0.76212	35.02
0.77878	35.02
0.79545	35.00
0.81212	35.00
0.82878	35.01
0.84545	35.02
0.86212	35.01
0.87878	35.02
0.89545	35.03
0.91212	35.03
0.92878	35.03
0.94545	35.02
0.96212	35.01
0.97878	35.00
0.99545	34.99
1.01212	34.97
1.02878	34.96
1.04545	34.98
1.06212	35.00
1.07878	34.99
1.09545	35.00
1.11212	35.01
1.12878	35.01
1.14545	35.02
1.16212	35.01
1.17878	35.01
1.19545	35.01
1.21212	35.00
1.22878	35.01
1.24545	35.01
1.26212	35.01
1.27878	35.00
1.29545	35.01
1.31212	35.01
1.32878	35.01
1.34545	35.01
1.36212	35.01
1.37878	35.01
1.39545	35.00
1.41212	34.99
1.42878	34.99
1.44545	34.98
1.46212	34.98
1.47878	34.99
1.49545	34.98
1.51212	34.98
1.52878	34.97
1.54545	34.96
1.56212	34.97
1.57878	34.97
1.59545	35.00
1.61212	35.08
1.62878	35.21
1.64545	35.41
1.66212	35.69
1.67878	36.06
1.69545	36.42
1.71212	36.77
1.72878	37.09
1.74545	37.44
1.76212	37.76
1.77878	38.07
1.79545	38.41
1.81212	38.74
1.82878	39.08
1.84545	39.41
1.86212	39.75
1.87878	40.06
1.89545	40.39
1.91212	40.71
1.92878	41.04
1.94545	41.36
1.96212	41.70
1.97878	42.02
1.99545	42.33
2.01212	42.67
2.02878	42.99
2.04545	43.31
2.06212	43.63
2.07878	43.95
2.09545	44.27
2.11212	44.60
2.12878	44.93
2.14545	45.26
2.16212	45.58
2.17878	45.89
2.19545	46.27
2.21212	46.62
2.22878	46.95
2.24545	47.28
2.26212	47.60
2.27878	47.91
2.29545	48.24
2.31212	48.56
2.32878	48.94
2.34545	49.28
2.36212	49.52
2.37878	49.62
2.39545	49.64
2.41212	49.62
2.42878	49.64
2.44545	49.63
2.46212	49.66
2.47878	49.67
2.49545	49.69
2.51212	49.71
2.52878	49.72
2.54545	49.72
2.56212	49.74
2.57878	49.76
2.59545	49.76
2.61212	49.80
2.62878	49.81
2.64545	49.81
2.66212	49.82
2.67878	49.85
2.69545	49.86
2.71212	49.85
2.72878	49.84
2.74545	49.86
2.76212	49.88
2.77878	49.88
2.79545	49.86
2.81212	49.86
2.82878	49.85
2.84545	49.87
2.86212	49.88
2.87878	49.89
2.89545	49.90
2.91212	49.91
2.92878	49.93
2.94545	49.94
2.96212	49.95
2.97878	49.96
2.99545	49.97
3.01212	49.98
3.02878	50.00
3.04545	50.01
3.06212	50.02
3.07878	50.03
3.09545	50.02
3.11212	50.03
3.12878	50.04
3.14545	50.05
3.16212	50.06
3.17878	50.06
3.19545	50.07
3.21212	50.07
3.22878	50.08
3.24545	50.08
3.26212	50.08
3.27878	50.09
3.29545	50.09
3.31212	50.10
3.32878	50.10
3.34545	50.10
3.36212	50.10
3.37878	50.10
3.39545	50.09
3.41212	50.08
3.42878	50.07
3.44545	50.06
3.46212	50.05
3.47878	50.04
3.49545	50.03
3.51212	50.04
3.52878	50.03
3.54545	50.03
3.56212	50.03
3.57878	50.03
3.59545	50.03
3.61212	50.03
3.62878	50.03
3.64545	50.03
3.66212	50.04
3.67878	50.04
3.69545	50.04
3.71212	50.06
3.72878	50.08
3.74545	50.09
3.76212	50.10
3.77878	50.09
3.79545	50.09
3.81212	50.09
3.82878	50.09
3.84545	50.09
3.86212	50.08
3.87878	50.08
3.89545	50.07
3.91212	50.07
3.92878	50.07
3.94545	50.08
3.96212	50.08
3.97878	50.09
3.99545	50.08

[Status Trace (Injection Unit Temperature)]
Interval(msec)	1000
# of Points	240
Start Time(min)	0.012
End Time(min)	3.995
Intensity Units	
Intensity Multiplier	1
R.Time (min)	Intensity
0.01212	99.98
0.02878	99.98
0.04545	99.98
0.06212	99.98
0.07878	99.98
0.09545	99.98
0.11212	99.98
0.12878	99.98
0.14545	99.97
0.16212	99.98
0.17878	99.98
0.19545	99.98
0.21212	99.98
0.22878	99.98
0.24545	99.98
0.26212	99.98
0.27878	99.98
0.29545	99.98
0.31212	99.98
0.32878	99.98
0.34545	99.98
0.36212	99.99
0.37878	99.98
0.39545	99.98
0.41212	99.99
0.42878	99.98
0.44545	99.99
0.46212	99.99
0.47878	99.98
0.49545	99.99
0.51212	99.99
0.52878	99.99
0.54545	99.99
0.56212	99.99
0.57878	99.99
0.59545	99.99
0.61212	99.98
0.62878	99.99
0.64545	99.99
0.66212	99.99
0.67878	99.99
0.69545	99.99
0.71212	99.99
0.72878	99.99
0.74545	99.99
0.76212	99.99
0.77878	99.99
0.79545	99.99
0.81212	99.99
0.82878	99.99
0.84545	99.98
0.86212	99.98
0.87878	99.99
0.89545	99.99
0.91212	99.98
0.92878	99.99
0.94545	99.99
0.96212	99.98
0.97878	99.98
0.99545	99.98
1.01212	99.98
1.02878	99.99
1.04545	99.98
1.06212	99.99
1.07878	99.98
1.09545	99.98
1.11212	99.98
1.12878	99.98
1.14545	99.99
1.16212	99.98
1.17878	99.98
1.19545	99.99
1.21212	99.98
1.22878	99.98
1.24545	99.99
1.26212	99.98
1.27878	99.98
1.29545	99.98
1.31212	99.98
1.32878	99.99
1.34545	99.98
1.36212	99.99
1.37878	99.98
1.39545	99.98
1.41212	99.98
1.42878	99.98
1.44545	99.99
1.46212	99.98
1.47878	99.98
1.49545	99.98
1.51212	99.98
1.52878	99.98
1.54545	99.98
1.56212	99.98
1.57878	99.98
1.59545	99.98
1.61212	99.98
1.62878	99.98
1.64545	99.98
1.66212	99.98
1.67878	99.98
1.69545	99.98
1.71212	99.98
1.72878	99.98
1.74545	99.98
1.76212	99.98
1.77878	99.98
1.79545	99.98
1.81212	99.98
1.82878	99.98
1.84545	99.98
1.86212	99.98
1.87878	99.98
1.89545	99.97
1.91212	99.97
1.92878	99.97
1.94545	99.97
1.96212	99.97
1.97878	99.97
1.99545	99.97
2.01212	99.97
2.02878	99.97
2.04545	99.97
2.06212	99.97
2.07878	99.97
2.09545	99.97
2.11212	99.96
2.12878	99.97
2.14545	99.96
2.16212	99.97
2.17878	99.97
2.19545	99.97
2.21212	99.97
2.22878	99.97
2.24545	99.97
2.26212	99.97
2.27878	99.97
2.29545	99.97
2.31212	99.97
2.32878	99.97
2.34545	99.97
2.36212	99.97
2.37878	99.97
2.39545	99.97
2.41212	99.97
2.42878	99.97
2.44545	99.97
2.46212	99.97
2.47878	99.98
2.49545	99.98
2.51212	99.97
2.52878	99.98
2.54545	99.98
2.56212	99.98
2.57878	99.98
2.59545	99.98
2.61212	99.98
2.62878	99.98
2.64545	99.98
2.66212	99.99
2.67878	99.99
2.69545	99.99
2.71212	99.99
2.72878	99.99
2.74545	99.99
2.76212	99.99
2.77878	99.99
2.79545	99.99
2.81212	100.00
2.82878	100.00
2.84545	100.00
2.86212	100.00
2.87878	100.00
2.89545	100.01
2.91212	100.00
2.92878	100.00
2.94545	100.01
2.96212	100.01
2.97878	100.01
2.99545	100.01
3.01212	100.01
3.02878	100.01
3.04545	100.01
3.06212	100.02
3.07878	100.01
3.09545	100.02
3.11212	100.02
3.12878	100.02
3.14545	100.02
3.16212	100.02
3.17878	100.02
3.19545	100.02
3.21212	100.02
3.22878	100.02
3.24545	100.03
3.26212	100.02
3.27878	100.03
3.29545	100.03
3.31212	100.03
3.32878	100.03
3.34545	100.03
3.36212	100.03
3.37878	100.03
3.39545	100.03
3.41212	100.03
3.42878	100.03
3.44545	100.04
3.46212	100.04
3.47878	100.04
3.49545	100.04
3.51212	100.04
3.52878	100.04
3.54545	100.04
3.56212	100.04
3.57878	100.04
3.59545	100.04
3.61212	100.04
3.62878	100.04
3.64545	100.04
3.66212	100.04
3.67878	100.04
3.69545	100.04
3.71212	100.04
3.72878	100.04
3.74545	100.04
3.76212	100.04
3.77878	100.05
3.79545	100.04
3.81212	100.04
3.82878	100.04
3.84545	100.04
3.86212	100.04
3.87878	100.04
3.89545	100.04
3.91212	100.04
3.92878	100.05
3.94545	100.04
3.96212	100.04
3.97878	100.04
3.99545	100.05

[Status Trace (Carrier Gas Pressure)]
Interval(msec)	1000
# of Points	240
Start Time(min)	0.012
End Time(min)	3.995
Intensity Units	
Intensity Multiplier	1
R.Time (min)	Intensity
0.01212	58.00
0.02878	54.95
0.04545	57.74
0.06212	59.68
0.07878	58.89
0.09545	57.99
0.11212	57.99
0.12878	58.01
0.14545	58.01
0.16212	58.00
0.17878	58.00
0.19545	58.00
0.21212	58.00
0.22878	58.00
0.24545	58.00
0.26212	58.00
0.27878	58.00
0.29545	58.00
0.31212	58.00
0.32878	58.00
0.34545	58.00
0.36212	58.00
0.37878	58.00
0.39545	58.00
0.41212	58.00
0.42878	58.00
0.44545	58.00
0.46212	58.00
0.47878	58.00
0.49545	58.00
0.51212	58.00
0.52878	58.00
0.54545	58.00
0.56212	58.00
0.57878	58.00
0.59545	58.00
0.61212	58.00
0.62878	58.00
0.64545	58.00
0.66212	58.00
0.67878	58.00
0.69545	58.00
0.71212	58.00
0.72878	58.00
0.74545	58.00
0.76212	58.00
0.77878	58.00
0.79545	58.00
0.81212	58.00
0.82878	58.00
0.84545	58.00
0.86212	58.00
0.87878	58.00
0.89545	58.00
0.91212	58.00
0.92878	58.00
0.94545	58.00
0.96212	58.00
0.97878	58.00
0.99545	58.00
1.01212	58.00
1.02878	58.00
1.04545	58.00
1.06212	58.00
1.07878	58.00
1.09545	58.00
1.11212	58.00
1.12878	58.00
1.14545	58.00
1.16212	58.00
1.17878	58.00
1.19545	58.00
1.21212	58.00
1.22878	58.00
1.24545	58.00
1.26212	58.00
1.27878	58.00
1.29545	58.00
1.31212	58.00
1.32878	58.00
1.34545	58.00
1.36212	58.00
1.37878	58.00
1.39545	58.00
1.41212	58.00
1.42878	58.00
1.44545	58.00
1.46212	58.00
1.47878	58.00
1.49545	58.00
1.51212	58.00
1.52878	58.00
1.54545	58.00
1.56212	58.00
1.57878	58.00
1.59545	58.00
1.61212	58.00
1.62878	58.00
1.64545	58.01
1.66212	58.01
1.67878	58.01
1.69545	58.00
1.71212	58.00
1.72878	58.00
1.74545	58.00
1.76212	58.00
1.77878	58.00
1.79545	58.00
1.81212	58.00
1.82878	58.00
1.84545	58.00
1.86212	58.00
1.87878	58.00
1.89545	58.00
1.91212	58.00
1.92878	58.00
1.94545	58.00
1.96212	58.00
1.97878	58.00
1.99545	58.00
2.01212	58.00
2.02878	58.00
2.04545	58.00
2.06212	58.00
2.07878	58.00
2.09545	58.00
2.11212	58.00
2.12878	58.00
2.14545	58.00
2.16212	58.00
2.17878	58.00
2.19545	58.00
2.21212	58.00
2.22878	58.00
2.24545	58.00
2.26212	58.00
2.27878	58.00
2.29545	58.00
2.31212	58.00
2.32878	58.00
2.34545	58.00
2.36212	58.00
2.37878	57.99
2.39545	57.99
2.41212	58.00
2.42878	58.00
2.44545	58.00
2.46212	58.00
2.47878	58.00
2.49545	58.00
2.51212	57.99
2.52878	57.99
2.54545	58.00
2.56212	58.00
2.57878	58.00
2.59545	58.00
2.61212	58.00
2.62878	58.00
2.64545	58.00
2.66212	58.00
2.67878	58.00
2.69545	58.00
2.71212	58.00
2.72878	58.00
2.74545	58.00
2.76212	58.00
2.77878	58.00
2.79545	58.00
2.81212	58.00
2.82878	58.00
2.84545	58.00
2.86212	58.00
2.87878	58.00
2.89545	58.00
2.91212	58.00
2.92878	58.00
2.94545	58.00
2.96212	58.00
2.97878	58.00
2.99545	58.00
3.01212	58.00
3.02878	58.00
3.04545	58.00
3.06212	58.00
3.07878	58.00
3.09545	58.00
3.11212	58.00
3.12878	58.00
3.14545	58.00
3.16212	58.00
3.17878	58.00
3.19545	58.00
3.21212	58.00
3.22878	58.00
3.24545	58.00
3.26212	58.00
3.27878	58.00
3.29545	58.00
3.31212	58.00
3.32878	58.00
3.34545	58.00
3.36212	58.00
3.37878	58.00
3.39545	58.00
3.41212	58.00
3.42878	58.00
3.44545	58.00
3.46212	58.00
3.47878	58.00
3.49545	58.00
3.51212	58.00
3.52878	58.00
3.54545	58.00
3.56212	58.00
3.57878	58.00
3.59545	58.00
3.61212	58.00
3.62878	58.00
3.64545	58.00
3.66212	58.00
3.67878	58.00
3.69545	58.00
3.71212	58.00
3.72878	58.00
3.74545	58.00
3.76212	58.00
3.77878	58.00
3.79545	58.00
3.81212	58.00
3.82878	58.00
3.84545	58.00
3.86212	58.00
3.87878	58.00
3.89545	58.00
3.91212	58.00
3.92878	58.00
3.94545	58.00
3.96212	58.00
3.97878	58.00
3.99545	58.00

[Status Trace (Carrier Gas Flow)]
Interval(msec)	1000
# of Points	240
Start Time(min)	0.012
End Time(min)	3.995
Intensity Units	
Intensity Multiplier	1
R.Time (min)	Intensity
0.01212	34.53
0.02878	34.54
0.04545	34.55
0.06212	34.54
0.07878	34.51
0.09545	34.52
0.11212	34.52
0.12878	34.52
0.14545	34.51
0.16212	34.52
0.17878	34.52
0.19545	34.52
0.21212	34.52
0.22878	34.52
0.24545	34.52
0.26212	34.51
0.27878	34.52
0.29545	34.52
0.31212	34.51
0.32878	34.52
0.34545	34.52
0.36212	34.52
0.37878	34.52
0.39545	34.52
0.41212	34.52
0.42878	34.52
0.44545	34.52
0.46212	34.52
0.47878	34.52
0.49545	34.52
0.51212	34.52
0.52878	34.52
0.54545	34.52
0.56212	34.52
0.57878	34.52
0.59545	34.52
0.61212	34.52
0.62878	34.52
0.64545	34.52
0.66212	34.52
0.67878	34.52
0.69545	34.52
0.71212	34.52
0.72878	34.52
0.74545	34.52
0.76212	34.52
0.77878	34.52
0.79545	34.52
0.81212	34.52
0.82878	34.52
0.84545	34.52
0.86212	34.52
0.87878	34.52
0.89545	34.52
0.91212	34.51
0.92878	34.52
0.94545	34.52
0.96212	34.52
0.97878	34.52
0.99545	34.52
1.01212	34.52
1.02878	34.52
1.04545	34.52
1.06212	34.52
1.07878	34.52
1.09545	34.52
1.11212	34.52
1.12878	34.51
1.14545	34.51
1.16212	34.52
1.17878	34.52
1.19545	34.52
1.21212	34.52
1.22878	34.52
1.24545	34.52
1.26212	34.52
1.27878	34.52
1.29545	34.52
1.31212	34.52
1.32878	34.52
1.34545	34.52
1.36212	34.52
1.37878	34.52
1.39545	34.52
1.41212	34.51
1.42878	34.51
1.44545	34.52
1.46212	34.52
1.47878	34.51
1.49545	34.52
1.51212	34.52
1.52878	34.52
1.54545	34.53
1.56212	34.52
1.57878	34.52
1.59545	34.52
1.61212	34.52
1.62878	34.52
1.64545	34.52
1.66212	34.53
1.67878	34.52
1.69545	34.51
1.71212	34.52
1.72878	34.52
1.74545	34.52
1.76212	34.51
1.77878	34.51
1.79545	34.52
1.81212	34.52
1.82878	34.52
1.84545	34.52
1.86212	34.52
1.87878	34.52
1.89545	34.52
1.91212	34.51
1.92878	34.52
1.94545	34.52
1.96212	34.52
1.97878	34.52
1.99545	34.52
2.01212	34.52
2.02878	34.52
2.04545	34.52
2.06212	34.52
2.07878	34.52
2.09545	34.52
2.11212	34.52
2.12878	34.52
2.14545	34.52
2.16212	34.52
2.17878	34.51
2.19545	34.51
2.21212	34.52
2.22878	34.52
2.24545	34.52
2.26212	34.51
2.27878	34.52
2.29545	34.52
2.31212	34.52
2.32878	34.51
2.34545	34.52
2.36212	34.52
2.37878	34.52
2.39545	34.52
2.41212	34.52
2.42878	34.52
2.44545	34.53
2.46212	34.51
2.47878	34.51
2.49545	34.51
2.51212	34.52
2.52878	34.51
2.54545	34.52
2.56212	34.52
2.57878	34.52
2.59545	34.52
2.61212	34.52
2.62878	34.52
2.64545	34.52
2.66212	34.52
2.67878	34.52
2.69545	34.52
2.71212	34.52
2.72878	34.52
2.74545	34.52
2.76212	34.52
2.77878	34.52
2.79545	34.52
2.81212	34.52
2.82878	34.51
2.84545	34.52
2.86212	34.52
2.87878	34.52
2.89545	34.52
2.91212	34.52
2.92878	34.52
2.94545	34.52
2.96212	34.52
2.97878	34.52
2.99545	34.52
3.01212	34.52
3.02878	34.52
3.04545	34.52
3.06212	34.52
3.07878	34.52
3.09545	34.52
3.11212	34.52
3.12878	34.52
3.14545	34.52
3.16212	34.52
3.17878	34.52
3.19545	34.52
3.21212	34.52
3.22878	34.51
3.24545	34.52
3.26212	34.51
3.27878	34.52
3.29545	34.52
3.31212	34.52
3.32878	34.52
3.34545	34.52
3.36212	34.52
3.37878	34.52
3.39545	34.52
3.41212	34.52
3.42878	34.52
3.44545	34.52
3.46212	34.52
3.47878	34.52
3.49545	34.52
3.51212	34.52
3.52878	34.52
3.54545	34.51
3.56212	34.52
3.57878	34.52
3.59545	34.52
3.61212	34.52
3.62878	34.52
3.64545	34.52
3.66212	34.52
3.67878	34.51
3.69545	34.52
3.71212	34.52
3.72878	34.52
3.74545	34.52
3.76212	34.51
3.77878	34.52
3.79545	34.52
3.81212	34.52
3.82878	34.52
3.84545	34.52
3.86212	34.52
3.87878	34.52
3.89545	34.51
3.91212	34.52
3.92878	34.52
3.94545	34.52
3.96212	34.51
3.97878	34.52
3.99545	34.52

[Status Trace (Column Flow)]
Interval(msec)	1000
# of Points	240
Start Time(min)	0.012
End Time(min)	3.995
Intensity Units	
Intensity Multiplier	1
R.Time (min)	Intensity
0.01212	5.56
0.02878	5.21
0.04545	5.53
0.06212	5.76
0.07878	5.67
0.09545	5.56
0.11212	5.56
0.12878	5.57
0.14545	5.57
0.16212	5.57
0.17878	5.57
0.19545	5.57
0.21212	5.57
0.22878	5.57
0.24545	5.57
0.26212	5.57
0.27878	5.57
0.29545	5.57
0.31212	5.57
0.32878	5.57
0.34545	5.57
0.36212	5.57
0.37878	5.57
0.39545	5.57
0.41212	5.57
0.42878	5.57
0.44545	5.57
0.46212	5.57
0.47878	5.57
0.49545	5.57
0.51212	5.57
0.52878	5.57
0.54545	5.57
0.56212	5.57
0.57878	5.57
0.59545	5.57
0.61212	5.57
0.62878	5.57
0.64545	5.57
0.66212	5.57
0.67878	5.57
0.69545	5.57
0.71212	5.56
0.72878	5.57
0.74545	5.57
0.76212	5.57
0.77878	5.57
0.79545	5.57
0.81212	5.57
0.82878	5.57
0.84545	5.57
0.86212	5.57
0.87878	5.57
0.89545	5.57
0.91212	5.57
0.92878	5.57
0.94545	5.57
0.96212	5.57
0.97878	5.57
0.99545	5.57
1.01212	5.57
1.02878	5.57
1.04545	5.57
1.06212	5.57
1.07878	5.57
1.09545	5.57
1.11212	5.57
1.12878	5.57
1.14545	5.57
1.16212	5.57
1.17878	5.57
1.19545	5.57
1.21212	5.57
1.22878	5.57
1.24545	5.57
1.26212	5.57
1.27878	5.57
1.29545	5.57
1.31212	5.57
1.32878	5.57
1.34545	5.57
1.36212	5.57
1.37878	5.57
1.39545	5.57
1.41212	5.57
1.42878	5.57
1.44545	5.57
1.46212	5.57
1.47878	5.57
1.49545	5.57
1.51212	5.57
1.52878	5.57
1.54545	5.57
1.56212	5.57
1.57878	5.57
1.59545	5.57
1.61212	5.56
1.62878	5.56
1.64545	5.55
1.66212	5.55
1.67878	5.53
1.69545	5.52
1.71212	5.51
1.72878	5.50
1.74545	5.49
1.76212	5.48
1.77878	5.47
1.79545	5.46
1.81212	5.45
1.82878	5.44
1.84545	5.43
1.86212	5.42
1.87878	5.41
1.89545	5.40
1.91212	5.39
1.92878	5.38
1.94545	5.37
1.96212	5.36
1.97878	5.35
1.99545	5.34
2.01212	5.33
2.02878	5.32
2.04545	5.31
2.06212	5.30
2.07878	5.29
2.09545	5.28
2.11212	5.27
2.12878	5.26
2.14545	5.25
2.16212	5.25
2.17878	5.24
2.19545	5.23
2.21212	5.22
2.22878	5.21
2.24545	5.20
2.26212	5.19
2.27878	5.18
2.29545	5.17
2.31212	5.16
2.32878	5.15
2.34545	5.14
2.36212	5.13
2.37878	5.13
2.39545	5.13
2.41212	5.13
2.42878	5.13
2.44545	5.13
2.46212	5.13
2.47878	5.13
2.49545	5.13
2.51212	5.13
2.52878	5.13
2.54545	5.13
2.56212	5.13
2.57878	5.13
2.59545	5.13
2.61212	5.13
2.62878	5.12
2.64545	5.12
2.66212	5.12
2.67878	5.12
2.69545	5.12
2.71212	5.12
2.72878	5.12
2.74545	5.12
2.76212	5.12
2.77878	5.12
2.79545	5.12
2.81212	5.12
2.82878	5.12
2.84545	5.12
2.86212	5.12
2.87878	5.12
2.89545	5.12
2.91212	5.12
2.92878	5.12
2.94545	5.12
2.96212	5.12
2.97878	5.12
2.99545	5.12
3.01212	5.12
3.02878	5.12
3.04545	5.12
3.06212	5.12
3.07878	5.12
3.09545	5.12
3.11212	5.12
3.12878	5.12
3.14545	5.12
3.16212	5.12
3.17878	5.12
3.19545	5.12
3.21212	5.12
3.22878	5.12
3.24545	5.12
3.26212	5.12
3.27878	5.12
3.29545	5.12
3.31212	5.12
3.32878	5.12
3.34545	5.12
3.36212	5.12
3.37878	5.12
3.39545	5.12
3.41212	5.12
3.42878	5.12
3.44545	5.12
3.46212	5.12
3.47878	5.12
3.49545	5.12
3.51212	5.12
3.52878	5.12
3.54545	5.12
3.56212	5.12
3.57878	5.12
3.59545	5.12
3.61212	5.12
3.62878	5.12
3.64545	5.12
3.66212	5.12
3.67878	5.12
3.69545	5.12
3.71212	5.12
3.72878	5.12
3.74545	5.12
3.76212	5.12
3.77878	5.12
3.79545	5.12
3.81212	5.12
3.82878	5.12
3.84545	5.12
3.86212	5.12
3.87878	5.12
3.89545	5.12
3.91212	5.12
3.92878	5.12
3.94545	5.12
3.96212	5.12
3.97878	5.12
3.99545	5.12

[Status Trace (Linear Velocity)]
Interval(msec)	1000
# of Points	240
Start Time(min)	0.012
End Time(min)	3.995
Intensity Units	
Intensity Multiplier	1
R.Time (min)	Intensity
0.01212	39.02
0.02878	37.02
0.04545	38.85
0.06212	40.12
0.07878	39.60
0.09545	39.01
0.11212	39.02
0.12878	39.03
0.14545	39.03
0.16212	39.03
0.17878	39.03
0.19545	39.03
0.21212	39.03
0.22878	39.03
0.24545	39.03
0.26212	39.03
0.27878	39.03
0.29545	39.02
0.31212	39.02
0.32878	39.02
0.34545	39.02
0.36212	39.02
0.37878	39.02
0.39545	39.03
0.41212	39.03
0.42878	39.03
0.44545	39.03
0.46212	39.03
0.47878	39.03
0.49545	39.03
0.51212	39.03
0.52878	39.03
0.54545	39.03
0.56212	39.03
0.57878	39.03
0.59545	39.03
0.61212	39.03
0.62878	39.03
0.64545	39.03
0.66212	39.03
0.67878	39.03
0.69545	39.02
0.71212	39.02
0.72878	39.02
0.74545	39.02
0.76212	39.02
0.77878	39.03
0.79545	39.03
0.81212	39.03
0.82878	39.03
0.84545	39.03
0.86212	39.03
0.87878	39.02
0.89545	39.02
0.91212	39.02
0.92878	39.02
0.94545	39.03
0.96212	39.03
0.97878	39.03
0.99545	39.03
1.01212	39.03
1.02878	39.03
1.04545	39.03
1.06212	39.03
1.07878	39.03
1.09545	39.03
1.11212	39.03
1.12878	39.03
1.14545	39.03
1.16212	39.03
1.17878	39.03
1.19545	39.03
1.21212	39.03
1.22878	39.03
1.24545	39.03
1.26212	39.03
1.27878	39.03
1.29545	39.03
1.31212	39.03
1.32878	39.03
1.34545	39.03
1.36212	39.03
1.37878	39.03
1.39545	39.03
1.41212	39.03
1.42878	39.03
1.44545	39.03
1.46212	39.03
1.47878	39.03
1.49545	39.03
1.51212	39.03
1.52878	39.03
1.54545	39.03
1.56212	39.03
1.57878	39.03
1.59545	39.03
1.61212	39.02
1.62878	39.01
1.64545	38.99
1.66212	38.97
1.67878	38.93
1.69545	38.89
1.71212	38.86
1.72878	38.83
1.74545	38.80
1.76212	38.77
1.77878	38.73
1.79545	38.70
1.81212	38.67
1.82878	38.64
1.84545	38.61
1.86212	38.58
1.87878	38.55
1.89545	38.52
1.91212	38.49
1.92878	38.45
1.94545	38.43
1.96212	38.40
1.97878	38.36
1.99545	38.34
2.01212	38.31
2.02878	38.27
2.04545	38.24
2.06212	38.22
2.07878	38.19
2.09545	38.16
2.11212	38.13
2.12878	38.10
2.14545	38.07
2.16212	38.04
2.17878	38.01
2.19545	37.98
2.21212	37.95
2.22878	37.91
2.24545	37.89
2.26212	37.86
2.27878	37.83
2.29545	37.80
2.31212	37.77
2.32878	37.74
2.34545	37.71
2.36212	37.68
2.37878	37.67
2.39545	37.67
2.41212	37.67
2.42878	37.67
2.44545	37.67
2.46212	37.67
2.47878	37.67
2.49545	37.67
2.51212	37.66
2.52878	37.66
2.54545	37.67
2.56212	37.67
2.57878	37.66
2.59545	37.66
2.61212	37.66
2.62878	37.66
2.64545	37.66
2.66212	37.66
2.67878	37.66
2.69545	37.65
2.71212	37.65
2.72878	37.66
2.74545	37.66
2.76212	37.65
2.77878	37.65
2.79545	37.65
2.81212	37.66
2.82878	37.66
2.84545	37.65
2.86212	37.65
2.87878	37.65
2.89545	37.65
2.91212	37.65
2.92878	37.65
2.94545	37.65
2.96212	37.65
2.97878	37.65
2.99545	37.65
3.01212	37.64
3.02878	37.64
3.04545	37.64
3.06212	37.64
3.07878	37.64
3.09545	37.64
3.11212	37.64
3.12878	37.64
3.14545	37.64
3.16212	37.64
3.17878	37.64
3.19545	37.64
3.21212	37.64
3.22878	37.64
3.24545	37.64
3.26212	37.63
3.27878	37.64
3.29545	37.63
3.31212	37.63
3.32878	37.63
3.34545	37.63
3.36212	37.63
3.37878	37.63
3.39545	37.63
3.41212	37.64
3.42878	37.64
3.44545	37.64
3.46212	37.64
3.47878	37.64
3.49545	37.64
3.51212	37.64
3.52878	37.64
3.54545	37.64
3.56212	37.64
3.57878	37.64
3.59545	37.64
3.61212	37.64
3.62878	37.64
3.64545	37.64
3.66212	37.64
3.67878	37.64
3.69545	37.64
3.71212	37.64
3.72878	37.64
3.74545	37.63
3.76212	37.63
3.77878	37.63
3.79545	37.63
3.81212	37.63
3.82878	37.64
3.84545	37.64
3.86212	37.63
3.87878	37.64
3.89545	37.64
3.91212	37.64
3.92878	37.64
3.94545	37.64
3.96212	37.63
3.97878	37.63
3.99545	37.64

