[Header]
Application Name	LabSolutions
Version	5.110
Data File Name	C:\Users\User\Desktop\GC Analyses\Jack\Nachusa Grasslands Sampling\T1 Timepoint July 12th\T1_07122022_040.gcd
Output Date	3/14/2023
Output Time	3:40:59 PM

[File Information]
Type	Data File
Generated	3/8/2023 5:37:52 PM
Generated by	System Administrator
Modified	3/8/2023 5:44:32 PM
Modified by	System Administrator

[Sample Information]
Operator Name	System Administrator
Acquired	3/8/2023 5:40:31 PM
Sample Type	0:Unknown
Level	0
Sample Name	040
Sample ID	040
ISTD Amount1	1
ISTD Amount2	1
ISTD Amount3	1
ISTD Amount4	1
ISTD Amount5	1
ISTD Amount6	1
ISTD Amount7	1
ISTD Amount8	1
ISTD Amount9	1
ISTD Amount10	1
ISTD Amount11	1
ISTD Amount12	1
ISTD Amount13	1
ISTD Amount14	1
ISTD Amount15	1
ISTD Amount16	1
ISTD Amount17	1
ISTD Amount18	1
ISTD Amount19	1
ISTD Amount20	1
ISTD Amount21	1
ISTD Amount22	1
ISTD Amount23	1
ISTD Amount24	1
ISTD Amount25	1
ISTD Amount26	1
ISTD Amount27	1
ISTD Amount28	1
ISTD Amount29	1
ISTD Amount30	1
ISTD Amount31	1
ISTD Amount32	1
Sample Amount	1
Dilution Factor	1
Vial#	39
Injection Volume	1
Injection Count	1
Bar Code	

[Original Files]
Data File	C:\Users\User\Desktop\GC Analyses\Jack\Nachusa Grasslands Sampling\T1 Timepoint July 12th\T1_07122022_040.gcd
Method File	C:\LabSolutions\Data\GHG_4min_2022\ghg3_togas_w_acet_4 min_new_int.gcm
Batch File	C:\LabSolutions\Data\AutoSamplerTesting\T1_07122022.gcb
Report Format File	c:\LabSolutions\System\DEFAULT.lsr

[File Description]


[Configuration]
Instrument Name	C0B7VH3-Instrument1
Instrument #	1
Line #	1
# of Detectors	3
Detector ID	DET#1	DET#2	DET#3
Detector Name	FID	PTCD	ECD
# of Channels	1	1	1

[Peak Table(Ch1)]
# of Peaks	3
Peak#	R.Time	I.Time	F.Time	Area	Height	A/H	Conc.	Mark	ID#	Name	k'	Plate #	Plate Ht.	Tailing	Resolution	Sep.Factor	Area Ratio	Height Ratio	Conc. %	Norm Conc.
1	1.476	1.439	1.538	39548	18869	2.096	279.212	   	1	CO	0.000	9272	16.178	1.346	0.000	0.000	0	0	37.983	37.983
2	1.567	1.538	1.630	4838	2306	2.099	93.550	 V 	2	CH4	0.062	10263	14.615	0.000	1.488	0.000	0	0	12.726	12.726
3	1.996	1.952	2.469	1443690	683537	2.112	362.327	   	3	CO2	0.353	17373	8.634	1.315	7.006	5.680	0	0	49.290	49.290

[Peak Table(Ch2)]
# of Peaks	0

[Peak Table(Ch3)]
# of Peaks	5
Peak#	R.Time	I.Time	F.Time	Area	Height	A/H	Conc.	Mark	ID#	Name	k'	Plate #	Plate Ht.	Tailing	Resolution	Sep.Factor	Area Ratio	Height Ratio	Conc. %	Norm Conc.
1	2.462	1.886	2.517	4023	554	7.261	0.000	   			0.000	5823	25.758	0.000	0.000	0.000	0	0	0.000	0.000
2	2.539	2.517	2.634	1721	354	4.868	0.000	 V 			0.031	2236	67.078	0.000	0.448	0.000	0	0	0.000	0.000
3	2.678	2.634	2.748	929	160	5.816	0.000	 V 			0.088	1193	125.742	0.000	0.531	2.810	0	0	0.000	0.000
4	2.873	2.748	3.133	21192	5046	4.199	0.541	 V 	1	N2O	0.167	12897	11.631	1.774	0.945	1.898	0	0	100.000	100.000
5	3.342	3.137	3.980	14297	510	28.036	0.000	   	2	SF6	0.357	395	379.427	2.012	1.214	2.143	0	0	0.000	0.000

[Compound Results(Ch1)]
# of IDs	6
ID#	Name	R.Time	Area	Height	Conc.	Curve	3rd	2nd	1st	Constant	Area Ratio	Height Ratio	Conc. %	Norm Conc.
1	CO	1.476	39548	18869	279.212	Linear	0.000000e+00	0.000000e+00	1.416423e+002	0.000000e+00	0	0	37.983	37.983
2	CH4	1.567	4838	2306	93.550	Linear	0.000000e+00	0.000000e+00	5.171738e+001	0.000000e+00	0	0	12.726	12.726
3	CO2	1.996	1443690	683537	362.327	Linear	0.000000e+00	0.000000e+00	3.984494e+003	0.000000e+00	0	0	49.290	49.290
4	Ethylene	0.000	0	0	0.000	Linear	0.000000e+00	0.000000e+00	0.000000e+00	0.000000e+00	0	0	0.000	0.000
5	Acetylene	0.000	0	0	0.000	Linear	0.000000e+00	0.000000e+00	0.000000e+00	0.000000e+00	0	0	0.000	0.000
6	Ethane	0.000	0	0	0.000	Linear	0.000000e+00	0.000000e+00	0.000000e+00	0.000000e+00	0	0	0.000	0.000

[Compound Results(Ch2)]
# of IDs	5
ID#	Name	R.Time	Area	Height	Conc.	Curve	3rd	2nd	1st	Constant	Area Ratio	Height Ratio	Conc. %	Norm Conc.
1	Hydrogen	0.000	0	0	0.000	Linear	0.000000e+00	0.000000e+00	0.000000e+00	0.000000e+00	0	0	0.000	0.000
2	Oxygen	0.000	0	0	0.000	Linear	0.000000e+00	0.000000e+00	0.000000e+00	0.000000e+00	0	0	0.000	0.000
3	Nitrogen	0.000	0	0	0.000	Linear	0.000000e+00	0.000000e+00	0.000000e+00	0.000000e+00	0	0	0.000	0.000
4	Methane	0.000	0	0	0.000	Linear	0.000000e+00	0.000000e+00	0.000000e+00	0.000000e+00	0	0	0.000	0.000
5	Carbon Monoxide	0.000	0	0	0.000	Linear	0.000000e+00	0.000000e+00	0.000000e+00	0.000000e+00	0	0	0.000	0.000

[Compound Results(Ch3)]
# of IDs	2
ID#	Name	R.Time	Area	Height	Conc.	Curve	3rd	2nd	1st	Constant	Area Ratio	Height Ratio	Conc. %	Norm Conc.
1	N2O	2.873	21192	5046	0.541	Linear	0.000000e+00	0.000000e+00	3.915173e+004	0.000000e+00	0	0	100.000	100.000
2	SF6	3.342	14297	510	0.000	Linear	0.000000e+00	0.000000e+00	0.000000e+00	0.000000e+00	0	0	0.000	0.000

[Group Results(Ch1)]
# of Groups	0

[Group Results(Ch2)]
# of Groups	0

[Group Results(Ch3)]
# of Groups	0

[Chromatogram (Ch1)]
Interval(msec)	220
# of Points	1091
Start Time(min)	0.002
End Time(min)	3.998
R.Time (min)	Intensity
0.00167	-1
0.00533	2
0.00900	10
0.01267	18
0.01633	21
0.02000	19
0.02367	15
0.02733	11
0.03100	15
0.03467	22
0.03833	23
0.04200	19
0.04567	15
0.04933	15
0.05300	11
0.05667	3
0.06033	-4
0.06400	-7
0.06767	-5
0.07133	-3
0.07500	1
0.07867	8
0.08233	11
0.08600	10
0.08967	8
0.09333	7
0.09700	5
0.10067	7
0.10433	15
0.10800	20
0.11167	20
0.11533	22
0.11900	27
0.12267	33
0.12633	34
0.13000	29
0.13367	23
0.13733	15
0.14100	6
0.14467	-0
0.14833	-3
0.15200	-2
0.15567	-0
0.15933	4
0.16300	5
0.16667	4
0.17033	2
0.17400	0
0.17767	1
0.18133	4
0.18500	7
0.18867	10
0.19233	15
0.19600	21
0.19967	23
0.20333	20
0.20700	19
0.21067	28
0.21433	41
0.21800	51
0.22167	54
0.22533	54
0.22900	55
0.23267	56
0.23633	58
0.24000	60
0.24367	64
0.24733	74
0.25100	84
0.25467	90
0.25833	96
0.26200	99
0.26567	95
0.26933	86
0.27300	80
0.27667	79
0.28033	81
0.28400	84
0.28767	87
0.29133	89
0.29500	91
0.29867	94
0.30233	95
0.30600	97
0.30967	101
0.31333	107
0.31700	105
0.32067	94
0.32433	81
0.32800	73
0.33167	70
0.33533	68
0.33900	65
0.34267	62
0.34633	58
0.35000	56
0.35367	61
0.35733	64
0.36100	62
0.36467	58
0.36833	54
0.37200	53
0.37567	52
0.37933	55
0.38300	57
0.38667	58
0.39033	55
0.39400	45
0.39767	31
0.40133	20
0.40500	13
0.40867	13
0.41233	17
0.41600	19
0.41967	18
0.42333	16
0.42700	17
0.43067	23
0.43433	33
0.43800	45
0.44167	50
0.44533	48
0.44900	43
0.45267	37
0.45633	30
0.46000	24
0.46367	17
0.46733	13
0.47100	10
0.47467	10
0.47833	12
0.48200	17
0.48567	16
0.48933	13
0.49300	14
0.49667	16
0.50033	13
0.50400	10
0.50767	8
0.51133	6
0.51500	9
0.51867	10
0.52233	7
0.52600	6
0.52967	10
0.53333	20
0.53700	28
0.54067	31
0.54433	31
0.54800	27
0.55167	21
0.55533	14
0.55900	8
0.56267	5
0.56633	5
0.57000	6
0.57367	7
0.57733	5
0.58100	5
0.58467	7
0.58833	11
0.59200	17
0.59567	23
0.59933	30
0.60300	33
0.60667	34
0.61033	36
0.61400	36
0.61767	33
0.62133	28
0.62500	23
0.62867	16
0.63233	11
0.63600	12
0.63967	14
0.64333	15
0.64700	18
0.65067	18
0.65433	17
0.65800	16
0.66167	14
0.66533	13
0.66900	12
0.67267	11
0.67633	7
0.68000	5
0.68367	4
0.68733	1
0.69100	-6
0.69467	-11
0.69833	-13
0.70200	-16
0.70567	-15
0.70933	-10
0.71300	-3
0.71667	7
0.72033	18
0.72400	25
0.72767	28
0.73133	30
0.73500	28
0.73867	20
0.74233	10
0.74600	-2
0.74967	-6
0.75333	-4
0.75700	-1
0.76067	3
0.76433	11
0.76800	17
0.77167	16
0.77533	16
0.77900	19
0.78267	24
0.78633	23
0.79000	19
0.79367	11
0.79733	3
0.80100	-1
0.80467	-3
0.80833	-4
0.81200	-3
0.81567	-1
0.81933	2
0.82300	7
0.82667	11
0.83033	15
0.83400	18
0.83767	20
0.84133	23
0.84500	27
0.84867	28
0.85233	27
0.85600	20
0.85967	12
0.86333	5
0.86700	0
0.87067	-3
0.87433	-8
0.87800	-14
0.88167	-19
0.88533	-23
0.88900	-27
0.89267	-23
0.89633	-20
0.90000	-17
0.90367	-14
0.90733	-11
0.91100	-8
0.91467	-4
0.91833	3
0.92200	3
0.92567	-1
0.92933	-4
0.93300	-4
0.93667	-1
0.94033	4
0.94400	9
0.94767	13
0.95133	15
0.95500	14
0.95867	10
0.96233	6
0.96600	0
0.96967	-6
0.97333	-11
0.97700	-14
0.98067	-17
0.98433	-19
0.98800	-17
0.99167	-15
0.99533	-14
0.99900	-14
1.00267	-14
1.00633	-15
1.01000	-15
1.01367	-11
1.01733	-6
1.02100	-4
1.02467	-3
1.02833	-3
1.03200	-6
1.03567	-11
1.03933	-13
1.04300	-12
1.04667	-9
1.05033	-8
1.05400	-8
1.05767	-11
1.06133	-15
1.06500	-17
1.06867	-16
1.07233	-12
1.07600	-7
1.07967	-3
1.08333	-3
1.08700	-5
1.09067	-4
1.09433	0
1.09800	4
1.10167	8
1.10533	6
1.10900	1
1.11267	-4
1.11633	-10
1.12000	-14
1.12367	-16
1.12733	-18
1.13100	-23
1.13467	-28
1.13833	-33
1.14200	-35
1.14567	-33
1.14933	-33
1.15300	-34
1.15667	-40
1.16033	-44
1.16400	-46
1.16767	-43
1.17133	-38
1.17500	-31
1.17867	-24
1.18233	-15
1.18600	-6
1.18967	3
1.19333	3
1.19700	-5
1.20067	-17
1.20433	-26
1.20800	-30
1.21167	-33
1.21533	-38
1.21900	-42
1.22267	-45
1.22633	-49
1.23000	-51
1.23367	-52
1.23733	-50
1.24100	-48
1.24467	-43
1.24833	-38
1.25200	-35
1.25567	-32
1.25933	-29
1.26300	-30
1.26667	-33
1.27033	-37
1.27400	-40
1.27767	-40
1.28133	-36
1.28500	-27
1.28867	-16
1.29233	-4
1.29600	5
1.29967	6
1.30333	8
1.30700	7
1.31067	5
1.31433	4
1.31800	6
1.32167	12
1.32533	14
1.32900	15
1.33267	19
1.33633	21
1.34000	21
1.34367	20
1.34733	19
1.35100	18
1.35467	15
1.35833	11
1.36200	7
1.36567	5
1.36933	4
1.37300	3
1.37667	4
1.38033	7
1.38400	11
1.38767	13
1.39133	8
1.39500	-1
1.39867	-8
1.40233	-11
1.40600	-6
1.40967	2
1.41333	8
1.41700	15
1.42067	21
1.42433	21
1.42800	18
1.43167	13
1.43533	8
1.43900	25
1.44267	116
1.44633	373
1.45000	1072
1.45367	2810
1.45733	5804
1.46100	9479
1.46467	13028
1.46833	15932
1.47200	17945
1.47567	18898
1.47933	18622
1.48300	17109
1.48667	14660
1.49033	11795
1.49400	9022
1.49767	6658
1.50133	4809
1.50500	3440
1.50867	2466
1.51233	1791
1.51600	1323
1.51967	997
1.52333	767
1.52700	602
1.53067	480
1.53433	394
1.53800	346
1.54167	364
1.54533	499
1.54900	784
1.55267	1178
1.55633	1587
1.56000	1940
1.56367	2201
1.56733	2344
1.57100	2335
1.57467	2158
1.57833	1846
1.58200	1473
1.58567	1114
1.58933	818
1.59300	587
1.59667	418
1.60033	303
1.60400	226
1.60767	174
1.61133	138
1.61500	111
1.61867	90
1.62233	71
1.62600	57
1.62967	46
1.63333	42
1.63700	38
1.64067	35
1.64433	32
1.64800	30
1.65167	29
1.65533	27
1.65900	25
1.66267	23
1.66633	21
1.67000	18
1.67367	16
1.67733	16
1.68100	16
1.68467	18
1.68833	21
1.69200	23
1.69567	20
1.69933	19
1.70300	17
1.70667	14
1.71033	12
1.71400	10
1.71767	10
1.72133	10
1.72500	10
1.72867	6
1.73233	2
1.73600	-0
1.73967	1
1.74333	2
1.74700	5
1.75067	6
1.75433	3
1.75800	-1
1.76167	-2
1.76533	0
1.76900	2
1.77267	1
1.77633	-2
1.78000	-9
1.78367	-17
1.78733	-20
1.79100	-20
1.79467	-21
1.79833	-21
1.80200	-19
1.80567	-14
1.80933	-9
1.81300	-9
1.81667	-11
1.82033	-10
1.82400	-10
1.82767	-14
1.83133	-15
1.83500	-15
1.83867	-13
1.84233	-12
1.84600	-13
1.84967	-17
1.85333	-23
1.85700	-27
1.86067	-26
1.86433	-28
1.86800	-33
1.87167	-34
1.87533	-29
1.87900	-15
1.88267	-1
1.88633	6
1.89000	1
1.89367	-10
1.89733	-19
1.90100	-21
1.90467	-21
1.90833	-23
1.91200	-21
1.91567	-17
1.91933	-12
1.92300	-9
1.92667	-6
1.93033	-6
1.93400	-8
1.93767	-10
1.94133	-9
1.94500	-7
1.94867	-5
1.95233	7
1.95600	108
1.95967	727
1.96333	3578
1.96700	13532
1.97067	40200
1.97433	95797
1.97800	186966
1.98167	307012
1.98533	437014
1.98900	554646
1.99267	641057
1.99633	683576
2.00000	677064
2.00367	625251
2.00733	540154
2.01100	438939
2.01467	338436
2.01833	250300
2.02200	179651
2.02567	126580
2.02933	88486
2.03300	61966
2.03667	43859
2.04033	31622
2.04400	23368
2.04767	17768
2.05133	13920
2.05500	11236
2.05867	9324
2.06233	7929
2.06600	6883
2.06967	6077
2.07333	5441
2.07700	4927
2.08067	4498
2.08433	4143
2.08800	3844
2.09167	3585
2.09533	3358
2.09900	3158
2.10267	2978
2.10633	2815
2.11000	2669
2.11367	2541
2.11733	2421
2.12100	2309
2.12467	2207
2.12833	2110
2.13200	2019
2.13567	1936
2.13933	1859
2.14300	1789
2.14667	1726
2.15033	1670
2.15400	1620
2.15767	1574
2.16133	1528
2.16500	1478
2.16867	1430
2.17233	1387
2.17600	1344
2.17967	1301
2.18333	1258
2.18700	1218
2.19067	1182
2.19433	1148
2.19800	1116
2.20167	1086
2.20533	1057
2.20900	1028
2.21267	1002
2.21633	979
2.22000	958
2.22367	941
2.22733	925
2.23100	908
2.23467	893
2.23833	881
2.24200	873
2.24567	860
2.24933	842
2.25300	821
2.25667	798
2.26033	776
2.26400	752
2.26767	730
2.27133	716
2.27500	707
2.27867	700
2.28233	693
2.28600	683
2.28967	669
2.29333	653
2.29700	637
2.30067	625
2.30433	617
2.30800	609
2.31167	607
2.31533	611
2.31900	611
2.32267	602
2.32633	588
2.33000	574
2.33367	563
2.33733	554
2.34100	545
2.34467	530
2.34833	510
2.35200	490
2.35567	475
2.35933	467
2.36300	462
2.36667	465
2.37033	467
2.37400	463
2.37767	458
2.38133	457
2.38500	454
2.38867	449
2.39233	442
2.39600	440
2.39967	442
2.40333	444
2.40700	443
2.41067	439
2.41433	434
2.41800	433
2.42167	436
2.42533	439
2.42900	443
2.43267	442
2.43633	432
2.44000	422
2.44367	414
2.44733	406
2.45100	398
2.45467	388
2.45833	379
2.46200	377
2.46567	378
2.46933	380
2.47300	383
2.47667	385
2.48033	387
2.48400	387
2.48767	385
2.49133	383
2.49500	382
2.49867	381
2.50233	380
2.50600	377
2.50967	373
2.51333	371
2.51700	369
2.52067	362
2.52433	356
2.52800	356
2.53167	362
2.53533	369
2.53900	373
2.54267	371
2.54633	367
2.55000	363
2.55367	354
2.55733	343
2.56100	337
2.56467	336
2.56833	339
2.57200	342
2.57567	342
2.57933	339
2.58300	337
2.58667	339
2.59033	340
2.59400	340
2.59767	340
2.60133	340
2.60500	337
2.60867	332
2.61233	330
2.61600	333
2.61967	337
2.62333	337
2.62700	336
2.63067	335
2.63433	332
2.63800	329
2.64167	327
2.64533	328
2.64900	330
2.65267	334
2.65633	332
2.66000	331
2.66367	335
2.66733	336
2.67100	332
2.67467	323
2.67833	311
2.68200	300
2.68567	295
2.68933	293
2.69300	296
2.69667	304
2.70033	311
2.70400	315
2.70767	318
2.71133	321
2.71500	328
2.71867	339
2.72233	348
2.72600	353
2.72967	349
2.73333	342
2.73700	335
2.74067	330
2.74433	326
2.74800	324
2.75167	324
2.75533	321
2.75900	316
2.76267	310
2.76633	306
2.77000	305
2.77367	308
2.77733	313
2.78100	320
2.78467	327
2.78833	334
2.79200	339
2.79567	340
2.79933	339
2.80300	336
2.80667	339
2.81033	345
2.81400	350
2.81767	355
2.82133	356
2.82500	356
2.82867	359
2.83233	364
2.83600	361
2.83967	350
2.84333	340
2.84700	331
2.85067	325
2.85433	326
2.85800	330
2.86167	333
2.86533	330
2.86900	328
2.87267	333
2.87633	339
2.88000	344
2.88367	345
2.88733	341
2.89100	338
2.89467	341
2.89833	346
2.90200	349
2.90567	351
2.90933	358
2.91300	365
2.91667	368
2.92033	368
2.92400	367
2.92767	366
2.93133	366
2.93500	365
2.93867	361
2.94233	356
2.94600	352
2.94967	347
2.95333	342
2.95700	340
2.96067	343
2.96433	343
2.96800	341
2.97167	344
2.97533	351
2.97900	353
2.98267	349
2.98633	347
2.99000	347
2.99367	349
2.99733	355
3.00100	365
3.00467	376
3.00833	380
3.01200	380
3.01567	377
3.01933	373
3.02300	371
3.02667	368
3.03033	364
3.03400	371
3.03767	385
3.04133	396
3.04500	396
3.04867	386
3.05233	368
3.05600	352
3.05967	342
3.06333	337
3.06700	336
3.07067	338
3.07433	342
3.07800	346
3.08167	346
3.08533	345
3.08900	345
3.09267	348
3.09633	354
3.10000	359
3.10367	362
3.10733	365
3.11100	367
3.11467	368
3.11833	367
3.12200	362
3.12567	359
3.12933	362
3.13300	367
3.13667	373
3.14033	374
3.14400	372
3.14767	367
3.15133	359
3.15500	354
3.15867	354
3.16233	358
3.16600	363
3.16967	371
3.17333	378
3.17700	382
3.18067	383
3.18433	382
3.18800	380
3.19167	382
3.19533	388
3.19900	396
3.20267	399
3.20633	397
3.21000	393
3.21367	386
3.21733	376
3.22100	362
3.22467	346
3.22833	334
3.23200	329
3.23567	330
3.23933	334
3.24300	339
3.24667	344
3.25033	350
3.25400	358
3.25767	368
3.26133	376
3.26500	379
3.26867	380
3.27233	377
3.27600	373
3.27967	373
3.28333	378
3.28700	380
3.29067	379
3.29433	380
3.29800	381
3.30167	382
3.30533	384
3.30900	383
3.31267	378
3.31633	369
3.32000	362
3.32367	361
3.32733	365
3.33100	369
3.33467	369
3.33833	368
3.34200	367
3.34567	365
3.34933	365
3.35300	364
3.35667	359
3.36033	352
3.36400	346
3.36767	344
3.37133	346
3.37500	353
3.37867	362
3.38233	365
3.38600	365
3.38967	365
3.39333	365
3.39700	365
3.40067	366
3.40433	364
3.40800	361
3.41167	360
3.41533	360
3.41900	362
3.42267	363
3.42633	367
3.43000	366
3.43367	361
3.43733	358
3.44100	356
3.44467	355
3.44833	355
3.45200	352
3.45567	349
3.45933	349
3.46300	355
3.46667	362
3.47033	372
3.47400	378
3.47767	376
3.48133	372
3.48500	367
3.48867	363
3.49233	361
3.49600	359
3.49967	355
3.50333	351
3.50700	347
3.51067	343
3.51433	340
3.51800	344
3.52167	353
3.52533	357
3.52900	356
3.53267	353
3.53633	349
3.54000	349
3.54367	353
3.54733	361
3.55100	368
3.55467	369
3.55833	368
3.56200	366
3.56567	364
3.56933	359
3.57300	353
3.57667	347
3.58033	344
3.58400	344
3.58767	347
3.59133	348
3.59500	348
3.59867	347
3.60233	347
3.60600	350
3.60967	353
3.61333	355
3.61700	354
3.62067	349
3.62433	345
3.62800	344
3.63167	342
3.63533	340
3.63900	340
3.64267	343
3.64633	346
3.65000	344
3.65367	337
3.65733	332
3.66100	331
3.66467	333
3.66833	335
3.67200	334
3.67567	333
3.67933	331
3.68300	335
3.68667	342
3.69033	345
3.69400	345
3.69767	340
3.70133	337
3.70500	339
3.70867	340
3.71233	340
3.71600	339
3.71967	337
3.72333	332
3.72700	323
3.73067	316
3.73433	311
3.73800	309
3.74167	312
3.74533	318
3.74900	326
3.75267	335
3.75633	345
3.76000	351
3.76367	352
3.76733	350
3.77100	349
3.77467	346
3.77833	345
3.78200	344
3.78567	347
3.78933	348
3.79300	342
3.79667	336
3.80033	329
3.80400	322
3.80767	312
3.81133	303
3.81500	296
3.81867	292
3.82233	294
3.82600	302
3.82967	309
3.83333	311
3.83700	312
3.84067	313
3.84433	313
3.84800	311
3.85167	305
3.85533	299
3.85900	299
3.86267	303
3.86633	314
3.87000	327
3.87367	338
3.87733	346
3.88100	347
3.88467	338
3.88833	323
3.89200	303
3.89567	285
3.89933	275
3.90300	275
3.90667	282
3.91033	291
3.91400	294
3.91767	291
3.92133	284
3.92500	276
3.92867	274
3.93233	277
3.93600	280
3.93967	280
3.94333	278
3.94700	281
3.95067	282
3.95433	280
3.95800	282
3.96167	284
3.96533	285
3.96900	283
3.97267	283
3.97633	283
3.98000	285
3.98367	291
3.98733	297
3.99100	304
3.99467	307
3.99833	308

[Chromatogram (Ch2)]
Interval(msec)	220
# of Points	1091
Start Time(min)	0.002
End Time(min)	3.998
R.Time (min)	Intensity
0.00167	0
0.00533	0
0.00900	1
0.01267	1
0.01633	1
0.02000	1
0.02367	1
0.02733	1
0.03100	0
0.03467	0
0.03833	-0
0.04200	-0
0.04567	-0
0.04933	0
0.05300	0
0.05667	0
0.06033	-0
0.06400	-0
0.06767	-0
0.07133	-1
0.07500	-1
0.07867	-1
0.08233	-1
0.08600	-1
0.08967	-2
0.09333	-2
0.09700	-2
0.10067	-2
0.10433	-2
0.10800	-2
0.11167	-2
0.11533	-1
0.11900	-1
0.12267	-1
0.12633	-1
0.13000	-1
0.13367	-1
0.13733	-0
0.14100	-0
0.14467	-0
0.14833	-0
0.15200	-0
0.15567	-1
0.15933	-1
0.16300	-1
0.16667	-1
0.17033	-1
0.17400	-1
0.17767	-0
0.18133	-0
0.18500	-1
0.18867	-1
0.19233	-1
0.19600	-1
0.19967	-2
0.20333	-2
0.20700	-2
0.21067	-2
0.21433	-2
0.21800	-2
0.22167	-2
0.22533	-2
0.22900	-2
0.23267	-2
0.23633	-2
0.24000	-1
0.24367	-1
0.24733	-1
0.25100	-0
0.25467	0
0.25833	0
0.26200	1
0.26567	1
0.26933	1
0.27300	1
0.27667	1
0.28033	1
0.28400	1
0.28767	1
0.29133	0
0.29500	0
0.29867	0
0.30233	0
0.30600	0
0.30967	0
0.31333	-0
0.31700	-0
0.32067	-0
0.32433	0
0.32800	0
0.33167	-0
0.33533	-0
0.33900	-0
0.34267	-0
0.34633	-1
0.35000	-1
0.35367	-1
0.35733	-1
0.36100	-1
0.36467	-1
0.36833	-1
0.37200	-1
0.37567	-1
0.37933	-1
0.38300	-0
0.38667	-0
0.39033	-0
0.39400	-0
0.39767	-0
0.40133	-0
0.40500	-0
0.40867	0
0.41233	0
0.41600	1
0.41967	1
0.42333	1
0.42700	1
0.43067	1
0.43433	1
0.43800	0
0.44167	0
0.44533	-1
0.44900	-1
0.45267	-2
0.45633	-2
0.46000	-2
0.46367	-3
0.46733	-3
0.47100	-3
0.47467	-3
0.47833	-3
0.48200	-3
0.48567	-3
0.48933	-3
0.49300	-3
0.49667	-2
0.50033	-2
0.50400	-2
0.50767	-1
0.51133	-1
0.51500	-1
0.51867	-1
0.52233	-0
0.52600	-0
0.52967	-0
0.53333	-0
0.53700	-0
0.54067	0
0.54433	1
0.54800	1
0.55167	1
0.55533	1
0.55900	1
0.56267	0
0.56633	0
0.57000	0
0.57367	0
0.57733	0
0.58100	-0
0.58467	-0
0.58833	-0
0.59200	-1
0.59567	-1
0.59933	-1
0.60300	-1
0.60667	-1
0.61033	-0
0.61400	0
0.61767	0
0.62133	0
0.62500	0
0.62867	-0
0.63233	-0
0.63600	-1
0.63967	-0
0.64333	-0
0.64700	-0
0.65067	-0
0.65433	-0
0.65800	0
0.66167	0
0.66533	0
0.66900	0
0.67267	0
0.67633	0
0.68000	-0
0.68367	-0
0.68733	-0
0.69100	-0
0.69467	-0
0.69833	-0
0.70200	-0
0.70567	-0
0.70933	-0
0.71300	-0
0.71667	-0
0.72033	0
0.72400	0
0.72767	1
0.73133	1
0.73500	1
0.73867	1
0.74233	1
0.74600	1
0.74967	1
0.75333	1
0.75700	1
0.76067	1
0.76433	0
0.76800	0
0.77167	-0
0.77533	-0
0.77900	-1
0.78267	-1
0.78633	-1
0.79000	-2
0.79367	-2
0.79733	-2
0.80100	-2
0.80467	-2
0.80833	-2
0.81200	-2
0.81567	-2
0.81933	-2
0.82300	-2
0.82667	-1
0.83033	-1
0.83400	-1
0.83767	-0
0.84133	0
0.84500	1
0.84867	1
0.85233	1
0.85600	1
0.85967	1
0.86333	1
0.86700	1
0.87067	0
0.87433	-0
0.87800	-0
0.88167	-1
0.88533	-1
0.88900	-1
0.89267	-1
0.89633	-1
0.90000	-1
0.90367	-1
0.90733	-1
0.91100	-0
0.91467	-0
0.91833	-0
0.92200	-0
0.92567	-0
0.92933	-0
0.93300	-0
0.93667	-0
0.94033	-0
0.94400	-1
0.94767	-1
0.95133	-1
0.95500	-1
0.95867	-2
0.96233	-2
0.96600	-2
0.96967	-2
0.97333	-2
0.97700	-2
0.98067	-2
0.98433	-2
0.98800	-2
0.99167	-2
0.99533	-2
0.99900	-2
1.00267	-2
1.00633	-2
1.01000	-2
1.01367	-2
1.01733	-2
1.02100	-2
1.02467	-1
1.02833	-1
1.03200	-1
1.03567	-1
1.03933	-1
1.04300	-1
1.04667	-1
1.05033	-1
1.05400	-0
1.05767	-1
1.06133	-1
1.06500	-1
1.06867	-1
1.07233	-1
1.07600	-1
1.07967	-1
1.08333	-1
1.08700	-1
1.09067	-1
1.09433	-1
1.09800	-1
1.10167	-0
1.10533	-0
1.10900	0
1.11267	0
1.11633	0
1.12000	0
1.12367	-0
1.12733	-1
1.13100	-1
1.13467	-1
1.13833	-2
1.14200	-2
1.14567	-2
1.14933	-2
1.15300	-2
1.15667	-2
1.16033	-2
1.16400	-1
1.16767	-1
1.17133	-1
1.17500	-1
1.17867	-1
1.18233	-0
1.18600	0
1.18967	1
1.19333	1
1.19700	1
1.20067	1
1.20433	1
1.20800	1
1.21167	0
1.21533	0
1.21900	0
1.22267	0
1.22633	0
1.23000	0
1.23367	0
1.23733	0
1.24100	0
1.24467	-0
1.24833	-0
1.25200	-1
1.25567	-1
1.25933	-2
1.26300	-2
1.26667	-2
1.27033	-2
1.27400	-3
1.27767	-3
1.28133	-3
1.28500	-3
1.28867	-4
1.29233	-4
1.29600	-5
1.29967	-5
1.30333	-5
1.30700	-6
1.31067	-6
1.31433	-6
1.31800	-6
1.32167	-6
1.32533	-5
1.32900	-5
1.33267	-4
1.33633	-4
1.34000	-4
1.34367	-3
1.34733	-3
1.35100	-3
1.35467	-2
1.35833	-2
1.36200	-2
1.36567	-2
1.36933	-2
1.37300	-2
1.37667	-2
1.38033	-2
1.38400	-2
1.38767	-2
1.39133	-3
1.39500	-3
1.39867	-3
1.40233	-3
1.40600	-3
1.40967	-3
1.41333	-3
1.41700	-3
1.42067	-3
1.42433	-3
1.42800	-3
1.43167	-2
1.43533	-2
1.43900	-1
1.44267	-1
1.44633	-1
1.45000	-1
1.45367	-1
1.45733	-1
1.46100	-1
1.46467	-0
1.46833	-0
1.47200	0
1.47567	0
1.47933	0
1.48300	-0
1.48667	-0
1.49033	-1
1.49400	-1
1.49767	-1
1.50133	-2
1.50500	-2
1.50867	-2
1.51233	-2
1.51600	-2
1.51967	-1
1.52333	-1
1.52700	-1
1.53067	-1
1.53433	-1
1.53800	-1
1.54167	-2
1.54533	-2
1.54900	-2
1.55267	-2
1.55633	-2
1.56000	-3
1.56367	-2
1.56733	-2
1.57100	-2
1.57467	-3
1.57833	-3
1.58200	-3
1.58567	-3
1.58933	-4
1.59300	-4
1.59667	-5
1.60033	-7
1.60400	-8
1.60767	-10
1.61133	-11
1.61500	-13
1.61867	-15
1.62233	-17
1.62600	-20
1.62967	-23
1.63333	-26
1.63700	-29
1.64067	-32
1.64433	-36
1.64800	-39
1.65167	-43
1.65533	-46
1.65900	-50
1.66267	-53
1.66633	-57
1.67000	-61
1.67367	-65
1.67733	-70
1.68100	-75
1.68467	-80
1.68833	-84
1.69200	-88
1.69567	-92
1.69933	-95
1.70300	-98
1.70667	-100
1.71033	-103
1.71400	-104
1.71767	-106
1.72133	-107
1.72500	-108
1.72867	-108
1.73233	-109
1.73600	-109
1.73967	-110
1.74333	-110
1.74700	-111
1.75067	-111
1.75433	-112
1.75800	-112
1.76167	-112
1.76533	-113
1.76900	-113
1.77267	-113
1.77633	-114
1.78000	-114
1.78367	-115
1.78733	-116
1.79100	-117
1.79467	-118
1.79833	-118
1.80200	-118
1.80567	-118
1.80933	-118
1.81300	-118
1.81667	-118
1.82033	-118
1.82400	-118
1.82767	-118
1.83133	-119
1.83500	-119
1.83867	-119
1.84233	-119
1.84600	-119
1.84967	-119
1.85333	-119
1.85700	-118
1.86067	-117
1.86433	-116
1.86800	-116
1.87167	-115
1.87533	-115
1.87900	-114
1.88267	-114
1.88633	-114
1.89000	-114
1.89367	-114
1.89733	-115
1.90100	-115
1.90467	-116
1.90833	-116
1.91200	-116
1.91567	-116
1.91933	-116
1.92300	-116
1.92667	-116
1.93033	-115
1.93400	-115
1.93767	-114
1.94133	-114
1.94500	-114
1.94867	-114
1.95233	-113
1.95600	-113
1.95967	-113
1.96333	-112
1.96700	-112
1.97067	-111
1.97433	-111
1.97800	-111
1.98167	-111
1.98533	-111
1.98900	-111
1.99267	-111
1.99633	-110
2.00000	-110
2.00367	-109
2.00733	-109
2.01100	-108
2.01467	-108
2.01833	-108
2.02200	-108
2.02567	-108
2.02933	-108
2.03300	-107
2.03667	-107
2.04033	-107
2.04400	-107
2.04767	-107
2.05133	-107
2.05500	-107
2.05867	-107
2.06233	-106
2.06600	-105
2.06967	-105
2.07333	-104
2.07700	-104
2.08067	-104
2.08433	-103
2.08800	-103
2.09167	-103
2.09533	-102
2.09900	-102
2.10267	-102
2.10633	-102
2.11000	-102
2.11367	-103
2.11733	-103
2.12100	-102
2.12467	-102
2.12833	-101
2.13200	-101
2.13567	-100
2.13933	-99
2.14300	-99
2.14667	-98
2.15033	-97
2.15400	-97
2.15767	-97
2.16133	-96
2.16500	-96
2.16867	-96
2.17233	-95
2.17600	-95
2.17967	-94
2.18333	-94
2.18700	-93
2.19067	-93
2.19433	-93
2.19800	-93
2.20167	-93
2.20533	-93
2.20900	-92
2.21267	-92
2.21633	-91
2.22000	-91
2.22367	-90
2.22733	-90
2.23100	-90
2.23467	-89
2.23833	-89
2.24200	-89
2.24567	-88
2.24933	-88
2.25300	-87
2.25667	-87
2.26033	-86
2.26400	-85
2.26767	-85
2.27133	-84
2.27500	-83
2.27867	-83
2.28233	-83
2.28600	-83
2.28967	-84
2.29333	-85
2.29700	-87
2.30067	-88
2.30433	-89
2.30800	-89
2.31167	-89
2.31533	-88
2.31900	-87
2.32267	-85
2.32633	-84
2.33000	-82
2.33367	-81
2.33733	-80
2.34100	-78
2.34467	-77
2.34833	-77
2.35200	-76
2.35567	-76
2.35933	-76
2.36300	-75
2.36667	-75
2.37033	-75
2.37400	-74
2.37767	-72
2.38133	-69
2.38500	-66
2.38867	-62
2.39233	-58
2.39600	-53
2.39967	-48
2.40333	-44
2.40700	-39
2.41067	-35
2.41433	-32
2.41800	-29
2.42167	-27
2.42533	-24
2.42900	-22
2.43267	-20
2.43633	-19
2.44000	-17
2.44367	-15
2.44733	-14
2.45100	-11
2.45467	-9
2.45833	-6
2.46200	-4
2.46567	-2
2.46933	-1
2.47300	-0
2.47667	1
2.48033	2
2.48400	3
2.48767	4
2.49133	5
2.49500	6
2.49867	7
2.50233	8
2.50600	9
2.50967	10
2.51333	10
2.51700	11
2.52067	11
2.52433	12
2.52800	12
2.53167	13
2.53533	14
2.53900	14
2.54267	15
2.54633	15
2.55000	15
2.55367	15
2.55733	15
2.56100	14
2.56467	14
2.56833	14
2.57200	13
2.57567	14
2.57933	14
2.58300	15
2.58667	16
2.59033	17
2.59400	18
2.59767	18
2.60133	18
2.60500	18
2.60867	18
2.61233	18
2.61600	18
2.61967	18
2.62333	17
2.62700	17
2.63067	17
2.63433	17
2.63800	17
2.64167	17
2.64533	18
2.64900	18
2.65267	18
2.65633	18
2.66000	19
2.66367	19
2.66733	19
2.67100	19
2.67467	20
2.67833	20
2.68200	21
2.68567	21
2.68933	21
2.69300	21
2.69667	21
2.70033	21
2.70400	21
2.70767	21
2.71133	21
2.71500	21
2.71867	21
2.72233	21
2.72600	21
2.72967	21
2.73333	21
2.73700	21
2.74067	22
2.74433	22
2.74800	23
2.75167	23
2.75533	24
2.75900	24
2.76267	25
2.76633	25
2.77000	26
2.77367	26
2.77733	26
2.78100	26
2.78467	25
2.78833	25
2.79200	24
2.79567	24
2.79933	24
2.80300	24
2.80667	24
2.81033	24
2.81400	24
2.81767	24
2.82133	24
2.82500	24
2.82867	24
2.83233	24
2.83600	24
2.83967	23
2.84333	21
2.84700	16
2.85067	10
2.85433	0
2.85800	-13
2.86167	-30
2.86533	-51
2.86900	-76
2.87267	-106
2.87633	-140
2.88000	-178
2.88367	-219
2.88733	-264
2.89100	-311
2.89467	-361
2.89833	-413
2.90200	-466
2.90567	-520
2.90933	-574
2.91300	-628
2.91667	-682
2.92033	-735
2.92400	-787
2.92767	-838
2.93133	-891
2.93500	-948
2.93867	-1008
2.94233	-1061
2.94600	-1097
2.94967	-1109
2.95333	-1094
2.95700	-1055
2.96067	-998
2.96433	-927
2.96800	-850
2.97167	-769
2.97533	-688
2.97900	-611
2.98267	-538
2.98633	-470
2.99000	-409
2.99367	-354
2.99733	-305
3.00100	-262
3.00467	-224
3.00833	-191
3.01200	-162
3.01567	-137
3.01933	-116
3.02300	-97
3.02667	-81
3.03033	-67
3.03400	-55
3.03767	-45
3.04133	-37
3.04500	-29
3.04867	-23
3.05233	-18
3.05600	-14
3.05967	-10
3.06333	-7
3.06700	-4
3.07067	-2
3.07433	1
3.07800	2
3.08167	4
3.08533	5
3.08900	6
3.09267	7
3.09633	7
3.10000	8
3.10367	9
3.10733	10
3.11100	10
3.11467	11
3.11833	12
3.12200	12
3.12567	13
3.12933	13
3.13300	13
3.13667	14
3.14033	14
3.14400	14
3.14767	15
3.15133	15
3.15500	15
3.15867	16
3.16233	16
3.16600	16
3.16967	17
3.17333	17
3.17700	17
3.18067	17
3.18433	17
3.18800	17
3.19167	17
3.19533	18
3.19900	18
3.20267	18
3.20633	18
3.21000	19
3.21367	19
3.21733	19
3.22100	19
3.22467	19
3.22833	19
3.23200	19
3.23567	19
3.23933	20
3.24300	20
3.24667	21
3.25033	21
3.25400	22
3.25767	22
3.26133	22
3.26500	23
3.26867	23
3.27233	23
3.27600	24
3.27967	24
3.28333	24
3.28700	24
3.29067	24
3.29433	24
3.29800	24
3.30167	24
3.30533	24
3.30900	24
3.31267	24
3.31633	23
3.32000	23
3.32367	23
3.32733	22
3.33100	22
3.33467	23
3.33833	23
3.34200	23
3.34567	23
3.34933	23
3.35300	23
3.35667	23
3.36033	23
3.36400	23
3.36767	23
3.37133	23
3.37500	23
3.37867	23
3.38233	23
3.38600	23
3.38967	23
3.39333	23
3.39700	23
3.40067	23
3.40433	24
3.40800	24
3.41167	24
3.41533	24
3.41900	25
3.42267	25
3.42633	25
3.43000	25
3.43367	26
3.43733	26
3.44100	26
3.44467	26
3.44833	26
3.45200	26
3.45567	26
3.45933	26
3.46300	26
3.46667	26
3.47033	26
3.47400	26
3.47767	26
3.48133	26
3.48500	26
3.48867	26
3.49233	26
3.49600	26
3.49967	26
3.50333	26
3.50700	26
3.51067	26
3.51433	26
3.51800	26
3.52167	26
3.52533	26
3.52900	26
3.53267	26
3.53633	26
3.54000	26
3.54367	27
3.54733	27
3.55100	27
3.55467	27
3.55833	27
3.56200	27
3.56567	27
3.56933	27
3.57300	27
3.57667	27
3.58033	27
3.58400	27
3.58767	27
3.59133	27
3.59500	27
3.59867	26
3.60233	26
3.60600	26
3.60967	26
3.61333	26
3.61700	26
3.62067	26
3.62433	26
3.62800	26
3.63167	26
3.63533	26
3.63900	26
3.64267	26
3.64633	26
3.65000	26
3.65367	26
3.65733	26
3.66100	27
3.66467	27
3.66833	27
3.67200	27
3.67567	27
3.67933	27
3.68300	27
3.68667	27
3.69033	26
3.69400	26
3.69767	26
3.70133	26
3.70500	25
3.70867	25
3.71233	25
3.71600	25
3.71967	24
3.72333	24
3.72700	24
3.73067	24
3.73433	24
3.73800	24
3.74167	23
3.74533	23
3.74900	23
3.75267	23
3.75633	23
3.76000	24
3.76367	24
3.76733	24
3.77100	24
3.77467	24
3.77833	24
3.78200	24
3.78567	24
3.78933	24
3.79300	24
3.79667	24
3.80033	24
3.80400	24
3.80767	25
3.81133	25
3.81500	25
3.81867	25
3.82233	24
3.82600	24
3.82967	24
3.83333	24
3.83700	24
3.84067	24
3.84433	24
3.84800	24
3.85167	24
3.85533	24
3.85900	24
3.86267	24
3.86633	25
3.87000	25
3.87367	25
3.87733	25
3.88100	26
3.88467	26
3.88833	26
3.89200	26
3.89567	26
3.89933	26
3.90300	26
3.90667	26
3.91033	26
3.91400	26
3.91767	26
3.92133	26
3.92500	26
3.92867	26
3.93233	26
3.93600	26
3.93967	26
3.94333	26
3.94700	26
3.95067	25
3.95433	25
3.95800	25
3.96167	25
3.96533	25
3.96900	25
3.97267	25
3.97633	25
3.98000	25
3.98367	25
3.98733	25
3.99100	26
3.99467	26
3.99833	26

[Chromatogram (Ch3)]
Interval(msec)	220
# of Points	1091
Start Time(min)	0.002
End Time(min)	3.998
R.Time (min)	Intensity
0.00167	1
0.00533	1
0.00900	0
0.01267	1
0.01633	0
0.02000	-2
0.02367	-4
0.02733	-4
0.03100	-2
0.03467	0
0.03833	2
0.04200	3
0.04567	3
0.04933	3
0.05300	2
0.05667	2
0.06033	4
0.06400	4
0.06767	1
0.07133	-0
0.07500	1
0.07867	2
0.08233	2
0.08600	2
0.08967	1
0.09333	-3
0.09700	-3
0.10067	-2
0.10433	-0
0.10800	1
0.11167	2
0.11533	0
0.11900	-1
0.12267	-0
0.12633	-0
0.13000	0
0.13367	0
0.13733	0
0.14100	1
0.14467	1
0.14833	0
0.15200	1
0.15567	2
0.15933	1
0.16300	-2
0.16667	-1
0.17033	0
0.17400	-0
0.17767	1
0.18133	1
0.18500	1
0.18867	2
0.19233	0
0.19600	-1
0.19967	1
0.20333	2
0.20700	3
0.21067	3
0.21433	1
0.21800	-1
0.22167	-3
0.22533	-1
0.22900	1
0.23267	1
0.23633	2
0.24000	3
0.24367	1
0.24733	-0
0.25100	0
0.25467	2
0.25833	1
0.26200	1
0.26567	1
0.26933	2
0.27300	3
0.27667	2
0.28033	1
0.28400	3
0.28767	5
0.29133	4
0.29500	3
0.29867	3
0.30233	2
0.30600	4
0.30967	5
0.31333	5
0.31700	4
0.32067	3
0.32433	2
0.32800	1
0.33167	2
0.33533	2
0.33900	4
0.34267	4
0.34633	6
0.35000	6
0.35367	7
0.35733	8
0.36100	7
0.36467	6
0.36833	7
0.37200	6
0.37567	6
0.37933	6
0.38300	7
0.38667	7
0.39033	8
0.39400	7
0.39767	6
0.40133	5
0.40500	6
0.40867	7
0.41233	8
0.41600	7
0.41967	4
0.42333	6
0.42700	8
0.43067	8
0.43433	9
0.43800	9
0.44167	8
0.44533	6
0.44900	6
0.45267	8
0.45633	9
0.46000	11
0.46367	12
0.46733	13
0.47100	12
0.47467	11
0.47833	8
0.48200	5
0.48567	3
0.48933	3
0.49300	5
0.49667	5
0.50033	6
0.50400	7
0.50767	7
0.51133	7
0.51500	6
0.51867	6
0.52233	6
0.52600	6
0.52967	8
0.53333	9
0.53700	9
0.54067	5
0.54433	2
0.54800	4
0.55167	6
0.55533	6
0.55900	5
0.56267	6
0.56633	7
0.57000	10
0.57367	11
0.57733	12
0.58100	11
0.58467	11
0.58833	10
0.59200	10
0.59567	9
0.59933	9
0.60300	10
0.60667	10
0.61033	11
0.61400	11
0.61767	11
0.62133	11
0.62500	8
0.62867	9
0.63233	10
0.63600	11
0.63967	12
0.64333	11
0.64700	15
0.65067	17
0.65433	19
0.65800	19
0.66167	19
0.66533	18
0.66900	18
0.67267	16
0.67633	14
0.68000	12
0.68367	13
0.68733	14
0.69100	16
0.69467	15
0.69833	14
0.70200	13
0.70567	11
0.70933	12
0.71300	12
0.71667	12
0.72033	10
0.72400	9
0.72767	8
0.73133	9
0.73500	10
0.73867	10
0.74233	11
0.74600	12
0.74967	10
0.75333	11
0.75700	11
0.76067	8
0.76433	7
0.76800	7
0.77167	8
0.77533	8
0.77900	9
0.78267	10
0.78633	13
0.79000	15
0.79367	15
0.79733	15
0.80100	15
0.80467	18
0.80833	18
0.81200	19
0.81567	18
0.81933	18
0.82300	17
0.82667	17
0.83033	15
0.83400	13
0.83767	14
0.84133	17
0.84500	18
0.84867	16
0.85233	15
0.85600	15
0.85967	15
0.86333	14
0.86700	16
0.87067	18
0.87433	19
0.87800	17
0.88167	16
0.88533	14
0.88900	14
0.89267	16
0.89633	18
0.90000	19
0.90367	19
0.90733	19
0.91100	18
0.91467	21
0.91833	24
0.92200	25
0.92567	24
0.92933	21
0.93300	19
0.93667	19
0.94033	20
0.94400	19
0.94767	19
0.95133	18
0.95500	17
0.95867	16
0.96233	14
0.96600	15
0.96967	17
0.97333	17
0.97700	20
0.98067	20
0.98433	16
0.98800	12
0.99167	11
0.99533	12
0.99900	12
1.00267	14
1.00633	15
1.01000	18
1.01367	21
1.01733	22
1.02100	22
1.02467	21
1.02833	20
1.03200	20
1.03567	20
1.03933	21
1.04300	21
1.04667	18
1.05033	17
1.05400	18
1.05767	20
1.06133	22
1.06500	22
1.06867	21
1.07233	22
1.07600	21
1.07967	21
1.08333	23
1.08700	24
1.09067	24
1.09433	26
1.09800	26
1.10167	26
1.10533	25
1.10900	23
1.11267	23
1.11633	22
1.12000	21
1.12367	20
1.12733	21
1.13100	21
1.13467	22
1.13833	23
1.14200	25
1.14567	26
1.14933	27
1.15300	26
1.15667	27
1.16033	28
1.16400	29
1.16767	30
1.17133	29
1.17500	27
1.17867	27
1.18233	26
1.18600	27
1.18967	29
1.19333	29
1.19700	28
1.20067	27
1.20433	26
1.20800	26
1.21167	25
1.21533	25
1.21900	24
1.22267	23
1.22633	25
1.23000	27
1.23367	27
1.23733	25
1.24100	25
1.24467	24
1.24833	23
1.25200	24
1.25567	26
1.25933	28
1.26300	30
1.26667	32
1.27033	30
1.27400	28
1.27767	26
1.28133	27
1.28500	29
1.28867	32
1.29233	34
1.29600	33
1.29967	31
1.30333	29
1.30700	29
1.31067	29
1.31433	28
1.31800	27
1.32167	26
1.32533	26
1.32900	26
1.33267	27
1.33633	26
1.34000	26
1.34367	28
1.34733	29
1.35100	29
1.35467	28
1.35833	27
1.36200	27
1.36567	28
1.36933	30
1.37300	30
1.37667	28
1.38033	29
1.38400	31
1.38767	31
1.39133	32
1.39500	31
1.39867	31
1.40233	31
1.40600	29
1.40967	28
1.41333	27
1.41700	27
1.42067	28
1.42433	28
1.42800	30
1.43167	31
1.43533	32
1.43900	34
1.44267	34
1.44633	32
1.45000	30
1.45367	29
1.45733	28
1.46100	28
1.46467	30
1.46833	32
1.47200	34
1.47567	37
1.47933	37
1.48300	37
1.48667	37
1.49033	38
1.49400	38
1.49767	37
1.50133	37
1.50500	37
1.50867	36
1.51233	34
1.51600	32
1.51967	31
1.52333	30
1.52700	31
1.53067	32
1.53433	30
1.53800	29
1.54167	30
1.54533	32
1.54900	32
1.55267	30
1.55633	30
1.56000	30
1.56367	31
1.56733	33
1.57100	33
1.57467	34
1.57833	34
1.58200	34
1.58567	33
1.58933	31
1.59300	32
1.59667	33
1.60033	32
1.60400	31
1.60767	30
1.61133	31
1.61500	32
1.61867	33
1.62233	32
1.62600	33
1.62967	31
1.63333	30
1.63700	31
1.64067	32
1.64433	33
1.64800	33
1.65167	32
1.65533	30
1.65900	31
1.66267	32
1.66633	34
1.67000	36
1.67367	38
1.67733	37
1.68100	37
1.68467	40
1.68833	41
1.69200	40
1.69567	39
1.69933	38
1.70300	37
1.70667	38
1.71033	40
1.71400	40
1.71767	42
1.72133	43
1.72500	42
1.72867	40
1.73233	37
1.73600	37
1.73967	37
1.74333	39
1.74700	42
1.75067	44
1.75433	45
1.75800	44
1.76167	44
1.76533	42
1.76900	43
1.77267	45
1.77633	47
1.78000	48
1.78367	50
1.78733	53
1.79100	55
1.79467	57
1.79833	59
1.80200	60
1.80567	60
1.80933	58
1.81300	55
1.81667	52
1.82033	51
1.82400	51
1.82767	52
1.83133	54
1.83500	56
1.83867	56
1.84233	56
1.84600	57
1.84967	57
1.85333	57
1.85700	58
1.86067	58
1.86433	58
1.86800	58
1.87167	58
1.87533	59
1.87900	59
1.88267	59
1.88633	60
1.89000	61
1.89367	64
1.89733	66
1.90100	66
1.90467	66
1.90833	67
1.91200	68
1.91567	66
1.91933	64
1.92300	65
1.92667	66
1.93033	67
1.93400	69
1.93767	71
1.94133	73
1.94500	73
1.94867	72
1.95233	73
1.95600	74
1.95967	76
1.96333	75
1.96700	74
1.97067	72
1.97433	73
1.97800	76
1.98167	78
1.98533	80
1.98900	82
1.99267	81
1.99633	78
2.00000	78
2.00367	80
2.00733	81
2.01100	84
2.01467	88
2.01833	88
2.02200	87
2.02567	87
2.02933	89
2.03300	90
2.03667	89
2.04033	90
2.04400	90
2.04767	90
2.05133	91
2.05500	93
2.05867	94
2.06233	95
2.06600	94
2.06967	97
2.07333	98
2.07700	99
2.08067	99
2.08433	99
2.08800	99
2.09167	101
2.09533	103
2.09900	103
2.10267	104
2.10633	104
2.11000	105
2.11367	107
2.11733	110
2.12100	113
2.12467	113
2.12833	115
2.13200	114
2.13567	112
2.13933	113
2.14300	115
2.14667	119
2.15033	120
2.15400	120
2.15767	124
2.16133	126
2.16500	124
2.16867	123
2.17233	123
2.17600	124
2.17967	125
2.18333	126
2.18700	127
2.19067	128
2.19433	128
2.19800	128
2.20167	129
2.20533	131
2.20900	136
2.21267	141
2.21633	144
2.22000	143
2.22367	145
2.22733	146
2.23100	147
2.23467	149
2.23833	150
2.24200	150
2.24567	150
2.24933	150
2.25300	152
2.25667	156
2.26033	160
2.26400	164
2.26767	166
2.27133	168
2.27500	166
2.27867	166
2.28233	168
2.28600	173
2.28967	176
2.29333	176
2.29700	174
2.30067	175
2.30433	179
2.30800	182
2.31167	184
2.31533	186
2.31900	187
2.32267	188
2.32633	188
2.33000	191
2.33367	192
2.33733	194
2.34100	196
2.34467	199
2.34833	203
2.35200	207
2.35567	209
2.35933	209
2.36300	210
2.36667	211
2.37033	214
2.37400	218
2.37767	221
2.38133	222
2.38500	223
2.38867	224
2.39233	224
2.39600	224
2.39967	226
2.40333	227
2.40700	230
2.41067	235
2.41433	238
2.41800	240
2.42167	242
2.42533	246
2.42900	251
2.43267	253
2.43633	254
2.44000	259
2.44367	296
2.44733	390
2.45100	493
2.45467	577
2.45833	627
2.46200	633
2.46567	610
2.46933	581
2.47300	558
2.47667	544
2.48033	536
2.48400	524
2.48767	504
2.49133	476
2.49500	447
2.49867	423
2.50233	403
2.50600	387
2.50967	376
2.51333	371
2.51700	371
2.52067	378
2.52433	390
2.52800	406
2.53167	422
2.53533	432
2.53900	435
2.54267	432
2.54633	423
2.55000	409
2.55367	394
2.55733	378
2.56100	364
2.56467	352
2.56833	340
2.57200	330
2.57567	325
2.57933	322
2.58300	319
2.58667	316
2.59033	314
2.59400	311
2.59767	304
2.60133	295
2.60500	282
2.60867	267
2.61233	250
2.61600	232
2.61967	214
2.62333	200
2.62700	190
2.63067	181
2.63433	177
2.63800	178
2.64167	183
2.64533	190
2.64900	198
2.65267	207
2.65633	218
2.66000	230
2.66367	238
2.66733	243
2.67100	245
2.67467	246
2.67833	246
2.68200	245
2.68567	243
2.68933	240
2.69300	238
2.69667	235
2.70033	234
2.70400	231
2.70767	227
2.71133	225
2.71500	224
2.71867	222
2.72233	222
2.72600	221
2.72967	220
2.73333	219
2.73700	219
2.74067	220
2.74433	219
2.74800	215
2.75167	215
2.75533	218
2.75900	221
2.76267	224
2.76633	223
2.77000	223
2.77367	224
2.77733	225
2.78100	224
2.78467	227
2.78833	228
2.79200	227
2.79567	225
2.79933	225
2.80300	227
2.80667	229
2.81033	233
2.81400	237
2.81767	243
2.82133	261
2.82500	300
2.82867	375
2.83233	510
2.83600	729
2.83967	1049
2.84333	1474
2.84700	1993
2.85067	2585
2.85433	3205
2.85800	3802
2.86167	4327
2.86533	4741
2.86900	5016
2.87267	5140
2.87633	5121
2.88000	4980
2.88367	4744
2.88733	4441
2.89100	4095
2.89467	3735
2.89833	3377
2.90200	3034
2.90567	2713
2.90933	2417
2.91300	2146
2.91667	1905
2.92033	1692
2.92400	1504
2.92767	1341
2.93133	1197
2.93500	1072
2.93867	961
2.94233	865
2.94600	783
2.94967	713
2.95333	653
2.95700	598
2.96067	550
2.96433	511
2.96800	476
2.97167	445
2.97533	419
2.97900	398
2.98267	379
2.98633	360
2.99000	343
2.99367	331
2.99733	318
3.00100	305
3.00467	294
3.00833	284
3.01200	276
3.01567	269
3.01933	264
3.02300	258
3.02667	251
3.03033	246
3.03400	242
3.03767	237
3.04133	232
3.04500	227
3.04867	222
3.05233	221
3.05600	219
3.05967	214
3.06333	209
3.06700	205
3.07067	204
3.07433	202
3.07800	200
3.08167	197
3.08533	196
3.08900	193
3.09267	192
3.09633	187
3.10000	184
3.10367	183
3.10733	184
3.11100	183
3.11467	182
3.11833	181
3.12200	174
3.12567	148
3.12933	118
3.13300	102
3.13667	104
3.14033	118
3.14400	142
3.14767	175
3.15133	214
3.15500	256
3.15867	300
3.16233	343
3.16600	385
3.16967	424
3.17333	458
3.17700	487
3.18067	513
3.18433	536
3.18800	557
3.19167	575
3.19533	589
3.19900	601
3.20267	611
3.20633	619
3.21000	627
3.21367	634
3.21733	638
3.22100	642
3.22467	644
3.22833	648
3.23200	652
3.23567	654
3.23933	654
3.24300	653
3.24667	656
3.25033	658
3.25400	660
3.25767	661
3.26133	664
3.26500	665
3.26867	664
3.27233	665
3.27600	669
3.27967	672
3.28333	677
3.28700	681
3.29067	682
3.29433	684
3.29800	685
3.30167	686
3.30533	688
3.30900	692
3.31267	693
3.31633	694
3.32000	696
3.32367	695
3.32733	698
3.33100	701
3.33467	704
3.33833	708
3.34200	710
3.34567	709
3.34933	707
3.35300	706
3.35667	704
3.36033	702
3.36400	702
3.36767	704
3.37133	705
3.37500	706
3.37867	705
3.38233	701
3.38600	699
3.38967	699
3.39333	698
3.39700	698
3.40067	696
3.40433	693
3.40800	690
3.41167	687
3.41533	688
3.41900	686
3.42267	683
3.42633	681
3.43000	678
3.43367	674
3.43733	673
3.44100	668
3.44467	665
3.44833	662
3.45200	661
3.45567	658
3.45933	656
3.46300	652
3.46667	649
3.47033	647
3.47400	644
3.47767	643
3.48133	641
3.48500	639
3.48867	637
3.49233	637
3.49600	636
3.49967	634
3.50333	634
3.50700	633
3.51067	632
3.51433	632
3.51800	631
3.52167	626
3.52533	621
3.52900	616
3.53267	613
3.53633	611
3.54000	611
3.54367	611
3.54733	609
3.55100	605
3.55467	600
3.55833	598
3.56200	596
3.56567	595
3.56933	593
3.57300	591
3.57667	587
3.58033	587
3.58400	588
3.58767	587
3.59133	586
3.59500	585
3.59867	582
3.60233	580
3.60600	576
3.60967	574
3.61333	570
3.61700	571
3.62067	571
3.62433	570
3.62800	571
3.63167	574
3.63533	573
3.63900	571
3.64267	568
3.64633	566
3.65000	564
3.65367	565
3.65733	566
3.66100	566
3.66467	565
3.66833	563
3.67200	563
3.67567	562
3.67933	560
3.68300	556
3.68667	553
3.69033	551
3.69400	551
3.69767	551
3.70133	550
3.70500	549
3.70867	550
3.71233	551
3.71600	552
3.71967	553
3.72333	553
3.72700	553
3.73067	555
3.73433	555
3.73800	556
3.74167	555
3.74533	556
3.74900	554
3.75267	550
3.75633	548
3.76000	547
3.76367	547
3.76733	546
3.77100	546
3.77467	546
3.77833	547
3.78200	547
3.78567	546
3.78933	546
3.79300	547
3.79667	549
3.80033	549
3.80400	549
3.80767	547
3.81133	544
3.81500	543
3.81867	542
3.82233	541
3.82600	540
3.82967	541
3.83333	542
3.83700	545
3.84067	545
3.84433	541
3.84800	536
3.85167	533
3.85533	530
3.85900	528
3.86267	526
3.86633	525
3.87000	525
3.87367	527
3.87733	530
3.88100	531
3.88467	530
3.88833	530
3.89200	524
3.89567	520
3.89933	517
3.90300	516
3.90667	514
3.91033	516
3.91400	517
3.91767	517
3.92133	514
3.92500	511
3.92867	511
3.93233	511
3.93600	511
3.93967	511
3.94333	510
3.94700	507
3.95067	505
3.95433	505
3.95800	506
3.96167	508
3.96533	508
3.96900	506
3.97267	502
3.97633	499
3.98000	499
3.98367	498
3.98733	496
3.99100	495
3.99467	493
3.99833	489

[Status Trace (Column Oven Temperature)]
Interval(msec)	1000
# of Points	240
Start Time(min)	0.004
End Time(min)	3.988
Intensity Units	
Intensity Multiplier	1
R.Time (min)	Intensity
0.00435	35.03
0.02102	35.02
0.03768	35.03
0.05435	35.03
0.07102	35.03
0.08768	35.05
0.10435	35.04
0.12102	35.05
0.13768	35.05
0.15435	35.04
0.17102	35.04
0.18768	35.04
0.20435	35.05
0.22102	35.05
0.23768	35.05
0.25435	35.03
0.27102	35.03
0.28768	35.03
0.30435	35.02
0.32102	35.02
0.33768	35.02
0.35435	35.02
0.37102	35.02
0.38768	35.01
0.40435	35.01
0.42102	35.01
0.43768	35.01
0.45435	35.03
0.47102	35.03
0.48768	35.03
0.50435	35.03
0.52102	35.02
0.53768	35.02
0.55435	35.01
0.57102	35.01
0.58768	35.02
0.60435	35.01
0.62102	35.01
0.63768	35.02
0.65435	35.01
0.67102	35.01
0.68768	35.00
0.70435	35.01
0.72102	34.99
0.73768	34.99
0.75435	34.99
0.77102	35.00
0.78768	35.00
0.80435	35.01
0.82102	35.00
0.83768	34.99
0.85435	34.98
0.87102	34.98
0.88768	34.98
0.90435	34.99
0.92102	34.98
0.93768	34.97
0.95435	34.98
0.97102	34.98
0.98768	34.99
1.00435	35.00
1.02102	34.99
1.03768	34.99
1.05435	34.99
1.07102	34.99
1.08768	34.98
1.10435	34.99
1.12102	34.99
1.13768	34.99
1.15435	34.99
1.17102	34.98
1.18768	34.97
1.20435	34.97
1.22102	34.96
1.23768	34.96
1.25435	34.97
1.27102	34.97
1.28768	34.99
1.30435	35.01
1.32102	35.02
1.33768	35.02
1.35435	35.01
1.37102	35.01
1.38768	35.02
1.40435	35.02
1.42102	35.02
1.43768	35.00
1.45435	35.00
1.47102	34.99
1.48768	34.98
1.50435	34.98
1.52102	34.97
1.53768	34.98
1.55435	34.98
1.57102	34.99
1.58768	35.02
1.60435	35.08
1.62102	35.18
1.63768	35.35
1.65435	35.57
1.67102	35.88
1.68768	36.23
1.70435	36.59
1.72102	36.94
1.73768	37.27
1.75435	37.60
1.77102	37.93
1.78768	38.28
1.80435	38.61
1.82102	38.93
1.83768	39.27
1.85435	39.60
1.87102	39.92
1.88768	40.24
1.90435	40.58
1.92102	40.91
1.93768	41.24
1.95435	41.56
1.97102	41.88
1.98768	42.19
2.00435	42.52
2.02102	42.84
2.03768	43.17
2.05435	43.51
2.07102	43.83
2.08768	44.14
2.10435	44.49
2.12102	44.83
2.13768	45.15
2.15435	45.48
2.17102	45.80
2.18768	46.14
2.20435	46.46
2.22102	46.79
2.23768	47.11
2.25435	47.43
2.27102	47.75
2.28768	48.11
2.30435	48.48
2.32102	48.78
2.33768	49.08
2.35435	49.39
2.37102	49.65
2.38768	49.76
2.40435	49.77
2.42102	49.78
2.43768	49.78
2.45435	49.77
2.47102	49.78
2.48768	49.78
2.50435	49.78
2.52102	49.79
2.53768	49.78
2.55435	49.81
2.57102	49.83
2.58768	49.81
2.60435	49.81
2.62102	49.81
2.63768	49.82
2.65435	49.84
2.67102	49.83
2.68768	49.84
2.70435	49.85
2.72102	49.88
2.73768	49.87
2.75435	49.86
2.77102	49.85
2.78768	49.87
2.80435	49.88
2.82102	49.88
2.83768	49.88
2.85435	49.88
2.87102	49.89
2.88768	49.89
2.90435	49.90
2.92102	49.91
2.93768	49.93
2.95435	49.94
2.97102	49.96
2.98768	49.97
3.00435	49.98
3.02102	49.99
3.03768	49.99
3.05435	50.00
3.07102	50.01
3.08768	50.03
3.10435	50.03
3.12102	50.04
3.13768	50.05
3.15435	50.05
3.17102	50.07
3.18768	50.08
3.20435	50.09
3.22102	50.10
3.23768	50.10
3.25435	50.09
3.27102	50.09
3.28768	50.08
3.30435	50.08
3.32102	50.09
3.33768	50.09
3.35435	50.11
3.37102	50.11
3.38768	50.10
3.40435	50.10
3.42102	50.08
3.43768	50.07
3.45435	50.08
3.47102	50.07
3.48768	50.07
3.50435	50.06
3.52102	50.07
3.53768	50.07
3.55435	50.06
3.57102	50.05
3.58768	50.04
3.60435	50.04
3.62102	50.04
3.63768	50.03
3.65435	50.02
3.67102	50.02
3.68768	50.02
3.70435	50.03
3.72102	50.04
3.73768	50.05
3.75435	50.06
3.77102	50.06
3.78768	50.06
3.80435	50.07
3.82102	50.07
3.83768	50.07
3.85435	50.07
3.87102	50.06
3.88768	50.06
3.90435	50.05
3.92102	50.04
3.93768	50.04
3.95435	50.04
3.97102	50.04
3.98768	50.04

[Status Trace (Injection Unit Temperature)]
Interval(msec)	1000
# of Points	240
Start Time(min)	0.004
End Time(min)	3.988
Intensity Units	
Intensity Multiplier	1
R.Time (min)	Intensity
0.00435	99.98
0.02102	99.98
0.03768	99.98
0.05435	99.99
0.07102	99.99
0.08768	99.98
0.10435	99.98
0.12102	99.98
0.13768	99.98
0.15435	99.99
0.17102	99.98
0.18768	99.99
0.20435	99.98
0.22102	99.98
0.23768	99.99
0.25435	99.98
0.27102	99.99
0.28768	99.99
0.30435	99.99
0.32102	99.99
0.33768	99.98
0.35435	99.99
0.37102	99.99
0.38768	99.99
0.40435	99.99
0.42102	99.99
0.43768	99.98
0.45435	99.99
0.47102	99.98
0.48768	99.99
0.50435	99.99
0.52102	99.98
0.53768	99.99
0.55435	99.99
0.57102	99.99
0.58768	99.98
0.60435	99.99
0.62102	99.98
0.63768	99.99
0.65435	99.98
0.67102	99.99
0.68768	99.98
0.70435	99.98
0.72102	99.98
0.73768	99.99
0.75435	99.98
0.77102	99.99
0.78768	99.99
0.80435	99.98
0.82102	99.98
0.83768	99.98
0.85435	99.99
0.87102	99.98
0.88768	99.99
0.90435	99.98
0.92102	99.99
0.93768	99.98
0.95435	99.98
0.97102	99.99
0.98768	99.98
1.00435	99.99
1.02102	99.99
1.03768	99.99
1.05435	99.98
1.07102	99.99
1.08768	99.99
1.10435	99.99
1.12102	99.99
1.13768	99.99
1.15435	99.99
1.17102	99.99
1.18768	99.98
1.20435	99.98
1.22102	99.99
1.23768	99.99
1.25435	99.99
1.27102	99.98
1.28768	99.98
1.30435	99.98
1.32102	99.99
1.33768	99.99
1.35435	99.98
1.37102	99.99
1.38768	99.98
1.40435	99.99
1.42102	99.99
1.43768	99.98
1.45435	99.98
1.47102	99.99
1.48768	99.99
1.50435	99.99
1.52102	99.99
1.53768	99.98
1.55435	99.99
1.57102	99.99
1.58768	99.99
1.60435	99.98
1.62102	99.98
1.63768	99.98
1.65435	99.99
1.67102	99.98
1.68768	99.98
1.70435	99.98
1.72102	99.98
1.73768	99.98
1.75435	99.98
1.77102	99.98
1.78768	99.98
1.80435	99.98
1.82102	99.98
1.83768	99.98
1.85435	99.98
1.87102	99.98
1.88768	99.98
1.90435	99.98
1.92102	99.98
1.93768	99.98
1.95435	99.98
1.97102	99.97
1.98768	99.98
2.00435	99.98
2.02102	99.97
2.03768	99.98
2.05435	99.97
2.07102	99.97
2.08768	99.97
2.10435	99.97
2.12102	99.97
2.13768	99.97
2.15435	99.97
2.17102	99.97
2.18768	99.97
2.20435	99.97
2.22102	99.97
2.23768	99.97
2.25435	99.97
2.27102	99.96
2.28768	99.96
2.30435	99.96
2.32102	99.97
2.33768	99.96
2.35435	99.97
2.37102	99.96
2.38768	99.96
2.40435	99.96
2.42102	99.96
2.43768	99.96
2.45435	99.96
2.47102	99.96
2.48768	99.96
2.50435	99.96
2.52102	99.97
2.53768	99.97
2.55435	99.97
2.57102	99.97
2.58768	99.97
2.60435	99.97
2.62102	99.97
2.63768	99.98
2.65435	99.97
2.67102	99.97
2.68768	99.98
2.70435	99.98
2.72102	99.98
2.73768	99.98
2.75435	99.98
2.77102	99.99
2.78768	99.99
2.80435	99.99
2.82102	99.99
2.83768	100.00
2.85435	100.00
2.87102	100.00
2.88768	100.00
2.90435	100.01
2.92102	100.01
2.93768	100.01
2.95435	100.00
2.97102	100.01
2.98768	100.01
3.00435	100.01
3.02102	100.01
3.03768	100.01
3.05435	100.02
3.07102	100.02
3.08768	100.02
3.10435	100.01
3.12102	100.02
3.13768	100.02
3.15435	100.02
3.17102	100.02
3.18768	100.02
3.20435	100.02
3.22102	100.02
3.23768	100.02
3.25435	100.02
3.27102	100.02
3.28768	100.02
3.30435	100.02
3.32102	100.02
3.33768	100.02
3.35435	100.02
3.37102	100.02
3.38768	100.02
3.40435	100.03
3.42102	100.03
3.43768	100.02
3.45435	100.03
3.47102	100.02
3.48768	100.03
3.50435	100.03
3.52102	100.03
3.53768	100.03
3.55435	100.03
3.57102	100.03
3.58768	100.03
3.60435	100.03
3.62102	100.03
3.63768	100.03
3.65435	100.04
3.67102	100.04
3.68768	100.04
3.70435	100.04
3.72102	100.04
3.73768	100.04
3.75435	100.04
3.77102	100.04
3.78768	100.04
3.80435	100.04
3.82102	100.04
3.83768	100.04
3.85435	100.04
3.87102	100.04
3.88768	100.05
3.90435	100.05
3.92102	100.05
3.93768	100.05
3.95435	100.04
3.97102	100.05
3.98768	100.05

[Status Trace (Carrier Gas Pressure)]
Interval(msec)	1000
# of Points	240
Start Time(min)	0.004
End Time(min)	3.988
Intensity Units	
Intensity Multiplier	1
R.Time (min)	Intensity
0.00435	58.00
0.02102	55.99
0.03768	56.62
0.05435	58.86
0.07102	59.77
0.08768	58.19
0.10435	57.97
0.12102	58.01
0.13768	58.01
0.15435	58.01
0.17102	58.00
0.18768	58.00
0.20435	58.00
0.22102	58.00
0.23768	58.00
0.25435	58.00
0.27102	58.00
0.28768	58.00
0.30435	58.00
0.32102	58.00
0.33768	58.00
0.35435	58.00
0.37102	58.00
0.38768	58.00
0.40435	58.00
0.42102	58.00
0.43768	58.00
0.45435	58.00
0.47102	58.00
0.48768	58.00
0.50435	58.00
0.52102	58.00
0.53768	58.00
0.55435	58.00
0.57102	58.00
0.58768	58.00
0.60435	58.00
0.62102	58.00
0.63768	58.00
0.65435	58.00
0.67102	58.00
0.68768	58.00
0.70435	58.00
0.72102	58.00
0.73768	58.00
0.75435	58.00
0.77102	58.00
0.78768	58.00
0.80435	58.00
0.82102	58.00
0.83768	58.00
0.85435	58.00
0.87102	58.00
0.88768	58.00
0.90435	58.00
0.92102	58.00
0.93768	58.00
0.95435	58.00
0.97102	58.00
0.98768	58.00
1.00435	58.00
1.02102	58.00
1.03768	58.00
1.05435	58.00
1.07102	58.00
1.08768	58.00
1.10435	58.00
1.12102	58.00
1.13768	58.00
1.15435	58.00
1.17102	58.00
1.18768	58.00
1.20435	58.00
1.22102	58.00
1.23768	58.00
1.25435	58.00
1.27102	58.00
1.28768	58.00
1.30435	58.00
1.32102	58.00
1.33768	58.00
1.35435	58.00
1.37102	58.00
1.38768	58.00
1.40435	58.00
1.42102	58.00
1.43768	58.00
1.45435	58.00
1.47102	58.00
1.48768	58.00
1.50435	58.00
1.52102	58.00
1.53768	58.00
1.55435	58.00
1.57102	58.00
1.58768	58.00
1.60435	58.00
1.62102	58.00
1.63768	58.00
1.65435	58.00
1.67102	58.01
1.68768	58.01
1.70435	58.00
1.72102	58.00
1.73768	58.00
1.75435	58.00
1.77102	58.00
1.78768	58.00
1.80435	58.00
1.82102	58.00
1.83768	58.00
1.85435	58.00
1.87102	58.00
1.88768	58.00
1.90435	58.00
1.92102	58.00
1.93768	58.00
1.95435	58.00
1.97102	58.00
1.98768	58.00
2.00435	58.00
2.02102	58.00
2.03768	58.00
2.05435	58.00
2.07102	58.00
2.08768	58.00
2.10435	58.00
2.12102	58.00
2.13768	58.00
2.15435	58.00
2.17102	58.00
2.18768	58.00
2.20435	58.00
2.22102	58.00
2.23768	58.00
2.25435	58.00
2.27102	58.00
2.28768	58.00
2.30435	58.00
2.32102	58.00
2.33768	58.00
2.35435	58.00
2.37102	58.00
2.38768	57.99
2.40435	57.99
2.42102	58.00
2.43768	58.00
2.45435	58.00
2.47102	58.00
2.48768	58.00
2.50435	57.99
2.52102	57.99
2.53768	57.99
2.55435	58.00
2.57102	58.00
2.58768	58.00
2.60435	58.00
2.62102	58.00
2.63768	58.00
2.65435	58.00
2.67102	58.00
2.68768	58.00
2.70435	58.00
2.72102	58.00
2.73768	58.00
2.75435	58.00
2.77102	58.00
2.78768	58.00
2.80435	58.00
2.82102	58.00
2.83768	58.00
2.85435	58.00
2.87102	58.00
2.88768	58.00
2.90435	58.00
2.92102	58.00
2.93768	58.00
2.95435	58.00
2.97102	58.00
2.98768	58.00
3.00435	58.00
3.02102	58.00
3.03768	58.00
3.05435	58.00
3.07102	58.00
3.08768	58.00
3.10435	58.00
3.12102	58.00
3.13768	58.00
3.15435	58.00
3.17102	58.00
3.18768	58.00
3.20435	58.00
3.22102	58.00
3.23768	58.00
3.25435	58.00
3.27102	58.00
3.28768	58.00
3.30435	58.00
3.32102	58.00
3.33768	58.00
3.35435	58.00
3.37102	58.00
3.38768	58.00
3.40435	58.00
3.42102	58.00
3.43768	58.00
3.45435	58.00
3.47102	58.00
3.48768	58.00
3.50435	58.00
3.52102	58.00
3.53768	58.00
3.55435	58.00
3.57102	58.00
3.58768	58.00
3.60435	58.00
3.62102	58.00
3.63768	58.00
3.65435	58.00
3.67102	58.00
3.68768	58.00
3.70435	58.00
3.72102	58.00
3.73768	58.00
3.75435	58.00
3.77102	58.00
3.78768	58.00
3.80435	58.00
3.82102	58.00
3.83768	58.00
3.85435	58.00
3.87102	58.00
3.88768	58.00
3.90435	58.00
3.92102	58.00
3.93768	58.00
3.95435	58.00
3.97102	58.00
3.98768	58.00

[Status Trace (Carrier Gas Flow)]
Interval(msec)	1000
# of Points	240
Start Time(min)	0.004
End Time(min)	3.988
Intensity Units	
Intensity Multiplier	1
R.Time (min)	Intensity
0.00435	34.52
0.02102	34.57
0.03768	34.54
0.05435	34.55
0.07102	34.49
0.08768	34.52
0.10435	34.51
0.12102	34.52
0.13768	34.51
0.15435	34.52
0.17102	34.52
0.18768	34.52
0.20435	34.52
0.22102	34.52
0.23768	34.52
0.25435	34.52
0.27102	34.52
0.28768	34.52
0.30435	34.52
0.32102	34.52
0.33768	34.52
0.35435	34.52
0.37102	34.52
0.38768	34.52
0.40435	34.52
0.42102	34.52
0.43768	34.51
0.45435	34.52
0.47102	34.52
0.48768	34.52
0.50435	34.52
0.52102	34.52
0.53768	34.51
0.55435	34.52
0.57102	34.52
0.58768	34.52
0.60435	34.52
0.62102	34.53
0.63768	34.52
0.65435	34.52
0.67102	34.52
0.68768	34.52
0.70435	34.52
0.72102	34.52
0.73768	34.52
0.75435	34.51
0.77102	34.52
0.78768	34.52
0.80435	34.51
0.82102	34.52
0.83768	34.52
0.85435	34.52
0.87102	34.51
0.88768	34.51
0.90435	34.52
0.92102	34.52
0.93768	34.51
0.95435	34.52
0.97102	34.52
0.98768	34.52
1.00435	34.52
1.02102	34.52
1.03768	34.52
1.05435	34.52
1.07102	34.52
1.08768	34.51
1.10435	34.52
1.12102	34.52
1.13768	34.52
1.15435	34.51
1.17102	34.52
1.18768	34.52
1.20435	34.52
1.22102	34.52
1.23768	34.52
1.25435	34.52
1.27102	34.52
1.28768	34.52
1.30435	34.52
1.32102	34.52
1.33768	34.52
1.35435	34.52
1.37102	34.52
1.38768	34.52
1.40435	34.52
1.42102	34.52
1.43768	34.52
1.45435	34.52
1.47102	34.52
1.48768	34.52
1.50435	34.52
1.52102	34.52
1.53768	34.52
1.55435	34.52
1.57102	34.52
1.58768	34.52
1.60435	34.52
1.62102	34.52
1.63768	34.53
1.65435	34.52
1.67102	34.52
1.68768	34.51
1.70435	34.51
1.72102	34.52
1.73768	34.52
1.75435	34.51
1.77102	34.52
1.78768	34.52
1.80435	34.51
1.82102	34.52
1.83768	34.52
1.85435	34.52
1.87102	34.52
1.88768	34.52
1.90435	34.52
1.92102	34.52
1.93768	34.52
1.95435	34.52
1.97102	34.52
1.98768	34.52
2.00435	34.52
2.02102	34.51
2.03768	34.52
2.05435	34.52
2.07102	34.52
2.08768	34.52
2.10435	34.52
2.12102	34.52
2.13768	34.52
2.15435	34.52
2.17102	34.52
2.18768	34.52
2.20435	34.52
2.22102	34.52
2.23768	34.52
2.25435	34.52
2.27102	34.52
2.28768	34.52
2.30435	34.52
2.32102	34.52
2.33768	34.52
2.35435	34.52
2.37102	34.51
2.38768	34.52
2.40435	34.52
2.42102	34.51
2.43768	34.52
2.45435	34.52
2.47102	34.52
2.48768	34.52
2.50435	34.55
2.52102	34.52
2.53768	34.53
2.55435	34.52
2.57102	34.52
2.58768	34.51
2.60435	34.52
2.62102	34.52
2.63768	34.52
2.65435	34.51
2.67102	34.51
2.68768	34.52
2.70435	34.52
2.72102	34.51
2.73768	34.52
2.75435	34.52
2.77102	34.52
2.78768	34.52
2.80435	34.52
2.82102	34.52
2.83768	34.53
2.85435	34.52
2.87102	34.52
2.88768	34.52
2.90435	34.52
2.92102	34.51
2.93768	34.51
2.95435	34.52
2.97102	34.52
2.98768	34.52
3.00435	34.52
3.02102	34.52
3.03768	34.52
3.05435	34.52
3.07102	34.52
3.08768	34.52
3.10435	34.52
3.12102	34.52
3.13768	34.52
3.15435	34.52
3.17102	34.52
3.18768	34.52
3.20435	34.52
3.22102	34.52
3.23768	34.52
3.25435	34.52
3.27102	34.52
3.28768	34.52
3.30435	34.52
3.32102	34.52
3.33768	34.52
3.35435	34.52
3.37102	34.51
3.38768	34.52
3.40435	34.52
3.42102	34.52
3.43768	34.52
3.45435	34.52
3.47102	34.52
3.48768	34.52
3.50435	34.52
3.52102	34.52
3.53768	34.52
3.55435	34.52
3.57102	34.52
3.58768	34.52
3.60435	34.51
3.62102	34.52
3.63768	34.52
3.65435	34.52
3.67102	34.52
3.68768	34.52
3.70435	34.52
3.72102	34.52
3.73768	34.51
3.75435	34.52
3.77102	34.53
3.78768	34.52
3.80435	34.52
3.82102	34.52
3.83768	34.52
3.85435	34.51
3.87102	34.52
3.88768	34.52
3.90435	34.52
3.92102	34.52
3.93768	34.52
3.95435	34.52
3.97102	34.52
3.98768	34.52

[Status Trace (Column Flow)]
Interval(msec)	1000
# of Points	240
Start Time(min)	0.004
End Time(min)	3.988
Intensity Units	
Intensity Multiplier	1
R.Time (min)	Intensity
0.00435	5.57
0.02102	5.33
0.03768	5.40
0.05435	5.67
0.07102	5.78
0.08768	5.59
0.10435	5.56
0.12102	5.57
0.13768	5.57
0.15435	5.57
0.17102	5.57
0.18768	5.57
0.20435	5.57
0.22102	5.57
0.23768	5.57
0.25435	5.57
0.27102	5.57
0.28768	5.57
0.30435	5.57
0.32102	5.57
0.33768	5.57
0.35435	5.57
0.37102	5.57
0.38768	5.57
0.40435	5.57
0.42102	5.57
0.43768	5.57
0.45435	5.57
0.47102	5.57
0.48768	5.57
0.50435	5.57
0.52102	5.57
0.53768	5.57
0.55435	5.57
0.57102	5.57
0.58768	5.57
0.60435	5.57
0.62102	5.57
0.63768	5.57
0.65435	5.57
0.67102	5.57
0.68768	5.57
0.70435	5.57
0.72102	5.57
0.73768	5.57
0.75435	5.57
0.77102	5.57
0.78768	5.57
0.80435	5.57
0.82102	5.57
0.83768	5.57
0.85435	5.57
0.87102	5.57
0.88768	5.57
0.90435	5.57
0.92102	5.57
0.93768	5.57
0.95435	5.57
0.97102	5.57
0.98768	5.57
1.00435	5.57
1.02102	5.57
1.03768	5.57
1.05435	5.57
1.07102	5.57
1.08768	5.57
1.10435	5.57
1.12102	5.57
1.13768	5.57
1.15435	5.57
1.17102	5.57
1.18768	5.57
1.20435	5.57
1.22102	5.57
1.23768	5.57
1.25435	5.57
1.27102	5.57
1.28768	5.57
1.30435	5.57
1.32102	5.57
1.33768	5.57
1.35435	5.57
1.37102	5.57
1.38768	5.57
1.40435	5.57
1.42102	5.57
1.43768	5.57
1.45435	5.57
1.47102	5.57
1.48768	5.57
1.50435	5.57
1.52102	5.57
1.53768	5.57
1.55435	5.57
1.57102	5.57
1.58768	5.57
1.60435	5.56
1.62102	5.56
1.63768	5.56
1.65435	5.55
1.67102	5.54
1.68768	5.53
1.70435	5.52
1.72102	5.51
1.73768	5.50
1.75435	5.49
1.77102	5.48
1.78768	5.46
1.80435	5.45
1.82102	5.45
1.83768	5.43
1.85435	5.42
1.87102	5.41
1.88768	5.40
1.90435	5.39
1.92102	5.39
1.93768	5.37
1.95435	5.36
1.97102	5.36
1.98768	5.35
2.00435	5.34
2.02102	5.33
2.03768	5.32
2.05435	5.31
2.07102	5.30
2.08768	5.29
2.10435	5.28
2.12102	5.27
2.13768	5.26
2.15435	5.25
2.17102	5.24
2.18768	5.23
2.20435	5.22
2.22102	5.21
2.23768	5.20
2.25435	5.19
2.27102	5.18
2.28768	5.17
2.30435	5.16
2.32102	5.15
2.33768	5.15
2.35435	5.14
2.37102	5.13
2.38768	5.13
2.40435	5.13
2.42102	5.13
2.43768	5.13
2.45435	5.13
2.47102	5.13
2.48768	5.13
2.50435	5.12
2.52102	5.13
2.53768	5.13
2.55435	5.13
2.57102	5.12
2.58768	5.13
2.60435	5.13
2.62102	5.13
2.63768	5.13
2.65435	5.12
2.67102	5.12
2.68768	5.12
2.70435	5.12
2.72102	5.12
2.73768	5.12
2.75435	5.12
2.77102	5.12
2.78768	5.12
2.80435	5.12
2.82102	5.12
2.83768	5.12
2.85435	5.12
2.87102	5.12
2.88768	5.12
2.90435	5.12
2.92102	5.12
2.93768	5.12
2.95435	5.12
2.97102	5.12
2.98768	5.12
3.00435	5.12
3.02102	5.12
3.03768	5.12
3.05435	5.12
3.07102	5.12
3.08768	5.12
3.10435	5.12
3.12102	5.12
3.13768	5.12
3.15435	5.12
3.17102	5.12
3.18768	5.12
3.20435	5.12
3.22102	5.12
3.23768	5.12
3.25435	5.12
3.27102	5.12
3.28768	5.12
3.30435	5.12
3.32102	5.12
3.33768	5.12
3.35435	5.12
3.37102	5.12
3.38768	5.12
3.40435	5.12
3.42102	5.12
3.43768	5.12
3.45435	5.12
3.47102	5.12
3.48768	5.12
3.50435	5.12
3.52102	5.12
3.53768	5.12
3.55435	5.12
3.57102	5.12
3.58768	5.12
3.60435	5.12
3.62102	5.12
3.63768	5.12
3.65435	5.12
3.67102	5.12
3.68768	5.12
3.70435	5.12
3.72102	5.12
3.73768	5.12
3.75435	5.12
3.77102	5.12
3.78768	5.12
3.80435	5.12
3.82102	5.12
3.83768	5.12
3.85435	5.12
3.87102	5.12
3.88768	5.12
3.90435	5.12
3.92102	5.12
3.93768	5.12
3.95435	5.12
3.97102	5.12
3.98768	5.12

[Status Trace (Linear Velocity)]
Interval(msec)	1000
# of Points	240
Start Time(min)	0.004
End Time(min)	3.988
Intensity Units	
Intensity Multiplier	1
R.Time (min)	Intensity
0.00435	39.02
0.02102	37.70
0.03768	38.12
0.05435	39.59
0.07102	40.19
0.08768	39.14
0.10435	39.01
0.12102	39.03
0.13768	39.03
0.15435	39.03
0.17102	39.03
0.18768	39.03
0.20435	39.02
0.22102	39.02
0.23768	39.02
0.25435	39.02
0.27102	39.03
0.28768	39.03
0.30435	39.03
0.32102	39.03
0.33768	39.03
0.35435	39.02
0.37102	39.02
0.38768	39.03
0.40435	39.03
0.42102	39.03
0.43768	39.03
0.45435	39.03
0.47102	39.02
0.48768	39.02
0.50435	39.02
0.52102	39.03
0.53768	39.03
0.55435	39.03
0.57102	39.03
0.58768	39.03
0.60435	39.03
0.62102	39.03
0.63768	39.03
0.65435	39.03
0.67102	39.03
0.68768	39.03
0.70435	39.03
0.72102	39.03
0.73768	39.03
0.75435	39.03
0.77102	39.03
0.78768	39.03
0.80435	39.03
0.82102	39.03
0.83768	39.03
0.85435	39.03
0.87102	39.03
0.88768	39.03
0.90435	39.03
0.92102	39.03
0.93768	39.03
0.95435	39.03
0.97102	39.03
0.98768	39.03
1.00435	39.03
1.02102	39.03
1.03768	39.03
1.05435	39.03
1.07102	39.03
1.08768	39.03
1.10435	39.03
1.12102	39.03
1.13768	39.03
1.15435	39.03
1.17102	39.03
1.18768	39.03
1.20435	39.03
1.22102	39.03
1.23768	39.03
1.25435	39.03
1.27102	39.03
1.28768	39.03
1.30435	39.03
1.32102	39.03
1.33768	39.03
1.35435	39.03
1.37102	39.03
1.38768	39.03
1.40435	39.03
1.42102	39.03
1.43768	39.03
1.45435	39.03
1.47102	39.03
1.48768	39.03
1.50435	39.03
1.52102	39.03
1.53768	39.03
1.55435	39.03
1.57102	39.03
1.58768	39.03
1.60435	39.02
1.62102	39.01
1.63768	39.00
1.65435	38.98
1.67102	38.95
1.68768	38.91
1.70435	38.88
1.72102	38.85
1.73768	38.81
1.75435	38.78
1.77102	38.75
1.78768	38.72
1.80435	38.68
1.82102	38.66
1.83768	38.62
1.85435	38.59
1.87102	38.56
1.88768	38.53
1.90435	38.50
1.92102	38.47
1.93768	38.44
1.95435	38.41
1.97102	38.38
1.98768	38.35
2.00435	38.32
2.02102	38.29
2.03768	38.26
2.05435	38.23
2.07102	38.20
2.08768	38.17
2.10435	38.14
2.12102	38.11
2.13768	38.08
2.15435	38.05
2.17102	38.02
2.18768	37.99
2.20435	37.96
2.22102	37.93
2.23768	37.90
2.25435	37.87
2.27102	37.85
2.28768	37.81
2.30435	37.78
2.32102	37.75
2.33768	37.72
2.35435	37.70
2.37102	37.68
2.38768	37.66
2.40435	37.66
2.42102	37.66
2.43768	37.66
2.45435	37.66
2.47102	37.66
2.48768	37.66
2.50435	37.65
2.52102	37.66
2.53768	37.66
2.55435	37.66
2.57102	37.66
2.58768	37.66
2.60435	37.66
2.62102	37.66
2.63768	37.66
2.65435	37.66
2.67102	37.66
2.68768	37.66
2.70435	37.66
2.72102	37.65
2.73768	37.65
2.75435	37.65
2.77102	37.66
2.78768	37.65
2.80435	37.65
2.82102	37.65
2.83768	37.65
2.85435	37.65
2.87102	37.65
2.88768	37.65
2.90435	37.65
2.92102	37.65
2.93768	37.65
2.95435	37.65
2.97102	37.65
2.98768	37.65
3.00435	37.64
3.02102	37.64
3.03768	37.64
3.05435	37.64
3.07102	37.64
3.08768	37.64
3.10435	37.64
3.12102	37.64
3.13768	37.64
3.15435	37.64
3.17102	37.64
3.18768	37.64
3.20435	37.63
3.22102	37.63
3.23768	37.63
3.25435	37.63
3.27102	37.63
3.28768	37.64
3.30435	37.64
3.32102	37.64
3.33768	37.63
3.35435	37.63
3.37102	37.63
3.38768	37.63
3.40435	37.63
3.42102	37.64
3.43768	37.64
3.45435	37.64
3.47102	37.64
3.48768	37.64
3.50435	37.64
3.52102	37.64
3.53768	37.64
3.55435	37.64
3.57102	37.64
3.58768	37.64
3.60435	37.64
3.62102	37.64
3.63768	37.64
3.65435	37.64
3.67102	37.64
3.68768	37.64
3.70435	37.64
3.72102	37.64
3.73768	37.64
3.75435	37.64
3.77102	37.64
3.78768	37.64
3.80435	37.64
3.82102	37.64
3.83768	37.64
3.85435	37.64
3.87102	37.64
3.88768	37.64
3.90435	37.64
3.92102	37.64
3.93768	37.64
3.95435	37.64
3.97102	37.64
3.98768	37.64

