[Header]
Application Name	LabSolutions
Version	5.110
Data File Name	C:\Users\User\Desktop\GC Analyses\Jack\Nachusa Grasslands Sampling\T1 Timepoint July 12th\T1_07122022_047.gcd
Output Date	3/14/2023
Output Time	3:41:00 PM

[File Information]
Type	Data File
Generated	3/8/2023 6:25:44 PM
Generated by	System Administrator
Modified	3/8/2023 6:32:20 PM
Modified by	System Administrator

[Sample Information]
Operator Name	System Administrator
Acquired	3/8/2023 6:28:18 PM
Sample Type	0:Unknown
Level	0
Sample Name	047
Sample ID	047
ISTD Amount1	1
ISTD Amount2	1
ISTD Amount3	1
ISTD Amount4	1
ISTD Amount5	1
ISTD Amount6	1
ISTD Amount7	1
ISTD Amount8	1
ISTD Amount9	1
ISTD Amount10	1
ISTD Amount11	1
ISTD Amount12	1
ISTD Amount13	1
ISTD Amount14	1
ISTD Amount15	1
ISTD Amount16	1
ISTD Amount17	1
ISTD Amount18	1
ISTD Amount19	1
ISTD Amount20	1
ISTD Amount21	1
ISTD Amount22	1
ISTD Amount23	1
ISTD Amount24	1
ISTD Amount25	1
ISTD Amount26	1
ISTD Amount27	1
ISTD Amount28	1
ISTD Amount29	1
ISTD Amount30	1
ISTD Amount31	1
ISTD Amount32	1
Sample Amount	1
Dilution Factor	1
Vial#	46
Injection Volume	1
Injection Count	1
Bar Code	

[Original Files]
Data File	C:\Users\User\Desktop\GC Analyses\Jack\Nachusa Grasslands Sampling\T1 Timepoint July 12th\T1_07122022_047.gcd
Method File	C:\LabSolutions\Data\GHG_4min_2022\ghg3_togas_w_acet_4 min_new_int.gcm
Batch File	C:\LabSolutions\Data\AutoSamplerTesting\T1_07122022.gcb
Report Format File	c:\LabSolutions\System\DEFAULT.lsr

[File Description]


[Configuration]
Instrument Name	C0B7VH3-Instrument1
Instrument #	1
Line #	1
# of Detectors	3
Detector ID	DET#1	DET#2	DET#3
Detector Name	FID	PTCD	ECD
# of Channels	1	1	1

[Peak Table(Ch1)]
# of Peaks	3
Peak#	R.Time	I.Time	F.Time	Area	Height	A/H	Conc.	Mark	ID#	Name	k'	Plate #	Plate Ht.	Tailing	Resolution	Sep.Factor	Area Ratio	Height Ratio	Conc. %	Norm Conc.
1	1.483	1.439	1.534	2606	740	3.520	18.399	   	1	CO	0.000	4619	32.475	0.000	0.000	0.000	0	0	2.024	2.024
2	1.567	1.534	1.637	19521	9770	1.998	377.454	 V 	2	CH4	0.057	11336	13.232	1.270	1.154	0.000	0	0	41.522	41.522
3	1.996	1.949	2.594	2044779	959533	2.131	513.184	   	3	CO2	0.346	17155	8.744	1.324	7.159	6.087	0	0	56.454	56.454

[Peak Table(Ch2)]
# of Peaks	0

[Peak Table(Ch3)]
# of Peaks	5
Peak#	R.Time	I.Time	F.Time	Area	Height	A/H	Conc.	Mark	ID#	Name	k'	Plate #	Plate Ht.	Tailing	Resolution	Sep.Factor	Area Ratio	Height Ratio	Conc. %	Norm Conc.
1	2.462	2.392	2.517	1435	442	3.246	0.000	   			0.000	8785	17.074	0.000	0.000	0.000	0	0	0.000	0.000
2	2.543	2.517	2.631	1088	258	4.218	0.000	 V 			0.033	3946	38.009	0.000	0.604	0.000	0	0	0.000	0.000
3	2.693	2.645	2.719	265	79	3.369	0.000	   			0.094	2041	73.501	0.000	0.751	2.864	0	0	0.000	0.000
4	2.873	2.719	3.214	60491	15072	4.013	1.545	 V 	1	N2O	0.167	12539	11.963	1.681	1.054	1.778	0	0	100.000	100.000
5	3.404	3.221	3.995	13005	517	25.148	0.000	   	2	SF6	0.383	388	386.972	2.074	1.339	2.295	0	0	0.000	0.000

[Compound Results(Ch1)]
# of IDs	6
ID#	Name	R.Time	Area	Height	Conc.	Curve	3rd	2nd	1st	Constant	Area Ratio	Height Ratio	Conc. %	Norm Conc.
1	CO	1.483	2606	740	18.399	Linear	0.000000e+00	0.000000e+00	1.416423e+002	0.000000e+00	0	0	2.024	2.024
2	CH4	1.567	19521	9770	377.454	Linear	0.000000e+00	0.000000e+00	5.171738e+001	0.000000e+00	0	0	41.522	41.522
3	CO2	1.996	2044779	959533	513.184	Linear	0.000000e+00	0.000000e+00	3.984494e+003	0.000000e+00	0	0	56.454	56.454
4	Ethylene	0.000	0	0	0.000	Linear	0.000000e+00	0.000000e+00	0.000000e+00	0.000000e+00	0	0	0.000	0.000
5	Acetylene	0.000	0	0	0.000	Linear	0.000000e+00	0.000000e+00	0.000000e+00	0.000000e+00	0	0	0.000	0.000
6	Ethane	0.000	0	0	0.000	Linear	0.000000e+00	0.000000e+00	0.000000e+00	0.000000e+00	0	0	0.000	0.000

[Compound Results(Ch2)]
# of IDs	5
ID#	Name	R.Time	Area	Height	Conc.	Curve	3rd	2nd	1st	Constant	Area Ratio	Height Ratio	Conc. %	Norm Conc.
1	Hydrogen	0.000	0	0	0.000	Linear	0.000000e+00	0.000000e+00	0.000000e+00	0.000000e+00	0	0	0.000	0.000
2	Oxygen	0.000	0	0	0.000	Linear	0.000000e+00	0.000000e+00	0.000000e+00	0.000000e+00	0	0	0.000	0.000
3	Nitrogen	0.000	0	0	0.000	Linear	0.000000e+00	0.000000e+00	0.000000e+00	0.000000e+00	0	0	0.000	0.000
4	Methane	0.000	0	0	0.000	Linear	0.000000e+00	0.000000e+00	0.000000e+00	0.000000e+00	0	0	0.000	0.000
5	Carbon Monoxide	0.000	0	0	0.000	Linear	0.000000e+00	0.000000e+00	0.000000e+00	0.000000e+00	0	0	0.000	0.000

[Compound Results(Ch3)]
# of IDs	2
ID#	Name	R.Time	Area	Height	Conc.	Curve	3rd	2nd	1st	Constant	Area Ratio	Height Ratio	Conc. %	Norm Conc.
1	N2O	2.873	60491	15072	1.545	Linear	0.000000e+00	0.000000e+00	3.915173e+004	0.000000e+00	0	0	100.000	100.000
2	SF6	3.404	13005	517	0.000	Linear	0.000000e+00	0.000000e+00	0.000000e+00	0.000000e+00	0	0	0.000	0.000

[Group Results(Ch1)]
# of Groups	0

[Group Results(Ch2)]
# of Groups	0

[Group Results(Ch3)]
# of Groups	0

[Chromatogram (Ch1)]
Interval(msec)	220
# of Points	1091
Start Time(min)	0.002
End Time(min)	3.998
R.Time (min)	Intensity
0.00167	-20
0.00533	-19
0.00900	-21
0.01267	-22
0.01633	-21
0.02000	-20
0.02367	-17
0.02733	-14
0.03100	-14
0.03467	-12
0.03833	-10
0.04200	-8
0.04567	-6
0.04933	-6
0.05300	-6
0.05667	-4
0.06033	0
0.06400	7
0.06767	10
0.07133	8
0.07500	3
0.07867	-2
0.08233	-7
0.08600	-12
0.08967	-17
0.09333	-16
0.09700	-11
0.10067	-5
0.10433	4
0.10800	11
0.11167	14
0.11533	16
0.11900	12
0.12267	7
0.12633	1
0.13000	-3
0.13367	-8
0.13733	-10
0.14100	-11
0.14467	-12
0.14833	-16
0.15200	-18
0.15567	-15
0.15933	-9
0.16300	1
0.16667	12
0.17033	16
0.17400	17
0.17767	15
0.18133	11
0.18500	2
0.18867	-9
0.19233	-14
0.19600	-16
0.19967	-14
0.20333	-8
0.20700	3
0.21067	11
0.21433	13
0.21800	14
0.22167	13
0.22533	11
0.22900	9
0.23267	5
0.23633	3
0.24000	3
0.24367	7
0.24733	14
0.25100	17
0.25467	13
0.25833	7
0.26200	2
0.26567	-3
0.26933	-6
0.27300	-9
0.27667	-10
0.28033	-13
0.28400	-17
0.28767	-13
0.29133	-8
0.29500	-2
0.29867	6
0.30233	15
0.30600	26
0.30967	39
0.31333	48
0.31700	54
0.32067	56
0.32433	57
0.32800	61
0.33167	68
0.33533	75
0.33900	77
0.34267	73
0.34633	66
0.35000	56
0.35367	49
0.35733	47
0.36100	46
0.36467	50
0.36833	57
0.37200	63
0.37567	67
0.37933	68
0.38300	67
0.38667	69
0.39033	71
0.39400	72
0.39767	72
0.40133	68
0.40500	60
0.40867	52
0.41233	49
0.41600	50
0.41967	59
0.42333	71
0.42700	78
0.43067	75
0.43433	62
0.43800	50
0.44167	37
0.44533	26
0.44900	19
0.45267	14
0.45633	12
0.46000	10
0.46367	7
0.46733	6
0.47100	7
0.47467	8
0.47833	11
0.48200	14
0.48567	19
0.48933	19
0.49300	19
0.49667	21
0.50033	26
0.50400	29
0.50767	24
0.51133	15
0.51500	7
0.51867	2
0.52233	1
0.52600	-1
0.52967	-1
0.53333	2
0.53700	3
0.54067	4
0.54433	4
0.54800	2
0.55167	0
0.55533	2
0.55900	3
0.56267	1
0.56633	2
0.57000	4
0.57367	10
0.57733	18
0.58100	24
0.58467	24
0.58833	20
0.59200	14
0.59567	9
0.59933	4
0.60300	-1
0.60667	-2
0.61033	3
0.61400	7
0.61767	9
0.62133	12
0.62500	13
0.62867	10
0.63233	4
0.63600	-4
0.63967	-14
0.64333	-18
0.64700	-16
0.65067	-11
0.65433	-7
0.65800	-7
0.66167	-10
0.66533	-11
0.66900	-11
0.67267	-9
0.67633	-6
0.68000	1
0.68367	7
0.68733	7
0.69100	4
0.69467	-0
0.69833	-2
0.70200	2
0.70567	4
0.70933	4
0.71300	2
0.71667	1
0.72033	-0
0.72400	-1
0.72767	-2
0.73133	-1
0.73500	1
0.73867	4
0.74233	6
0.74600	9
0.74967	12
0.75333	16
0.75700	19
0.76067	18
0.76433	11
0.76800	1
0.77167	-8
0.77533	-16
0.77900	-19
0.78267	-19
0.78633	-14
0.79000	-9
0.79367	-8
0.79733	-9
0.80100	-9
0.80467	-12
0.80833	-18
0.81200	-22
0.81567	-26
0.81933	-31
0.82300	-36
0.82667	-40
0.83033	-38
0.83400	-31
0.83767	-21
0.84133	-16
0.84500	-15
0.84867	-13
0.85233	-5
0.85600	2
0.85967	4
0.86333	2
0.86700	-5
0.87067	-15
0.87433	-21
0.87800	-21
0.88167	-14
0.88533	-5
0.88900	2
0.89267	7
0.89633	7
0.90000	4
0.90367	0
0.90733	-3
0.91100	-6
0.91467	-8
0.91833	-11
0.92200	-15
0.92567	-13
0.92933	-5
0.93300	4
0.93667	7
0.94033	3
0.94400	-6
0.94767	-12
0.95133	-13
0.95500	-13
0.95867	-13
0.96233	-13
0.96600	-8
0.96967	1
0.97333	6
0.97700	6
0.98067	5
0.98433	3
0.98800	6
0.99167	7
0.99533	4
0.99900	1
1.00267	-5
1.00633	-12
1.01000	-15
1.01367	-15
1.01733	-11
1.02100	-9
1.02467	-9
1.02833	-7
1.03200	-4
1.03567	0
1.03933	10
1.04300	17
1.04667	18
1.05033	13
1.05400	3
1.05767	-6
1.06133	-14
1.06500	-17
1.06867	-16
1.07233	-16
1.07600	-13
1.07967	-11
1.08333	-14
1.08700	-18
1.09067	-20
1.09433	-21
1.09800	-22
1.10167	-23
1.10533	-21
1.10900	-18
1.11267	-22
1.11633	-29
1.12000	-36
1.12367	-43
1.12733	-45
1.13100	-40
1.13467	-29
1.13833	-20
1.14200	-12
1.14567	-7
1.14933	-6
1.15300	-6
1.15667	-7
1.16033	-4
1.16400	2
1.16767	6
1.17133	6
1.17500	4
1.17867	-1
1.18233	-6
1.18600	-7
1.18967	-5
1.19333	-3
1.19700	-1
1.20067	0
1.20433	4
1.20800	2
1.21167	-5
1.21533	-13
1.21900	-16
1.22267	-13
1.22633	-6
1.23000	-1
1.23367	5
1.23733	16
1.24100	23
1.24467	23
1.24833	17
1.25200	12
1.25567	10
1.25933	9
1.26300	5
1.26667	4
1.27033	3
1.27400	-4
1.27767	-11
1.28133	-14
1.28500	-14
1.28867	-13
1.29233	-8
1.29600	-0
1.29967	8
1.30333	14
1.30700	17
1.31067	17
1.31433	17
1.31800	22
1.32167	28
1.32533	29
1.32900	28
1.33267	29
1.33633	32
1.34000	33
1.34367	32
1.34733	30
1.35100	27
1.35467	24
1.35833	23
1.36200	22
1.36567	25
1.36933	31
1.37300	38
1.37667	45
1.38033	50
1.38400	51
1.38767	48
1.39133	44
1.39500	42
1.39867	43
1.40233	46
1.40600	50
1.40967	55
1.41333	54
1.41700	46
1.42067	35
1.42433	26
1.42800	22
1.43167	21
1.43533	24
1.43900	44
1.44267	126
1.44633	294
1.45000	482
1.45367	625
1.45733	706
1.46100	735
1.46467	735
1.46833	726
1.47200	726
1.47567	742
1.47933	768
1.48300	793
1.48667	793
1.49033	753
1.49400	685
1.49767	608
1.50133	530
1.50500	456
1.50867	392
1.51233	344
1.51600	300
1.51967	257
1.52333	216
1.52700	181
1.53067	155
1.53433	148
1.53800	203
1.54167	477
1.54533	1242
1.54900	2651
1.55267	4501
1.55633	6391
1.56000	8004
1.56367	9186
1.56733	9838
1.57100	9832
1.57467	9098
1.57833	7772
1.58200	6170
1.58567	4614
1.58933	3303
1.59300	2294
1.59667	1563
1.60033	1053
1.60400	707
1.60767	481
1.61133	338
1.61500	250
1.61867	197
1.62233	156
1.62600	120
1.62967	95
1.63333	83
1.63700	81
1.64067	81
1.64433	80
1.64800	81
1.65167	82
1.65533	78
1.65900	74
1.66267	71
1.66633	71
1.67000	75
1.67367	78
1.67733	76
1.68100	71
1.68467	64
1.68833	57
1.69200	51
1.69567	47
1.69933	47
1.70300	48
1.70667	45
1.71033	40
1.71400	39
1.71767	40
1.72133	43
1.72500	48
1.72867	53
1.73233	60
1.73600	67
1.73967	71
1.74333	71
1.74700	68
1.75067	69
1.75433	69
1.75800	64
1.76167	56
1.76533	51
1.76900	53
1.77267	57
1.77633	59
1.78000	60
1.78367	61
1.78733	65
1.79100	68
1.79467	71
1.79833	74
1.80200	73
1.80567	70
1.80933	67
1.81300	67
1.81667	71
1.82033	78
1.82400	85
1.82767	86
1.83133	78
1.83500	68
1.83867	65
1.84233	67
1.84600	67
1.84967	66
1.85333	62
1.85700	58
1.86067	52
1.86433	48
1.86800	49
1.87167	54
1.87533	59
1.87900	62
1.88267	61
1.88633	62
1.89000	64
1.89367	67
1.89733	68
1.90100	63
1.90467	62
1.90833	64
1.91200	62
1.91567	61
1.91933	61
1.92300	61
1.92667	65
1.93033	71
1.93400	78
1.93767	86
1.94133	94
1.94500	101
1.94867	106
1.95233	125
1.95600	255
1.95967	1047
1.96333	4810
1.96700	18291
1.97067	55263
1.97433	133604
1.97800	262822
1.98167	432498
1.98533	615165
1.98900	779413
1.99267	899724
1.99633	959672
2.00000	952605
2.00367	882917
2.00733	766335
2.01100	625990
2.01467	485062
2.01833	360236
2.02200	259341
2.02567	183056
2.02933	128050
2.03300	89644
2.03667	63366
2.04033	45580
2.04400	33581
2.04767	25454
2.05133	19890
2.05500	16020
2.05867	13272
2.06233	11273
2.06600	9774
2.06967	8617
2.07333	7704
2.07700	6969
2.08067	6369
2.08433	5871
2.08800	5450
2.09167	5092
2.09533	4785
2.09900	4513
2.10267	4258
2.10633	4021
2.11000	3806
2.11367	3614
2.11733	3445
2.12100	3296
2.12467	3163
2.12833	3036
2.13200	2912
2.13567	2793
2.13933	2683
2.14300	2583
2.14667	2492
2.15033	2406
2.15400	2324
2.15767	2252
2.16133	2187
2.16500	2124
2.16867	2061
2.17233	2004
2.17600	1952
2.17967	1904
2.18333	1859
2.18700	1809
2.19067	1759
2.19433	1715
2.19800	1674
2.20167	1638
2.20533	1613
2.20900	1590
2.21267	1561
2.21633	1528
2.22000	1491
2.22367	1452
2.22733	1416
2.23100	1387
2.23467	1362
2.23833	1341
2.24200	1318
2.24567	1291
2.24933	1265
2.25300	1239
2.25667	1213
2.26033	1192
2.26400	1175
2.26767	1160
2.27133	1141
2.27500	1123
2.27867	1107
2.28233	1095
2.28600	1083
2.28967	1066
2.29333	1046
2.29700	1028
2.30067	1013
2.30433	1001
2.30800	993
2.31167	987
2.31533	981
2.31900	974
2.32267	961
2.32633	941
2.33000	916
2.33367	888
2.33733	865
2.34100	845
2.34467	828
2.34833	817
2.35200	809
2.35567	804
2.35933	802
2.36300	806
2.36667	811
2.37033	810
2.37400	802
2.37767	792
2.38133	782
2.38500	773
2.38867	770
2.39233	767
2.39600	759
2.39967	752
2.40333	743
2.40700	734
2.41067	729
2.41433	726
2.41800	719
2.42167	710
2.42533	702
2.42900	692
2.43267	686
2.43633	685
2.44000	685
2.44367	679
2.44733	674
2.45100	672
2.45467	672
2.45833	672
2.46200	668
2.46567	662
2.46933	658
2.47300	651
2.47667	645
2.48033	643
2.48400	643
2.48767	644
2.49133	643
2.49500	639
2.49867	632
2.50233	625
2.50600	617
2.50967	611
2.51333	607
2.51700	608
2.52067	609
2.52433	610
2.52800	609
2.53167	604
2.53533	596
2.53900	590
2.54267	586
2.54633	585
2.55000	588
2.55367	591
2.55733	590
2.56100	584
2.56467	576
2.56833	570
2.57200	562
2.57567	556
2.57933	554
2.58300	555
2.58667	554
2.59033	551
2.59400	547
2.59767	543
2.60133	540
2.60500	540
2.60867	540
2.61233	538
2.61600	537
2.61967	541
2.62333	544
2.62700	544
2.63067	541
2.63433	541
2.63800	543
2.64167	546
2.64533	545
2.64900	544
2.65267	539
2.65633	535
2.66000	535
2.66367	537
2.66733	540
2.67100	540
2.67467	538
2.67833	531
2.68200	525
2.68567	523
2.68933	521
2.69300	521
2.69667	525
2.70033	524
2.70400	515
2.70767	505
2.71133	501
2.71500	504
2.71867	508
2.72233	512
2.72600	521
2.72967	528
2.73333	533
2.73700	535
2.74067	531
2.74433	524
2.74800	513
2.75167	500
2.75533	488
2.75900	479
2.76267	474
2.76633	473
2.77000	474
2.77367	479
2.77733	484
2.78100	486
2.78467	490
2.78833	491
2.79200	485
2.79567	478
2.79933	476
2.80300	476
2.80667	479
2.81033	478
2.81400	476
2.81767	479
2.82133	478
2.82500	474
2.82867	471
2.83233	472
2.83600	478
2.83967	487
2.84333	497
2.84700	506
2.85067	511
2.85433	511
2.85800	507
2.86167	500
2.86533	492
2.86900	487
2.87267	484
2.87633	484
2.88000	488
2.88367	490
2.88733	493
2.89100	498
2.89467	504
2.89833	508
2.90200	510
2.90567	508
2.90933	504
2.91300	503
2.91667	501
2.92033	497
2.92400	492
2.92767	487
2.93133	484
2.93500	485
2.93867	487
2.94233	491
2.94600	494
2.94967	494
2.95333	495
2.95700	498
2.96067	502
2.96433	505
2.96800	507
2.97167	507
2.97533	504
2.97900	500
2.98267	495
2.98633	492
2.99000	492
2.99367	489
2.99733	483
3.00100	482
3.00467	482
3.00833	483
3.01200	484
3.01567	477
3.01933	468
3.02300	464
3.02667	464
3.03033	467
3.03400	470
3.03767	473
3.04133	477
3.04500	481
3.04867	486
3.05233	489
3.05600	493
3.05967	499
3.06333	502
3.06700	498
3.07067	486
3.07433	470
3.07800	453
3.08167	442
3.08533	436
3.08900	431
3.09267	431
3.09633	436
3.10000	440
3.10367	442
3.10733	442
3.11100	443
3.11467	447
3.11833	453
3.12200	462
3.12567	475
3.12933	485
3.13300	485
3.13667	475
3.14033	463
3.14400	453
3.14767	450
3.15133	453
3.15500	459
3.15867	462
3.16233	463
3.16600	463
3.16967	464
3.17333	465
3.17700	469
3.18067	473
3.18433	479
3.18800	486
3.19167	490
3.19533	487
3.19900	478
3.20267	470
3.20633	461
3.21000	452
3.21367	445
3.21733	436
3.22100	427
3.22467	422
3.22833	421
3.23200	421
3.23567	421
3.23933	422
3.24300	429
3.24667	437
3.25033	447
3.25400	456
3.25767	457
3.26133	454
3.26500	451
3.26867	449
3.27233	449
3.27600	452
3.27967	456
3.28333	456
3.28700	452
3.29067	446
3.29433	441
3.29800	440
3.30167	443
3.30533	447
3.30900	453
3.31267	455
3.31633	450
3.32000	443
3.32367	434
3.32733	431
3.33100	428
3.33467	425
3.33833	421
3.34200	418
3.34567	417
3.34933	420
3.35300	426
3.35667	431
3.36033	437
3.36400	440
3.36767	435
3.37133	429
3.37500	426
3.37867	427
3.38233	433
3.38600	438
3.38967	440
3.39333	438
3.39700	433
3.40067	429
3.40433	426
3.40800	420
3.41167	413
3.41533	407
3.41900	406
3.42267	408
3.42633	409
3.43000	406
3.43367	402
3.43733	398
3.44100	395
3.44467	395
3.44833	400
3.45200	407
3.45567	409
3.45933	408
3.46300	408
3.46667	410
3.47033	414
3.47400	416
3.47767	411
3.48133	402
3.48500	397
3.48867	401
3.49233	406
3.49600	411
3.49967	414
3.50333	413
3.50700	406
3.51067	396
3.51433	390
3.51800	390
3.52167	390
3.52533	390
3.52900	393
3.53267	395
3.53633	392
3.54000	387
3.54367	384
3.54733	380
3.55100	375
3.55467	371
3.55833	370
3.56200	370
3.56567	375
3.56933	384
3.57300	388
3.57667	388
3.58033	390
3.58400	392
3.58767	393
3.59133	393
3.59500	391
3.59867	388
3.60233	385
3.60600	380
3.60967	375
3.61333	369
3.61700	364
3.62067	358
3.62433	356
3.62800	359
3.63167	364
3.63533	366
3.63900	367
3.64267	366
3.64633	365
3.65000	364
3.65367	363
3.65733	363
3.66100	361
3.66467	359
3.66833	362
3.67200	364
3.67567	365
3.67933	369
3.68300	372
3.68667	369
3.69033	363
3.69400	359
3.69767	356
3.70133	356
3.70500	356
3.70867	358
3.71233	355
3.71600	347
3.71967	342
3.72333	340
3.72700	341
3.73067	343
3.73433	345
3.73800	348
3.74167	349
3.74533	349
3.74900	347
3.75267	342
3.75633	339
3.76000	338
3.76367	337
3.76733	336
3.77100	335
3.77467	333
3.77833	334
3.78200	334
3.78567	332
3.78933	330
3.79300	332
3.79667	337
3.80033	342
3.80400	346
3.80767	344
3.81133	334
3.81500	324
3.81867	320
3.82233	318
3.82600	314
3.82967	310
3.83333	307
3.83700	305
3.84067	307
3.84433	314
3.84800	325
3.85167	334
3.85533	337
3.85900	335
3.86267	334
3.86633	336
3.87000	334
3.87367	329
3.87733	321
3.88100	310
3.88467	302
3.88833	294
3.89200	290
3.89567	290
3.89933	294
3.90300	300
3.90667	305
3.91033	309
3.91400	312
3.91767	315
3.92133	314
3.92500	312
3.92867	311
3.93233	312
3.93600	311
3.93967	307
3.94333	305
3.94700	304
3.95067	297
3.95433	286
3.95800	276
3.96167	272
3.96533	273
3.96900	278
3.97267	282
3.97633	285
3.98000	287
3.98367	291
3.98733	295
3.99100	300
3.99467	305
3.99833	309

[Chromatogram (Ch2)]
Interval(msec)	220
# of Points	1091
Start Time(min)	0.002
End Time(min)	3.998
R.Time (min)	Intensity
0.00167	1
0.00533	1
0.00900	1
0.01267	1
0.01633	1
0.02000	1
0.02367	0
0.02733	0
0.03100	-0
0.03467	-1
0.03833	-1
0.04200	-1
0.04567	-2
0.04933	-2
0.05300	-2
0.05667	-1
0.06033	-1
0.06400	-0
0.06767	-0
0.07133	0
0.07500	1
0.07867	1
0.08233	1
0.08600	1
0.08967	1
0.09333	1
0.09700	1
0.10067	1
0.10433	1
0.10800	2
0.11167	2
0.11533	2
0.11900	2
0.12267	2
0.12633	2
0.13000	2
0.13367	2
0.13733	2
0.14100	2
0.14467	2
0.14833	2
0.15200	3
0.15567	3
0.15933	3
0.16300	3
0.16667	2
0.17033	2
0.17400	2
0.17767	2
0.18133	2
0.18500	2
0.18867	2
0.19233	2
0.19600	2
0.19967	1
0.20333	1
0.20700	1
0.21067	0
0.21433	-0
0.21800	-0
0.22167	-1
0.22533	-1
0.22900	-1
0.23267	-1
0.23633	-1
0.24000	-1
0.24367	-1
0.24733	-1
0.25100	-0
0.25467	0
0.25833	0
0.26200	1
0.26567	1
0.26933	1
0.27300	1
0.27667	1
0.28033	1
0.28400	1
0.28767	2
0.29133	2
0.29500	2
0.29867	2
0.30233	2
0.30600	2
0.30967	2
0.31333	1
0.31700	1
0.32067	1
0.32433	1
0.32800	1
0.33167	0
0.33533	-0
0.33900	-1
0.34267	-1
0.34633	-1
0.35000	-1
0.35367	-2
0.35733	-2
0.36100	-2
0.36467	-2
0.36833	-2
0.37200	-2
0.37567	-2
0.37933	-2
0.38300	-2
0.38667	-3
0.39033	-3
0.39400	-3
0.39767	-4
0.40133	-4
0.40500	-4
0.40867	-4
0.41233	-4
0.41600	-4
0.41967	-4
0.42333	-3
0.42700	-3
0.43067	-2
0.43433	-2
0.43800	-1
0.44167	-1
0.44533	-0
0.44900	-0
0.45267	0
0.45633	0
0.46000	1
0.46367	1
0.46733	1
0.47100	1
0.47467	2
0.47833	2
0.48200	2
0.48567	3
0.48933	3
0.49300	3
0.49667	3
0.50033	3
0.50400	3
0.50767	3
0.51133	3
0.51500	3
0.51867	3
0.52233	3
0.52600	3
0.52967	2
0.53333	2
0.53700	2
0.54067	1
0.54433	1
0.54800	1
0.55167	1
0.55533	0
0.55900	-0
0.56267	-0
0.56633	-1
0.57000	-1
0.57367	-1
0.57733	-1
0.58100	-1
0.58467	-0
0.58833	-0
0.59200	-0
0.59567	-0
0.59933	0
0.60300	0
0.60667	0
0.61033	1
0.61400	1
0.61767	1
0.62133	1
0.62500	1
0.62867	1
0.63233	1
0.63600	1
0.63967	0
0.64333	0
0.64700	0
0.65067	-0
0.65433	-0
0.65800	-1
0.66167	-1
0.66533	-1
0.66900	-2
0.67267	-2
0.67633	-2
0.68000	-2
0.68367	-2
0.68733	-2
0.69100	-2
0.69467	-1
0.69833	-1
0.70200	-1
0.70567	-1
0.70933	-1
0.71300	-1
0.71667	-1
0.72033	-1
0.72400	-0
0.72767	-1
0.73133	-1
0.73500	-1
0.73867	-2
0.74233	-2
0.74600	-2
0.74967	-2
0.75333	-2
0.75700	-1
0.76067	-1
0.76433	-1
0.76800	-1
0.77167	-0
0.77533	-1
0.77900	-1
0.78267	-1
0.78633	-1
0.79000	-1
0.79367	-1
0.79733	-1
0.80100	-1
0.80467	-1
0.80833	-1
0.81200	-1
0.81567	-1
0.81933	-1
0.82300	-1
0.82667	-0
0.83033	0
0.83400	1
0.83767	1
0.84133	1
0.84500	2
0.84867	2
0.85233	2
0.85600	3
0.85967	3
0.86333	3
0.86700	3
0.87067	3
0.87433	4
0.87800	4
0.88167	3
0.88533	3
0.88900	3
0.89267	2
0.89633	2
0.90000	1
0.90367	1
0.90733	0
0.91100	0
0.91467	-0
0.91833	-1
0.92200	-1
0.92567	-1
0.92933	-1
0.93300	-1
0.93667	-1
0.94033	-1
0.94400	-1
0.94767	-1
0.95133	-1
0.95500	-0
0.95867	-0
0.96233	-0
0.96600	-1
0.96967	-1
0.97333	-1
0.97700	-1
0.98067	-1
0.98433	-1
0.98800	-1
0.99167	-1
0.99533	-1
0.99900	-1
1.00267	-1
1.00633	-1
1.01000	-1
1.01367	-1
1.01733	-0
1.02100	0
1.02467	1
1.02833	1
1.03200	1
1.03567	2
1.03933	2
1.04300	2
1.04667	2
1.05033	2
1.05400	2
1.05767	1
1.06133	1
1.06500	1
1.06867	1
1.07233	1
1.07600	1
1.07967	1
1.08333	1
1.08700	0
1.09067	0
1.09433	0
1.09800	0
1.10167	-0
1.10533	-1
1.10900	-1
1.11267	-1
1.11633	-1
1.12000	-2
1.12367	-2
1.12733	-2
1.13100	-2
1.13467	-3
1.13833	-3
1.14200	-3
1.14567	-2
1.14933	-2
1.15300	-2
1.15667	-2
1.16033	-2
1.16400	-2
1.16767	-2
1.17133	-2
1.17500	-1
1.17867	-1
1.18233	-1
1.18600	-0
1.18967	0
1.19333	1
1.19700	2
1.20067	2
1.20433	2
1.20800	3
1.21167	3
1.21533	3
1.21900	3
1.22267	3
1.22633	2
1.23000	2
1.23367	1
1.23733	1
1.24100	1
1.24467	0
1.24833	0
1.25200	0
1.25567	-0
1.25933	-0
1.26300	-0
1.26667	0
1.27033	0
1.27400	-0
1.27767	-0
1.28133	-0
1.28500	-1
1.28867	-1
1.29233	-1
1.29600	-1
1.29967	-1
1.30333	-1
1.30700	-1
1.31067	-1
1.31433	-1
1.31800	-0
1.32167	-0
1.32533	-0
1.32900	-1
1.33267	-1
1.33633	-1
1.34000	-1
1.34367	-1
1.34733	-0
1.35100	-0
1.35467	0
1.35833	0
1.36200	1
1.36567	1
1.36933	2
1.37300	2
1.37667	3
1.38033	3
1.38400	3
1.38767	3
1.39133	3
1.39500	3
1.39867	2
1.40233	2
1.40600	2
1.40967	2
1.41333	2
1.41700	2
1.42067	2
1.42433	1
1.42800	1
1.43167	0
1.43533	-0
1.43900	-0
1.44267	-1
1.44633	-1
1.45000	-2
1.45367	-2
1.45733	-2
1.46100	-3
1.46467	-3
1.46833	-3
1.47200	-3
1.47567	-3
1.47933	-3
1.48300	-3
1.48667	-2
1.49033	-2
1.49400	-2
1.49767	-2
1.50133	-2
1.50500	-1
1.50867	-1
1.51233	-1
1.51600	-1
1.51967	-1
1.52333	-1
1.52700	-1
1.53067	-1
1.53433	-1
1.53800	-2
1.54167	-2
1.54533	-2
1.54900	-2
1.55267	-1
1.55633	-1
1.56000	-1
1.56367	-1
1.56733	-1
1.57100	-1
1.57467	-2
1.57833	-2
1.58200	-2
1.58567	-2
1.58933	-2
1.59300	-3
1.59667	-3
1.60033	-4
1.60400	-5
1.60767	-6
1.61133	-7
1.61500	-9
1.61867	-11
1.62233	-14
1.62600	-16
1.62967	-19
1.63333	-22
1.63700	-26
1.64067	-29
1.64433	-32
1.64800	-35
1.65167	-39
1.65533	-43
1.65900	-47
1.66267	-51
1.66633	-56
1.67000	-61
1.67367	-66
1.67733	-72
1.68100	-77
1.68467	-82
1.68833	-86
1.69200	-90
1.69567	-94
1.69933	-97
1.70300	-99
1.70667	-101
1.71033	-102
1.71400	-102
1.71767	-103
1.72133	-104
1.72500	-105
1.72867	-106
1.73233	-106
1.73600	-107
1.73967	-109
1.74333	-109
1.74700	-110
1.75067	-111
1.75433	-112
1.75800	-113
1.76167	-113
1.76533	-114
1.76900	-114
1.77267	-114
1.77633	-113
1.78000	-113
1.78367	-112
1.78733	-111
1.79100	-111
1.79467	-111
1.79833	-111
1.80200	-111
1.80567	-112
1.80933	-112
1.81300	-113
1.81667	-113
1.82033	-113
1.82400	-114
1.82767	-114
1.83133	-113
1.83500	-113
1.83867	-113
1.84233	-113
1.84600	-114
1.84967	-114
1.85333	-114
1.85700	-114
1.86067	-114
1.86433	-114
1.86800	-114
1.87167	-114
1.87533	-114
1.87900	-115
1.88267	-115
1.88633	-115
1.89000	-115
1.89367	-115
1.89733	-115
1.90100	-114
1.90467	-114
1.90833	-114
1.91200	-114
1.91567	-115
1.91933	-115
1.92300	-115
1.92667	-115
1.93033	-116
1.93400	-115
1.93767	-115
1.94133	-114
1.94500	-114
1.94867	-113
1.95233	-112
1.95600	-112
1.95967	-111
1.96333	-111
1.96700	-111
1.97067	-110
1.97433	-110
1.97800	-109
1.98167	-109
1.98533	-109
1.98900	-109
1.99267	-109
1.99633	-109
2.00000	-109
2.00367	-109
2.00733	-109
2.01100	-109
2.01467	-108
2.01833	-108
2.02200	-107
2.02567	-106
2.02933	-105
2.03300	-104
2.03667	-104
2.04033	-103
2.04400	-103
2.04767	-103
2.05133	-103
2.05500	-103
2.05867	-103
2.06233	-103
2.06600	-103
2.06967	-102
2.07333	-102
2.07700	-102
2.08067	-102
2.08433	-102
2.08800	-102
2.09167	-101
2.09533	-101
2.09900	-101
2.10267	-101
2.10633	-100
2.11000	-100
2.11367	-100
2.11733	-100
2.12100	-100
2.12467	-100
2.12833	-100
2.13200	-99
2.13567	-99
2.13933	-99
2.14300	-98
2.14667	-97
2.15033	-96
2.15400	-95
2.15767	-94
2.16133	-93
2.16500	-93
2.16867	-93
2.17233	-93
2.17600	-92
2.17967	-92
2.18333	-91
2.18700	-90
2.19067	-90
2.19433	-90
2.19800	-90
2.20167	-90
2.20533	-91
2.20900	-91
2.21267	-91
2.21633	-90
2.22000	-90
2.22367	-89
2.22733	-89
2.23100	-90
2.23467	-90
2.23833	-90
2.24200	-90
2.24567	-90
2.24933	-89
2.25300	-89
2.25667	-88
2.26033	-88
2.26400	-87
2.26767	-87
2.27133	-87
2.27500	-87
2.27867	-86
2.28233	-86
2.28600	-86
2.28967	-85
2.29333	-85
2.29700	-85
2.30067	-85
2.30433	-85
2.30800	-85
2.31167	-85
2.31533	-85
2.31900	-85
2.32267	-84
2.32633	-83
2.33000	-83
2.33367	-82
2.33733	-81
2.34100	-80
2.34467	-79
2.34833	-78
2.35200	-77
2.35567	-75
2.35933	-74
2.36300	-72
2.36667	-70
2.37033	-68
2.37400	-65
2.37767	-62
2.38133	-58
2.38500	-54
2.38867	-50
2.39233	-45
2.39600	-41
2.39967	-37
2.40333	-33
2.40700	-29
2.41067	-26
2.41433	-23
2.41800	-21
2.42167	-19
2.42533	-17
2.42900	-16
2.43267	-15
2.43633	-13
2.44000	-12
2.44367	-11
2.44733	-9
2.45100	-8
2.45467	-7
2.45833	-5
2.46200	-4
2.46567	-2
2.46933	-1
2.47300	0
2.47667	1
2.48033	2
2.48400	2
2.48767	3
2.49133	4
2.49500	4
2.49867	5
2.50233	6
2.50600	7
2.50967	9
2.51333	10
2.51700	11
2.52067	12
2.52433	12
2.52800	12
2.53167	13
2.53533	13
2.53900	13
2.54267	14
2.54633	14
2.55000	15
2.55367	16
2.55733	16
2.56100	16
2.56467	16
2.56833	16
2.57200	16
2.57567	16
2.57933	17
2.58300	17
2.58667	17
2.59033	18
2.59400	18
2.59767	18
2.60133	18
2.60500	18
2.60867	18
2.61233	18
2.61600	19
2.61967	19
2.62333	19
2.62700	19
2.63067	19
2.63433	18
2.63800	18
2.64167	17
2.64533	17
2.64900	17
2.65267	17
2.65633	17
2.66000	18
2.66367	18
2.66733	19
2.67100	19
2.67467	20
2.67833	20
2.68200	21
2.68567	21
2.68933	22
2.69300	22
2.69667	23
2.70033	23
2.70400	24
2.70767	24
2.71133	25
2.71500	25
2.71867	26
2.72233	25
2.72600	25
2.72967	25
2.73333	24
2.73700	24
2.74067	24
2.74433	23
2.74800	23
2.75167	23
2.75533	23
2.75900	23
2.76267	24
2.76633	24
2.77000	24
2.77367	25
2.77733	25
2.78100	25
2.78467	25
2.78833	26
2.79200	26
2.79567	26
2.79933	26
2.80300	26
2.80667	26
2.81033	27
2.81400	27
2.81767	28
2.82133	28
2.82500	28
2.82867	28
2.83233	27
2.83600	26
2.83967	24
2.84333	20
2.84700	14
2.85067	4
2.85433	-8
2.85800	-25
2.86167	-47
2.86533	-74
2.86900	-107
2.87267	-144
2.87633	-187
2.88000	-236
2.88367	-289
2.88733	-347
2.89100	-410
2.89467	-476
2.89833	-547
2.90200	-620
2.90567	-696
2.90933	-775
2.91300	-856
2.91667	-939
2.92033	-1025
2.92400	-1111
2.92767	-1200
2.93133	-1290
2.93500	-1379
2.93867	-1458
2.94233	-1514
2.94600	-1536
2.94967	-1522
2.95333	-1475
2.95700	-1400
2.96067	-1306
2.96433	-1201
2.96800	-1090
2.97167	-979
2.97533	-871
2.97900	-769
2.98267	-675
2.98633	-589
2.99000	-512
2.99367	-443
2.99733	-382
3.00100	-328
3.00467	-281
3.00833	-241
3.01200	-205
3.01567	-174
3.01933	-148
3.02300	-126
3.02667	-107
3.03033	-90
3.03400	-76
3.03767	-63
3.04133	-53
3.04500	-44
3.04867	-36
3.05233	-29
3.05600	-23
3.05967	-18
3.06333	-14
3.06700	-10
3.07067	-7
3.07433	-4
3.07800	-2
3.08167	-1
3.08533	1
3.08900	2
3.09267	4
3.09633	5
3.10000	6
3.10367	7
3.10733	8
3.11100	9
3.11467	10
3.11833	10
3.12200	11
3.12567	12
3.12933	13
3.13300	13
3.13667	14
3.14033	14
3.14400	14
3.14767	14
3.15133	15
3.15500	15
3.15867	15
3.16233	15
3.16600	16
3.16967	16
3.17333	16
3.17700	16
3.18067	17
3.18433	17
3.18800	18
3.19167	18
3.19533	18
3.19900	18
3.20267	18
3.20633	19
3.21000	19
3.21367	19
3.21733	19
3.22100	20
3.22467	20
3.22833	20
3.23200	20
3.23567	20
3.23933	20
3.24300	21
3.24667	21
3.25033	21
3.25400	22
3.25767	22
3.26133	22
3.26500	22
3.26867	23
3.27233	23
3.27600	23
3.27967	23
3.28333	23
3.28700	23
3.29067	23
3.29433	23
3.29800	22
3.30167	22
3.30533	23
3.30900	23
3.31267	23
3.31633	23
3.32000	23
3.32367	23
3.32733	23
3.33100	23
3.33467	23
3.33833	24
3.34200	24
3.34567	24
3.34933	24
3.35300	25
3.35667	25
3.36033	26
3.36400	27
3.36767	27
3.37133	28
3.37500	28
3.37867	29
3.38233	29
3.38600	29
3.38967	30
3.39333	30
3.39700	30
3.40067	31
3.40433	31
3.40800	31
3.41167	31
3.41533	31
3.41900	31
3.42267	31
3.42633	31
3.43000	31
3.43367	30
3.43733	30
3.44100	30
3.44467	29
3.44833	29
3.45200	29
3.45567	29
3.45933	29
3.46300	28
3.46667	28
3.47033	28
3.47400	27
3.47767	27
3.48133	27
3.48500	27
3.48867	27
3.49233	27
3.49600	27
3.49967	27
3.50333	27
3.50700	27
3.51067	27
3.51433	27
3.51800	27
3.52167	27
3.52533	27
3.52900	27
3.53267	27
3.53633	27
3.54000	27
3.54367	27
3.54733	27
3.55100	27
3.55467	27
3.55833	27
3.56200	27
3.56567	27
3.56933	26
3.57300	26
3.57667	26
3.58033	26
3.58400	26
3.58767	26
3.59133	26
3.59500	26
3.59867	26
3.60233	26
3.60600	26
3.60967	26
3.61333	26
3.61700	26
3.62067	26
3.62433	26
3.62800	26
3.63167	26
3.63533	26
3.63900	26
3.64267	26
3.64633	26
3.65000	26
3.65367	26
3.65733	26
3.66100	27
3.66467	27
3.66833	27
3.67200	27
3.67567	27
3.67933	27
3.68300	27
3.68667	27
3.69033	27
3.69400	27
3.69767	27
3.70133	26
3.70500	26
3.70867	26
3.71233	26
3.71600	26
3.71967	26
3.72333	26
3.72700	26
3.73067	26
3.73433	26
3.73800	26
3.74167	26
3.74533	26
3.74900	27
3.75267	27
3.75633	27
3.76000	27
3.76367	27
3.76733	27
3.77100	28
3.77467	28
3.77833	27
3.78200	27
3.78567	27
3.78933	27
3.79300	27
3.79667	26
3.80033	26
3.80400	26
3.80767	26
3.81133	25
3.81500	25
3.81867	25
3.82233	25
3.82600	25
3.82967	25
3.83333	25
3.83700	25
3.84067	25
3.84433	25
3.84800	25
3.85167	25
3.85533	25
3.85900	25
3.86267	25
3.86633	25
3.87000	25
3.87367	25
3.87733	25
3.88100	25
3.88467	25
3.88833	26
3.89200	26
3.89567	26
3.89933	26
3.90300	26
3.90667	26
3.91033	26
3.91400	26
3.91767	26
3.92133	26
3.92500	26
3.92867	26
3.93233	26
3.93600	26
3.93967	26
3.94333	26
3.94700	26
3.95067	26
3.95433	26
3.95800	26
3.96167	26
3.96533	26
3.96900	26
3.97267	26
3.97633	26
3.98000	26
3.98367	26
3.98733	26
3.99100	27
3.99467	27
3.99833	27

[Chromatogram (Ch3)]
Interval(msec)	220
# of Points	1091
Start Time(min)	0.002
End Time(min)	3.998
R.Time (min)	Intensity
0.00167	-1
0.00533	-1
0.00900	-1
0.01267	0
0.01633	1
0.02000	1
0.02367	1
0.02733	1
0.03100	1
0.03467	1
0.03833	-1
0.04200	-2
0.04567	-3
0.04933	-3
0.05300	-3
0.05667	-2
0.06033	-1
0.06400	2
0.06767	4
0.07133	5
0.07500	6
0.07867	8
0.08233	8
0.08600	8
0.08967	7
0.09333	5
0.09700	3
0.10067	2
0.10433	2
0.10800	3
0.11167	4
0.11533	6
0.11900	7
0.12267	8
0.12633	9
0.13000	8
0.13367	8
0.13733	7
0.14100	6
0.14467	6
0.14833	5
0.15200	2
0.15567	1
0.15933	1
0.16300	0
0.16667	1
0.17033	4
0.17400	6
0.17767	8
0.18133	8
0.18500	8
0.18867	6
0.19233	5
0.19600	4
0.19967	4
0.20333	4
0.20700	5
0.21067	6
0.21433	6
0.21800	6
0.22167	8
0.22533	10
0.22900	9
0.23267	8
0.23633	7
0.24000	6
0.24367	5
0.24733	5
0.25100	6
0.25467	8
0.25833	7
0.26200	7
0.26567	8
0.26933	8
0.27300	7
0.27667	9
0.28033	10
0.28400	11
0.28767	13
0.29133	13
0.29500	10
0.29867	9
0.30233	7
0.30600	4
0.30967	3
0.31333	2
0.31700	2
0.32067	3
0.32433	4
0.32800	5
0.33167	4
0.33533	5
0.33900	7
0.34267	8
0.34633	8
0.35000	8
0.35367	10
0.35733	10
0.36100	10
0.36467	10
0.36833	9
0.37200	9
0.37567	11
0.37933	12
0.38300	13
0.38667	14
0.39033	13
0.39400	11
0.39767	10
0.40133	10
0.40500	10
0.40867	9
0.41233	10
0.41600	12
0.41967	13
0.42333	9
0.42700	7
0.43067	7
0.43433	8
0.43800	9
0.44167	9
0.44533	9
0.44900	9
0.45267	9
0.45633	9
0.46000	7
0.46367	8
0.46733	9
0.47100	10
0.47467	9
0.47833	9
0.48200	9
0.48567	7
0.48933	8
0.49300	8
0.49667	6
0.50033	5
0.50400	6
0.50767	6
0.51133	6
0.51500	5
0.51867	5
0.52233	7
0.52600	10
0.52967	11
0.53333	10
0.53700	10
0.54067	11
0.54433	11
0.54800	11
0.55167	13
0.55533	12
0.55900	11
0.56267	11
0.56633	14
0.57000	13
0.57367	9
0.57733	8
0.58100	8
0.58467	9
0.58833	11
0.59200	13
0.59567	15
0.59933	15
0.60300	14
0.60667	11
0.61033	9
0.61400	7
0.61767	8
0.62133	11
0.62500	14
0.62867	14
0.63233	13
0.63600	12
0.63967	12
0.64333	10
0.64700	8
0.65067	6
0.65433	8
0.65800	11
0.66167	13
0.66533	14
0.66900	15
0.67267	16
0.67633	16
0.68000	15
0.68367	15
0.68733	14
0.69100	13
0.69467	14
0.69833	15
0.70200	14
0.70567	14
0.70933	13
0.71300	14
0.71667	15
0.72033	15
0.72400	13
0.72767	11
0.73133	12
0.73500	13
0.73867	15
0.74233	15
0.74600	14
0.74967	14
0.75333	16
0.75700	16
0.76067	16
0.76433	15
0.76800	14
0.77167	14
0.77533	14
0.77900	15
0.78267	15
0.78633	15
0.79000	15
0.79367	15
0.79733	14
0.80100	15
0.80467	15
0.80833	14
0.81200	14
0.81567	14
0.81933	14
0.82300	13
0.82667	13
0.83033	12
0.83400	13
0.83767	13
0.84133	12
0.84500	12
0.84867	13
0.85233	14
0.85600	15
0.85967	15
0.86333	15
0.86700	15
0.87067	14
0.87433	13
0.87800	15
0.88167	16
0.88533	18
0.88900	16
0.89267	16
0.89633	16
0.90000	15
0.90367	13
0.90733	14
0.91100	16
0.91467	18
0.91833	17
0.92200	14
0.92567	11
0.92933	9
0.93300	8
0.93667	8
0.94033	10
0.94400	13
0.94767	11
0.95133	10
0.95500	12
0.95867	14
0.96233	14
0.96600	14
0.96967	15
0.97333	15
0.97700	16
0.98067	16
0.98433	17
0.98800	18
0.99167	17
0.99533	16
0.99900	16
1.00267	16
1.00633	16
1.01000	17
1.01367	16
1.01733	14
1.02100	12
1.02467	10
1.02833	7
1.03200	6
1.03567	6
1.03933	6
1.04300	8
1.04667	10
1.05033	13
1.05400	13
1.05767	10
1.06133	9
1.06500	11
1.06867	13
1.07233	17
1.07600	19
1.07967	19
1.08333	16
1.08700	15
1.09067	15
1.09433	14
1.09800	11
1.10167	10
1.10533	11
1.10900	14
1.11267	16
1.11633	18
1.12000	17
1.12367	17
1.12733	17
1.13100	15
1.13467	14
1.13833	15
1.14200	15
1.14567	18
1.14933	18
1.15300	17
1.15667	16
1.16033	17
1.16400	17
1.16767	17
1.17133	18
1.17500	21
1.17867	23
1.18233	23
1.18600	22
1.18967	23
1.19333	22
1.19700	21
1.20067	21
1.20433	20
1.20800	20
1.21167	19
1.21533	17
1.21900	18
1.22267	18
1.22633	16
1.23000	14
1.23367	13
1.23733	13
1.24100	12
1.24467	12
1.24833	12
1.25200	14
1.25567	13
1.25933	14
1.26300	16
1.26667	18
1.27033	20
1.27400	21
1.27767	21
1.28133	19
1.28500	17
1.28867	17
1.29233	17
1.29600	17
1.29967	17
1.30333	17
1.30700	18
1.31067	21
1.31433	22
1.31800	22
1.32167	18
1.32533	17
1.32900	19
1.33267	19
1.33633	17
1.34000	14
1.34367	14
1.34733	14
1.35100	14
1.35467	17
1.35833	21
1.36200	23
1.36567	23
1.36933	22
1.37300	20
1.37667	18
1.38033	18
1.38400	19
1.38767	21
1.39133	21
1.39500	20
1.39867	19
1.40233	19
1.40600	21
1.40967	22
1.41333	18
1.41700	16
1.42067	15
1.42433	16
1.42800	15
1.43167	15
1.43533	14
1.43900	13
1.44267	14
1.44633	15
1.45000	17
1.45367	17
1.45733	18
1.46100	19
1.46467	20
1.46833	20
1.47200	19
1.47567	20
1.47933	21
1.48300	20
1.48667	18
1.49033	18
1.49400	16
1.49767	17
1.50133	17
1.50500	18
1.50867	19
1.51233	20
1.51600	19
1.51967	17
1.52333	18
1.52700	19
1.53067	20
1.53433	19
1.53800	19
1.54167	20
1.54533	22
1.54900	23
1.55267	21
1.55633	19
1.56000	18
1.56367	19
1.56733	20
1.57100	20
1.57467	22
1.57833	23
1.58200	24
1.58567	26
1.58933	28
1.59300	29
1.59667	29
1.60033	27
1.60400	28
1.60767	28
1.61133	26
1.61500	25
1.61867	23
1.62233	21
1.62600	20
1.62967	21
1.63333	21
1.63700	23
1.64067	22
1.64433	23
1.64800	24
1.65167	25
1.65533	24
1.65900	22
1.66267	21
1.66633	21
1.67000	22
1.67367	23
1.67733	24
1.68100	27
1.68467	27
1.68833	25
1.69200	24
1.69567	26
1.69933	28
1.70300	30
1.70667	32
1.71033	32
1.71400	31
1.71767	32
1.72133	33
1.72500	36
1.72867	37
1.73233	38
1.73600	39
1.73967	39
1.74333	38
1.74700	36
1.75067	35
1.75433	37
1.75800	40
1.76167	41
1.76533	42
1.76900	44
1.77267	45
1.77633	48
1.78000	48
1.78367	46
1.78733	44
1.79100	45
1.79467	44
1.79833	44
1.80200	45
1.80567	47
1.80933	50
1.81300	50
1.81667	49
1.82033	47
1.82400	46
1.82767	46
1.83133	45
1.83500	46
1.83867	48
1.84233	49
1.84600	48
1.84967	46
1.85333	46
1.85700	46
1.86067	48
1.86433	50
1.86800	52
1.87167	53
1.87533	53
1.87900	53
1.88267	55
1.88633	57
1.89000	58
1.89367	58
1.89733	58
1.90100	60
1.90467	60
1.90833	60
1.91200	61
1.91567	62
1.91933	65
1.92300	67
1.92667	68
1.93033	67
1.93400	65
1.93767	66
1.94133	66
1.94500	67
1.94867	67
1.95233	65
1.95600	63
1.95967	64
1.96333	65
1.96700	67
1.97067	69
1.97433	72
1.97800	74
1.98167	75
1.98533	76
1.98900	75
1.99267	76
1.99633	75
2.00000	75
2.00367	78
2.00733	81
2.01100	81
2.01467	80
2.01833	78
2.02200	79
2.02567	80
2.02933	81
2.03300	84
2.03667	86
2.04033	87
2.04400	87
2.04767	87
2.05133	88
2.05500	90
2.05867	88
2.06233	87
2.06600	87
2.06967	90
2.07333	92
2.07700	94
2.08067	94
2.08433	93
2.08800	94
2.09167	95
2.09533	97
2.09900	99
2.10267	100
2.10633	99
2.11000	98
2.11367	100
2.11733	102
2.12100	102
2.12467	103
2.12833	104
2.13200	105
2.13567	105
2.13933	106
2.14300	108
2.14667	107
2.15033	106
2.15400	106
2.15767	108
2.16133	112
2.16500	116
2.16867	119
2.17233	121
2.17600	121
2.17967	121
2.18333	121
2.18700	124
2.19067	124
2.19433	124
2.19800	124
2.20167	124
2.20533	125
2.20900	127
2.21267	128
2.21633	129
2.22000	130
2.22367	131
2.22733	132
2.23100	132
2.23467	134
2.23833	136
2.24200	139
2.24567	140
2.24933	139
2.25300	139
2.25667	139
2.26033	142
2.26400	144
2.26767	146
2.27133	147
2.27500	148
2.27867	149
2.28233	151
2.28600	154
2.28967	156
2.29333	160
2.29700	160
2.30067	159
2.30433	160
2.30800	162
2.31167	163
2.31533	162
2.31900	164
2.32267	166
2.32633	168
2.33000	173
2.33367	177
2.33733	179
2.34100	178
2.34467	178
2.34833	178
2.35200	180
2.35567	183
2.35933	185
2.36300	187
2.36667	190
2.37033	193
2.37400	193
2.37767	194
2.38133	193
2.38500	190
2.38867	188
2.39233	190
2.39600	196
2.39967	203
2.40333	210
2.40700	214
2.41067	217
2.41433	222
2.41800	224
2.42167	226
2.42533	225
2.42900	224
2.43267	224
2.43633	227
2.44000	232
2.44367	267
2.44733	363
2.45100	469
2.45467	555
2.45833	609
2.46200	616
2.46567	592
2.46933	563
2.47300	540
2.47667	527
2.48033	518
2.48400	506
2.48767	486
2.49133	461
2.49500	432
2.49867	403
2.50233	383
2.50600	368
2.50967	359
2.51333	356
2.51700	356
2.52067	358
2.52433	365
2.52800	377
2.53167	392
2.53533	403
2.53900	411
2.54267	413
2.54633	407
2.55000	393
2.55367	377
2.55733	360
2.56100	344
2.56467	330
2.56833	321
2.57200	314
2.57567	307
2.57933	301
2.58300	296
2.58667	294
2.59033	293
2.59400	289
2.59767	283
2.60133	275
2.60500	259
2.60867	238
2.61233	216
2.61600	194
2.61967	174
2.62333	158
2.62700	144
2.63067	135
2.63433	128
2.63800	125
2.64167	125
2.64533	132
2.64900	140
2.65267	151
2.65633	163
2.66000	174
2.66367	183
2.66733	191
2.67100	198
2.67467	201
2.67833	202
2.68200	204
2.68567	205
2.68933	206
2.69300	206
2.69667	202
2.70033	198
2.70400	196
2.70767	196
2.71133	196
2.71500	196
2.71867	194
2.72233	192
2.72600	191
2.72967	191
2.73333	192
2.73700	194
2.74067	196
2.74433	198
2.74800	200
2.75167	201
2.75533	203
2.75900	205
2.76267	206
2.76633	207
2.77000	209
2.77367	211
2.77733	213
2.78100	211
2.78467	211
2.78833	211
2.79200	211
2.79567	207
2.79933	206
2.80300	207
2.80667	207
2.81033	211
2.81400	221
2.81767	247
2.82133	309
2.82500	445
2.82867	709
2.83233	1165
2.83600	1876
2.83967	2880
2.84333	4189
2.84700	5767
2.85067	7531
2.85433	9363
2.85800	11126
2.86167	12686
2.86533	13929
2.86900	14772
2.87267	15183
2.87633	15180
2.88000	14814
2.88367	14160
2.88733	13303
2.89100	12319
2.89467	11274
2.89833	10220
2.90200	9196
2.90567	8224
2.90933	7320
2.91300	6495
2.91667	5746
2.92033	5072
2.92400	4470
2.92767	3935
2.93133	3461
2.93500	3042
2.93867	2672
2.94233	2349
2.94600	2068
2.94967	1825
2.95333	1612
2.95700	1426
2.96067	1264
2.96433	1125
2.96800	1004
2.97167	901
2.97533	813
2.97900	735
2.98267	667
2.98633	607
2.99000	555
2.99367	511
2.99733	473
3.00100	439
3.00467	409
3.00833	384
3.01200	361
3.01567	340
3.01933	323
3.02300	308
3.02667	292
3.03033	276
3.03400	265
3.03767	257
3.04133	250
3.04500	245
3.04867	239
3.05233	232
3.05600	226
3.05967	219
3.06333	214
3.06700	211
3.07067	209
3.07433	204
3.07800	202
3.08167	201
3.08533	200
3.08900	197
3.09267	193
3.09633	191
3.10000	188
3.10367	187
3.10733	185
3.11100	182
3.11467	179
3.11833	179
3.12200	179
3.12567	178
3.12933	176
3.13300	176
3.13667	177
3.14033	175
3.14400	174
3.14767	174
3.15133	175
3.15500	175
3.15867	175
3.16233	174
3.16600	174
3.16967	172
3.17333	172
3.17700	172
3.18067	171
3.18433	171
3.18800	170
3.19167	168
3.19533	167
3.19900	168
3.20267	161
3.20633	133
3.21000	99
3.21367	81
3.21733	81
3.22100	95
3.22467	118
3.22833	148
3.23200	185
3.23567	225
3.23933	265
3.24300	304
3.24667	343
3.25033	384
3.25400	422
3.25767	455
3.26133	482
3.26500	506
3.26867	527
3.27233	546
3.27600	562
3.27967	576
3.28333	589
3.28700	599
3.29067	605
3.29433	612
3.29800	619
3.30167	623
3.30533	624
3.30900	627
3.31267	630
3.31633	633
3.32000	637
3.32367	640
3.32733	642
3.33100	643
3.33467	649
3.33833	655
3.34200	659
3.34567	664
3.34933	668
3.35300	672
3.35667	675
3.36033	679
3.36400	681
3.36767	680
3.37133	680
3.37500	681
3.37867	687
3.38233	693
3.38600	699
3.38967	701
3.39333	702
3.39700	703
3.40067	706
3.40433	711
3.40800	713
3.41167	712
3.41533	711
3.41900	710
3.42267	711
3.42633	709
3.43000	706
3.43367	702
3.43733	699
3.44100	695
3.44467	693
3.44833	690
3.45200	688
3.45567	687
3.45933	684
3.46300	683
3.46667	683
3.47033	681
3.47400	681
3.47767	680
3.48133	678
3.48500	675
3.48867	673
3.49233	670
3.49600	668
3.49967	666
3.50333	666
3.50700	665
3.51067	663
3.51433	662
3.51800	660
3.52167	659
3.52533	655
3.52900	651
3.53267	645
3.53633	641
3.54000	638
3.54367	636
3.54733	635
3.55100	633
3.55467	630
3.55833	628
3.56200	629
3.56567	627
3.56933	622
3.57300	620
3.57667	619
3.58033	617
3.58400	615
3.58767	615
3.59133	612
3.59500	610
3.59867	609
3.60233	606
3.60600	608
3.60967	608
3.61333	605
3.61700	602
3.62067	601
3.62433	600
3.62800	598
3.63167	594
3.63533	592
3.63900	589
3.64267	587
3.64633	585
3.65000	583
3.65367	581
3.65733	580
3.66100	580
3.66467	579
3.66833	577
3.67200	577
3.67567	577
3.67933	576
3.68300	572
3.68667	570
3.69033	569
3.69400	571
3.69767	573
3.70133	573
3.70500	571
3.70867	570
3.71233	567
3.71600	565
3.71967	564
3.72333	564
3.72700	564
3.73067	564
3.73433	564
3.73800	565
3.74167	567
3.74533	567
3.74900	566
3.75267	566
3.75633	565
3.76000	562
3.76367	562
3.76733	561
3.77100	559
3.77467	559
3.77833	556
3.78200	554
3.78567	553
3.78933	553
3.79300	552
3.79667	552
3.80033	551
3.80400	551
3.80767	551
3.81133	552
3.81500	553
3.81867	554
3.82233	554
3.82600	551
3.82967	548
3.83333	548
3.83700	547
3.84067	548
3.84433	549
3.84800	548
3.85167	548
3.85533	546
3.85900	546
3.86267	547
3.86633	547
3.87000	546
3.87367	545
3.87733	543
3.88100	542
3.88467	541
3.88833	540
3.89200	539
3.89567	537
3.89933	537
3.90300	539
3.90667	540
3.91033	539
3.91400	537
3.91767	535
3.92133	535
3.92500	535
3.92867	535
3.93233	533
3.93600	533
3.93967	531
3.94333	530
3.94700	530
3.95067	530
3.95433	529
3.95800	528
3.96167	529
3.96533	528
3.96900	525
3.97267	523
3.97633	520
3.98000	518
3.98367	515
3.98733	513
3.99100	513
3.99467	514
3.99833	512

[Status Trace (Column Oven Temperature)]
Interval(msec)	1000
# of Points	240
Start Time(min)	0.006
End Time(min)	3.989
Intensity Units	
Intensity Multiplier	1
R.Time (min)	Intensity
0.00578	35.03
0.02245	35.03
0.03912	35.04
0.05578	35.03
0.07245	35.03
0.08912	35.04
0.10578	35.03
0.12245	35.03
0.13912	35.02
0.15578	35.01
0.17245	35.00
0.18912	35.00
0.20578	35.01
0.22245	35.01
0.23912	35.00
0.25578	35.00
0.27245	34.99
0.28912	34.98
0.30578	34.97
0.32245	34.97
0.33912	34.99
0.35578	35.00
0.37245	35.01
0.38912	35.02
0.40578	35.03
0.42245	35.01
0.43912	35.01
0.45578	35.00
0.47245	34.99
0.48912	34.97
0.50578	34.98
0.52245	34.97
0.53912	34.97
0.55578	34.97
0.57245	34.98
0.58912	34.98
0.60578	34.97
0.62245	34.98
0.63912	34.98
0.65578	34.99
0.67245	35.01
0.68912	35.01
0.70578	35.00
0.72245	35.01
0.73912	35.02
0.75578	35.02
0.77245	35.01
0.78912	35.00
0.80578	35.00
0.82245	35.01
0.83912	35.00
0.85578	34.98
0.87245	34.97
0.88912	34.97
0.90578	34.99
0.92245	35.00
0.93912	34.99
0.95578	34.99
0.97245	35.00
0.98912	35.00
1.00578	35.01
1.02245	35.00
1.03912	34.99
1.05578	34.98
1.07245	34.99
1.08912	34.99
1.10578	35.00
1.12245	35.00
1.13912	35.01
1.15578	35.01
1.17245	35.01
1.18912	35.00
1.20578	34.99
1.22245	34.98
1.23912	34.98
1.25578	34.98
1.27245	34.99
1.28912	35.00
1.30578	35.00
1.32245	35.01
1.33912	35.00
1.35578	34.99
1.37245	34.97
1.38912	34.96
1.40578	34.96
1.42245	34.96
1.43912	34.97
1.45578	34.98
1.47245	35.00
1.48912	35.00
1.50578	35.00
1.52245	35.00
1.53912	35.00
1.55578	35.01
1.57245	35.01
1.58912	35.01
1.60578	35.06
1.62245	35.17
1.63912	35.34
1.65578	35.59
1.67245	35.92
1.68912	36.29
1.70578	36.64
1.72245	36.96
1.73912	37.31
1.75578	37.65
1.77245	37.97
1.78912	38.28
1.80578	38.63
1.82245	38.95
1.83912	39.29
1.85578	39.63
1.87245	39.95
1.88912	40.28
1.90578	40.60
1.92245	40.95
1.93912	41.27
1.95578	41.60
1.97245	41.93
1.98912	42.25
2.00578	42.58
2.02245	42.89
2.03912	43.20
2.05578	43.54
2.07245	43.86
2.08912	44.19
2.10578	44.51
2.12245	44.84
2.13912	45.17
2.15578	45.48
2.17245	45.82
2.18912	46.13
2.20578	46.47
2.22245	46.79
2.23912	47.14
2.25578	47.46
2.27245	47.78
2.28912	48.11
2.30578	48.47
2.32245	48.80
2.33912	49.13
2.35578	49.39
2.37245	49.56
2.38912	49.62
2.40578	49.61
2.42245	49.63
2.43912	49.63
2.45578	49.65
2.47245	49.65
2.48912	49.69
2.50578	49.70
2.52245	49.71
2.53912	49.72
2.55578	49.72
2.57245	49.75
2.58912	49.75
2.60578	49.78
2.62245	49.79
2.63912	49.83
2.65578	49.84
2.67245	49.85
2.68912	49.86
2.70578	49.84
2.72245	49.85
2.73912	49.88
2.75578	49.89
2.77245	49.88
2.78912	49.87
2.80578	49.87
2.82245	49.87
2.83912	49.87
2.85578	49.87
2.87245	49.88
2.88912	49.90
2.90578	49.94
2.92245	49.95
2.93912	49.96
2.95578	49.97
2.97245	49.98
2.98912	49.98
3.00578	49.99
3.02245	49.99
3.03912	50.00
3.05578	50.00
3.07245	50.00
3.08912	50.02
3.10578	50.03
3.12245	50.04
3.13912	50.05
3.15578	50.06
3.17245	50.07
3.18912	50.08
3.20578	50.09
3.22245	50.09
3.23912	50.10
3.25578	50.09
3.27245	50.10
3.28912	50.11
3.30578	50.11
3.32245	50.11
3.33912	50.11
3.35578	50.09
3.37245	50.07
3.38912	50.05
3.40578	50.03
3.42245	50.01
3.43912	50.00
3.45578	50.00
3.47245	50.00
3.48912	50.00
3.50578	50.00
3.52245	50.00
3.53912	50.00
3.55578	50.00
3.57245	50.01
3.58912	50.02
3.60578	50.02
3.62245	50.02
3.63912	50.02
3.65578	50.02
3.67245	50.02
3.68912	50.03
3.70578	50.04
3.72245	50.04
3.73912	50.04
3.75578	50.04
3.77245	50.04
3.78912	50.05
3.80578	50.05
3.82245	50.05
3.83912	50.06
3.85578	50.06
3.87245	50.06
3.88912	50.06
3.90578	50.05
3.92245	50.06
3.93912	50.06
3.95578	50.06
3.97245	50.05
3.98912	50.04

[Status Trace (Injection Unit Temperature)]
Interval(msec)	1000
# of Points	240
Start Time(min)	0.006
End Time(min)	3.989
Intensity Units	
Intensity Multiplier	1
R.Time (min)	Intensity
0.00578	99.98
0.02245	99.97
0.03912	99.98
0.05578	99.98
0.07245	99.98
0.08912	99.98
0.10578	99.98
0.12245	99.98
0.13912	99.97
0.15578	99.98
0.17245	99.98
0.18912	99.98
0.20578	99.98
0.22245	99.98
0.23912	99.98
0.25578	99.98
0.27245	99.98
0.28912	99.98
0.30578	99.98
0.32245	99.98
0.33912	99.98
0.35578	99.98
0.37245	99.98
0.38912	99.98
0.40578	99.99
0.42245	99.99
0.43912	99.98
0.45578	99.98
0.47245	99.98
0.48912	99.99
0.50578	99.99
0.52245	99.98
0.53912	99.98
0.55578	99.98
0.57245	99.98
0.58912	99.98
0.60578	99.98
0.62245	99.99
0.63912	99.98
0.65578	99.99
0.67245	99.99
0.68912	99.98
0.70578	99.98
0.72245	99.98
0.73912	99.98
0.75578	99.98
0.77245	99.98
0.78912	99.98
0.80578	99.98
0.82245	99.98
0.83912	99.98
0.85578	99.98
0.87245	99.98
0.88912	99.98
0.90578	99.98
0.92245	99.98
0.93912	99.98
0.95578	99.98
0.97245	99.98
0.98912	99.98
1.00578	99.98
1.02245	99.98
1.03912	99.98
1.05578	99.97
1.07245	99.98
1.08912	99.98
1.10578	99.98
1.12245	99.98
1.13912	99.98
1.15578	99.98
1.17245	99.98
1.18912	99.98
1.20578	99.97
1.22245	99.98
1.23912	99.97
1.25578	99.98
1.27245	99.98
1.28912	99.98
1.30578	99.98
1.32245	99.98
1.33912	99.97
1.35578	99.97
1.37245	99.97
1.38912	99.98
1.40578	99.98
1.42245	99.97
1.43912	99.97
1.45578	99.98
1.47245	99.98
1.48912	99.98
1.50578	99.98
1.52245	99.98
1.53912	99.98
1.55578	99.98
1.57245	99.98
1.58912	99.98
1.60578	99.98
1.62245	99.98
1.63912	99.98
1.65578	99.98
1.67245	99.98
1.68912	99.98
1.70578	99.98
1.72245	99.98
1.73912	99.99
1.75578	99.99
1.77245	99.98
1.78912	99.98
1.80578	99.98
1.82245	99.98
1.83912	99.98
1.85578	99.98
1.87245	99.98
1.88912	99.98
1.90578	99.98
1.92245	99.97
1.93912	99.98
1.95578	99.98
1.97245	99.98
1.98912	99.97
2.00578	99.98
2.02245	99.97
2.03912	99.97
2.05578	99.97
2.07245	99.97
2.08912	99.97
2.10578	99.97
2.12245	99.97
2.13912	99.97
2.15578	99.97
2.17245	99.97
2.18912	99.97
2.20578	99.97
2.22245	99.97
2.23912	99.96
2.25578	99.97
2.27245	99.97
2.28912	99.97
2.30578	99.96
2.32245	99.96
2.33912	99.97
2.35578	99.96
2.37245	99.96
2.38912	99.96
2.40578	99.96
2.42245	99.96
2.43912	99.96
2.45578	99.96
2.47245	99.96
2.48912	99.96
2.50578	99.96
2.52245	99.96
2.53912	99.96
2.55578	99.97
2.57245	99.97
2.58912	99.97
2.60578	99.97
2.62245	99.97
2.63912	99.97
2.65578	99.98
2.67245	99.97
2.68912	99.98
2.70578	99.98
2.72245	99.98
2.73912	99.98
2.75578	99.98
2.77245	99.98
2.78912	99.99
2.80578	99.99
2.82245	99.99
2.83912	99.99
2.85578	99.99
2.87245	100.00
2.88912	100.00
2.90578	100.00
2.92245	100.00
2.93912	100.00
2.95578	100.01
2.97245	100.00
2.98912	100.01
3.00578	100.01
3.02245	100.01
3.03912	100.01
3.05578	100.01
3.07245	100.02
3.08912	100.02
3.10578	100.02
3.12245	100.02
3.13912	100.02
3.15578	100.02
3.17245	100.02
3.18912	100.02
3.20578	100.03
3.22245	100.02
3.23912	100.02
3.25578	100.02
3.27245	100.03
3.28912	100.03
3.30578	100.03
3.32245	100.03
3.33912	100.03
3.35578	100.03
3.37245	100.03
3.38912	100.03
3.40578	100.03
3.42245	100.02
3.43912	100.03
3.45578	100.03
3.47245	100.04
3.48912	100.04
3.50578	100.04
3.52245	100.04
3.53912	100.03
3.55578	100.04
3.57245	100.04
3.58912	100.03
3.60578	100.04
3.62245	100.04
3.63912	100.04
3.65578	100.04
3.67245	100.04
3.68912	100.04
3.70578	100.04
3.72245	100.05
3.73912	100.04
3.75578	100.04
3.77245	100.05
3.78912	100.04
3.80578	100.04
3.82245	100.05
3.83912	100.05
3.85578	100.05
3.87245	100.05
3.88912	100.05
3.90578	100.05
3.92245	100.05
3.93912	100.05
3.95578	100.05
3.97245	100.05
3.98912	100.05

[Status Trace (Carrier Gas Pressure)]
Interval(msec)	1000
# of Points	240
Start Time(min)	0.006
End Time(min)	3.989
Intensity Units	
Intensity Multiplier	1
R.Time (min)	Intensity
0.00578	58.00
0.02245	55.64
0.03912	56.77
0.05578	58.99
0.07245	59.62
0.08912	58.14
0.10578	57.97
0.12245	58.01
0.13912	58.01
0.15578	58.00
0.17245	58.00
0.18912	58.00
0.20578	58.00
0.22245	58.00
0.23912	58.00
0.25578	58.00
0.27245	58.00
0.28912	58.00
0.30578	58.00
0.32245	58.00
0.33912	58.00
0.35578	58.00
0.37245	58.00
0.38912	58.00
0.40578	58.00
0.42245	58.00
0.43912	58.00
0.45578	58.00
0.47245	58.00
0.48912	58.00
0.50578	58.00
0.52245	58.00
0.53912	58.00
0.55578	58.00
0.57245	58.00
0.58912	58.00
0.60578	58.00
0.62245	58.00
0.63912	58.00
0.65578	58.00
0.67245	58.00
0.68912	58.00
0.70578	58.00
0.72245	58.00
0.73912	58.00
0.75578	58.00
0.77245	58.00
0.78912	58.00
0.80578	58.00
0.82245	58.00
0.83912	58.00
0.85578	58.00
0.87245	58.00
0.88912	58.00
0.90578	58.00
0.92245	58.00
0.93912	58.00
0.95578	58.00
0.97245	58.00
0.98912	58.00
1.00578	58.00
1.02245	58.00
1.03912	58.00
1.05578	58.00
1.07245	58.00
1.08912	58.00
1.10578	58.00
1.12245	58.00
1.13912	58.00
1.15578	58.00
1.17245	58.00
1.18912	58.00
1.20578	58.00
1.22245	58.00
1.23912	58.00
1.25578	58.00
1.27245	58.00
1.28912	58.00
1.30578	58.00
1.32245	58.00
1.33912	58.00
1.35578	58.00
1.37245	58.00
1.38912	58.00
1.40578	58.00
1.42245	58.00
1.43912	58.00
1.45578	58.00
1.47245	58.00
1.48912	58.00
1.50578	58.00
1.52245	58.00
1.53912	58.00
1.55578	58.00
1.57245	58.00
1.58912	58.00
1.60578	58.00
1.62245	58.00
1.63912	58.00
1.65578	58.01
1.67245	58.01
1.68912	58.00
1.70578	58.00
1.72245	58.00
1.73912	58.00
1.75578	58.00
1.77245	58.00
1.78912	58.00
1.80578	58.00
1.82245	58.00
1.83912	58.00
1.85578	58.00
1.87245	58.00
1.88912	58.00
1.90578	58.00
1.92245	58.00
1.93912	58.00
1.95578	58.00
1.97245	58.00
1.98912	58.00
2.00578	58.00
2.02245	58.00
2.03912	58.00
2.05578	58.00
2.07245	58.00
2.08912	58.00
2.10578	58.00
2.12245	58.00
2.13912	58.00
2.15578	58.00
2.17245	58.00
2.18912	58.00
2.20578	58.00
2.22245	58.00
2.23912	58.00
2.25578	58.00
2.27245	58.00
2.28912	58.00
2.30578	58.00
2.32245	58.00
2.33912	58.00
2.35578	58.00
2.37245	58.00
2.38912	57.99
2.40578	57.99
2.42245	58.00
2.43912	58.00
2.45578	58.00
2.47245	58.00
2.48912	58.00
2.50578	57.99
2.52245	57.99
2.53912	58.00
2.55578	58.00
2.57245	58.00
2.58912	58.00
2.60578	58.00
2.62245	58.00
2.63912	58.00
2.65578	58.00
2.67245	58.00
2.68912	58.00
2.70578	58.00
2.72245	58.00
2.73912	58.00
2.75578	58.00
2.77245	58.00
2.78912	58.00
2.80578	58.00
2.82245	58.00
2.83912	58.00
2.85578	58.00
2.87245	58.00
2.88912	58.00
2.90578	58.00
2.92245	58.00
2.93912	58.00
2.95578	58.00
2.97245	58.00
2.98912	58.00
3.00578	58.00
3.02245	58.00
3.03912	58.00
3.05578	58.00
3.07245	58.00
3.08912	58.00
3.10578	58.00
3.12245	58.00
3.13912	58.00
3.15578	58.00
3.17245	58.00
3.18912	58.00
3.20578	58.00
3.22245	58.00
3.23912	58.00
3.25578	58.00
3.27245	58.00
3.28912	58.00
3.30578	58.00
3.32245	58.00
3.33912	58.00
3.35578	58.00
3.37245	58.00
3.38912	58.00
3.40578	58.00
3.42245	58.00
3.43912	58.00
3.45578	58.00
3.47245	58.00
3.48912	58.00
3.50578	58.00
3.52245	58.00
3.53912	58.00
3.55578	58.00
3.57245	58.00
3.58912	58.00
3.60578	58.00
3.62245	58.00
3.63912	58.00
3.65578	58.00
3.67245	58.00
3.68912	58.00
3.70578	58.00
3.72245	58.00
3.73912	58.00
3.75578	58.00
3.77245	58.00
3.78912	58.00
3.80578	58.00
3.82245	58.00
3.83912	58.00
3.85578	58.00
3.87245	58.00
3.88912	58.00
3.90578	58.00
3.92245	58.00
3.93912	58.00
3.95578	58.00
3.97245	58.00
3.98912	58.00

[Status Trace (Carrier Gas Flow)]
Interval(msec)	1000
# of Points	240
Start Time(min)	0.006
End Time(min)	3.989
Intensity Units	
Intensity Multiplier	1
R.Time (min)	Intensity
0.00578	34.52
0.02245	34.54
0.03912	34.55
0.05578	34.54
0.07245	34.50
0.08912	34.52
0.10578	34.52
0.12245	34.52
0.13912	34.52
0.15578	34.52
0.17245	34.52
0.18912	34.51
0.20578	34.52
0.22245	34.52
0.23912	34.53
0.25578	34.52
0.27245	34.52
0.28912	34.52
0.30578	34.52
0.32245	34.52
0.33912	34.52
0.35578	34.52
0.37245	34.52
0.38912	34.52
0.40578	34.52
0.42245	34.52
0.43912	34.51
0.45578	34.52
0.47245	34.52
0.48912	34.52
0.50578	34.52
0.52245	34.51
0.53912	34.52
0.55578	34.52
0.57245	34.52
0.58912	34.51
0.60578	34.52
0.62245	34.52
0.63912	34.52
0.65578	34.51
0.67245	34.51
0.68912	34.52
0.70578	34.52
0.72245	34.52
0.73912	34.52
0.75578	34.52
0.77245	34.52
0.78912	34.52
0.80578	34.52
0.82245	34.52
0.83912	34.52
0.85578	34.52
0.87245	34.52
0.88912	34.51
0.90578	34.52
0.92245	34.52
0.93912	34.52
0.95578	34.52
0.97245	34.52
0.98912	34.52
1.00578	34.52
1.02245	34.52
1.03912	34.51
1.05578	34.52
1.07245	34.52
1.08912	34.52
1.10578	34.52
1.12245	34.51
1.13912	34.52
1.15578	34.53
1.17245	34.52
1.18912	34.52
1.20578	34.51
1.22245	34.51
1.23912	34.52
1.25578	34.52
1.27245	34.52
1.28912	34.52
1.30578	34.52
1.32245	34.52
1.33912	34.52
1.35578	34.51
1.37245	34.52
1.38912	34.52
1.40578	34.52
1.42245	34.51
1.43912	34.52
1.45578	34.52
1.47245	34.52
1.48912	34.52
1.50578	34.52
1.52245	34.52
1.53912	34.52
1.55578	34.52
1.57245	34.52
1.58912	34.52
1.60578	34.52
1.62245	34.52
1.63912	34.52
1.65578	34.52
1.67245	34.52
1.68912	34.52
1.70578	34.51
1.72245	34.52
1.73912	34.52
1.75578	34.52
1.77245	34.52
1.78912	34.52
1.80578	34.52
1.82245	34.52
1.83912	34.51
1.85578	34.52
1.87245	34.52
1.88912	34.52
1.90578	34.52
1.92245	34.52
1.93912	34.52
1.95578	34.52
1.97245	34.52
1.98912	34.52
2.00578	34.52
2.02245	34.52
2.03912	34.51
2.05578	34.52
2.07245	34.52
2.08912	34.52
2.10578	34.52
2.12245	34.53
2.13912	34.51
2.15578	34.52
2.17245	34.52
2.18912	34.52
2.20578	34.52
2.22245	34.51
2.23912	34.52
2.25578	34.52
2.27245	34.52
2.28912	34.52
2.30578	34.52
2.32245	34.52
2.33912	34.52
2.35578	34.52
2.37245	34.52
2.38912	34.52
2.40578	34.52
2.42245	34.52
2.43912	34.51
2.45578	34.52
2.47245	34.52
2.48912	34.52
2.50578	34.50
2.52245	34.52
2.53912	34.52
2.55578	34.52
2.57245	34.52
2.58912	34.51
2.60578	34.52
2.62245	34.52
2.63912	34.52
2.65578	34.52
2.67245	34.52
2.68912	34.52
2.70578	34.52
2.72245	34.52
2.73912	34.52
2.75578	34.53
2.77245	34.52
2.78912	34.51
2.80578	34.52
2.82245	34.51
2.83912	34.52
2.85578	34.52
2.87245	34.52
2.88912	34.51
2.90578	34.52
2.92245	34.52
2.93912	34.52
2.95578	34.52
2.97245	34.52
2.98912	34.52
3.00578	34.52
3.02245	34.52
3.03912	34.52
3.05578	34.52
3.07245	34.52
3.08912	34.52
3.10578	34.51
3.12245	34.52
3.13912	34.52
3.15578	34.52
3.17245	34.52
3.18912	34.52
3.20578	34.52
3.22245	34.52
3.23912	34.51
3.25578	34.52
3.27245	34.52
3.28912	34.52
3.30578	34.52
3.32245	34.52
3.33912	34.52
3.35578	34.52
3.37245	34.52
3.38912	34.51
3.40578	34.52
3.42245	34.52
3.43912	34.52
3.45578	34.52
3.47245	34.52
3.48912	34.52
3.50578	34.52
3.52245	34.52
3.53912	34.52
3.55578	34.52
3.57245	34.52
3.58912	34.52
3.60578	34.52
3.62245	34.51
3.63912	34.52
3.65578	34.52
3.67245	34.52
3.68912	34.52
3.70578	34.52
3.72245	34.52
3.73912	34.52
3.75578	34.51
3.77245	34.52
3.78912	34.52
3.80578	34.52
3.82245	34.52
3.83912	34.52
3.85578	34.52
3.87245	34.52
3.88912	34.52
3.90578	34.51
3.92245	34.52
3.93912	34.52
3.95578	34.52
3.97245	34.52
3.98912	34.52

[Status Trace (Column Flow)]
Interval(msec)	1000
# of Points	240
Start Time(min)	0.006
End Time(min)	3.989
Intensity Units	
Intensity Multiplier	1
R.Time (min)	Intensity
0.00578	5.57
0.02245	5.29
0.03912	5.42
0.05578	5.68
0.07245	5.76
0.08912	5.58
0.10578	5.56
0.12245	5.57
0.13912	5.57
0.15578	5.57
0.17245	5.57
0.18912	5.57
0.20578	5.57
0.22245	5.57
0.23912	5.57
0.25578	5.57
0.27245	5.57
0.28912	5.57
0.30578	5.57
0.32245	5.57
0.33912	5.57
0.35578	5.57
0.37245	5.57
0.38912	5.57
0.40578	5.57
0.42245	5.57
0.43912	5.57
0.45578	5.57
0.47245	5.57
0.48912	5.57
0.50578	5.57
0.52245	5.57
0.53912	5.57
0.55578	5.57
0.57245	5.57
0.58912	5.57
0.60578	5.57
0.62245	5.57
0.63912	5.57
0.65578	5.57
0.67245	5.57
0.68912	5.57
0.70578	5.57
0.72245	5.57
0.73912	5.57
0.75578	5.57
0.77245	5.57
0.78912	5.57
0.80578	5.57
0.82245	5.57
0.83912	5.57
0.85578	5.57
0.87245	5.57
0.88912	5.57
0.90578	5.57
0.92245	5.57
0.93912	5.57
0.95578	5.57
0.97245	5.57
0.98912	5.57
1.00578	5.57
1.02245	5.57
1.03912	5.57
1.05578	5.57
1.07245	5.57
1.08912	5.57
1.10578	5.57
1.12245	5.57
1.13912	5.57
1.15578	5.57
1.17245	5.57
1.18912	5.57
1.20578	5.57
1.22245	5.57
1.23912	5.57
1.25578	5.57
1.27245	5.57
1.28912	5.57
1.30578	5.57
1.32245	5.57
1.33912	5.57
1.35578	5.57
1.37245	5.57
1.38912	5.57
1.40578	5.57
1.42245	5.57
1.43912	5.57
1.45578	5.57
1.47245	5.57
1.48912	5.57
1.50578	5.57
1.52245	5.57
1.53912	5.57
1.55578	5.57
1.57245	5.57
1.58912	5.57
1.60578	5.57
1.62245	5.56
1.63912	5.56
1.65578	5.55
1.67245	5.54
1.68912	5.53
1.70578	5.52
1.72245	5.50
1.73912	5.50
1.75578	5.48
1.77245	5.47
1.78912	5.46
1.80578	5.45
1.82245	5.44
1.83912	5.43
1.85578	5.42
1.87245	5.41
1.88912	5.40
1.90578	5.39
1.92245	5.38
1.93912	5.37
1.95578	5.36
1.97245	5.35
1.98912	5.34
2.00578	5.33
2.02245	5.32
2.03912	5.32
2.05578	5.31
2.07245	5.30
2.08912	5.29
2.10578	5.28
2.12245	5.27
2.13912	5.26
2.15578	5.25
2.17245	5.24
2.18912	5.23
2.20578	5.22
2.22245	5.21
2.23912	5.20
2.25578	5.19
2.27245	5.18
2.28912	5.17
2.30578	5.16
2.32245	5.15
2.33912	5.14
2.35578	5.14
2.37245	5.13
2.38912	5.13
2.40578	5.13
2.42245	5.13
2.43912	5.13
2.45578	5.13
2.47245	5.13
2.48912	5.13
2.50578	5.13
2.52245	5.13
2.53912	5.13
2.55578	5.13
2.57245	5.13
2.58912	5.13
2.60578	5.13
2.62245	5.13
2.63912	5.12
2.65578	5.12
2.67245	5.12
2.68912	5.12
2.70578	5.12
2.72245	5.12
2.73912	5.12
2.75578	5.12
2.77245	5.12
2.78912	5.12
2.80578	5.12
2.82245	5.12
2.83912	5.12
2.85578	5.12
2.87245	5.12
2.88912	5.12
2.90578	5.12
2.92245	5.12
2.93912	5.12
2.95578	5.12
2.97245	5.12
2.98912	5.12
3.00578	5.12
3.02245	5.12
3.03912	5.12
3.05578	5.12
3.07245	5.12
3.08912	5.12
3.10578	5.12
3.12245	5.12
3.13912	5.12
3.15578	5.12
3.17245	5.12
3.18912	5.12
3.20578	5.12
3.22245	5.12
3.23912	5.12
3.25578	5.12
3.27245	5.12
3.28912	5.12
3.30578	5.12
3.32245	5.12
3.33912	5.12
3.35578	5.12
3.37245	5.12
3.38912	5.12
3.40578	5.12
3.42245	5.12
3.43912	5.12
3.45578	5.12
3.47245	5.12
3.48912	5.12
3.50578	5.12
3.52245	5.12
3.53912	5.12
3.55578	5.12
3.57245	5.12
3.58912	5.12
3.60578	5.12
3.62245	5.12
3.63912	5.12
3.65578	5.12
3.67245	5.12
3.68912	5.12
3.70578	5.12
3.72245	5.12
3.73912	5.12
3.75578	5.12
3.77245	5.12
3.78912	5.12
3.80578	5.12
3.82245	5.12
3.83912	5.12
3.85578	5.12
3.87245	5.12
3.88912	5.12
3.90578	5.12
3.92245	5.12
3.93912	5.12
3.95578	5.12
3.97245	5.12
3.98912	5.12

[Status Trace (Linear Velocity)]
Interval(msec)	1000
# of Points	240
Start Time(min)	0.006
End Time(min)	3.989
Intensity Units	
Intensity Multiplier	1
R.Time (min)	Intensity
0.00578	39.02
0.02245	37.47
0.03912	38.21
0.05578	39.67
0.07245	40.08
0.08912	39.12
0.10578	39.01
0.12245	39.03
0.13912	39.03
0.15578	39.03
0.17245	39.03
0.18912	39.03
0.20578	39.03
0.22245	39.03
0.23912	39.03
0.25578	39.03
0.27245	39.03
0.28912	39.03
0.30578	39.03
0.32245	39.03
0.33912	39.03
0.35578	39.03
0.37245	39.03
0.38912	39.03
0.40578	39.02
0.42245	39.02
0.43912	39.03
0.45578	39.03
0.47245	39.03
0.48912	39.03
0.50578	39.03
0.52245	39.03
0.53912	39.03
0.55578	39.03
0.57245	39.03
0.58912	39.03
0.60578	39.03
0.62245	39.03
0.63912	39.03
0.65578	39.03
0.67245	39.03
0.68912	39.03
0.70578	39.03
0.72245	39.03
0.73912	39.03
0.75578	39.02
0.77245	39.03
0.78912	39.03
0.80578	39.03
0.82245	39.03
0.83912	39.03
0.85578	39.03
0.87245	39.03
0.88912	39.03
0.90578	39.03
0.92245	39.03
0.93912	39.03
0.95578	39.03
0.97245	39.03
0.98912	39.03
1.00578	39.03
1.02245	39.03
1.03912	39.03
1.05578	39.03
1.07245	39.03
1.08912	39.03
1.10578	39.03
1.12245	39.03
1.13912	39.03
1.15578	39.03
1.17245	39.03
1.18912	39.03
1.20578	39.03
1.22245	39.03
1.23912	39.03
1.25578	39.03
1.27245	39.03
1.28912	39.03
1.30578	39.03
1.32245	39.03
1.33912	39.03
1.35578	39.03
1.37245	39.03
1.38912	39.03
1.40578	39.03
1.42245	39.03
1.43912	39.03
1.45578	39.03
1.47245	39.03
1.48912	39.03
1.50578	39.03
1.52245	39.03
1.53912	39.03
1.55578	39.03
1.57245	39.03
1.58912	39.03
1.60578	39.02
1.62245	39.01
1.63912	39.00
1.65578	38.97
1.67245	38.94
1.68912	38.91
1.70578	38.87
1.72245	38.84
1.73912	38.81
1.75578	38.77
1.77245	38.74
1.78912	38.72
1.80578	38.68
1.82245	38.65
1.83912	38.62
1.85578	38.59
1.87245	38.56
1.88912	38.53
1.90578	38.50
1.92245	38.46
1.93912	38.44
1.95578	38.40
1.97245	38.37
1.98912	38.35
2.00578	38.31
2.02245	38.28
2.03912	38.26
2.05578	38.23
2.07245	38.19
2.08912	38.17
2.10578	38.14
2.12245	38.11
2.13912	38.08
2.15578	38.05
2.17245	38.02
2.18912	37.99
2.20578	37.96
2.22245	37.93
2.23912	37.90
2.25578	37.87
2.27245	37.84
2.28912	37.81
2.30578	37.78
2.32245	37.75
2.33912	37.72
2.35578	37.69
2.37245	37.68
2.38912	37.67
2.40578	37.67
2.42245	37.68
2.43912	37.67
2.45578	37.67
2.47245	37.67
2.48912	37.67
2.50578	37.66
2.52245	37.66
2.53912	37.67
2.55578	37.67
2.57245	37.67
2.58912	37.66
2.60578	37.66
2.62245	37.66
2.63912	37.66
2.65578	37.66
2.67245	37.65
2.68912	37.65
2.70578	37.66
2.72245	37.66
2.73912	37.65
2.75578	37.65
2.77245	37.65
2.78912	37.65
2.80578	37.65
2.82245	37.65
2.83912	37.65
2.85578	37.65
2.87245	37.65
2.88912	37.65
2.90578	37.65
2.92245	37.65
2.93912	37.65
2.95578	37.65
2.97245	37.64
2.98912	37.64
3.00578	37.64
3.02245	37.64
3.03912	37.64
3.05578	37.64
3.07245	37.64
3.08912	37.64
3.10578	37.64
3.12245	37.64
3.13912	37.64
3.15578	37.64
3.17245	37.64
3.18912	37.64
3.20578	37.64
3.22245	37.63
3.23912	37.63
3.25578	37.63
3.27245	37.63
3.28912	37.63
3.30578	37.63
3.32245	37.63
3.33912	37.63
3.35578	37.63
3.37245	37.64
3.38912	37.64
3.40578	37.64
3.42245	37.64
3.43912	37.64
3.45578	37.64
3.47245	37.64
3.48912	37.64
3.50578	37.64
3.52245	37.64
3.53912	37.64
3.55578	37.64
3.57245	37.64
3.58912	37.64
3.60578	37.64
3.62245	37.64
3.63912	37.64
3.65578	37.64
3.67245	37.64
3.68912	37.64
3.70578	37.64
3.72245	37.64
3.73912	37.64
3.75578	37.64
3.77245	37.64
3.78912	37.64
3.80578	37.64
3.82245	37.64
3.83912	37.64
3.85578	37.64
3.87245	37.64
3.88912	37.64
3.90578	37.64
3.92245	37.64
3.93912	37.64
3.95578	37.64
3.97245	37.64
3.98912	37.64

