[Header]
Application Name	LabSolutions
Version	5.110
Data File Name	C:\Users\User\Desktop\GC Analyses\Jack\Nachusa Grasslands Sampling\T1 Timepoint July 12th\T1_07122022_022.gcd
Output Date	3/14/2023
Output Time	3:40:58 PM

[File Information]
Type	Data File
Generated	3/8/2023 3:35:54 PM
Generated by	System Administrator
Modified	3/8/2023 3:42:21 PM
Modified by	System Administrator

[Sample Information]
Operator Name	System Administrator
Acquired	3/8/2023 3:38:21 PM
Sample Type	0:Unknown
Level	0
Sample Name	022
Sample ID	022
ISTD Amount1	1
ISTD Amount2	1
ISTD Amount3	1
ISTD Amount4	1
ISTD Amount5	1
ISTD Amount6	1
ISTD Amount7	1
ISTD Amount8	1
ISTD Amount9	1
ISTD Amount10	1
ISTD Amount11	1
ISTD Amount12	1
ISTD Amount13	1
ISTD Amount14	1
ISTD Amount15	1
ISTD Amount16	1
ISTD Amount17	1
ISTD Amount18	1
ISTD Amount19	1
ISTD Amount20	1
ISTD Amount21	1
ISTD Amount22	1
ISTD Amount23	1
ISTD Amount24	1
ISTD Amount25	1
ISTD Amount26	1
ISTD Amount27	1
ISTD Amount28	1
ISTD Amount29	1
ISTD Amount30	1
ISTD Amount31	1
ISTD Amount32	1
Sample Amount	1
Dilution Factor	1
Vial#	21
Injection Volume	1
Injection Count	1
Bar Code	

[Original Files]
Data File	C:\Users\User\Desktop\GC Analyses\Jack\Nachusa Grasslands Sampling\T1 Timepoint July 12th\T1_07122022_022.gcd
Method File	C:\LabSolutions\Data\GHG_4min_2022\ghg3_togas_w_acet_4 min_new_int.gcm
Batch File	C:\LabSolutions\Data\AutoSamplerTesting\T1_07122022.gcb
Report Format File	c:\LabSolutions\System\DEFAULT.lsr

[File Description]


[Configuration]
Instrument Name	C0B7VH3-Instrument1
Instrument #	1
Line #	1
# of Detectors	3
Detector ID	DET#1	DET#2	DET#3
Detector Name	FID	PTCD	ECD
# of Channels	1	1	1

[Peak Table(Ch1)]
# of Peaks	4
Peak#	R.Time	I.Time	F.Time	Area	Height	A/H	Conc.	Mark	ID#	Name	k'	Plate #	Plate Ht.	Tailing	Resolution	Sep.Factor	Area Ratio	Height Ratio	Conc. %	Norm Conc.
1	1.476	1.439	1.538	30490	14302	2.132	215.263	   	1	CO	0.000	9098	16.487	1.367	0.000	0.000	0	0	29.239	29.239
2	1.571	1.538	1.644	4955	2347	2.111	95.805	 V 	2	CH4	0.065	10356	14.484	0.000	1.542	0.000	0	0	13.013	13.013
3	1.996	1.952	2.506	1694022	796736	2.126	425.154	   	3	CO2	0.353	17316	8.663	1.342	6.948	5.462	0	0	57.748	57.748
4	3.335	2.979	3.547	885	56	15.900	0.000	   	6	Ethane	1.260	47737	3.142	0.801	21.988	3.570	0	0	0.000	0.000

[Peak Table(Ch2)]
# of Peaks	0

[Peak Table(Ch3)]
# of Peaks	5
Peak#	R.Time	I.Time	F.Time	Area	Height	A/H	Conc.	Mark	ID#	Name	k'	Plate #	Plate Ht.	Tailing	Resolution	Sep.Factor	Area Ratio	Height Ratio	Conc. %	Norm Conc.
1	2.458	2.312	2.510	1222	335	3.647	0.000	   			0.000	18071	8.301	0.000	0.000	0.000	0	0	0.000	0.000
2	2.546	2.510	2.631	707	162	4.357	0.000	 V 			0.036	6084	24.656	0.000	0.864	0.000	0	0	0.000	0.000
3	2.693	2.645	2.730	363	99	3.651	0.000	   			0.095	2702	55.516	0.000	0.868	2.667	0	0	0.000	0.000
4	2.873	2.730	3.155	20011	4943	4.048	0.511	 V 	1	N2O	0.169	13090	11.459	1.717	1.168	1.766	0	0	100.000	100.000
5	3.445	3.335	3.936	9480	484	19.590	0.000	   	2	SF6	0.401	740	202.838	2.683	1.884	2.381	0	0	0.000	0.000

[Compound Results(Ch1)]
# of IDs	6
ID#	Name	R.Time	Area	Height	Conc.	Curve	3rd	2nd	1st	Constant	Area Ratio	Height Ratio	Conc. %	Norm Conc.
1	CO	1.476	30490	14302	215.263	Linear	0.000000e+00	0.000000e+00	1.416423e+002	0.000000e+00	0	0	29.239	29.239
2	CH4	1.571	4955	2347	95.805	Linear	0.000000e+00	0.000000e+00	5.171738e+001	0.000000e+00	0	0	13.013	13.013
3	CO2	1.996	1694022	796736	425.154	Linear	0.000000e+00	0.000000e+00	3.984494e+003	0.000000e+00	0	0	57.748	57.748
4	Ethylene	0.000	0	0	0.000	Linear	0.000000e+00	0.000000e+00	0.000000e+00	0.000000e+00	0	0	0.000	0.000
5	Acetylene	0.000	0	0	0.000	Linear	0.000000e+00	0.000000e+00	0.000000e+00	0.000000e+00	0	0	0.000	0.000
6	Ethane	3.335	885	56	0.000	Linear	0.000000e+00	0.000000e+00	0.000000e+00	0.000000e+00	0	0	0.000	0.000

[Compound Results(Ch2)]
# of IDs	5
ID#	Name	R.Time	Area	Height	Conc.	Curve	3rd	2nd	1st	Constant	Area Ratio	Height Ratio	Conc. %	Norm Conc.
1	Hydrogen	0.000	0	0	0.000	Linear	0.000000e+00	0.000000e+00	0.000000e+00	0.000000e+00	0	0	0.000	0.000
2	Oxygen	0.000	0	0	0.000	Linear	0.000000e+00	0.000000e+00	0.000000e+00	0.000000e+00	0	0	0.000	0.000
3	Nitrogen	0.000	0	0	0.000	Linear	0.000000e+00	0.000000e+00	0.000000e+00	0.000000e+00	0	0	0.000	0.000
4	Methane	0.000	0	0	0.000	Linear	0.000000e+00	0.000000e+00	0.000000e+00	0.000000e+00	0	0	0.000	0.000
5	Carbon Monoxide	0.000	0	0	0.000	Linear	0.000000e+00	0.000000e+00	0.000000e+00	0.000000e+00	0	0	0.000	0.000

[Compound Results(Ch3)]
# of IDs	2
ID#	Name	R.Time	Area	Height	Conc.	Curve	3rd	2nd	1st	Constant	Area Ratio	Height Ratio	Conc. %	Norm Conc.
1	N2O	2.873	20011	4943	0.511	Linear	0.000000e+00	0.000000e+00	3.915173e+004	0.000000e+00	0	0	100.000	100.000
2	SF6	3.445	9480	484	0.000	Linear	0.000000e+00	0.000000e+00	0.000000e+00	0.000000e+00	0	0	0.000	0.000

[Group Results(Ch1)]
# of Groups	0

[Group Results(Ch2)]
# of Groups	0

[Group Results(Ch3)]
# of Groups	0

[Chromatogram (Ch1)]
Interval(msec)	220
# of Points	1091
Start Time(min)	0.002
End Time(min)	3.998
R.Time (min)	Intensity
0.00167	-3
0.00533	-5
0.00900	-10
0.01267	-18
0.01633	-23
0.02000	-24
0.02367	-25
0.02733	-25
0.03100	-24
0.03467	-22
0.03833	-18
0.04200	-14
0.04567	-7
0.04933	-1
0.05300	2
0.05667	-0
0.06033	-8
0.06400	-14
0.06767	-17
0.07133	-23
0.07500	-30
0.07867	-35
0.08233	-35
0.08600	-33
0.08967	-28
0.09333	-23
0.09700	-19
0.10067	-12
0.10433	-1
0.10800	7
0.11167	11
0.11533	13
0.11900	11
0.12267	7
0.12633	4
0.13000	0
0.13367	-2
0.13733	-5
0.14100	-4
0.14467	-3
0.14833	-4
0.15200	-6
0.15567	-8
0.15933	-12
0.16300	-13
0.16667	-11
0.17033	-9
0.17400	-7
0.17767	-8
0.18133	-12
0.18500	-16
0.18867	-16
0.19233	-14
0.19600	-10
0.19967	-5
0.20333	-1
0.20700	3
0.21067	5
0.21433	3
0.21800	-3
0.22167	-8
0.22533	-9
0.22900	-11
0.23267	-14
0.23633	-14
0.24000	-13
0.24367	-13
0.24733	-10
0.25100	-3
0.25467	6
0.25833	10
0.26200	7
0.26567	-0
0.26933	-6
0.27300	-10
0.27667	-13
0.28033	-14
0.28400	-16
0.28767	-20
0.29133	-21
0.29500	-18
0.29867	-10
0.30233	-4
0.30600	-1
0.30967	-4
0.31333	-6
0.31700	-4
0.32067	0
0.32433	3
0.32800	4
0.33167	7
0.33533	12
0.33900	16
0.34267	16
0.34633	11
0.35000	3
0.35367	-2
0.35733	-5
0.36100	-7
0.36467	-12
0.36833	-16
0.37200	-20
0.37567	-23
0.37933	-24
0.38300	-20
0.38667	-12
0.39033	-3
0.39400	4
0.39767	6
0.40133	4
0.40500	2
0.40867	2
0.41233	4
0.41600	2
0.41967	-2
0.42333	-6
0.42700	-10
0.43067	-11
0.43433	-11
0.43800	-7
0.44167	3
0.44533	12
0.44900	18
0.45267	22
0.45633	26
0.46000	26
0.46367	25
0.46733	24
0.47100	23
0.47467	23
0.47833	25
0.48200	27
0.48567	24
0.48933	20
0.49300	21
0.49667	21
0.50033	19
0.50400	19
0.50767	19
0.51133	18
0.51500	19
0.51867	21
0.52233	20
0.52600	19
0.52967	17
0.53333	20
0.53700	26
0.54067	35
0.54433	48
0.54800	55
0.55167	55
0.55533	45
0.55900	30
0.56267	14
0.56633	0
0.57000	-9
0.57367	-14
0.57733	-20
0.58100	-22
0.58467	-16
0.58833	-10
0.59200	-12
0.59567	-16
0.59933	-18
0.60300	-22
0.60667	-27
0.61033	-30
0.61400	-29
0.61767	-24
0.62133	-16
0.62500	-7
0.62867	-4
0.63233	-5
0.63600	-6
0.63967	-7
0.64333	-7
0.64700	-7
0.65067	-5
0.65433	1
0.65800	7
0.66167	7
0.66533	3
0.66900	1
0.67267	-2
0.67633	-9
0.68000	-20
0.68367	-29
0.68733	-32
0.69100	-32
0.69467	-29
0.69833	-30
0.70200	-30
0.70567	-30
0.70933	-28
0.71300	-26
0.71667	-20
0.72033	-10
0.72400	1
0.72767	8
0.73133	8
0.73500	4
0.73867	-2
0.74233	-11
0.74600	-17
0.74967	-20
0.75333	-22
0.75700	-25
0.76067	-27
0.76433	-23
0.76800	-18
0.77167	-11
0.77533	-4
0.77900	-0
0.78267	-4
0.78633	-12
0.79000	-18
0.79367	-24
0.79733	-28
0.80100	-31
0.80467	-34
0.80833	-34
0.81200	-30
0.81567	-27
0.81933	-25
0.82300	-22
0.82667	-20
0.83033	-18
0.83400	-14
0.83767	-13
0.84133	-13
0.84500	-10
0.84867	-6
0.85233	-4
0.85600	-4
0.85967	-6
0.86333	-8
0.86700	-6
0.87067	-0
0.87433	6
0.87800	10
0.88167	4
0.88533	-7
0.88900	-13
0.89267	-13
0.89633	-12
0.90000	-9
0.90367	-5
0.90733	-1
0.91100	1
0.91467	1
0.91833	1
0.92200	-0
0.92567	-3
0.92933	-10
0.93300	-17
0.93667	-22
0.94033	-27
0.94400	-27
0.94767	-23
0.95133	-19
0.95500	-18
0.95867	-17
0.96233	-17
0.96600	-19
0.96967	-25
0.97333	-28
0.97700	-28
0.98067	-26
0.98433	-24
0.98800	-23
0.99167	-18
0.99533	-7
0.99900	4
1.00267	10
1.00633	9
1.01000	1
1.01367	-9
1.01733	-19
1.02100	-25
1.02467	-28
1.02833	-27
1.03200	-24
1.03567	-22
1.03933	-22
1.04300	-26
1.04667	-30
1.05033	-30
1.05400	-27
1.05767	-26
1.06133	-27
1.06500	-28
1.06867	-26
1.07233	-24
1.07600	-21
1.07967	-17
1.08333	-16
1.08700	-17
1.09067	-17
1.09433	-13
1.09800	-10
1.10167	-10
1.10533	-12
1.10900	-14
1.11267	-16
1.11633	-18
1.12000	-22
1.12367	-24
1.12733	-26
1.13100	-29
1.13467	-31
1.13833	-29
1.14200	-25
1.14567	-19
1.14933	-16
1.15300	-15
1.15667	-15
1.16033	-15
1.16400	-13
1.16767	-11
1.17133	-15
1.17500	-19
1.17867	-19
1.18233	-14
1.18600	-9
1.18967	-6
1.19333	-2
1.19700	2
1.20067	2
1.20433	-2
1.20800	-11
1.21167	-16
1.21533	-19
1.21900	-18
1.22267	-13
1.22633	-8
1.23000	2
1.23367	7
1.23733	-0
1.24100	-10
1.24467	-18
1.24833	-23
1.25200	-23
1.25567	-22
1.25933	-21
1.26300	-19
1.26667	-17
1.27033	-16
1.27400	-12
1.27767	-8
1.28133	-4
1.28500	0
1.28867	-1
1.29233	-4
1.29600	-8
1.29967	-13
1.30333	-19
1.30700	-25
1.31067	-27
1.31433	-26
1.31800	-27
1.32167	-31
1.32533	-31
1.32900	-25
1.33267	-13
1.33633	-1
1.34000	3
1.34367	2
1.34733	1
1.35100	1
1.35467	2
1.35833	7
1.36200	10
1.36567	8
1.36933	5
1.37300	4
1.37667	-1
1.38033	-8
1.38400	-18
1.38767	-30
1.39133	-38
1.39500	-43
1.39867	-45
1.40233	-41
1.40600	-32
1.40967	-22
1.41333	-14
1.41700	-13
1.42067	-16
1.42433	-17
1.42800	-18
1.43167	-24
1.43533	-32
1.43900	-23
1.44267	54
1.44633	274
1.45000	813
1.45367	2085
1.45733	4286
1.46100	7030
1.46467	9712
1.46833	11929
1.47200	13497
1.47567	14291
1.47933	14192
1.48300	13164
1.48667	11391
1.49033	9252
1.49400	7139
1.49767	5311
1.50133	3866
1.50500	2784
1.50867	2005
1.51233	1458
1.51600	1079
1.51967	816
1.52333	634
1.52700	502
1.53067	405
1.53433	335
1.53800	298
1.54167	319
1.54533	459
1.54900	750
1.55267	1152
1.55633	1572
1.56000	1936
1.56367	2208
1.56733	2364
1.57100	2371
1.57467	2207
1.57833	1899
1.58200	1521
1.58567	1151
1.58933	840
1.59300	601
1.59667	430
1.60033	308
1.60400	222
1.60767	165
1.61133	131
1.61500	111
1.61867	97
1.62233	88
1.62600	83
1.62967	77
1.63333	70
1.63700	61
1.64067	54
1.64433	50
1.64800	46
1.65167	42
1.65533	40
1.65900	41
1.66267	44
1.66633	49
1.67000	52
1.67367	55
1.67733	59
1.68100	58
1.68467	53
1.68833	47
1.69200	40
1.69567	35
1.69933	33
1.70300	34
1.70667	36
1.71033	39
1.71400	43
1.71767	48
1.72133	53
1.72500	56
1.72867	62
1.73233	71
1.73600	77
1.73967	76
1.74333	68
1.74700	56
1.75067	47
1.75433	39
1.75800	29
1.76167	22
1.76533	21
1.76900	27
1.77267	38
1.77633	48
1.78000	57
1.78367	64
1.78733	67
1.79100	70
1.79467	75
1.79833	78
1.80200	77
1.80567	74
1.80933	71
1.81300	70
1.81667	72
1.82033	72
1.82400	69
1.82767	66
1.83133	64
1.83500	60
1.83867	52
1.84233	47
1.84600	45
1.84967	46
1.85333	51
1.85700	55
1.86067	59
1.86433	64
1.86800	69
1.87167	73
1.87533	74
1.87900	78
1.88267	82
1.88633	84
1.89000	82
1.89367	78
1.89733	74
1.90100	72
1.90467	73
1.90833	73
1.91200	72
1.91567	70
1.91933	72
1.92300	80
1.92667	89
1.93033	98
1.93400	101
1.93767	98
1.94133	93
1.94500	91
1.94867	89
1.95233	96
1.95600	187
1.95967	768
1.96333	3560
1.96700	13698
1.97067	41853
1.97433	102613
1.97800	205208
1.98167	343196
1.98533	495277
1.98900	635270
1.99267	740828
1.99633	796864
2.00000	796465
2.00367	742300
2.00733	647098
2.01100	530349
2.01467	411904
2.01833	306322
2.02200	220668
2.02567	155771
2.02933	108919
2.03300	76186
2.03667	53787
2.04033	38629
2.04400	28406
2.04767	21488
2.05133	16762
2.05500	13477
2.05867	11146
2.06233	9454
2.06600	8188
2.06967	7220
2.07333	6460
2.07700	5846
2.08067	5341
2.08433	4920
2.08800	4564
2.09167	4257
2.09533	3981
2.09900	3735
2.10267	3521
2.10633	3330
2.11000	3159
2.11367	3008
2.11733	2871
2.12100	2745
2.12467	2631
2.12833	2527
2.13200	2426
2.13567	2333
2.13933	2249
2.14300	2169
2.14667	2093
2.15033	2019
2.15400	1948
2.15767	1882
2.16133	1823
2.16500	1767
2.16867	1714
2.17233	1666
2.17600	1621
2.17967	1575
2.18333	1526
2.18700	1481
2.19067	1439
2.19433	1402
2.19800	1370
2.20167	1340
2.20533	1308
2.20900	1278
2.21267	1250
2.21633	1225
2.22000	1200
2.22367	1176
2.22733	1151
2.23100	1125
2.23467	1097
2.23833	1072
2.24200	1049
2.24567	1026
2.24933	1003
2.25300	981
2.25667	962
2.26033	948
2.26400	935
2.26767	925
2.27133	913
2.27500	903
2.27867	895
2.28233	886
2.28600	875
2.28967	862
2.29333	850
2.29700	831
2.30067	812
2.30433	798
2.30800	791
2.31167	790
2.31533	786
2.31900	771
2.32267	755
2.32633	744
2.33000	737
2.33367	727
2.33733	718
2.34100	706
2.34467	692
2.34833	681
2.35200	675
2.35567	666
2.35933	654
2.36300	641
2.36667	633
2.37033	627
2.37400	622
2.37767	618
2.38133	615
2.38500	609
2.38867	601
2.39233	593
2.39600	584
2.39967	579
2.40333	578
2.40700	582
2.41067	588
2.41433	590
2.41800	588
2.42167	588
2.42533	589
2.42900	589
2.43267	584
2.43633	577
2.44000	572
2.44367	570
2.44733	568
2.45100	566
2.45467	561
2.45833	551
2.46200	539
2.46567	527
2.46933	520
2.47300	513
2.47667	509
2.48033	505
2.48400	500
2.48767	495
2.49133	491
2.49500	488
2.49867	488
2.50233	488
2.50600	487
2.50967	487
2.51333	488
2.51700	492
2.52067	497
2.52433	501
2.52800	502
2.53167	503
2.53533	500
2.53900	496
2.54267	490
2.54633	483
2.55000	476
2.55367	472
2.55733	472
2.56100	471
2.56467	470
2.56833	473
2.57200	474
2.57567	472
2.57933	467
2.58300	464
2.58667	462
2.59033	462
2.59400	463
2.59767	463
2.60133	464
2.60500	466
2.60867	467
2.61233	464
2.61600	459
2.61967	453
2.62333	446
2.62700	441
2.63067	438
2.63433	434
2.63800	433
2.64167	435
2.64533	441
2.64900	447
2.65267	452
2.65633	453
2.66000	451
2.66367	444
2.66733	436
2.67100	431
2.67467	429
2.67833	427
2.68200	428
2.68567	433
2.68933	439
2.69300	442
2.69667	438
2.70033	431
2.70400	425
2.70767	422
2.71133	426
2.71500	432
2.71867	438
2.72233	441
2.72600	438
2.72967	430
2.73333	426
2.73700	423
2.74067	422
2.74433	424
2.74800	430
2.75167	439
2.75533	442
2.75900	441
2.76267	433
2.76633	426
2.77000	420
2.77367	419
2.77733	422
2.78100	426
2.78467	428
2.78833	429
2.79200	434
2.79567	441
2.79933	444
2.80300	444
2.80667	443
2.81033	444
2.81400	441
2.81767	433
2.82133	428
2.82500	424
2.82867	419
2.83233	413
2.83600	411
2.83967	410
2.84333	409
2.84700	413
2.85067	420
2.85433	426
2.85800	430
2.86167	433
2.86533	436
2.86900	439
2.87267	443
2.87633	446
2.88000	447
2.88367	444
2.88733	437
2.89100	431
2.89467	429
2.89833	428
2.90200	427
2.90567	429
2.90933	434
2.91300	440
2.91667	445
2.92033	450
2.92400	454
2.92767	459
2.93133	460
2.93500	457
2.93867	450
2.94233	442
2.94600	436
2.94967	429
2.95333	424
2.95700	424
2.96067	424
2.96433	427
2.96800	432
2.97167	434
2.97533	432
2.97900	432
2.98267	436
2.98633	439
2.99000	440
2.99367	443
2.99733	445
3.00100	448
3.00467	451
3.00833	455
3.01200	461
3.01567	463
3.01933	460
3.02300	457
3.02667	457
3.03033	454
3.03400	450
3.03767	447
3.04133	446
3.04500	446
3.04867	451
3.05233	456
3.05600	455
3.05967	450
3.06333	445
3.06700	442
3.07067	442
3.07433	447
3.07800	452
3.08167	455
3.08533	458
3.08900	464
3.09267	467
3.09633	463
3.10000	456
3.10367	453
3.10733	457
3.11100	459
3.11467	456
3.11833	453
3.12200	451
3.12567	446
3.12933	441
3.13300	439
3.13667	441
3.14033	442
3.14400	441
3.14767	442
3.15133	442
3.15500	444
3.15867	449
3.16233	453
3.16600	456
3.16967	454
3.17333	449
3.17700	448
3.18067	449
3.18433	449
3.18800	446
3.19167	445
3.19533	444
3.19900	444
3.20267	444
3.20633	444
3.21000	442
3.21367	441
3.21733	442
3.22100	445
3.22467	453
3.22833	457
3.23200	452
3.23567	441
3.23933	429
3.24300	422
3.24667	422
3.25033	426
3.25400	429
3.25767	428
3.26133	426
3.26500	426
3.26867	427
3.27233	430
3.27600	433
3.27967	437
3.28333	440
3.28700	439
3.29067	438
3.29433	438
3.29800	439
3.30167	442
3.30533	448
3.30900	454
3.31267	457
3.31633	450
3.32000	440
3.32367	437
3.32733	443
3.33100	454
3.33467	460
3.33833	457
3.34200	447
3.34567	436
3.34933	430
3.35300	433
3.35667	437
3.36033	437
3.36400	433
3.36767	432
3.37133	433
3.37500	434
3.37867	435
3.38233	431
3.38600	425
3.38967	421
3.39333	420
3.39700	421
3.40067	423
3.40433	424
3.40800	423
3.41167	420
3.41533	415
3.41900	410
3.42267	410
3.42633	413
3.43000	417
3.43367	419
3.43733	421
3.44100	426
3.44467	432
3.44833	434
3.45200	432
3.45567	425
3.45933	415
3.46300	406
3.46667	401
3.47033	397
3.47400	397
3.47767	401
3.48133	406
3.48500	412
3.48867	413
3.49233	411
3.49600	409
3.49967	405
3.50333	403
3.50700	404
3.51067	403
3.51433	397
3.51800	395
3.52167	401
3.52533	413
3.52900	425
3.53267	433
3.53633	432
3.54000	422
3.54367	405
3.54733	388
3.55100	377
3.55467	375
3.55833	374
3.56200	373
3.56567	372
3.56933	374
3.57300	375
3.57667	374
3.58033	374
3.58400	374
3.58767	370
3.59133	369
3.59500	371
3.59867	378
3.60233	389
3.60600	403
3.60967	416
3.61333	426
3.61700	434
3.62067	435
3.62433	424
3.62800	404
3.63167	381
3.63533	361
3.63900	346
3.64267	338
3.64633	338
3.65000	340
3.65367	344
3.65733	348
3.66100	356
3.66467	363
3.66833	366
3.67200	368
3.67567	369
3.67933	365
3.68300	363
3.68667	364
3.69033	365
3.69400	366
3.69767	370
3.70133	377
3.70500	388
3.70867	398
3.71233	399
3.71600	394
3.71967	386
3.72333	377
3.72700	370
3.73067	365
3.73433	361
3.73800	361
3.74167	363
3.74533	365
3.74900	370
3.75267	377
3.75633	381
3.76000	379
3.76367	375
3.76733	370
3.77100	365
3.77467	363
3.77833	363
3.78200	361
3.78567	360
3.78933	362
3.79300	361
3.79667	359
3.80033	356
3.80400	354
3.80767	354
3.81133	356
3.81500	358
3.81867	357
3.82233	353
3.82600	349
3.82967	343
3.83333	336
3.83700	331
3.84067	328
3.84433	328
3.84800	332
3.85167	337
3.85533	342
3.85900	347
3.86267	351
3.86633	353
3.87000	350
3.87367	343
3.87733	336
3.88100	334
3.88467	333
3.88833	333
3.89200	331
3.89567	328
3.89933	324
3.90300	319
3.90667	316
3.91033	320
3.91400	332
3.91767	343
3.92133	349
3.92500	349
3.92867	344
3.93233	336
3.93600	329
3.93967	322
3.94333	316
3.94700	311
3.95067	311
3.95433	315
3.95800	321
3.96167	325
3.96533	328
3.96900	327
3.97267	321
3.97633	312
3.98000	303
3.98367	302
3.98733	303
3.99100	305
3.99467	309
3.99833	312

[Chromatogram (Ch2)]
Interval(msec)	220
# of Points	1091
Start Time(min)	0.002
End Time(min)	3.998
R.Time (min)	Intensity
0.00167	-1
0.00533	-1
0.00900	-1
0.01267	-1
0.01633	-1
0.02000	-1
0.02367	-1
0.02733	-0
0.03100	-1
0.03467	-1
0.03833	-1
0.04200	-0
0.04567	-0
0.04933	-0
0.05300	-0
0.05667	-0
0.06033	0
0.06400	0
0.06767	1
0.07133	1
0.07500	1
0.07867	2
0.08233	2
0.08600	1
0.08967	1
0.09333	1
0.09700	0
0.10067	-0
0.10433	-1
0.10800	-1
0.11167	-2
0.11533	-2
0.11900	-3
0.12267	-3
0.12633	-3
0.13000	-3
0.13367	-3
0.13733	-3
0.14100	-3
0.14467	-3
0.14833	-3
0.15200	-2
0.15567	-2
0.15933	-2
0.16300	-2
0.16667	-2
0.17033	-2
0.17400	-2
0.17767	-2
0.18133	-2
0.18500	-2
0.18867	-3
0.19233	-3
0.19600	-3
0.19967	-4
0.20333	-4
0.20700	-4
0.21067	-4
0.21433	-4
0.21800	-3
0.22167	-3
0.22533	-2
0.22900	-2
0.23267	-2
0.23633	-1
0.24000	-1
0.24367	-1
0.24733	-1
0.25100	-1
0.25467	-0
0.25833	0
0.26200	1
0.26567	1
0.26933	2
0.27300	2
0.27667	2
0.28033	2
0.28400	2
0.28767	2
0.29133	2
0.29500	2
0.29867	2
0.30233	2
0.30600	3
0.30967	3
0.31333	3
0.31700	3
0.32067	2
0.32433	2
0.32800	2
0.33167	1
0.33533	1
0.33900	1
0.34267	1
0.34633	1
0.35000	0
0.35367	0
0.35733	0
0.36100	-0
0.36467	-0
0.36833	-1
0.37200	-1
0.37567	-1
0.37933	-0
0.38300	-0
0.38667	0
0.39033	0
0.39400	1
0.39767	1
0.40133	1
0.40500	1
0.40867	1
0.41233	1
0.41600	1
0.41967	1
0.42333	1
0.42700	1
0.43067	1
0.43433	0
0.43800	0
0.44167	1
0.44533	1
0.44900	1
0.45267	1
0.45633	1
0.46000	1
0.46367	0
0.46733	-0
0.47100	-1
0.47467	-1
0.47833	-2
0.48200	-2
0.48567	-2
0.48933	-3
0.49300	-2
0.49667	-2
0.50033	-2
0.50400	-2
0.50767	-2
0.51133	-2
0.51500	-1
0.51867	-1
0.52233	-1
0.52600	-1
0.52967	-1
0.53333	-0
0.53700	-0
0.54067	-0
0.54433	-0
0.54800	-0
0.55167	-0
0.55533	-0
0.55900	-0
0.56267	-0
0.56633	-0
0.57000	-0
0.57367	-0
0.57733	-0
0.58100	-1
0.58467	-1
0.58833	-0
0.59200	-0
0.59567	0
0.59933	1
0.60300	1
0.60667	1
0.61033	1
0.61400	1
0.61767	1
0.62133	1
0.62500	0
0.62867	-0
0.63233	-1
0.63600	-1
0.63967	-2
0.64333	-2
0.64700	-3
0.65067	-3
0.65433	-4
0.65800	-4
0.66167	-4
0.66533	-4
0.66900	-4
0.67267	-4
0.67633	-4
0.68000	-4
0.68367	-4
0.68733	-3
0.69100	-3
0.69467	-3
0.69833	-2
0.70200	-2
0.70567	-1
0.70933	-0
0.71300	0
0.71667	0
0.72033	1
0.72400	1
0.72767	1
0.73133	1
0.73500	1
0.73867	0
0.74233	-0
0.74600	-0
0.74967	-1
0.75333	-1
0.75700	-2
0.76067	-3
0.76433	-4
0.76800	-4
0.77167	-5
0.77533	-5
0.77900	-5
0.78267	-5
0.78633	-4
0.79000	-4
0.79367	-3
0.79733	-3
0.80100	-2
0.80467	-2
0.80833	-2
0.81200	-1
0.81567	-1
0.81933	-1
0.82300	-1
0.82667	-0
0.83033	-0
0.83400	0
0.83767	0
0.84133	0
0.84500	0
0.84867	0
0.85233	0
0.85600	0
0.85967	1
0.86333	1
0.86700	1
0.87067	1
0.87433	1
0.87800	1
0.88167	1
0.88533	1
0.88900	1
0.89267	0
0.89633	0
0.90000	-0
0.90367	-0
0.90733	-1
0.91100	-1
0.91467	-1
0.91833	-2
0.92200	-2
0.92567	-2
0.92933	-3
0.93300	-3
0.93667	-3
0.94033	-3
0.94400	-3
0.94767	-3
0.95133	-3
0.95500	-3
0.95867	-3
0.96233	-3
0.96600	-2
0.96967	-2
0.97333	-2
0.97700	-2
0.98067	-2
0.98433	-2
0.98800	-2
0.99167	-3
0.99533	-3
0.99900	-3
1.00267	-3
1.00633	-2
1.01000	-2
1.01367	-1
1.01733	-1
1.02100	-1
1.02467	-1
1.02833	-1
1.03200	-1
1.03567	-1
1.03933	-1
1.04300	-1
1.04667	-1
1.05033	-1
1.05400	-2
1.05767	-2
1.06133	-2
1.06500	-3
1.06867	-3
1.07233	-3
1.07600	-3
1.07967	-4
1.08333	-4
1.08700	-4
1.09067	-4
1.09433	-4
1.09800	-4
1.10167	-3
1.10533	-3
1.10900	-3
1.11267	-2
1.11633	-2
1.12000	-2
1.12367	-2
1.12733	-2
1.13100	-2
1.13467	-2
1.13833	-2
1.14200	-2
1.14567	-2
1.14933	-2
1.15300	-2
1.15667	-2
1.16033	-1
1.16400	-1
1.16767	-1
1.17133	-1
1.17500	-1
1.17867	-1
1.18233	-1
1.18600	-1
1.18967	-1
1.19333	-1
1.19700	-1
1.20067	-1
1.20433	-1
1.20800	-1
1.21167	-0
1.21533	-0
1.21900	-0
1.22267	-0
1.22633	-0
1.23000	-1
1.23367	-1
1.23733	-2
1.24100	-3
1.24467	-3
1.24833	-3
1.25200	-4
1.25567	-4
1.25933	-4
1.26300	-3
1.26667	-3
1.27033	-3
1.27400	-2
1.27767	-1
1.28133	-1
1.28500	-0
1.28867	0
1.29233	1
1.29600	1
1.29967	1
1.30333	2
1.30700	2
1.31067	2
1.31433	3
1.31800	3
1.32167	3
1.32533	3
1.32900	3
1.33267	3
1.33633	3
1.34000	3
1.34367	2
1.34733	2
1.35100	2
1.35467	2
1.35833	2
1.36200	1
1.36567	1
1.36933	1
1.37300	0
1.37667	-0
1.38033	-1
1.38400	-1
1.38767	-2
1.39133	-2
1.39500	-3
1.39867	-3
1.40233	-3
1.40600	-3
1.40967	-3
1.41333	-3
1.41700	-3
1.42067	-2
1.42433	-2
1.42800	-2
1.43167	-2
1.43533	-2
1.43900	-2
1.44267	-2
1.44633	-2
1.45000	-2
1.45367	-2
1.45733	-1
1.46100	-1
1.46467	-1
1.46833	-1
1.47200	-1
1.47567	-1
1.47933	-1
1.48300	-1
1.48667	-2
1.49033	-2
1.49400	-3
1.49767	-3
1.50133	-4
1.50500	-4
1.50867	-4
1.51233	-4
1.51600	-4
1.51967	-5
1.52333	-5
1.52700	-5
1.53067	-5
1.53433	-5
1.53800	-5
1.54167	-5
1.54533	-5
1.54900	-5
1.55267	-5
1.55633	-5
1.56000	-5
1.56367	-6
1.56733	-6
1.57100	-5
1.57467	-5
1.57833	-5
1.58200	-5
1.58567	-5
1.58933	-4
1.59300	-4
1.59667	-4
1.60033	-5
1.60400	-5
1.60767	-7
1.61133	-8
1.61500	-10
1.61867	-13
1.62233	-15
1.62600	-19
1.62967	-22
1.63333	-25
1.63700	-29
1.64067	-33
1.64433	-37
1.64800	-41
1.65167	-44
1.65533	-48
1.65900	-52
1.66267	-55
1.66633	-59
1.67000	-63
1.67367	-67
1.67733	-72
1.68100	-77
1.68467	-81
1.68833	-86
1.69200	-90
1.69567	-93
1.69933	-96
1.70300	-99
1.70667	-101
1.71033	-102
1.71400	-103
1.71767	-104
1.72133	-105
1.72500	-107
1.72867	-108
1.73233	-109
1.73600	-110
1.73967	-111
1.74333	-111
1.74700	-112
1.75067	-112
1.75433	-113
1.75800	-114
1.76167	-114
1.76533	-115
1.76900	-115
1.77267	-116
1.77633	-117
1.78000	-118
1.78367	-119
1.78733	-119
1.79100	-119
1.79467	-119
1.79833	-118
1.80200	-118
1.80567	-117
1.80933	-115
1.81300	-114
1.81667	-113
1.82033	-112
1.82400	-112
1.82767	-112
1.83133	-113
1.83500	-114
1.83867	-114
1.84233	-115
1.84600	-115
1.84967	-116
1.85333	-116
1.85700	-116
1.86067	-116
1.86433	-116
1.86800	-115
1.87167	-115
1.87533	-115
1.87900	-115
1.88267	-115
1.88633	-115
1.89000	-115
1.89367	-115
1.89733	-115
1.90100	-115
1.90467	-116
1.90833	-117
1.91200	-117
1.91567	-117
1.91933	-116
1.92300	-116
1.92667	-115
1.93033	-115
1.93400	-115
1.93767	-114
1.94133	-114
1.94500	-114
1.94867	-114
1.95233	-113
1.95600	-112
1.95967	-112
1.96333	-111
1.96700	-111
1.97067	-111
1.97433	-110
1.97800	-110
1.98167	-110
1.98533	-110
1.98900	-111
1.99267	-111
1.99633	-110
2.00000	-110
2.00367	-110
2.00733	-109
2.01100	-109
2.01467	-109
2.01833	-109
2.02200	-109
2.02567	-109
2.02933	-108
2.03300	-108
2.03667	-108
2.04033	-107
2.04400	-107
2.04767	-107
2.05133	-106
2.05500	-106
2.05867	-106
2.06233	-106
2.06600	-106
2.06967	-106
2.07333	-105
2.07700	-105
2.08067	-104
2.08433	-104
2.08800	-104
2.09167	-104
2.09533	-103
2.09900	-103
2.10267	-102
2.10633	-101
2.11000	-101
2.11367	-101
2.11733	-100
2.12100	-100
2.12467	-99
2.12833	-99
2.13200	-99
2.13567	-99
2.13933	-99
2.14300	-98
2.14667	-97
2.15033	-97
2.15400	-96
2.15767	-96
2.16133	-96
2.16500	-96
2.16867	-96
2.17233	-96
2.17600	-96
2.17967	-96
2.18333	-96
2.18700	-95
2.19067	-95
2.19433	-95
2.19800	-94
2.20167	-93
2.20533	-93
2.20900	-92
2.21267	-92
2.21633	-92
2.22000	-92
2.22367	-92
2.22733	-91
2.23100	-91
2.23467	-90
2.23833	-89
2.24200	-89
2.24567	-88
2.24933	-87
2.25300	-87
2.25667	-87
2.26033	-86
2.26400	-86
2.26767	-87
2.27133	-87
2.27500	-87
2.27867	-88
2.28233	-88
2.28600	-88
2.28967	-88
2.29333	-88
2.29700	-89
2.30067	-89
2.30433	-89
2.30800	-88
2.31167	-88
2.31533	-87
2.31900	-86
2.32267	-85
2.32633	-85
2.33000	-84
2.33367	-83
2.33733	-81
2.34100	-80
2.34467	-79
2.34833	-77
2.35200	-76
2.35567	-74
2.35933	-73
2.36300	-72
2.36667	-71
2.37033	-69
2.37400	-67
2.37767	-64
2.38133	-61
2.38500	-58
2.38867	-54
2.39233	-50
2.39600	-46
2.39967	-42
2.40333	-37
2.40700	-33
2.41067	-29
2.41433	-26
2.41800	-23
2.42167	-21
2.42533	-19
2.42900	-18
2.43267	-17
2.43633	-16
2.44000	-14
2.44367	-13
2.44733	-11
2.45100	-10
2.45467	-8
2.45833	-7
2.46200	-7
2.46567	-6
2.46933	-5
2.47300	-4
2.47667	-3
2.48033	-2
2.48400	-1
2.48767	1
2.49133	2
2.49500	3
2.49867	5
2.50233	6
2.50600	6
2.50967	7
2.51333	8
2.51700	9
2.52067	10
2.52433	10
2.52800	11
2.53167	11
2.53533	11
2.53900	12
2.54267	13
2.54633	13
2.55000	14
2.55367	14
2.55733	14
2.56100	14
2.56467	14
2.56833	14
2.57200	14
2.57567	14
2.57933	15
2.58300	15
2.58667	16
2.59033	16
2.59400	16
2.59767	16
2.60133	17
2.60500	17
2.60867	18
2.61233	18
2.61600	18
2.61967	17
2.62333	17
2.62700	17
2.63067	17
2.63433	17
2.63800	17
2.64167	17
2.64533	17
2.64900	18
2.65267	19
2.65633	19
2.66000	20
2.66367	20
2.66733	20
2.67100	20
2.67467	20
2.67833	19
2.68200	19
2.68567	20
2.68933	20
2.69300	20
2.69667	20
2.70033	21
2.70400	21
2.70767	22
2.71133	22
2.71500	22
2.71867	23
2.72233	23
2.72600	24
2.72967	25
2.73333	26
2.73700	27
2.74067	27
2.74433	27
2.74800	26
2.75167	26
2.75533	25
2.75900	25
2.76267	25
2.76633	25
2.77000	25
2.77367	24
2.77733	24
2.78100	24
2.78467	24
2.78833	24
2.79200	24
2.79567	24
2.79933	24
2.80300	24
2.80667	24
2.81033	25
2.81400	25
2.81767	25
2.82133	25
2.82500	25
2.82867	26
2.83233	26
2.83600	25
2.83967	24
2.84333	21
2.84700	16
2.85067	9
2.85433	-1
2.85800	-15
2.86167	-33
2.86533	-55
2.86900	-81
2.87267	-111
2.87633	-146
2.88000	-184
2.88367	-226
2.88733	-271
2.89100	-318
2.89467	-368
2.89833	-420
2.90200	-473
2.90567	-527
2.90933	-582
2.91300	-636
2.91667	-691
2.92033	-744
2.92400	-797
2.92767	-848
2.93133	-902
2.93500	-960
2.93867	-1020
2.94233	-1072
2.94600	-1105
2.94967	-1114
2.95333	-1096
2.95700	-1055
2.96067	-995
2.96433	-923
2.96800	-844
2.97167	-762
2.97533	-681
2.97900	-604
2.98267	-531
2.98633	-464
2.99000	-403
2.99367	-349
2.99733	-301
3.00100	-258
3.00467	-221
3.00833	-188
3.01200	-160
3.01567	-135
3.01933	-114
3.02300	-96
3.02667	-81
3.03033	-67
3.03400	-56
3.03767	-46
3.04133	-37
3.04500	-30
3.04867	-24
3.05233	-18
3.05600	-14
3.05967	-10
3.06333	-7
3.06700	-4
3.07067	-2
3.07433	0
3.07800	2
3.08167	4
3.08533	5
3.08900	7
3.09267	8
3.09633	10
3.10000	11
3.10367	12
3.10733	13
3.11100	13
3.11467	13
3.11833	14
3.12200	14
3.12567	14
3.12933	14
3.13300	15
3.13667	15
3.14033	15
3.14400	15
3.14767	16
3.15133	16
3.15500	16
3.15867	16
3.16233	16
3.16600	16
3.16967	17
3.17333	17
3.17700	17
3.18067	18
3.18433	18
3.18800	19
3.19167	19
3.19533	20
3.19900	20
3.20267	20
3.20633	21
3.21000	21
3.21367	22
3.21733	22
3.22100	22
3.22467	23
3.22833	23
3.23200	24
3.23567	24
3.23933	24
3.24300	24
3.24667	23
3.25033	23
3.25400	23
3.25767	23
3.26133	24
3.26500	24
3.26867	24
3.27233	24
3.27600	24
3.27967	24
3.28333	24
3.28700	24
3.29067	24
3.29433	24
3.29800	25
3.30167	25
3.30533	25
3.30900	25
3.31267	25
3.31633	25
3.32000	25
3.32367	25
3.32733	25
3.33100	25
3.33467	24
3.33833	24
3.34200	24
3.34567	24
3.34933	24
3.35300	24
3.35667	24
3.36033	24
3.36400	24
3.36767	24
3.37133	24
3.37500	24
3.37867	24
3.38233	24
3.38600	24
3.38967	24
3.39333	24
3.39700	24
3.40067	24
3.40433	23
3.40800	23
3.41167	23
3.41533	23
3.41900	23
3.42267	23
3.42633	24
3.43000	24
3.43367	24
3.43733	24
3.44100	24
3.44467	25
3.44833	25
3.45200	25
3.45567	26
3.45933	26
3.46300	26
3.46667	26
3.47033	26
3.47400	26
3.47767	26
3.48133	26
3.48500	26
3.48867	26
3.49233	26
3.49600	26
3.49967	26
3.50333	26
3.50700	26
3.51067	26
3.51433	26
3.51800	26
3.52167	26
3.52533	25
3.52900	25
3.53267	25
3.53633	25
3.54000	25
3.54367	25
3.54733	25
3.55100	25
3.55467	25
3.55833	25
3.56200	25
3.56567	24
3.56933	24
3.57300	24
3.57667	24
3.58033	24
3.58400	24
3.58767	25
3.59133	25
3.59500	25
3.59867	25
3.60233	25
3.60600	26
3.60967	26
3.61333	26
3.61700	26
3.62067	26
3.62433	26
3.62800	25
3.63167	25
3.63533	25
3.63900	24
3.64267	24
3.64633	24
3.65000	24
3.65367	24
3.65733	24
3.66100	25
3.66467	25
3.66833	25
3.67200	25
3.67567	25
3.67933	25
3.68300	25
3.68667	25
3.69033	26
3.69400	26
3.69767	26
3.70133	27
3.70500	27
3.70867	27
3.71233	27
3.71600	27
3.71967	27
3.72333	27
3.72700	27
3.73067	27
3.73433	27
3.73800	27
3.74167	27
3.74533	27
3.74900	27
3.75267	27
3.75633	26
3.76000	26
3.76367	26
3.76733	27
3.77100	27
3.77467	27
3.77833	27
3.78200	27
3.78567	27
3.78933	27
3.79300	27
3.79667	27
3.80033	27
3.80400	27
3.80767	27
3.81133	27
3.81500	27
3.81867	27
3.82233	27
3.82600	27
3.82967	27
3.83333	27
3.83700	27
3.84067	27
3.84433	27
3.84800	27
3.85167	27
3.85533	26
3.85900	26
3.86267	26
3.86633	26
3.87000	26
3.87367	26
3.87733	26
3.88100	26
3.88467	26
3.88833	26
3.89200	26
3.89567	27
3.89933	27
3.90300	26
3.90667	26
3.91033	26
3.91400	26
3.91767	25
3.92133	25
3.92500	25
3.92867	25
3.93233	25
3.93600	25
3.93967	25
3.94333	25
3.94700	25
3.95067	25
3.95433	25
3.95800	25
3.96167	25
3.96533	26
3.96900	26
3.97267	26
3.97633	26
3.98000	26
3.98367	26
3.98733	26
3.99100	26
3.99467	26
3.99833	27

[Chromatogram (Ch3)]
Interval(msec)	220
# of Points	1091
Start Time(min)	0.002
End Time(min)	3.998
R.Time (min)	Intensity
0.00167	-1
0.00533	-1
0.00900	1
0.01267	2
0.01633	4
0.02000	4
0.02367	3
0.02733	5
0.03100	4
0.03467	4
0.03833	3
0.04200	2
0.04567	1
0.04933	0
0.05300	-1
0.05667	-1
0.06033	-1
0.06400	-1
0.06767	-2
0.07133	-4
0.07500	-4
0.07867	-4
0.08233	-4
0.08600	-5
0.08967	-5
0.09333	-3
0.09700	-3
0.10067	-4
0.10433	-4
0.10800	-3
0.11167	-3
0.11533	-3
0.11900	-3
0.12267	-4
0.12633	-4
0.13000	-2
0.13367	-1
0.13733	-2
0.14100	-4
0.14467	-6
0.14833	-5
0.15200	-4
0.15567	-4
0.15933	-5
0.16300	-5
0.16667	-6
0.17033	-5
0.17400	-3
0.17767	-1
0.18133	-0
0.18500	1
0.18867	-1
0.19233	-2
0.19600	-0
0.19967	-0
0.20333	-2
0.20700	-5
0.21067	-5
0.21433	-4
0.21800	-3
0.22167	-3
0.22533	-4
0.22900	-3
0.23267	-3
0.23633	-2
0.24000	1
0.24367	3
0.24733	3
0.25100	1
0.25467	-0
0.25833	-4
0.26200	-6
0.26567	-6
0.26933	-5
0.27300	-4
0.27667	-4
0.28033	-3
0.28400	-1
0.28767	1
0.29133	-1
0.29500	-0
0.29867	-2
0.30233	-4
0.30600	-6
0.30967	-5
0.31333	-4
0.31700	-6
0.32067	-6
0.32433	-5
0.32800	-4
0.33167	-6
0.33533	-7
0.33900	-7
0.34267	-6
0.34633	-4
0.35000	-3
0.35367	-4
0.35733	-3
0.36100	-2
0.36467	-3
0.36833	-4
0.37200	-2
0.37567	-2
0.37933	-1
0.38300	-2
0.38667	-2
0.39033	-2
0.39400	-3
0.39767	-4
0.40133	-5
0.40500	-4
0.40867	-4
0.41233	-3
0.41600	-5
0.41967	-6
0.42333	-4
0.42700	-3
0.43067	-2
0.43433	-1
0.43800	-1
0.44167	0
0.44533	1
0.44900	-0
0.45267	-1
0.45633	-1
0.46000	1
0.46367	2
0.46733	1
0.47100	-1
0.47467	-1
0.47833	-1
0.48200	1
0.48567	4
0.48933	3
0.49300	2
0.49667	0
0.50033	-1
0.50400	-0
0.50767	0
0.51133	1
0.51500	0
0.51867	-2
0.52233	-2
0.52600	-1
0.52967	0
0.53333	1
0.53700	4
0.54067	5
0.54433	7
0.54800	8
0.55167	9
0.55533	9
0.55900	7
0.56267	5
0.56633	2
0.57000	-0
0.57367	-3
0.57733	-3
0.58100	-3
0.58467	-3
0.58833	-2
0.59200	0
0.59567	-2
0.59933	-2
0.60300	0
0.60667	2
0.61033	3
0.61400	2
0.61767	2
0.62133	1
0.62500	1
0.62867	2
0.63233	2
0.63600	3
0.63967	4
0.64333	3
0.64700	1
0.65067	1
0.65433	1
0.65800	1
0.66167	-1
0.66533	-0
0.66900	-0
0.67267	1
0.67633	3
0.68000	4
0.68367	6
0.68733	7
0.69100	8
0.69467	7
0.69833	7
0.70200	8
0.70567	6
0.70933	6
0.71300	6
0.71667	6
0.72033	4
0.72400	3
0.72767	2
0.73133	1
0.73500	0
0.73867	-1
0.74233	-1
0.74600	-0
0.74967	1
0.75333	-0
0.75700	-1
0.76067	-0
0.76433	-0
0.76800	1
0.77167	2
0.77533	3
0.77900	4
0.78267	4
0.78633	5
0.79000	5
0.79367	4
0.79733	3
0.80100	3
0.80467	4
0.80833	6
0.81200	6
0.81567	3
0.81933	1
0.82300	0
0.82667	-0
0.83033	1
0.83400	2
0.83767	4
0.84133	5
0.84500	6
0.84867	7
0.85233	7
0.85600	6
0.85967	6
0.86333	4
0.86700	2
0.87067	2
0.87433	3
0.87800	0
0.88167	-2
0.88533	-2
0.88900	0
0.89267	0
0.89633	0
0.90000	1
0.90367	1
0.90733	4
0.91100	7
0.91467	9
0.91833	9
0.92200	7
0.92567	5
0.92933	3
0.93300	2
0.93667	1
0.94033	2
0.94400	3
0.94767	5
0.95133	6
0.95500	7
0.95867	6
0.96233	6
0.96600	7
0.96967	7
0.97333	9
0.97700	10
0.98067	11
0.98433	9
0.98800	8
0.99167	8
0.99533	7
0.99900	6
1.00267	7
1.00633	8
1.01000	8
1.01367	8
1.01733	9
1.02100	10
1.02467	10
1.02833	11
1.03200	12
1.03567	14
1.03933	14
1.04300	13
1.04667	13
1.05033	13
1.05400	13
1.05767	14
1.06133	15
1.06500	15
1.06867	14
1.07233	12
1.07600	9
1.07967	7
1.08333	7
1.08700	7
1.09067	9
1.09433	10
1.09800	12
1.10167	11
1.10533	11
1.10900	12
1.11267	12
1.11633	11
1.12000	11
1.12367	12
1.12733	15
1.13100	14
1.13467	14
1.13833	13
1.14200	13
1.14567	13
1.14933	13
1.15300	11
1.15667	11
1.16033	11
1.16400	13
1.16767	13
1.17133	14
1.17500	16
1.17867	19
1.18233	20
1.18600	20
1.18967	20
1.19333	20
1.19700	19
1.20067	18
1.20433	16
1.20800	13
1.21167	13
1.21533	15
1.21900	15
1.22267	14
1.22633	16
1.23000	15
1.23367	14
1.23733	15
1.24100	17
1.24467	15
1.24833	12
1.25200	9
1.25567	8
1.25933	11
1.26300	15
1.26667	15
1.27033	15
1.27400	14
1.27767	15
1.28133	16
1.28500	16
1.28867	16
1.29233	14
1.29600	14
1.29967	14
1.30333	16
1.30700	16
1.31067	14
1.31433	15
1.31800	15
1.32167	14
1.32533	16
1.32900	17
1.33267	17
1.33633	16
1.34000	16
1.34367	17
1.34733	17
1.35100	17
1.35467	16
1.35833	14
1.36200	12
1.36567	9
1.36933	8
1.37300	8
1.37667	8
1.38033	9
1.38400	12
1.38767	14
1.39133	16
1.39500	16
1.39867	16
1.40233	17
1.40600	18
1.40967	18
1.41333	19
1.41700	17
1.42067	15
1.42433	14
1.42800	15
1.43167	16
1.43533	17
1.43900	17
1.44267	18
1.44633	17
1.45000	16
1.45367	18
1.45733	19
1.46100	20
1.46467	21
1.46833	23
1.47200	23
1.47567	22
1.47933	22
1.48300	22
1.48667	21
1.49033	20
1.49400	20
1.49767	19
1.50133	20
1.50500	22
1.50867	23
1.51233	24
1.51600	22
1.51967	19
1.52333	17
1.52700	20
1.53067	21
1.53433	20
1.53800	20
1.54167	23
1.54533	25
1.54900	23
1.55267	20
1.55633	19
1.56000	20
1.56367	22
1.56733	24
1.57100	24
1.57467	24
1.57833	23
1.58200	23
1.58567	23
1.58933	23
1.59300	22
1.59667	21
1.60033	21
1.60400	23
1.60767	24
1.61133	25
1.61500	26
1.61867	25
1.62233	25
1.62600	26
1.62967	26
1.63333	28
1.63700	30
1.64067	31
1.64433	29
1.64800	25
1.65167	25
1.65533	26
1.65900	27
1.66267	28
1.66633	29
1.67000	29
1.67367	28
1.67733	28
1.68100	29
1.68467	31
1.68833	33
1.69200	33
1.69567	34
1.69933	34
1.70300	33
1.70667	32
1.71033	32
1.71400	33
1.71767	35
1.72133	35
1.72500	34
1.72867	34
1.73233	32
1.73600	32
1.73967	33
1.74333	35
1.74700	35
1.75067	33
1.75433	30
1.75800	31
1.76167	31
1.76533	31
1.76900	31
1.77267	32
1.77633	35
1.78000	38
1.78367	39
1.78733	38
1.79100	38
1.79467	38
1.79833	38
1.80200	39
1.80567	41
1.80933	40
1.81300	39
1.81667	41
1.82033	44
1.82400	48
1.82767	49
1.83133	49
1.83500	50
1.83867	53
1.84233	53
1.84600	51
1.84967	49
1.85333	48
1.85700	48
1.86067	46
1.86433	46
1.86800	47
1.87167	50
1.87533	50
1.87900	50
1.88267	50
1.88633	47
1.89000	46
1.89367	47
1.89733	49
1.90100	50
1.90467	51
1.90833	49
1.91200	47
1.91567	46
1.91933	46
1.92300	49
1.92667	52
1.93033	54
1.93400	54
1.93767	56
1.94133	60
1.94500	62
1.94867	61
1.95233	61
1.95600	63
1.95967	64
1.96333	65
1.96700	66
1.97067	66
1.97433	68
1.97800	69
1.98167	69
1.98533	70
1.98900	71
1.99267	74
1.99633	75
2.00000	75
2.00367	76
2.00733	75
2.01100	76
2.01467	79
2.01833	81
2.02200	81
2.02567	78
2.02933	77
2.03300	80
2.03667	84
2.04033	85
2.04400	85
2.04767	85
2.05133	85
2.05500	86
2.05867	87
2.06233	89
2.06600	91
2.06967	92
2.07333	92
2.07700	92
2.08067	92
2.08433	90
2.08800	90
2.09167	92
2.09533	95
2.09900	95
2.10267	95
2.10633	96
2.11000	97
2.11367	100
2.11733	101
2.12100	101
2.12467	101
2.12833	102
2.13200	104
2.13567	105
2.13933	105
2.14300	107
2.14667	111
2.15033	113
2.15400	113
2.15767	113
2.16133	114
2.16500	118
2.16867	119
2.17233	120
2.17600	119
2.17967	117
2.18333	116
2.18700	117
2.19067	117
2.19433	118
2.19800	119
2.20167	120
2.20533	120
2.20900	120
2.21267	122
2.21633	122
2.22000	122
2.22367	123
2.22733	125
2.23100	126
2.23467	126
2.23833	126
2.24200	126
2.24567	125
2.24933	126
2.25300	130
2.25667	134
2.26033	137
2.26400	139
2.26767	140
2.27133	140
2.27500	139
2.27867	139
2.28233	140
2.28600	141
2.28967	143
2.29333	146
2.29700	147
2.30067	150
2.30433	153
2.30800	154
2.31167	153
2.31533	153
2.31900	154
2.32267	156
2.32633	157
2.33000	160
2.33367	162
2.33733	159
2.34100	156
2.34467	157
2.34833	161
2.35200	163
2.35567	165
2.35933	166
2.36300	168
2.36667	170
2.37033	172
2.37400	175
2.37767	176
2.38133	179
2.38500	181
2.38867	179
2.39233	179
2.39600	182
2.39967	185
2.40333	189
2.40700	193
2.41067	197
2.41433	197
2.41800	199
2.42167	198
2.42533	199
2.42900	201
2.43267	203
2.43633	203
2.44000	207
2.44367	236
2.44733	308
2.45100	370
2.45467	408
2.45833	421
2.46200	400
2.46567	360
2.46933	319
2.47300	289
2.47667	273
2.48033	267
2.48400	261
2.48767	247
2.49133	222
2.49500	195
2.49867	169
2.50233	148
2.50600	135
2.50967	130
2.51333	129
2.51700	130
2.52067	135
2.52433	146
2.52800	161
2.53167	178
2.53533	192
2.53900	203
2.54267	209
2.54633	208
2.55000	199
2.55367	187
2.55733	175
2.56100	164
2.56467	155
2.56833	145
2.57200	137
2.57567	133
2.57933	132
2.58300	130
2.58667	129
2.59033	127
2.59400	125
2.59767	122
2.60133	117
2.60500	106
2.60867	91
2.61233	74
2.61600	58
2.61967	41
2.62333	27
2.62700	15
2.63067	7
2.63433	1
2.63800	2
2.64167	7
2.64533	13
2.64900	21
2.65267	32
2.65633	44
2.66000	57
2.66367	69
2.66733	80
2.67100	91
2.67467	101
2.67833	110
2.68200	119
2.68567	125
2.68933	128
2.69300	130
2.69667	130
2.70033	129
2.70400	127
2.70767	126
2.71133	126
2.71500	126
2.71867	125
2.72233	124
2.72600	125
2.72967	126
2.73333	127
2.73700	130
2.74067	133
2.74433	136
2.74800	139
2.75167	141
2.75533	143
2.75900	147
2.76267	151
2.76633	153
2.77000	154
2.77367	155
2.77733	158
2.78100	161
2.78467	166
2.78833	168
2.79200	171
2.79567	175
2.79933	178
2.80300	179
2.80667	179
2.81033	183
2.81400	188
2.81767	195
2.82133	211
2.82500	248
2.82867	323
2.83233	454
2.83600	663
2.83967	974
2.84333	1389
2.84700	1899
2.85067	2482
2.85433	3090
2.85800	3679
2.86167	4207
2.86533	4627
2.86900	4907
2.87267	5042
2.87633	5034
2.88000	4904
2.88367	4676
2.88733	4381
2.89100	4046
2.89467	3693
2.89833	3338
2.90200	2995
2.90567	2674
2.90933	2380
2.91300	2113
2.91667	1873
2.92033	1662
2.92400	1476
2.92767	1312
2.93133	1167
2.93500	1042
2.93867	934
2.94233	843
2.94600	760
2.94967	688
2.95333	630
2.95700	579
2.96067	534
2.96433	495
2.96800	462
2.97167	434
2.97533	409
2.97900	387
2.98267	369
2.98633	351
2.99000	335
2.99367	322
2.99733	310
3.00100	301
3.00467	292
3.00833	286
3.01200	280
3.01567	273
3.01933	268
3.02300	263
3.02667	257
3.03033	252
3.03400	248
3.03767	245
3.04133	243
3.04500	240
3.04867	237
3.05233	235
3.05600	232
3.05967	229
3.06333	227
3.06700	226
3.07067	227
3.07433	226
3.07800	223
3.08167	220
3.08533	215
3.08900	211
3.09267	208
3.09633	207
3.10000	206
3.10367	204
3.10733	204
3.11100	203
3.11467	204
3.11833	202
3.12200	200
3.12567	202
3.12933	201
3.13300	199
3.13667	199
3.14033	204
3.14400	205
3.14767	205
3.15133	204
3.15500	204
3.15867	204
3.16233	203
3.16600	204
3.16967	204
3.17333	205
3.17700	207
3.18067	206
3.18433	205
3.18800	204
3.19167	204
3.19533	203
3.19900	201
3.20267	202
3.20633	201
3.21000	201
3.21367	202
3.21733	204
3.22100	205
3.22467	205
3.22833	205
3.23200	204
3.23567	205
3.23933	206
3.24300	205
3.24667	205
3.25033	203
3.25400	202
3.25767	204
3.26133	206
3.26500	206
3.26867	208
3.27233	209
3.27600	210
3.27967	211
3.28333	211
3.28700	209
3.29067	207
3.29433	207
3.29800	207
3.30167	207
3.30533	206
3.30900	204
3.31267	197
3.31633	177
3.32000	138
3.32367	98
3.32733	76
3.33100	73
3.33467	89
3.33833	113
3.34200	141
3.34567	174
3.34933	211
3.35300	250
3.35667	290
3.36033	331
3.36400	370
3.36767	404
3.37133	435
3.37500	463
3.37867	487
3.38233	509
3.38600	528
3.38967	544
3.39333	558
3.39700	569
3.40067	581
3.40433	590
3.40800	598
3.41167	604
3.41533	609
3.41900	614
3.42267	619
3.42633	625
3.43000	631
3.43367	634
3.43733	638
3.44100	643
3.44467	646
3.44833	645
3.45200	644
3.45567	643
3.45933	644
3.46300	646
3.46667	650
3.47033	653
3.47400	653
3.47767	653
3.48133	654
3.48500	655
3.48867	654
3.49233	652
3.49600	651
3.49967	652
3.50333	652
3.50700	653
3.51067	652
3.51433	648
3.51800	644
3.52167	641
3.52533	640
3.52900	639
3.53267	637
3.53633	638
3.54000	639
3.54367	639
3.54733	639
3.55100	636
3.55467	635
3.55833	634
3.56200	632
3.56567	630
3.56933	628
3.57300	624
3.57667	620
3.58033	619
3.58400	620
3.58767	623
3.59133	623
3.59500	619
3.59867	615
3.60233	612
3.60600	608
3.60967	605
3.61333	603
3.61700	598
3.62067	592
3.62433	588
3.62800	586
3.63167	585
3.63533	585
3.63900	585
3.64267	584
3.64633	582
3.65000	579
3.65367	574
3.65733	571
3.66100	569
3.66467	566
3.66833	564
3.67200	562
3.67567	562
3.67933	558
3.68300	557
3.68667	557
3.69033	556
3.69400	554
3.69767	552
3.70133	554
3.70500	556
3.70867	557
3.71233	558
3.71600	555
3.71967	552
3.72333	548
3.72700	546
3.73067	544
3.73433	541
3.73800	538
3.74167	536
3.74533	535
3.74900	535
3.75267	535
3.75633	534
3.76000	533
3.76367	533
3.76733	532
3.77100	531
3.77467	529
3.77833	529
3.78200	527
3.78567	524
3.78933	522
3.79300	521
3.79667	519
3.80033	515
3.80400	511
3.80767	510
3.81133	513
3.81500	517
3.81867	517
3.82233	517
3.82600	515
3.82967	514
3.83333	511
3.83700	508
3.84067	507
3.84433	507
3.84800	506
3.85167	503
3.85533	501
3.85900	500
3.86267	500
3.86633	502
3.87000	504
3.87367	504
3.87733	504
3.88100	504
3.88467	503
3.88833	502
3.89200	500
3.89567	498
3.89933	497
3.90300	494
3.90667	492
3.91033	491
3.91400	489
3.91767	488
3.92133	488
3.92500	488
3.92867	486
3.93233	486
3.93600	486
3.93967	487
3.94333	487
3.94700	487
3.95067	487
3.95433	484
3.95800	483
3.96167	483
3.96533	480
3.96900	479
3.97267	478
3.97633	479
3.98000	479
3.98367	477
3.98733	476
3.99100	475
3.99467	472
3.99833	467

[Status Trace (Column Oven Temperature)]
Interval(msec)	1000
# of Points	240
Start Time(min)	0.004
End Time(min)	3.988
Intensity Units	
Intensity Multiplier	1
R.Time (min)	Intensity
0.00428	35.02
0.02095	35.01
0.03762	35.01
0.05428	35.00
0.07095	34.99
0.08762	34.99
0.10428	35.00
0.12095	35.01
0.13762	35.02
0.15428	35.02
0.17095	35.03
0.18762	35.04
0.20428	35.05
0.22095	35.04
0.23762	35.04
0.25428	35.03
0.27095	35.02
0.28762	35.00
0.30428	34.99
0.32095	34.99
0.33762	34.99
0.35428	35.00
0.37095	35.00
0.38762	34.99
0.40428	34.99
0.42095	34.99
0.43762	34.99
0.45428	34.99
0.47095	34.99
0.48762	34.99
0.50428	35.00
0.52095	34.99
0.53762	34.99
0.55428	34.99
0.57095	35.00
0.58762	34.99
0.60428	34.97
0.62095	34.97
0.63762	34.98
0.65428	35.00
0.67095	35.00
0.68762	34.99
0.70428	34.98
0.72095	34.99
0.73762	34.98
0.75428	35.00
0.77095	35.01
0.78762	35.01
0.80428	35.00
0.82095	34.99
0.83762	34.98
0.85428	34.98
0.87095	34.97
0.88762	34.97
0.90428	34.98
0.92095	34.98
0.93762	34.99
0.95428	34.98
0.97095	34.99
0.98762	35.00
1.00428	34.99
1.02095	35.00
1.03762	35.00
1.05428	34.99
1.07095	35.00
1.08762	35.01
1.10428	35.00
1.12095	35.00
1.13762	35.01
1.15428	35.00
1.17095	35.01
1.18762	35.00
1.20428	35.00
1.22095	35.00
1.23762	35.01
1.25428	35.02
1.27095	35.01
1.28762	34.99
1.30428	34.97
1.32095	34.96
1.33762	34.95
1.35428	34.95
1.37095	34.96
1.38762	34.97
1.40428	34.98
1.42095	34.97
1.43762	34.98
1.45428	34.97
1.47095	34.96
1.48762	34.97
1.50428	34.98
1.52095	35.00
1.53762	35.00
1.55428	35.02
1.57095	35.03
1.58762	35.02
1.60428	35.06
1.62095	35.17
1.63762	35.35
1.65428	35.58
1.67095	35.89
1.68762	36.25
1.70428	36.60
1.72095	36.93
1.73762	37.28
1.75428	37.61
1.77095	37.95
1.78762	38.29
1.80428	38.59
1.82095	38.88
1.83762	39.24
1.85428	39.56
1.87095	39.89
1.88762	40.22
1.90428	40.55
1.92095	40.88
1.93762	41.21
1.95428	41.54
1.97095	41.85
1.98762	42.19
2.00428	42.52
2.02095	42.85
2.03762	43.17
2.05428	43.50
2.07095	43.83
2.08762	44.17
2.10428	44.47
2.12095	44.79
2.13762	45.10
2.15428	45.43
2.17095	45.76
2.18762	46.10
2.20428	46.43
2.22095	46.76
2.23762	47.09
2.25428	47.41
2.27095	47.77
2.28762	48.10
2.30428	48.44
2.32095	48.78
2.33762	49.09
2.35428	49.38
2.37095	49.58
2.38762	49.67
2.40428	49.67
2.42095	49.67
2.43762	49.68
2.45428	49.69
2.47095	49.74
2.48762	49.75
2.50428	49.76
2.52095	49.78
2.53762	49.78
2.55428	49.80
2.57095	49.82
2.58762	49.82
2.60428	49.82
2.62095	49.83
2.63762	49.84
2.65428	49.84
2.67095	49.86
2.68762	49.87
2.70428	49.87
2.72095	49.85
2.73762	49.84
2.75428	49.86
2.77095	49.87
2.78762	49.88
2.80428	49.89
2.82095	49.88
2.83762	49.89
2.85428	49.88
2.87095	49.89
2.88762	49.91
2.90428	49.92
2.92095	49.94
2.93762	49.96
2.95428	49.98
2.97095	49.99
2.98762	49.98
3.00428	50.00
3.02095	50.02
3.03762	50.02
3.05428	50.03
3.07095	50.05
3.08762	50.05
3.10428	50.05
3.12095	50.06
3.13762	50.08
3.15428	50.09
3.17095	50.10
3.18762	50.10
3.20428	50.09
3.22095	50.08
3.23762	50.08
3.25428	50.08
3.27095	50.07
3.28762	50.06
3.30428	50.06
3.32095	50.06
3.33762	50.07
3.35428	50.07
3.37095	50.08
3.38762	50.09
3.40428	50.10
3.42095	50.09
3.43762	50.09
3.45428	50.08
3.47095	50.07
3.48762	50.07
3.50428	50.07
3.52095	50.08
3.53762	50.09
3.55428	50.09
3.57095	50.10
3.58762	50.09
3.60428	50.09
3.62095	50.10
3.63762	50.11
3.65428	50.11
3.67095	50.11
3.68762	50.10
3.70428	50.09
3.72095	50.08
3.73762	50.08
3.75428	50.07
3.77095	50.06
3.78762	50.05
3.80428	50.04
3.82095	50.03
3.83762	50.03
3.85428	50.03
3.87095	50.03
3.88762	50.02
3.90428	50.03
3.92095	50.04
3.93762	50.04
3.95428	50.04
3.97095	50.03
3.98762	50.02

[Status Trace (Injection Unit Temperature)]
Interval(msec)	1000
# of Points	240
Start Time(min)	0.004
End Time(min)	3.988
Intensity Units	
Intensity Multiplier	1
R.Time (min)	Intensity
0.00428	99.98
0.02095	99.97
0.03762	99.98
0.05428	99.98
0.07095	99.98
0.08762	99.98
0.10428	99.98
0.12095	99.98
0.13762	99.98
0.15428	99.98
0.17095	99.98
0.18762	99.98
0.20428	99.98
0.22095	99.98
0.23762	99.99
0.25428	99.98
0.27095	99.99
0.28762	99.99
0.30428	99.97
0.32095	99.99
0.33762	99.99
0.35428	99.99
0.37095	99.98
0.38762	99.99
0.40428	99.99
0.42095	99.99
0.43762	99.98
0.45428	99.99
0.47095	99.98
0.48762	99.99
0.50428	99.99
0.52095	99.98
0.53762	99.98
0.55428	99.99
0.57095	99.99
0.58762	99.99
0.60428	99.98
0.62095	99.98
0.63762	99.98
0.65428	99.99
0.67095	99.99
0.68762	99.98
0.70428	99.98
0.72095	99.99
0.73762	99.99
0.75428	99.98
0.77095	99.98
0.78762	99.99
0.80428	99.98
0.82095	99.98
0.83762	99.98
0.85428	99.98
0.87095	99.98
0.88762	99.98
0.90428	99.98
0.92095	99.99
0.93762	99.98
0.95428	99.97
0.97095	99.98
0.98762	99.98
1.00428	99.99
1.02095	99.98
1.03762	99.98
1.05428	99.98
1.07095	99.98
1.08762	99.98
1.10428	99.98
1.12095	99.98
1.13762	99.98
1.15428	99.98
1.17095	99.98
1.18762	99.97
1.20428	99.99
1.22095	99.99
1.23762	99.98
1.25428	99.98
1.27095	99.98
1.28762	99.98
1.30428	99.98
1.32095	99.98
1.33762	99.99
1.35428	99.98
1.37095	99.98
1.38762	99.98
1.40428	99.99
1.42095	99.98
1.43762	99.98
1.45428	99.98
1.47095	99.98
1.48762	99.98
1.50428	99.98
1.52095	99.99
1.53762	99.98
1.55428	99.99
1.57095	99.99
1.58762	99.99
1.60428	99.98
1.62095	99.98
1.63762	99.98
1.65428	99.98
1.67095	99.98
1.68762	99.98
1.70428	99.99
1.72095	99.99
1.73762	99.98
1.75428	99.99
1.77095	99.99
1.78762	99.98
1.80428	99.98
1.82095	99.98
1.83762	99.98
1.85428	99.98
1.87095	99.98
1.88762	99.98
1.90428	99.98
1.92095	99.98
1.93762	99.98
1.95428	99.98
1.97095	99.98
1.98762	99.98
2.00428	99.98
2.02095	99.98
2.03762	99.98
2.05428	99.98
2.07095	99.98
2.08762	99.97
2.10428	99.98
2.12095	99.98
2.13762	99.97
2.15428	99.97
2.17095	99.97
2.18762	99.97
2.20428	99.97
2.22095	99.97
2.23762	99.97
2.25428	99.97
2.27095	99.96
2.28762	99.96
2.30428	99.96
2.32095	99.96
2.33762	99.96
2.35428	99.96
2.37095	99.96
2.38762	99.96
2.40428	99.96
2.42095	99.96
2.43762	99.96
2.45428	99.96
2.47095	99.96
2.48762	99.96
2.50428	99.96
2.52095	99.96
2.53762	99.96
2.55428	99.96
2.57095	99.96
2.58762	99.97
2.60428	99.96
2.62095	99.96
2.63762	99.97
2.65428	99.97
2.67095	99.97
2.68762	99.97
2.70428	99.97
2.72095	99.97
2.73762	99.98
2.75428	99.98
2.77095	99.98
2.78762	99.98
2.80428	99.99
2.82095	99.99
2.83762	99.98
2.85428	99.99
2.87095	99.99
2.88762	99.99
2.90428	99.99
2.92095	100.00
2.93762	100.00
2.95428	100.00
2.97095	100.01
2.98762	100.00
3.00428	100.01
3.02095	100.00
3.03762	100.01
3.05428	100.01
3.07095	100.01
3.08762	100.01
3.10428	100.02
3.12095	100.02
3.13762	100.01
3.15428	100.01
3.17095	100.02
3.18762	100.02
3.20428	100.01
3.22095	100.02
3.23762	100.02
3.25428	100.02
3.27095	100.01
3.28762	100.02
3.30428	100.02
3.32095	100.02
3.33762	100.02
3.35428	100.03
3.37095	100.02
3.38762	100.02
3.40428	100.03
3.42095	100.02
3.43762	100.03
3.45428	100.03
3.47095	100.02
3.48762	100.03
3.50428	100.03
3.52095	100.03
3.53762	100.03
3.55428	100.03
3.57095	100.03
3.58762	100.04
3.60428	100.04
3.62095	100.04
3.63762	100.04
3.65428	100.04
3.67095	100.04
3.68762	100.04
3.70428	100.04
3.72095	100.04
3.73762	100.04
3.75428	100.04
3.77095	100.04
3.78762	100.04
3.80428	100.04
3.82095	100.04
3.83762	100.05
3.85428	100.05
3.87095	100.05
3.88762	100.04
3.90428	100.04
3.92095	100.04
3.93762	100.04
3.95428	100.05
3.97095	100.05
3.98762	100.03

[Status Trace (Carrier Gas Pressure)]
Interval(msec)	1000
# of Points	240
Start Time(min)	0.004
End Time(min)	3.988
Intensity Units	
Intensity Multiplier	1
R.Time (min)	Intensity
0.00428	58.00
0.02095	55.87
0.03762	56.55
0.05428	58.80
0.07095	59.75
0.08762	58.21
0.10428	57.97
0.12095	58.01
0.13762	58.01
0.15428	58.01
0.17095	58.00
0.18762	58.00
0.20428	58.00
0.22095	58.00
0.23762	58.00
0.25428	58.00
0.27095	58.00
0.28762	58.00
0.30428	58.00
0.32095	58.00
0.33762	58.00
0.35428	58.00
0.37095	58.00
0.38762	58.00
0.40428	58.00
0.42095	58.00
0.43762	58.00
0.45428	58.00
0.47095	58.00
0.48762	58.00
0.50428	58.00
0.52095	58.00
0.53762	58.00
0.55428	58.00
0.57095	58.00
0.58762	58.00
0.60428	58.00
0.62095	58.00
0.63762	58.00
0.65428	58.00
0.67095	58.00
0.68762	58.00
0.70428	58.00
0.72095	58.00
0.73762	58.00
0.75428	58.00
0.77095	58.00
0.78762	58.00
0.80428	58.00
0.82095	58.00
0.83762	58.00
0.85428	58.00
0.87095	58.00
0.88762	58.00
0.90428	58.00
0.92095	58.00
0.93762	58.00
0.95428	58.00
0.97095	58.00
0.98762	58.00
1.00428	58.00
1.02095	58.00
1.03762	58.00
1.05428	58.00
1.07095	58.00
1.08762	58.00
1.10428	58.00
1.12095	58.00
1.13762	58.00
1.15428	58.00
1.17095	58.00
1.18762	58.00
1.20428	58.00
1.22095	58.00
1.23762	58.00
1.25428	58.00
1.27095	58.00
1.28762	58.00
1.30428	58.00
1.32095	58.00
1.33762	58.00
1.35428	58.00
1.37095	58.00
1.38762	58.00
1.40428	58.00
1.42095	58.00
1.43762	58.00
1.45428	58.00
1.47095	58.00
1.48762	58.00
1.50428	58.00
1.52095	58.00
1.53762	58.00
1.55428	58.00
1.57095	58.00
1.58762	58.00
1.60428	58.00
1.62095	58.00
1.63762	58.01
1.65428	58.00
1.67095	58.01
1.68762	58.01
1.70428	58.00
1.72095	58.00
1.73762	58.00
1.75428	58.00
1.77095	58.00
1.78762	58.00
1.80428	58.00
1.82095	58.00
1.83762	58.00
1.85428	58.00
1.87095	58.00
1.88762	58.00
1.90428	58.00
1.92095	58.00
1.93762	58.00
1.95428	58.00
1.97095	58.00
1.98762	58.00
2.00428	58.00
2.02095	58.00
2.03762	58.00
2.05428	58.00
2.07095	58.00
2.08762	58.00
2.10428	58.00
2.12095	58.00
2.13762	58.00
2.15428	58.00
2.17095	58.00
2.18762	58.00
2.20428	58.00
2.22095	58.00
2.23762	58.00
2.25428	58.00
2.27095	58.00
2.28762	58.00
2.30428	58.00
2.32095	58.00
2.33762	58.00
2.35428	58.00
2.37095	58.00
2.38762	57.99
2.40428	57.99
2.42095	58.00
2.43762	58.00
2.45428	58.00
2.47095	58.00
2.48762	58.00
2.50428	57.98
2.52095	57.99
2.53762	58.00
2.55428	58.00
2.57095	58.00
2.58762	58.00
2.60428	58.00
2.62095	58.00
2.63762	58.00
2.65428	58.00
2.67095	58.00
2.68762	58.00
2.70428	58.00
2.72095	58.00
2.73762	58.00
2.75428	58.00
2.77095	58.00
2.78762	58.00
2.80428	58.00
2.82095	58.00
2.83762	58.00
2.85428	58.00
2.87095	58.00
2.88762	58.00
2.90428	58.00
2.92095	58.00
2.93762	58.00
2.95428	58.00
2.97095	58.00
2.98762	58.00
3.00428	58.00
3.02095	58.00
3.03762	58.00
3.05428	58.00
3.07095	58.00
3.08762	58.00
3.10428	58.00
3.12095	58.00
3.13762	58.00
3.15428	58.00
3.17095	58.00
3.18762	58.00
3.20428	58.00
3.22095	58.00
3.23762	58.00
3.25428	58.00
3.27095	58.00
3.28762	58.00
3.30428	58.00
3.32095	58.00
3.33762	58.00
3.35428	58.00
3.37095	58.00
3.38762	58.00
3.40428	58.00
3.42095	58.00
3.43762	58.00
3.45428	58.00
3.47095	58.00
3.48762	58.00
3.50428	58.00
3.52095	58.00
3.53762	58.00
3.55428	58.00
3.57095	58.00
3.58762	58.00
3.60428	58.00
3.62095	58.00
3.63762	58.00
3.65428	58.00
3.67095	58.00
3.68762	58.00
3.70428	58.00
3.72095	58.00
3.73762	58.00
3.75428	58.00
3.77095	58.00
3.78762	58.00
3.80428	58.00
3.82095	58.00
3.83762	58.00
3.85428	58.00
3.87095	58.00
3.88762	58.00
3.90428	58.00
3.92095	58.00
3.93762	58.00
3.95428	58.00
3.97095	58.00
3.98762	58.00

[Status Trace (Carrier Gas Flow)]
Interval(msec)	1000
# of Points	240
Start Time(min)	0.004
End Time(min)	3.988
Intensity Units	
Intensity Multiplier	1
R.Time (min)	Intensity
0.00428	34.52
0.02095	34.56
0.03762	34.54
0.05428	34.55
0.07095	34.49
0.08762	34.52
0.10428	34.52
0.12095	34.52
0.13762	34.52
0.15428	34.52
0.17095	34.52
0.18762	34.51
0.20428	34.51
0.22095	34.52
0.23762	34.52
0.25428	34.52
0.27095	34.52
0.28762	34.51
0.30428	34.52
0.32095	34.51
0.33762	34.52
0.35428	34.51
0.37095	34.52
0.38762	34.51
0.40428	34.52
0.42095	34.52
0.43762	34.51
0.45428	34.51
0.47095	34.52
0.48762	34.52
0.50428	34.52
0.52095	34.51
0.53762	34.52
0.55428	34.52
0.57095	34.51
0.58762	34.51
0.60428	34.52
0.62095	34.52
0.63762	34.52
0.65428	34.52
0.67095	34.52
0.68762	34.52
0.70428	34.52
0.72095	34.52
0.73762	34.51
0.75428	34.52
0.77095	34.52
0.78762	34.52
0.80428	34.51
0.82095	34.52
0.83762	34.52
0.85428	34.52
0.87095	34.52
0.88762	34.52
0.90428	34.52
0.92095	34.51
0.93762	34.52
0.95428	34.52
0.97095	34.51
0.98762	34.52
1.00428	34.52
1.02095	34.52
1.03762	34.52
1.05428	34.52
1.07095	34.52
1.08762	34.52
1.10428	34.51
1.12095	34.52
1.13762	34.52
1.15428	34.52
1.17095	34.52
1.18762	34.52
1.20428	34.52
1.22095	34.52
1.23762	34.52
1.25428	34.52
1.27095	34.52
1.28762	34.52
1.30428	34.52
1.32095	34.52
1.33762	34.51
1.35428	34.52
1.37095	34.51
1.38762	34.53
1.40428	34.52
1.42095	34.52
1.43762	34.53
1.45428	34.52
1.47095	34.52
1.48762	34.52
1.50428	34.53
1.52095	34.52
1.53762	34.52
1.55428	34.52
1.57095	34.52
1.58762	34.52
1.60428	34.52
1.62095	34.52
1.63762	34.51
1.65428	34.51
1.67095	34.52
1.68762	34.52
1.70428	34.52
1.72095	34.52
1.73762	34.52
1.75428	34.51
1.77095	34.52
1.78762	34.52
1.80428	34.52
1.82095	34.52
1.83762	34.52
1.85428	34.52
1.87095	34.51
1.88762	34.52
1.90428	34.52
1.92095	34.52
1.93762	34.52
1.95428	34.52
1.97095	34.52
1.98762	34.52
2.00428	34.52
2.02095	34.52
2.03762	34.52
2.05428	34.52
2.07095	34.52
2.08762	34.52
2.10428	34.53
2.12095	34.52
2.13762	34.52
2.15428	34.51
2.17095	34.52
2.18762	34.52
2.20428	34.52
2.22095	34.52
2.23762	34.52
2.25428	34.52
2.27095	34.52
2.28762	34.52
2.30428	34.52
2.32095	34.52
2.33762	34.51
2.35428	34.52
2.37095	34.52
2.38762	34.55
2.40428	34.52
2.42095	34.52
2.43762	34.52
2.45428	34.52
2.47095	34.52
2.48762	34.52
2.50428	34.58
2.52095	34.52
2.53762	34.52
2.55428	34.52
2.57095	34.52
2.58762	34.52
2.60428	34.52
2.62095	34.52
2.63762	34.52
2.65428	34.52
2.67095	34.52
2.68762	34.51
2.70428	34.51
2.72095	34.53
2.73762	34.52
2.75428	34.51
2.77095	34.52
2.78762	34.51
2.80428	34.52
2.82095	34.52
2.83762	34.52
2.85428	34.52
2.87095	34.52
2.88762	34.52
2.90428	34.52
2.92095	34.52
2.93762	34.52
2.95428	34.52
2.97095	34.52
2.98762	34.51
3.00428	34.52
3.02095	34.51
3.03762	34.52
3.05428	34.53
3.07095	34.53
3.08762	34.53
3.10428	34.52
3.12095	34.52
3.13762	34.51
3.15428	34.52
3.17095	34.52
3.18762	34.52
3.20428	34.52
3.22095	34.51
3.23762	34.52
3.25428	34.52
3.27095	34.52
3.28762	34.51
3.30428	34.52
3.32095	34.52
3.33762	34.52
3.35428	34.53
3.37095	34.51
3.38762	34.52
3.40428	34.52
3.42095	34.52
3.43762	34.52
3.45428	34.51
3.47095	34.53
3.48762	34.52
3.50428	34.52
3.52095	34.52
3.53762	34.52
3.55428	34.52
3.57095	34.52
3.58762	34.52
3.60428	34.52
3.62095	34.52
3.63762	34.52
3.65428	34.51
3.67095	34.52
3.68762	34.52
3.70428	34.52
3.72095	34.52
3.73762	34.52
3.75428	34.52
3.77095	34.52
3.78762	34.52
3.80428	34.52
3.82095	34.52
3.83762	34.52
3.85428	34.52
3.87095	34.52
3.88762	34.52
3.90428	34.51
3.92095	34.51
3.93762	34.52
3.95428	34.52
3.97095	34.53
3.98762	34.52

[Status Trace (Column Flow)]
Interval(msec)	1000
# of Points	240
Start Time(min)	0.004
End Time(min)	3.988
Intensity Units	
Intensity Multiplier	1
R.Time (min)	Intensity
0.00428	5.57
0.02095	5.32
0.03762	5.40
0.05428	5.67
0.07095	5.78
0.08762	5.60
0.10428	5.57
0.12095	5.57
0.13762	5.57
0.15428	5.57
0.17095	5.57
0.18762	5.57
0.20428	5.57
0.22095	5.57
0.23762	5.57
0.25428	5.57
0.27095	5.57
0.28762	5.57
0.30428	5.57
0.32095	5.57
0.33762	5.57
0.35428	5.57
0.37095	5.57
0.38762	5.57
0.40428	5.57
0.42095	5.57
0.43762	5.57
0.45428	5.57
0.47095	5.57
0.48762	5.57
0.50428	5.57
0.52095	5.57
0.53762	5.57
0.55428	5.57
0.57095	5.57
0.58762	5.57
0.60428	5.57
0.62095	5.57
0.63762	5.57
0.65428	5.57
0.67095	5.57
0.68762	5.57
0.70428	5.57
0.72095	5.57
0.73762	5.57
0.75428	5.57
0.77095	5.57
0.78762	5.57
0.80428	5.57
0.82095	5.57
0.83762	5.57
0.85428	5.57
0.87095	5.57
0.88762	5.57
0.90428	5.57
0.92095	5.57
0.93762	5.57
0.95428	5.57
0.97095	5.57
0.98762	5.57
1.00428	5.57
1.02095	5.57
1.03762	5.57
1.05428	5.57
1.07095	5.57
1.08762	5.57
1.10428	5.57
1.12095	5.57
1.13762	5.57
1.15428	5.57
1.17095	5.57
1.18762	5.57
1.20428	5.57
1.22095	5.57
1.23762	5.57
1.25428	5.57
1.27095	5.57
1.28762	5.57
1.30428	5.57
1.32095	5.57
1.33762	5.57
1.35428	5.57
1.37095	5.57
1.38762	5.57
1.40428	5.57
1.42095	5.57
1.43762	5.57
1.45428	5.57
1.47095	5.57
1.48762	5.57
1.50428	5.57
1.52095	5.57
1.53762	5.57
1.55428	5.57
1.57095	5.57
1.58762	5.57
1.60428	5.57
1.62095	5.57
1.63762	5.56
1.65428	5.55
1.67095	5.54
1.68762	5.53
1.70428	5.52
1.72095	5.51
1.73762	5.50
1.75428	5.49
1.77095	5.48
1.78762	5.47
1.80428	5.46
1.82095	5.45
1.83762	5.44
1.85428	5.43
1.87095	5.42
1.88762	5.41
1.90428	5.40
1.92095	5.39
1.93762	5.38
1.95428	5.37
1.97095	5.36
1.98762	5.35
2.00428	5.34
2.02095	5.33
2.03762	5.32
2.05428	5.31
2.07095	5.30
2.08762	5.29
2.10428	5.28
2.12095	5.27
2.13762	5.27
2.15428	5.26
2.17095	5.25
2.18762	5.24
2.20428	5.23
2.22095	5.22
2.23762	5.21
2.25428	5.20
2.27095	5.19
2.28762	5.18
2.30428	5.17
2.32095	5.16
2.33762	5.15
2.35428	5.14
2.37095	5.14
2.38762	5.13
2.40428	5.13
2.42095	5.13
2.43762	5.13
2.45428	5.13
2.47095	5.13
2.48762	5.13
2.50428	5.13
2.52095	5.13
2.53762	5.13
2.55428	5.13
2.57095	5.13
2.58762	5.13
2.60428	5.13
2.62095	5.13
2.63762	5.13
2.65428	5.13
2.67095	5.13
2.68762	5.13
2.70428	5.13
2.72095	5.13
2.73762	5.13
2.75428	5.13
2.77095	5.13
2.78762	5.13
2.80428	5.13
2.82095	5.13
2.83762	5.13
2.85428	5.13
2.87095	5.13
2.88762	5.13
2.90428	5.13
2.92095	5.13
2.93762	5.13
2.95428	5.13
2.97095	5.13
2.98762	5.13
3.00428	5.13
3.02095	5.12
3.03762	5.12
3.05428	5.12
3.07095	5.12
3.08762	5.12
3.10428	5.12
3.12095	5.12
3.13762	5.12
3.15428	5.12
3.17095	5.12
3.18762	5.12
3.20428	5.12
3.22095	5.12
3.23762	5.12
3.25428	5.12
3.27095	5.12
3.28762	5.12
3.30428	5.12
3.32095	5.12
3.33762	5.12
3.35428	5.12
3.37095	5.12
3.38762	5.12
3.40428	5.12
3.42095	5.12
3.43762	5.12
3.45428	5.12
3.47095	5.12
3.48762	5.12
3.50428	5.12
3.52095	5.12
3.53762	5.12
3.55428	5.12
3.57095	5.12
3.58762	5.12
3.60428	5.12
3.62095	5.12
3.63762	5.12
3.65428	5.12
3.67095	5.12
3.68762	5.12
3.70428	5.12
3.72095	5.12
3.73762	5.12
3.75428	5.12
3.77095	5.12
3.78762	5.12
3.80428	5.12
3.82095	5.12
3.83762	5.12
3.85428	5.12
3.87095	5.12
3.88762	5.12
3.90428	5.12
3.92095	5.12
3.93762	5.12
3.95428	5.12
3.97095	5.12
3.98762	5.12

[Status Trace (Linear Velocity)]
Interval(msec)	1000
# of Points	240
Start Time(min)	0.004
End Time(min)	3.988
Intensity Units	
Intensity Multiplier	1
R.Time (min)	Intensity
0.00428	39.03
0.02095	37.63
0.03762	38.08
0.05428	39.55
0.07095	40.18
0.08762	39.17
0.10428	39.01
0.12095	39.03
0.13762	39.03
0.15428	39.03
0.17095	39.03
0.18762	39.03
0.20428	39.03
0.22095	39.02
0.23762	39.03
0.25428	39.03
0.27095	39.03
0.28762	39.03
0.30428	39.03
0.32095	39.03
0.33762	39.03
0.35428	39.03
0.37095	39.03
0.38762	39.03
0.40428	39.03
0.42095	39.03
0.43762	39.03
0.45428	39.03
0.47095	39.03
0.48762	39.03
0.50428	39.03
0.52095	39.03
0.53762	39.03
0.55428	39.03
0.57095	39.03
0.58762	39.03
0.60428	39.03
0.62095	39.03
0.63762	39.03
0.65428	39.03
0.67095	39.03
0.68762	39.03
0.70428	39.03
0.72095	39.03
0.73762	39.03
0.75428	39.03
0.77095	39.03
0.78762	39.03
0.80428	39.03
0.82095	39.03
0.83762	39.03
0.85428	39.03
0.87095	39.03
0.88762	39.03
0.90428	39.03
0.92095	39.03
0.93762	39.03
0.95428	39.03
0.97095	39.03
0.98762	39.03
1.00428	39.03
1.02095	39.03
1.03762	39.03
1.05428	39.03
1.07095	39.03
1.08762	39.03
1.10428	39.03
1.12095	39.03
1.13762	39.03
1.15428	39.03
1.17095	39.03
1.18762	39.03
1.20428	39.03
1.22095	39.03
1.23762	39.03
1.25428	39.03
1.27095	39.03
1.28762	39.03
1.30428	39.03
1.32095	39.03
1.33762	39.03
1.35428	39.03
1.37095	39.03
1.38762	39.03
1.40428	39.03
1.42095	39.03
1.43762	39.03
1.45428	39.03
1.47095	39.03
1.48762	39.03
1.50428	39.03
1.52095	39.03
1.53762	39.03
1.55428	39.03
1.57095	39.03
1.58762	39.03
1.60428	39.02
1.62095	39.02
1.63762	39.00
1.65428	38.98
1.67095	38.95
1.68762	38.91
1.70428	38.88
1.72095	38.84
1.73762	38.81
1.75428	38.78
1.77095	38.75
1.78762	38.72
1.80428	38.68
1.82095	38.66
1.83762	38.63
1.85428	38.59
1.87095	38.56
1.88762	38.54
1.90428	38.50
1.92095	38.47
1.93762	38.44
1.95428	38.41
1.97095	38.38
1.98762	38.35
2.00428	38.32
2.02095	38.29
2.03762	38.26
2.05428	38.23
2.07095	38.20
2.08762	38.17
2.10428	38.14
2.12095	38.11
2.13762	38.09
2.15428	38.05
2.17095	38.02
2.18762	38.00
2.20428	37.96
2.22095	37.93
2.23762	37.91
2.25428	37.87
2.27095	37.84
2.28762	37.82
2.30428	37.78
2.32095	37.75
2.33762	37.73
2.35428	37.70
2.37095	37.68
2.38762	37.67
2.40428	37.67
2.42095	37.67
2.43762	37.67
2.45428	37.67
2.47095	37.67
2.48762	37.66
2.50428	37.66
2.52095	37.66
2.53762	37.66
2.55428	37.66
2.57095	37.66
2.58762	37.66
2.60428	37.66
2.62095	37.66
2.63762	37.66
2.65428	37.66
2.67095	37.66
2.68762	37.66
2.70428	37.66
2.72095	37.66
2.73762	37.66
2.75428	37.66
2.77095	37.66
2.78762	37.65
2.80428	37.65
2.82095	37.65
2.83762	37.65
2.85428	37.65
2.87095	37.65
2.88762	37.65
2.90428	37.65
2.92095	37.65
2.93762	37.65
2.95428	37.65
2.97095	37.64
2.98762	37.65
3.00428	37.64
3.02095	37.64
3.03762	37.64
3.05428	37.64
3.07095	37.64
3.08762	37.64
3.10428	37.64
3.12095	37.64
3.13762	37.64
3.15428	37.64
3.17095	37.63
3.18762	37.63
3.20428	37.64
3.22095	37.64
3.23762	37.64
3.25428	37.64
3.27095	37.64
3.28762	37.64
3.30428	37.64
3.32095	37.64
3.33762	37.64
3.35428	37.64
3.37095	37.64
3.38762	37.64
3.40428	37.64
3.42095	37.64
3.43762	37.64
3.45428	37.64
3.47095	37.64
3.48762	37.64
3.50428	37.64
3.52095	37.64
3.53762	37.64
3.55428	37.64
3.57095	37.64
3.58762	37.64
3.60428	37.64
3.62095	37.64
3.63762	37.63
3.65428	37.63
3.67095	37.63
3.68762	37.63
3.70428	37.64
3.72095	37.64
3.73762	37.64
3.75428	37.64
3.77095	37.64
3.78762	37.64
3.80428	37.64
3.82095	37.64
3.83762	37.64
3.85428	37.64
3.87095	37.64
3.88762	37.64
3.90428	37.64
3.92095	37.64
3.93762	37.64
3.95428	37.64
3.97095	37.64
3.98762	37.64

