[Header]
Application Name	LabSolutions
Version	5.110
Data File Name	C:\Users\User\Desktop\GC Analyses\Jack\Nachusa Grasslands Sampling\T1 Timepoint July 12th\T1_07122022_035.gcd
Output Date	3/14/2023
Output Time	3:40:59 PM

[File Information]
Type	Data File
Generated	3/8/2023 5:04:00 PM
Generated by	System Administrator
Modified	3/8/2023 5:10:48 PM
Modified by	System Administrator

[Sample Information]
Operator Name	System Administrator
Acquired	3/8/2023 5:06:47 PM
Sample Type	0:Unknown
Level	0
Sample Name	035
Sample ID	035
ISTD Amount1	1
ISTD Amount2	1
ISTD Amount3	1
ISTD Amount4	1
ISTD Amount5	1
ISTD Amount6	1
ISTD Amount7	1
ISTD Amount8	1
ISTD Amount9	1
ISTD Amount10	1
ISTD Amount11	1
ISTD Amount12	1
ISTD Amount13	1
ISTD Amount14	1
ISTD Amount15	1
ISTD Amount16	1
ISTD Amount17	1
ISTD Amount18	1
ISTD Amount19	1
ISTD Amount20	1
ISTD Amount21	1
ISTD Amount22	1
ISTD Amount23	1
ISTD Amount24	1
ISTD Amount25	1
ISTD Amount26	1
ISTD Amount27	1
ISTD Amount28	1
ISTD Amount29	1
ISTD Amount30	1
ISTD Amount31	1
ISTD Amount32	1
Sample Amount	1
Dilution Factor	1
Vial#	34
Injection Volume	1
Injection Count	1
Bar Code	

[Original Files]
Data File	C:\Users\User\Desktop\GC Analyses\Jack\Nachusa Grasslands Sampling\T1 Timepoint July 12th\T1_07122022_035.gcd
Method File	C:\LabSolutions\Data\GHG_4min_2022\ghg3_togas_w_acet_4 min_new_int.gcm
Batch File	C:\LabSolutions\Data\AutoSamplerTesting\T1_07122022.gcb
Report Format File	c:\LabSolutions\System\DEFAULT.lsr

[File Description]


[Configuration]
Instrument Name	C0B7VH3-Instrument1
Instrument #	1
Line #	1
# of Detectors	3
Detector ID	DET#1	DET#2	DET#3
Detector Name	FID	PTCD	ECD
# of Channels	1	1	1

[Peak Table(Ch1)]
# of Peaks	3
Peak#	R.Time	I.Time	F.Time	Area	Height	A/H	Conc.	Mark	ID#	Name	k'	Plate #	Plate Ht.	Tailing	Resolution	Sep.Factor	Area Ratio	Height Ratio	Conc. %	Norm Conc.
1	1.465	1.432	1.531	2682	747	3.591	18.933	   	1	CO	0.000	4256	35.241	0.000	0.000	0.000	0	0	2.013	2.013
2	1.567	1.531	1.641	20466	10235	2.000	395.732	 V 	2	CH4	0.070	11253	13.330	1.254	1.379	0.000	0	0	42.069	42.069
3	1.996	1.949	2.576	2095898	988312	2.121	526.014	   	3	CO2	0.363	17155	8.744	1.302	7.146	5.179	0	0	55.919	55.919

[Peak Table(Ch2)]
# of Peaks	0

[Peak Table(Ch3)]
# of Peaks	6
Peak#	R.Time	I.Time	F.Time	Area	Height	A/H	Conc.	Mark	ID#	Name	k'	Plate #	Plate Ht.	Tailing	Resolution	Sep.Factor	Area Ratio	Height Ratio	Conc. %	Norm Conc.
1	0.830	0.566	1.300	462	20	22.647	0.000	   			0.000	14	10998.663	1.378	0.000	0.000	0	0	0.000	0.000
2	2.462	2.143	2.517	2649	495	5.351	0.000	   			1.965	6619	22.663	0.000	3.198	0.000	0	0	0.000	0.000
3	2.543	2.517	2.631	1305	296	4.414	0.000	 V 			2.062	2480	60.485	0.000	0.496	1.049	0	0	0.000	0.000
4	2.686	2.645	2.737	361	86	4.200	0.000	   			2.234	2576	58.224	0.000	0.688	1.084	0	0	0.000	0.000
5	2.873	2.737	3.082	61491	15627	3.935	1.571	 V 	1	N2O	2.460	12543	11.959	1.654	1.190	1.101	0	0	100.000	100.000
6	3.232	3.089	3.995	14167	490	28.906	0.000	   	2	SF6	2.892	322	466.335	3.155	0.873	1.176	0	0	0.000	0.000

[Compound Results(Ch1)]
# of IDs	6
ID#	Name	R.Time	Area	Height	Conc.	Curve	3rd	2nd	1st	Constant	Area Ratio	Height Ratio	Conc. %	Norm Conc.
1	CO	1.465	2682	747	18.933	Linear	0.000000e+00	0.000000e+00	1.416423e+002	0.000000e+00	0	0	2.013	2.013
2	CH4	1.567	20466	10235	395.732	Linear	0.000000e+00	0.000000e+00	5.171738e+001	0.000000e+00	0	0	42.069	42.069
3	CO2	1.996	2095898	988312	526.014	Linear	0.000000e+00	0.000000e+00	3.984494e+003	0.000000e+00	0	0	55.919	55.919
4	Ethylene	0.000	0	0	0.000	Linear	0.000000e+00	0.000000e+00	0.000000e+00	0.000000e+00	0	0	0.000	0.000
5	Acetylene	0.000	0	0	0.000	Linear	0.000000e+00	0.000000e+00	0.000000e+00	0.000000e+00	0	0	0.000	0.000
6	Ethane	0.000	0	0	0.000	Linear	0.000000e+00	0.000000e+00	0.000000e+00	0.000000e+00	0	0	0.000	0.000

[Compound Results(Ch2)]
# of IDs	5
ID#	Name	R.Time	Area	Height	Conc.	Curve	3rd	2nd	1st	Constant	Area Ratio	Height Ratio	Conc. %	Norm Conc.
1	Hydrogen	0.000	0	0	0.000	Linear	0.000000e+00	0.000000e+00	0.000000e+00	0.000000e+00	0	0	0.000	0.000
2	Oxygen	0.000	0	0	0.000	Linear	0.000000e+00	0.000000e+00	0.000000e+00	0.000000e+00	0	0	0.000	0.000
3	Nitrogen	0.000	0	0	0.000	Linear	0.000000e+00	0.000000e+00	0.000000e+00	0.000000e+00	0	0	0.000	0.000
4	Methane	0.000	0	0	0.000	Linear	0.000000e+00	0.000000e+00	0.000000e+00	0.000000e+00	0	0	0.000	0.000
5	Carbon Monoxide	0.000	0	0	0.000	Linear	0.000000e+00	0.000000e+00	0.000000e+00	0.000000e+00	0	0	0.000	0.000

[Compound Results(Ch3)]
# of IDs	2
ID#	Name	R.Time	Area	Height	Conc.	Curve	3rd	2nd	1st	Constant	Area Ratio	Height Ratio	Conc. %	Norm Conc.
1	N2O	2.873	61491	15627	1.571	Linear	0.000000e+00	0.000000e+00	3.915173e+004	0.000000e+00	0	0	100.000	100.000
2	SF6	3.232	14167	490	0.000	Linear	0.000000e+00	0.000000e+00	0.000000e+00	0.000000e+00	0	0	0.000	0.000

[Group Results(Ch1)]
# of Groups	0

[Group Results(Ch2)]
# of Groups	0

[Group Results(Ch3)]
# of Groups	0

[Chromatogram (Ch1)]
Interval(msec)	220
# of Points	1091
Start Time(min)	0.002
End Time(min)	3.998
R.Time (min)	Intensity
0.00167	-16
0.00533	-19
0.00900	-19
0.01267	-14
0.01633	-7
0.02000	-4
0.02367	-10
0.02733	-17
0.03100	-21
0.03467	-22
0.03833	-22
0.04200	-23
0.04567	-22
0.04933	-20
0.05300	-22
0.05667	-29
0.06033	-33
0.06400	-39
0.06767	-44
0.07133	-44
0.07500	-35
0.07867	-24
0.08233	-18
0.08600	-15
0.08967	-13
0.09333	-9
0.09700	-2
0.10067	7
0.10433	17
0.10800	25
0.11167	31
0.11533	37
0.11900	43
0.12267	52
0.12633	62
0.13000	68
0.13367	69
0.13733	69
0.14100	66
0.14467	66
0.14833	65
0.15200	61
0.15567	60
0.15933	61
0.16300	65
0.16667	70
0.17033	76
0.17400	80
0.17767	79
0.18133	71
0.18500	65
0.18867	64
0.19233	64
0.19600	63
0.19967	61
0.20333	59
0.20700	59
0.21067	57
0.21433	54
0.21800	49
0.22167	48
0.22533	51
0.22900	49
0.23267	45
0.23633	41
0.24000	37
0.24367	31
0.24733	26
0.25100	22
0.25467	22
0.25833	22
0.26200	17
0.26567	11
0.26933	7
0.27300	6
0.27667	9
0.28033	12
0.28400	15
0.28767	21
0.29133	22
0.29500	14
0.29867	3
0.30233	-9
0.30600	-18
0.30967	-26
0.31333	-30
0.31700	-29
0.32067	-24
0.32433	-16
0.32800	-8
0.33167	-3
0.33533	1
0.33900	5
0.34267	9
0.34633	11
0.35000	10
0.35367	5
0.35733	0
0.36100	-2
0.36467	-3
0.36833	-1
0.37200	4
0.37567	13
0.37933	20
0.38300	18
0.38667	9
0.39033	0
0.39400	-7
0.39767	-13
0.40133	-18
0.40500	-19
0.40867	-16
0.41233	-12
0.41600	-14
0.41967	-21
0.42333	-27
0.42700	-30
0.43067	-29
0.43433	-20
0.43800	-5
0.44167	7
0.44533	6
0.44900	-2
0.45267	-13
0.45633	-21
0.46000	-25
0.46367	-28
0.46733	-26
0.47100	-21
0.47467	-13
0.47833	-6
0.48200	-5
0.48567	-9
0.48933	-14
0.49300	-17
0.49667	-18
0.50033	-18
0.50400	-14
0.50767	-11
0.51133	-8
0.51500	-5
0.51867	-1
0.52233	0
0.52600	-0
0.52967	-3
0.53333	-6
0.53700	-9
0.54067	-11
0.54433	-10
0.54800	-6
0.55167	1
0.55533	5
0.55900	3
0.56267	-2
0.56633	-5
0.57000	-3
0.57367	-1
0.57733	2
0.58100	3
0.58467	-2
0.58833	-6
0.59200	-8
0.59567	-8
0.59933	-9
0.60300	-13
0.60667	-17
0.61033	-17
0.61400	-8
0.61767	2
0.62133	8
0.62500	6
0.62867	-1
0.63233	-9
0.63600	-12
0.63967	-11
0.64333	-6
0.64700	1
0.65067	9
0.65433	13
0.65800	12
0.66167	10
0.66533	9
0.66900	9
0.67267	8
0.67633	7
0.68000	9
0.68367	11
0.68733	16
0.69100	24
0.69467	30
0.69833	30
0.70200	26
0.70567	22
0.70933	15
0.71300	10
0.71667	4
0.72033	-3
0.72400	-11
0.72767	-17
0.73133	-19
0.73500	-16
0.73867	-11
0.74233	-7
0.74600	-3
0.74967	-4
0.75333	-8
0.75700	-12
0.76067	-12
0.76433	-8
0.76800	-5
0.77167	-6
0.77533	-7
0.77900	-5
0.78267	-1
0.78633	5
0.79000	11
0.79367	14
0.79733	15
0.80100	18
0.80467	19
0.80833	15
0.81200	9
0.81567	6
0.81933	7
0.82300	6
0.82667	2
0.83033	0
0.83400	3
0.83767	11
0.84133	16
0.84500	15
0.84867	11
0.85233	4
0.85600	-2
0.85967	-0
0.86333	9
0.86700	21
0.87067	30
0.87433	34
0.87800	32
0.88167	27
0.88533	18
0.88900	4
0.89267	-7
0.89633	-14
0.90000	-16
0.90367	-10
0.90733	2
0.91100	15
0.91467	22
0.91833	25
0.92200	23
0.92567	19
0.92933	12
0.93300	4
0.93667	-0
0.94033	-1
0.94400	1
0.94767	1
0.95133	0
0.95500	-1
0.95867	-4
0.96233	-5
0.96600	-1
0.96967	1
0.97333	1
0.97700	-1
0.98067	1
0.98433	8
0.98800	14
0.99167	13
0.99533	9
0.99900	8
1.00267	14
1.00633	19
1.01000	20
1.01367	22
1.01733	25
1.02100	28
1.02467	28
1.02833	30
1.03200	31
1.03567	34
1.03933	38
1.04300	42
1.04667	46
1.05033	51
1.05400	55
1.05767	57
1.06133	61
1.06500	67
1.06867	75
1.07233	75
1.07600	65
1.07967	50
1.08333	37
1.08700	27
1.09067	22
1.09433	21
1.09800	24
1.10167	28
1.10533	31
1.10900	30
1.11267	31
1.11633	33
1.12000	40
1.12367	50
1.12733	59
1.13100	61
1.13467	59
1.13833	56
1.14200	54
1.14567	55
1.14933	60
1.15300	64
1.15667	66
1.16033	70
1.16400	72
1.16767	71
1.17133	68
1.17500	65
1.17867	59
1.18233	54
1.18600	52
1.18967	52
1.19333	51
1.19700	46
1.20067	41
1.20433	36
1.20800	31
1.21167	26
1.21533	27
1.21900	33
1.22267	39
1.22633	40
1.23000	41
1.23367	49
1.23733	59
1.24100	63
1.24467	60
1.24833	55
1.25200	50
1.25567	50
1.25933	57
1.26300	68
1.26667	79
1.27033	84
1.27400	82
1.27767	77
1.28133	76
1.28500	73
1.28867	67
1.29233	59
1.29600	53
1.29967	50
1.30333	46
1.30700	42
1.31067	34
1.31433	28
1.31800	28
1.32167	32
1.32533	35
1.32900	39
1.33267	42
1.33633	44
1.34000	44
1.34367	41
1.34733	38
1.35100	39
1.35467	41
1.35833	41
1.36200	42
1.36567	44
1.36933	49
1.37300	56
1.37667	65
1.38033	68
1.38400	64
1.38767	57
1.39133	50
1.39500	44
1.39867	40
1.40233	34
1.40600	30
1.40967	26
1.41333	26
1.41700	25
1.42067	25
1.42433	28
1.42800	33
1.43167	38
1.43533	47
1.43900	74
1.44267	168
1.44633	344
1.45000	533
1.45367	674
1.45733	754
1.46100	786
1.46467	788
1.46833	778
1.47200	772
1.47567	774
1.47933	785
1.48300	788
1.48667	769
1.49033	721
1.49400	649
1.49767	569
1.50133	493
1.50500	423
1.50867	362
1.51233	309
1.51600	266
1.51967	232
1.52333	203
1.52700	180
1.53067	163
1.53433	161
1.53800	227
1.54167	538
1.54533	1383
1.54900	2898
1.55267	4845
1.55633	6802
1.56000	8452
1.56367	9647
1.56733	10286
1.57100	10235
1.57467	9423
1.57833	8010
1.58200	6331
1.58567	4721
1.58933	3374
1.59300	2338
1.59667	1583
1.60033	1053
1.60400	691
1.60767	448
1.61133	293
1.61500	200
1.61867	146
1.62233	116
1.62600	96
1.62967	82
1.63333	71
1.63700	63
1.64067	59
1.64433	58
1.64800	58
1.65167	56
1.65533	54
1.65900	52
1.66267	51
1.66633	48
1.67000	44
1.67367	38
1.67733	36
1.68100	40
1.68467	44
1.68833	46
1.69200	43
1.69567	38
1.69933	34
1.70300	32
1.70667	31
1.71033	26
1.71400	20
1.71767	20
1.72133	26
1.72500	36
1.72867	47
1.73233	53
1.73600	56
1.73967	56
1.74333	54
1.74700	49
1.75067	46
1.75433	43
1.75800	44
1.76167	45
1.76533	41
1.76900	37
1.77267	32
1.77633	33
1.78000	38
1.78367	45
1.78733	51
1.79100	54
1.79467	53
1.79833	50
1.80200	50
1.80567	55
1.80933	60
1.81300	57
1.81667	50
1.82033	43
1.82400	38
1.82767	39
1.83133	42
1.83500	45
1.83867	45
1.84233	41
1.84600	36
1.84967	38
1.85333	42
1.85700	43
1.86067	42
1.86433	43
1.86800	41
1.87167	35
1.87533	29
1.87900	24
1.88267	25
1.88633	27
1.89000	29
1.89367	33
1.89733	37
1.90100	40
1.90467	42
1.90833	41
1.91200	38
1.91567	32
1.91933	32
1.92300	36
1.92667	42
1.93033	47
1.93400	54
1.93767	59
1.94133	59
1.94500	58
1.94867	61
1.95233	84
1.95600	251
1.95967	1224
1.96333	5675
1.96700	21180
1.97067	62581
1.97433	148040
1.97800	285895
1.98167	463502
1.98533	651314
1.98900	816753
1.99267	934437
1.99633	988407
2.00000	972926
2.00367	894355
2.00733	770368
2.01100	625116
2.01467	481729
2.01833	356224
2.02200	255656
2.02567	180104
2.02933	125863
2.03300	88094
2.03667	62295
2.04033	44855
2.04400	33092
2.04767	25118
2.05133	19653
2.05500	15848
2.05867	13142
2.06233	11172
2.06600	9702
2.06967	8575
2.07333	7688
2.07700	6969
2.08067	6373
2.08433	5876
2.08800	5456
2.09167	5093
2.09533	4774
2.09900	4491
2.10267	4230
2.10633	3991
2.11000	3775
2.11367	3583
2.11733	3416
2.12100	3270
2.12467	3135
2.12833	3010
2.13200	2894
2.13567	2788
2.13933	2687
2.14300	2588
2.14667	2495
2.15033	2411
2.15400	2334
2.15767	2260
2.16133	2188
2.16500	2119
2.16867	2053
2.17233	1989
2.17600	1929
2.17967	1876
2.18333	1832
2.18700	1789
2.19067	1747
2.19433	1709
2.19800	1669
2.20167	1627
2.20533	1584
2.20900	1540
2.21267	1497
2.21633	1457
2.22000	1420
2.22367	1386
2.22733	1357
2.23100	1334
2.23467	1316
2.23833	1299
2.24200	1282
2.24567	1263
2.24933	1239
2.25300	1218
2.25667	1199
2.26033	1177
2.26400	1152
2.26767	1122
2.27133	1089
2.27500	1058
2.27867	1033
2.28233	1014
2.28600	1000
2.28967	990
2.29333	985
2.29700	980
2.30067	976
2.30433	970
2.30800	958
2.31167	940
2.31533	922
2.31900	907
2.32267	894
2.32633	888
2.33000	888
2.33367	882
2.33733	869
2.34100	853
2.34467	837
2.34833	822
2.35200	808
2.35567	795
2.35933	785
2.36300	780
2.36667	776
2.37033	771
2.37400	765
2.37767	759
2.38133	754
2.38500	749
2.38867	743
2.39233	736
2.39600	729
2.39967	722
2.40333	715
2.40700	710
2.41067	706
2.41433	700
2.41800	695
2.42167	691
2.42533	684
2.42900	676
2.43267	669
2.43633	664
2.44000	659
2.44367	652
2.44733	647
2.45100	643
2.45467	637
2.45833	628
2.46200	620
2.46567	615
2.46933	609
2.47300	601
2.47667	595
2.48033	595
2.48400	602
2.48767	606
2.49133	605
2.49500	598
2.49867	590
2.50233	585
2.50600	584
2.50967	582
2.51333	581
2.51700	581
2.52067	577
2.52433	572
2.52800	568
2.53167	562
2.53533	556
2.53900	555
2.54267	556
2.54633	555
2.55000	556
2.55367	556
2.55733	549
2.56100	539
2.56467	531
2.56833	524
2.57200	517
2.57567	508
2.57933	498
2.58300	492
2.58667	493
2.59033	501
2.59400	507
2.59767	508
2.60133	505
2.60500	508
2.60867	512
2.61233	518
2.61600	520
2.61967	517
2.62333	513
2.62700	511
2.63067	509
2.63433	508
2.63800	506
2.64167	503
2.64533	500
2.64900	500
2.65267	500
2.65633	501
2.66000	504
2.66367	509
2.66733	514
2.67100	516
2.67467	514
2.67833	508
2.68200	500
2.68567	493
2.68933	489
2.69300	488
2.69667	487
2.70033	486
2.70400	485
2.70767	482
2.71133	475
2.71500	471
2.71867	472
2.72233	476
2.72600	479
2.72967	480
2.73333	479
2.73700	481
2.74067	482
2.74433	485
2.74800	496
2.75167	511
2.75533	525
2.75900	530
2.76267	523
2.76633	505
2.77000	484
2.77367	465
2.77733	449
2.78100	441
2.78467	440
2.78833	446
2.79200	451
2.79567	454
2.79933	455
2.80300	452
2.80667	452
2.81033	456
2.81400	460
2.81767	465
2.82133	470
2.82500	472
2.82867	471
2.83233	465
2.83600	458
2.83967	457
2.84333	460
2.84700	464
2.85067	466
2.85433	467
2.85800	469
2.86167	473
2.86533	477
2.86900	478
2.87267	480
2.87633	484
2.88000	486
2.88367	482
2.88733	477
2.89100	473
2.89467	469
2.89833	466
2.90200	463
2.90567	460
2.90933	459
2.91300	461
2.91667	467
2.92033	472
2.92400	477
2.92767	476
2.93133	474
2.93500	474
2.93867	471
2.94233	469
2.94600	470
2.94967	473
2.95333	476
2.95700	478
2.96067	480
2.96433	477
2.96800	471
2.97167	468
2.97533	463
2.97900	459
2.98267	456
2.98633	454
2.99000	454
2.99367	458
2.99733	460
3.00100	460
3.00467	458
3.00833	455
3.01200	455
3.01567	456
3.01933	456
3.02300	455
3.02667	461
3.03033	470
3.03400	476
3.03767	475
3.04133	471
3.04500	466
3.04867	466
3.05233	472
3.05600	482
3.05967	492
3.06333	497
3.06700	494
3.07067	490
3.07433	489
3.07800	489
3.08167	487
3.08533	479
3.08900	469
3.09267	459
3.09633	453
3.10000	453
3.10367	454
3.10733	451
3.11100	446
3.11467	444
3.11833	445
3.12200	451
3.12567	455
3.12933	452
3.13300	446
3.13667	445
3.14033	449
3.14400	454
3.14767	458
3.15133	461
3.15500	463
3.15867	461
3.16233	458
3.16600	456
3.16967	455
3.17333	455
3.17700	456
3.18067	460
3.18433	465
3.18800	471
3.19167	475
3.19533	481
3.19900	484
3.20267	479
3.20633	467
3.21000	456
3.21367	449
3.21733	445
3.22100	440
3.22467	439
3.22833	437
3.23200	433
3.23567	430
3.23933	432
3.24300	435
3.24667	441
3.25033	445
3.25400	445
3.25767	442
3.26133	435
3.26500	428
3.26867	424
3.27233	424
3.27600	426
3.27967	426
3.28333	425
3.28700	431
3.29067	436
3.29433	435
3.29800	430
3.30167	430
3.30533	433
3.30900	434
3.31267	435
3.31633	437
3.32000	442
3.32367	447
3.32733	452
3.33100	460
3.33467	465
3.33833	459
3.34200	446
3.34567	432
3.34933	421
3.35300	413
3.35667	403
3.36033	394
3.36400	390
3.36767	389
3.37133	393
3.37500	400
3.37867	413
3.38233	426
3.38600	439
3.38967	449
3.39333	454
3.39700	453
3.40067	450
3.40433	450
3.40800	444
3.41167	432
3.41533	414
3.41900	396
3.42267	382
3.42633	378
3.43000	380
3.43367	385
3.43733	388
3.44100	388
3.44467	389
3.44833	390
3.45200	392
3.45567	396
3.45933	397
3.46300	392
3.46667	392
3.47033	395
3.47400	394
3.47767	394
3.48133	395
3.48500	396
3.48867	396
3.49233	397
3.49600	399
3.49967	401
3.50333	403
3.50700	407
3.51067	412
3.51433	413
3.51800	412
3.52167	412
3.52533	411
3.52900	409
3.53267	405
3.53633	401
3.54000	397
3.54367	394
3.54733	391
3.55100	390
3.55467	391
3.55833	395
3.56200	396
3.56567	394
3.56933	394
3.57300	398
3.57667	403
3.58033	404
3.58400	406
3.58767	403
3.59133	394
3.59500	387
3.59867	389
3.60233	392
3.60600	398
3.60967	402
3.61333	400
3.61700	396
3.62067	394
3.62433	395
3.62800	397
3.63167	398
3.63533	398
3.63900	398
3.64267	399
3.64633	396
3.65000	388
3.65367	379
3.65733	376
3.66100	374
3.66467	374
3.66833	376
3.67200	372
3.67567	365
3.67933	363
3.68300	363
3.68667	366
3.69033	369
3.69400	373
3.69767	375
3.70133	374
3.70500	371
3.70867	368
3.71233	363
3.71600	358
3.71967	360
3.72333	362
3.72700	360
3.73067	355
3.73433	352
3.73800	349
3.74167	349
3.74533	348
3.74900	348
3.75267	349
3.75633	351
3.76000	350
3.76367	349
3.76733	348
3.77100	349
3.77467	359
3.77833	369
3.78200	376
3.78567	377
3.78933	370
3.79300	361
3.79667	354
3.80033	353
3.80400	355
3.80767	355
3.81133	355
3.81500	354
3.81867	347
3.82233	338
3.82600	330
3.82967	323
3.83333	316
3.83700	310
3.84067	308
3.84433	307
3.84800	309
3.85167	314
3.85533	323
3.85900	331
3.86267	337
3.86633	339
3.87000	338
3.87367	335
3.87733	335
3.88100	333
3.88467	327
3.88833	320
3.89200	313
3.89567	309
3.89933	311
3.90300	313
3.90667	314
3.91033	320
3.91400	328
3.91767	336
3.92133	339
3.92500	338
3.92867	334
3.93233	330
3.93600	326
3.93967	322
3.94333	318
3.94700	311
3.95067	301
3.95433	295
3.95800	294
3.96167	296
3.96533	300
3.96900	301
3.97267	301
3.97633	299
3.98000	300
3.98367	298
3.98733	296
3.99100	298
3.99467	303
3.99833	306

[Chromatogram (Ch2)]
Interval(msec)	220
# of Points	1091
Start Time(min)	0.002
End Time(min)	3.998
R.Time (min)	Intensity
0.00167	-0
0.00533	-0
0.00900	-0
0.01267	-0
0.01633	0
0.02000	0
0.02367	0
0.02733	0
0.03100	0
0.03467	1
0.03833	1
0.04200	1
0.04567	1
0.04933	1
0.05300	1
0.05667	1
0.06033	1
0.06400	1
0.06767	1
0.07133	1
0.07500	1
0.07867	1
0.08233	0
0.08600	0
0.08967	-0
0.09333	-0
0.09700	-0
0.10067	-0
0.10433	-0
0.10800	-1
0.11167	-1
0.11533	-1
0.11900	-1
0.12267	-1
0.12633	-1
0.13000	-0
0.13367	-0
0.13733	-0
0.14100	-1
0.14467	-1
0.14833	-1
0.15200	-2
0.15567	-2
0.15933	-2
0.16300	-2
0.16667	-2
0.17033	-2
0.17400	-2
0.17767	-1
0.18133	-1
0.18500	-1
0.18867	-1
0.19233	-1
0.19600	-1
0.19967	-1
0.20333	-1
0.20700	-2
0.21067	-2
0.21433	-2
0.21800	-3
0.22167	-2
0.22533	-2
0.22900	-2
0.23267	-2
0.23633	-2
0.24000	-1
0.24367	-1
0.24733	-1
0.25100	-1
0.25467	-0
0.25833	-0
0.26200	0
0.26567	0
0.26933	0
0.27300	0
0.27667	-0
0.28033	-0
0.28400	-1
0.28767	-1
0.29133	-1
0.29500	-1
0.29867	-1
0.30233	-1
0.30600	-1
0.30967	-1
0.31333	-1
0.31700	-1
0.32067	-2
0.32433	-2
0.32800	-2
0.33167	-2
0.33533	-2
0.33900	-3
0.34267	-3
0.34633	-3
0.35000	-4
0.35367	-4
0.35733	-4
0.36100	-4
0.36467	-4
0.36833	-4
0.37200	-4
0.37567	-4
0.37933	-4
0.38300	-5
0.38667	-5
0.39033	-5
0.39400	-5
0.39767	-5
0.40133	-5
0.40500	-5
0.40867	-5
0.41233	-5
0.41600	-5
0.41967	-4
0.42333	-4
0.42700	-5
0.43067	-5
0.43433	-5
0.43800	-5
0.44167	-5
0.44533	-4
0.44900	-4
0.45267	-4
0.45633	-4
0.46000	-4
0.46367	-4
0.46733	-4
0.47100	-4
0.47467	-3
0.47833	-3
0.48200	-3
0.48567	-2
0.48933	-2
0.49300	-2
0.49667	-2
0.50033	-2
0.50400	-2
0.50767	-2
0.51133	-2
0.51500	-2
0.51867	-2
0.52233	-2
0.52600	-1
0.52967	-1
0.53333	-1
0.53700	-2
0.54067	-2
0.54433	-2
0.54800	-2
0.55167	-2
0.55533	-2
0.55900	-1
0.56267	-1
0.56633	-1
0.57000	-1
0.57367	-1
0.57733	-1
0.58100	-1
0.58467	-1
0.58833	-1
0.59200	-0
0.59567	-0
0.59933	0
0.60300	0
0.60667	0
0.61033	0
0.61400	0
0.61767	0
0.62133	0
0.62500	0
0.62867	0
0.63233	0
0.63600	-0
0.63967	-0
0.64333	-1
0.64700	-1
0.65067	-1
0.65433	-2
0.65800	-2
0.66167	-2
0.66533	-2
0.66900	-2
0.67267	-2
0.67633	-2
0.68000	-1
0.68367	-1
0.68733	-1
0.69100	-1
0.69467	-1
0.69833	-1
0.70200	-1
0.70567	-1
0.70933	-1
0.71300	-1
0.71667	-1
0.72033	-2
0.72400	-2
0.72767	-3
0.73133	-3
0.73500	-3
0.73867	-3
0.74233	-3
0.74600	-3
0.74967	-3
0.75333	-3
0.75700	-2
0.76067	-2
0.76433	-2
0.76800	-2
0.77167	-2
0.77533	-2
0.77900	-2
0.78267	-2
0.78633	-2
0.79000	-2
0.79367	-2
0.79733	-2
0.80100	-2
0.80467	-2
0.80833	-3
0.81200	-3
0.81567	-3
0.81933	-3
0.82300	-3
0.82667	-3
0.83033	-3
0.83400	-3
0.83767	-3
0.84133	-3
0.84500	-3
0.84867	-3
0.85233	-3
0.85600	-3
0.85967	-3
0.86333	-3
0.86700	-3
0.87067	-3
0.87433	-3
0.87800	-3
0.88167	-3
0.88533	-2
0.88900	-2
0.89267	-2
0.89633	-2
0.90000	-2
0.90367	-1
0.90733	-1
0.91100	-1
0.91467	-1
0.91833	-1
0.92200	-0
0.92567	-0
0.92933	-0
0.93300	-0
0.93667	-1
0.94033	-1
0.94400	-1
0.94767	-2
0.95133	-2
0.95500	-3
0.95867	-3
0.96233	-3
0.96600	-3
0.96967	-3
0.97333	-3
0.97700	-3
0.98067	-3
0.98433	-3
0.98800	-3
0.99167	-3
0.99533	-3
0.99900	-3
1.00267	-3
1.00633	-3
1.01000	-4
1.01367	-4
1.01733	-4
1.02100	-4
1.02467	-4
1.02833	-4
1.03200	-4
1.03567	-4
1.03933	-4
1.04300	-4
1.04667	-4
1.05033	-4
1.05400	-5
1.05767	-5
1.06133	-5
1.06500	-5
1.06867	-5
1.07233	-5
1.07600	-5
1.07967	-5
1.08333	-5
1.08700	-5
1.09067	-6
1.09433	-6
1.09800	-6
1.10167	-6
1.10533	-6
1.10900	-6
1.11267	-5
1.11633	-5
1.12000	-5
1.12367	-5
1.12733	-5
1.13100	-5
1.13467	-5
1.13833	-5
1.14200	-5
1.14567	-5
1.14933	-5
1.15300	-6
1.15667	-6
1.16033	-5
1.16400	-5
1.16767	-5
1.17133	-5
1.17500	-5
1.17867	-5
1.18233	-5
1.18600	-5
1.18967	-5
1.19333	-4
1.19700	-4
1.20067	-4
1.20433	-4
1.20800	-4
1.21167	-4
1.21533	-3
1.21900	-3
1.22267	-3
1.22633	-3
1.23000	-3
1.23367	-3
1.23733	-3
1.24100	-3
1.24467	-3
1.24833	-3
1.25200	-3
1.25567	-3
1.25933	-3
1.26300	-3
1.26667	-3
1.27033	-3
1.27400	-3
1.27767	-3
1.28133	-3
1.28500	-2
1.28867	-2
1.29233	-2
1.29600	-2
1.29967	-1
1.30333	-1
1.30700	-1
1.31067	-1
1.31433	-1
1.31800	-1
1.32167	-1
1.32533	-1
1.32900	-1
1.33267	-1
1.33633	-1
1.34000	-1
1.34367	-2
1.34733	-2
1.35100	-2
1.35467	-2
1.35833	-2
1.36200	-2
1.36567	-2
1.36933	-2
1.37300	-2
1.37667	-2
1.38033	-3
1.38400	-3
1.38767	-3
1.39133	-4
1.39500	-4
1.39867	-4
1.40233	-4
1.40600	-5
1.40967	-5
1.41333	-5
1.41700	-5
1.42067	-5
1.42433	-5
1.42800	-5
1.43167	-5
1.43533	-5
1.43900	-5
1.44267	-5
1.44633	-5
1.45000	-5
1.45367	-5
1.45733	-4
1.46100	-4
1.46467	-4
1.46833	-4
1.47200	-4
1.47567	-4
1.47933	-4
1.48300	-4
1.48667	-4
1.49033	-5
1.49400	-5
1.49767	-5
1.50133	-5
1.50500	-5
1.50867	-5
1.51233	-5
1.51600	-5
1.51967	-5
1.52333	-4
1.52700	-4
1.53067	-4
1.53433	-4
1.53800	-4
1.54167	-4
1.54533	-4
1.54900	-4
1.55267	-4
1.55633	-4
1.56000	-5
1.56367	-5
1.56733	-5
1.57100	-5
1.57467	-5
1.57833	-5
1.58200	-6
1.58567	-6
1.58933	-6
1.59300	-6
1.59667	-7
1.60033	-7
1.60400	-8
1.60767	-9
1.61133	-10
1.61500	-12
1.61867	-14
1.62233	-17
1.62600	-20
1.62967	-23
1.63333	-26
1.63700	-29
1.64067	-32
1.64433	-36
1.64800	-39
1.65167	-42
1.65533	-46
1.65900	-50
1.66267	-54
1.66633	-58
1.67000	-63
1.67367	-67
1.67733	-73
1.68100	-78
1.68467	-83
1.68833	-88
1.69200	-92
1.69567	-96
1.69933	-98
1.70300	-101
1.70667	-103
1.71033	-105
1.71400	-107
1.71767	-108
1.72133	-109
1.72500	-110
1.72867	-111
1.73233	-111
1.73600	-112
1.73967	-112
1.74333	-113
1.74700	-114
1.75067	-114
1.75433	-115
1.75800	-115
1.76167	-115
1.76533	-115
1.76900	-115
1.77267	-116
1.77633	-116
1.78000	-116
1.78367	-116
1.78733	-117
1.79100	-117
1.79467	-118
1.79833	-119
1.80200	-120
1.80567	-120
1.80933	-121
1.81300	-121
1.81667	-120
1.82033	-120
1.82400	-119
1.82767	-118
1.83133	-118
1.83500	-118
1.83867	-118
1.84233	-118
1.84600	-118
1.84967	-118
1.85333	-118
1.85700	-119
1.86067	-119
1.86433	-119
1.86800	-118
1.87167	-118
1.87533	-118
1.87900	-119
1.88267	-119
1.88633	-119
1.89000	-119
1.89367	-118
1.89733	-118
1.90100	-117
1.90467	-117
1.90833	-116
1.91200	-116
1.91567	-116
1.91933	-116
1.92300	-116
1.92667	-116
1.93033	-115
1.93400	-115
1.93767	-115
1.94133	-116
1.94500	-116
1.94867	-116
1.95233	-115
1.95600	-115
1.95967	-114
1.96333	-114
1.96700	-113
1.97067	-112
1.97433	-112
1.97800	-112
1.98167	-112
1.98533	-112
1.98900	-112
1.99267	-112
1.99633	-112
2.00000	-112
2.00367	-112
2.00733	-112
2.01100	-112
2.01467	-112
2.01833	-111
2.02200	-111
2.02567	-110
2.02933	-110
2.03300	-110
2.03667	-109
2.04033	-109
2.04400	-108
2.04767	-107
2.05133	-106
2.05500	-106
2.05867	-106
2.06233	-106
2.06600	-106
2.06967	-106
2.07333	-106
2.07700	-106
2.08067	-106
2.08433	-105
2.08800	-105
2.09167	-105
2.09533	-104
2.09900	-104
2.10267	-103
2.10633	-102
2.11000	-101
2.11367	-101
2.11733	-101
2.12100	-101
2.12467	-101
2.12833	-101
2.13200	-101
2.13567	-101
2.13933	-101
2.14300	-101
2.14667	-101
2.15033	-100
2.15400	-100
2.15767	-99
2.16133	-99
2.16500	-98
2.16867	-98
2.17233	-97
2.17600	-96
2.17967	-96
2.18333	-96
2.18700	-95
2.19067	-95
2.19433	-95
2.19800	-96
2.20167	-97
2.20533	-97
2.20900	-98
2.21267	-98
2.21633	-98
2.22000	-98
2.22367	-97
2.22733	-96
2.23100	-95
2.23467	-93
2.23833	-92
2.24200	-92
2.24567	-91
2.24933	-91
2.25300	-90
2.25667	-90
2.26033	-90
2.26400	-89
2.26767	-89
2.27133	-88
2.27500	-87
2.27867	-87
2.28233	-87
2.28600	-88
2.28967	-89
2.29333	-89
2.29700	-90
2.30067	-90
2.30433	-90
2.30800	-90
2.31167	-90
2.31533	-89
2.31900	-89
2.32267	-88
2.32633	-87
2.33000	-86
2.33367	-85
2.33733	-84
2.34100	-82
2.34467	-80
2.34833	-79
2.35200	-78
2.35567	-77
2.35933	-76
2.36300	-75
2.36667	-74
2.37033	-72
2.37400	-70
2.37767	-68
2.38133	-65
2.38500	-61
2.38867	-58
2.39233	-54
2.39600	-50
2.39967	-46
2.40333	-42
2.40700	-38
2.41067	-34
2.41433	-30
2.41800	-27
2.42167	-25
2.42533	-23
2.42900	-21
2.43267	-20
2.43633	-19
2.44000	-18
2.44367	-17
2.44733	-15
2.45100	-13
2.45467	-11
2.45833	-9
2.46200	-7
2.46567	-6
2.46933	-5
2.47300	-3
2.47667	-2
2.48033	-1
2.48400	-0
2.48767	1
2.49133	2
2.49500	3
2.49867	4
2.50233	4
2.50600	5
2.50967	5
2.51333	6
2.51700	7
2.52067	8
2.52433	9
2.52800	10
2.53167	10
2.53533	11
2.53900	11
2.54267	11
2.54633	11
2.55000	11
2.55367	12
2.55733	12
2.56100	12
2.56467	12
2.56833	12
2.57200	12
2.57567	12
2.57933	13
2.58300	13
2.58667	14
2.59033	14
2.59400	15
2.59767	15
2.60133	15
2.60500	15
2.60867	15
2.61233	15
2.61600	14
2.61967	14
2.62333	15
2.62700	15
2.63067	16
2.63433	17
2.63800	18
2.64167	19
2.64533	19
2.64900	20
2.65267	20
2.65633	20
2.66000	20
2.66367	20
2.66733	21
2.67100	21
2.67467	21
2.67833	20
2.68200	20
2.68567	20
2.68933	20
2.69300	20
2.69667	19
2.70033	19
2.70400	19
2.70767	19
2.71133	19
2.71500	19
2.71867	19
2.72233	19
2.72600	19
2.72967	20
2.73333	20
2.73700	21
2.74067	21
2.74433	22
2.74800	22
2.75167	23
2.75533	24
2.75900	24
2.76267	25
2.76633	25
2.77000	26
2.77367	26
2.77733	26
2.78100	25
2.78467	25
2.78833	24
2.79200	23
2.79567	23
2.79933	22
2.80300	22
2.80667	21
2.81033	21
2.81400	21
2.81767	21
2.82133	21
2.82500	21
2.82867	21
2.83233	21
2.83600	21
2.83967	19
2.84333	15
2.84700	10
2.85067	1
2.85433	-11
2.85800	-28
2.86167	-49
2.86533	-75
2.86900	-107
2.87267	-144
2.87633	-186
2.88000	-234
2.88367	-286
2.88733	-344
2.89100	-405
2.89467	-471
2.89833	-541
2.90200	-613
2.90567	-689
2.90933	-767
2.91300	-848
2.91667	-932
2.92033	-1017
2.92400	-1104
2.92767	-1193
2.93133	-1283
2.93500	-1374
2.93867	-1458
2.94233	-1522
2.94600	-1554
2.94967	-1550
2.95333	-1512
2.95700	-1444
2.96067	-1354
2.96433	-1250
2.96800	-1140
2.97167	-1027
2.97533	-917
2.97900	-813
2.98267	-715
2.98633	-626
2.99000	-545
2.99367	-473
2.99733	-409
3.00100	-352
3.00467	-303
3.00833	-259
3.01200	-221
3.01567	-189
3.01933	-161
3.02300	-137
3.02667	-116
3.03033	-98
3.03400	-83
3.03767	-70
3.04133	-59
3.04500	-50
3.04867	-42
3.05233	-35
3.05600	-29
3.05967	-23
3.06333	-19
3.06700	-15
3.07067	-12
3.07433	-9
3.07800	-6
3.08167	-4
3.08533	-2
3.08900	0
3.09267	2
3.09633	3
3.10000	4
3.10367	5
3.10733	6
3.11100	6
3.11467	7
3.11833	8
3.12200	8
3.12567	9
3.12933	9
3.13300	10
3.13667	11
3.14033	11
3.14400	12
3.14767	12
3.15133	13
3.15500	13
3.15867	14
3.16233	14
3.16600	14
3.16967	14
3.17333	14
3.17700	15
3.18067	15
3.18433	15
3.18800	16
3.19167	16
3.19533	16
3.19900	17
3.20267	17
3.20633	17
3.21000	17
3.21367	17
3.21733	18
3.22100	18
3.22467	18
3.22833	18
3.23200	18
3.23567	18
3.23933	18
3.24300	18
3.24667	18
3.25033	19
3.25400	19
3.25767	19
3.26133	19
3.26500	19
3.26867	19
3.27233	20
3.27600	20
3.27967	20
3.28333	20
3.28700	21
3.29067	21
3.29433	21
3.29800	21
3.30167	21
3.30533	21
3.30900	21
3.31267	21
3.31633	21
3.32000	21
3.32367	21
3.32733	22
3.33100	22
3.33467	22
3.33833	23
3.34200	23
3.34567	23
3.34933	24
3.35300	24
3.35667	24
3.36033	25
3.36400	25
3.36767	25
3.37133	25
3.37500	25
3.37867	25
3.38233	25
3.38600	25
3.38967	25
3.39333	25
3.39700	25
3.40067	25
3.40433	25
3.40800	25
3.41167	25
3.41533	25
3.41900	24
3.42267	24
3.42633	24
3.43000	24
3.43367	23
3.43733	23
3.44100	23
3.44467	23
3.44833	23
3.45200	24
3.45567	24
3.45933	24
3.46300	24
3.46667	24
3.47033	24
3.47400	24
3.47767	24
3.48133	24
3.48500	25
3.48867	24
3.49233	24
3.49600	24
3.49967	24
3.50333	24
3.50700	24
3.51067	24
3.51433	24
3.51800	23
3.52167	23
3.52533	23
3.52900	23
3.53267	23
3.53633	24
3.54000	24
3.54367	24
3.54733	24
3.55100	25
3.55467	25
3.55833	25
3.56200	25
3.56567	25
3.56933	25
3.57300	25
3.57667	25
3.58033	25
3.58400	24
3.58767	24
3.59133	24
3.59500	24
3.59867	23
3.60233	23
3.60600	23
3.60967	23
3.61333	23
3.61700	23
3.62067	23
3.62433	23
3.62800	23
3.63167	24
3.63533	24
3.63900	24
3.64267	23
3.64633	23
3.65000	23
3.65367	23
3.65733	23
3.66100	23
3.66467	23
3.66833	24
3.67200	24
3.67567	24
3.67933	24
3.68300	24
3.68667	24
3.69033	24
3.69400	24
3.69767	24
3.70133	24
3.70500	24
3.70867	24
3.71233	24
3.71600	24
3.71967	24
3.72333	24
3.72700	24
3.73067	24
3.73433	24
3.73800	23
3.74167	23
3.74533	23
3.74900	22
3.75267	22
3.75633	22
3.76000	22
3.76367	22
3.76733	22
3.77100	22
3.77467	23
3.77833	23
3.78200	23
3.78567	24
3.78933	24
3.79300	24
3.79667	24
3.80033	24
3.80400	24
3.80767	24
3.81133	24
3.81500	24
3.81867	24
3.82233	24
3.82600	24
3.82967	24
3.83333	24
3.83700	24
3.84067	24
3.84433	24
3.84800	24
3.85167	24
3.85533	24
3.85900	24
3.86267	24
3.86633	23
3.87000	23
3.87367	24
3.87733	24
3.88100	24
3.88467	23
3.88833	23
3.89200	23
3.89567	23
3.89933	23
3.90300	23
3.90667	22
3.91033	22
3.91400	22
3.91767	22
3.92133	22
3.92500	22
3.92867	22
3.93233	22
3.93600	21
3.93967	21
3.94333	21
3.94700	21
3.95067	21
3.95433	21
3.95800	21
3.96167	22
3.96533	22
3.96900	22
3.97267	22
3.97633	22
3.98000	22
3.98367	22
3.98733	23
3.99100	23
3.99467	23
3.99833	23

[Chromatogram (Ch3)]
Interval(msec)	220
# of Points	1091
Start Time(min)	0.002
End Time(min)	3.998
R.Time (min)	Intensity
0.00167	0
0.00533	2
0.00900	4
0.01267	4
0.01633	4
0.02000	4
0.02367	5
0.02733	8
0.03100	10
0.03467	11
0.03833	10
0.04200	9
0.04567	7
0.04933	6
0.05300	6
0.05667	6
0.06033	10
0.06400	12
0.06767	14
0.07133	14
0.07500	12
0.07867	10
0.08233	10
0.08600	9
0.08967	8
0.09333	8
0.09700	9
0.10067	8
0.10433	8
0.10800	9
0.11167	8
0.11533	7
0.11900	6
0.12267	6
0.12633	7
0.13000	7
0.13367	7
0.13733	8
0.14100	11
0.14467	11
0.14833	9
0.15200	6
0.15567	7
0.15933	8
0.16300	9
0.16667	6
0.17033	6
0.17400	6
0.17767	6
0.18133	8
0.18500	8
0.18867	10
0.19233	12
0.19600	14
0.19967	15
0.20333	14
0.20700	11
0.21067	11
0.21433	11
0.21800	10
0.22167	10
0.22533	11
0.22900	10
0.23267	10
0.23633	9
0.24000	7
0.24367	7
0.24733	8
0.25100	8
0.25467	9
0.25833	12
0.26200	12
0.26567	12
0.26933	13
0.27300	14
0.27667	16
0.28033	16
0.28400	15
0.28767	16
0.29133	16
0.29500	14
0.29867	10
0.30233	7
0.30600	7
0.30967	8
0.31333	10
0.31700	12
0.32067	13
0.32433	11
0.32800	8
0.33167	8
0.33533	10
0.33900	10
0.34267	12
0.34633	12
0.35000	12
0.35367	11
0.35733	8
0.36100	7
0.36467	8
0.36833	10
0.37200	11
0.37567	11
0.37933	13
0.38300	14
0.38667	14
0.39033	13
0.39400	14
0.39767	15
0.40133	16
0.40500	15
0.40867	13
0.41233	12
0.41600	12
0.41967	12
0.42333	13
0.42700	12
0.43067	11
0.43433	11
0.43800	9
0.44167	8
0.44533	9
0.44900	9
0.45267	9
0.45633	10
0.46000	12
0.46367	14
0.46733	14
0.47100	14
0.47467	12
0.47833	13
0.48200	15
0.48567	16
0.48933	15
0.49300	14
0.49667	14
0.50033	14
0.50400	14
0.50767	13
0.51133	16
0.51500	21
0.51867	23
0.52233	20
0.52600	15
0.52967	13
0.53333	14
0.53700	15
0.54067	16
0.54433	17
0.54800	17
0.55167	16
0.55533	14
0.55900	14
0.56267	14
0.56633	15
0.57000	18
0.57367	20
0.57733	21
0.58100	20
0.58467	19
0.58833	19
0.59200	19
0.59567	19
0.59933	22
0.60300	24
0.60667	23
0.61033	22
0.61400	20
0.61767	20
0.62133	20
0.62500	20
0.62867	19
0.63233	20
0.63600	21
0.63967	21
0.64333	24
0.64700	26
0.65067	27
0.65433	28
0.65800	26
0.66167	24
0.66533	23
0.66900	21
0.67267	21
0.67633	23
0.68000	25
0.68367	24
0.68733	24
0.69100	23
0.69467	23
0.69833	24
0.70200	25
0.70567	25
0.70933	25
0.71300	25
0.71667	25
0.72033	27
0.72400	29
0.72767	31
0.73133	31
0.73500	30
0.73867	30
0.74233	30
0.74600	31
0.74967	31
0.75333	32
0.75700	32
0.76067	34
0.76433	34
0.76800	32
0.77167	29
0.77533	30
0.77900	31
0.78267	32
0.78633	34
0.79000	33
0.79367	31
0.79733	32
0.80100	35
0.80467	36
0.80833	36
0.81200	36
0.81567	38
0.81933	38
0.82300	37
0.82667	37
0.83033	39
0.83400	39
0.83767	38
0.84133	37
0.84500	36
0.84867	34
0.85233	32
0.85600	33
0.85967	33
0.86333	29
0.86700	28
0.87067	29
0.87433	32
0.87800	34
0.88167	34
0.88533	34
0.88900	32
0.89267	32
0.89633	31
0.90000	29
0.90367	28
0.90733	29
0.91100	30
0.91467	31
0.91833	31
0.92200	31
0.92567	32
0.92933	31
0.93300	28
0.93667	27
0.94033	27
0.94400	27
0.94767	26
0.95133	26
0.95500	27
0.95867	29
0.96233	29
0.96600	31
0.96967	34
0.97333	34
0.97700	32
0.98067	32
0.98433	33
0.98800	34
0.99167	34
0.99533	34
0.99900	35
1.00267	34
1.00633	32
1.01000	30
1.01367	29
1.01733	29
1.02100	29
1.02467	28
1.02833	26
1.03200	26
1.03567	29
1.03933	30
1.04300	30
1.04667	31
1.05033	32
1.05400	33
1.05767	34
1.06133	34
1.06500	34
1.06867	31
1.07233	31
1.07600	34
1.07967	36
1.08333	36
1.08700	35
1.09067	34
1.09433	32
1.09800	32
1.10167	33
1.10533	34
1.10900	37
1.11267	41
1.11633	41
1.12000	41
1.12367	40
1.12733	39
1.13100	37
1.13467	36
1.13833	35
1.14200	33
1.14567	33
1.14933	34
1.15300	37
1.15667	39
1.16033	38
1.16400	36
1.16767	36
1.17133	34
1.17500	33
1.17867	34
1.18233	35
1.18600	35
1.18967	35
1.19333	35
1.19700	34
1.20067	35
1.20433	37
1.20800	35
1.21167	32
1.21533	31
1.21900	31
1.22267	29
1.22633	25
1.23000	25
1.23367	28
1.23733	32
1.24100	34
1.24467	34
1.24833	32
1.25200	31
1.25567	31
1.25933	31
1.26300	31
1.26667	31
1.27033	31
1.27400	31
1.27767	32
1.28133	31
1.28500	29
1.28867	26
1.29233	25
1.29600	25
1.29967	25
1.30333	23
1.30700	25
1.31067	25
1.31433	25
1.31800	25
1.32167	24
1.32533	24
1.32900	25
1.33267	24
1.33633	23
1.34000	24
1.34367	25
1.34733	25
1.35100	26
1.35467	27
1.35833	27
1.36200	26
1.36567	25
1.36933	24
1.37300	23
1.37667	24
1.38033	25
1.38400	26
1.38767	26
1.39133	25
1.39500	26
1.39867	28
1.40233	29
1.40600	31
1.40967	33
1.41333	33
1.41700	33
1.42067	32
1.42433	30
1.42800	29
1.43167	28
1.43533	27
1.43900	27
1.44267	26
1.44633	24
1.45000	23
1.45367	24
1.45733	25
1.46100	26
1.46467	29
1.46833	33
1.47200	35
1.47567	33
1.47933	33
1.48300	32
1.48667	32
1.49033	31
1.49400	30
1.49767	30
1.50133	29
1.50500	29
1.50867	27
1.51233	28
1.51600	31
1.51967	32
1.52333	32
1.52700	29
1.53067	29
1.53433	30
1.53800	31
1.54167	31
1.54533	32
1.54900	34
1.55267	36
1.55633	35
1.56000	33
1.56367	32
1.56733	31
1.57100	30
1.57467	30
1.57833	30
1.58200	30
1.58567	28
1.58933	28
1.59300	29
1.59667	30
1.60033	32
1.60400	35
1.60767	37
1.61133	37
1.61500	37
1.61867	37
1.62233	36
1.62600	34
1.62967	33
1.63333	34
1.63700	38
1.64067	42
1.64433	43
1.64800	42
1.65167	40
1.65533	38
1.65900	36
1.66267	35
1.66633	36
1.67000	38
1.67367	39
1.67733	38
1.68100	38
1.68467	39
1.68833	39
1.69200	38
1.69567	38
1.69933	39
1.70300	41
1.70667	43
1.71033	45
1.71400	45
1.71767	46
1.72133	47
1.72500	47
1.72867	46
1.73233	45
1.73600	44
1.73967	45
1.74333	45
1.74700	47
1.75067	48
1.75433	46
1.75800	44
1.76167	44
1.76533	47
1.76900	52
1.77267	53
1.77633	51
1.78000	50
1.78367	48
1.78733	46
1.79100	47
1.79467	49
1.79833	50
1.80200	51
1.80567	53
1.80933	53
1.81300	53
1.81667	52
1.82033	53
1.82400	52
1.82767	50
1.83133	48
1.83500	48
1.83867	49
1.84233	50
1.84600	51
1.84967	52
1.85333	52
1.85700	52
1.86067	52
1.86433	54
1.86800	57
1.87167	57
1.87533	56
1.87900	54
1.88267	54
1.88633	56
1.89000	59
1.89367	62
1.89733	63
1.90100	61
1.90467	60
1.90833	59
1.91200	61
1.91567	64
1.91933	68
1.92300	69
1.92667	71
1.93033	73
1.93400	72
1.93767	71
1.94133	71
1.94500	71
1.94867	71
1.95233	71
1.95600	73
1.95967	75
1.96333	76
1.96700	78
1.97067	79
1.97433	81
1.97800	80
1.98167	80
1.98533	81
1.98900	85
1.99267	88
1.99633	90
2.00000	89
2.00367	90
2.00733	94
2.01100	95
2.01467	95
2.01833	93
2.02200	93
2.02567	93
2.02933	93
2.03300	92
2.03667	90
2.04033	91
2.04400	93
2.04767	97
2.05133	99
2.05500	100
2.05867	101
2.06233	102
2.06600	102
2.06967	103
2.07333	105
2.07700	106
2.08067	106
2.08433	106
2.08800	108
2.09167	110
2.09533	109
2.09900	109
2.10267	107
2.10633	106
2.11000	108
2.11367	110
2.11733	114
2.12100	117
2.12467	120
2.12833	122
2.13200	121
2.13567	121
2.13933	121
2.14300	124
2.14667	127
2.15033	127
2.15400	126
2.15767	126
2.16133	126
2.16500	126
2.16867	126
2.17233	125
2.17600	127
2.17967	126
2.18333	126
2.18700	126
2.19067	128
2.19433	131
2.19800	134
2.20167	135
2.20533	138
2.20900	140
2.21267	143
2.21633	146
2.22000	146
2.22367	146
2.22733	144
2.23100	144
2.23467	146
2.23833	148
2.24200	150
2.24567	153
2.24933	156
2.25300	156
2.25667	154
2.26033	153
2.26400	154
2.26767	156
2.27133	159
2.27500	162
2.27867	164
2.28233	167
2.28600	169
2.28967	169
2.29333	169
2.29700	170
2.30067	172
2.30433	175
2.30800	177
2.31167	179
2.31533	180
2.31900	182
2.32267	184
2.32633	186
2.33000	186
2.33367	185
2.33733	187
2.34100	192
2.34467	196
2.34833	197
2.35200	198
2.35567	197
2.35933	197
2.36300	201
2.36667	204
2.37033	203
2.37400	205
2.37767	206
2.38133	207
2.38500	204
2.38867	203
2.39233	204
2.39600	207
2.39967	213
2.40333	220
2.40700	226
2.41067	231
2.41433	233
2.41800	236
2.42167	238
2.42533	239
2.42900	240
2.43267	240
2.43633	241
2.44000	245
2.44367	281
2.44733	371
2.45100	466
2.45467	542
2.45833	591
2.46200	599
2.46567	579
2.46933	552
2.47300	530
2.47667	517
2.48033	508
2.48400	496
2.48767	477
2.49133	451
2.49500	423
2.49867	396
2.50233	376
2.50600	361
2.50967	353
2.51333	347
2.51700	345
2.52067	348
2.52433	355
2.52800	367
2.53167	380
2.53533	390
2.53900	394
2.54267	395
2.54633	389
2.55000	379
2.55367	366
2.55733	351
2.56100	335
2.56467	320
2.56833	307
2.57200	297
2.57567	289
2.57933	285
2.58300	284
2.58667	282
2.59033	277
2.59400	269
2.59767	260
2.60133	247
2.60500	232
2.60867	212
2.61233	189
2.61600	164
2.61967	139
2.62333	120
2.62700	105
2.63067	94
2.63433	89
2.63800	88
2.64167	88
2.64533	93
2.64900	100
2.65267	111
2.65633	124
2.66000	139
2.66367	151
2.66733	158
2.67100	165
2.67467	171
2.67833	177
2.68200	180
2.68567	180
2.68933	179
2.69300	178
2.69667	177
2.70033	178
2.70400	175
2.70767	173
2.71133	170
2.71500	169
2.71867	167
2.72233	166
2.72600	165
2.72967	163
2.73333	162
2.73700	164
2.74067	164
2.74433	165
2.74800	166
2.75167	165
2.75533	166
2.75900	168
2.76267	170
2.76633	173
2.77000	174
2.77367	174
2.77733	176
2.78100	176
2.78467	176
2.78833	178
2.79200	179
2.79567	180
2.79933	183
2.80300	184
2.80667	185
2.81033	190
2.81400	200
2.81767	231
2.82133	303
2.82500	457
2.82867	750
2.83233	1256
2.83600	2036
2.83967	3129
2.84333	4532
2.84700	6199
2.85067	8043
2.85433	9943
2.85800	11752
2.86167	13327
2.86533	14556
2.86900	15364
2.87267	15727
2.87633	15662
2.88000	15230
2.88367	14514
2.88733	13602
2.89100	12571
2.89467	11488
2.89833	10402
2.90200	9347
2.90567	8351
2.90933	7427
2.91300	6583
2.91667	5815
2.92033	5125
2.92400	4509
2.92767	3964
2.93133	3482
2.93500	3057
2.93867	2685
2.94233	2359
2.94600	2074
2.94967	1827
2.95333	1610
2.95700	1421
2.96067	1259
2.96433	1119
2.96800	997
2.97167	893
2.97533	804
2.97900	728
2.98267	659
2.98633	597
2.99000	546
2.99367	503
2.99733	465
3.00100	432
3.00467	403
3.00833	377
3.01200	355
3.01567	335
3.01933	318
3.02300	304
3.02667	291
3.03033	278
3.03400	266
3.03767	258
3.04133	249
3.04500	239
3.04867	230
3.05233	224
3.05600	217
3.05967	212
3.06333	208
3.06700	203
3.07067	195
3.07433	171
3.07800	133
3.08167	106
3.08533	101
3.08900	111
3.09267	130
3.09633	154
3.10000	183
3.10367	217
3.10733	254
3.11100	292
3.11467	330
3.11833	369
3.12200	406
3.12567	436
3.12933	464
3.13300	489
3.13667	508
3.14033	526
3.14400	541
3.14767	553
3.15133	562
3.15500	570
3.15867	578
3.16233	586
3.16600	595
3.16967	600
3.17333	604
3.17700	608
3.18067	613
3.18433	618
3.18800	622
3.19167	623
3.19533	623
3.19900	626
3.20267	629
3.20633	629
3.21000	630
3.21367	633
3.21733	637
3.22100	641
3.22467	645
3.22833	649
3.23200	651
3.23567	652
3.23933	652
3.24300	651
3.24667	652
3.25033	654
3.25400	654
3.25767	653
3.26133	653
3.26500	653
3.26867	652
3.27233	651
3.27600	649
3.27967	646
3.28333	645
3.28700	643
3.29067	640
3.29433	639
3.29800	637
3.30167	634
3.30533	633
3.30900	630
3.31267	629
3.31633	629
3.32000	630
3.32367	628
3.32733	626
3.33100	625
3.33467	621
3.33833	617
3.34200	615
3.34567	615
3.34933	616
3.35300	615
3.35667	617
3.36033	618
3.36400	618
3.36767	617
3.37133	614
3.37500	610
3.37867	609
3.38233	608
3.38600	607
3.38967	607
3.39333	607
3.39700	604
3.40067	603
3.40433	602
3.40800	601
3.41167	602
3.41533	605
3.41900	607
3.42267	607
3.42633	604
3.43000	603
3.43367	601
3.43733	596
3.44100	594
3.44467	591
3.44833	588
3.45200	586
3.45567	587
3.45933	587
3.46300	585
3.46667	585
3.47033	582
3.47400	580
3.47767	579
3.48133	577
3.48500	576
3.48867	574
3.49233	573
3.49600	571
3.49967	568
3.50333	566
3.50700	565
3.51067	562
3.51433	559
3.51800	558
3.52167	555
3.52533	551
3.52900	548
3.53267	547
3.53633	548
3.54000	547
3.54367	544
3.54733	541
3.55100	539
3.55467	536
3.55833	535
3.56200	534
3.56567	533
3.56933	531
3.57300	531
3.57667	530
3.58033	530
3.58400	530
3.58767	528
3.59133	526
3.59500	526
3.59867	527
3.60233	527
3.60600	525
3.60967	523
3.61333	522
3.61700	520
3.62067	519
3.62433	518
3.62800	515
3.63167	511
3.63533	509
3.63900	508
3.64267	507
3.64633	508
3.65000	509
3.65367	510
3.65733	509
3.66100	507
3.66467	506
3.66833	505
3.67200	503
3.67567	500
3.67933	496
3.68300	493
3.68667	493
3.69033	492
3.69400	489
3.69767	487
3.70133	487
3.70500	488
3.70867	488
3.71233	489
3.71600	491
3.71967	492
3.72333	491
3.72700	490
3.73067	490
3.73433	489
3.73800	488
3.74167	485
3.74533	484
3.74900	481
3.75267	480
3.75633	479
3.76000	478
3.76367	480
3.76733	480
3.77100	479
3.77467	478
3.77833	477
3.78200	475
3.78567	474
3.78933	475
3.79300	477
3.79667	478
3.80033	478
3.80400	478
3.80767	480
3.81133	481
3.81500	481
3.81867	481
3.82233	483
3.82600	483
3.82967	482
3.83333	480
3.83700	478
3.84067	478
3.84433	477
3.84800	478
3.85167	479
3.85533	478
3.85900	475
3.86267	473
3.86633	472
3.87000	471
3.87367	470
3.87733	470
3.88100	473
3.88467	473
3.88833	471
3.89200	469
3.89567	467
3.89933	466
3.90300	464
3.90667	460
3.91033	458
3.91400	457
3.91767	457
3.92133	458
3.92500	461
3.92867	462
3.93233	461
3.93600	459
3.93967	456
3.94333	455
3.94700	455
3.95067	454
3.95433	451
3.95800	449
3.96167	447
3.96533	445
3.96900	443
3.97267	442
3.97633	440
3.98000	437
3.98367	436
3.98733	434
3.99100	432
3.99467	430
3.99833	427

[Status Trace (Column Oven Temperature)]
Interval(msec)	1000
# of Points	240
Start Time(min)	0.012
End Time(min)	3.996
Intensity Units	
Intensity Multiplier	1
R.Time (min)	Intensity
0.01245	35.04
0.02912	35.04
0.04578	35.02
0.06245	35.01
0.07912	35.02
0.09578	35.03
0.11245	35.02
0.12912	35.03
0.14578	35.04
0.16245	35.03
0.17912	35.03
0.19578	35.02
0.21245	35.02
0.22912	35.00
0.24578	34.99
0.26245	34.99
0.27912	34.99
0.29578	35.00
0.31245	35.00
0.32912	35.01
0.34578	35.01
0.36245	35.02
0.37912	35.02
0.39578	35.04
0.41245	35.05
0.42912	35.05
0.44578	35.04
0.46245	35.03
0.47912	35.03
0.49578	35.03
0.51245	35.03
0.52912	35.03
0.54578	35.02
0.56245	35.01
0.57912	35.00
0.59578	35.00
0.61245	35.00
0.62912	35.00
0.64578	35.00
0.66245	35.00
0.67912	34.99
0.69578	34.99
0.71245	34.99
0.72912	35.00
0.74578	34.99
0.76245	34.99
0.77912	35.00
0.79578	35.00
0.81245	35.00
0.82912	35.00
0.84578	35.01
0.86245	35.01
0.87912	35.01
0.89578	35.00
0.91245	34.99
0.92912	34.98
0.94578	34.98
0.96245	34.99
0.97912	34.99
0.99578	34.99
1.01245	34.99
1.02912	34.98
1.04578	34.98
1.06245	34.99
1.07912	34.99
1.09578	35.00
1.11245	35.00
1.12912	35.01
1.14578	35.02
1.16245	35.02
1.17912	35.03
1.19578	35.03
1.21245	35.02
1.22912	35.02
1.24578	35.02
1.26245	35.02
1.27912	35.01
1.29578	34.99
1.31245	34.98
1.32912	34.97
1.34578	34.96
1.36245	34.96
1.37912	34.96
1.39578	34.97
1.41245	34.98
1.42912	34.98
1.44578	34.98
1.46245	34.99
1.47912	35.00
1.49578	35.00
1.51245	34.99
1.52912	34.99
1.54578	34.99
1.56245	35.00
1.57912	35.00
1.59578	35.02
1.61245	35.09
1.62912	35.24
1.64578	35.43
1.66245	35.70
1.67912	36.05
1.69578	36.41
1.71245	36.76
1.72912	37.09
1.74578	37.44
1.76245	37.77
1.77912	38.09
1.79578	38.45
1.81245	38.76
1.82912	39.09
1.84578	39.42
1.86245	39.74
1.87912	40.09
1.89578	40.40
1.91245	40.72
1.92912	41.06
1.94578	41.38
1.96245	41.71
1.97912	42.03
1.99578	42.35
2.01245	42.67
2.02912	43.00
2.04578	43.31
2.06245	43.64
2.07912	43.97
2.09578	44.30
2.11245	44.61
2.12912	44.95
2.14578	45.26
2.16245	45.58
2.17912	45.90
2.19578	46.26
2.21245	46.63
2.22912	46.93
2.24578	47.25
2.26245	47.58
2.27912	47.92
2.29578	48.27
2.31245	48.61
2.32912	48.95
2.34578	49.20
2.36245	49.48
2.37912	49.64
2.39578	49.69
2.41245	49.67
2.42912	49.70
2.44578	49.71
2.46245	49.72
2.47912	49.72
2.49578	49.73
2.51245	49.73
2.52912	49.76
2.54578	49.77
2.56245	49.78
2.57912	49.80
2.59578	49.81
2.61245	49.85
2.62912	49.85
2.64578	49.83
2.66245	49.83
2.67912	49.84
2.69578	49.87
2.71245	49.88
2.72912	49.88
2.74578	49.87
2.76245	49.84
2.77912	49.86
2.79578	49.88
2.81245	49.90
2.82912	49.91
2.84578	49.91
2.86245	49.92
2.87912	49.92
2.89578	49.92
2.91245	49.93
2.92912	49.93
2.94578	49.94
2.96245	49.96
2.97912	49.98
2.99578	49.98
3.01245	50.00
3.02912	50.01
3.04578	50.02
3.06245	50.03
3.07912	50.03
3.09578	50.05
3.11245	50.06
3.12912	50.05
3.14578	50.05
3.16245	50.06
3.17912	50.06
3.19578	50.06
3.21245	50.07
3.22912	50.07
3.24578	50.08
3.26245	50.09
3.27912	50.09
3.29578	50.10
3.31245	50.11
3.32912	50.10
3.34578	50.09
3.36245	50.08
3.37912	50.07
3.39578	50.07
3.41245	50.08
3.42912	50.08
3.44578	50.08
3.46245	50.07
3.47912	50.08
3.49578	50.08
3.51245	50.08
3.52912	50.08
3.54578	50.07
3.56245	50.07
3.57912	50.07
3.59578	50.07
3.61245	50.06
3.62912	50.07
3.64578	50.07
3.66245	50.06
3.67912	50.05
3.69578	50.05
3.71245	50.06
3.72912	50.06
3.74578	50.06
3.76245	50.06
3.77912	50.05
3.79578	50.04
3.81245	50.05
3.82912	50.04
3.84578	50.04
3.86245	50.03
3.87912	50.04
3.89578	50.04
3.91245	50.05
3.92912	50.07
3.94578	50.09
3.96245	50.08
3.97912	50.08
3.99578	50.07

[Status Trace (Injection Unit Temperature)]
Interval(msec)	1000
# of Points	240
Start Time(min)	0.012
End Time(min)	3.996
Intensity Units	
Intensity Multiplier	1
R.Time (min)	Intensity
0.01245	99.98
0.02912	99.98
0.04578	99.98
0.06245	99.98
0.07912	99.98
0.09578	99.98
0.11245	99.98
0.12912	99.98
0.14578	99.98
0.16245	99.98
0.17912	99.98
0.19578	99.98
0.21245	99.98
0.22912	99.98
0.24578	99.98
0.26245	99.98
0.27912	99.98
0.29578	99.98
0.31245	99.98
0.32912	99.99
0.34578	99.98
0.36245	99.99
0.37912	99.99
0.39578	99.98
0.41245	99.98
0.42912	99.98
0.44578	99.99
0.46245	99.98
0.47912	99.99
0.49578	99.99
0.51245	99.99
0.52912	99.99
0.54578	99.99
0.56245	99.99
0.57912	99.99
0.59578	99.99
0.61245	99.99
0.62912	99.99
0.64578	99.98
0.66245	99.99
0.67912	99.99
0.69578	99.98
0.71245	99.99
0.72912	99.99
0.74578	99.99
0.76245	99.99
0.77912	99.98
0.79578	99.98
0.81245	99.98
0.82912	99.98
0.84578	99.98
0.86245	99.98
0.87912	99.98
0.89578	99.98
0.91245	99.98
0.92912	99.98
0.94578	99.98
0.96245	99.98
0.97912	99.98
0.99578	99.98
1.01245	99.98
1.02912	99.98
1.04578	99.98
1.06245	99.98
1.07912	99.98
1.09578	99.97
1.11245	99.98
1.12912	99.98
1.14578	99.98
1.16245	99.98
1.17912	99.98
1.19578	99.97
1.21245	99.98
1.22912	99.98
1.24578	99.98
1.26245	99.98
1.27912	99.97
1.29578	99.98
1.31245	99.98
1.32912	99.98
1.34578	99.98
1.36245	99.98
1.37912	99.98
1.39578	99.98
1.41245	99.98
1.42912	99.98
1.44578	99.98
1.46245	99.98
1.47912	99.98
1.49578	99.98
1.51245	99.98
1.52912	99.98
1.54578	99.98
1.56245	99.98
1.57912	99.99
1.59578	99.99
1.61245	99.99
1.62912	99.98
1.64578	99.98
1.66245	99.99
1.67912	99.98
1.69578	99.98
1.71245	99.98
1.72912	99.98
1.74578	99.98
1.76245	99.98
1.77912	99.98
1.79578	99.98
1.81245	99.98
1.82912	99.98
1.84578	99.98
1.86245	99.98
1.87912	99.98
1.89578	99.98
1.91245	99.98
1.92912	99.98
1.94578	99.98
1.96245	99.98
1.97912	99.98
1.99578	99.98
2.01245	99.98
2.02912	99.97
2.04578	99.97
2.06245	99.97
2.07912	99.97
2.09578	99.97
2.11245	99.97
2.12912	99.97
2.14578	99.97
2.16245	99.97
2.17912	99.97
2.19578	99.97
2.21245	99.97
2.22912	99.97
2.24578	99.97
2.26245	99.97
2.27912	99.97
2.29578	99.97
2.31245	99.97
2.32912	99.96
2.34578	99.96
2.36245	99.97
2.37912	99.97
2.39578	99.96
2.41245	99.97
2.42912	99.97
2.44578	99.97
2.46245	99.97
2.47912	99.97
2.49578	99.97
2.51245	99.97
2.52912	99.97
2.54578	99.97
2.56245	99.97
2.57912	99.97
2.59578	99.97
2.61245	99.98
2.62912	99.97
2.64578	99.98
2.66245	99.97
2.67912	99.97
2.69578	99.98
2.71245	99.98
2.72912	99.99
2.74578	99.98
2.76245	99.98
2.77912	99.99
2.79578	99.99
2.81245	99.99
2.82912	99.99
2.84578	99.99
2.86245	99.99
2.87912	99.99
2.89578	100.00
2.91245	100.00
2.92912	100.00
2.94578	100.00
2.96245	100.01
2.97912	100.01
2.99578	100.01
3.01245	100.01
3.02912	100.01
3.04578	100.00
3.06245	100.02
3.07912	100.01
3.09578	100.01
3.11245	100.02
3.12912	100.02
3.14578	100.02
3.16245	100.02
3.17912	100.02
3.19578	100.02
3.21245	100.02
3.22912	100.02
3.24578	100.02
3.26245	100.02
3.27912	100.03
3.29578	100.02
3.31245	100.03
3.32912	100.03
3.34578	100.02
3.36245	100.02
3.37912	100.03
3.39578	100.02
3.41245	100.02
3.42912	100.02
3.44578	100.03
3.46245	100.02
3.47912	100.02
3.49578	100.03
3.51245	100.03
3.52912	100.03
3.54578	100.03
3.56245	100.02
3.57912	100.03
3.59578	100.03
3.61245	100.03
3.62912	100.03
3.64578	100.03
3.66245	100.03
3.67912	100.03
3.69578	100.04
3.71245	100.03
3.72912	100.04
3.74578	100.04
3.76245	100.04
3.77912	100.04
3.79578	100.04
3.81245	100.04
3.82912	100.04
3.84578	100.04
3.86245	100.04
3.87912	100.04
3.89578	100.04
3.91245	100.04
3.92912	100.04
3.94578	100.05
3.96245	100.05
3.97912	100.04
3.99578	100.05

[Status Trace (Carrier Gas Pressure)]
Interval(msec)	1000
# of Points	240
Start Time(min)	0.012
End Time(min)	3.996
Intensity Units	
Intensity Multiplier	1
R.Time (min)	Intensity
0.01245	57.99
0.02912	54.96
0.04578	57.77
0.06245	59.69
0.07912	58.88
0.09578	57.99
0.11245	57.99
0.12912	58.01
0.14578	58.01
0.16245	58.00
0.17912	58.00
0.19578	58.00
0.21245	58.00
0.22912	58.00
0.24578	58.00
0.26245	58.00
0.27912	58.00
0.29578	58.00
0.31245	58.00
0.32912	58.00
0.34578	58.00
0.36245	58.00
0.37912	58.00
0.39578	58.00
0.41245	58.00
0.42912	58.00
0.44578	58.00
0.46245	58.00
0.47912	58.00
0.49578	58.00
0.51245	58.00
0.52912	58.00
0.54578	58.00
0.56245	58.00
0.57912	58.00
0.59578	58.00
0.61245	58.00
0.62912	58.00
0.64578	58.00
0.66245	58.00
0.67912	58.00
0.69578	58.00
0.71245	58.00
0.72912	58.00
0.74578	58.00
0.76245	58.00
0.77912	58.00
0.79578	58.00
0.81245	58.00
0.82912	58.00
0.84578	58.00
0.86245	58.00
0.87912	58.00
0.89578	58.00
0.91245	58.00
0.92912	58.00
0.94578	58.00
0.96245	58.00
0.97912	58.00
0.99578	58.00
1.01245	58.00
1.02912	58.00
1.04578	58.00
1.06245	58.00
1.07912	58.00
1.09578	58.00
1.11245	58.00
1.12912	58.00
1.14578	58.00
1.16245	58.00
1.17912	58.00
1.19578	58.00
1.21245	58.00
1.22912	58.00
1.24578	58.00
1.26245	58.00
1.27912	58.00
1.29578	58.00
1.31245	58.00
1.32912	58.00
1.34578	58.00
1.36245	58.00
1.37912	58.00
1.39578	58.00
1.41245	58.00
1.42912	58.00
1.44578	58.00
1.46245	58.00
1.47912	58.00
1.49578	58.00
1.51245	58.00
1.52912	58.00
1.54578	58.00
1.56245	58.00
1.57912	58.00
1.59578	58.00
1.61245	58.00
1.62912	58.00
1.64578	58.00
1.66245	58.00
1.67912	58.01
1.69578	58.00
1.71245	58.00
1.72912	58.00
1.74578	58.00
1.76245	58.00
1.77912	58.00
1.79578	58.00
1.81245	58.00
1.82912	58.00
1.84578	58.00
1.86245	58.00
1.87912	58.00
1.89578	58.00
1.91245	58.00
1.92912	58.00
1.94578	58.00
1.96245	58.00
1.97912	58.00
1.99578	58.00
2.01245	58.00
2.02912	58.00
2.04578	58.00
2.06245	58.00
2.07912	58.00
2.09578	58.00
2.11245	58.00
2.12912	58.00
2.14578	58.00
2.16245	58.00
2.17912	58.00
2.19578	58.00
2.21245	58.00
2.22912	58.00
2.24578	58.00
2.26245	58.00
2.27912	58.00
2.29578	58.00
2.31245	58.00
2.32912	58.00
2.34578	58.00
2.36245	58.00
2.37912	58.00
2.39578	57.99
2.41245	57.99
2.42912	58.00
2.44578	58.00
2.46245	58.00
2.47912	58.00
2.49578	58.00
2.51245	57.99
2.52912	57.99
2.54578	58.00
2.56245	58.00
2.57912	58.00
2.59578	58.00
2.61245	58.00
2.62912	58.00
2.64578	58.00
2.66245	58.00
2.67912	58.00
2.69578	58.00
2.71245	58.00
2.72912	58.00
2.74578	58.00
2.76245	58.00
2.77912	58.00
2.79578	58.00
2.81245	58.00
2.82912	58.00
2.84578	58.00
2.86245	58.00
2.87912	58.00
2.89578	58.00
2.91245	58.00
2.92912	58.00
2.94578	58.00
2.96245	58.00
2.97912	58.00
2.99578	58.00
3.01245	58.00
3.02912	58.00
3.04578	58.00
3.06245	58.00
3.07912	58.00
3.09578	58.00
3.11245	58.00
3.12912	58.00
3.14578	58.00
3.16245	58.00
3.17912	58.00
3.19578	58.00
3.21245	58.00
3.22912	58.00
3.24578	58.00
3.26245	58.00
3.27912	58.00
3.29578	58.00
3.31245	58.00
3.32912	58.00
3.34578	58.00
3.36245	58.00
3.37912	58.00
3.39578	58.00
3.41245	58.00
3.42912	58.00
3.44578	58.00
3.46245	58.00
3.47912	58.00
3.49578	58.00
3.51245	58.00
3.52912	58.00
3.54578	58.00
3.56245	58.00
3.57912	58.00
3.59578	58.00
3.61245	58.00
3.62912	58.00
3.64578	58.00
3.66245	58.00
3.67912	58.00
3.69578	58.00
3.71245	58.00
3.72912	58.00
3.74578	58.00
3.76245	58.00
3.77912	58.00
3.79578	58.00
3.81245	58.00
3.82912	58.00
3.84578	58.00
3.86245	58.00
3.87912	58.00
3.89578	58.00
3.91245	58.00
3.92912	58.00
3.94578	58.00
3.96245	58.00
3.97912	58.00
3.99578	58.00

[Status Trace (Carrier Gas Flow)]
Interval(msec)	1000
# of Points	240
Start Time(min)	0.012
End Time(min)	3.996
Intensity Units	
Intensity Multiplier	1
R.Time (min)	Intensity
0.01245	34.55
0.02912	34.53
0.04578	34.54
0.06245	34.53
0.07912	34.50
0.09578	34.51
0.11245	34.52
0.12912	34.52
0.14578	34.52
0.16245	34.51
0.17912	34.52
0.19578	34.52
0.21245	34.52
0.22912	34.52
0.24578	34.52
0.26245	34.52
0.27912	34.52
0.29578	34.52
0.31245	34.52
0.32912	34.52
0.34578	34.53
0.36245	34.51
0.37912	34.52
0.39578	34.52
0.41245	34.52
0.42912	34.52
0.44578	34.51
0.46245	34.52
0.47912	34.51
0.49578	34.52
0.51245	34.52
0.52912	34.52
0.54578	34.52
0.56245	34.52
0.57912	34.51
0.59578	34.52
0.61245	34.52
0.62912	34.51
0.64578	34.52
0.66245	34.52
0.67912	34.52
0.69578	34.52
0.71245	34.52
0.72912	34.52
0.74578	34.52
0.76245	34.52
0.77912	34.52
0.79578	34.52
0.81245	34.51
0.82912	34.52
0.84578	34.52
0.86245	34.52
0.87912	34.52
0.89578	34.52
0.91245	34.52
0.92912	34.52
0.94578	34.52
0.96245	34.52
0.97912	34.51
0.99578	34.52
1.01245	34.52
1.02912	34.52
1.04578	34.52
1.06245	34.52
1.07912	34.52
1.09578	34.52
1.11245	34.52
1.12912	34.52
1.14578	34.52
1.16245	34.52
1.17912	34.52
1.19578	34.51
1.21245	34.52
1.22912	34.52
1.24578	34.52
1.26245	34.52
1.27912	34.52
1.29578	34.52
1.31245	34.52
1.32912	34.52
1.34578	34.52
1.36245	34.52
1.37912	34.51
1.39578	34.51
1.41245	34.52
1.42912	34.52
1.44578	34.52
1.46245	34.52
1.47912	34.52
1.49578	34.52
1.51245	34.52
1.52912	34.52
1.54578	34.52
1.56245	34.52
1.57912	34.52
1.59578	34.52
1.61245	34.52
1.62912	34.52
1.64578	34.52
1.66245	34.52
1.67912	34.52
1.69578	34.52
1.71245	34.52
1.72912	34.52
1.74578	34.52
1.76245	34.52
1.77912	34.52
1.79578	34.52
1.81245	34.52
1.82912	34.52
1.84578	34.52
1.86245	34.52
1.87912	34.51
1.89578	34.52
1.91245	34.52
1.92912	34.52
1.94578	34.52
1.96245	34.51
1.97912	34.52
1.99578	34.52
2.01245	34.52
2.02912	34.52
2.04578	34.52
2.06245	34.52
2.07912	34.52
2.09578	34.52
2.11245	34.52
2.12912	34.52
2.14578	34.52
2.16245	34.52
2.17912	34.52
2.19578	34.52
2.21245	34.51
2.22912	34.52
2.24578	34.52
2.26245	34.52
2.27912	34.52
2.29578	34.52
2.31245	34.52
2.32912	34.51
2.34578	34.52
2.36245	34.52
2.37912	34.52
2.39578	34.52
2.41245	34.52
2.42912	34.51
2.44578	34.52
2.46245	34.52
2.47912	34.52
2.49578	34.52
2.51245	34.52
2.52912	34.51
2.54578	34.52
2.56245	34.52
2.57912	34.52
2.59578	34.52
2.61245	34.52
2.62912	34.52
2.64578	34.52
2.66245	34.52
2.67912	34.52
2.69578	34.51
2.71245	34.52
2.72912	34.52
2.74578	34.52
2.76245	34.52
2.77912	34.52
2.79578	34.52
2.81245	34.52
2.82912	34.51
2.84578	34.51
2.86245	34.52
2.87912	34.52
2.89578	34.52
2.91245	34.52
2.92912	34.52
2.94578	34.52
2.96245	34.52
2.97912	34.52
2.99578	34.52
3.01245	34.52
3.02912	34.52
3.04578	34.52
3.06245	34.51
3.07912	34.52
3.09578	34.52
3.11245	34.52
3.12912	34.52
3.14578	34.52
3.16245	34.51
3.17912	34.52
3.19578	34.52
3.21245	34.52
3.22912	34.52
3.24578	34.51
3.26245	34.53
3.27912	34.52
3.29578	34.52
3.31245	34.52
3.32912	34.52
3.34578	34.52
3.36245	34.52
3.37912	34.52
3.39578	34.52
3.41245	34.52
3.42912	34.52
3.44578	34.52
3.46245	34.52
3.47912	34.52
3.49578	34.52
3.51245	34.52
3.52912	34.52
3.54578	34.51
3.56245	34.52
3.57912	34.52
3.59578	34.52
3.61245	34.51
3.62912	34.52
3.64578	34.52
3.66245	34.52
3.67912	34.52
3.69578	34.52
3.71245	34.52
3.72912	34.52
3.74578	34.52
3.76245	34.52
3.77912	34.52
3.79578	34.52
3.81245	34.52
3.82912	34.52
3.84578	34.52
3.86245	34.52
3.87912	34.52
3.89578	34.52
3.91245	34.52
3.92912	34.52
3.94578	34.52
3.96245	34.52
3.97912	34.52
3.99578	34.52

[Status Trace (Column Flow)]
Interval(msec)	1000
# of Points	240
Start Time(min)	0.012
End Time(min)	3.996
Intensity Units	
Intensity Multiplier	1
R.Time (min)	Intensity
0.01245	5.57
0.02912	5.21
0.04578	5.54
0.06245	5.77
0.07912	5.67
0.09578	5.57
0.11245	5.57
0.12912	5.57
0.14578	5.57
0.16245	5.57
0.17912	5.57
0.19578	5.57
0.21245	5.57
0.22912	5.57
0.24578	5.57
0.26245	5.57
0.27912	5.57
0.29578	5.57
0.31245	5.57
0.32912	5.57
0.34578	5.57
0.36245	5.57
0.37912	5.57
0.39578	5.57
0.41245	5.57
0.42912	5.57
0.44578	5.57
0.46245	5.57
0.47912	5.57
0.49578	5.57
0.51245	5.57
0.52912	5.57
0.54578	5.57
0.56245	5.57
0.57912	5.57
0.59578	5.57
0.61245	5.57
0.62912	5.57
0.64578	5.57
0.66245	5.57
0.67912	5.57
0.69578	5.57
0.71245	5.57
0.72912	5.57
0.74578	5.57
0.76245	5.57
0.77912	5.57
0.79578	5.57
0.81245	5.57
0.82912	5.57
0.84578	5.57
0.86245	5.57
0.87912	5.57
0.89578	5.57
0.91245	5.57
0.92912	5.57
0.94578	5.57
0.96245	5.57
0.97912	5.57
0.99578	5.57
1.01245	5.57
1.02912	5.57
1.04578	5.57
1.06245	5.57
1.07912	5.57
1.09578	5.57
1.11245	5.57
1.12912	5.57
1.14578	5.57
1.16245	5.57
1.17912	5.57
1.19578	5.57
1.21245	5.57
1.22912	5.57
1.24578	5.57
1.26245	5.57
1.27912	5.57
1.29578	5.57
1.31245	5.57
1.32912	5.57
1.34578	5.57
1.36245	5.57
1.37912	5.57
1.39578	5.57
1.41245	5.57
1.42912	5.57
1.44578	5.57
1.46245	5.57
1.47912	5.57
1.49578	5.57
1.51245	5.57
1.52912	5.57
1.54578	5.57
1.56245	5.57
1.57912	5.57
1.59578	5.57
1.61245	5.57
1.62912	5.56
1.64578	5.56
1.66245	5.55
1.67912	5.54
1.69578	5.52
1.71245	5.51
1.72912	5.50
1.74578	5.49
1.76245	5.48
1.77912	5.47
1.79578	5.46
1.81245	5.45
1.82912	5.44
1.84578	5.43
1.86245	5.42
1.87912	5.41
1.89578	5.40
1.91245	5.39
1.92912	5.38
1.94578	5.37
1.96245	5.36
1.97912	5.35
1.99578	5.34
2.01245	5.33
2.02912	5.32
2.04578	5.31
2.06245	5.31
2.07912	5.29
2.09578	5.28
2.11245	5.28
2.12912	5.27
2.14578	5.26
2.16245	5.25
2.17912	5.24
2.19578	5.23
2.21245	5.22
2.22912	5.21
2.24578	5.20
2.26245	5.19
2.27912	5.18
2.29578	5.17
2.31245	5.16
2.32912	5.15
2.34578	5.14
2.36245	5.14
2.37912	5.13
2.39578	5.13
2.41245	5.13
2.42912	5.13
2.44578	5.13
2.46245	5.13
2.47912	5.13
2.49578	5.13
2.51245	5.13
2.52912	5.13
2.54578	5.13
2.56245	5.13
2.57912	5.13
2.59578	5.13
2.61245	5.13
2.62912	5.13
2.64578	5.13
2.66245	5.13
2.67912	5.13
2.69578	5.13
2.71245	5.13
2.72912	5.13
2.74578	5.13
2.76245	5.13
2.77912	5.13
2.79578	5.13
2.81245	5.12
2.82912	5.12
2.84578	5.12
2.86245	5.12
2.87912	5.12
2.89578	5.12
2.91245	5.12
2.92912	5.12
2.94578	5.12
2.96245	5.12
2.97912	5.12
2.99578	5.12
3.01245	5.12
3.02912	5.12
3.04578	5.12
3.06245	5.12
3.07912	5.12
3.09578	5.12
3.11245	5.12
3.12912	5.12
3.14578	5.12
3.16245	5.12
3.17912	5.12
3.19578	5.12
3.21245	5.12
3.22912	5.12
3.24578	5.12
3.26245	5.12
3.27912	5.12
3.29578	5.12
3.31245	5.12
3.32912	5.12
3.34578	5.12
3.36245	5.12
3.37912	5.12
3.39578	5.12
3.41245	5.12
3.42912	5.12
3.44578	5.12
3.46245	5.12
3.47912	5.12
3.49578	5.12
3.51245	5.12
3.52912	5.12
3.54578	5.12
3.56245	5.12
3.57912	5.12
3.59578	5.12
3.61245	5.12
3.62912	5.12
3.64578	5.12
3.66245	5.12
3.67912	5.12
3.69578	5.12
3.71245	5.12
3.72912	5.12
3.74578	5.12
3.76245	5.12
3.77912	5.12
3.79578	5.12
3.81245	5.12
3.82912	5.12
3.84578	5.12
3.86245	5.12
3.87912	5.12
3.89578	5.12
3.91245	5.12
3.92912	5.12
3.94578	5.12
3.96245	5.12
3.97912	5.12
3.99578	5.12

[Status Trace (Linear Velocity)]
Interval(msec)	1000
# of Points	240
Start Time(min)	0.012
End Time(min)	3.996
Intensity Units	
Intensity Multiplier	1
R.Time (min)	Intensity
0.01245	39.02
0.02912	37.03
0.04578	38.88
0.06245	40.14
0.07912	39.60
0.09578	39.02
0.11245	39.02
0.12912	39.03
0.14578	39.03
0.16245	39.03
0.17912	39.03
0.19578	39.03
0.21245	39.03
0.22912	39.03
0.24578	39.03
0.26245	39.03
0.27912	39.03
0.29578	39.03
0.31245	39.03
0.32912	39.03
0.34578	39.03
0.36245	39.03
0.37912	39.03
0.39578	39.02
0.41245	39.02
0.42912	39.02
0.44578	39.02
0.46245	39.02
0.47912	39.02
0.49578	39.02
0.51245	39.03
0.52912	39.03
0.54578	39.03
0.56245	39.03
0.57912	39.03
0.59578	39.03
0.61245	39.03
0.62912	39.03
0.64578	39.03
0.66245	39.03
0.67912	39.03
0.69578	39.03
0.71245	39.03
0.72912	39.03
0.74578	39.03
0.76245	39.03
0.77912	39.03
0.79578	39.03
0.81245	39.03
0.82912	39.03
0.84578	39.03
0.86245	39.03
0.87912	39.03
0.89578	39.03
0.91245	39.03
0.92912	39.03
0.94578	39.03
0.96245	39.03
0.97912	39.03
0.99578	39.03
1.01245	39.03
1.02912	39.03
1.04578	39.03
1.06245	39.03
1.07912	39.03
1.09578	39.03
1.11245	39.03
1.12912	39.03
1.14578	39.03
1.16245	39.03
1.17912	39.02
1.19578	39.02
1.21245	39.03
1.22912	39.03
1.24578	39.03
1.26245	39.03
1.27912	39.03
1.29578	39.03
1.31245	39.03
1.32912	39.03
1.34578	39.03
1.36245	39.03
1.37912	39.03
1.39578	39.03
1.41245	39.03
1.42912	39.03
1.44578	39.03
1.46245	39.03
1.47912	39.03
1.49578	39.03
1.51245	39.03
1.52912	39.03
1.54578	39.03
1.56245	39.03
1.57912	39.03
1.59578	39.03
1.61245	39.02
1.62912	39.01
1.64578	38.99
1.66245	38.97
1.67912	38.93
1.69578	38.89
1.71245	38.86
1.72912	38.83
1.74578	38.80
1.76245	38.77
1.77912	38.73
1.79578	38.70
1.81245	38.67
1.82912	38.64
1.84578	38.61
1.86245	38.58
1.87912	38.54
1.89578	38.52
1.91245	38.49
1.92912	38.45
1.94578	38.42
1.96245	38.40
1.97912	38.36
1.99578	38.33
2.01245	38.31
2.02912	38.27
2.04578	38.25
2.06245	38.22
2.07912	38.18
2.09578	38.15
2.11245	38.13
2.12912	38.10
2.14578	38.07
2.16245	38.04
2.17912	38.01
2.19578	37.98
2.21245	37.95
2.22912	37.92
2.24578	37.89
2.26245	37.86
2.27912	37.83
2.29578	37.80
2.31245	37.77
2.32912	37.74
2.34578	37.71
2.36245	37.69
2.37912	37.67
2.39578	37.67
2.41245	37.67
2.42912	37.67
2.44578	37.67
2.46245	37.67
2.47912	37.67
2.49578	37.67
2.51245	37.66
2.52912	37.66
2.54578	37.66
2.56245	37.66
2.57912	37.66
2.59578	37.66
2.61245	37.66
2.62912	37.66
2.64578	37.66
2.66245	37.66
2.67912	37.66
2.69578	37.66
2.71245	37.65
2.72912	37.65
2.74578	37.65
2.76245	37.66
2.77912	37.66
2.79578	37.65
2.81245	37.65
2.82912	37.65
2.84578	37.65
2.86245	37.65
2.87912	37.65
2.89578	37.65
2.91245	37.65
2.92912	37.65
2.94578	37.65
2.96245	37.65
2.97912	37.65
2.99578	37.64
3.01245	37.64
3.02912	37.64
3.04578	37.64
3.06245	37.64
3.07912	37.64
3.09578	37.64
3.11245	37.64
3.12912	37.64
3.14578	37.64
3.16245	37.64
3.17912	37.64
3.19578	37.64
3.21245	37.64
3.22912	37.64
3.24578	37.64
3.26245	37.64
3.27912	37.63
3.29578	37.63
3.31245	37.63
3.32912	37.63
3.34578	37.63
3.36245	37.64
3.37912	37.64
3.39578	37.64
3.41245	37.64
3.42912	37.64
3.44578	37.64
3.46245	37.64
3.47912	37.64
3.49578	37.64
3.51245	37.64
3.52912	37.64
3.54578	37.64
3.56245	37.64
3.57912	37.64
3.59578	37.64
3.61245	37.64
3.62912	37.64
3.64578	37.64
3.66245	37.64
3.67912	37.64
3.69578	37.64
3.71245	37.64
3.72912	37.64
3.74578	37.64
3.76245	37.64
3.77912	37.64
3.79578	37.64
3.81245	37.64
3.82912	37.64
3.84578	37.64
3.86245	37.64
3.87912	37.64
3.89578	37.64
3.91245	37.64
3.92912	37.64
3.94578	37.64
3.96245	37.64
3.97912	37.64
3.99578	37.64

