[Header]
Application Name	LabSolutions
Version	5.110
Data File Name	C:\Users\User\Desktop\GC Analyses\Jack\Nachusa Grasslands Sampling\T1 Timepoint July 12th\T1_07122022_053.gcd
Output Date	3/14/2023
Output Time	3:41:00 PM

[File Information]
Type	Data File
Generated	3/8/2023 7:06:47 PM
Generated by	System Administrator
Modified	3/8/2023 7:13:36 PM
Modified by	System Administrator

[Sample Information]
Operator Name	System Administrator
Acquired	3/8/2023 7:09:36 PM
Sample Type	0:Unknown
Level	0
Sample Name	053
Sample ID	053
ISTD Amount1	1
ISTD Amount2	1
ISTD Amount3	1
ISTD Amount4	1
ISTD Amount5	1
ISTD Amount6	1
ISTD Amount7	1
ISTD Amount8	1
ISTD Amount9	1
ISTD Amount10	1
ISTD Amount11	1
ISTD Amount12	1
ISTD Amount13	1
ISTD Amount14	1
ISTD Amount15	1
ISTD Amount16	1
ISTD Amount17	1
ISTD Amount18	1
ISTD Amount19	1
ISTD Amount20	1
ISTD Amount21	1
ISTD Amount22	1
ISTD Amount23	1
ISTD Amount24	1
ISTD Amount25	1
ISTD Amount26	1
ISTD Amount27	1
ISTD Amount28	1
ISTD Amount29	1
ISTD Amount30	1
ISTD Amount31	1
ISTD Amount32	1
Sample Amount	1
Dilution Factor	1
Vial#	52
Injection Volume	1
Injection Count	1
Bar Code	

[Original Files]
Data File	C:\Users\User\Desktop\GC Analyses\Jack\Nachusa Grasslands Sampling\T1 Timepoint July 12th\T1_07122022_053.gcd
Method File	C:\LabSolutions\Data\GHG_4min_2022\ghg3_togas_w_acet_4 min_new_int.gcm
Batch File	C:\LabSolutions\Data\AutoSamplerTesting\T1_07122022.gcb
Report Format File	c:\LabSolutions\System\DEFAULT.lsr

[File Description]


[Configuration]
Instrument Name	C0B7VH3-Instrument1
Instrument #	1
Line #	1
# of Detectors	3
Detector ID	DET#1	DET#2	DET#3
Detector Name	FID	PTCD	ECD
# of Channels	1	1	1

[Peak Table(Ch1)]
# of Peaks	3
Peak#	R.Time	I.Time	F.Time	Area	Height	A/H	Conc.	Mark	ID#	Name	k'	Plate #	Plate Ht.	Tailing	Resolution	Sep.Factor	Area Ratio	Height Ratio	Conc. %	Norm Conc.
1	1.465	1.435	1.534	2693	749	3.595	19.014	   	1	CO	0.000	4256	35.241	0.000	0.000	0.000	0	0	2.046	2.046
2	1.567	1.534	1.648	20006	10039	1.993	386.839	 V 	2	CH4	0.070	11323	13.247	1.258	1.381	0.000	0	0	41.631	41.631
3	1.996	1.938	2.568	2085272	983550	2.120	523.347	   	3	CO2	0.363	17146	8.748	1.298	7.156	5.179	0	0	56.322	56.322

[Peak Table(Ch2)]
# of Peaks	0

[Peak Table(Ch3)]
# of Peaks	5
Peak#	R.Time	I.Time	F.Time	Area	Height	A/H	Conc.	Mark	ID#	Name	k'	Plate #	Plate Ht.	Tailing	Resolution	Sep.Factor	Area Ratio	Height Ratio	Conc. %	Norm Conc.
1	2.462	2.271	2.513	2063	485	4.251	0.000	   			0.000	7745	19.367	0.000	0.000	0.000	0	0	0.000	0.000
2	2.539	2.513	2.631	1249	282	4.422	0.000	 V 			0.031	3247	46.198	0.000	0.531	0.000	0	0	0.000	0.000
3	2.675	2.645	2.752	148	48	3.071	0.000	   			0.086	19214	7.807	1.740	1.062	2.762	0	0	0.000	0.000
4	2.873	2.803	3.067	59407	15305	3.881	1.517	   	1	N2O	0.167	12600	11.905	1.653	2.206	1.931	0	0	100.000	100.000
5	3.221	3.074	3.995	14634	494	29.611	0.000	   	2	SF6	0.308	276	542.718	3.109	0.794	1.848	0	0	0.000	0.000

[Compound Results(Ch1)]
# of IDs	6
ID#	Name	R.Time	Area	Height	Conc.	Curve	3rd	2nd	1st	Constant	Area Ratio	Height Ratio	Conc. %	Norm Conc.
1	CO	1.465	2693	749	19.014	Linear	0.000000e+00	0.000000e+00	1.416423e+002	0.000000e+00	0	0	2.046	2.046
2	CH4	1.567	20006	10039	386.839	Linear	0.000000e+00	0.000000e+00	5.171738e+001	0.000000e+00	0	0	41.631	41.631
3	CO2	1.996	2085272	983550	523.347	Linear	0.000000e+00	0.000000e+00	3.984494e+003	0.000000e+00	0	0	56.322	56.322
4	Ethylene	0.000	0	0	0.000	Linear	0.000000e+00	0.000000e+00	0.000000e+00	0.000000e+00	0	0	0.000	0.000
5	Acetylene	0.000	0	0	0.000	Linear	0.000000e+00	0.000000e+00	0.000000e+00	0.000000e+00	0	0	0.000	0.000
6	Ethane	0.000	0	0	0.000	Linear	0.000000e+00	0.000000e+00	0.000000e+00	0.000000e+00	0	0	0.000	0.000

[Compound Results(Ch2)]
# of IDs	5
ID#	Name	R.Time	Area	Height	Conc.	Curve	3rd	2nd	1st	Constant	Area Ratio	Height Ratio	Conc. %	Norm Conc.
1	Hydrogen	0.000	0	0	0.000	Linear	0.000000e+00	0.000000e+00	0.000000e+00	0.000000e+00	0	0	0.000	0.000
2	Oxygen	0.000	0	0	0.000	Linear	0.000000e+00	0.000000e+00	0.000000e+00	0.000000e+00	0	0	0.000	0.000
3	Nitrogen	0.000	0	0	0.000	Linear	0.000000e+00	0.000000e+00	0.000000e+00	0.000000e+00	0	0	0.000	0.000
4	Methane	0.000	0	0	0.000	Linear	0.000000e+00	0.000000e+00	0.000000e+00	0.000000e+00	0	0	0.000	0.000
5	Carbon Monoxide	0.000	0	0	0.000	Linear	0.000000e+00	0.000000e+00	0.000000e+00	0.000000e+00	0	0	0.000	0.000

[Compound Results(Ch3)]
# of IDs	2
ID#	Name	R.Time	Area	Height	Conc.	Curve	3rd	2nd	1st	Constant	Area Ratio	Height Ratio	Conc. %	Norm Conc.
1	N2O	2.873	59407	15305	1.517	Linear	0.000000e+00	0.000000e+00	3.915173e+004	0.000000e+00	0	0	100.000	100.000
2	SF6	3.221	14634	494	0.000	Linear	0.000000e+00	0.000000e+00	0.000000e+00	0.000000e+00	0	0	0.000	0.000

[Group Results(Ch1)]
# of Groups	0

[Group Results(Ch2)]
# of Groups	0

[Group Results(Ch3)]
# of Groups	0

[Chromatogram (Ch1)]
Interval(msec)	220
# of Points	1091
Start Time(min)	0.002
End Time(min)	3.998
R.Time (min)	Intensity
0.00167	2
0.00533	10
0.00900	18
0.01267	26
0.01633	35
0.02000	40
0.02367	35
0.02733	25
0.03100	16
0.03467	10
0.03833	6
0.04200	6
0.04567	8
0.04933	14
0.05300	25
0.05667	35
0.06033	39
0.06400	39
0.06767	45
0.07133	55
0.07500	69
0.07867	77
0.08233	80
0.08600	83
0.08967	94
0.09333	108
0.09700	125
0.10067	141
0.10433	152
0.10800	156
0.11167	152
0.11533	144
0.11900	133
0.12267	120
0.12633	110
0.13000	104
0.13367	98
0.13733	95
0.14100	95
0.14467	99
0.14833	105
0.15200	109
0.15567	111
0.15933	111
0.16300	106
0.16667	99
0.17033	93
0.17400	87
0.17767	85
0.18133	85
0.18500	86
0.18867	85
0.19233	85
0.19600	85
0.19967	86
0.20333	86
0.20700	83
0.21067	78
0.21433	70
0.21800	62
0.22167	53
0.22533	44
0.22900	37
0.23267	28
0.23633	21
0.24000	17
0.24367	13
0.24733	14
0.25100	23
0.25467	34
0.25833	41
0.26200	43
0.26567	34
0.26933	19
0.27300	6
0.27667	-2
0.28033	-1
0.28400	3
0.28767	9
0.29133	12
0.29500	15
0.29867	18
0.30233	21
0.30600	24
0.30967	28
0.31333	33
0.31700	33
0.32067	30
0.32433	25
0.32800	26
0.33167	28
0.33533	25
0.33900	19
0.34267	15
0.34633	13
0.35000	17
0.35367	25
0.35733	33
0.36100	39
0.36467	41
0.36833	40
0.37200	39
0.37567	39
0.37933	36
0.38300	33
0.38667	30
0.39033	28
0.39400	29
0.39767	34
0.40133	41
0.40500	47
0.40867	49
0.41233	43
0.41600	36
0.41967	35
0.42333	35
0.42700	30
0.43067	23
0.43433	15
0.43800	12
0.44167	11
0.44533	12
0.44900	14
0.45267	22
0.45633	32
0.46000	39
0.46367	41
0.46733	39
0.47100	34
0.47467	32
0.47833	31
0.48200	29
0.48567	26
0.48933	23
0.49300	20
0.49667	18
0.50033	18
0.50400	20
0.50767	25
0.51133	29
0.51500	33
0.51867	36
0.52233	40
0.52600	43
0.52967	51
0.53333	59
0.53700	62
0.54067	56
0.54433	44
0.54800	30
0.55167	19
0.55533	13
0.55900	11
0.56267	12
0.56633	10
0.57000	7
0.57367	9
0.57733	18
0.58100	23
0.58467	22
0.58833	21
0.59200	20
0.59567	19
0.59933	21
0.60300	25
0.60667	29
0.61033	30
0.61400	33
0.61767	39
0.62133	42
0.62500	40
0.62867	34
0.63233	25
0.63600	15
0.63967	11
0.64333	10
0.64700	8
0.65067	3
0.65433	2
0.65800	6
0.66167	10
0.66533	15
0.66900	19
0.67267	24
0.67633	32
0.68000	39
0.68367	41
0.68733	40
0.69100	36
0.69467	30
0.69833	22
0.70200	16
0.70567	12
0.70933	8
0.71300	4
0.71667	4
0.72033	11
0.72400	22
0.72767	31
0.73133	35
0.73500	38
0.73867	38
0.74233	37
0.74600	34
0.74967	26
0.75333	21
0.75700	21
0.76067	21
0.76433	22
0.76800	25
0.77167	29
0.77533	29
0.77900	25
0.78267	25
0.78633	28
0.79000	27
0.79367	26
0.79733	24
0.80100	24
0.80467	28
0.80833	34
0.81200	38
0.81567	36
0.81933	34
0.82300	31
0.82667	28
0.83033	25
0.83400	23
0.83767	24
0.84133	28
0.84500	28
0.84867	28
0.85233	26
0.85600	24
0.85967	24
0.86333	25
0.86700	32
0.87067	41
0.87433	46
0.87800	51
0.88167	58
0.88533	62
0.88900	62
0.89267	60
0.89633	55
0.90000	48
0.90367	44
0.90733	41
0.91100	41
0.91467	47
0.91833	64
0.92200	79
0.92567	87
0.92933	87
0.93300	85
0.93667	81
0.94033	78
0.94400	71
0.94767	64
0.95133	59
0.95500	53
0.95867	49
0.96233	49
0.96600	53
0.96967	59
0.97333	65
0.97700	68
0.98067	69
0.98433	69
0.98800	72
0.99167	74
0.99533	73
0.99900	70
1.00267	68
1.00633	65
1.01000	59
1.01367	56
1.01733	52
1.02100	49
1.02467	49
1.02833	53
1.03200	57
1.03567	57
1.03933	57
1.04300	58
1.04667	60
1.05033	64
1.05400	64
1.05767	60
1.06133	57
1.06500	58
1.06867	62
1.07233	69
1.07600	79
1.07967	84
1.08333	84
1.08700	82
1.09067	81
1.09433	80
1.09800	75
1.10167	69
1.10533	61
1.10900	54
1.11267	50
1.11633	50
1.12000	50
1.12367	53
1.12733	63
1.13100	73
1.13467	78
1.13833	79
1.14200	76
1.14567	69
1.14933	63
1.15300	57
1.15667	53
1.16033	57
1.16400	68
1.16767	75
1.17133	73
1.17500	66
1.17867	56
1.18233	47
1.18600	43
1.18967	43
1.19333	46
1.19700	51
1.20067	54
1.20433	54
1.20800	51
1.21167	51
1.21533	53
1.21900	52
1.22267	51
1.22633	50
1.23000	49
1.23367	50
1.23733	49
1.24100	48
1.24467	47
1.24833	44
1.25200	38
1.25567	29
1.25933	27
1.26300	37
1.26667	48
1.27033	55
1.27400	56
1.27767	55
1.28133	56
1.28500	55
1.28867	52
1.29233	50
1.29600	48
1.29967	47
1.30333	47
1.30700	53
1.31067	58
1.31433	61
1.31800	63
1.32167	69
1.32533	68
1.32900	60
1.33267	53
1.33633	50
1.34000	48
1.34367	51
1.34733	57
1.35100	70
1.35467	81
1.35833	83
1.36200	76
1.36567	64
1.36933	53
1.37300	46
1.37667	46
1.38033	45
1.38400	42
1.38767	39
1.39133	41
1.39500	50
1.39867	57
1.40233	57
1.40600	54
1.40967	46
1.41333	34
1.41700	28
1.42067	27
1.42433	27
1.42800	29
1.43167	31
1.43533	35
1.43900	61
1.44267	159
1.44633	341
1.45000	531
1.45367	670
1.45733	750
1.46100	785
1.46467	788
1.46833	775
1.47200	763
1.47567	762
1.47933	770
1.48300	771
1.48667	748
1.49033	698
1.49400	628
1.49767	556
1.50133	491
1.50500	430
1.50867	371
1.51233	315
1.51600	270
1.51967	238
1.52333	215
1.52700	196
1.53067	176
1.53433	163
1.53800	218
1.54167	523
1.54533	1366
1.54900	2872
1.55267	4796
1.55633	6718
1.56000	8330
1.56367	9488
1.56733	10090
1.57100	10001
1.57467	9169
1.57833	7762
1.58200	6112
1.58567	4535
1.58933	3219
1.59300	2216
1.59667	1498
1.60033	1008
1.60400	681
1.60767	464
1.61133	325
1.61500	238
1.61867	179
1.62233	144
1.62600	122
1.62967	107
1.63333	99
1.63700	90
1.64067	80
1.64433	68
1.64800	62
1.65167	63
1.65533	66
1.65900	66
1.66267	63
1.66633	58
1.67000	51
1.67367	46
1.67733	42
1.68100	41
1.68467	44
1.68833	44
1.69200	44
1.69567	49
1.69933	55
1.70300	57
1.70667	54
1.71033	49
1.71400	45
1.71767	43
1.72133	44
1.72500	46
1.72867	50
1.73233	53
1.73600	54
1.73967	53
1.74333	51
1.74700	46
1.75067	44
1.75433	47
1.75800	51
1.76167	52
1.76533	53
1.76900	56
1.77267	60
1.77633	60
1.78000	58
1.78367	52
1.78733	44
1.79100	38
1.79467	40
1.79833	49
1.80200	57
1.80567	60
1.80933	58
1.81300	54
1.81667	50
1.82033	47
1.82400	44
1.82767	44
1.83133	49
1.83500	55
1.83867	59
1.84233	61
1.84600	60
1.84967	58
1.85333	54
1.85700	53
1.86067	55
1.86433	54
1.86800	55
1.87167	55
1.87533	51
1.87900	48
1.88267	46
1.88633	43
1.89000	43
1.89367	45
1.89733	51
1.90100	57
1.90467	61
1.90833	65
1.91200	70
1.91567	71
1.91933	69
1.92300	64
1.92667	61
1.93033	61
1.93400	65
1.93767	71
1.94133	80
1.94500	92
1.94867	105
1.95233	137
1.95600	313
1.95967	1328
1.96333	5939
1.96700	21819
1.97067	63837
1.97433	149864
1.97800	287843
1.98167	465022
1.98533	651896
1.98900	815927
1.99267	931635
1.99633	983659
2.00000	966685
2.00367	887181
2.00733	763023
2.01100	618386
2.01467	476139
2.01833	351929
2.02200	252543
2.02567	177935
2.02933	124399
2.03300	87137
2.03667	61690
2.04033	44475
2.04400	32852
2.04767	24966
2.05133	19559
2.05500	15790
2.05867	13110
2.06233	11160
2.06600	9700
2.06967	8574
2.07333	7689
2.07700	6971
2.08067	6376
2.08433	5878
2.08800	5456
2.09167	5092
2.09533	4776
2.09900	4497
2.10267	4246
2.10633	4024
2.11000	3826
2.11367	3646
2.11733	3477
2.12100	3318
2.12467	3171
2.12833	3036
2.13200	2913
2.13567	2803
2.13933	2700
2.14300	2596
2.14667	2496
2.15033	2403
2.15400	2315
2.15767	2236
2.16133	2165
2.16500	2096
2.16867	2032
2.17233	1974
2.17600	1920
2.17967	1873
2.18333	1829
2.18700	1788
2.19067	1747
2.19433	1707
2.19800	1663
2.20167	1618
2.20533	1582
2.20900	1547
2.21267	1509
2.21633	1472
2.22000	1437
2.22367	1403
2.22733	1368
2.23100	1336
2.23467	1308
2.23833	1287
2.24200	1269
2.24567	1250
2.24933	1230
2.25300	1211
2.25667	1185
2.26033	1154
2.26400	1124
2.26767	1103
2.27133	1086
2.27500	1068
2.27867	1052
2.28233	1036
2.28600	1019
2.28967	1006
2.29333	993
2.29700	978
2.30067	963
2.30433	949
2.30800	937
2.31167	921
2.31533	907
2.31900	897
2.32267	886
2.32633	872
2.33000	860
2.33367	847
2.33733	835
2.34100	825
2.34467	818
2.34833	813
2.35200	808
2.35567	803
2.35933	797
2.36300	796
2.36667	798
2.37033	797
2.37400	793
2.37767	782
2.38133	770
2.38500	753
2.38867	733
2.39233	717
2.39600	705
2.39967	693
2.40333	682
2.40700	674
2.41067	667
2.41433	663
2.41800	661
2.42167	656
2.42533	651
2.42900	645
2.43267	643
2.43633	642
2.44000	643
2.44367	644
2.44733	644
2.45100	640
2.45467	629
2.45833	613
2.46200	596
2.46567	580
2.46933	571
2.47300	571
2.47667	572
2.48033	570
2.48400	567
2.48767	562
2.49133	556
2.49500	552
2.49867	551
2.50233	552
2.50600	552
2.50967	553
2.51333	553
2.51700	549
2.52067	545
2.52433	538
2.52800	531
2.53167	529
2.53533	531
2.53900	532
2.54267	525
2.54633	516
2.55000	510
2.55367	508
2.55733	504
2.56100	500
2.56467	495
2.56833	489
2.57200	485
2.57567	487
2.57933	492
2.58300	495
2.58667	495
2.59033	497
2.59400	498
2.59767	497
2.60133	495
2.60500	493
2.60867	487
2.61233	480
2.61600	476
2.61967	478
2.62333	485
2.62700	491
2.63067	493
2.63433	494
2.63800	489
2.64167	479
2.64533	467
2.64900	452
2.65267	438
2.65633	433
2.66000	437
2.66367	447
2.66733	458
2.67100	460
2.67467	458
2.67833	461
2.68200	468
2.68567	472
2.68933	474
2.69300	468
2.69667	457
2.70033	449
2.70400	446
2.70767	444
2.71133	446
2.71500	452
2.71867	455
2.72233	452
2.72600	448
2.72967	446
2.73333	443
2.73700	440
2.74067	443
2.74433	448
2.74800	451
2.75167	452
2.75533	449
2.75900	449
2.76267	451
2.76633	456
2.77000	459
2.77367	462
2.77733	465
2.78100	467
2.78467	470
2.78833	470
2.79200	462
2.79567	452
2.79933	446
2.80300	442
2.80667	437
2.81033	431
2.81400	429
2.81767	429
2.82133	427
2.82500	423
2.82867	422
2.83233	424
2.83600	426
2.83967	427
2.84333	428
2.84700	429
2.85067	430
2.85433	431
2.85800	432
2.86167	433
2.86533	433
2.86900	434
2.87267	435
2.87633	439
2.88000	441
2.88367	437
2.88733	431
2.89100	427
2.89467	427
2.89833	429
2.90200	432
2.90567	436
2.90933	437
2.91300	433
2.91667	426
2.92033	420
2.92400	415
2.92767	412
2.93133	412
2.93500	413
2.93867	418
2.94233	426
2.94600	433
2.94967	433
2.95333	429
2.95700	424
2.96067	415
2.96433	406
2.96800	406
2.97167	415
2.97533	435
2.97900	453
2.98267	458
2.98633	450
2.99000	436
2.99367	423
2.99733	412
3.00100	407
3.00467	405
3.00833	406
3.01200	410
3.01567	411
3.01933	417
3.02300	427
3.02667	436
3.03033	439
3.03400	440
3.03767	441
3.04133	438
3.04500	429
3.04867	415
3.05233	400
3.05600	384
3.05967	372
3.06333	364
3.06700	358
3.07067	356
3.07433	357
3.07800	363
3.08167	373
3.08533	385
3.08900	395
3.09267	399
3.09633	398
3.10000	395
3.10367	392
3.10733	391
3.11100	395
3.11467	400
3.11833	401
3.12200	403
3.12567	408
3.12933	414
3.13300	420
3.13667	424
3.14033	423
3.14400	419
3.14767	407
3.15133	393
3.15500	387
3.15867	384
3.16233	385
3.16600	390
3.16967	394
3.17333	398
3.17700	401
3.18067	403
3.18433	405
3.18800	405
3.19167	404
3.19533	403
3.19900	402
3.20267	402
3.20633	402
3.21000	402
3.21367	400
3.21733	397
3.22100	392
3.22467	388
3.22833	383
3.23200	379
3.23567	378
3.23933	379
3.24300	383
3.24667	387
3.25033	393
3.25400	400
3.25767	401
3.26133	396
3.26500	390
3.26867	387
3.27233	384
3.27600	380
3.27967	381
3.28333	386
3.28700	392
3.29067	397
3.29433	397
3.29800	395
3.30167	388
3.30533	378
3.30900	367
3.31267	361
3.31633	355
3.32000	350
3.32367	346
3.32733	348
3.33100	356
3.33467	365
3.33833	373
3.34200	376
3.34567	372
3.34933	363
3.35300	359
3.35667	356
3.36033	354
3.36400	349
3.36767	343
3.37133	342
3.37500	347
3.37867	351
3.38233	353
3.38600	354
3.38967	358
3.39333	363
3.39700	361
3.40067	355
3.40433	350
3.40800	348
3.41167	351
3.41533	358
3.41900	365
3.42267	367
3.42633	366
3.43000	368
3.43367	367
3.43733	364
3.44100	360
3.44467	352
3.44833	343
3.45200	338
3.45567	335
3.45933	334
3.46300	337
3.46667	344
3.47033	354
3.47400	364
3.47767	367
3.48133	361
3.48500	349
3.48867	341
3.49233	339
3.49600	342
3.49967	343
3.50333	343
3.50700	342
3.51067	338
3.51433	335
3.51800	329
3.52167	326
3.52533	328
3.52900	327
3.53267	324
3.53633	318
3.54000	313
3.54367	311
3.54733	313
3.55100	318
3.55467	317
3.55833	311
3.56200	308
3.56567	309
3.56933	311
3.57300	317
3.57667	328
3.58033	342
3.58400	353
3.58767	356
3.59133	351
3.59500	342
3.59867	333
3.60233	324
3.60600	317
3.60967	314
3.61333	312
3.61700	313
3.62067	316
3.62433	315
3.62800	309
3.63167	303
3.63533	302
3.63900	310
3.64267	322
3.64633	332
3.65000	336
3.65367	336
3.65733	333
3.66100	325
3.66467	315
3.66833	305
3.67200	299
3.67567	298
3.67933	300
3.68300	301
3.68667	301
3.69033	304
3.69400	306
3.69767	305
3.70133	305
3.70500	305
3.70867	306
3.71233	306
3.71600	304
3.71967	300
3.72333	296
3.72700	294
3.73067	292
3.73433	292
3.73800	293
3.74167	297
3.74533	303
3.74900	303
3.75267	298
3.75633	290
3.76000	286
3.76367	284
3.76733	283
3.77100	283
3.77467	282
3.77833	280
3.78200	280
3.78567	280
3.78933	281
3.79300	280
3.79667	278
3.80033	276
3.80400	275
3.80767	274
3.81133	276
3.81500	282
3.81867	286
3.82233	285
3.82600	283
3.82967	281
3.83333	282
3.83700	286
3.84067	290
3.84433	290
3.84800	287
3.85167	285
3.85533	281
3.85900	275
3.86267	268
3.86633	264
3.87000	261
3.87367	256
3.87733	250
3.88100	253
3.88467	264
3.88833	272
3.89200	275
3.89567	276
3.89933	275
3.90300	271
3.90667	264
3.91033	257
3.91400	254
3.91767	256
3.92133	256
3.92500	254
3.92867	253
3.93233	254
3.93600	252
3.93967	249
3.94333	249
3.94700	252
3.95067	258
3.95433	267
3.95800	274
3.96167	279
3.96533	278
3.96900	269
3.97267	257
3.97633	246
3.98000	234
3.98367	225
3.98733	224
3.99100	228
3.99467	230
3.99833	232

[Chromatogram (Ch2)]
Interval(msec)	220
# of Points	1091
Start Time(min)	0.002
End Time(min)	3.998
R.Time (min)	Intensity
0.00167	0
0.00533	0
0.00900	0
0.01267	0
0.01633	0
0.02000	0
0.02367	-0
0.02733	-1
0.03100	-1
0.03467	-1
0.03833	-1
0.04200	-1
0.04567	-1
0.04933	-1
0.05300	-1
0.05667	-1
0.06033	-1
0.06400	-0
0.06767	-0
0.07133	0
0.07500	0
0.07867	0
0.08233	0
0.08600	0
0.08967	0
0.09333	0
0.09700	1
0.10067	1
0.10433	1
0.10800	1
0.11167	1
0.11533	2
0.11900	2
0.12267	2
0.12633	2
0.13000	2
0.13367	2
0.13733	3
0.14100	3
0.14467	3
0.14833	3
0.15200	3
0.15567	3
0.15933	3
0.16300	3
0.16667	3
0.17033	3
0.17400	3
0.17767	3
0.18133	3
0.18500	4
0.18867	4
0.19233	4
0.19600	4
0.19967	3
0.20333	3
0.20700	2
0.21067	2
0.21433	2
0.21800	2
0.22167	2
0.22533	1
0.22900	1
0.23267	1
0.23633	1
0.24000	1
0.24367	1
0.24733	1
0.25100	1
0.25467	1
0.25833	1
0.26200	2
0.26567	2
0.26933	2
0.27300	2
0.27667	2
0.28033	2
0.28400	1
0.28767	1
0.29133	1
0.29500	1
0.29867	1
0.30233	1
0.30600	1
0.30967	1
0.31333	1
0.31700	1
0.32067	1
0.32433	1
0.32800	0
0.33167	0
0.33533	-0
0.33900	-1
0.34267	-1
0.34633	-1
0.35000	-2
0.35367	-2
0.35733	-3
0.36100	-3
0.36467	-3
0.36833	-4
0.37200	-4
0.37567	-3
0.37933	-3
0.38300	-3
0.38667	-2
0.39033	-2
0.39400	-2
0.39767	-2
0.40133	-2
0.40500	-2
0.40867	-1
0.41233	-1
0.41600	-0
0.41967	-0
0.42333	0
0.42700	1
0.43067	1
0.43433	1
0.43800	1
0.44167	1
0.44533	1
0.44900	1
0.45267	0
0.45633	-0
0.46000	-0
0.46367	-0
0.46733	-0
0.47100	-1
0.47467	-1
0.47833	-1
0.48200	-1
0.48567	-1
0.48933	-1
0.49300	-1
0.49667	-1
0.50033	-1
0.50400	-1
0.50767	-1
0.51133	-2
0.51500	-2
0.51867	-2
0.52233	-2
0.52600	-2
0.52967	-2
0.53333	-3
0.53700	-3
0.54067	-3
0.54433	-3
0.54800	-3
0.55167	-3
0.55533	-3
0.55900	-3
0.56267	-3
0.56633	-3
0.57000	-2
0.57367	-2
0.57733	-2
0.58100	-2
0.58467	-2
0.58833	-2
0.59200	-2
0.59567	-1
0.59933	-1
0.60300	-1
0.60667	-0
0.61033	-0
0.61400	-0
0.61767	-0
0.62133	-0
0.62500	-0
0.62867	-0
0.63233	-0
0.63600	-0
0.63967	-1
0.64333	-1
0.64700	-1
0.65067	-1
0.65433	-2
0.65800	-2
0.66167	-2
0.66533	-2
0.66900	-2
0.67267	-2
0.67633	-2
0.68000	-2
0.68367	-2
0.68733	-3
0.69100	-3
0.69467	-2
0.69833	-2
0.70200	-2
0.70567	-2
0.70933	-2
0.71300	-2
0.71667	-2
0.72033	-2
0.72400	-1
0.72767	-1
0.73133	-1
0.73500	-0
0.73867	-0
0.74233	0
0.74600	0
0.74967	0
0.75333	1
0.75700	1
0.76067	1
0.76433	1
0.76800	1
0.77167	1
0.77533	1
0.77900	0
0.78267	0
0.78633	-0
0.79000	-0
0.79367	-0
0.79733	-0
0.80100	-0
0.80467	-0
0.80833	-0
0.81200	-0
0.81567	-0
0.81933	-0
0.82300	-0
0.82667	-0
0.83033	-0
0.83400	-0
0.83767	-1
0.84133	-1
0.84500	-1
0.84867	-1
0.85233	-1
0.85600	-1
0.85967	-1
0.86333	-2
0.86700	-2
0.87067	-2
0.87433	-2
0.87800	-2
0.88167	-2
0.88533	-2
0.88900	-2
0.89267	-1
0.89633	-1
0.90000	-1
0.90367	-1
0.90733	-0
0.91100	0
0.91467	0
0.91833	0
0.92200	0
0.92567	0
0.92933	1
0.93300	1
0.93667	1
0.94033	2
0.94400	2
0.94767	2
0.95133	2
0.95500	2
0.95867	2
0.96233	2
0.96600	2
0.96967	2
0.97333	2
0.97700	2
0.98067	1
0.98433	1
0.98800	1
0.99167	1
0.99533	1
0.99900	0
1.00267	-0
1.00633	-0
1.01000	-0
1.01367	-1
1.01733	-1
1.02100	-1
1.02467	-1
1.02833	-1
1.03200	-1
1.03567	-2
1.03933	-2
1.04300	-2
1.04667	-2
1.05033	-2
1.05400	-2
1.05767	-2
1.06133	-2
1.06500	-2
1.06867	-2
1.07233	-2
1.07600	-3
1.07967	-3
1.08333	-3
1.08700	-3
1.09067	-3
1.09433	-3
1.09800	-3
1.10167	-3
1.10533	-2
1.10900	-2
1.11267	-2
1.11633	-2
1.12000	-2
1.12367	-2
1.12733	-2
1.13100	-3
1.13467	-3
1.13833	-3
1.14200	-3
1.14567	-3
1.14933	-3
1.15300	-3
1.15667	-3
1.16033	-2
1.16400	-2
1.16767	-2
1.17133	-1
1.17500	-1
1.17867	-1
1.18233	-1
1.18600	-1
1.18967	-1
1.19333	-0
1.19700	-0
1.20067	0
1.20433	0
1.20800	0
1.21167	1
1.21533	1
1.21900	1
1.22267	2
1.22633	2
1.23000	2
1.23367	2
1.23733	2
1.24100	2
1.24467	2
1.24833	2
1.25200	2
1.25567	2
1.25933	2
1.26300	2
1.26667	1
1.27033	1
1.27400	1
1.27767	0
1.28133	-0
1.28500	-0
1.28867	-1
1.29233	-1
1.29600	-1
1.29967	-2
1.30333	-2
1.30700	-3
1.31067	-3
1.31433	-3
1.31800	-4
1.32167	-4
1.32533	-4
1.32900	-4
1.33267	-4
1.33633	-4
1.34000	-4
1.34367	-4
1.34733	-4
1.35100	-4
1.35467	-4
1.35833	-4
1.36200	-4
1.36567	-4
1.36933	-4
1.37300	-4
1.37667	-3
1.38033	-3
1.38400	-3
1.38767	-3
1.39133	-2
1.39500	-2
1.39867	-2
1.40233	-2
1.40600	-1
1.40967	-1
1.41333	-1
1.41700	-0
1.42067	-0
1.42433	0
1.42800	0
1.43167	0
1.43533	1
1.43900	1
1.44267	1
1.44633	1
1.45000	1
1.45367	1
1.45733	1
1.46100	1
1.46467	0
1.46833	-0
1.47200	-0
1.47567	-1
1.47933	-1
1.48300	-1
1.48667	-1
1.49033	-1
1.49400	-1
1.49767	-1
1.50133	-2
1.50500	-2
1.50867	-2
1.51233	-2
1.51600	-2
1.51967	-2
1.52333	-2
1.52700	-2
1.53067	-2
1.53433	-2
1.53800	-2
1.54167	-2
1.54533	-2
1.54900	-2
1.55267	-2
1.55633	-2
1.56000	-3
1.56367	-3
1.56733	-3
1.57100	-3
1.57467	-3
1.57833	-3
1.58200	-2
1.58567	-2
1.58933	-2
1.59300	-3
1.59667	-3
1.60033	-3
1.60400	-4
1.60767	-5
1.61133	-6
1.61500	-8
1.61867	-10
1.62233	-12
1.62600	-15
1.62967	-18
1.63333	-22
1.63700	-25
1.64067	-29
1.64433	-33
1.64800	-37
1.65167	-41
1.65533	-45
1.65900	-49
1.66267	-53
1.66633	-58
1.67000	-63
1.67367	-68
1.67733	-73
1.68100	-78
1.68467	-83
1.68833	-88
1.69200	-92
1.69567	-96
1.69933	-99
1.70300	-102
1.70667	-104
1.71033	-105
1.71400	-107
1.71767	-107
1.72133	-108
1.72500	-109
1.72867	-109
1.73233	-109
1.73600	-108
1.73967	-108
1.74333	-108
1.74700	-108
1.75067	-109
1.75433	-110
1.75800	-111
1.76167	-112
1.76533	-112
1.76900	-112
1.77267	-112
1.77633	-113
1.78000	-113
1.78367	-113
1.78733	-114
1.79100	-114
1.79467	-115
1.79833	-115
1.80200	-116
1.80567	-116
1.80933	-116
1.81300	-116
1.81667	-117
1.82033	-117
1.82400	-118
1.82767	-118
1.83133	-118
1.83500	-118
1.83867	-117
1.84233	-117
1.84600	-117
1.84967	-117
1.85333	-117
1.85700	-117
1.86067	-116
1.86433	-116
1.86800	-116
1.87167	-116
1.87533	-116
1.87900	-116
1.88267	-116
1.88633	-116
1.89000	-116
1.89367	-116
1.89733	-115
1.90100	-115
1.90467	-115
1.90833	-115
1.91200	-115
1.91567	-115
1.91933	-115
1.92300	-114
1.92667	-114
1.93033	-114
1.93400	-114
1.93767	-114
1.94133	-114
1.94500	-114
1.94867	-114
1.95233	-114
1.95600	-114
1.95967	-114
1.96333	-113
1.96700	-113
1.97067	-112
1.97433	-112
1.97800	-111
1.98167	-110
1.98533	-110
1.98900	-110
1.99267	-109
1.99633	-109
2.00000	-108
2.00367	-108
2.00733	-107
2.01100	-107
2.01467	-106
2.01833	-106
2.02200	-106
2.02567	-105
2.02933	-105
2.03300	-104
2.03667	-104
2.04033	-104
2.04400	-104
2.04767	-105
2.05133	-104
2.05500	-104
2.05867	-103
2.06233	-103
2.06600	-103
2.06967	-103
2.07333	-103
2.07700	-103
2.08067	-103
2.08433	-103
2.08800	-103
2.09167	-102
2.09533	-102
2.09900	-101
2.10267	-101
2.10633	-100
2.11000	-100
2.11367	-100
2.11733	-100
2.12100	-100
2.12467	-100
2.12833	-99
2.13200	-99
2.13567	-99
2.13933	-98
2.14300	-98
2.14667	-97
2.15033	-97
2.15400	-97
2.15767	-96
2.16133	-96
2.16500	-95
2.16867	-95
2.17233	-94
2.17600	-93
2.17967	-92
2.18333	-91
2.18700	-91
2.19067	-91
2.19433	-91
2.19800	-91
2.20167	-90
2.20533	-90
2.20900	-90
2.21267	-90
2.21633	-90
2.22000	-90
2.22367	-91
2.22733	-92
2.23100	-92
2.23467	-93
2.23833	-92
2.24200	-92
2.24567	-91
2.24933	-90
2.25300	-89
2.25667	-88
2.26033	-88
2.26400	-87
2.26767	-86
2.27133	-86
2.27500	-86
2.27867	-86
2.28233	-87
2.28600	-87
2.28967	-88
2.29333	-88
2.29700	-88
2.30067	-88
2.30433	-87
2.30800	-86
2.31167	-85
2.31533	-84
2.31900	-83
2.32267	-82
2.32633	-81
2.33000	-80
2.33367	-80
2.33733	-79
2.34100	-78
2.34467	-78
2.34833	-77
2.35200	-77
2.35567	-76
2.35933	-76
2.36300	-76
2.36667	-75
2.37033	-74
2.37400	-72
2.37767	-69
2.38133	-66
2.38500	-63
2.38867	-59
2.39233	-55
2.39600	-51
2.39967	-46
2.40333	-42
2.40700	-37
2.41067	-33
2.41433	-29
2.41800	-26
2.42167	-23
2.42533	-20
2.42900	-19
2.43267	-17
2.43633	-15
2.44000	-14
2.44367	-12
2.44733	-11
2.45100	-9
2.45467	-7
2.45833	-6
2.46200	-4
2.46567	-3
2.46933	-1
2.47300	-0
2.47667	1
2.48033	2
2.48400	3
2.48767	4
2.49133	6
2.49500	7
2.49867	8
2.50233	8
2.50600	8
2.50967	9
2.51333	9
2.51700	10
2.52067	11
2.52433	11
2.52800	12
2.53167	12
2.53533	12
2.53900	12
2.54267	13
2.54633	13
2.55000	14
2.55367	14
2.55733	15
2.56100	15
2.56467	15
2.56833	15
2.57200	15
2.57567	16
2.57933	16
2.58300	17
2.58667	18
2.59033	18
2.59400	18
2.59767	19
2.60133	19
2.60500	19
2.60867	20
2.61233	21
2.61600	21
2.61967	22
2.62333	22
2.62700	21
2.63067	21
2.63433	20
2.63800	20
2.64167	20
2.64533	19
2.64900	20
2.65267	20
2.65633	21
2.66000	21
2.66367	21
2.66733	21
2.67100	21
2.67467	21
2.67833	21
2.68200	22
2.68567	22
2.68933	22
2.69300	22
2.69667	22
2.70033	22
2.70400	22
2.70767	22
2.71133	22
2.71500	22
2.71867	23
2.72233	23
2.72600	24
2.72967	24
2.73333	24
2.73700	25
2.74067	25
2.74433	25
2.74800	25
2.75167	25
2.75533	24
2.75900	24
2.76267	24
2.76633	24
2.77000	24
2.77367	25
2.77733	25
2.78100	26
2.78467	26
2.78833	26
2.79200	26
2.79567	26
2.79933	27
2.80300	27
2.80667	27
2.81033	27
2.81400	28
2.81767	28
2.82133	28
2.82500	28
2.82867	28
2.83233	28
2.83600	27
2.83967	25
2.84333	22
2.84700	16
2.85067	7
2.85433	-5
2.85800	-21
2.86167	-42
2.86533	-68
2.86900	-99
2.87267	-135
2.87633	-177
2.88000	-225
2.88367	-277
2.88733	-334
2.89100	-396
2.89467	-461
2.89833	-531
2.90200	-603
2.90567	-679
2.90933	-758
2.91300	-839
2.91667	-923
2.92033	-1009
2.92400	-1097
2.92767	-1187
2.93133	-1278
2.93500	-1370
2.93867	-1454
2.94233	-1516
2.94600	-1547
2.94967	-1542
2.95333	-1501
2.95700	-1431
2.96067	-1341
2.96433	-1237
2.96800	-1126
2.97167	-1014
2.97533	-905
2.97900	-801
2.98267	-704
2.98633	-616
2.99000	-536
2.99367	-464
2.99733	-400
3.00100	-344
3.00467	-295
3.00833	-252
3.01200	-215
3.01567	-183
3.01933	-156
3.02300	-132
3.02667	-112
3.03033	-94
3.03400	-79
3.03767	-66
3.04133	-55
3.04500	-45
3.04867	-37
3.05233	-30
3.05600	-24
3.05967	-19
3.06333	-15
3.06700	-11
3.07067	-8
3.07433	-5
3.07800	-3
3.08167	-1
3.08533	1
3.08900	2
3.09267	4
3.09633	5
3.10000	6
3.10367	7
3.10733	8
3.11100	9
3.11467	10
3.11833	11
3.12200	12
3.12567	13
3.12933	13
3.13300	14
3.13667	14
3.14033	14
3.14400	15
3.14767	15
3.15133	15
3.15500	15
3.15867	16
3.16233	16
3.16600	16
3.16967	16
3.17333	16
3.17700	16
3.18067	16
3.18433	16
3.18800	16
3.19167	16
3.19533	16
3.19900	16
3.20267	17
3.20633	17
3.21000	17
3.21367	17
3.21733	18
3.22100	18
3.22467	19
3.22833	19
3.23200	19
3.23567	19
3.23933	19
3.24300	20
3.24667	20
3.25033	20
3.25400	20
3.25767	20
3.26133	20
3.26500	20
3.26867	20
3.27233	20
3.27600	21
3.27967	21
3.28333	21
3.28700	21
3.29067	22
3.29433	22
3.29800	23
3.30167	23
3.30533	24
3.30900	25
3.31267	25
3.31633	26
3.32000	26
3.32367	26
3.32733	27
3.33100	27
3.33467	27
3.33833	27
3.34200	27
3.34567	27
3.34933	26
3.35300	26
3.35667	26
3.36033	26
3.36400	26
3.36767	26
3.37133	26
3.37500	26
3.37867	26
3.38233	26
3.38600	25
3.38967	25
3.39333	25
3.39700	25
3.40067	25
3.40433	25
3.40800	25
3.41167	25
3.41533	25
3.41900	25
3.42267	26
3.42633	26
3.43000	26
3.43367	27
3.43733	27
3.44100	27
3.44467	27
3.44833	27
3.45200	27
3.45567	27
3.45933	27
3.46300	27
3.46667	27
3.47033	27
3.47400	27
3.47767	27
3.48133	27
3.48500	26
3.48867	26
3.49233	26
3.49600	26
3.49967	26
3.50333	26
3.50700	26
3.51067	26
3.51433	26
3.51800	26
3.52167	26
3.52533	26
3.52900	26
3.53267	26
3.53633	26
3.54000	26
3.54367	26
3.54733	26
3.55100	26
3.55467	26
3.55833	25
3.56200	25
3.56567	25
3.56933	25
3.57300	25
3.57667	25
3.58033	25
3.58400	25
3.58767	25
3.59133	26
3.59500	26
3.59867	26
3.60233	26
3.60600	26
3.60967	26
3.61333	26
3.61700	26
3.62067	26
3.62433	25
3.62800	25
3.63167	26
3.63533	26
3.63900	26
3.64267	26
3.64633	26
3.65000	25
3.65367	25
3.65733	26
3.66100	26
3.66467	26
3.66833	26
3.67200	26
3.67567	26
3.67933	26
3.68300	26
3.68667	26
3.69033	26
3.69400	27
3.69767	27
3.70133	27
3.70500	27
3.70867	27
3.71233	27
3.71600	27
3.71967	27
3.72333	27
3.72700	27
3.73067	27
3.73433	27
3.73800	27
3.74167	27
3.74533	28
3.74900	28
3.75267	28
3.75633	28
3.76000	28
3.76367	28
3.76733	28
3.77100	28
3.77467	28
3.77833	28
3.78200	27
3.78567	27
3.78933	27
3.79300	27
3.79667	27
3.80033	27
3.80400	27
3.80767	27
3.81133	27
3.81500	27
3.81867	27
3.82233	27
3.82600	27
3.82967	26
3.83333	26
3.83700	26
3.84067	26
3.84433	26
3.84800	26
3.85167	26
3.85533	26
3.85900	25
3.86267	25
3.86633	25
3.87000	25
3.87367	25
3.87733	25
3.88100	25
3.88467	25
3.88833	25
3.89200	25
3.89567	25
3.89933	26
3.90300	26
3.90667	26
3.91033	26
3.91400	26
3.91767	25
3.92133	26
3.92500	26
3.92867	26
3.93233	26
3.93600	26
3.93967	27
3.94333	27
3.94700	27
3.95067	27
3.95433	27
3.95800	27
3.96167	27
3.96533	27
3.96900	26
3.97267	26
3.97633	26
3.98000	26
3.98367	25
3.98733	25
3.99100	25
3.99467	25
3.99833	25

[Chromatogram (Ch3)]
Interval(msec)	220
# of Points	1091
Start Time(min)	0.002
End Time(min)	3.998
R.Time (min)	Intensity
0.00167	-0
0.00533	-1
0.00900	-3
0.01267	-3
0.01633	-2
0.02000	-3
0.02367	-3
0.02733	-1
0.03100	-1
0.03467	1
0.03833	3
0.04200	5
0.04567	6
0.04933	6
0.05300	7
0.05667	5
0.06033	2
0.06400	2
0.06767	0
0.07133	-1
0.07500	-0
0.07867	1
0.08233	1
0.08600	0
0.08967	-1
0.09333	-2
0.09700	-0
0.10067	3
0.10433	4
0.10800	5
0.11167	6
0.11533	6
0.11900	4
0.12267	2
0.12633	2
0.13000	3
0.13367	1
0.13733	2
0.14100	0
0.14467	1
0.14833	4
0.15200	6
0.15567	5
0.15933	3
0.16300	0
0.16667	-2
0.17033	-2
0.17400	1
0.17767	2
0.18133	0
0.18500	-0
0.18867	0
0.19233	1
0.19600	-0
0.19967	-2
0.20333	-2
0.20700	-0
0.21067	1
0.21433	1
0.21800	-2
0.22167	-2
0.22533	-1
0.22900	-2
0.23267	-5
0.23633	-7
0.24000	-8
0.24367	-7
0.24733	-6
0.25100	-4
0.25467	-3
0.25833	-3
0.26200	-2
0.26567	-2
0.26933	-1
0.27300	-2
0.27667	-4
0.28033	-6
0.28400	-5
0.28767	-4
0.29133	-4
0.29500	-5
0.29867	-3
0.30233	-3
0.30600	-4
0.30967	-5
0.31333	-4
0.31700	-3
0.32067	-6
0.32433	-7
0.32800	-8
0.33167	-8
0.33533	-7
0.33900	-8
0.34267	-9
0.34633	-11
0.35000	-10
0.35367	-8
0.35733	-7
0.36100	-5
0.36467	-3
0.36833	-2
0.37200	-1
0.37567	-2
0.37933	-1
0.38300	-1
0.38667	-3
0.39033	-4
0.39400	-5
0.39767	-5
0.40133	-4
0.40500	-4
0.40867	-6
0.41233	-7
0.41600	-9
0.41967	-12
0.42333	-13
0.42700	-14
0.43067	-15
0.43433	-15
0.43800	-13
0.44167	-12
0.44533	-11
0.44900	-9
0.45267	-7
0.45633	-5
0.46000	-5
0.46367	-5
0.46733	-7
0.47100	-8
0.47467	-9
0.47833	-8
0.48200	-6
0.48567	-3
0.48933	-3
0.49300	-4
0.49667	-4
0.50033	-7
0.50400	-9
0.50767	-10
0.51133	-9
0.51500	-9
0.51867	-10
0.52233	-10
0.52600	-8
0.52967	-7
0.53333	-6
0.53700	-8
0.54067	-9
0.54433	-10
0.54800	-9
0.55167	-7
0.55533	-7
0.55900	-10
0.56267	-9
0.56633	-8
0.57000	-9
0.57367	-11
0.57733	-13
0.58100	-11
0.58467	-9
0.58833	-8
0.59200	-10
0.59567	-12
0.59933	-12
0.60300	-12
0.60667	-14
0.61033	-16
0.61400	-18
0.61767	-18
0.62133	-17
0.62500	-16
0.62867	-14
0.63233	-12
0.63600	-12
0.63967	-11
0.64333	-11
0.64700	-10
0.65067	-8
0.65433	-7
0.65800	-8
0.66167	-7
0.66533	-7
0.66900	-9
0.67267	-9
0.67633	-8
0.68000	-5
0.68367	-6
0.68733	-8
0.69100	-8
0.69467	-7
0.69833	-6
0.70200	-7
0.70567	-7
0.70933	-8
0.71300	-8
0.71667	-8
0.72033	-6
0.72400	-5
0.72767	-3
0.73133	-2
0.73500	-2
0.73867	-2
0.74233	-4
0.74600	-5
0.74967	-5
0.75333	-4
0.75700	-2
0.76067	-1
0.76433	-4
0.76800	-7
0.77167	-8
0.77533	-10
0.77900	-10
0.78267	-9
0.78633	-9
0.79000	-6
0.79367	-4
0.79733	-5
0.80100	-5
0.80467	-4
0.80833	-3
0.81200	-1
0.81567	2
0.81933	4
0.82300	4
0.82667	1
0.83033	-2
0.83400	-2
0.83767	-3
0.84133	-2
0.84500	-3
0.84867	-5
0.85233	-6
0.85600	-4
0.85967	-5
0.86333	-5
0.86700	-5
0.87067	-4
0.87433	-3
0.87800	-1
0.88167	0
0.88533	-0
0.88900	-3
0.89267	-3
0.89633	-3
0.90000	-3
0.90367	-3
0.90733	-2
0.91100	-1
0.91467	0
0.91833	0
0.92200	0
0.92567	-0
0.92933	-1
0.93300	-0
0.93667	-0
0.94033	-2
0.94400	-3
0.94767	-2
0.95133	-2
0.95500	-1
0.95867	1
0.96233	-0
0.96600	-2
0.96967	-4
0.97333	-4
0.97700	-3
0.98067	-2
0.98433	-2
0.98800	-4
0.99167	-6
0.99533	-5
0.99900	-4
1.00267	-3
1.00633	-4
1.01000	-4
1.01367	-1
1.01733	0
1.02100	1
1.02467	1
1.02833	-1
1.03200	-3
1.03567	-3
1.03933	-1
1.04300	1
1.04667	1
1.05033	-1
1.05400	-4
1.05767	-5
1.06133	-6
1.06500	-3
1.06867	1
1.07233	3
1.07600	5
1.07967	6
1.08333	4
1.08700	2
1.09067	2
1.09433	2
1.09800	3
1.10167	4
1.10533	6
1.10900	6
1.11267	5
1.11633	5
1.12000	4
1.12367	3
1.12733	2
1.13100	3
1.13467	5
1.13833	7
1.14200	10
1.14567	11
1.14933	13
1.15300	12
1.15667	11
1.16033	9
1.16400	10
1.16767	11
1.17133	9
1.17500	8
1.17867	6
1.18233	5
1.18600	3
1.18967	3
1.19333	4
1.19700	6
1.20067	6
1.20433	5
1.20800	5
1.21167	6
1.21533	8
1.21900	11
1.22267	11
1.22633	11
1.23000	11
1.23367	11
1.23733	13
1.24100	13
1.24467	14
1.24833	15
1.25200	14
1.25567	12
1.25933	13
1.26300	14
1.26667	12
1.27033	11
1.27400	11
1.27767	12
1.28133	11
1.28500	10
1.28867	9
1.29233	8
1.29600	8
1.29967	7
1.30333	7
1.30700	7
1.31067	9
1.31433	11
1.31800	11
1.32167	10
1.32533	8
1.32900	8
1.33267	7
1.33633	6
1.34000	5
1.34367	5
1.34733	7
1.35100	8
1.35467	10
1.35833	11
1.36200	12
1.36567	12
1.36933	11
1.37300	9
1.37667	8
1.38033	9
1.38400	11
1.38767	11
1.39133	10
1.39500	10
1.39867	10
1.40233	9
1.40600	10
1.40967	10
1.41333	10
1.41700	10
1.42067	9
1.42433	9
1.42800	9
1.43167	9
1.43533	9
1.43900	9
1.44267	10
1.44633	11
1.45000	13
1.45367	14
1.45733	13
1.46100	12
1.46467	13
1.46833	14
1.47200	15
1.47567	14
1.47933	13
1.48300	12
1.48667	14
1.49033	15
1.49400	15
1.49767	16
1.50133	16
1.50500	16
1.50867	15
1.51233	12
1.51600	10
1.51967	10
1.52333	10
1.52700	10
1.53067	11
1.53433	13
1.53800	13
1.54167	15
1.54533	16
1.54900	13
1.55267	11
1.55633	10
1.56000	10
1.56367	11
1.56733	13
1.57100	13
1.57467	15
1.57833	18
1.58200	19
1.58567	19
1.58933	19
1.59300	20
1.59667	21
1.60033	20
1.60400	20
1.60767	21
1.61133	21
1.61500	21
1.61867	19
1.62233	17
1.62600	15
1.62967	14
1.63333	14
1.63700	15
1.64067	14
1.64433	14
1.64800	16
1.65167	16
1.65533	16
1.65900	17
1.66267	18
1.66633	20
1.67000	21
1.67367	22
1.67733	23
1.68100	24
1.68467	24
1.68833	26
1.69200	27
1.69567	28
1.69933	31
1.70300	32
1.70667	31
1.71033	31
1.71400	34
1.71767	35
1.72133	35
1.72500	35
1.72867	35
1.73233	37
1.73600	38
1.73967	38
1.74333	37
1.74700	38
1.75067	38
1.75433	39
1.75800	38
1.76167	37
1.76533	37
1.76900	36
1.77267	36
1.77633	36
1.78000	38
1.78367	39
1.78733	40
1.79100	41
1.79467	44
1.79833	45
1.80200	45
1.80567	44
1.80933	41
1.81300	42
1.81667	44
1.82033	46
1.82400	46
1.82767	46
1.83133	44
1.83500	43
1.83867	44
1.84233	45
1.84600	46
1.84967	45
1.85333	44
1.85700	46
1.86067	47
1.86433	48
1.86800	51
1.87167	54
1.87533	53
1.87900	51
1.88267	53
1.88633	56
1.89000	60
1.89367	62
1.89733	64
1.90100	65
1.90467	64
1.90833	63
1.91200	63
1.91567	63
1.91933	61
1.92300	61
1.92667	62
1.93033	63
1.93400	65
1.93767	66
1.94133	67
1.94500	66
1.94867	65
1.95233	64
1.95600	62
1.95967	63
1.96333	66
1.96700	68
1.97067	70
1.97433	73
1.97800	75
1.98167	74
1.98533	71
1.98900	71
1.99267	72
1.99633	74
2.00000	75
2.00367	78
2.00733	82
2.01100	82
2.01467	82
2.01833	82
2.02200	82
2.02567	82
2.02933	80
2.03300	81
2.03667	85
2.04033	85
2.04400	83
2.04767	82
2.05133	83
2.05500	85
2.05867	87
2.06233	90
2.06600	94
2.06967	95
2.07333	94
2.07700	96
2.08067	97
2.08433	98
2.08800	98
2.09167	98
2.09533	98
2.09900	100
2.10267	104
2.10633	105
2.11000	105
2.11367	106
2.11733	106
2.12100	106
2.12467	106
2.12833	107
2.13200	107
2.13567	108
2.13933	111
2.14300	115
2.14667	120
2.15033	123
2.15400	125
2.15767	127
2.16133	126
2.16500	125
2.16867	122
2.17233	120
2.17600	120
2.17967	122
2.18333	126
2.18700	127
2.19067	128
2.19433	130
2.19800	132
2.20167	132
2.20533	132
2.20900	136
2.21267	139
2.21633	143
2.22000	146
2.22367	148
2.22733	150
2.23100	151
2.23467	153
2.23833	153
2.24200	152
2.24567	154
2.24933	157
2.25300	161
2.25667	162
2.26033	161
2.26400	161
2.26767	161
2.27133	162
2.27500	164
2.27867	167
2.28233	170
2.28600	173
2.28967	175
2.29333	176
2.29700	175
2.30067	174
2.30433	175
2.30800	179
2.31167	182
2.31533	183
2.31900	184
2.32267	186
2.32633	188
2.33000	189
2.33367	190
2.33733	192
2.34100	191
2.34467	193
2.34833	197
2.35200	200
2.35567	203
2.35933	206
2.36300	206
2.36667	209
2.37033	212
2.37400	216
2.37767	218
2.38133	219
2.38500	218
2.38867	216
2.39233	217
2.39600	219
2.39967	221
2.40333	225
2.40700	229
2.41067	231
2.41433	233
2.41800	236
2.42167	239
2.42533	240
2.42900	240
2.43267	241
2.43633	244
2.44000	247
2.44367	281
2.44733	375
2.45100	476
2.45467	558
2.45833	606
2.46200	610
2.46567	584
2.46933	554
2.47300	532
2.47667	519
2.48033	509
2.48400	494
2.48767	471
2.49133	442
2.49500	411
2.49867	385
2.50233	364
2.50600	350
2.50967	341
2.51333	338
2.51700	339
2.52067	346
2.52433	356
2.52800	368
2.53167	381
2.53533	389
2.53900	392
2.54267	391
2.54633	383
2.55000	368
2.55367	350
2.55733	331
2.56100	313
2.56467	297
2.56833	284
2.57200	278
2.57567	272
2.57933	268
2.58300	265
2.58667	264
2.59033	261
2.59400	258
2.59767	251
2.60133	238
2.60500	221
2.60867	201
2.61233	180
2.61600	158
2.61967	137
2.62333	118
2.62700	104
2.63067	92
2.63433	83
2.63800	82
2.64167	85
2.64533	91
2.64900	99
2.65267	109
2.65633	121
2.66000	132
2.66367	142
2.66733	147
2.67100	150
2.67467	152
2.67833	153
2.68200	154
2.68567	155
2.68933	154
2.69300	153
2.69667	150
2.70033	145
2.70400	142
2.70767	138
2.71133	135
2.71500	133
2.71867	132
2.72233	131
2.72600	131
2.72967	133
2.73333	133
2.73700	134
2.74067	136
2.74433	135
2.74800	136
2.75167	136
2.75533	137
2.75900	137
2.76267	139
2.76633	142
2.77000	146
2.77367	149
2.77733	149
2.78100	148
2.78467	148
2.78833	150
2.79200	150
2.79567	149
2.79933	146
2.80300	146
2.80667	149
2.81033	155
2.81400	166
2.81767	194
2.82133	263
2.82500	418
2.82867	713
2.83233	1217
2.83600	1990
2.83967	3068
2.84333	4449
2.84700	6087
2.85067	7899
2.85433	9757
2.85800	11528
2.86167	13075
2.86533	14283
2.86900	15079
2.87267	15437
2.87633	15378
2.88000	14956
2.88367	14259
2.88733	13364
2.89100	12352
2.89467	11284
2.89833	10216
2.90200	9182
2.90567	8200
2.90933	7287
2.91300	6453
2.91667	5699
2.92033	5025
2.92400	4421
2.92767	3884
2.93133	3409
2.93500	2989
2.93867	2622
2.94233	2302
2.94600	2024
2.94967	1781
2.95333	1565
2.95700	1376
2.96067	1216
2.96433	1077
2.96800	959
2.97167	856
2.97533	765
2.97900	687
2.98267	619
2.98633	560
2.99000	508
2.99367	463
2.99733	426
3.00100	394
3.00467	365
3.00833	340
3.01200	318
3.01567	299
3.01933	281
3.02300	267
3.02667	253
3.03033	242
3.03400	232
3.03767	225
3.04133	216
3.04500	207
3.04867	198
3.05233	189
3.05600	173
3.05967	141
3.06333	109
3.06700	94
3.07067	91
3.07433	99
3.07800	115
3.08167	141
3.08533	178
3.08900	217
3.09267	256
3.09633	294
3.10000	330
3.10367	364
3.10733	397
3.11100	426
3.11467	453
3.11833	476
3.12200	493
3.12567	507
3.12933	520
3.13300	534
3.13667	546
3.14033	554
3.14400	560
3.14767	568
3.15133	574
3.15500	580
3.15867	587
3.16233	593
3.16600	598
3.16967	602
3.17333	605
3.17700	609
3.18067	611
3.18433	613
3.18800	616
3.19167	620
3.19533	627
3.19900	633
3.20267	637
3.20633	640
3.21000	644
3.21367	647
3.21733	650
3.22100	652
3.22467	652
3.22833	653
3.23200	654
3.23567	656
3.23933	657
3.24300	657
3.24667	657
3.25033	656
3.25400	652
3.25767	651
3.26133	652
3.26500	651
3.26867	650
3.27233	650
3.27600	650
3.27967	646
3.28333	641
3.28700	639
3.29067	636
3.29433	633
3.29800	630
3.30167	628
3.30533	626
3.30900	623
3.31267	621
3.31633	620
3.32000	620
3.32367	618
3.32733	616
3.33100	611
3.33467	609
3.33833	610
3.34200	614
3.34567	617
3.34933	617
3.35300	617
3.35667	618
3.36033	619
3.36400	619
3.36767	618
3.37133	617
3.37500	615
3.37867	613
3.38233	610
3.38600	609
3.38967	610
3.39333	612
3.39700	615
3.40067	617
3.40433	616
3.40800	614
3.41167	613
3.41533	614
3.41900	613
3.42267	613
3.42633	611
3.43000	608
3.43367	605
3.43733	604
3.44100	606
3.44467	606
3.44833	604
3.45200	603
3.45567	603
3.45933	602
3.46300	600
3.46667	598
3.47033	597
3.47400	597
3.47767	597
3.48133	595
3.48500	593
3.48867	590
3.49233	588
3.49600	586
3.49967	584
3.50333	583
3.50700	581
3.51067	578
3.51433	575
3.51800	573
3.52167	573
3.52533	574
3.52900	573
3.53267	571
3.53633	569
3.54000	567
3.54367	563
3.54733	561
3.55100	560
3.55467	558
3.55833	556
3.56200	557
3.56567	558
3.56933	556
3.57300	553
3.57667	550
3.58033	549
3.58400	548
3.58767	549
3.59133	548
3.59500	548
3.59867	547
3.60233	544
3.60600	541
3.60967	542
3.61333	543
3.61700	542
3.62067	542
3.62433	543
3.62800	542
3.63167	540
3.63533	538
3.63900	537
3.64267	536
3.64633	537
3.65000	536
3.65367	536
3.65733	533
3.66100	533
3.66467	533
3.66833	533
3.67200	532
3.67567	531
3.67933	530
3.68300	528
3.68667	527
3.69033	528
3.69400	527
3.69767	525
3.70133	524
3.70500	525
3.70867	522
3.71233	521
3.71600	521
3.71967	520
3.72333	521
3.72700	524
3.73067	526
3.73433	526
3.73800	524
3.74167	523
3.74533	522
3.74900	521
3.75267	519
3.75633	516
3.76000	515
3.76367	514
3.76733	514
3.77100	513
3.77467	513
3.77833	513
3.78200	512
3.78567	514
3.78933	515
3.79300	512
3.79667	510
3.80033	508
3.80400	508
3.80767	509
3.81133	511
3.81500	512
3.81867	511
3.82233	509
3.82600	509
3.82967	508
3.83333	507
3.83700	505
3.84067	505
3.84433	505
3.84800	503
3.85167	505
3.85533	505
3.85900	504
3.86267	504
3.86633	504
3.87000	504
3.87367	503
3.87733	502
3.88100	502
3.88467	502
3.88833	500
3.89200	496
3.89567	495
3.89933	495
3.90300	493
3.90667	491
3.91033	491
3.91400	490
3.91767	490
3.92133	488
3.92500	487
3.92867	487
3.93233	487
3.93600	486
3.93967	485
3.94333	484
3.94700	483
3.95067	481
3.95433	479
3.95800	478
3.96167	477
3.96533	477
3.96900	478
3.97267	476
3.97633	475
3.98000	474
3.98367	473
3.98733	471
3.99100	468
3.99467	467
3.99833	464

[Status Trace (Column Oven Temperature)]
Interval(msec)	1000
# of Points	239
Start Time(min)	0.014
End Time(min)	3.981
Intensity Units	
Intensity Multiplier	1
R.Time (min)	Intensity
0.01412	35.05
0.03078	35.04
0.04745	35.05
0.06412	35.06
0.08078	35.06
0.09745	35.06
0.11412	35.04
0.13078	35.02
0.14745	35.01
0.16412	35.01
0.18078	34.99
0.19745	35.00
0.21412	35.00
0.23078	34.99
0.24745	34.99
0.26412	34.98
0.28078	34.97
0.29745	34.97
0.31412	34.97
0.33078	34.98
0.34745	34.99
0.36412	35.00
0.38078	35.00
0.39745	35.00
0.41412	35.00
0.43078	34.99
0.44745	34.99
0.46412	34.98
0.48078	34.98
0.49745	34.98
0.51412	34.99
0.53078	35.01
0.54745	35.02
0.56412	35.03
0.58078	35.03
0.59745	35.01
0.61412	35.00
0.63078	35.00
0.64745	35.02
0.66412	35.02
0.68078	35.03
0.69745	35.04
0.71412	35.03
0.73078	35.02
0.74745	35.02
0.76412	35.02
0.78078	35.02
0.79745	35.02
0.81412	35.02
0.83078	35.02
0.84745	35.02
0.86412	35.03
0.88078	35.03
0.89745	35.03
0.91412	35.02
0.93078	35.01
0.94745	34.99
0.96412	34.99
0.98078	34.98
0.99745	34.98
1.01412	34.98
1.03078	34.99
1.04745	35.00
1.06412	35.01
1.08078	35.02
1.09745	35.02
1.11412	35.02
1.13078	35.02
1.14745	35.02
1.16412	35.02
1.18078	35.01
1.19745	35.01
1.21412	34.99
1.23078	34.98
1.24745	34.97
1.26412	34.98
1.28078	34.98
1.29745	34.98
1.31412	34.99
1.33078	35.01
1.34745	35.02
1.36412	35.02
1.38078	35.01
1.39745	35.00
1.41412	35.00
1.43078	34.97
1.44745	34.97
1.46412	34.97
1.48078	34.97
1.49745	34.97
1.51412	34.98
1.53078	34.98
1.54745	34.99
1.56412	34.99
1.58078	34.99
1.59745	35.01
1.61412	35.09
1.63078	35.23
1.64745	35.44
1.66412	35.73
1.68078	36.11
1.69745	36.47
1.71412	36.82
1.73078	37.14
1.74745	37.47
1.76412	37.80
1.78078	38.13
1.79745	38.47
1.81412	38.80
1.83078	39.12
1.84745	39.46
1.86412	39.79
1.88078	40.12
1.89745	40.45
1.91412	40.78
1.93078	41.10
1.94745	41.43
1.96412	41.76
1.98078	42.08
1.99745	42.40
2.01412	42.71
2.03078	43.03
2.04745	43.36
2.06412	43.70
2.08078	44.03
2.09745	44.34
2.11412	44.68
2.13078	45.01
2.14745	45.34
2.16412	45.65
2.18078	45.96
2.19745	46.28
2.21412	46.60
2.23078	46.97
2.24745	47.29
2.26412	47.60
2.28078	47.98
2.29745	48.32
2.31412	48.63
2.33078	48.95
2.34745	49.25
2.36412	49.55
2.38078	49.70
2.39745	49.73
2.41412	49.72
2.43078	49.73
2.44745	49.72
2.46412	49.73
2.48078	49.74
2.49745	49.75
2.51412	49.75
2.53078	49.76
2.54745	49.76
2.56412	49.78
2.58078	49.78
2.59745	49.80
2.61412	49.79
2.63078	49.83
2.64745	49.82
2.66412	49.84
2.68078	49.84
2.69745	49.85
2.71412	49.85
2.73078	49.84
2.74745	49.87
2.76412	49.88
2.78078	49.88
2.79745	49.88
2.81412	49.87
2.83078	49.86
2.84745	49.86
2.86412	49.85
2.88078	49.87
2.89745	49.89
2.91412	49.92
2.93078	49.94
2.94745	49.95
2.96412	49.97
2.98078	49.99
2.99745	50.00
3.01412	50.00
3.03078	50.01
3.04745	49.99
3.06412	50.00
3.08078	50.00
3.09745	50.01
3.11412	50.01
3.13078	50.01
3.14745	50.02
3.16412	50.03
3.18078	50.04
3.19745	50.05
3.21412	50.07
3.23078	50.08
3.24745	50.09
3.26412	50.10
3.28078	50.11
3.29745	50.10
3.31412	50.08
3.33078	50.07
3.34745	50.05
3.36412	50.06
3.38078	50.06
3.39745	50.06
3.41412	50.06
3.43078	50.06
3.44745	50.05
3.46412	50.04
3.48078	50.05
3.49745	50.05
3.51412	50.05
3.53078	50.05
3.54745	50.05
3.56412	50.07
3.58078	50.06
3.59745	50.07
3.61412	50.08
3.63078	50.07
3.64745	50.08
3.66412	50.09
3.68078	50.09
3.69745	50.09
3.71412	50.08
3.73078	50.07
3.74745	50.07
3.76412	50.06
3.78078	50.06
3.79745	50.05
3.81412	50.05
3.83078	50.05
3.84745	50.05
3.86412	50.05
3.88078	50.06
3.89745	50.06
3.91412	50.06
3.93078	50.06
3.94745	50.05
3.96412	50.06
3.98078	50.07

[Status Trace (Injection Unit Temperature)]
Interval(msec)	1000
# of Points	239
Start Time(min)	0.014
End Time(min)	3.981
Intensity Units	
Intensity Multiplier	1
R.Time (min)	Intensity
0.01412	99.97
0.03078	99.97
0.04745	99.97
0.06412	99.98
0.08078	99.98
0.09745	99.97
0.11412	99.98
0.13078	99.97
0.14745	99.98
0.16412	99.98
0.18078	99.98
0.19745	99.98
0.21412	99.98
0.23078	99.97
0.24745	99.98
0.26412	99.98
0.28078	99.98
0.29745	99.98
0.31412	99.98
0.33078	99.98
0.34745	99.98
0.36412	99.98
0.38078	99.98
0.39745	99.98
0.41412	99.98
0.43078	99.98
0.44745	99.98
0.46412	99.98
0.48078	99.98
0.49745	99.98
0.51412	99.98
0.53078	99.98
0.54745	99.98
0.56412	99.98
0.58078	99.98
0.59745	99.98
0.61412	99.98
0.63078	99.98
0.64745	99.98
0.66412	99.98
0.68078	99.98
0.69745	99.98
0.71412	99.99
0.73078	99.98
0.74745	99.98
0.76412	99.98
0.78078	99.98
0.79745	99.98
0.81412	99.98
0.83078	99.98
0.84745	99.98
0.86412	99.98
0.88078	99.98
0.89745	99.98
0.91412	99.98
0.93078	99.99
0.94745	99.99
0.96412	99.98
0.98078	99.98
0.99745	99.99
1.01412	99.98
1.03078	99.98
1.04745	99.98
1.06412	99.98
1.08078	99.98
1.09745	99.99
1.11412	99.99
1.13078	99.98
1.14745	99.98
1.16412	99.99
1.18078	99.98
1.19745	99.99
1.21412	99.98
1.23078	99.98
1.24745	99.98
1.26412	99.98
1.28078	99.98
1.29745	99.98
1.31412	99.98
1.33078	99.98
1.34745	99.98
1.36412	99.98
1.38078	99.98
1.39745	99.98
1.41412	99.98
1.43078	99.98
1.44745	99.98
1.46412	99.98
1.48078	99.98
1.49745	99.98
1.51412	99.98
1.53078	99.98
1.54745	99.98
1.56412	99.98
1.58078	99.98
1.59745	99.98
1.61412	99.98
1.63078	99.98
1.64745	99.98
1.66412	99.98
1.68078	99.98
1.69745	99.98
1.71412	99.98
1.73078	99.98
1.74745	99.98
1.76412	99.98
1.78078	99.98
1.79745	99.98
1.81412	99.98
1.83078	99.98
1.84745	99.98
1.86412	99.98
1.88078	99.98
1.89745	99.97
1.91412	99.98
1.93078	99.97
1.94745	99.98
1.96412	99.97
1.98078	99.98
1.99745	99.97
2.01412	99.98
2.03078	99.97
2.04745	99.97
2.06412	99.97
2.08078	99.97
2.09745	99.97
2.11412	99.97
2.13078	99.97
2.14745	99.96
2.16412	99.97
2.18078	99.97
2.19745	99.97
2.21412	99.97
2.23078	99.97
2.24745	99.96
2.26412	99.97
2.28078	99.97
2.29745	99.96
2.31412	99.96
2.33078	99.97
2.34745	99.97
2.36412	99.97
2.38078	99.97
2.39745	99.96
2.41412	99.96
2.43078	99.97
2.44745	99.96
2.46412	99.96
2.48078	99.97
2.49745	99.96
2.51412	99.97
2.53078	99.97
2.54745	99.97
2.56412	99.97
2.58078	99.97
2.59745	99.97
2.61412	99.97
2.63078	99.97
2.64745	99.98
2.66412	99.98
2.68078	99.98
2.69745	99.98
2.71412	99.98
2.73078	99.98
2.74745	99.98
2.76412	99.98
2.78078	99.99
2.79745	99.99
2.81412	99.99
2.83078	99.99
2.84745	99.99
2.86412	99.99
2.88078	100.00
2.89745	100.00
2.91412	100.00
2.93078	100.00
2.94745	100.00
2.96412	100.00
2.98078	100.00
2.99745	100.00
3.01412	100.01
3.03078	100.01
3.04745	100.01
3.06412	100.00
3.08078	100.01
3.09745	100.01
3.11412	100.01
3.13078	100.02
3.14745	100.01
3.16412	100.02
3.18078	100.01
3.19745	100.01
3.21412	100.02
3.23078	100.02
3.24745	100.02
3.26412	100.02
3.28078	100.02
3.29745	100.02
3.31412	100.02
3.33078	100.02
3.34745	100.02
3.36412	100.02
3.38078	100.02
3.39745	100.02
3.41412	100.02
3.43078	100.02
3.44745	100.02
3.46412	100.02
3.48078	100.02
3.49745	100.02
3.51412	100.03
3.53078	100.02
3.54745	100.03
3.56412	100.03
3.58078	100.03
3.59745	100.03
3.61412	100.03
3.63078	100.03
3.64745	100.03
3.66412	100.03
3.68078	100.03
3.69745	100.03
3.71412	100.03
3.73078	100.03
3.74745	100.04
3.76412	100.03
3.78078	100.04
3.79745	100.04
3.81412	100.04
3.83078	100.04
3.84745	100.04
3.86412	100.04
3.88078	100.04
3.89745	100.04
3.91412	100.04
3.93078	100.05
3.94745	100.04
3.96412	100.04
3.98078	100.04

[Status Trace (Carrier Gas Pressure)]
Interval(msec)	1000
# of Points	239
Start Time(min)	0.014
End Time(min)	3.981
Intensity Units	
Intensity Multiplier	1
R.Time (min)	Intensity
0.01412	57.48
0.03078	55.57
0.04745	57.90
0.06412	59.83
0.08078	58.66
0.09745	57.98
0.11412	58.00
0.13078	58.01
0.14745	58.01
0.16412	58.00
0.18078	58.00
0.19745	58.00
0.21412	58.00
0.23078	58.00
0.24745	58.00
0.26412	58.00
0.28078	58.00
0.29745	58.00
0.31412	58.00
0.33078	58.00
0.34745	58.00
0.36412	58.00
0.38078	58.00
0.39745	58.00
0.41412	58.00
0.43078	58.00
0.44745	58.00
0.46412	58.00
0.48078	58.00
0.49745	58.00
0.51412	58.00
0.53078	58.00
0.54745	58.00
0.56412	58.00
0.58078	58.00
0.59745	58.00
0.61412	58.00
0.63078	58.00
0.64745	58.00
0.66412	58.00
0.68078	58.00
0.69745	58.00
0.71412	58.00
0.73078	58.00
0.74745	58.00
0.76412	58.00
0.78078	58.00
0.79745	58.00
0.81412	58.00
0.83078	58.00
0.84745	58.00
0.86412	58.00
0.88078	58.00
0.89745	58.00
0.91412	58.00
0.93078	58.00
0.94745	58.00
0.96412	58.00
0.98078	58.00
0.99745	58.00
1.01412	58.00
1.03078	58.00
1.04745	58.00
1.06412	58.00
1.08078	58.00
1.09745	58.00
1.11412	58.00
1.13078	58.00
1.14745	58.00
1.16412	58.00
1.18078	58.00
1.19745	58.00
1.21412	58.00
1.23078	58.00
1.24745	58.00
1.26412	58.00
1.28078	58.00
1.29745	58.00
1.31412	58.00
1.33078	58.00
1.34745	58.00
1.36412	58.00
1.38078	58.00
1.39745	58.00
1.41412	58.00
1.43078	58.00
1.44745	58.00
1.46412	58.00
1.48078	58.00
1.49745	58.00
1.51412	58.00
1.53078	58.00
1.54745	58.00
1.56412	58.00
1.58078	58.00
1.59745	58.00
1.61412	58.00
1.63078	58.01
1.64745	58.00
1.66412	58.01
1.68078	58.01
1.69745	58.00
1.71412	58.00
1.73078	58.00
1.74745	58.00
1.76412	58.00
1.78078	58.00
1.79745	58.00
1.81412	58.00
1.83078	58.00
1.84745	58.00
1.86412	58.00
1.88078	58.00
1.89745	58.00
1.91412	58.00
1.93078	58.00
1.94745	58.00
1.96412	58.00
1.98078	58.00
1.99745	58.00
2.01412	58.00
2.03078	58.00
2.04745	58.00
2.06412	58.00
2.08078	58.00
2.09745	58.00
2.11412	58.00
2.13078	58.00
2.14745	58.00
2.16412	58.00
2.18078	58.00
2.19745	58.00
2.21412	58.00
2.23078	58.00
2.24745	58.00
2.26412	58.00
2.28078	58.00
2.29745	58.00
2.31412	58.00
2.33078	58.00
2.34745	58.00
2.36412	58.00
2.38078	57.99
2.39745	57.99
2.41412	57.99
2.43078	58.00
2.44745	58.00
2.46412	58.00
2.48078	58.00
2.49745	58.00
2.51412	57.99
2.53078	57.99
2.54745	58.00
2.56412	58.00
2.58078	58.00
2.59745	58.00
2.61412	58.00
2.63078	58.00
2.64745	58.00
2.66412	58.00
2.68078	58.00
2.69745	58.00
2.71412	58.00
2.73078	58.00
2.74745	58.00
2.76412	58.00
2.78078	58.00
2.79745	58.00
2.81412	58.00
2.83078	58.00
2.84745	58.00
2.86412	58.00
2.88078	58.00
2.89745	58.00
2.91412	58.00
2.93078	58.00
2.94745	58.00
2.96412	58.00
2.98078	58.00
2.99745	58.00
3.01412	58.00
3.03078	58.00
3.04745	58.00
3.06412	58.00
3.08078	58.00
3.09745	58.00
3.11412	58.00
3.13078	58.00
3.14745	58.00
3.16412	58.00
3.18078	58.00
3.19745	58.00
3.21412	58.00
3.23078	58.00
3.24745	58.00
3.26412	58.00
3.28078	58.00
3.29745	58.00
3.31412	58.00
3.33078	58.00
3.34745	58.00
3.36412	58.00
3.38078	58.00
3.39745	58.00
3.41412	58.00
3.43078	58.00
3.44745	58.00
3.46412	58.00
3.48078	58.00
3.49745	58.00
3.51412	58.00
3.53078	58.00
3.54745	58.00
3.56412	58.00
3.58078	58.00
3.59745	58.00
3.61412	58.00
3.63078	58.00
3.64745	58.00
3.66412	58.00
3.68078	58.00
3.69745	58.00
3.71412	58.00
3.73078	58.00
3.74745	58.00
3.76412	58.00
3.78078	58.00
3.79745	58.00
3.81412	58.00
3.83078	58.00
3.84745	58.00
3.86412	58.00
3.88078	58.00
3.89745	58.00
3.91412	58.00
3.93078	58.00
3.94745	58.00
3.96412	58.00
3.98078	58.00

[Status Trace (Carrier Gas Flow)]
Interval(msec)	1000
# of Points	239
Start Time(min)	0.014
End Time(min)	3.981
Intensity Units	
Intensity Multiplier	1
R.Time (min)	Intensity
0.01412	34.07
0.03078	34.54
0.04745	34.55
0.06412	34.52
0.08078	34.51
0.09745	34.52
0.11412	34.52
0.13078	34.52
0.14745	34.52
0.16412	34.52
0.18078	34.52
0.19745	34.52
0.21412	34.52
0.23078	34.52
0.24745	34.52
0.26412	34.52
0.28078	34.52
0.29745	34.52
0.31412	34.52
0.33078	34.52
0.34745	34.51
0.36412	34.51
0.38078	34.52
0.39745	34.52
0.41412	34.51
0.43078	34.52
0.44745	34.52
0.46412	34.52
0.48078	34.52
0.49745	34.52
0.51412	34.52
0.53078	34.52
0.54745	34.52
0.56412	34.52
0.58078	34.52
0.59745	34.52
0.61412	34.52
0.63078	34.52
0.64745	34.52
0.66412	34.52
0.68078	34.52
0.69745	34.52
0.71412	34.51
0.73078	34.52
0.74745	34.52
0.76412	34.52
0.78078	34.52
0.79745	34.52
0.81412	34.52
0.83078	34.52
0.84745	34.52
0.86412	34.52
0.88078	34.52
0.89745	34.52
0.91412	34.52
0.93078	34.52
0.94745	34.52
0.96412	34.52
0.98078	34.52
0.99745	34.52
1.01412	34.52
1.03078	34.52
1.04745	34.51
1.06412	34.52
1.08078	34.52
1.09745	34.52
1.11412	34.52
1.13078	34.52
1.14745	34.52
1.16412	34.52
1.18078	34.52
1.19745	34.52
1.21412	34.52
1.23078	34.52
1.24745	34.52
1.26412	34.52
1.28078	34.52
1.29745	34.52
1.31412	34.52
1.33078	34.52
1.34745	34.51
1.36412	34.51
1.38078	34.51
1.39745	34.52
1.41412	34.52
1.43078	34.52
1.44745	34.52
1.46412	34.53
1.48078	34.52
1.49745	34.51
1.51412	34.52
1.53078	34.52
1.54745	34.53
1.56412	34.51
1.58078	34.52
1.59745	34.52
1.61412	34.52
1.63078	34.52
1.64745	34.51
1.66412	34.51
1.68078	34.53
1.69745	34.52
1.71412	34.52
1.73078	34.51
1.74745	34.52
1.76412	34.53
1.78078	34.52
1.79745	34.52
1.81412	34.52
1.83078	34.52
1.84745	34.52
1.86412	34.52
1.88078	34.52
1.89745	34.52
1.91412	34.52
1.93078	34.51
1.94745	34.52
1.96412	34.52
1.98078	34.52
1.99745	34.53
2.01412	34.52
2.03078	34.51
2.04745	34.52
2.06412	34.52
2.08078	34.52
2.09745	34.52
2.11412	34.52
2.13078	34.52
2.14745	34.51
2.16412	34.52
2.18078	34.52
2.19745	34.52
2.21412	34.52
2.23078	34.51
2.24745	34.52
2.26412	34.52
2.28078	34.52
2.29745	34.52
2.31412	34.52
2.33078	34.52
2.34745	34.52
2.36412	34.52
2.38078	34.52
2.39745	34.52
2.41412	34.52
2.43078	34.52
2.44745	34.52
2.46412	34.52
2.48078	34.51
2.49745	34.52
2.51412	34.52
2.53078	34.52
2.54745	34.52
2.56412	34.52
2.58078	34.52
2.59745	34.52
2.61412	34.52
2.63078	34.52
2.64745	34.52
2.66412	34.51
2.68078	34.52
2.69745	34.52
2.71412	34.52
2.73078	34.51
2.74745	34.52
2.76412	34.52
2.78078	34.52
2.79745	34.52
2.81412	34.52
2.83078	34.52
2.84745	34.52
2.86412	34.52
2.88078	34.52
2.89745	34.52
2.91412	34.52
2.93078	34.52
2.94745	34.52
2.96412	34.51
2.98078	34.52
2.99745	34.52
3.01412	34.52
3.03078	34.52
3.04745	34.52
3.06412	34.51
3.08078	34.52
3.09745	34.52
3.11412	34.51
3.13078	34.51
3.14745	34.52
3.16412	34.52
3.18078	34.52
3.19745	34.52
3.21412	34.52
3.23078	34.52
3.24745	34.52
3.26412	34.52
3.28078	34.51
3.29745	34.52
3.31412	34.52
3.33078	34.52
3.34745	34.52
3.36412	34.52
3.38078	34.52
3.39745	34.52
3.41412	34.52
3.43078	34.52
3.44745	34.51
3.46412	34.52
3.48078	34.52
3.49745	34.52
3.51412	34.52
3.53078	34.52
3.54745	34.52
3.56412	34.52
3.58078	34.51
3.59745	34.51
3.61412	34.52
3.63078	34.52
3.64745	34.52
3.66412	34.52
3.68078	34.52
3.69745	34.52
3.71412	34.52
3.73078	34.52
3.74745	34.51
3.76412	34.52
3.78078	34.52
3.79745	34.51
3.81412	34.52
3.83078	34.52
3.84745	34.52
3.86412	34.52
3.88078	34.52
3.89745	34.51
3.91412	34.52
3.93078	34.52
3.94745	34.52
3.96412	34.52
3.98078	34.51

[Status Trace (Column Flow)]
Interval(msec)	1000
# of Points	239
Start Time(min)	0.014
End Time(min)	3.981
Intensity Units	
Intensity Multiplier	1
R.Time (min)	Intensity
0.01412	5.50
0.03078	5.28
0.04745	5.55
0.06412	5.78
0.08078	5.64
0.09745	5.56
0.11412	5.56
0.13078	5.57
0.14745	5.57
0.16412	5.57
0.18078	5.57
0.19745	5.57
0.21412	5.57
0.23078	5.57
0.24745	5.57
0.26412	5.57
0.28078	5.57
0.29745	5.57
0.31412	5.57
0.33078	5.57
0.34745	5.57
0.36412	5.57
0.38078	5.57
0.39745	5.57
0.41412	5.57
0.43078	5.57
0.44745	5.57
0.46412	5.57
0.48078	5.57
0.49745	5.57
0.51412	5.57
0.53078	5.57
0.54745	5.57
0.56412	5.56
0.58078	5.56
0.59745	5.57
0.61412	5.57
0.63078	5.57
0.64745	5.57
0.66412	5.57
0.68078	5.57
0.69745	5.56
0.71412	5.56
0.73078	5.57
0.74745	5.57
0.76412	5.57
0.78078	5.57
0.79745	5.57
0.81412	5.57
0.83078	5.57
0.84745	5.57
0.86412	5.57
0.88078	5.57
0.89745	5.57
0.91412	5.57
0.93078	5.57
0.94745	5.57
0.96412	5.57
0.98078	5.57
0.99745	5.57
1.01412	5.57
1.03078	5.57
1.04745	5.57
1.06412	5.57
1.08078	5.57
1.09745	5.57
1.11412	5.57
1.13078	5.57
1.14745	5.57
1.16412	5.57
1.18078	5.57
1.19745	5.57
1.21412	5.57
1.23078	5.57
1.24745	5.57
1.26412	5.57
1.28078	5.57
1.29745	5.57
1.31412	5.57
1.33078	5.57
1.34745	5.57
1.36412	5.57
1.38078	5.57
1.39745	5.57
1.41412	5.57
1.43078	5.57
1.44745	5.57
1.46412	5.57
1.48078	5.57
1.49745	5.57
1.51412	5.57
1.53078	5.57
1.54745	5.57
1.56412	5.57
1.58078	5.57
1.59745	5.57
1.61412	5.56
1.63078	5.56
1.64745	5.55
1.66412	5.54
1.68078	5.53
1.69745	5.52
1.71412	5.51
1.73078	5.50
1.74745	5.49
1.76412	5.48
1.78078	5.47
1.79745	5.46
1.81412	5.45
1.83078	5.44
1.84745	5.43
1.86412	5.42
1.88078	5.41
1.89745	5.40
1.91412	5.39
1.93078	5.38
1.94745	5.37
1.96412	5.36
1.98078	5.35
1.99745	5.34
2.01412	5.33
2.03078	5.32
2.04745	5.31
2.06412	5.30
2.08078	5.29
2.09745	5.28
2.11412	5.27
2.13078	5.26
2.14745	5.25
2.16412	5.24
2.18078	5.23
2.19745	5.23
2.21412	5.22
2.23078	5.20
2.24745	5.20
2.26412	5.19
2.28078	5.18
2.29745	5.17
2.31412	5.16
2.33078	5.15
2.34745	5.14
2.36412	5.13
2.38078	5.13
2.39745	5.13
2.41412	5.13
2.43078	5.13
2.44745	5.13
2.46412	5.13
2.48078	5.13
2.49745	5.13
2.51412	5.13
2.53078	5.12
2.54745	5.13
2.56412	5.13
2.58078	5.13
2.59745	5.12
2.61412	5.12
2.63078	5.12
2.64745	5.12
2.66412	5.12
2.68078	5.12
2.69745	5.12
2.71412	5.12
2.73078	5.12
2.74745	5.12
2.76412	5.12
2.78078	5.12
2.79745	5.12
2.81412	5.12
2.83078	5.12
2.84745	5.12
2.86412	5.12
2.88078	5.12
2.89745	5.12
2.91412	5.12
2.93078	5.12
2.94745	5.12
2.96412	5.12
2.98078	5.12
2.99745	5.12
3.01412	5.12
3.03078	5.12
3.04745	5.12
3.06412	5.12
3.08078	5.12
3.09745	5.12
3.11412	5.12
3.13078	5.12
3.14745	5.12
3.16412	5.12
3.18078	5.12
3.19745	5.12
3.21412	5.12
3.23078	5.12
3.24745	5.12
3.26412	5.12
3.28078	5.12
3.29745	5.12
3.31412	5.12
3.33078	5.12
3.34745	5.12
3.36412	5.12
3.38078	5.12
3.39745	5.12
3.41412	5.12
3.43078	5.12
3.44745	5.12
3.46412	5.12
3.48078	5.12
3.49745	5.12
3.51412	5.12
3.53078	5.12
3.54745	5.12
3.56412	5.12
3.58078	5.12
3.59745	5.12
3.61412	5.12
3.63078	5.12
3.64745	5.12
3.66412	5.12
3.68078	5.12
3.69745	5.12
3.71412	5.12
3.73078	5.12
3.74745	5.12
3.76412	5.12
3.78078	5.12
3.79745	5.12
3.81412	5.12
3.83078	5.12
3.84745	5.12
3.86412	5.12
3.88078	5.12
3.89745	5.12
3.91412	5.12
3.93078	5.12
3.94745	5.12
3.96412	5.12
3.98078	5.12

[Status Trace (Linear Velocity)]
Interval(msec)	1000
# of Points	239
Start Time(min)	0.014
End Time(min)	3.981
Intensity Units	
Intensity Multiplier	1
R.Time (min)	Intensity
0.01412	38.68
0.03078	37.43
0.04745	38.96
0.06412	40.22
0.08078	39.45
0.09745	39.01
0.11412	39.02
0.13078	39.03
0.14745	39.03
0.16412	39.03
0.18078	39.03
0.19745	39.03
0.21412	39.03
0.23078	39.03
0.24745	39.03
0.26412	39.03
0.28078	39.03
0.29745	39.03
0.31412	39.03
0.33078	39.03
0.34745	39.03
0.36412	39.03
0.38078	39.03
0.39745	39.03
0.41412	39.03
0.43078	39.03
0.44745	39.03
0.46412	39.03
0.48078	39.03
0.49745	39.03
0.51412	39.03
0.53078	39.03
0.54745	39.03
0.56412	39.02
0.58078	39.02
0.59745	39.03
0.61412	39.03
0.63078	39.03
0.64745	39.03
0.66412	39.02
0.68078	39.02
0.69745	39.02
0.71412	39.02
0.73078	39.02
0.74745	39.03
0.76412	39.03
0.78078	39.03
0.79745	39.03
0.81412	39.02
0.83078	39.03
0.84745	39.02
0.86412	39.02
0.88078	39.02
0.89745	39.02
0.91412	39.02
0.93078	39.03
0.94745	39.03
0.96412	39.03
0.98078	39.03
0.99745	39.03
1.01412	39.03
1.03078	39.03
1.04745	39.03
1.06412	39.03
1.08078	39.03
1.09745	39.03
1.11412	39.03
1.13078	39.02
1.14745	39.02
1.16412	39.03
1.18078	39.02
1.19745	39.03
1.21412	39.03
1.23078	39.03
1.24745	39.03
1.26412	39.03
1.28078	39.03
1.29745	39.03
1.31412	39.03
1.33078	39.03
1.34745	39.02
1.36412	39.02
1.38078	39.03
1.39745	39.03
1.41412	39.03
1.43078	39.03
1.44745	39.03
1.46412	39.03
1.48078	39.03
1.49745	39.03
1.51412	39.03
1.53078	39.03
1.54745	39.03
1.56412	39.03
1.58078	39.03
1.59745	39.03
1.61412	39.02
1.63078	39.01
1.64745	38.99
1.66412	38.96
1.68078	38.92
1.69745	38.89
1.71412	38.85
1.73078	38.82
1.74745	38.79
1.76412	38.76
1.78078	38.73
1.79745	38.70
1.81412	38.67
1.83078	38.63
1.84745	38.61
1.86412	38.57
1.88078	38.54
1.89745	38.51
1.91412	38.48
1.93078	38.45
1.94745	38.42
1.96412	38.39
1.98078	38.36
1.99745	38.33
2.01412	38.30
2.03078	38.27
2.04745	38.24
2.06412	38.21
2.08078	38.18
2.09745	38.15
2.11412	38.12
2.13078	38.09
2.14745	38.06
2.16412	38.03
2.18078	38.00
2.19745	37.98
2.21412	37.95
2.23078	37.91
2.24745	37.89
2.26412	37.86
2.28078	37.82
2.29745	37.80
2.31412	37.76
2.33078	37.74
2.34745	37.71
2.36412	37.68
2.38078	37.67
2.39745	37.66
2.41412	37.66
2.43078	37.67
2.44745	37.67
2.46412	37.67
2.48078	37.67
2.49745	37.66
2.51412	37.66
2.53078	37.66
2.54745	37.67
2.56412	37.66
2.58078	37.66
2.59745	37.66
2.61412	37.66
2.63078	37.66
2.64745	37.66
2.66412	37.66
2.68078	37.66
2.69745	37.66
2.71412	37.66
2.73078	37.66
2.74745	37.65
2.76412	37.65
2.78078	37.65
2.79745	37.65
2.81412	37.65
2.83078	37.65
2.84745	37.66
2.86412	37.66
2.88078	37.65
2.89745	37.65
2.91412	37.65
2.93078	37.65
2.94745	37.65
2.96412	37.65
2.98078	37.64
2.99745	37.64
3.01412	37.64
3.03078	37.64
3.04745	37.64
3.06412	37.64
3.08078	37.64
3.09745	37.64
3.11412	37.64
3.13078	37.64
3.14745	37.64
3.16412	37.64
3.18078	37.64
3.19745	37.64
3.21412	37.64
3.23078	37.64
3.24745	37.63
3.26412	37.63
3.28078	37.63
3.29745	37.63
3.31412	37.63
3.33078	37.64
3.34745	37.64
3.36412	37.64
3.38078	37.64
3.39745	37.64
3.41412	37.64
3.43078	37.64
3.44745	37.64
3.46412	37.64
3.48078	37.64
3.49745	37.64
3.51412	37.64
3.53078	37.64
3.54745	37.64
3.56412	37.64
3.58078	37.64
3.59745	37.64
3.61412	37.64
3.63078	37.64
3.64745	37.64
3.66412	37.63
3.68078	37.63
3.69745	37.63
3.71412	37.64
3.73078	37.64
3.74745	37.64
3.76412	37.64
3.78078	37.64
3.79745	37.64
3.81412	37.64
3.83078	37.64
3.84745	37.64
3.86412	37.64
3.88078	37.64
3.89745	37.64
3.91412	37.64
3.93078	37.64
3.94745	37.64
3.96412	37.64
3.98078	37.64

