[Header]
Application Name	LabSolutions
Version	5.110
Data File Name	C:\Users\User\Desktop\GC Analyses\Jack\Nachusa Grasslands Sampling\T1 Timepoint July 12th\T1_07122022_083.gcd
Output Date	3/14/2023
Output Time	3:41:02 PM

[File Information]
Type	Data File
Generated	3/8/2023 10:30:52 PM
Generated by	System Administrator
Modified	3/8/2023 10:37:39 PM
Modified by	System Administrator

[Sample Information]
Operator Name	System Administrator
Acquired	3/8/2023 10:33:39 PM
Sample Type	0:Unknown
Level	0
Sample Name	083
Sample ID	083
ISTD Amount1	1
ISTD Amount2	1
ISTD Amount3	1
ISTD Amount4	1
ISTD Amount5	1
ISTD Amount6	1
ISTD Amount7	1
ISTD Amount8	1
ISTD Amount9	1
ISTD Amount10	1
ISTD Amount11	1
ISTD Amount12	1
ISTD Amount13	1
ISTD Amount14	1
ISTD Amount15	1
ISTD Amount16	1
ISTD Amount17	1
ISTD Amount18	1
ISTD Amount19	1
ISTD Amount20	1
ISTD Amount21	1
ISTD Amount22	1
ISTD Amount23	1
ISTD Amount24	1
ISTD Amount25	1
ISTD Amount26	1
ISTD Amount27	1
ISTD Amount28	1
ISTD Amount29	1
ISTD Amount30	1
ISTD Amount31	1
ISTD Amount32	1
Sample Amount	1
Dilution Factor	1
Vial#	82
Injection Volume	1
Injection Count	1
Bar Code	

[Original Files]
Data File	C:\Users\User\Desktop\GC Analyses\Jack\Nachusa Grasslands Sampling\T1 Timepoint July 12th\T1_07122022_083.gcd
Method File	C:\LabSolutions\Data\GHG_4min_2022\ghg3_togas_w_acet_4 min_new_int.gcm
Batch File	C:\LabSolutions\Data\AutoSamplerTesting\T1_07122022.gcb
Report Format File	c:\LabSolutions\System\DEFAULT.lsr

[File Description]


[Configuration]
Instrument Name	C0B7VH3-Instrument1
Instrument #	1
Line #	1
# of Detectors	3
Detector ID	DET#1	DET#2	DET#3
Detector Name	FID	PTCD	ECD
# of Channels	1	1	1

[Peak Table(Ch1)]
# of Peaks	3
Peak#	R.Time	I.Time	F.Time	Area	Height	A/H	Conc.	Mark	ID#	Name	k'	Plate #	Plate Ht.	Tailing	Resolution	Sep.Factor	Area Ratio	Height Ratio	Conc. %	Norm Conc.
1	1.483	1.413	1.531	2589	707	3.663	18.279	   	1	CO	0.000	4142	36.211	0.000	0.000	0.000	0	0	1.915	1.915
2	1.567	1.531	1.648	20964	10461	2.004	405.358	 V 	2	CH4	0.057	11247	13.337	1.268	1.115	0.000	0	0	42.462	42.462
3	1.996	1.952	2.590	2115721	998372	2.119	530.989	   	3	CO2	0.346	17127	8.758	1.291	7.142	6.087	0	0	55.623	55.623

[Peak Table(Ch2)]
# of Peaks	0

[Peak Table(Ch3)]
# of Peaks	6
Peak#	R.Time	I.Time	F.Time	Area	Height	A/H	Conc.	Mark	ID#	Name	k'	Plate #	Plate Ht.	Tailing	Resolution	Sep.Factor	Area Ratio	Height Ratio	Conc. %	Norm Conc.
1	0.621	0.185	1.083	773	25	30.875	0.000	   			0.000	41	3683.201	0.993	0.000	0.000	0	0	0.000	0.000
2	2.458	2.180	2.513	3120	636	4.905	0.000	   			2.957	9059	16.559	0.000	7.456	0.000	0	0	0.000	0.000
3	2.539	2.513	2.627	1137	288	3.951	0.000	 V 			3.086	4184	35.854	0.000	0.620	1.044	0	0	0.000	0.000
4	2.675	2.642	2.726	146	58	2.512	0.000	   			3.305	23415	6.406	1.245	1.196	1.071	0	0	0.000	0.000
5	2.873	2.803	3.005	59790	15701	3.808	1.527	   	1	N2O	3.623	12674	11.835	1.611	2.303	1.096	0	0	100.000	100.000
6	3.283	3.118	3.525	925	79	11.709	0.000	   	2	SF6	4.284	1893	79.219	1.340	2.034	1.182	0	0	0.000	0.000

[Compound Results(Ch1)]
# of IDs	6
ID#	Name	R.Time	Area	Height	Conc.	Curve	3rd	2nd	1st	Constant	Area Ratio	Height Ratio	Conc. %	Norm Conc.
1	CO	1.483	2589	707	18.279	Linear	0.000000e+00	0.000000e+00	1.416423e+002	0.000000e+00	0	0	1.915	1.915
2	CH4	1.567	20964	10461	405.358	Linear	0.000000e+00	0.000000e+00	5.171738e+001	0.000000e+00	0	0	42.462	42.462
3	CO2	1.996	2115721	998372	530.989	Linear	0.000000e+00	0.000000e+00	3.984494e+003	0.000000e+00	0	0	55.623	55.623
4	Ethylene	0.000	0	0	0.000	Linear	0.000000e+00	0.000000e+00	0.000000e+00	0.000000e+00	0	0	0.000	0.000
5	Acetylene	0.000	0	0	0.000	Linear	0.000000e+00	0.000000e+00	0.000000e+00	0.000000e+00	0	0	0.000	0.000
6	Ethane	0.000	0	0	0.000	Linear	0.000000e+00	0.000000e+00	0.000000e+00	0.000000e+00	0	0	0.000	0.000

[Compound Results(Ch2)]
# of IDs	5
ID#	Name	R.Time	Area	Height	Conc.	Curve	3rd	2nd	1st	Constant	Area Ratio	Height Ratio	Conc. %	Norm Conc.
1	Hydrogen	0.000	0	0	0.000	Linear	0.000000e+00	0.000000e+00	0.000000e+00	0.000000e+00	0	0	0.000	0.000
2	Oxygen	0.000	0	0	0.000	Linear	0.000000e+00	0.000000e+00	0.000000e+00	0.000000e+00	0	0	0.000	0.000
3	Nitrogen	0.000	0	0	0.000	Linear	0.000000e+00	0.000000e+00	0.000000e+00	0.000000e+00	0	0	0.000	0.000
4	Methane	0.000	0	0	0.000	Linear	0.000000e+00	0.000000e+00	0.000000e+00	0.000000e+00	0	0	0.000	0.000
5	Carbon Monoxide	0.000	0	0	0.000	Linear	0.000000e+00	0.000000e+00	0.000000e+00	0.000000e+00	0	0	0.000	0.000

[Compound Results(Ch3)]
# of IDs	2
ID#	Name	R.Time	Area	Height	Conc.	Curve	3rd	2nd	1st	Constant	Area Ratio	Height Ratio	Conc. %	Norm Conc.
1	N2O	2.873	59790	15701	1.527	Linear	0.000000e+00	0.000000e+00	3.915173e+004	0.000000e+00	0	0	100.000	100.000
2	SF6	3.283	925	79	0.000	Linear	0.000000e+00	0.000000e+00	0.000000e+00	0.000000e+00	0	0	0.000	0.000

[Group Results(Ch1)]
# of Groups	0

[Group Results(Ch2)]
# of Groups	0

[Group Results(Ch3)]
# of Groups	0

[Chromatogram (Ch1)]
Interval(msec)	220
# of Points	1091
Start Time(min)	0.002
End Time(min)	3.998
R.Time (min)	Intensity
0.00167	7
0.00533	8
0.00900	10
0.01267	12
0.01633	10
0.02000	4
0.02367	-1
0.02733	2
0.03100	9
0.03467	15
0.03833	21
0.04200	25
0.04567	26
0.04933	23
0.05300	19
0.05667	14
0.06033	11
0.06400	10
0.06767	12
0.07133	15
0.07500	16
0.07867	20
0.08233	29
0.08600	39
0.08967	47
0.09333	53
0.09700	57
0.10067	54
0.10433	49
0.10800	47
0.11167	52
0.11533	57
0.11900	63
0.12267	69
0.12633	75
0.13000	81
0.13367	90
0.13733	103
0.14100	113
0.14467	116
0.14833	113
0.15200	103
0.15567	91
0.15933	82
0.16300	76
0.16667	72
0.17033	68
0.17400	64
0.17767	63
0.18133	69
0.18500	72
0.18867	72
0.19233	68
0.19600	61
0.19967	55
0.20333	51
0.20700	48
0.21067	49
0.21433	51
0.21800	52
0.22167	50
0.22533	49
0.22900	46
0.23267	42
0.23633	34
0.24000	23
0.24367	19
0.24733	17
0.25100	15
0.25467	12
0.25833	9
0.26200	7
0.26567	8
0.26933	10
0.27300	14
0.27667	17
0.28033	13
0.28400	8
0.28767	5
0.29133	6
0.29500	10
0.29867	15
0.30233	20
0.30600	25
0.30967	26
0.31333	25
0.31700	24
0.32067	24
0.32433	25
0.32800	24
0.33167	18
0.33533	15
0.33900	17
0.34267	25
0.34633	30
0.35000	27
0.35367	26
0.35733	27
0.36100	26
0.36467	22
0.36833	18
0.37200	16
0.37567	16
0.37933	16
0.38300	15
0.38667	14
0.39033	13
0.39400	12
0.39767	15
0.40133	22
0.40500	28
0.40867	34
0.41233	41
0.41600	46
0.41967	51
0.42333	54
0.42700	51
0.43067	45
0.43433	35
0.43800	27
0.44167	24
0.44533	22
0.44900	20
0.45267	14
0.45633	8
0.46000	5
0.46367	10
0.46733	19
0.47100	23
0.47467	25
0.47833	21
0.48200	15
0.48567	13
0.48933	13
0.49300	18
0.49667	30
0.50033	45
0.50400	54
0.50767	54
0.51133	49
0.51500	44
0.51867	45
0.52233	47
0.52600	46
0.52967	38
0.53333	28
0.53700	18
0.54067	9
0.54433	1
0.54800	3
0.55167	12
0.55533	24
0.55900	35
0.56267	43
0.56633	47
0.57000	48
0.57367	48
0.57733	50
0.58100	53
0.58467	56
0.58833	60
0.59200	65
0.59567	69
0.59933	71
0.60300	72
0.60667	72
0.61033	74
0.61400	75
0.61767	75
0.62133	72
0.62500	67
0.62867	64
0.63233	62
0.63600	61
0.63967	59
0.64333	55
0.64700	54
0.65067	56
0.65433	62
0.65800	65
0.66167	66
0.66533	63
0.66900	56
0.67267	48
0.67633	42
0.68000	43
0.68367	49
0.68733	55
0.69100	59
0.69467	65
0.69833	71
0.70200	78
0.70567	81
0.70933	83
0.71300	86
0.71667	88
0.72033	91
0.72400	94
0.72767	96
0.73133	98
0.73500	95
0.73867	89
0.74233	81
0.74600	76
0.74967	75
0.75333	78
0.75700	82
0.76067	84
0.76433	87
0.76800	90
0.77167	92
0.77533	91
0.77900	86
0.78267	76
0.78633	69
0.79000	65
0.79367	63
0.79733	63
0.80100	64
0.80467	69
0.80833	74
0.81200	78
0.81567	80
0.81933	84
0.82300	85
0.82667	83
0.83033	78
0.83400	75
0.83767	72
0.84133	71
0.84500	74
0.84867	80
0.85233	89
0.85600	101
0.85967	112
0.86333	120
0.86700	115
0.87067	102
0.87433	88
0.87800	78
0.88167	71
0.88533	70
0.88900	72
0.89267	72
0.89633	70
0.90000	66
0.90367	59
0.90733	51
0.91100	47
0.91467	51
0.91833	55
0.92200	51
0.92567	41
0.92933	33
0.93300	34
0.93667	42
0.94033	52
0.94400	60
0.94767	67
0.95133	75
0.95500	80
0.95867	80
0.96233	74
0.96600	67
0.96967	62
0.97333	56
0.97700	53
0.98067	55
0.98433	61
0.98800	65
0.99167	66
0.99533	66
0.99900	66
1.00267	68
1.00633	70
1.01000	72
1.01367	73
1.01733	74
1.02100	74
1.02467	75
1.02833	80
1.03200	88
1.03567	92
1.03933	88
1.04300	77
1.04667	64
1.05033	58
1.05400	54
1.05767	50
1.06133	48
1.06500	49
1.06867	50
1.07233	52
1.07600	53
1.07967	53
1.08333	55
1.08700	57
1.09067	57
1.09433	57
1.09800	60
1.10167	64
1.10533	65
1.10900	65
1.11267	64
1.11633	64
1.12000	67
1.12367	68
1.12733	65
1.13100	63
1.13467	64
1.13833	66
1.14200	69
1.14567	73
1.14933	75
1.15300	72
1.15667	71
1.16033	70
1.16400	67
1.16767	62
1.17133	57
1.17500	52
1.17867	50
1.18233	54
1.18600	62
1.18967	70
1.19333	73
1.19700	73
1.20067	72
1.20433	69
1.20800	64
1.21167	60
1.21533	58
1.21900	58
1.22267	59
1.22633	60
1.23000	61
1.23367	59
1.23733	57
1.24100	57
1.24467	57
1.24833	60
1.25200	64
1.25567	67
1.25933	69
1.26300	70
1.26667	69
1.27033	68
1.27400	65
1.27767	61
1.28133	58
1.28500	56
1.28867	55
1.29233	56
1.29600	58
1.29967	61
1.30333	62
1.30700	61
1.31067	58
1.31433	55
1.31800	55
1.32167	56
1.32533	58
1.32900	61
1.33267	63
1.33633	61
1.34000	58
1.34367	61
1.34733	66
1.35100	69
1.35467	66
1.35833	62
1.36200	62
1.36567	66
1.36933	70
1.37300	70
1.37667	64
1.38033	59
1.38400	52
1.38767	45
1.39133	42
1.39500	41
1.39867	39
1.40233	38
1.40600	39
1.40967	42
1.41333	47
1.41700	52
1.42067	57
1.42433	62
1.42800	63
1.43167	60
1.43533	58
1.43900	80
1.44267	175
1.44633	352
1.45000	535
1.45367	661
1.45733	727
1.46100	745
1.46467	734
1.46833	716
1.47200	709
1.47567	719
1.47933	740
1.48300	754
1.48667	745
1.49033	706
1.49400	642
1.49767	568
1.50133	495
1.50500	427
1.50867	370
1.51233	320
1.51600	278
1.51967	242
1.52333	208
1.52700	180
1.53067	157
1.53433	157
1.53800	238
1.54167	582
1.54533	1478
1.54900	3052
1.55267	5051
1.55633	7040
1.56000	8704
1.56367	9897
1.56733	10509
1.57100	10402
1.57467	9523
1.57833	8053
1.58200	6333
1.58567	4696
1.58933	3342
1.59300	2317
1.59667	1587
1.60033	1089
1.60400	753
1.60767	526
1.61133	370
1.61500	261
1.61867	184
1.62233	136
1.62600	109
1.62967	93
1.63333	80
1.63700	69
1.64067	60
1.64433	52
1.64800	49
1.65167	48
1.65533	47
1.65900	51
1.66267	58
1.66633	62
1.67000	62
1.67367	60
1.67733	57
1.68100	55
1.68467	59
1.68833	65
1.69200	66
1.69567	63
1.69933	59
1.70300	58
1.70667	61
1.71033	65
1.71400	68
1.71767	66
1.72133	64
1.72500	64
1.72867	70
1.73233	79
1.73600	84
1.73967	78
1.74333	65
1.74700	54
1.75067	47
1.75433	43
1.75800	40
1.76167	36
1.76533	31
1.76900	26
1.77267	25
1.77633	27
1.78000	30
1.78367	32
1.78733	34
1.79100	40
1.79467	48
1.79833	55
1.80200	57
1.80567	56
1.80933	56
1.81300	59
1.81667	65
1.82033	73
1.82400	81
1.82767	85
1.83133	83
1.83500	79
1.83867	77
1.84233	74
1.84600	71
1.84967	68
1.85333	65
1.85700	65
1.86067	66
1.86433	70
1.86800	75
1.87167	80
1.87533	80
1.87900	79
1.88267	82
1.88633	86
1.89000	84
1.89367	79
1.89733	76
1.90100	75
1.90467	76
1.90833	80
1.91200	86
1.91567	94
1.91933	102
1.92300	104
1.92667	102
1.93033	102
1.93400	104
1.93767	106
1.94133	108
1.94500	109
1.94867	108
1.95233	127
1.95600	310
1.95967	1397
1.96333	6286
1.96700	22994
1.97067	66903
1.97433	156162
1.97800	298333
1.98167	479544
1.98533	669192
1.98900	834150
1.99267	948980
1.99633	998523
2.00000	978219
2.00367	895276
2.00733	767910
2.01100	620738
2.01467	476907
2.01833	351918
2.02200	252275
2.02567	177671
2.02933	124234
2.03300	87077
2.03667	61710
2.04033	44555
2.04400	32976
2.04767	25122
2.05133	19734
2.05500	15975
2.05867	13294
2.06233	11335
2.06600	9869
2.06967	8741
2.07333	7850
2.07700	7126
2.08067	6528
2.08433	6026
2.08800	5600
2.09167	5233
2.09533	4910
2.09900	4624
2.10267	4368
2.10633	4137
2.11000	3932
2.11367	3748
2.11733	3584
2.12100	3438
2.12467	3304
2.12833	3179
2.13200	3058
2.13567	2945
2.13933	2836
2.14300	2728
2.14667	2621
2.15033	2520
2.15400	2428
2.15767	2347
2.16133	2278
2.16500	2215
2.16867	2155
2.17233	2095
2.17600	2033
2.17967	1972
2.18333	1914
2.18700	1860
2.19067	1812
2.19433	1769
2.19800	1727
2.20167	1687
2.20533	1646
2.20900	1606
2.21267	1569
2.21633	1534
2.22000	1504
2.22367	1477
2.22733	1454
2.23100	1429
2.23467	1402
2.23833	1376
2.24200	1349
2.24567	1326
2.24933	1305
2.25300	1282
2.25667	1260
2.26033	1238
2.26400	1214
2.26767	1188
2.27133	1165
2.27500	1146
2.27867	1126
2.28233	1104
2.28600	1085
2.28967	1070
2.29333	1062
2.29700	1054
2.30067	1043
2.30433	1029
2.30800	1014
2.31167	998
2.31533	981
2.31900	963
2.32267	946
2.32633	931
2.33000	919
2.33367	904
2.33733	884
2.34100	869
2.34467	861
2.34833	851
2.35200	835
2.35567	816
2.35933	798
2.36300	784
2.36667	775
2.37033	771
2.37400	772
2.37767	773
2.38133	771
2.38500	768
2.38867	764
2.39233	759
2.39600	754
2.39967	750
2.40333	748
2.40700	744
2.41067	737
2.41433	730
2.41800	728
2.42167	726
2.42533	720
2.42900	715
2.43267	711
2.43633	705
2.44000	695
2.44367	682
2.44733	667
2.45100	651
2.45467	640
2.45833	638
2.46200	643
2.46567	646
2.46933	647
2.47300	646
2.47667	641
2.48033	633
2.48400	623
2.48767	611
2.49133	597
2.49500	587
2.49867	583
2.50233	578
2.50600	571
2.50967	563
2.51333	559
2.51700	558
2.52067	557
2.52433	555
2.52800	552
2.53167	546
2.53533	542
2.53900	541
2.54267	546
2.54633	556
2.55000	567
2.55367	566
2.55733	552
2.56100	532
2.56467	516
2.56833	502
2.57200	494
2.57567	493
2.57933	493
2.58300	494
2.58667	492
2.59033	487
2.59400	484
2.59767	485
2.60133	488
2.60500	493
2.60867	498
2.61233	498
2.61600	491
2.61967	481
2.62333	476
2.62700	474
2.63067	473
2.63433	475
2.63800	476
2.64167	472
2.64533	467
2.64900	466
2.65267	465
2.65633	465
2.66000	467
2.66367	465
2.66733	459
2.67100	455
2.67467	452
2.67833	445
2.68200	432
2.68567	424
2.68933	420
2.69300	421
2.69667	424
2.70033	426
2.70400	425
2.70767	421
2.71133	419
2.71500	420
2.71867	422
2.72233	425
2.72600	426
2.72967	422
2.73333	415
2.73700	409
2.74067	403
2.74433	397
2.74800	394
2.75167	396
2.75533	400
2.75900	402
2.76267	402
2.76633	400
2.77000	395
2.77367	389
2.77733	383
2.78100	379
2.78467	383
2.78833	390
2.79200	401
2.79567	410
2.79933	403
2.80300	393
2.80667	386
2.81033	380
2.81400	376
2.81767	375
2.82133	371
2.82500	367
2.82867	363
2.83233	362
2.83600	364
2.83967	369
2.84333	373
2.84700	373
2.85067	368
2.85433	357
2.85800	345
2.86167	338
2.86533	338
2.86900	337
2.87267	334
2.87633	332
2.88000	333
2.88367	333
2.88733	333
2.89100	333
2.89467	335
2.89833	338
2.90200	339
2.90567	341
2.90933	343
2.91300	343
2.91667	341
2.92033	338
2.92400	332
2.92767	326
2.93133	326
2.93500	331
2.93867	333
2.94233	332
2.94600	327
2.94967	320
2.95333	318
2.95700	318
2.96067	321
2.96433	327
2.96800	331
2.97167	329
2.97533	323
2.97900	318
2.98267	311
2.98633	307
2.99000	307
2.99367	310
2.99733	318
3.00100	329
3.00467	333
3.00833	329
3.01200	320
3.01567	306
3.01933	296
3.02300	288
3.02667	287
3.03033	290
3.03400	293
3.03767	296
3.04133	301
3.04500	304
3.04867	305
3.05233	304
3.05600	299
3.05967	296
3.06333	296
3.06700	297
3.07067	295
3.07433	286
3.07800	275
3.08167	267
3.08533	265
3.08900	264
3.09267	262
3.09633	257
3.10000	250
3.10367	242
3.10733	237
3.11100	234
3.11467	232
3.11833	235
3.12200	239
3.12567	248
3.12933	260
3.13300	267
3.13667	272
3.14033	277
3.14400	279
3.14767	273
3.15133	258
3.15500	241
3.15867	228
3.16233	219
3.16600	219
3.16967	222
3.17333	222
3.17700	225
3.18067	230
3.18433	237
3.18800	243
3.19167	243
3.19533	238
3.19900	229
3.20267	222
3.20633	219
3.21000	219
3.21367	222
3.21733	227
3.22100	231
3.22467	230
3.22833	227
3.23200	225
3.23567	226
3.23933	227
3.24300	227
3.24667	226
3.25033	225
3.25400	225
3.25767	225
3.26133	225
3.26500	222
3.26867	221
3.27233	220
3.27600	215
3.27967	209
3.28333	208
3.28700	211
3.29067	216
3.29433	220
3.29800	221
3.30167	219
3.30533	217
3.30900	218
3.31267	220
3.31633	218
3.32000	215
3.32367	212
3.32733	210
3.33100	206
3.33467	199
3.33833	190
3.34200	184
3.34567	179
3.34933	178
3.35300	179
3.35667	183
3.36033	189
3.36400	195
3.36767	196
3.37133	195
3.37500	196
3.37867	198
3.38233	200
3.38600	201
3.38967	200
3.39333	200
3.39700	201
3.40067	201
3.40433	199
3.40800	192
3.41167	187
3.41533	185
3.41900	186
3.42267	191
3.42633	196
3.43000	199
3.43367	203
3.43733	206
3.44100	206
3.44467	205
3.44833	199
3.45200	186
3.45567	171
3.45933	159
3.46300	150
3.46667	144
3.47033	141
3.47400	140
3.47767	141
3.48133	142
3.48500	144
3.48867	146
3.49233	150
3.49600	154
3.49967	158
3.50333	162
3.50700	163
3.51067	161
3.51433	161
3.51800	162
3.52167	163
3.52533	166
3.52900	168
3.53267	168
3.53633	167
3.54000	166
3.54367	163
3.54733	159
3.55100	155
3.55467	156
3.55833	155
3.56200	153
3.56567	149
3.56933	147
3.57300	144
3.57667	142
3.58033	143
3.58400	143
3.58767	139
3.59133	131
3.59500	126
3.59867	127
3.60233	134
3.60600	139
3.60967	140
3.61333	140
3.61700	135
3.62067	134
3.62433	135
3.62800	137
3.63167	141
3.63533	143
3.63900	144
3.64267	144
3.64633	142
3.65000	139
3.65367	135
3.65733	131
3.66100	126
3.66467	121
3.66833	115
3.67200	108
3.67567	105
3.67933	104
3.68300	102
3.68667	103
3.69033	108
3.69400	116
3.69767	121
3.70133	128
3.70500	133
3.70867	136
3.71233	137
3.71600	132
3.71967	117
3.72333	103
3.72700	96
3.73067	98
3.73433	105
3.73800	109
3.74167	110
3.74533	114
3.74900	123
3.75267	132
3.75633	135
3.76000	130
3.76367	123
3.76733	118
3.77100	109
3.77467	100
3.77833	90
3.78200	82
3.78567	76
3.78933	75
3.79300	78
3.79667	81
3.80033	81
3.80400	81
3.80767	87
3.81133	95
3.81500	100
3.81867	101
3.82233	98
3.82600	96
3.82967	93
3.83333	93
3.83700	98
3.84067	103
3.84433	104
3.84800	103
3.85167	105
3.85533	110
3.85900	116
3.86267	118
3.86633	115
3.87000	107
3.87367	96
3.87733	88
3.88100	82
3.88467	77
3.88833	70
3.89200	65
3.89567	64
3.89933	67
3.90300	73
3.90667	76
3.91033	77
3.91400	79
3.91767	80
3.92133	77
3.92500	73
3.92867	73
3.93233	72
3.93600	73
3.93967	73
3.94333	73
3.94700	76
3.95067	81
3.95433	85
3.95800	86
3.96167	82
3.96533	77
3.96900	76
3.97267	79
3.97633	79
3.98000	76
3.98367	73
3.98733	69
3.99100	66
3.99467	67
3.99833	66

[Chromatogram (Ch2)]
Interval(msec)	220
# of Points	1091
Start Time(min)	0.002
End Time(min)	3.998
R.Time (min)	Intensity
0.00167	0
0.00533	0
0.00900	0
0.01267	1
0.01633	1
0.02000	1
0.02367	1
0.02733	2
0.03100	2
0.03467	3
0.03833	3
0.04200	3
0.04567	3
0.04933	4
0.05300	4
0.05667	4
0.06033	4
0.06400	4
0.06767	4
0.07133	4
0.07500	4
0.07867	3
0.08233	3
0.08600	2
0.08967	2
0.09333	1
0.09700	1
0.10067	1
0.10433	1
0.10800	1
0.11167	0
0.11533	0
0.11900	0
0.12267	-0
0.12633	-0
0.13000	-0
0.13367	-0
0.13733	0
0.14100	0
0.14467	1
0.14833	1
0.15200	1
0.15567	1
0.15933	1
0.16300	1
0.16667	1
0.17033	1
0.17400	0
0.17767	0
0.18133	-0
0.18500	-0
0.18867	-1
0.19233	-1
0.19600	-1
0.19967	-1
0.20333	-1
0.20700	-1
0.21067	-1
0.21433	-1
0.21800	-1
0.22167	-1
0.22533	-1
0.22900	-1
0.23267	-1
0.23633	-1
0.24000	-1
0.24367	-1
0.24733	-1
0.25100	-1
0.25467	-0
0.25833	-0
0.26200	-0
0.26567	-0
0.26933	-0
0.27300	-0
0.27667	-0
0.28033	-0
0.28400	-0
0.28767	-0
0.29133	-0
0.29500	0
0.29867	0
0.30233	0
0.30600	0
0.30967	-0
0.31333	-0
0.31700	-0
0.32067	-1
0.32433	-1
0.32800	-1
0.33167	-2
0.33533	-2
0.33900	-2
0.34267	-2
0.34633	-1
0.35000	-1
0.35367	-0
0.35733	-0
0.36100	-0
0.36467	-0
0.36833	-0
0.37200	-0
0.37567	-1
0.37933	-1
0.38300	-1
0.38667	-1
0.39033	-2
0.39400	-2
0.39767	-1
0.40133	-1
0.40500	-1
0.40867	-1
0.41233	-0
0.41600	-0
0.41967	0
0.42333	1
0.42700	1
0.43067	1
0.43433	1
0.43800	2
0.44167	2
0.44533	2
0.44900	3
0.45267	3
0.45633	3
0.46000	3
0.46367	2
0.46733	2
0.47100	2
0.47467	2
0.47833	2
0.48200	2
0.48567	2
0.48933	2
0.49300	1
0.49667	1
0.50033	1
0.50400	1
0.50767	0
0.51133	-0
0.51500	-1
0.51867	-1
0.52233	-1
0.52600	-2
0.52967	-2
0.53333	-2
0.53700	-2
0.54067	-2
0.54433	-2
0.54800	-2
0.55167	-2
0.55533	-1
0.55900	-1
0.56267	-1
0.56633	-1
0.57000	-2
0.57367	-2
0.57733	-2
0.58100	-2
0.58467	-2
0.58833	-2
0.59200	-2
0.59567	-2
0.59933	-1
0.60300	-1
0.60667	-1
0.61033	-1
0.61400	-0
0.61767	-0
0.62133	-0
0.62500	0
0.62867	0
0.63233	0
0.63600	-0
0.63967	-0
0.64333	-0
0.64700	-0
0.65067	-0
0.65433	-0
0.65800	-0
0.66167	-0
0.66533	-0
0.66900	-0
0.67267	-0
0.67633	-0
0.68000	0
0.68367	0
0.68733	0
0.69100	0
0.69467	0
0.69833	-0
0.70200	-0
0.70567	-1
0.70933	-1
0.71300	-2
0.71667	-2
0.72033	-2
0.72400	-2
0.72767	-3
0.73133	-3
0.73500	-3
0.73867	-3
0.74233	-3
0.74600	-2
0.74967	-2
0.75333	-2
0.75700	-1
0.76067	-1
0.76433	-1
0.76800	-1
0.77167	-0
0.77533	-1
0.77900	-1
0.78267	-1
0.78633	-1
0.79000	-1
0.79367	-1
0.79733	-1
0.80100	-1
0.80467	-1
0.80833	-0
0.81200	-0
0.81567	-0
0.81933	-0
0.82300	-0
0.82667	-0
0.83033	-0
0.83400	-0
0.83767	-0
0.84133	-0
0.84500	-0
0.84867	-0
0.85233	-0
0.85600	-0
0.85967	-1
0.86333	-1
0.86700	-1
0.87067	-1
0.87433	-1
0.87800	-1
0.88167	-1
0.88533	-1
0.88900	-1
0.89267	-1
0.89633	-1
0.90000	-1
0.90367	-1
0.90733	-2
0.91100	-2
0.91467	-2
0.91833	-2
0.92200	-2
0.92567	-2
0.92933	-2
0.93300	-2
0.93667	-2
0.94033	-2
0.94400	-2
0.94767	-2
0.95133	-2
0.95500	-3
0.95867	-3
0.96233	-3
0.96600	-3
0.96967	-4
0.97333	-4
0.97700	-4
0.98067	-4
0.98433	-4
0.98800	-4
0.99167	-4
0.99533	-4
0.99900	-4
1.00267	-4
1.00633	-4
1.01000	-4
1.01367	-4
1.01733	-4
1.02100	-4
1.02467	-4
1.02833	-4
1.03200	-4
1.03567	-4
1.03933	-4
1.04300	-4
1.04667	-4
1.05033	-4
1.05400	-4
1.05767	-4
1.06133	-3
1.06500	-3
1.06867	-3
1.07233	-2
1.07600	-2
1.07967	-2
1.08333	-1
1.08700	-1
1.09067	-1
1.09433	-1
1.09800	-0
1.10167	-0
1.10533	-0
1.10900	-0
1.11267	-0
1.11633	-1
1.12000	-1
1.12367	-2
1.12733	-2
1.13100	-3
1.13467	-3
1.13833	-3
1.14200	-3
1.14567	-3
1.14933	-3
1.15300	-2
1.15667	-2
1.16033	-2
1.16400	-1
1.16767	-1
1.17133	-1
1.17500	-1
1.17867	-1
1.18233	-0
1.18600	-0
1.18967	-1
1.19333	-1
1.19700	-1
1.20067	-2
1.20433	-2
1.20800	-2
1.21167	-2
1.21533	-2
1.21900	-2
1.22267	-2
1.22633	-2
1.23000	-2
1.23367	-2
1.23733	-2
1.24100	-2
1.24467	-2
1.24833	-2
1.25200	-1
1.25567	-1
1.25933	-1
1.26300	-2
1.26667	-2
1.27033	-2
1.27400	-2
1.27767	-2
1.28133	-2
1.28500	-2
1.28867	-2
1.29233	-3
1.29600	-3
1.29967	-3
1.30333	-3
1.30700	-4
1.31067	-4
1.31433	-4
1.31800	-4
1.32167	-5
1.32533	-4
1.32900	-4
1.33267	-4
1.33633	-5
1.34000	-5
1.34367	-5
1.34733	-5
1.35100	-5
1.35467	-5
1.35833	-6
1.36200	-6
1.36567	-7
1.36933	-7
1.37300	-7
1.37667	-7
1.38033	-7
1.38400	-7
1.38767	-7
1.39133	-7
1.39500	-7
1.39867	-7
1.40233	-7
1.40600	-6
1.40967	-6
1.41333	-6
1.41700	-5
1.42067	-5
1.42433	-5
1.42800	-5
1.43167	-4
1.43533	-4
1.43900	-4
1.44267	-4
1.44633	-4
1.45000	-4
1.45367	-4
1.45733	-4
1.46100	-4
1.46467	-3
1.46833	-3
1.47200	-3
1.47567	-3
1.47933	-2
1.48300	-1
1.48667	-1
1.49033	-0
1.49400	0
1.49767	0
1.50133	0
1.50500	-0
1.50867	-0
1.51233	-0
1.51600	-1
1.51967	-1
1.52333	-1
1.52700	-2
1.53067	-2
1.53433	-2
1.53800	-3
1.54167	-3
1.54533	-3
1.54900	-3
1.55267	-3
1.55633	-3
1.56000	-3
1.56367	-3
1.56733	-3
1.57100	-3
1.57467	-3
1.57833	-3
1.58200	-3
1.58567	-3
1.58933	-4
1.59300	-4
1.59667	-4
1.60033	-5
1.60400	-6
1.60767	-8
1.61133	-9
1.61500	-11
1.61867	-13
1.62233	-16
1.62600	-19
1.62967	-23
1.63333	-26
1.63700	-29
1.64067	-33
1.64433	-36
1.64800	-40
1.65167	-43
1.65533	-47
1.65900	-51
1.66267	-55
1.66633	-60
1.67000	-65
1.67367	-70
1.67733	-74
1.68100	-79
1.68467	-84
1.68833	-89
1.69200	-92
1.69567	-96
1.69933	-99
1.70300	-101
1.70667	-103
1.71033	-105
1.71400	-106
1.71767	-107
1.72133	-108
1.72500	-108
1.72867	-109
1.73233	-109
1.73600	-109
1.73967	-109
1.74333	-110
1.74700	-110
1.75067	-111
1.75433	-112
1.75800	-112
1.76167	-113
1.76533	-114
1.76900	-114
1.77267	-114
1.77633	-114
1.78000	-114
1.78367	-114
1.78733	-114
1.79100	-114
1.79467	-114
1.79833	-114
1.80200	-114
1.80567	-115
1.80933	-115
1.81300	-115
1.81667	-115
1.82033	-116
1.82400	-116
1.82767	-117
1.83133	-117
1.83500	-118
1.83867	-118
1.84233	-119
1.84600	-119
1.84967	-119
1.85333	-119
1.85700	-119
1.86067	-118
1.86433	-118
1.86800	-118
1.87167	-118
1.87533	-118
1.87900	-117
1.88267	-117
1.88633	-116
1.89000	-116
1.89367	-116
1.89733	-115
1.90100	-115
1.90467	-115
1.90833	-115
1.91200	-114
1.91567	-114
1.91933	-114
1.92300	-114
1.92667	-114
1.93033	-114
1.93400	-114
1.93767	-114
1.94133	-114
1.94500	-114
1.94867	-113
1.95233	-113
1.95600	-113
1.95967	-113
1.96333	-113
1.96700	-113
1.97067	-114
1.97433	-114
1.97800	-114
1.98167	-113
1.98533	-113
1.98900	-112
1.99267	-112
1.99633	-111
2.00000	-111
2.00367	-110
2.00733	-109
2.01100	-109
2.01467	-109
2.01833	-109
2.02200	-109
2.02567	-108
2.02933	-108
2.03300	-108
2.03667	-108
2.04033	-108
2.04400	-108
2.04767	-108
2.05133	-107
2.05500	-107
2.05867	-106
2.06233	-106
2.06600	-105
2.06967	-105
2.07333	-105
2.07700	-105
2.08067	-105
2.08433	-104
2.08800	-105
2.09167	-105
2.09533	-105
2.09900	-104
2.10267	-104
2.10633	-103
2.11000	-103
2.11367	-102
2.11733	-102
2.12100	-101
2.12467	-101
2.12833	-101
2.13200	-101
2.13567	-101
2.13933	-101
2.14300	-101
2.14667	-101
2.15033	-101
2.15400	-101
2.15767	-100
2.16133	-99
2.16500	-98
2.16867	-97
2.17233	-96
2.17600	-96
2.17967	-95
2.18333	-95
2.18700	-95
2.19067	-94
2.19433	-94
2.19800	-94
2.20167	-93
2.20533	-93
2.20900	-93
2.21267	-94
2.21633	-93
2.22000	-93
2.22367	-92
2.22733	-91
2.23100	-90
2.23467	-90
2.23833	-89
2.24200	-89
2.24567	-89
2.24933	-89
2.25300	-90
2.25667	-91
2.26033	-92
2.26400	-93
2.26767	-93
2.27133	-93
2.27500	-92
2.27867	-91
2.28233	-90
2.28600	-89
2.28967	-87
2.29333	-86
2.29700	-85
2.30067	-84
2.30433	-84
2.30800	-84
2.31167	-84
2.31533	-84
2.31900	-84
2.32267	-84
2.32633	-83
2.33000	-83
2.33367	-83
2.33733	-83
2.34100	-82
2.34467	-81
2.34833	-80
2.35200	-79
2.35567	-77
2.35933	-76
2.36300	-75
2.36667	-74
2.37033	-72
2.37400	-70
2.37767	-67
2.38133	-64
2.38500	-61
2.38867	-57
2.39233	-53
2.39600	-49
2.39967	-45
2.40333	-40
2.40700	-36
2.41067	-32
2.41433	-29
2.41800	-26
2.42167	-24
2.42533	-21
2.42900	-19
2.43267	-18
2.43633	-16
2.44000	-15
2.44367	-14
2.44733	-13
2.45100	-12
2.45467	-11
2.45833	-9
2.46200	-7
2.46567	-5
2.46933	-4
2.47300	-3
2.47667	-2
2.48033	-1
2.48400	0
2.48767	1
2.49133	2
2.49500	3
2.49867	5
2.50233	6
2.50600	6
2.50967	7
2.51333	8
2.51700	9
2.52067	9
2.52433	10
2.52800	11
2.53167	11
2.53533	12
2.53900	12
2.54267	12
2.54633	13
2.55000	13
2.55367	13
2.55733	13
2.56100	13
2.56467	13
2.56833	13
2.57200	14
2.57567	14
2.57933	15
2.58300	15
2.58667	16
2.59033	16
2.59400	16
2.59767	16
2.60133	17
2.60500	17
2.60867	17
2.61233	17
2.61600	18
2.61967	18
2.62333	18
2.62700	18
2.63067	18
2.63433	18
2.63800	18
2.64167	18
2.64533	19
2.64900	19
2.65267	20
2.65633	20
2.66000	20
2.66367	20
2.66733	20
2.67100	20
2.67467	20
2.67833	20
2.68200	20
2.68567	21
2.68933	21
2.69300	21
2.69667	22
2.70033	22
2.70400	22
2.70767	22
2.71133	22
2.71500	22
2.71867	21
2.72233	21
2.72600	21
2.72967	21
2.73333	22
2.73700	22
2.74067	22
2.74433	23
2.74800	23
2.75167	23
2.75533	24
2.75900	24
2.76267	24
2.76633	24
2.77000	24
2.77367	24
2.77733	23
2.78100	23
2.78467	22
2.78833	22
2.79200	22
2.79567	21
2.79933	21
2.80300	21
2.80667	21
2.81033	21
2.81400	21
2.81767	22
2.82133	22
2.82500	22
2.82867	23
2.83233	23
2.83600	23
2.83967	21
2.84333	17
2.84700	12
2.85067	2
2.85433	-11
2.85800	-28
2.86167	-50
2.86533	-78
2.86900	-110
2.87267	-148
2.87633	-191
2.88000	-240
2.88367	-294
2.88733	-352
2.89100	-415
2.89467	-482
2.89833	-553
2.90200	-627
2.90567	-704
2.90933	-784
2.91300	-867
2.91667	-952
2.92033	-1039
2.92400	-1128
2.92767	-1218
2.93133	-1311
2.93500	-1403
2.93867	-1485
2.94233	-1544
2.94600	-1569
2.94967	-1558
2.95333	-1512
2.95700	-1438
2.96067	-1344
2.96433	-1237
2.96800	-1124
2.97167	-1011
2.97533	-901
2.97900	-797
2.98267	-700
2.98633	-612
2.99000	-532
2.99367	-461
2.99733	-398
3.00100	-342
3.00467	-294
3.00833	-252
3.01200	-216
3.01567	-184
3.01933	-157
3.02300	-134
3.02667	-114
3.03033	-97
3.03400	-82
3.03767	-69
3.04133	-58
3.04500	-48
3.04867	-40
3.05233	-33
3.05600	-27
3.05967	-22
3.06333	-18
3.06700	-14
3.07067	-11
3.07433	-8
3.07800	-5
3.08167	-3
3.08533	-1
3.08900	1
3.09267	2
3.09633	3
3.10000	5
3.10367	6
3.10733	7
3.11100	8
3.11467	8
3.11833	9
3.12200	10
3.12567	10
3.12933	11
3.13300	11
3.13667	11
3.14033	12
3.14400	12
3.14767	12
3.15133	12
3.15500	13
3.15867	13
3.16233	13
3.16600	13
3.16967	13
3.17333	14
3.17700	14
3.18067	15
3.18433	15
3.18800	16
3.19167	16
3.19533	17
3.19900	17
3.20267	17
3.20633	18
3.21000	18
3.21367	18
3.21733	19
3.22100	19
3.22467	19
3.22833	20
3.23200	20
3.23567	20
3.23933	20
3.24300	20
3.24667	21
3.25033	21
3.25400	20
3.25767	20
3.26133	20
3.26500	20
3.26867	20
3.27233	21
3.27600	21
3.27967	21
3.28333	21
3.28700	21
3.29067	21
3.29433	21
3.29800	21
3.30167	21
3.30533	21
3.30900	21
3.31267	21
3.31633	21
3.32000	20
3.32367	20
3.32733	20
3.33100	21
3.33467	21
3.33833	21
3.34200	21
3.34567	21
3.34933	22
3.35300	22
3.35667	22
3.36033	22
3.36400	22
3.36767	22
3.37133	22
3.37500	22
3.37867	22
3.38233	22
3.38600	22
3.38967	22
3.39333	22
3.39700	22
3.40067	22
3.40433	22
3.40800	22
3.41167	22
3.41533	22
3.41900	23
3.42267	23
3.42633	23
3.43000	23
3.43367	24
3.43733	24
3.44100	24
3.44467	25
3.44833	25
3.45200	26
3.45567	26
3.45933	27
3.46300	27
3.46667	27
3.47033	27
3.47400	27
3.47767	27
3.48133	27
3.48500	27
3.48867	26
3.49233	26
3.49600	25
3.49967	25
3.50333	25
3.50700	25
3.51067	25
3.51433	25
3.51800	25
3.52167	25
3.52533	25
3.52900	25
3.53267	25
3.53633	25
3.54000	24
3.54367	24
3.54733	24
3.55100	24
3.55467	24
3.55833	24
3.56200	24
3.56567	24
3.56933	24
3.57300	25
3.57667	25
3.58033	25
3.58400	25
3.58767	25
3.59133	25
3.59500	25
3.59867	26
3.60233	26
3.60600	26
3.60967	26
3.61333	26
3.61700	26
3.62067	26
3.62433	26
3.62800	26
3.63167	26
3.63533	26
3.63900	26
3.64267	26
3.64633	26
3.65000	26
3.65367	25
3.65733	25
3.66100	25
3.66467	25
3.66833	24
3.67200	24
3.67567	24
3.67933	23
3.68300	23
3.68667	23
3.69033	24
3.69400	24
3.69767	24
3.70133	25
3.70500	25
3.70867	25
3.71233	26
3.71600	26
3.71967	26
3.72333	26
3.72700	26
3.73067	26
3.73433	26
3.73800	25
3.74167	25
3.74533	25
3.74900	25
3.75267	24
3.75633	24
3.76000	24
3.76367	24
3.76733	24
3.77100	24
3.77467	23
3.77833	23
3.78200	23
3.78567	23
3.78933	23
3.79300	23
3.79667	23
3.80033	23
3.80400	23
3.80767	23
3.81133	23
3.81500	23
3.81867	23
3.82233	23
3.82600	23
3.82967	23
3.83333	23
3.83700	23
3.84067	23
3.84433	23
3.84800	23
3.85167	23
3.85533	23
3.85900	23
3.86267	23
3.86633	24
3.87000	24
3.87367	24
3.87733	24
3.88100	25
3.88467	25
3.88833	25
3.89200	25
3.89567	26
3.89933	26
3.90300	26
3.90667	26
3.91033	26
3.91400	26
3.91767	26
3.92133	26
3.92500	27
3.92867	27
3.93233	27
3.93600	27
3.93967	26
3.94333	26
3.94700	26
3.95067	26
3.95433	26
3.95800	26
3.96167	26
3.96533	26
3.96900	26
3.97267	26
3.97633	26
3.98000	26
3.98367	26
3.98733	26
3.99100	26
3.99467	26
3.99833	26

[Chromatogram (Ch3)]
Interval(msec)	220
# of Points	1091
Start Time(min)	0.002
End Time(min)	3.998
R.Time (min)	Intensity
0.00167	0
0.00533	1
0.00900	4
0.01267	3
0.01633	3
0.02000	4
0.02367	5
0.02733	6
0.03100	4
0.03467	4
0.03833	5
0.04200	5
0.04567	6
0.04933	8
0.05300	7
0.05667	4
0.06033	3
0.06400	4
0.06767	6
0.07133	7
0.07500	7
0.07867	5
0.08233	5
0.08600	5
0.08967	4
0.09333	2
0.09700	-0
0.10067	-1
0.10433	2
0.10800	4
0.11167	3
0.11533	3
0.11900	2
0.12267	1
0.12633	2
0.13000	2
0.13367	2
0.13733	3
0.14100	4
0.14467	2
0.14833	0
0.15200	1
0.15567	1
0.15933	1
0.16300	2
0.16667	2
0.17033	-0
0.17400	-0
0.17767	-1
0.18133	-0
0.18500	3
0.18867	4
0.19233	6
0.19600	7
0.19967	8
0.20333	7
0.20700	7
0.21067	6
0.21433	7
0.21800	10
0.22167	13
0.22533	13
0.22900	15
0.23267	15
0.23633	14
0.24000	13
0.24367	12
0.24733	13
0.25100	13
0.25467	14
0.25833	15
0.26200	16
0.26567	15
0.26933	16
0.27300	17
0.27667	18
0.28033	21
0.28400	20
0.28767	19
0.29133	17
0.29500	17
0.29867	16
0.30233	14
0.30600	12
0.30967	12
0.31333	12
0.31700	12
0.32067	13
0.32433	16
0.32800	18
0.33167	21
0.33533	24
0.33900	26
0.34267	24
0.34633	24
0.35000	21
0.35367	19
0.35733	19
0.36100	18
0.36467	18
0.36833	17
0.37200	16
0.37567	17
0.37933	18
0.38300	19
0.38667	23
0.39033	24
0.39400	25
0.39767	25
0.40133	23
0.40500	25
0.40867	27
0.41233	29
0.41600	28
0.41967	27
0.42333	25
0.42700	24
0.43067	24
0.43433	23
0.43800	23
0.44167	25
0.44533	27
0.44900	28
0.45267	27
0.45633	28
0.46000	31
0.46367	31
0.46733	30
0.47100	29
0.47467	28
0.47833	30
0.48200	30
0.48567	27
0.48933	24
0.49300	24
0.49667	25
0.50033	24
0.50400	23
0.50767	24
0.51133	23
0.51500	22
0.51867	21
0.52233	22
0.52600	22
0.52967	20
0.53333	19
0.53700	20
0.54067	24
0.54433	26
0.54800	23
0.55167	22
0.55533	23
0.55900	23
0.56267	25
0.56633	27
0.57000	28
0.57367	29
0.57733	29
0.58100	27
0.58467	27
0.58833	28
0.59200	27
0.59567	27
0.59933	27
0.60300	29
0.60667	30
0.61033	31
0.61400	33
0.61767	33
0.62133	34
0.62500	33
0.62867	32
0.63233	29
0.63600	27
0.63967	26
0.64333	26
0.64700	26
0.65067	27
0.65433	26
0.65800	27
0.66167	29
0.66533	31
0.66900	31
0.67267	32
0.67633	33
0.68000	31
0.68367	29
0.68733	29
0.69100	29
0.69467	29
0.69833	28
0.70200	30
0.70567	30
0.70933	27
0.71300	25
0.71667	26
0.72033	28
0.72400	30
0.72767	29
0.73133	29
0.73500	29
0.73867	30
0.74233	29
0.74600	28
0.74967	29
0.75333	31
0.75700	32
0.76067	32
0.76433	29
0.76800	27
0.77167	27
0.77533	28
0.77900	28
0.78267	29
0.78633	30
0.79000	32
0.79367	33
0.79733	32
0.80100	31
0.80467	30
0.80833	31
0.81200	30
0.81567	28
0.81933	28
0.82300	29
0.82667	29
0.83033	28
0.83400	28
0.83767	27
0.84133	26
0.84500	26
0.84867	26
0.85233	26
0.85600	27
0.85967	27
0.86333	28
0.86700	28
0.87067	28
0.87433	26
0.87800	22
0.88167	20
0.88533	20
0.88900	19
0.89267	21
0.89633	23
0.90000	24
0.90367	25
0.90733	25
0.91100	25
0.91467	24
0.91833	25
0.92200	26
0.92567	28
0.92933	26
0.93300	23
0.93667	20
0.94033	19
0.94400	18
0.94767	19
0.95133	20
0.95500	20
0.95867	19
0.96233	18
0.96600	18
0.96967	17
0.97333	18
0.97700	17
0.98067	18
0.98433	21
0.98800	24
0.99167	24
0.99533	24
0.99900	22
1.00267	22
1.00633	25
1.01000	26
1.01367	24
1.01733	21
1.02100	19
1.02467	19
1.02833	19
1.03200	19
1.03567	19
1.03933	18
1.04300	17
1.04667	16
1.05033	15
1.05400	15
1.05767	15
1.06133	15
1.06500	16
1.06867	18
1.07233	19
1.07600	20
1.07967	19
1.08333	15
1.08700	10
1.09067	8
1.09433	7
1.09800	9
1.10167	11
1.10533	13
1.10900	14
1.11267	13
1.11633	13
1.12000	12
1.12367	12
1.12733	13
1.13100	12
1.13467	11
1.13833	11
1.14200	11
1.14567	12
1.14933	12
1.15300	12
1.15667	14
1.16033	16
1.16400	16
1.16767	17
1.17133	17
1.17500	17
1.17867	17
1.18233	16
1.18600	14
1.18967	13
1.19333	13
1.19700	13
1.20067	12
1.20433	12
1.20800	11
1.21167	11
1.21533	14
1.21900	14
1.22267	13
1.22633	11
1.23000	11
1.23367	12
1.23733	13
1.24100	13
1.24467	12
1.24833	11
1.25200	11
1.25567	11
1.25933	10
1.26300	10
1.26667	10
1.27033	8
1.27400	8
1.27767	7
1.28133	6
1.28500	7
1.28867	8
1.29233	8
1.29600	10
1.29967	12
1.30333	14
1.30700	17
1.31067	17
1.31433	16
1.31800	13
1.32167	11
1.32533	8
1.32900	6
1.33267	6
1.33633	6
1.34000	6
1.34367	8
1.34733	9
1.35100	10
1.35467	11
1.35833	14
1.36200	14
1.36567	11
1.36933	11
1.37300	11
1.37667	10
1.38033	10
1.38400	11
1.38767	11
1.39133	13
1.39500	14
1.39867	13
1.40233	12
1.40600	11
1.40967	9
1.41333	8
1.41700	7
1.42067	8
1.42433	9
1.42800	9
1.43167	9
1.43533	8
1.43900	7
1.44267	8
1.44633	10
1.45000	12
1.45367	15
1.45733	18
1.46100	17
1.46467	15
1.46833	15
1.47200	14
1.47567	12
1.47933	11
1.48300	9
1.48667	10
1.49033	12
1.49400	16
1.49767	18
1.50133	19
1.50500	18
1.50867	17
1.51233	17
1.51600	17
1.51967	17
1.52333	18
1.52700	17
1.53067	16
1.53433	15
1.53800	14
1.54167	13
1.54533	13
1.54900	13
1.55267	13
1.55633	13
1.56000	13
1.56367	14
1.56733	17
1.57100	17
1.57467	15
1.57833	15
1.58200	15
1.58567	16
1.58933	15
1.59300	14
1.59667	14
1.60033	12
1.60400	13
1.60767	13
1.61133	14
1.61500	12
1.61867	11
1.62233	12
1.62600	14
1.62967	14
1.63333	14
1.63700	15
1.64067	17
1.64433	19
1.64800	21
1.65167	24
1.65533	25
1.65900	25
1.66267	27
1.66633	29
1.67000	29
1.67367	30
1.67733	32
1.68100	35
1.68467	38
1.68833	38
1.69200	38
1.69567	38
1.69933	36
1.70300	35
1.70667	34
1.71033	34
1.71400	35
1.71767	36
1.72133	38
1.72500	41
1.72867	45
1.73233	44
1.73600	43
1.73967	42
1.74333	42
1.74700	42
1.75067	45
1.75433	46
1.75800	46
1.76167	46
1.76533	45
1.76900	46
1.77267	49
1.77633	50
1.78000	50
1.78367	51
1.78733	54
1.79100	54
1.79467	54
1.79833	54
1.80200	53
1.80567	54
1.80933	54
1.81300	55
1.81667	56
1.82033	56
1.82400	57
1.82767	57
1.83133	57
1.83500	57
1.83867	58
1.84233	60
1.84600	60
1.84967	61
1.85333	62
1.85700	63
1.86067	64
1.86433	66
1.86800	66
1.87167	65
1.87533	65
1.87900	67
1.88267	66
1.88633	65
1.89000	64
1.89367	64
1.89733	63
1.90100	63
1.90467	64
1.90833	65
1.91200	68
1.91567	70
1.91933	69
1.92300	68
1.92667	68
1.93033	68
1.93400	66
1.93767	63
1.94133	62
1.94500	64
1.94867	66
1.95233	68
1.95600	69
1.95967	70
1.96333	70
1.96700	71
1.97067	73
1.97433	74
1.97800	76
1.98167	79
1.98533	80
1.98900	81
1.99267	81
1.99633	81
2.00000	81
2.00367	84
2.00733	86
2.01100	87
2.01467	86
2.01833	87
2.02200	86
2.02567	84
2.02933	87
2.03300	88
2.03667	89
2.04033	89
2.04400	88
2.04767	89
2.05133	90
2.05500	93
2.05867	95
2.06233	97
2.06600	99
2.06967	98
2.07333	95
2.07700	95
2.08067	96
2.08433	99
2.08800	100
2.09167	103
2.09533	106
2.09900	105
2.10267	106
2.10633	107
2.11000	107
2.11367	108
2.11733	109
2.12100	110
2.12467	113
2.12833	115
2.13200	117
2.13567	120
2.13933	123
2.14300	126
2.14667	127
2.15033	128
2.15400	129
2.15767	130
2.16133	131
2.16500	130
2.16867	128
2.17233	128
2.17600	130
2.17967	133
2.18333	132
2.18700	134
2.19067	136
2.19433	139
2.19800	141
2.20167	141
2.20533	139
2.20900	139
2.21267	142
2.21633	145
2.22000	147
2.22367	149
2.22733	151
2.23100	151
2.23467	152
2.23833	153
2.24200	157
2.24567	157
2.24933	158
2.25300	157
2.25667	159
2.26033	163
2.26400	165
2.26767	167
2.27133	169
2.27500	171
2.27867	172
2.28233	171
2.28600	171
2.28967	172
2.29333	175
2.29700	179
2.30067	180
2.30433	179
2.30800	179
2.31167	181
2.31533	183
2.31900	185
2.32267	186
2.32633	189
2.33000	194
2.33367	196
2.33733	195
2.34100	196
2.34467	199
2.34833	202
2.35200	205
2.35567	209
2.35933	212
2.36300	214
2.36667	213
2.37033	212
2.37400	212
2.37767	213
2.38133	214
2.38500	213
2.38867	212
2.39233	212
2.39600	216
2.39967	222
2.40333	227
2.40700	231
2.41067	237
2.41433	241
2.41800	242
2.42167	243
2.42533	244
2.42900	247
2.43267	248
2.43633	248
2.44000	253
2.44367	296
2.44733	411
2.45100	535
2.45467	638
2.45833	698
2.46200	692
2.46567	643
2.46933	587
2.47300	543
2.47667	516
2.48033	497
2.48400	475
2.48767	444
2.49133	407
2.49500	368
2.49867	336
2.50233	310
2.50600	291
2.50967	281
2.51333	274
2.51700	274
2.52067	278
2.52433	289
2.52800	306
2.53167	320
2.53533	328
2.53900	330
2.54267	323
2.54633	309
2.55000	288
2.55367	265
2.55733	241
2.56100	221
2.56467	205
2.56833	193
2.57200	185
2.57567	177
2.57933	171
2.58300	168
2.58667	165
2.59033	159
2.59400	154
2.59767	148
2.60133	137
2.60500	121
2.60867	102
2.61233	81
2.61600	61
2.61967	44
2.62333	29
2.62700	20
2.63067	14
2.63433	12
2.63800	12
2.64167	17
2.64533	25
2.64900	35
2.65267	45
2.65633	56
2.66000	66
2.66367	75
2.66733	80
2.67100	85
2.67467	88
2.67833	89
2.68200	87
2.68567	82
2.68933	74
2.69300	69
2.69667	64
2.70033	60
2.70400	57
2.70767	56
2.71133	55
2.71500	53
2.71867	52
2.72233	52
2.72600	51
2.72967	49
2.73333	50
2.73700	52
2.74067	55
2.74433	56
2.74800	59
2.75167	61
2.75533	61
2.75900	63
2.76267	66
2.76633	66
2.77000	67
2.77367	68
2.77733	70
2.78100	70
2.78467	69
2.78833	71
2.79200	73
2.79567	72
2.79933	73
2.80300	76
2.80667	77
2.81033	81
2.81400	93
2.81767	124
2.82133	202
2.82500	366
2.82867	677
2.83233	1203
2.83600	2015
2.83967	3144
2.84333	4586
2.84700	6291
2.85067	8162
2.85433	10074
2.85800	11884
2.86167	13453
2.86533	14670
2.86900	15457
2.87267	15797
2.87633	15711
2.88000	15262
2.88367	14527
2.88733	13593
2.89100	12546
2.89467	11447
2.89833	10348
2.90200	9288
2.90567	8285
2.90933	7354
2.91300	6504
2.91667	5735
2.92033	5043
2.92400	4426
2.92767	3881
2.93133	3397
2.93500	2973
2.93867	2599
2.94233	2271
2.94600	1982
2.94967	1732
2.95333	1514
2.95700	1325
2.96067	1160
2.96433	1015
2.96800	888
2.97167	779
2.97533	687
2.97900	607
2.98267	540
2.98633	481
2.99000	417
2.99367	325
2.99733	228
3.00100	161
3.00467	132
3.00833	136
3.01200	156
3.01567	185
3.01933	224
3.02300	267
3.02667	308
3.03033	346
3.03400	382
3.03767	417
3.04133	448
3.04500	472
3.04867	494
3.05233	512
3.05600	525
3.05967	537
3.06333	547
3.06700	554
3.07067	559
3.07433	562
3.07800	563
3.08167	564
3.08533	563
3.08900	560
3.09267	558
3.09633	557
3.10000	554
3.10367	551
3.10733	552
3.11100	552
3.11467	552
3.11833	552
3.12200	552
3.12567	553
3.12933	552
3.13300	552
3.13667	551
3.14033	552
3.14400	552
3.14767	551
3.15133	552
3.15500	556
3.15867	557
3.16233	555
3.16600	553
3.16967	553
3.17333	554
3.17700	555
3.18067	556
3.18433	559
3.18800	559
3.19167	561
3.19533	563
3.19900	565
3.20267	567
3.20633	567
3.21000	568
3.21367	570
3.21733	574
3.22100	579
3.22467	584
3.22833	587
3.23200	590
3.23567	593
3.23933	594
3.24300	595
3.24667	594
3.25033	592
3.25400	592
3.25767	595
3.26133	598
3.26500	599
3.26867	598
3.27233	596
3.27600	597
3.27967	599
3.28333	601
3.28700	600
3.29067	597
3.29433	595
3.29800	592
3.30167	588
3.30533	586
3.30900	586
3.31267	587
3.31633	586
3.32000	585
3.32367	584
3.32733	581
3.33100	581
3.33467	581
3.33833	578
3.34200	573
3.34567	569
3.34933	568
3.35300	567
3.35667	565
3.36033	563
3.36400	560
3.36767	556
3.37133	554
3.37500	553
3.37867	552
3.38233	550
3.38600	547
3.38967	545
3.39333	544
3.39700	546
3.40067	547
3.40433	546
3.40800	545
3.41167	542
3.41533	537
3.41900	535
3.42267	535
3.42633	534
3.43000	532
3.43367	529
3.43733	525
3.44100	519
3.44467	513
3.44833	510
3.45200	510
3.45567	510
3.45933	509
3.46300	506
3.46667	505
3.47033	504
3.47400	503
3.47767	501
3.48133	500
3.48500	497
3.48867	494
3.49233	491
3.49600	491
3.49967	491
3.50333	490
3.50700	491
3.51067	491
3.51433	490
3.51800	486
3.52167	482
3.52533	478
3.52900	476
3.53267	473
3.53633	472
3.54000	473
3.54367	473
3.54733	472
3.55100	471
3.55467	470
3.55833	471
3.56200	470
3.56567	469
3.56933	469
3.57300	470
3.57667	470
3.58033	469
3.58400	467
3.58767	466
3.59133	467
3.59500	465
3.59867	462
3.60233	461
3.60600	462
3.60967	467
3.61333	470
3.61700	472
3.62067	471
3.62433	469
3.62800	468
3.63167	466
3.63533	465
3.63900	466
3.64267	467
3.64633	469
3.65000	469
3.65367	467
3.65733	467
3.66100	467
3.66467	467
3.66833	468
3.67200	467
3.67567	466
3.67933	466
3.68300	465
3.68667	463
3.69033	461
3.69400	460
3.69767	461
3.70133	462
3.70500	462
3.70867	460
3.71233	458
3.71600	457
3.71967	455
3.72333	454
3.72700	453
3.73067	453
3.73433	454
3.73800	455
3.74167	454
3.74533	453
3.74900	454
3.75267	454
3.75633	455
3.76000	454
3.76367	455
3.76733	457
3.77100	457
3.77467	456
3.77833	454
3.78200	453
3.78567	453
3.78933	451
3.79300	451
3.79667	452
3.80033	450
3.80400	449
3.80767	449
3.81133	449
3.81500	451
3.81867	450
3.82233	450
3.82600	449
3.82967	448
3.83333	448
3.83700	449
3.84067	447
3.84433	444
3.84800	441
3.85167	442
3.85533	442
3.85900	442
3.86267	443
3.86633	443
3.87000	442
3.87367	439
3.87733	438
3.88100	438
3.88467	435
3.88833	431
3.89200	430
3.89567	432
3.89933	431
3.90300	427
3.90667	424
3.91033	422
3.91400	420
3.91767	416
3.92133	412
3.92500	409
3.92867	410
3.93233	408
3.93600	408
3.93967	409
3.94333	408
3.94700	406
3.95067	405
3.95433	406
3.95800	408
3.96167	408
3.96533	408
3.96900	407
3.97267	405
3.97633	404
3.98000	403
3.98367	402
3.98733	401
3.99100	396
3.99467	394
3.99833	392

[Status Trace (Column Oven Temperature)]
Interval(msec)	1000
# of Points	240
Start Time(min)	0.009
End Time(min)	3.992
Intensity Units	
Intensity Multiplier	1
R.Time (min)	Intensity
0.00862	35.06
0.02528	35.05
0.04195	35.04
0.05862	35.02
0.07528	35.01
0.09195	35.02
0.10862	35.02
0.12528	35.02
0.14195	35.02
0.15862	35.02
0.17528	35.01
0.19195	35.01
0.20862	35.01
0.22528	35.02
0.24195	35.03
0.25862	35.03
0.27528	35.02
0.29195	35.01
0.30862	35.01
0.32528	35.02
0.34195	35.02
0.35862	35.02
0.37528	35.02
0.39195	35.03
0.40862	35.03
0.42528	35.02
0.44195	35.01
0.45862	35.00
0.47528	34.99
0.49195	34.99
0.50862	34.99
0.52528	35.01
0.54195	35.01
0.55862	35.00
0.57528	35.00
0.59195	35.00
0.60862	35.00
0.62528	34.99
0.64195	34.98
0.65862	35.00
0.67528	35.00
0.69195	34.99
0.70862	34.99
0.72528	35.00
0.74195	35.00
0.75862	35.00
0.77528	35.00
0.79195	35.00
0.80862	35.00
0.82528	35.00
0.84195	34.99
0.85862	34.98
0.87528	34.98
0.89195	34.97
0.90862	34.96
0.92528	34.96
0.94195	34.96
0.95862	34.98
0.97528	34.99
0.99195	35.00
1.00862	35.02
1.02528	35.02
1.04195	35.02
1.05862	35.01
1.07528	35.01
1.09195	35.00
1.10862	34.99
1.12528	35.00
1.14195	34.99
1.15862	34.98
1.17528	34.97
1.19195	34.96
1.20862	34.96
1.22528	34.96
1.24195	34.96
1.25862	34.96
1.27528	34.96
1.29195	34.97
1.30862	34.99
1.32528	34.99
1.34195	35.00
1.35862	35.01
1.37528	35.02
1.39195	35.04
1.40862	35.03
1.42528	35.04
1.44195	35.04
1.45862	35.03
1.47528	35.02
1.49195	35.00
1.50862	34.99
1.52528	34.99
1.54195	34.98
1.55862	34.99
1.57528	34.99
1.59195	35.00
1.60862	35.07
1.62528	35.19
1.64195	35.38
1.65862	35.64
1.67528	35.99
1.69195	36.36
1.70862	36.71
1.72528	37.03
1.74195	37.36
1.75862	37.69
1.77528	38.03
1.79195	38.35
1.80862	38.68
1.82528	39.02
1.84195	39.36
1.85862	39.69
1.87528	40.01
1.89195	40.34
1.90862	40.67
1.92528	41.00
1.94195	41.33
1.95862	41.65
1.97528	41.99
1.99195	42.30
2.00862	42.62
2.02528	42.95
2.04195	43.27
2.05862	43.60
2.07528	43.92
2.09195	44.26
2.10862	44.58
2.12528	44.90
2.14195	45.24
2.15862	45.55
2.17528	45.88
2.19195	46.20
2.20862	46.53
2.22528	46.85
2.24195	47.16
2.25862	47.54
2.27528	47.86
2.29195	48.18
2.30862	48.50
2.32528	48.84
2.34195	49.16
2.35862	49.45
2.37528	49.64
2.39195	49.71
2.40862	49.70
2.42528	49.70
2.44195	49.73
2.45862	49.73
2.47528	49.74
2.49195	49.75
2.50862	49.76
2.52528	49.77
2.54195	49.78
2.55862	49.80
2.57528	49.80
2.59195	49.81
2.60862	49.81
2.62528	49.82
2.64195	49.83
2.65862	49.83
2.67528	49.83
2.69195	49.84
2.70862	49.86
2.72528	49.86
2.74195	49.85
2.75862	49.84
2.77528	49.88
2.79195	49.90
2.80862	49.91
2.82528	49.92
2.84195	49.91
2.85862	49.91
2.87528	49.91
2.89195	49.91
2.90862	49.92
2.92528	49.93
2.94195	49.95
2.95862	49.96
2.97528	49.96
2.99195	49.97
3.00862	49.99
3.02528	50.00
3.04195	50.01
3.05862	50.01
3.07528	50.02
3.09195	50.02
3.10862	50.03
3.12528	50.04
3.14195	50.04
3.15862	50.04
3.17528	50.06
3.19195	50.05
3.20862	50.05
3.22528	50.05
3.24195	50.05
3.25862	50.06
3.27528	50.06
3.29195	50.06
3.30862	50.08
3.32528	50.08
3.34195	50.09
3.35862	50.09
3.37528	50.09
3.39195	50.10
3.40862	50.11
3.42528	50.10
3.44195	50.10
3.45862	50.08
3.47528	50.08
3.49195	50.08
3.50862	50.09
3.52528	50.09
3.54195	50.09
3.55862	50.09
3.57528	50.08
3.59195	50.08
3.60862	50.08
3.62528	50.07
3.64195	50.07
3.65862	50.08
3.67528	50.08
3.69195	50.07
3.70862	50.07
3.72528	50.07
3.74195	50.07
3.75862	50.08
3.77528	50.08
3.79195	50.09
3.80862	50.09
3.82528	50.09
3.84195	50.09
3.85862	50.08
3.87528	50.07
3.89195	50.06
3.90862	50.05
3.92528	50.05
3.94195	50.05
3.95862	50.04
3.97528	50.03
3.99195	50.03

[Status Trace (Injection Unit Temperature)]
Interval(msec)	1000
# of Points	240
Start Time(min)	0.009
End Time(min)	3.992
Intensity Units	
Intensity Multiplier	1
R.Time (min)	Intensity
0.00862	99.98
0.02528	99.98
0.04195	99.98
0.05862	99.98
0.07528	99.98
0.09195	99.98
0.10862	99.98
0.12528	99.99
0.14195	99.98
0.15862	99.98
0.17528	99.98
0.19195	99.98
0.20862	99.98
0.22528	99.99
0.24195	99.98
0.25862	99.98
0.27528	99.98
0.29195	99.98
0.30862	99.98
0.32528	99.98
0.34195	99.98
0.35862	99.98
0.37528	99.98
0.39195	99.98
0.40862	99.98
0.42528	99.98
0.44195	99.98
0.45862	99.98
0.47528	99.98
0.49195	99.98
0.50862	99.98
0.52528	99.97
0.54195	99.98
0.55862	99.97
0.57528	99.97
0.59195	99.97
0.60862	99.97
0.62528	99.97
0.64195	99.98
0.65862	99.98
0.67528	99.97
0.69195	99.97
0.70862	99.97
0.72528	99.97
0.74195	99.97
0.75862	99.97
0.77528	99.98
0.79195	99.97
0.80862	99.98
0.82528	99.98
0.84195	99.98
0.85862	99.98
0.87528	99.98
0.89195	99.98
0.90862	99.98
0.92528	99.98
0.94195	99.98
0.95862	99.98
0.97528	99.98
0.99195	99.98
1.00862	99.98
1.02528	99.98
1.04195	99.98
1.05862	99.99
1.07528	99.98
1.09195	99.98
1.10862	99.99
1.12528	99.98
1.14195	99.98
1.15862	99.99
1.17528	99.99
1.19195	99.99
1.20862	99.99
1.22528	99.99
1.24195	99.99
1.25862	99.99
1.27528	99.99
1.29195	99.99
1.30862	99.99
1.32528	99.99
1.34195	99.99
1.35862	99.99
1.37528	99.99
1.39195	99.99
1.40862	99.99
1.42528	99.99
1.44195	99.99
1.45862	99.99
1.47528	99.98
1.49195	99.99
1.50862	99.99
1.52528	99.99
1.54195	99.99
1.55862	99.98
1.57528	99.99
1.59195	99.99
1.60862	99.99
1.62528	99.99
1.64195	99.99
1.65862	99.99
1.67528	99.99
1.69195	99.98
1.70862	99.98
1.72528	99.98
1.74195	99.98
1.75862	99.99
1.77528	99.98
1.79195	99.98
1.80862	99.98
1.82528	99.98
1.84195	99.97
1.85862	99.98
1.87528	99.98
1.89195	99.98
1.90862	99.98
1.92528	99.98
1.94195	99.97
1.95862	99.97
1.97528	99.97
1.99195	99.97
2.00862	99.97
2.02528	99.97
2.04195	99.97
2.05862	99.97
2.07528	99.97
2.09195	99.97
2.10862	99.97
2.12528	99.97
2.14195	99.97
2.15862	99.97
2.17528	99.97
2.19195	99.97
2.20862	99.97
2.22528	99.97
2.24195	99.97
2.25862	99.97
2.27528	99.97
2.29195	99.97
2.30862	99.97
2.32528	99.97
2.34195	99.97
2.35862	99.97
2.37528	99.97
2.39195	99.97
2.40862	99.97
2.42528	99.97
2.44195	99.97
2.45862	99.97
2.47528	99.98
2.49195	99.97
2.50862	99.97
2.52528	99.98
2.54195	99.98
2.55862	99.98
2.57528	99.98
2.59195	99.98
2.60862	99.98
2.62528	99.98
2.64195	99.98
2.65862	99.98
2.67528	99.98
2.69195	99.98
2.70862	99.98
2.72528	99.99
2.74195	99.98
2.75862	99.99
2.77528	99.99
2.79195	99.99
2.80862	99.99
2.82528	99.99
2.84195	99.99
2.85862	99.99
2.87528	100.00
2.89195	100.00
2.90862	100.00
2.92528	100.00
2.94195	100.00
2.95862	100.00
2.97528	100.00
2.99195	100.01
3.00862	100.01
3.02528	100.01
3.04195	100.01
3.05862	100.01
3.07528	100.01
3.09195	100.01
3.10862	100.01
3.12528	100.01
3.14195	100.01
3.15862	100.02
3.17528	100.01
3.19195	100.02
3.20862	100.02
3.22528	100.02
3.24195	100.02
3.25862	100.02
3.27528	100.02
3.29195	100.02
3.30862	100.02
3.32528	100.03
3.34195	100.03
3.35862	100.03
3.37528	100.03
3.39195	100.03
3.40862	100.03
3.42528	100.03
3.44195	100.03
3.45862	100.03
3.47528	100.03
3.49195	100.04
3.50862	100.03
3.52528	100.04
3.54195	100.03
3.55862	100.03
3.57528	100.04
3.59195	100.04
3.60862	100.04
3.62528	100.04
3.64195	100.04
3.65862	100.04
3.67528	100.04
3.69195	100.04
3.70862	100.04
3.72528	100.04
3.74195	100.04
3.75862	100.04
3.77528	100.04
3.79195	100.05
3.80862	100.05
3.82528	100.04
3.84195	100.04
3.85862	100.05
3.87528	100.04
3.89195	100.05
3.90862	100.05
3.92528	100.04
3.94195	100.05
3.95862	100.05
3.97528	100.04
3.99195	100.05

[Status Trace (Carrier Gas Pressure)]
Interval(msec)	1000
# of Points	240
Start Time(min)	0.009
End Time(min)	3.992
Intensity Units	
Intensity Multiplier	1
R.Time (min)	Intensity
0.00862	58.00
0.02528	55.26
0.04195	57.17
0.05862	59.33
0.07528	59.30
0.09195	58.06
0.10862	57.98
0.12528	58.01
0.14195	58.01
0.15862	58.00
0.17528	58.00
0.19195	58.00
0.20862	58.00
0.22528	58.00
0.24195	58.00
0.25862	58.00
0.27528	58.00
0.29195	58.00
0.30862	58.00
0.32528	58.00
0.34195	58.00
0.35862	58.00
0.37528	58.00
0.39195	58.00
0.40862	58.00
0.42528	58.00
0.44195	58.00
0.45862	58.00
0.47528	58.00
0.49195	58.00
0.50862	58.00
0.52528	58.00
0.54195	58.00
0.55862	58.00
0.57528	58.00
0.59195	58.00
0.60862	58.00
0.62528	58.00
0.64195	58.00
0.65862	58.00
0.67528	58.00
0.69195	58.00
0.70862	58.00
0.72528	58.00
0.74195	58.00
0.75862	58.00
0.77528	58.00
0.79195	58.00
0.80862	58.00
0.82528	58.00
0.84195	58.00
0.85862	58.00
0.87528	58.00
0.89195	58.00
0.90862	58.00
0.92528	58.00
0.94195	58.00
0.95862	58.00
0.97528	58.00
0.99195	58.00
1.00862	58.00
1.02528	58.00
1.04195	58.00
1.05862	58.00
1.07528	58.00
1.09195	58.00
1.10862	58.00
1.12528	58.00
1.14195	58.00
1.15862	58.00
1.17528	58.00
1.19195	58.00
1.20862	58.00
1.22528	58.00
1.24195	58.00
1.25862	58.00
1.27528	58.00
1.29195	58.00
1.30862	58.00
1.32528	58.00
1.34195	58.00
1.35862	58.00
1.37528	58.00
1.39195	58.00
1.40862	58.00
1.42528	58.00
1.44195	58.00
1.45862	58.00
1.47528	58.00
1.49195	58.00
1.50862	58.00
1.52528	58.00
1.54195	58.00
1.55862	58.00
1.57528	58.00
1.59195	58.00
1.60862	58.00
1.62528	58.00
1.64195	58.00
1.65862	58.00
1.67528	58.01
1.69195	58.00
1.70862	58.00
1.72528	58.00
1.74195	58.00
1.75862	58.00
1.77528	58.00
1.79195	58.00
1.80862	58.00
1.82528	58.00
1.84195	58.00
1.85862	58.00
1.87528	58.00
1.89195	58.00
1.90862	58.00
1.92528	58.00
1.94195	58.00
1.95862	58.00
1.97528	58.00
1.99195	58.00
2.00862	58.00
2.02528	58.00
2.04195	58.00
2.05862	58.00
2.07528	58.00
2.09195	58.00
2.10862	58.00
2.12528	58.00
2.14195	58.00
2.15862	58.00
2.17528	58.00
2.19195	58.00
2.20862	58.00
2.22528	58.00
2.24195	58.00
2.25862	58.00
2.27528	58.00
2.29195	58.00
2.30862	58.00
2.32528	58.00
2.34195	58.00
2.35862	58.00
2.37528	58.00
2.39195	57.99
2.40862	57.99
2.42528	58.00
2.44195	58.00
2.45862	58.00
2.47528	58.00
2.49195	58.00
2.50862	57.99
2.52528	57.98
2.54195	58.00
2.55862	58.00
2.57528	58.00
2.59195	58.00
2.60862	58.00
2.62528	58.00
2.64195	58.00
2.65862	58.00
2.67528	58.00
2.69195	58.00
2.70862	58.00
2.72528	58.00
2.74195	58.00
2.75862	58.00
2.77528	58.00
2.79195	58.00
2.80862	58.00
2.82528	58.00
2.84195	58.00
2.85862	58.00
2.87528	58.00
2.89195	58.00
2.90862	58.00
2.92528	58.00
2.94195	58.00
2.95862	58.00
2.97528	58.00
2.99195	58.00
3.00862	58.00
3.02528	58.00
3.04195	58.00
3.05862	58.00
3.07528	58.00
3.09195	58.00
3.10862	58.00
3.12528	58.00
3.14195	58.00
3.15862	58.00
3.17528	58.00
3.19195	58.00
3.20862	58.00
3.22528	58.00
3.24195	58.00
3.25862	58.00
3.27528	58.00
3.29195	58.00
3.30862	58.00
3.32528	58.00
3.34195	58.00
3.35862	58.00
3.37528	58.00
3.39195	58.00
3.40862	58.00
3.42528	58.00
3.44195	58.00
3.45862	58.00
3.47528	58.00
3.49195	58.00
3.50862	58.00
3.52528	58.00
3.54195	58.00
3.55862	58.00
3.57528	58.00
3.59195	58.00
3.60862	58.00
3.62528	58.00
3.64195	58.00
3.65862	58.00
3.67528	58.00
3.69195	58.00
3.70862	58.00
3.72528	58.00
3.74195	58.00
3.75862	58.00
3.77528	58.00
3.79195	58.00
3.80862	58.00
3.82528	58.00
3.84195	58.00
3.85862	58.00
3.87528	58.00
3.89195	58.00
3.90862	58.00
3.92528	58.00
3.94195	58.00
3.95862	58.00
3.97528	58.00
3.99195	58.00

[Status Trace (Carrier Gas Flow)]
Interval(msec)	1000
# of Points	240
Start Time(min)	0.009
End Time(min)	3.992
Intensity Units	
Intensity Multiplier	1
R.Time (min)	Intensity
0.00862	34.52
0.02528	34.54
0.04195	34.55
0.05862	34.55
0.07528	34.50
0.09195	34.51
0.10862	34.52
0.12528	34.52
0.14195	34.52
0.15862	34.52
0.17528	34.52
0.19195	34.52
0.20862	34.52
0.22528	34.52
0.24195	34.52
0.25862	34.52
0.27528	34.52
0.29195	34.51
0.30862	34.52
0.32528	34.53
0.34195	34.52
0.35862	34.52
0.37528	34.52
0.39195	34.52
0.40862	34.52
0.42528	34.52
0.44195	34.52
0.45862	34.52
0.47528	34.52
0.49195	34.52
0.50862	34.52
0.52528	34.52
0.54195	34.52
0.55862	34.51
0.57528	34.52
0.59195	34.52
0.60862	34.51
0.62528	34.52
0.64195	34.52
0.65862	34.52
0.67528	34.52
0.69195	34.52
0.70862	34.52
0.72528	34.52
0.74195	34.52
0.75862	34.51
0.77528	34.52
0.79195	34.52
0.80862	34.52
0.82528	34.52
0.84195	34.52
0.85862	34.52
0.87528	34.52
0.89195	34.52
0.90862	34.52
0.92528	34.52
0.94195	34.52
0.95862	34.51
0.97528	34.52
0.99195	34.52
1.00862	34.52
1.02528	34.52
1.04195	34.52
1.05862	34.52
1.07528	34.52
1.09195	34.52
1.10862	34.52
1.12528	34.51
1.14195	34.52
1.15862	34.52
1.17528	34.52
1.19195	34.52
1.20862	34.52
1.22528	34.52
1.24195	34.52
1.25862	34.52
1.27528	34.52
1.29195	34.52
1.30862	34.52
1.32528	34.52
1.34195	34.52
1.35862	34.52
1.37528	34.52
1.39195	34.52
1.40862	34.52
1.42528	34.52
1.44195	34.52
1.45862	34.52
1.47528	34.52
1.49195	34.52
1.50862	34.51
1.52528	34.52
1.54195	34.52
1.55862	34.52
1.57528	34.52
1.59195	34.52
1.60862	34.52
1.62528	34.52
1.64195	34.52
1.65862	34.52
1.67528	34.52
1.69195	34.52
1.70862	34.52
1.72528	34.52
1.74195	34.52
1.75862	34.51
1.77528	34.52
1.79195	34.52
1.80862	34.52
1.82528	34.52
1.84195	34.51
1.85862	34.51
1.87528	34.52
1.89195	34.52
1.90862	34.52
1.92528	34.52
1.94195	34.51
1.95862	34.52
1.97528	34.52
1.99195	34.51
2.00862	34.52
2.02528	34.52
2.04195	34.52
2.05862	34.52
2.07528	34.52
2.09195	34.52
2.10862	34.52
2.12528	34.52
2.14195	34.52
2.15862	34.52
2.17528	34.52
2.19195	34.52
2.20862	34.52
2.22528	34.52
2.24195	34.52
2.25862	34.53
2.27528	34.52
2.29195	34.51
2.30862	34.52
2.32528	34.51
2.34195	34.51
2.35862	34.51
2.37528	34.52
2.39195	34.52
2.40862	34.52
2.42528	34.52
2.44195	34.52
2.45862	34.53
2.47528	34.52
2.49195	34.52
2.50862	34.48
2.52528	34.52
2.54195	34.53
2.55862	34.52
2.57528	34.52
2.59195	34.52
2.60862	34.52
2.62528	34.51
2.64195	34.52
2.65862	34.52
2.67528	34.52
2.69195	34.52
2.70862	34.52
2.72528	34.52
2.74195	34.52
2.75862	34.52
2.77528	34.52
2.79195	34.52
2.80862	34.52
2.82528	34.52
2.84195	34.52
2.85862	34.52
2.87528	34.51
2.89195	34.52
2.90862	34.52
2.92528	34.52
2.94195	34.52
2.95862	34.52
2.97528	34.52
2.99195	34.52
3.00862	34.51
3.02528	34.52
3.04195	34.52
3.05862	34.52
3.07528	34.52
3.09195	34.52
3.10862	34.52
3.12528	34.52
3.14195	34.52
3.15862	34.52
3.17528	34.52
3.19195	34.52
3.20862	34.51
3.22528	34.52
3.24195	34.52
3.25862	34.52
3.27528	34.52
3.29195	34.51
3.30862	34.51
3.32528	34.51
3.34195	34.52
3.35862	34.52
3.37528	34.52
3.39195	34.52
3.40862	34.52
3.42528	34.52
3.44195	34.51
3.45862	34.52
3.47528	34.52
3.49195	34.52
3.50862	34.51
3.52528	34.52
3.54195	34.52
3.55862	34.52
3.57528	34.51
3.59195	34.52
3.60862	34.52
3.62528	34.53
3.64195	34.52
3.65862	34.51
3.67528	34.53
3.69195	34.52
3.70862	34.52
3.72528	34.52
3.74195	34.52
3.75862	34.52
3.77528	34.52
3.79195	34.52
3.80862	34.52
3.82528	34.52
3.84195	34.51
3.85862	34.51
3.87528	34.52
3.89195	34.52
3.90862	34.52
3.92528	34.53
3.94195	34.52
3.95862	34.51
3.97528	34.52
3.99195	34.53

[Status Trace (Column Flow)]
Interval(msec)	1000
# of Points	240
Start Time(min)	0.009
End Time(min)	3.992
Intensity Units	
Intensity Multiplier	1
R.Time (min)	Intensity
0.00862	5.56
0.02528	5.24
0.04195	5.47
0.05862	5.72
0.07528	5.72
0.09195	5.57
0.10862	5.56
0.12528	5.56
0.14195	5.56
0.15862	5.56
0.17528	5.56
0.19195	5.56
0.20862	5.56
0.22528	5.56
0.24195	5.56
0.25862	5.56
0.27528	5.56
0.29195	5.56
0.30862	5.56
0.32528	5.56
0.34195	5.56
0.35862	5.56
0.37528	5.56
0.39195	5.56
0.40862	5.56
0.42528	5.56
0.44195	5.56
0.45862	5.56
0.47528	5.56
0.49195	5.56
0.50862	5.56
0.52528	5.56
0.54195	5.56
0.55862	5.56
0.57528	5.56
0.59195	5.56
0.60862	5.56
0.62528	5.56
0.64195	5.56
0.65862	5.56
0.67528	5.56
0.69195	5.56
0.70862	5.56
0.72528	5.56
0.74195	5.56
0.75862	5.56
0.77528	5.56
0.79195	5.56
0.80862	5.56
0.82528	5.56
0.84195	5.56
0.85862	5.56
0.87528	5.56
0.89195	5.57
0.90862	5.57
0.92528	5.57
0.94195	5.57
0.95862	5.56
0.97528	5.56
0.99195	5.56
1.00862	5.56
1.02528	5.56
1.04195	5.56
1.05862	5.56
1.07528	5.56
1.09195	5.56
1.10862	5.56
1.12528	5.56
1.14195	5.56
1.15862	5.56
1.17528	5.57
1.19195	5.57
1.20862	5.57
1.22528	5.57
1.24195	5.57
1.25862	5.57
1.27528	5.57
1.29195	5.57
1.30862	5.57
1.32528	5.56
1.34195	5.56
1.35862	5.56
1.37528	5.56
1.39195	5.56
1.40862	5.56
1.42528	5.56
1.44195	5.56
1.45862	5.56
1.47528	5.56
1.49195	5.56
1.50862	5.56
1.52528	5.56
1.54195	5.56
1.55862	5.56
1.57528	5.56
1.59195	5.56
1.60862	5.56
1.62528	5.56
1.64195	5.55
1.65862	5.55
1.67528	5.53
1.69195	5.52
1.70862	5.51
1.72528	5.50
1.74195	5.49
1.75862	5.48
1.77528	5.47
1.79195	5.46
1.80862	5.45
1.82528	5.44
1.84195	5.43
1.85862	5.42
1.87528	5.41
1.89195	5.40
1.90862	5.39
1.92528	5.38
1.94195	5.37
1.95862	5.36
1.97528	5.35
1.99195	5.34
2.00862	5.33
2.02528	5.32
2.04195	5.31
2.05862	5.30
2.07528	5.29
2.09195	5.28
2.10862	5.27
2.12528	5.26
2.14195	5.25
2.15862	5.24
2.17528	5.23
2.19195	5.23
2.20862	5.22
2.22528	5.21
2.24195	5.20
2.25862	5.19
2.27528	5.18
2.29195	5.17
2.30862	5.16
2.32528	5.15
2.34195	5.14
2.35862	5.13
2.37528	5.13
2.39195	5.12
2.40862	5.13
2.42528	5.13
2.44195	5.13
2.45862	5.12
2.47528	5.12
2.49195	5.12
2.50862	5.12
2.52528	5.12
2.54195	5.12
2.55862	5.12
2.57528	5.12
2.59195	5.12
2.60862	5.12
2.62528	5.12
2.64195	5.12
2.65862	5.12
2.67528	5.12
2.69195	5.12
2.70862	5.12
2.72528	5.12
2.74195	5.12
2.75862	5.12
2.77528	5.12
2.79195	5.12
2.80862	5.12
2.82528	5.12
2.84195	5.12
2.85862	5.12
2.87528	5.12
2.89195	5.12
2.90862	5.12
2.92528	5.12
2.94195	5.12
2.95862	5.12
2.97528	5.12
2.99195	5.12
3.00862	5.12
3.02528	5.12
3.04195	5.12
3.05862	5.12
3.07528	5.12
3.09195	5.12
3.10862	5.12
3.12528	5.12
3.14195	5.12
3.15862	5.12
3.17528	5.12
3.19195	5.12
3.20862	5.12
3.22528	5.12
3.24195	5.12
3.25862	5.12
3.27528	5.12
3.29195	5.12
3.30862	5.12
3.32528	5.12
3.34195	5.12
3.35862	5.12
3.37528	5.11
3.39195	5.11
3.40862	5.11
3.42528	5.11
3.44195	5.11
3.45862	5.12
3.47528	5.12
3.49195	5.12
3.50862	5.11
3.52528	5.11
3.54195	5.11
3.55862	5.11
3.57528	5.12
3.59195	5.12
3.60862	5.12
3.62528	5.12
3.64195	5.12
3.65862	5.12
3.67528	5.12
3.69195	5.12
3.70862	5.12
3.72528	5.12
3.74195	5.12
3.75862	5.12
3.77528	5.11
3.79195	5.11
3.80862	5.11
3.82528	5.11
3.84195	5.11
3.85862	5.12
3.87528	5.12
3.89195	5.12
3.90862	5.12
3.92528	5.12
3.94195	5.12
3.95862	5.12
3.97528	5.12
3.99195	5.12

[Status Trace (Linear Velocity)]
Interval(msec)	1000
# of Points	240
Start Time(min)	0.009
End Time(min)	3.992
Intensity Units	
Intensity Multiplier	1
R.Time (min)	Intensity
0.00862	39.02
0.02528	37.22
0.04195	38.48
0.05862	39.90
0.07528	39.88
0.09195	39.06
0.10862	39.01
0.12528	39.03
0.14195	39.03
0.15862	39.03
0.17528	39.03
0.19195	39.03
0.20862	39.03
0.22528	39.03
0.24195	39.02
0.25862	39.02
0.27528	39.03
0.29195	39.03
0.30862	39.03
0.32528	39.03
0.34195	39.03
0.35862	39.02
0.37528	39.02
0.39195	39.02
0.40862	39.02
0.42528	39.03
0.44195	39.03
0.45862	39.03
0.47528	39.03
0.49195	39.03
0.50862	39.03
0.52528	39.03
0.54195	39.03
0.55862	39.03
0.57528	39.03
0.59195	39.03
0.60862	39.03
0.62528	39.03
0.64195	39.03
0.65862	39.03
0.67528	39.03
0.69195	39.03
0.70862	39.03
0.72528	39.03
0.74195	39.03
0.75862	39.03
0.77528	39.03
0.79195	39.03
0.80862	39.03
0.82528	39.03
0.84195	39.03
0.85862	39.03
0.87528	39.03
0.89195	39.03
0.90862	39.03
0.92528	39.03
0.94195	39.03
0.95862	39.03
0.97528	39.03
0.99195	39.03
1.00862	39.02
1.02528	39.03
1.04195	39.02
1.05862	39.03
1.07528	39.03
1.09195	39.03
1.10862	39.03
1.12528	39.03
1.14195	39.03
1.15862	39.03
1.17528	39.03
1.19195	39.03
1.20862	39.03
1.22528	39.03
1.24195	39.03
1.25862	39.03
1.27528	39.03
1.29195	39.03
1.30862	39.03
1.32528	39.03
1.34195	39.03
1.35862	39.03
1.37528	39.02
1.39195	39.02
1.40862	39.02
1.42528	39.02
1.44195	39.02
1.45862	39.02
1.47528	39.02
1.49195	39.03
1.50862	39.03
1.52528	39.03
1.54195	39.03
1.55862	39.03
1.57528	39.03
1.59195	39.03
1.60862	39.02
1.62528	39.01
1.64195	38.99
1.65862	38.97
1.67528	38.94
1.69195	38.90
1.70862	38.86
1.72528	38.83
1.74195	38.80
1.75862	38.77
1.77528	38.74
1.79195	38.71
1.80862	38.68
1.82528	38.64
1.84195	38.62
1.85862	38.58
1.87528	38.55
1.89195	38.52
1.90862	38.49
1.92528	38.46
1.94195	38.43
1.95862	38.40
1.97528	38.37
1.99195	38.34
2.00862	38.31
2.02528	38.28
2.04195	38.25
2.05862	38.22
2.07528	38.19
2.09195	38.16
2.10862	38.13
2.12528	38.10
2.14195	38.07
2.15862	38.04
2.17528	38.01
2.19195	37.99
2.20862	37.95
2.22528	37.92
2.24195	37.90
2.25862	37.86
2.27528	37.83
2.29195	37.81
2.30862	37.78
2.32528	37.74
2.34195	37.72
2.35862	37.69
2.37528	37.67
2.39195	37.66
2.40862	37.66
2.42528	37.67
2.44195	37.67
2.45862	37.66
2.47528	37.66
2.49195	37.66
2.50862	37.66
2.52528	37.65
2.54195	37.66
2.55862	37.66
2.57528	37.66
2.59195	37.66
2.60862	37.66
2.62528	37.66
2.64195	37.66
2.65862	37.66
2.67528	37.66
2.69195	37.66
2.70862	37.66
2.72528	37.65
2.74195	37.65
2.75862	37.66
2.77528	37.65
2.79195	37.65
2.80862	37.65
2.82528	37.65
2.84195	37.65
2.85862	37.65
2.87528	37.65
2.89195	37.65
2.90862	37.65
2.92528	37.65
2.94195	37.65
2.95862	37.65
2.97528	37.65
2.99195	37.64
3.00862	37.64
3.02528	37.64
3.04195	37.64
3.05862	37.64
3.07528	37.64
3.09195	37.64
3.10862	37.64
3.12528	37.64
3.14195	37.64
3.15862	37.64
3.17528	37.64
3.19195	37.64
3.20862	37.64
3.22528	37.64
3.24195	37.64
3.25862	37.64
3.27528	37.64
3.29195	37.64
3.30862	37.64
3.32528	37.63
3.34195	37.63
3.35862	37.63
3.37528	37.63
3.39195	37.63
3.40862	37.63
3.42528	37.63
3.44195	37.63
3.45862	37.63
3.47528	37.64
3.49195	37.64
3.50862	37.63
3.52528	37.63
3.54195	37.63
3.55862	37.63
3.57528	37.64
3.59195	37.63
3.60862	37.64
3.62528	37.64
3.64195	37.64
3.65862	37.64
3.67528	37.64
3.69195	37.64
3.70862	37.64
3.72528	37.64
3.74195	37.64
3.75862	37.64
3.77528	37.63
3.79195	37.63
3.80862	37.63
3.82528	37.63
3.84195	37.63
3.85862	37.63
3.87528	37.64
3.89195	37.64
3.90862	37.64
3.92528	37.64
3.94195	37.64
3.95862	37.64
3.97528	37.64
3.99195	37.64

