[Header]
Application Name	LabSolutions
Version	5.110
Data File Name	C:\Users\User\Desktop\GC Analyses\Jack\Nachusa Grasslands Sampling\T1 Timepoint July 12th\T1_07122022_008.gcd
Output Date	3/14/2023
Output Time	3:40:57 PM

[File Information]
Type	Data File
Generated	3/8/2023 2:03:47 PM
Generated by	System Administrator
Modified	3/8/2023 2:10:18 PM
Modified by	System Administrator

[Sample Information]
Operator Name	System Administrator
Acquired	3/8/2023 2:06:18 PM
Sample Type	0:Unknown
Level	0
Sample Name	008
Sample ID	008
ISTD Amount1	1
ISTD Amount2	1
ISTD Amount3	1
ISTD Amount4	1
ISTD Amount5	1
ISTD Amount6	1
ISTD Amount7	1
ISTD Amount8	1
ISTD Amount9	1
ISTD Amount10	1
ISTD Amount11	1
ISTD Amount12	1
ISTD Amount13	1
ISTD Amount14	1
ISTD Amount15	1
ISTD Amount16	1
ISTD Amount17	1
ISTD Amount18	1
ISTD Amount19	1
ISTD Amount20	1
ISTD Amount21	1
ISTD Amount22	1
ISTD Amount23	1
ISTD Amount24	1
ISTD Amount25	1
ISTD Amount26	1
ISTD Amount27	1
ISTD Amount28	1
ISTD Amount29	1
ISTD Amount30	1
ISTD Amount31	1
ISTD Amount32	1
Sample Amount	1
Dilution Factor	1
Vial#	7
Injection Volume	1
Injection Count	1
Bar Code	

[Original Files]
Data File	C:\Users\User\Desktop\GC Analyses\Jack\Nachusa Grasslands Sampling\T1 Timepoint July 12th\T1_07122022_008.gcd
Method File	C:\LabSolutions\Data\GHG_4min_2022\ghg3_togas_w_acet_4 min_new_int.gcm
Batch File	C:\LabSolutions\Data\AutoSamplerTesting\T1_07122022.gcb
Report Format File	c:\LabSolutions\System\DEFAULT.lsr

[File Description]


[Configuration]
Instrument Name	C0B7VH3-Instrument1
Instrument #	1
Line #	1
# of Detectors	3
Detector ID	DET#1	DET#2	DET#3
Detector Name	FID	PTCD	ECD
# of Channels	1	1	1

[Peak Table(Ch1)]
# of Peaks	3
Peak#	R.Time	I.Time	F.Time	Area	Height	A/H	Conc.	Mark	ID#	Name	k'	Plate #	Plate Ht.	Tailing	Resolution	Sep.Factor	Area Ratio	Height Ratio	Conc. %	Norm Conc.
1	1.476	1.435	1.538	28889	13594	2.125	203.955	   	1	CO	0.000	9313	16.107	1.320	0.000	0.000	0	0	32.525	32.525
2	1.567	1.538	1.630	4771	2310	2.065	92.252	 V 	2	CH4	0.062	10353	14.489	0.000	1.493	0.000	0	0	14.711	14.711
3	1.996	1.941	2.495	1318338	622054	2.119	330.867	   	3	CO2	0.353	17240	8.701	1.305	7.008	5.680	0	0	52.764	52.764

[Peak Table(Ch2)]
# of Peaks	0

[Peak Table(Ch3)]
# of Peaks	6
Peak#	R.Time	I.Time	F.Time	Area	Height	A/H	Conc.	Mark	ID#	Name	k'	Plate #	Plate Ht.	Tailing	Resolution	Sep.Factor	Area Ratio	Height Ratio	Conc. %	Norm Conc.
1	2.462	2.293	2.521	1575	413	3.815	0.000	   			0.000	7312	20.514	0.000	0.000	0.000	0	0	0.000	0.000
2	2.546	2.521	2.634	1043	238	4.380	0.000	 V 			0.034	2897	51.786	0.000	0.554	0.000	0	0	0.000	0.000
3	2.697	2.645	2.759	623	120	5.205	0.000	   			0.095	1197	125.334	0.000	0.600	2.783	0	0	0.000	0.000
4	2.873	2.759	3.313	20968	5031	4.168	0.536	SV 	1	N2O	0.167	13029	11.513	1.709	0.853	1.750	0	0	100.000	100.000
5	3.294	3.203	3.313	157	43	3.633	0.000	T  	2	SF6	0.338	15115	9.924	0.590	4.057	2.027	0	0	0.000	0.000
6	3.441	3.324	3.995	9161	430	21.308	0.000	   	2	SF6	0.398	576	260.477	2.827	0.431	1.176	0	0	0.000	0.000

[Compound Results(Ch1)]
# of IDs	6
ID#	Name	R.Time	Area	Height	Conc.	Curve	3rd	2nd	1st	Constant	Area Ratio	Height Ratio	Conc. %	Norm Conc.
1	CO	1.476	28889	13594	203.955	Linear	0.000000e+00	0.000000e+00	1.416423e+002	0.000000e+00	0	0	32.525	32.525
2	CH4	1.567	4771	2310	92.252	Linear	0.000000e+00	0.000000e+00	5.171738e+001	0.000000e+00	0	0	14.711	14.711
3	CO2	1.996	1318338	622054	330.867	Linear	0.000000e+00	0.000000e+00	3.984494e+003	0.000000e+00	0	0	52.764	52.764
4	Ethylene	0.000	0	0	0.000	Linear	0.000000e+00	0.000000e+00	0.000000e+00	0.000000e+00	0	0	0.000	0.000
5	Acetylene	0.000	0	0	0.000	Linear	0.000000e+00	0.000000e+00	0.000000e+00	0.000000e+00	0	0	0.000	0.000
6	Ethane	0.000	0	0	0.000	Linear	0.000000e+00	0.000000e+00	0.000000e+00	0.000000e+00	0	0	0.000	0.000

[Compound Results(Ch2)]
# of IDs	5
ID#	Name	R.Time	Area	Height	Conc.	Curve	3rd	2nd	1st	Constant	Area Ratio	Height Ratio	Conc. %	Norm Conc.
1	Hydrogen	0.000	0	0	0.000	Linear	0.000000e+00	0.000000e+00	0.000000e+00	0.000000e+00	0	0	0.000	0.000
2	Oxygen	0.000	0	0	0.000	Linear	0.000000e+00	0.000000e+00	0.000000e+00	0.000000e+00	0	0	0.000	0.000
3	Nitrogen	0.000	0	0	0.000	Linear	0.000000e+00	0.000000e+00	0.000000e+00	0.000000e+00	0	0	0.000	0.000
4	Methane	0.000	0	0	0.000	Linear	0.000000e+00	0.000000e+00	0.000000e+00	0.000000e+00	0	0	0.000	0.000
5	Carbon Monoxide	0.000	0	0	0.000	Linear	0.000000e+00	0.000000e+00	0.000000e+00	0.000000e+00	0	0	0.000	0.000

[Compound Results(Ch3)]
# of IDs	2
ID#	Name	R.Time	Area	Height	Conc.	Curve	3rd	2nd	1st	Constant	Area Ratio	Height Ratio	Conc. %	Norm Conc.
1	N2O	2.873	20968	5031	0.536	Linear	0.000000e+00	0.000000e+00	3.915173e+004	0.000000e+00	0	0	100.000	100.000
2	SF6	3.441	9318	473	0.000	Linear	0.000000e+00	0.000000e+00	0.000000e+00	0.000000e+00	0	0	0.000	0.000

[Group Results(Ch1)]
# of Groups	0

[Group Results(Ch2)]
# of Groups	0

[Group Results(Ch3)]
# of Groups	0

[Chromatogram (Ch1)]
Interval(msec)	220
# of Points	1091
Start Time(min)	0.002
End Time(min)	3.998
R.Time (min)	Intensity
0.00167	3
0.00533	2
0.00900	-0
0.01267	-2
0.01633	-0
0.02000	4
0.02367	10
0.02733	16
0.03100	18
0.03467	15
0.03833	11
0.04200	8
0.04567	6
0.04933	3
0.05300	1
0.05667	-1
0.06033	-1
0.06400	-3
0.06767	-8
0.07133	-11
0.07500	-12
0.07867	-12
0.08233	-9
0.08600	-5
0.08967	-1
0.09333	8
0.09700	18
0.10067	23
0.10433	24
0.10800	22
0.11167	21
0.11533	18
0.11900	13
0.12267	9
0.12633	7
0.13000	5
0.13367	2
0.13733	-1
0.14100	-0
0.14467	6
0.14833	12
0.15200	17
0.15567	21
0.15933	26
0.16300	29
0.16667	24
0.17033	13
0.17400	-1
0.17767	-16
0.18133	-21
0.18500	-20
0.18867	-11
0.19233	-2
0.19600	0
0.19967	0
0.20333	1
0.20700	2
0.21067	1
0.21433	-3
0.21800	-8
0.22167	-9
0.22533	-8
0.22900	-5
0.23267	-1
0.23633	3
0.24000	5
0.24367	10
0.24733	17
0.25100	20
0.25467	17
0.25833	15
0.26200	12
0.26567	9
0.26933	4
0.27300	-2
0.27667	-7
0.28033	-9
0.28400	-10
0.28767	-12
0.29133	-14
0.29500	-14
0.29867	-14
0.30233	-12
0.30600	-8
0.30967	-3
0.31333	4
0.31700	12
0.32067	17
0.32433	19
0.32800	16
0.33167	8
0.33533	1
0.33900	-1
0.34267	2
0.34633	6
0.35000	8
0.35367	8
0.35733	7
0.36100	7
0.36467	8
0.36833	11
0.37200	16
0.37567	23
0.37933	27
0.38300	28
0.38667	29
0.39033	31
0.39400	32
0.39767	32
0.40133	35
0.40500	42
0.40867	46
0.41233	45
0.41600	38
0.41967	29
0.42333	17
0.42700	5
0.43067	1
0.43433	0
0.43800	1
0.44167	3
0.44533	8
0.44900	10
0.45267	9
0.45633	10
0.46000	14
0.46367	20
0.46733	24
0.47100	27
0.47467	27
0.47833	25
0.48200	23
0.48567	18
0.48933	13
0.49300	7
0.49667	4
0.50033	3
0.50400	2
0.50767	1
0.51133	3
0.51500	7
0.51867	10
0.52233	9
0.52600	3
0.52967	-7
0.53333	-19
0.53700	-27
0.54067	-29
0.54433	-27
0.54800	-22
0.55167	-21
0.55533	-19
0.55900	-16
0.56267	-13
0.56633	-6
0.57000	-1
0.57367	1
0.57733	2
0.58100	0
0.58467	-6
0.58833	-13
0.59200	-20
0.59567	-25
0.59933	-28
0.60300	-23
0.60667	-19
0.61033	-19
0.61400	-18
0.61767	-18
0.62133	-17
0.62500	-12
0.62867	-8
0.63233	-7
0.63600	-10
0.63967	-17
0.64333	-22
0.64700	-26
0.65067	-31
0.65433	-33
0.65800	-32
0.66167	-29
0.66533	-28
0.66900	-30
0.67267	-33
0.67633	-34
0.68000	-30
0.68367	-24
0.68733	-20
0.69100	-24
0.69467	-33
0.69833	-39
0.70200	-39
0.70567	-37
0.70933	-36
0.71300	-34
0.71667	-34
0.72033	-35
0.72400	-36
0.72767	-37
0.73133	-34
0.73500	-29
0.73867	-23
0.74233	-17
0.74600	-10
0.74967	-5
0.75333	-1
0.75700	-2
0.76067	-7
0.76433	-15
0.76800	-23
0.77167	-30
0.77533	-32
0.77900	-32
0.78267	-29
0.78633	-23
0.79000	-18
0.79367	-15
0.79733	-9
0.80100	-6
0.80467	-7
0.80833	-13
0.81200	-22
0.81567	-30
0.81933	-35
0.82300	-35
0.82667	-28
0.83033	-23
0.83400	-23
0.83767	-24
0.84133	-23
0.84500	-22
0.84867	-22
0.85233	-20
0.85600	-20
0.85967	-25
0.86333	-32
0.86700	-40
0.87067	-45
0.87433	-45
0.87800	-42
0.88167	-37
0.88533	-32
0.88900	-29
0.89267	-27
0.89633	-28
0.90000	-24
0.90367	-17
0.90733	-18
0.91100	-26
0.91467	-31
0.91833	-35
0.92200	-38
0.92567	-40
0.92933	-41
0.93300	-37
0.93667	-33
0.94033	-29
0.94400	-24
0.94767	-21
0.95133	-19
0.95500	-19
0.95867	-24
0.96233	-32
0.96600	-40
0.96967	-43
0.97333	-41
0.97700	-34
0.98067	-27
0.98433	-21
0.98800	-22
0.99167	-34
0.99533	-47
0.99900	-57
1.00267	-62
1.00633	-62
1.01000	-61
1.01367	-59
1.01733	-58
1.02100	-57
1.02467	-57
1.02833	-57
1.03200	-56
1.03567	-58
1.03933	-59
1.04300	-58
1.04667	-53
1.05033	-51
1.05400	-48
1.05767	-42
1.06133	-33
1.06500	-29
1.06867	-33
1.07233	-39
1.07600	-44
1.07967	-47
1.08333	-50
1.08700	-53
1.09067	-56
1.09433	-58
1.09800	-55
1.10167	-50
1.10533	-44
1.10900	-41
1.11267	-42
1.11633	-50
1.12000	-56
1.12367	-56
1.12733	-52
1.13100	-51
1.13467	-52
1.13833	-54
1.14200	-57
1.14567	-60
1.14933	-59
1.15300	-53
1.15667	-46
1.16033	-40
1.16400	-41
1.16767	-47
1.17133	-52
1.17500	-51
1.17867	-45
1.18233	-40
1.18600	-39
1.18967	-45
1.19333	-51
1.19700	-55
1.20067	-54
1.20433	-51
1.20800	-48
1.21167	-47
1.21533	-47
1.21900	-49
1.22267	-53
1.22633	-59
1.23000	-64
1.23367	-67
1.23733	-68
1.24100	-66
1.24467	-64
1.24833	-65
1.25200	-58
1.25567	-51
1.25933	-47
1.26300	-47
1.26667	-51
1.27033	-55
1.27400	-54
1.27767	-51
1.28133	-48
1.28500	-47
1.28867	-46
1.29233	-45
1.29600	-46
1.29967	-46
1.30333	-47
1.30700	-48
1.31067	-50
1.31433	-52
1.31800	-56
1.32167	-59
1.32533	-60
1.32900	-58
1.33267	-61
1.33633	-66
1.34000	-68
1.34367	-65
1.34733	-62
1.35100	-59
1.35467	-57
1.35833	-58
1.36200	-56
1.36567	-56
1.36933	-59
1.37300	-61
1.37667	-62
1.38033	-58
1.38400	-52
1.38767	-51
1.39133	-51
1.39500	-53
1.39867	-58
1.40233	-61
1.40600	-65
1.40967	-70
1.41333	-78
1.41700	-84
1.42067	-86
1.42433	-83
1.42800	-79
1.43167	-77
1.43533	-73
1.43900	-52
1.44267	37
1.44633	275
1.45000	883
1.45367	2250
1.45733	4463
1.46100	7083
1.46467	9559
1.46833	11556
1.47200	12920
1.47567	13536
1.47933	13291
1.48300	12181
1.48667	10421
1.49033	8376
1.49400	6403
1.49767	4724
1.50133	3409
1.50500	2431
1.50867	1732
1.51233	1242
1.51600	906
1.51967	674
1.52333	508
1.52700	388
1.53067	304
1.53433	247
1.53800	223
1.54167	271
1.54533	450
1.54900	775
1.55267	1189
1.55633	1597
1.56000	1936
1.56367	2174
1.56733	2287
1.57100	2249
1.57467	2050
1.57833	1729
1.58200	1355
1.58567	999
1.58933	699
1.59300	472
1.59667	317
1.60033	216
1.60400	149
1.60767	103
1.61133	67
1.61500	40
1.61867	21
1.62233	12
1.62600	7
1.62967	1
1.63333	-4
1.63700	-8
1.64067	-12
1.64433	-22
1.64800	-33
1.65167	-44
1.65533	-51
1.65900	-52
1.66267	-50
1.66633	-50
1.67000	-48
1.67367	-43
1.67733	-34
1.68100	-26
1.68467	-22
1.68833	-21
1.69200	-22
1.69567	-22
1.69933	-22
1.70300	-25
1.70667	-34
1.71033	-41
1.71400	-42
1.71767	-41
1.72133	-40
1.72500	-39
1.72867	-42
1.73233	-49
1.73600	-53
1.73967	-50
1.74333	-42
1.74700	-33
1.75067	-30
1.75433	-35
1.75800	-47
1.76167	-56
1.76533	-59
1.76900	-56
1.77267	-46
1.77633	-32
1.78000	-22
1.78367	-18
1.78733	-18
1.79100	-21
1.79467	-27
1.79833	-33
1.80200	-34
1.80567	-34
1.80933	-33
1.81300	-27
1.81667	-20
1.82033	-15
1.82400	-14
1.82767	-15
1.83133	-18
1.83500	-27
1.83867	-39
1.84233	-46
1.84600	-50
1.84967	-53
1.85333	-52
1.85700	-48
1.86067	-40
1.86433	-33
1.86800	-27
1.87167	-18
1.87533	-10
1.87900	-3
1.88267	2
1.88633	7
1.89000	16
1.89367	25
1.89733	30
1.90100	26
1.90467	16
1.90833	-0
1.91200	-13
1.91567	-21
1.91933	-27
1.92300	-26
1.92667	-20
1.93033	-17
1.93400	-14
1.93767	-11
1.94133	-6
1.94500	1
1.94867	9
1.95233	29
1.95600	143
1.95967	775
1.96333	3610
1.96700	13334
1.97067	38932
1.97433	91230
1.97800	175522
1.98167	284906
1.98533	402102
1.98900	507257
1.99267	584211
1.99633	622085
2.00000	616015
2.00367	568737
2.00733	491097
2.01100	398862
2.01467	307371
2.01833	227196
2.02200	162969
2.02567	114746
2.02933	80153
2.03300	56085
2.03667	39658
2.04033	28555
2.04400	21066
2.04767	15989
2.05133	12509
2.05500	10087
2.05867	8366
2.06233	7111
2.06600	6172
2.06967	5448
2.07333	4876
2.07700	4415
2.08067	4031
2.08433	3706
2.08800	3431
2.09167	3196
2.09533	2996
2.09900	2823
2.10267	2666
2.10633	2522
2.11000	2389
2.11367	2267
2.11733	2160
2.12100	2064
2.12467	1975
2.12833	1890
2.13200	1809
2.13567	1732
2.13933	1660
2.14300	1594
2.14667	1537
2.15033	1485
2.15400	1434
2.15767	1382
2.16133	1335
2.16500	1292
2.16867	1251
2.17233	1209
2.17600	1170
2.17967	1133
2.18333	1096
2.18700	1063
2.19067	1037
2.19433	1012
2.19800	988
2.20167	968
2.20533	947
2.20900	923
2.21267	900
2.21633	878
2.22000	859
2.22367	843
2.22733	830
2.23100	818
2.23467	802
2.23833	784
2.24200	766
2.24567	751
2.24933	740
2.25300	730
2.25667	721
2.26033	711
2.26400	699
2.26767	685
2.27133	666
2.27500	645
2.27867	629
2.28233	622
2.28600	615
2.28967	606
2.29333	597
2.29700	588
2.30067	579
2.30433	573
2.30800	567
2.31167	563
2.31533	559
2.31900	554
2.32267	543
2.32633	529
2.33000	515
2.33367	505
2.33733	497
2.34100	491
2.34467	484
2.34833	477
2.35200	472
2.35567	467
2.35933	464
2.36300	464
2.36667	465
2.37033	465
2.37400	464
2.37767	462
2.38133	461
2.38500	460
2.38867	459
2.39233	456
2.39600	446
2.39967	434
2.40333	427
2.40700	425
2.41067	421
2.41433	418
2.41800	416
2.42167	417
2.42533	418
2.42900	417
2.43267	417
2.43633	419
2.44000	418
2.44367	412
2.44733	399
2.45100	384
2.45467	370
2.45833	363
2.46200	366
2.46567	377
2.46933	388
2.47300	393
2.47667	396
2.48033	396
2.48400	391
2.48767	382
2.49133	370
2.49500	362
2.49867	358
2.50233	353
2.50600	347
2.50967	344
2.51333	345
2.51700	349
2.52067	352
2.52433	358
2.52800	362
2.53167	364
2.53533	364
2.53900	364
2.54267	367
2.54633	366
2.55000	360
2.55367	349
2.55733	339
2.56100	332
2.56467	332
2.56833	339
2.57200	346
2.57567	351
2.57933	355
2.58300	353
2.58667	347
2.59033	342
2.59400	339
2.59767	340
2.60133	345
2.60500	353
2.60867	358
2.61233	361
2.61600	366
2.61967	373
2.62333	375
2.62700	370
2.63067	360
2.63433	350
2.63800	346
2.64167	347
2.64533	346
2.64900	343
2.65267	341
2.65633	342
2.66000	344
2.66367	346
2.66733	347
2.67100	348
2.67467	348
2.67833	349
2.68200	352
2.68567	354
2.68933	354
2.69300	352
2.69667	350
2.70033	350
2.70400	349
2.70767	349
2.71133	350
2.71500	351
2.71867	355
2.72233	358
2.72600	360
2.72967	358
2.73333	352
2.73700	347
2.74067	351
2.74433	361
2.74800	369
2.75167	372
2.75533	363
2.75900	347
2.76267	336
2.76633	333
2.77000	340
2.77367	352
2.77733	364
2.78100	370
2.78467	373
2.78833	374
2.79200	375
2.79567	372
2.79933	368
2.80300	365
2.80667	367
2.81033	375
2.81400	382
2.81767	386
2.82133	383
2.82500	376
2.82867	365
2.83233	355
2.83600	350
2.83967	346
2.84333	341
2.84700	338
2.85067	341
2.85433	348
2.85800	355
2.86167	361
2.86533	362
2.86900	361
2.87267	360
2.87633	364
2.88000	369
2.88367	369
2.88733	365
2.89100	363
2.89467	366
2.89833	367
2.90200	367
2.90567	365
2.90933	365
2.91300	365
2.91667	368
2.92033	375
2.92400	381
2.92767	381
2.93133	378
2.93500	375
2.93867	376
2.94233	383
2.94600	393
2.94967	401
2.95333	403
2.95700	401
2.96067	395
2.96433	389
2.96800	384
2.97167	376
2.97533	368
2.97900	364
2.98267	361
2.98633	361
2.99000	365
2.99367	373
2.99733	385
3.00100	393
3.00467	399
3.00833	404
3.01200	407
3.01567	408
3.01933	406
3.02300	400
3.02667	391
3.03033	382
3.03400	374
3.03767	372
3.04133	374
3.04500	373
3.04867	370
3.05233	370
3.05600	376
3.05967	387
3.06333	396
3.06700	405
3.07067	411
3.07433	413
3.07800	408
3.08167	397
3.08533	386
3.08900	379
3.09267	376
3.09633	378
3.10000	381
3.10367	386
3.10733	388
3.11100	391
3.11467	399
3.11833	409
3.12200	414
3.12567	409
3.12933	396
3.13300	384
3.13667	377
3.14033	375
3.14400	379
3.14767	385
3.15133	390
3.15500	391
3.15867	390
3.16233	383
3.16600	375
3.16967	369
3.17333	366
3.17700	364
3.18067	362
3.18433	362
3.18800	363
3.19167	366
3.19533	369
3.19900	373
3.20267	375
3.20633	372
3.21000	369
3.21367	370
3.21733	376
3.22100	385
3.22467	389
3.22833	388
3.23200	382
3.23567	376
3.23933	376
3.24300	377
3.24667	378
3.25033	379
3.25400	380
3.25767	379
3.26133	377
3.26500	375
3.26867	372
3.27233	365
3.27600	361
3.27967	363
3.28333	370
3.28700	374
3.29067	375
3.29433	374
3.29800	375
3.30167	375
3.30533	369
3.30900	363
3.31267	363
3.31633	366
3.32000	369
3.32367	370
3.32733	372
3.33100	377
3.33467	382
3.33833	386
3.34200	387
3.34567	382
3.34933	375
3.35300	372
3.35667	371
3.36033	370
3.36400	370
3.36767	371
3.37133	370
3.37500	369
3.37867	366
3.38233	365
3.38600	365
3.38967	367
3.39333	369
3.39700	368
3.40067	364
3.40433	364
3.40800	367
3.41167	367
3.41533	365
3.41900	365
3.42267	374
3.42633	388
3.43000	399
3.43367	407
3.43733	406
3.44100	396
3.44467	381
3.44833	368
3.45200	357
3.45567	342
3.45933	326
3.46300	317
3.46667	318
3.47033	327
3.47400	338
3.47767	348
3.48133	355
3.48500	358
3.48867	356
3.49233	357
3.49600	361
3.49967	365
3.50333	368
3.50700	366
3.51067	356
3.51433	341
3.51800	330
3.52167	326
3.52533	327
3.52900	333
3.53267	342
3.53633	349
3.54000	352
3.54367	351
3.54733	343
3.55100	336
3.55467	336
3.55833	339
3.56200	336
3.56567	332
3.56933	329
3.57300	330
3.57667	333
3.58033	338
3.58400	343
3.58767	347
3.59133	351
3.59500	355
3.59867	353
3.60233	350
3.60600	350
3.60967	346
3.61333	341
3.61700	337
3.62067	334
3.62433	329
3.62800	326
3.63167	323
3.63533	321
3.63900	320
3.64267	321
3.64633	322
3.65000	321
3.65367	321
3.65733	320
3.66100	320
3.66467	322
3.66833	331
3.67200	340
3.67567	347
3.67933	350
3.68300	346
3.68667	336
3.69033	329
3.69400	325
3.69767	323
3.70133	327
3.70500	331
3.70867	330
3.71233	329
3.71600	328
3.71967	325
3.72333	321
3.72700	319
3.73067	314
3.73433	310
3.73800	305
3.74167	300
3.74533	301
3.74900	308
3.75267	316
3.75633	322
3.76000	326
3.76367	327
3.76733	328
3.77100	332
3.77467	336
3.77833	332
3.78200	323
3.78567	322
3.78933	327
3.79300	325
3.79667	318
3.80033	312
3.80400	307
3.80767	301
3.81133	294
3.81500	284
3.81867	276
3.82233	273
3.82600	275
3.82967	282
3.83333	292
3.83700	298
3.84067	298
3.84433	294
3.84800	294
3.85167	296
3.85533	302
3.85900	309
3.86267	318
3.86633	322
3.87000	318
3.87367	308
3.87733	295
3.88100	282
3.88467	270
3.88833	264
3.89200	265
3.89567	277
3.89933	295
3.90300	311
3.90667	317
3.91033	314
3.91400	305
3.91767	296
3.92133	287
3.92500	277
3.92867	270
3.93233	268
3.93600	270
3.93967	270
3.94333	266
3.94700	262
3.95067	260
3.95433	262
3.95800	265
3.96167	267
3.96533	267
3.96900	267
3.97267	271
3.97633	279
3.98000	287
3.98367	293
3.98733	295
3.99100	291
3.99467	285
3.99833	281

[Chromatogram (Ch2)]
Interval(msec)	220
# of Points	1091
Start Time(min)	0.002
End Time(min)	3.998
R.Time (min)	Intensity
0.00167	-1
0.00533	-1
0.00900	-2
0.01267	-2
0.01633	-2
0.02000	-3
0.02367	-3
0.02733	-3
0.03100	-3
0.03467	-3
0.03833	-3
0.04200	-3
0.04567	-3
0.04933	-3
0.05300	-2
0.05667	-2
0.06033	-2
0.06400	-1
0.06767	-1
0.07133	-1
0.07500	-1
0.07867	-1
0.08233	-1
0.08600	-1
0.08967	-0
0.09333	0
0.09700	1
0.10067	1
0.10433	2
0.10800	2
0.11167	3
0.11533	3
0.11900	3
0.12267	3
0.12633	3
0.13000	4
0.13367	4
0.13733	4
0.14100	5
0.14467	5
0.14833	5
0.15200	5
0.15567	5
0.15933	5
0.16300	5
0.16667	5
0.17033	6
0.17400	6
0.17767	6
0.18133	6
0.18500	6
0.18867	6
0.19233	6
0.19600	6
0.19967	5
0.20333	5
0.20700	5
0.21067	5
0.21433	5
0.21800	4
0.22167	5
0.22533	5
0.22900	4
0.23267	4
0.23633	4
0.24000	4
0.24367	3
0.24733	3
0.25100	2
0.25467	2
0.25833	2
0.26200	1
0.26567	1
0.26933	1
0.27300	1
0.27667	1
0.28033	1
0.28400	1
0.28767	1
0.29133	1
0.29500	1
0.29867	1
0.30233	1
0.30600	2
0.30967	2
0.31333	2
0.31700	2
0.32067	2
0.32433	2
0.32800	2
0.33167	2
0.33533	2
0.33900	2
0.34267	2
0.34633	2
0.35000	2
0.35367	2
0.35733	2
0.36100	2
0.36467	2
0.36833	2
0.37200	2
0.37567	2
0.37933	1
0.38300	1
0.38667	1
0.39033	1
0.39400	1
0.39767	1
0.40133	2
0.40500	2
0.40867	2
0.41233	2
0.41600	3
0.41967	3
0.42333	3
0.42700	2
0.43067	2
0.43433	2
0.43800	2
0.44167	2
0.44533	1
0.44900	1
0.45267	1
0.45633	1
0.46000	0
0.46367	1
0.46733	1
0.47100	1
0.47467	1
0.47833	1
0.48200	1
0.48567	1
0.48933	0
0.49300	0
0.49667	0
0.50033	0
0.50400	0
0.50767	0
0.51133	0
0.51500	1
0.51867	1
0.52233	1
0.52600	1
0.52967	1
0.53333	1
0.53700	1
0.54067	1
0.54433	1
0.54800	0
0.55167	0
0.55533	0
0.55900	0
0.56267	0
0.56633	0
0.57000	0
0.57367	0
0.57733	1
0.58100	1
0.58467	2
0.58833	2
0.59200	3
0.59567	3
0.59933	3
0.60300	2
0.60667	2
0.61033	2
0.61400	1
0.61767	1
0.62133	-0
0.62500	-1
0.62867	-1
0.63233	-1
0.63600	-2
0.63967	-2
0.64333	-2
0.64700	-2
0.65067	-1
0.65433	-1
0.65800	-1
0.66167	-1
0.66533	-1
0.66900	-1
0.67267	-1
0.67633	-1
0.68000	-1
0.68367	-1
0.68733	-0
0.69100	-0
0.69467	-0
0.69833	-0
0.70200	-0
0.70567	-0
0.70933	-0
0.71300	-0
0.71667	-1
0.72033	-1
0.72400	-1
0.72767	-2
0.73133	-2
0.73500	-2
0.73867	-2
0.74233	-2
0.74600	-2
0.74967	-2
0.75333	-2
0.75700	-2
0.76067	-2
0.76433	-2
0.76800	-2
0.77167	-2
0.77533	-2
0.77900	-2
0.78267	-1
0.78633	-1
0.79000	-1
0.79367	-0
0.79733	0
0.80100	1
0.80467	1
0.80833	2
0.81200	2
0.81567	3
0.81933	3
0.82300	3
0.82667	3
0.83033	4
0.83400	4
0.83767	4
0.84133	4
0.84500	4
0.84867	4
0.85233	4
0.85600	4
0.85967	3
0.86333	3
0.86700	2
0.87067	2
0.87433	2
0.87800	2
0.88167	2
0.88533	2
0.88900	2
0.89267	2
0.89633	1
0.90000	1
0.90367	1
0.90733	1
0.91100	1
0.91467	0
0.91833	0
0.92200	1
0.92567	1
0.92933	1
0.93300	2
0.93667	2
0.94033	2
0.94400	3
0.94767	3
0.95133	3
0.95500	3
0.95867	3
0.96233	3
0.96600	3
0.96967	3
0.97333	3
0.97700	2
0.98067	2
0.98433	2
0.98800	1
0.99167	0
0.99533	-0
0.99900	-1
1.00267	-1
1.00633	-2
1.01000	-2
1.01367	-3
1.01733	-3
1.02100	-3
1.02467	-3
1.02833	-3
1.03200	-3
1.03567	-3
1.03933	-3
1.04300	-3
1.04667	-3
1.05033	-2
1.05400	-2
1.05767	-2
1.06133	-2
1.06500	-1
1.06867	-1
1.07233	-1
1.07600	-1
1.07967	-1
1.08333	-1
1.08700	-1
1.09067	-1
1.09433	-1
1.09800	-1
1.10167	-1
1.10533	-1
1.10900	-1
1.11267	-0
1.11633	-0
1.12000	0
1.12367	1
1.12733	1
1.13100	1
1.13467	1
1.13833	1
1.14200	1
1.14567	0
1.14933	-0
1.15300	-1
1.15667	-1
1.16033	-2
1.16400	-2
1.16767	-2
1.17133	-2
1.17500	-1
1.17867	-1
1.18233	-0
1.18600	-0
1.18967	-0
1.19333	0
1.19700	0
1.20067	0
1.20433	0
1.20800	0
1.21167	0
1.21533	0
1.21900	0
1.22267	0
1.22633	-0
1.23000	0
1.23367	0
1.23733	0
1.24100	0
1.24467	0
1.24833	0
1.25200	-0
1.25567	-0
1.25933	-0
1.26300	-1
1.26667	-1
1.27033	-1
1.27400	-1
1.27767	-0
1.28133	0
1.28500	1
1.28867	1
1.29233	2
1.29600	2
1.29967	2
1.30333	2
1.30700	2
1.31067	3
1.31433	3
1.31800	3
1.32167	3
1.32533	3
1.32900	3
1.33267	3
1.33633	2
1.34000	2
1.34367	1
1.34733	0
1.35100	-0
1.35467	-1
1.35833	-1
1.36200	-1
1.36567	-1
1.36933	-1
1.37300	-1
1.37667	-1
1.38033	-2
1.38400	-2
1.38767	-2
1.39133	-2
1.39500	-2
1.39867	-2
1.40233	-2
1.40600	-2
1.40967	-2
1.41333	-2
1.41700	-2
1.42067	-2
1.42433	-2
1.42800	-2
1.43167	-2
1.43533	-2
1.43900	-2
1.44267	-2
1.44633	-2
1.45000	-2
1.45367	-2
1.45733	-1
1.46100	-1
1.46467	-1
1.46833	-0
1.47200	0
1.47567	0
1.47933	1
1.48300	1
1.48667	1
1.49033	2
1.49400	2
1.49767	2
1.50133	2
1.50500	2
1.50867	2
1.51233	1
1.51600	1
1.51967	0
1.52333	0
1.52700	0
1.53067	-0
1.53433	-0
1.53800	-0
1.54167	-0
1.54533	-0
1.54900	-1
1.55267	-1
1.55633	-1
1.56000	-2
1.56367	-2
1.56733	-2
1.57100	-2
1.57467	-2
1.57833	-2
1.58200	-3
1.58567	-3
1.58933	-3
1.59300	-4
1.59667	-4
1.60033	-5
1.60400	-6
1.60767	-8
1.61133	-9
1.61500	-11
1.61867	-13
1.62233	-15
1.62600	-18
1.62967	-21
1.63333	-24
1.63700	-27
1.64067	-30
1.64433	-34
1.64800	-37
1.65167	-41
1.65533	-44
1.65900	-48
1.66267	-52
1.66633	-56
1.67000	-61
1.67367	-66
1.67733	-72
1.68100	-77
1.68467	-82
1.68833	-87
1.69200	-91
1.69567	-95
1.69933	-99
1.70300	-102
1.70667	-104
1.71033	-106
1.71400	-107
1.71767	-108
1.72133	-109
1.72500	-110
1.72867	-111
1.73233	-112
1.73600	-112
1.73967	-113
1.74333	-113
1.74700	-114
1.75067	-114
1.75433	-114
1.75800	-114
1.76167	-114
1.76533	-113
1.76900	-113
1.77267	-112
1.77633	-111
1.78000	-111
1.78367	-110
1.78733	-110
1.79100	-111
1.79467	-111
1.79833	-112
1.80200	-112
1.80567	-113
1.80933	-114
1.81300	-115
1.81667	-115
1.82033	-116
1.82400	-116
1.82767	-116
1.83133	-116
1.83500	-116
1.83867	-116
1.84233	-117
1.84600	-118
1.84967	-118
1.85333	-118
1.85700	-118
1.86067	-118
1.86433	-117
1.86800	-117
1.87167	-117
1.87533	-117
1.87900	-117
1.88267	-117
1.88633	-117
1.89000	-117
1.89367	-116
1.89733	-116
1.90100	-115
1.90467	-115
1.90833	-115
1.91200	-115
1.91567	-115
1.91933	-115
1.92300	-115
1.92667	-114
1.93033	-114
1.93400	-113
1.93767	-113
1.94133	-112
1.94500	-112
1.94867	-111
1.95233	-111
1.95600	-110
1.95967	-109
1.96333	-108
1.96700	-108
1.97067	-108
1.97433	-107
1.97800	-107
1.98167	-107
1.98533	-107
1.98900	-108
1.99267	-108
1.99633	-108
2.00000	-108
2.00367	-109
2.00733	-109
2.01100	-109
2.01467	-110
2.01833	-109
2.02200	-109
2.02567	-108
2.02933	-107
2.03300	-106
2.03667	-106
2.04033	-106
2.04400	-105
2.04767	-105
2.05133	-104
2.05500	-104
2.05867	-103
2.06233	-103
2.06600	-102
2.06967	-102
2.07333	-102
2.07700	-102
2.08067	-102
2.08433	-101
2.08800	-101
2.09167	-101
2.09533	-101
2.09900	-101
2.10267	-101
2.10633	-101
2.11000	-101
2.11367	-100
2.11733	-100
2.12100	-100
2.12467	-99
2.12833	-99
2.13200	-98
2.13567	-97
2.13933	-96
2.14300	-96
2.14667	-95
2.15033	-95
2.15400	-94
2.15767	-94
2.16133	-95
2.16500	-95
2.16867	-96
2.17233	-96
2.17600	-96
2.17967	-96
2.18333	-95
2.18700	-95
2.19067	-94
2.19433	-94
2.19800	-94
2.20167	-93
2.20533	-93
2.20900	-92
2.21267	-91
2.21633	-91
2.22000	-90
2.22367	-90
2.22733	-89
2.23100	-90
2.23467	-90
2.23833	-90
2.24200	-90
2.24567	-89
2.24933	-88
2.25300	-87
2.25667	-86
2.26033	-86
2.26400	-85
2.26767	-84
2.27133	-83
2.27500	-83
2.27867	-83
2.28233	-82
2.28600	-82
2.28967	-81
2.29333	-81
2.29700	-82
2.30067	-82
2.30433	-82
2.30800	-81
2.31167	-81
2.31533	-82
2.31900	-82
2.32267	-83
2.32633	-83
2.33000	-84
2.33367	-84
2.33733	-83
2.34100	-82
2.34467	-81
2.34833	-79
2.35200	-78
2.35567	-77
2.35933	-75
2.36300	-74
2.36667	-72
2.37033	-70
2.37400	-67
2.37767	-64
2.38133	-61
2.38500	-57
2.38867	-53
2.39233	-49
2.39600	-45
2.39967	-40
2.40333	-36
2.40700	-32
2.41067	-29
2.41433	-26
2.41800	-23
2.42167	-21
2.42533	-19
2.42900	-17
2.43267	-16
2.43633	-14
2.44000	-13
2.44367	-12
2.44733	-11
2.45100	-10
2.45467	-8
2.45833	-7
2.46200	-5
2.46567	-4
2.46933	-2
2.47300	-1
2.47667	0
2.48033	1
2.48400	3
2.48767	4
2.49133	5
2.49500	6
2.49867	7
2.50233	7
2.50600	8
2.50967	8
2.51333	9
2.51700	9
2.52067	10
2.52433	11
2.52800	12
2.53167	13
2.53533	14
2.53900	14
2.54267	14
2.54633	15
2.55000	15
2.55367	15
2.55733	15
2.56100	15
2.56467	16
2.56833	16
2.57200	16
2.57567	16
2.57933	16
2.58300	16
2.58667	16
2.59033	16
2.59400	16
2.59767	16
2.60133	17
2.60500	17
2.60867	18
2.61233	18
2.61600	18
2.61967	18
2.62333	17
2.62700	17
2.63067	17
2.63433	17
2.63800	17
2.64167	17
2.64533	17
2.64900	18
2.65267	18
2.65633	19
2.66000	19
2.66367	19
2.66733	20
2.67100	20
2.67467	20
2.67833	20
2.68200	21
2.68567	21
2.68933	22
2.69300	22
2.69667	23
2.70033	23
2.70400	24
2.70767	24
2.71133	25
2.71500	25
2.71867	26
2.72233	27
2.72600	27
2.72967	27
2.73333	27
2.73700	27
2.74067	26
2.74433	25
2.74800	24
2.75167	24
2.75533	24
2.75900	24
2.76267	24
2.76633	24
2.77000	24
2.77367	25
2.77733	25
2.78100	25
2.78467	26
2.78833	26
2.79200	26
2.79567	26
2.79933	27
2.80300	27
2.80667	27
2.81033	28
2.81400	28
2.81767	28
2.82133	28
2.82500	27
2.82867	27
2.83233	27
2.83600	26
2.83967	25
2.84333	22
2.84700	17
2.85067	9
2.85433	-2
2.85800	-16
2.86167	-35
2.86533	-58
2.86900	-85
2.87267	-116
2.87633	-151
2.88000	-190
2.88367	-233
2.88733	-278
2.89100	-326
2.89467	-376
2.89833	-428
2.90200	-481
2.90567	-535
2.90933	-589
2.91300	-643
2.91667	-697
2.92033	-750
2.92400	-802
2.92767	-853
2.93133	-907
2.93500	-966
2.93867	-1025
2.94233	-1075
2.94600	-1105
2.94967	-1109
2.95333	-1087
2.95700	-1043
2.96067	-981
2.96433	-908
2.96800	-829
2.97167	-748
2.97533	-668
2.97900	-591
2.98267	-519
2.98633	-454
2.99000	-394
2.99367	-340
2.99733	-293
3.00100	-251
3.00467	-214
3.00833	-182
3.01200	-154
3.01567	-129
3.01933	-108
3.02300	-90
3.02667	-75
3.03033	-62
3.03400	-50
3.03767	-41
3.04133	-33
3.04500	-25
3.04867	-19
3.05233	-14
3.05600	-9
3.05967	-5
3.06333	-2
3.06700	1
3.07067	3
3.07433	5
3.07800	7
3.08167	9
3.08533	10
3.08900	11
3.09267	12
3.09633	13
3.10000	13
3.10367	14
3.10733	14
3.11100	15
3.11467	15
3.11833	15
3.12200	15
3.12567	15
3.12933	15
3.13300	15
3.13667	16
3.14033	16
3.14400	17
3.14767	17
3.15133	18
3.15500	18
3.15867	19
3.16233	19
3.16600	20
3.16967	20
3.17333	21
3.17700	21
3.18067	22
3.18433	22
3.18800	22
3.19167	22
3.19533	22
3.19900	22
3.20267	22
3.20633	22
3.21000	22
3.21367	22
3.21733	22
3.22100	22
3.22467	22
3.22833	23
3.23200	23
3.23567	24
3.23933	24
3.24300	25
3.24667	26
3.25033	26
3.25400	27
3.25767	27
3.26133	28
3.26500	28
3.26867	29
3.27233	29
3.27600	29
3.27967	29
3.28333	29
3.28700	29
3.29067	29
3.29433	29
3.29800	29
3.30167	29
3.30533	29
3.30900	29
3.31267	29
3.31633	29
3.32000	29
3.32367	29
3.32733	29
3.33100	29
3.33467	29
3.33833	30
3.34200	30
3.34567	30
3.34933	29
3.35300	29
3.35667	29
3.36033	29
3.36400	29
3.36767	29
3.37133	29
3.37500	29
3.37867	29
3.38233	29
3.38600	29
3.38967	29
3.39333	29
3.39700	29
3.40067	29
3.40433	29
3.40800	29
3.41167	29
3.41533	28
3.41900	28
3.42267	28
3.42633	28
3.43000	28
3.43367	27
3.43733	27
3.44100	27
3.44467	27
3.44833	27
3.45200	27
3.45567	27
3.45933	27
3.46300	27
3.46667	28
3.47033	28
3.47400	28
3.47767	28
3.48133	28
3.48500	28
3.48867	28
3.49233	28
3.49600	29
3.49967	29
3.50333	29
3.50700	29
3.51067	29
3.51433	29
3.51800	29
3.52167	29
3.52533	29
3.52900	28
3.53267	28
3.53633	28
3.54000	28
3.54367	27
3.54733	27
3.55100	27
3.55467	27
3.55833	27
3.56200	27
3.56567	27
3.56933	27
3.57300	27
3.57667	27
3.58033	27
3.58400	27
3.58767	27
3.59133	28
3.59500	28
3.59867	28
3.60233	28
3.60600	27
3.60967	27
3.61333	27
3.61700	27
3.62067	27
3.62433	27
3.62800	26
3.63167	26
3.63533	26
3.63900	26
3.64267	26
3.64633	26
3.65000	26
3.65367	26
3.65733	26
3.66100	26
3.66467	26
3.66833	27
3.67200	27
3.67567	27
3.67933	27
3.68300	27
3.68667	27
3.69033	28
3.69400	28
3.69767	28
3.70133	28
3.70500	28
3.70867	28
3.71233	28
3.71600	28
3.71967	28
3.72333	28
3.72700	28
3.73067	28
3.73433	28
3.73800	28
3.74167	28
3.74533	28
3.74900	28
3.75267	28
3.75633	28
3.76000	28
3.76367	28
3.76733	28
3.77100	28
3.77467	28
3.77833	29
3.78200	29
3.78567	29
3.78933	29
3.79300	29
3.79667	29
3.80033	29
3.80400	29
3.80767	29
3.81133	29
3.81500	29
3.81867	29
3.82233	30
3.82600	30
3.82967	29
3.83333	29
3.83700	29
3.84067	29
3.84433	29
3.84800	28
3.85167	28
3.85533	27
3.85900	27
3.86267	27
3.86633	27
3.87000	27
3.87367	27
3.87733	27
3.88100	27
3.88467	27
3.88833	28
3.89200	28
3.89567	28
3.89933	28
3.90300	28
3.90667	28
3.91033	28
3.91400	28
3.91767	28
3.92133	28
3.92500	28
3.92867	29
3.93233	29
3.93600	29
3.93967	29
3.94333	30
3.94700	30
3.95067	29
3.95433	29
3.95800	29
3.96167	29
3.96533	28
3.96900	28
3.97267	28
3.97633	28
3.98000	28
3.98367	28
3.98733	28
3.99100	29
3.99467	29
3.99833	28

[Chromatogram (Ch3)]
Interval(msec)	220
# of Points	1091
Start Time(min)	0.002
End Time(min)	3.998
R.Time (min)	Intensity
0.00167	-0
0.00533	-1
0.00900	-2
0.01267	-3
0.01633	-5
0.02000	-3
0.02367	-3
0.02733	-3
0.03100	-1
0.03467	-2
0.03833	-2
0.04200	-0
0.04567	-0
0.04933	-2
0.05300	-3
0.05667	-0
0.06033	1
0.06400	1
0.06767	1
0.07133	5
0.07500	5
0.07867	5
0.08233	4
0.08600	2
0.08967	1
0.09333	1
0.09700	0
0.10067	1
0.10433	2
0.10800	2
0.11167	-0
0.11533	-2
0.11900	-2
0.12267	-1
0.12633	-3
0.13000	-3
0.13367	-2
0.13733	1
0.14100	1
0.14467	-1
0.14833	-3
0.15200	-2
0.15567	0
0.15933	1
0.16300	0
0.16667	1
0.17033	1
0.17400	-0
0.17767	-1
0.18133	-1
0.18500	-2
0.18867	-2
0.19233	-5
0.19600	-7
0.19967	-4
0.20333	-1
0.20700	-1
0.21067	-1
0.21433	-1
0.21800	-2
0.22167	-2
0.22533	-0
0.22900	0
0.23267	-1
0.23633	-1
0.24000	-1
0.24367	-1
0.24733	-1
0.25100	-1
0.25467	1
0.25833	1
0.26200	1
0.26567	2
0.26933	2
0.27300	1
0.27667	1
0.28033	-1
0.28400	-2
0.28767	-2
0.29133	-1
0.29500	-1
0.29867	-0
0.30233	-1
0.30600	0
0.30967	1
0.31333	0
0.31700	-0
0.32067	-2
0.32433	-1
0.32800	-1
0.33167	-0
0.33533	1
0.33900	1
0.34267	-1
0.34633	-2
0.35000	-0
0.35367	1
0.35733	1
0.36100	-2
0.36467	-5
0.36833	-6
0.37200	-5
0.37567	-1
0.37933	4
0.38300	6
0.38667	6
0.39033	4
0.39400	1
0.39767	1
0.40133	1
0.40500	2
0.40867	2
0.41233	1
0.41600	-1
0.41967	0
0.42333	2
0.42700	2
0.43067	1
0.43433	-2
0.43800	-3
0.44167	-5
0.44533	-5
0.44900	-4
0.45267	-5
0.45633	-5
0.46000	-5
0.46367	-2
0.46733	1
0.47100	2
0.47467	4
0.47833	3
0.48200	1
0.48567	1
0.48933	2
0.49300	3
0.49667	1
0.50033	2
0.50400	2
0.50767	1
0.51133	2
0.51500	1
0.51867	-3
0.52233	-5
0.52600	-4
0.52967	-3
0.53333	-2
0.53700	1
0.54067	1
0.54433	-1
0.54800	-3
0.55167	-4
0.55533	-2
0.55900	-1
0.56267	0
0.56633	0
0.57000	0
0.57367	-1
0.57733	-2
0.58100	-3
0.58467	-4
0.58833	-3
0.59200	-2
0.59567	-2
0.59933	-1
0.60300	-0
0.60667	-2
0.61033	-4
0.61400	-4
0.61767	-4
0.62133	-3
0.62500	-1
0.62867	0
0.63233	0
0.63600	-1
0.63967	-2
0.64333	-3
0.64700	-3
0.65067	-2
0.65433	-2
0.65800	-3
0.66167	-5
0.66533	-6
0.66900	-6
0.67267	-8
0.67633	-7
0.68000	-6
0.68367	-4
0.68733	-3
0.69100	-3
0.69467	-1
0.69833	-1
0.70200	-1
0.70567	-0
0.70933	-1
0.71300	-2
0.71667	-2
0.72033	-1
0.72400	-3
0.72767	-6
0.73133	-8
0.73500	-8
0.73867	-5
0.74233	-3
0.74600	-2
0.74967	-2
0.75333	0
0.75700	5
0.76067	6
0.76433	4
0.76800	3
0.77167	3
0.77533	2
0.77900	1
0.78267	2
0.78633	1
0.79000	2
0.79367	2
0.79733	3
0.80100	4
0.80467	4
0.80833	3
0.81200	1
0.81567	3
0.81933	6
0.82300	6
0.82667	4
0.83033	2
0.83400	-1
0.83767	-1
0.84133	1
0.84500	2
0.84867	2
0.85233	1
0.85600	1
0.85967	2
0.86333	4
0.86700	6
0.87067	6
0.87433	6
0.87800	7
0.88167	7
0.88533	5
0.88900	1
0.89267	-0
0.89633	3
0.90000	5
0.90367	7
0.90733	7
0.91100	8
0.91467	9
0.91833	8
0.92200	6
0.92567	5
0.92933	7
0.93300	8
0.93667	7
0.94033	7
0.94400	8
0.94767	9
0.95133	9
0.95500	9
0.95867	9
0.96233	8
0.96600	7
0.96967	7
0.97333	6
0.97700	8
0.98067	10
0.98433	9
0.98800	9
0.99167	8
0.99533	6
0.99900	6
1.00267	8
1.00633	9
1.01000	9
1.01367	9
1.01733	8
1.02100	6
1.02467	5
1.02833	5
1.03200	4
1.03567	4
1.03933	5
1.04300	6
1.04667	5
1.05033	6
1.05400	9
1.05767	10
1.06133	11
1.06500	14
1.06867	16
1.07233	16
1.07600	13
1.07967	10
1.08333	8
1.08700	7
1.09067	8
1.09433	8
1.09800	7
1.10167	6
1.10533	6
1.10900	4
1.11267	3
1.11633	3
1.12000	4
1.12367	4
1.12733	7
1.13100	9
1.13467	11
1.13833	11
1.14200	11
1.14567	11
1.14933	11
1.15300	12
1.15667	11
1.16033	10
1.16400	10
1.16767	9
1.17133	7
1.17500	7
1.17867	7
1.18233	9
1.18600	9
1.18967	9
1.19333	9
1.19700	7
1.20067	5
1.20433	5
1.20800	8
1.21167	10
1.21533	10
1.21900	9
1.22267	7
1.22633	6
1.23000	5
1.23367	5
1.23733	6
1.24100	7
1.24467	8
1.24833	8
1.25200	9
1.25567	12
1.25933	14
1.26300	15
1.26667	15
1.27033	14
1.27400	14
1.27767	11
1.28133	9
1.28500	9
1.28867	11
1.29233	11
1.29600	10
1.29967	8
1.30333	6
1.30700	7
1.31067	6
1.31433	7
1.31800	8
1.32167	10
1.32533	9
1.32900	9
1.33267	10
1.33633	10
1.34000	10
1.34367	10
1.34733	10
1.35100	9
1.35467	7
1.35833	5
1.36200	4
1.36567	5
1.36933	5
1.37300	6
1.37667	7
1.38033	7
1.38400	7
1.38767	7
1.39133	8
1.39500	9
1.39867	8
1.40233	8
1.40600	9
1.40967	6
1.41333	6
1.41700	8
1.42067	8
1.42433	8
1.42800	9
1.43167	9
1.43533	9
1.43900	9
1.44267	9
1.44633	10
1.45000	9
1.45367	9
1.45733	9
1.46100	9
1.46467	10
1.46833	9
1.47200	11
1.47567	14
1.47933	15
1.48300	15
1.48667	12
1.49033	11
1.49400	13
1.49767	14
1.50133	12
1.50500	9
1.50867	5
1.51233	4
1.51600	4
1.51967	7
1.52333	10
1.52700	10
1.53067	10
1.53433	10
1.53800	12
1.54167	13
1.54533	12
1.54900	7
1.55267	7
1.55633	9
1.56000	10
1.56367	10
1.56733	11
1.57100	13
1.57467	13
1.57833	14
1.58200	14
1.58567	15
1.58933	16
1.59300	14
1.59667	13
1.60033	12
1.60400	13
1.60767	14
1.61133	11
1.61500	10
1.61867	9
1.62233	8
1.62600	10
1.62967	13
1.63333	15
1.63700	14
1.64067	12
1.64433	13
1.64800	14
1.65167	17
1.65533	17
1.65900	16
1.66267	15
1.66633	14
1.67000	14
1.67367	14
1.67733	17
1.68100	19
1.68467	21
1.68833	24
1.69200	26
1.69567	26
1.69933	26
1.70300	26
1.70667	24
1.71033	19
1.71400	18
1.71767	18
1.72133	16
1.72500	15
1.72867	16
1.73233	18
1.73600	19
1.73967	19
1.74333	20
1.74700	21
1.75067	19
1.75433	20
1.75800	21
1.76167	22
1.76533	22
1.76900	24
1.77267	25
1.77633	25
1.78000	24
1.78367	24
1.78733	24
1.79100	24
1.79467	24
1.79833	24
1.80200	24
1.80567	26
1.80933	27
1.81300	26
1.81667	25
1.82033	25
1.82400	27
1.82767	29
1.83133	31
1.83500	31
1.83867	29
1.84233	30
1.84600	32
1.84967	33
1.85333	35
1.85700	35
1.86067	34
1.86433	35
1.86800	36
1.87167	37
1.87533	37
1.87900	38
1.88267	39
1.88633	40
1.89000	42
1.89367	42
1.89733	40
1.90100	39
1.90467	40
1.90833	40
1.91200	42
1.91567	42
1.91933	42
1.92300	42
1.92667	45
1.93033	45
1.93400	44
1.93767	44
1.94133	45
1.94500	45
1.94867	46
1.95233	48
1.95600	49
1.95967	48
1.96333	50
1.96700	51
1.97067	49
1.97433	47
1.97800	46
1.98167	48
1.98533	49
1.98900	52
1.99267	55
1.99633	57
2.00000	58
2.00367	59
2.00733	60
2.01100	60
2.01467	58
2.01833	57
2.02200	54
2.02567	53
2.02933	56
2.03300	56
2.03667	55
2.04033	55
2.04400	57
2.04767	58
2.05133	59
2.05500	59
2.05867	58
2.06233	59
2.06600	61
2.06967	63
2.07333	64
2.07700	64
2.08067	66
2.08433	65
2.08800	66
2.09167	66
2.09533	67
2.09900	67
2.10267	68
2.10633	68
2.11000	68
2.11367	68
2.11733	68
2.12100	67
2.12467	68
2.12833	68
2.13200	68
2.13567	70
2.13933	71
2.14300	71
2.14667	72
2.15033	73
2.15400	75
2.15767	78
2.16133	80
2.16500	82
2.16867	82
2.17233	82
2.17600	80
2.17967	82
2.18333	83
2.18700	85
2.19067	86
2.19433	87
2.19800	88
2.20167	89
2.20533	88
2.20900	87
2.21267	87
2.21633	90
2.22000	92
2.22367	93
2.22733	92
2.23100	91
2.23467	92
2.23833	92
2.24200	92
2.24567	95
2.24933	98
2.25300	98
2.25667	98
2.26033	100
2.26400	102
2.26767	104
2.27133	105
2.27500	105
2.27867	105
2.28233	108
2.28600	111
2.28967	112
2.29333	114
2.29700	115
2.30067	114
2.30433	115
2.30800	118
2.31167	121
2.31533	124
2.31900	124
2.32267	125
2.32633	124
2.33000	124
2.33367	125
2.33733	127
2.34100	126
2.34467	125
2.34833	126
2.35200	127
2.35567	128
2.35933	130
2.36300	132
2.36667	134
2.37033	138
2.37400	139
2.37767	140
2.38133	140
2.38500	140
2.38867	141
2.39233	143
2.39600	142
2.39967	145
2.40333	151
2.40700	154
2.41067	156
2.41433	157
2.41800	157
2.42167	160
2.42533	162
2.42900	164
2.43267	167
2.43633	169
2.44000	171
2.44367	199
2.44733	284
2.45100	376
2.45467	448
2.45833	501
2.46200	519
2.46567	504
2.46933	481
2.47300	460
2.47667	445
2.48033	435
2.48400	428
2.48767	418
2.49133	400
2.49500	378
2.49867	354
2.50233	333
2.50600	316
2.50967	304
2.51333	297
2.51700	294
2.52067	292
2.52433	293
2.52800	298
2.53167	309
2.53533	320
2.53900	330
2.54267	337
2.54633	340
2.55000	337
2.55367	329
2.55733	319
2.56100	308
2.56467	297
2.56833	284
2.57200	274
2.57567	264
2.57933	257
2.58300	253
2.58667	249
2.59033	247
2.59400	245
2.59767	240
2.60133	232
2.60500	222
2.60867	206
2.61233	189
2.61600	168
2.61967	149
2.62333	133
2.62700	119
2.63067	106
2.63433	97
2.63800	95
2.64167	96
2.64533	98
2.64900	103
2.65267	113
2.65633	122
2.66000	134
2.66367	146
2.66733	159
2.67100	172
2.67467	184
2.67833	192
2.68200	198
2.68567	204
2.68933	210
2.69300	216
2.69667	220
2.70033	220
2.70400	218
2.70767	217
2.71133	217
2.71500	215
2.71867	215
2.72233	215
2.72600	215
2.72967	216
2.73333	217
2.73700	214
2.74067	211
2.74433	207
2.74800	205
2.75167	205
2.75533	206
2.75900	206
2.76267	207
2.76633	208
2.77000	209
2.77367	211
2.77733	212
2.78100	212
2.78467	212
2.78833	210
2.79200	210
2.79567	213
2.79933	213
2.80300	213
2.80667	211
2.81033	211
2.81400	214
2.81767	225
2.82133	245
2.82500	289
2.82867	371
2.83233	514
2.83600	745
2.83967	1080
2.84333	1521
2.84700	2057
2.85067	2655
2.85433	3273
2.85800	3863
2.86167	4378
2.86533	4777
2.86900	5034
2.87267	5140
2.87633	5102
2.88000	4945
2.88367	4694
2.88733	4384
2.89100	4039
2.89467	3680
2.89833	3323
2.90200	2977
2.90567	2656
2.90933	2362
2.91300	2094
2.91667	1854
2.92033	1641
2.92400	1453
2.92767	1290
2.93133	1147
2.93500	1025
2.93867	917
2.94233	826
2.94600	746
2.94967	675
2.95333	613
2.95700	561
2.96067	519
2.96433	483
2.96800	452
2.97167	424
2.97533	397
2.97900	374
2.98267	353
2.98633	336
2.99000	322
2.99367	311
2.99733	300
3.00100	292
3.00467	283
3.00833	277
3.01200	271
3.01567	267
3.01933	261
3.02300	254
3.02667	250
3.03033	248
3.03400	246
3.03767	241
3.04133	235
3.04500	231
3.04867	226
3.05233	224
3.05600	222
3.05967	219
3.06333	218
3.06700	217
3.07067	214
3.07433	211
3.07800	208
3.08167	206
3.08533	204
3.08900	202
3.09267	199
3.09633	198
3.10000	195
3.10367	193
3.10733	190
3.11100	188
3.11467	187
3.11833	188
3.12200	189
3.12567	188
3.12933	186
3.13300	186
3.13667	186
3.14033	184
3.14400	181
3.14767	181
3.15133	180
3.15500	179
3.15867	180
3.16233	182
3.16600	183
3.16967	183
3.17333	181
3.17700	180
3.18067	178
3.18433	176
3.18800	177
3.19167	177
3.19533	175
3.19900	175
3.20267	177
3.20633	179
3.21000	179
3.21367	180
3.21733	180
3.22100	181
3.22467	182
3.22833	183
3.23200	184
3.23567	184
3.23933	184
3.24300	185
3.24667	185
3.25033	186
3.25400	186
3.25767	186
3.26133	183
3.26500	181
3.26867	181
3.27233	181
3.27600	181
3.27967	179
3.28333	179
3.28700	180
3.29067	182
3.29433	181
3.29800	171
3.30167	157
3.30533	144
3.30900	134
3.31267	129
3.31633	125
3.32000	125
3.32367	132
3.32733	149
3.33100	171
3.33467	197
3.33833	228
3.34200	262
3.34567	299
3.34933	335
3.35300	368
3.35667	401
3.36033	432
3.36400	459
3.36767	481
3.37133	500
3.37500	517
3.37867	532
3.38233	546
3.38600	558
3.38967	565
3.39333	572
3.39700	578
3.40067	585
3.40433	591
3.40800	595
3.41167	597
3.41533	598
3.41900	600
3.42267	605
3.42633	608
3.43000	610
3.43367	614
3.43733	619
3.44100	621
3.44467	620
3.44833	620
3.45200	619
3.45567	617
3.45933	616
3.46300	617
3.46667	615
3.47033	612
3.47400	610
3.47767	609
3.48133	607
3.48500	605
3.48867	604
3.49233	605
3.49600	608
3.49967	608
3.50333	607
3.50700	607
3.51067	607
3.51433	609
3.51800	609
3.52167	608
3.52533	608
3.52900	606
3.53267	604
3.53633	602
3.54000	602
3.54367	602
3.54733	600
3.55100	600
3.55467	600
3.55833	601
3.56200	603
3.56567	605
3.56933	604
3.57300	603
3.57667	600
3.58033	597
3.58400	595
3.58767	593
3.59133	592
3.59500	590
3.59867	588
3.60233	586
3.60600	585
3.60967	583
3.61333	584
3.61700	584
3.62067	583
3.62433	582
3.62800	581
3.63167	579
3.63533	578
3.63900	575
3.64267	570
3.64633	566
3.65000	565
3.65367	562
3.65733	560
3.66100	558
3.66467	555
3.66833	553
3.67200	550
3.67567	549
3.67933	550
3.68300	551
3.68667	549
3.69033	548
3.69400	544
3.69767	538
3.70133	536
3.70500	535
3.70867	535
3.71233	534
3.71600	534
3.71967	534
3.72333	535
3.72700	532
3.73067	529
3.73433	526
3.73800	525
3.74167	524
3.74533	523
3.74900	524
3.75267	522
3.75633	519
3.76000	515
3.76367	512
3.76733	510
3.77100	509
3.77467	506
3.77833	505
3.78200	506
3.78567	507
3.78933	508
3.79300	506
3.79667	504
3.80033	501
3.80400	497
3.80767	495
3.81133	496
3.81500	496
3.81867	496
3.82233	495
3.82600	494
3.82967	493
3.83333	494
3.83700	495
3.84067	496
3.84433	495
3.84800	494
3.85167	493
3.85533	491
3.85900	490
3.86267	488
3.86633	487
3.87000	485
3.87367	487
3.87733	488
3.88100	488
3.88467	487
3.88833	485
3.89200	486
3.89567	485
3.89933	482
3.90300	480
3.90667	480
3.91033	480
3.91400	478
3.91767	476
3.92133	476
3.92500	476
3.92867	478
3.93233	479
3.93600	480
3.93967	480
3.94333	480
3.94700	477
3.95067	478
3.95433	479
3.95800	480
3.96167	479
3.96533	475
3.96900	472
3.97267	473
3.97633	475
3.98000	476
3.98367	477
3.98733	476
3.99100	474
3.99467	470
3.99833	465

[Status Trace (Column Oven Temperature)]
Interval(msec)	1000
# of Points	240
Start Time(min)	0.006
End Time(min)	3.989
Intensity Units	
Intensity Multiplier	1
R.Time (min)	Intensity
0.00612	35.08
0.02278	35.10
0.03945	35.11
0.05612	35.11
0.07278	35.11
0.08945	35.10
0.10612	35.08
0.12278	35.07
0.13945	35.06
0.15612	35.05
0.17278	35.03
0.18945	35.02
0.20612	35.00
0.22278	34.99
0.23945	35.00
0.25612	35.00
0.27278	35.00
0.28945	35.00
0.30612	35.01
0.32278	35.00
0.33945	35.00
0.35612	34.99
0.37278	34.99
0.38945	34.99
0.40612	34.98
0.42278	34.98
0.43945	34.99
0.45612	34.99
0.47278	34.99
0.48945	35.00
0.50612	34.99
0.52278	34.98
0.53945	34.97
0.55612	34.98
0.57278	34.97
0.58945	34.97
0.60612	34.98
0.62278	34.99
0.63945	35.01
0.65612	35.01
0.67278	35.01
0.68945	35.02
0.70612	35.02
0.72278	35.03
0.73945	35.03
0.75612	35.04
0.77278	35.04
0.78945	35.04
0.80612	35.02
0.82278	35.00
0.83945	34.99
0.85612	34.98
0.87278	34.99
0.88945	34.99
0.90612	34.98
0.92278	34.98
0.93945	34.97
0.95612	34.96
0.97278	34.96
0.98945	34.98
1.00612	35.00
1.02278	35.00
1.03945	35.00
1.05612	35.01
1.07278	35.02
1.08945	35.01
1.10612	35.01
1.12278	34.99
1.13945	35.00
1.15612	35.01
1.17278	35.01
1.18945	35.00
1.20612	35.00
1.22278	34.99
1.23945	34.99
1.25612	35.00
1.27278	34.99
1.28945	34.98
1.30612	34.96
1.32278	34.96
1.33945	34.96
1.35612	34.97
1.37278	34.98
1.38945	34.98
1.40612	34.99
1.42278	34.98
1.43945	34.99
1.45612	34.99
1.47278	34.98
1.48945	34.97
1.50612	34.96
1.52278	34.96
1.53945	34.96
1.55612	34.98
1.57278	34.99
1.58945	35.01
1.60612	35.07
1.62278	35.17
1.63945	35.35
1.65612	35.57
1.67278	35.90
1.68945	36.28
1.70612	36.64
1.72278	36.98
1.73945	37.32
1.75612	37.66
1.77278	37.95
1.78945	38.29
1.80612	38.62
1.82278	38.95
1.83945	39.29
1.85612	39.63
1.87278	39.95
1.88945	40.28
1.90612	40.61
1.92278	40.92
1.93945	41.26
1.95612	41.56
1.97278	41.89
1.98945	42.22
2.00612	42.56
2.02278	42.88
2.03945	43.21
2.05612	43.53
2.07278	43.86
2.08945	44.21
2.10612	44.54
2.12278	44.87
2.13945	45.17
2.15612	45.49
2.17278	45.83
2.18945	46.16
2.20612	46.49
2.22278	46.82
2.23945	47.15
2.25612	47.49
2.27278	47.79
2.28945	48.12
2.30612	48.44
2.32278	48.82
2.33945	49.13
2.35612	49.42
2.37278	49.61
2.38945	49.67
2.40612	49.67
2.42278	49.66
2.43945	49.69
2.45612	49.69
2.47278	49.71
2.48945	49.71
2.50612	49.73
2.52278	49.74
2.53945	49.76
2.55612	49.78
2.57278	49.80
2.58945	49.81
2.60612	49.80
2.62278	49.83
2.63945	49.84
2.65612	49.85
2.67278	49.87
2.68945	49.87
2.70612	49.85
2.72278	49.84
2.73945	49.87
2.75612	49.87
2.77278	49.88
2.78945	49.88
2.80612	49.88
2.82278	49.88
2.83945	49.89
2.85612	49.90
2.87278	49.92
2.88945	49.92
2.90612	49.93
2.92278	49.94
2.93945	49.96
2.95612	49.98
2.97278	50.00
2.98945	50.01
3.00612	50.02
3.02278	50.02
3.03945	50.03
3.05612	50.03
3.07278	50.03
3.08945	50.03
3.10612	50.06
3.12278	50.07
3.13945	50.08
3.15612	50.09
3.17278	50.09
3.18945	50.10
3.20612	50.11
3.22278	50.12
3.23945	50.11
3.25612	50.09
3.27278	50.08
3.28945	50.06
3.30612	50.05
3.32278	50.04
3.33945	50.03
3.35612	50.03
3.37278	50.02
3.38945	50.01
3.40612	50.01
3.42278	50.02
3.43945	50.03
3.45612	50.02
3.47278	50.02
3.48945	50.03
3.50612	50.03
3.52278	50.04
3.53945	50.05
3.55612	50.05
3.57278	50.05
3.58945	50.06
3.60612	50.06
3.62278	50.08
3.63945	50.09
3.65612	50.09
3.67278	50.09
3.68945	50.09
3.70612	50.09
3.72278	50.09
3.73945	50.09
3.75612	50.08
3.77278	50.07
3.78945	50.06
3.80612	50.06
3.82278	50.05
3.83945	50.06
3.85612	50.08
3.87278	50.08
3.88945	50.08
3.90612	50.08
3.92278	50.08
3.93945	50.07
3.95612	50.08
3.97278	50.08
3.98945	50.07

[Status Trace (Injection Unit Temperature)]
Interval(msec)	1000
# of Points	240
Start Time(min)	0.006
End Time(min)	3.989
Intensity Units	
Intensity Multiplier	1
R.Time (min)	Intensity
0.00612	99.97
0.02278	99.97
0.03945	99.98
0.05612	99.98
0.07278	99.98
0.08945	99.98
0.10612	99.97
0.12278	99.97
0.13945	99.98
0.15612	99.97
0.17278	99.98
0.18945	99.98
0.20612	99.99
0.22278	99.98
0.23945	99.98
0.25612	99.98
0.27278	99.97
0.28945	99.98
0.30612	99.98
0.32278	99.98
0.33945	99.98
0.35612	99.98
0.37278	99.98
0.38945	99.98
0.40612	99.98
0.42278	99.98
0.43945	99.98
0.45612	99.98
0.47278	99.98
0.48945	99.98
0.50612	99.98
0.52278	99.98
0.53945	99.98
0.55612	99.98
0.57278	99.98
0.58945	99.98
0.60612	99.99
0.62278	99.98
0.63945	99.98
0.65612	99.98
0.67278	99.98
0.68945	99.98
0.70612	99.98
0.72278	99.98
0.73945	99.98
0.75612	99.97
0.77278	99.98
0.78945	99.98
0.80612	99.98
0.82278	99.98
0.83945	99.98
0.85612	99.98
0.87278	99.98
0.88945	99.98
0.90612	99.98
0.92278	99.98
0.93945	99.98
0.95612	99.98
0.97278	99.98
0.98945	99.98
1.00612	99.99
1.02278	99.99
1.03945	99.99
1.05612	99.98
1.07278	99.98
1.08945	99.99
1.10612	99.98
1.12278	99.99
1.13945	99.99
1.15612	99.99
1.17278	99.99
1.18945	99.99
1.20612	99.99
1.22278	99.99
1.23945	99.99
1.25612	99.98
1.27278	99.98
1.28945	99.99
1.30612	99.99
1.32278	99.99
1.33945	99.98
1.35612	99.99
1.37278	99.98
1.38945	99.99
1.40612	99.98
1.42278	99.98
1.43945	99.98
1.45612	99.98
1.47278	99.98
1.48945	99.99
1.50612	99.99
1.52278	99.98
1.53945	99.98
1.55612	99.98
1.57278	99.99
1.58945	99.98
1.60612	99.98
1.62278	99.98
1.63945	99.98
1.65612	99.98
1.67278	99.98
1.68945	99.98
1.70612	99.98
1.72278	99.98
1.73945	99.98
1.75612	99.98
1.77278	99.98
1.78945	99.98
1.80612	99.98
1.82278	99.98
1.83945	99.98
1.85612	99.98
1.87278	99.98
1.88945	99.98
1.90612	99.98
1.92278	99.97
1.93945	99.97
1.95612	99.96
1.97278	99.97
1.98945	99.97
2.00612	99.96
2.02278	99.97
2.03945	99.97
2.05612	99.97
2.07278	99.97
2.08945	99.97
2.10612	99.97
2.12278	99.96
2.13945	99.96
2.15612	99.96
2.17278	99.97
2.18945	99.97
2.20612	99.96
2.22278	99.97
2.23945	99.97
2.25612	99.96
2.27278	99.97
2.28945	99.96
2.30612	99.97
2.32278	99.97
2.33945	99.97
2.35612	99.96
2.37278	99.96
2.38945	99.97
2.40612	99.97
2.42278	99.97
2.43945	99.96
2.45612	99.97
2.47278	99.97
2.48945	99.97
2.50612	99.97
2.52278	99.97
2.53945	99.97
2.55612	99.98
2.57278	99.98
2.58945	99.97
2.60612	99.98
2.62278	99.98
2.63945	99.98
2.65612	99.98
2.67278	99.98
2.68945	99.98
2.70612	99.99
2.72278	99.99
2.73945	99.99
2.75612	99.99
2.77278	99.99
2.78945	99.99
2.80612	99.99
2.82278	100.00
2.83945	100.00
2.85612	100.00
2.87278	100.00
2.88945	100.00
2.90612	100.00
2.92278	100.00
2.93945	100.00
2.95612	100.01
2.97278	100.01
2.98945	100.01
3.00612	100.01
3.02278	100.01
3.03945	100.01
3.05612	100.01
3.07278	100.01
3.08945	100.02
3.10612	100.02
3.12278	100.02
3.13945	100.02
3.15612	100.02
3.17278	100.02
3.18945	100.02
3.20612	100.02
3.22278	100.02
3.23945	100.02
3.25612	100.02
3.27278	100.02
3.28945	100.03
3.30612	100.02
3.32278	100.02
3.33945	100.02
3.35612	100.03
3.37278	100.02
3.38945	100.03
3.40612	100.03
3.42278	100.03
3.43945	100.03
3.45612	100.03
3.47278	100.03
3.48945	100.03
3.50612	100.03
3.52278	100.03
3.53945	100.03
3.55612	100.03
3.57278	100.03
3.58945	100.03
3.60612	100.03
3.62278	100.04
3.63945	100.03
3.65612	100.04
3.67278	100.04
3.68945	100.03
3.70612	100.04
3.72278	100.04
3.73945	100.04
3.75612	100.04
3.77278	100.04
3.78945	100.04
3.80612	100.04
3.82278	100.04
3.83945	100.04
3.85612	100.05
3.87278	100.04
3.88945	100.04
3.90612	100.05
3.92278	100.05
3.93945	100.04
3.95612	100.05
3.97278	100.05
3.98945	100.04

[Status Trace (Carrier Gas Pressure)]
Interval(msec)	1000
# of Points	240
Start Time(min)	0.006
End Time(min)	3.989
Intensity Units	
Intensity Multiplier	1
R.Time (min)	Intensity
0.00612	58.00
0.02278	55.59
0.03945	56.83
0.05612	59.04
0.07278	59.57
0.08945	58.13
0.10612	57.98
0.12278	58.01
0.13945	58.01
0.15612	58.00
0.17278	58.00
0.18945	58.00
0.20612	58.00
0.22278	58.00
0.23945	58.00
0.25612	58.00
0.27278	58.00
0.28945	58.00
0.30612	58.00
0.32278	58.00
0.33945	58.00
0.35612	58.00
0.37278	58.00
0.38945	58.00
0.40612	58.00
0.42278	58.00
0.43945	58.00
0.45612	58.00
0.47278	58.00
0.48945	58.00
0.50612	58.00
0.52278	58.00
0.53945	58.00
0.55612	58.00
0.57278	58.00
0.58945	58.00
0.60612	58.00
0.62278	58.00
0.63945	58.00
0.65612	58.00
0.67278	58.00
0.68945	58.00
0.70612	58.00
0.72278	58.00
0.73945	58.00
0.75612	58.00
0.77278	58.00
0.78945	58.00
0.80612	58.00
0.82278	58.00
0.83945	58.00
0.85612	58.00
0.87278	58.00
0.88945	58.00
0.90612	58.00
0.92278	58.00
0.93945	58.00
0.95612	58.00
0.97278	58.00
0.98945	58.00
1.00612	58.00
1.02278	58.00
1.03945	58.00
1.05612	58.00
1.07278	58.00
1.08945	58.00
1.10612	58.00
1.12278	58.00
1.13945	58.00
1.15612	58.00
1.17278	58.00
1.18945	58.00
1.20612	58.00
1.22278	58.00
1.23945	58.00
1.25612	58.00
1.27278	58.00
1.28945	58.00
1.30612	58.00
1.32278	58.00
1.33945	58.00
1.35612	58.00
1.37278	58.00
1.38945	58.00
1.40612	58.00
1.42278	58.00
1.43945	58.00
1.45612	58.00
1.47278	58.00
1.48945	58.00
1.50612	58.00
1.52278	58.00
1.53945	58.00
1.55612	58.00
1.57278	58.00
1.58945	58.00
1.60612	58.00
1.62278	58.00
1.63945	58.00
1.65612	58.00
1.67278	58.01
1.68945	58.01
1.70612	58.00
1.72278	58.00
1.73945	58.00
1.75612	58.00
1.77278	58.00
1.78945	58.00
1.80612	58.00
1.82278	58.00
1.83945	58.00
1.85612	58.00
1.87278	58.00
1.88945	58.00
1.90612	58.00
1.92278	58.00
1.93945	58.00
1.95612	58.00
1.97278	58.00
1.98945	58.00
2.00612	58.00
2.02278	58.00
2.03945	58.00
2.05612	58.00
2.07278	58.00
2.08945	58.00
2.10612	58.00
2.12278	58.00
2.13945	58.00
2.15612	58.00
2.17278	58.00
2.18945	58.00
2.20612	58.00
2.22278	58.00
2.23945	58.00
2.25612	58.00
2.27278	58.00
2.28945	58.00
2.30612	58.00
2.32278	58.00
2.33945	58.00
2.35612	58.00
2.37278	58.00
2.38945	57.99
2.40612	57.99
2.42278	58.00
2.43945	58.00
2.45612	58.00
2.47278	58.00
2.48945	58.00
2.50612	58.00
2.52278	57.98
2.53945	58.00
2.55612	58.00
2.57278	58.00
2.58945	58.00
2.60612	58.00
2.62278	58.00
2.63945	58.00
2.65612	58.00
2.67278	58.00
2.68945	58.00
2.70612	58.00
2.72278	58.00
2.73945	58.00
2.75612	58.00
2.77278	58.00
2.78945	58.00
2.80612	58.00
2.82278	58.00
2.83945	58.00
2.85612	58.00
2.87278	58.00
2.88945	58.00
2.90612	58.00
2.92278	58.00
2.93945	58.00
2.95612	58.00
2.97278	58.00
2.98945	58.00
3.00612	58.00
3.02278	58.00
3.03945	58.00
3.05612	58.00
3.07278	58.00
3.08945	58.00
3.10612	58.00
3.12278	58.00
3.13945	58.00
3.15612	58.00
3.17278	58.00
3.18945	58.00
3.20612	58.00
3.22278	58.00
3.23945	58.00
3.25612	58.00
3.27278	58.00
3.28945	58.00
3.30612	58.00
3.32278	58.00
3.33945	58.00
3.35612	58.00
3.37278	58.00
3.38945	58.00
3.40612	58.00
3.42278	58.00
3.43945	58.00
3.45612	58.00
3.47278	58.00
3.48945	58.00
3.50612	58.00
3.52278	58.00
3.53945	58.00
3.55612	58.00
3.57278	58.00
3.58945	58.00
3.60612	58.00
3.62278	58.00
3.63945	58.00
3.65612	58.00
3.67278	58.00
3.68945	58.00
3.70612	58.00
3.72278	58.00
3.73945	58.00
3.75612	58.00
3.77278	58.00
3.78945	58.00
3.80612	58.00
3.82278	58.00
3.83945	58.00
3.85612	58.00
3.87278	58.00
3.88945	58.00
3.90612	58.00
3.92278	58.00
3.93945	58.00
3.95612	58.00
3.97278	58.00
3.98945	58.00

[Status Trace (Carrier Gas Flow)]
Interval(msec)	1000
# of Points	240
Start Time(min)	0.006
End Time(min)	3.989
Intensity Units	
Intensity Multiplier	1
R.Time (min)	Intensity
0.00612	34.52
0.02278	34.54
0.03945	34.54
0.05612	34.55
0.07278	34.50
0.08945	34.52
0.10612	34.52
0.12278	34.52
0.13945	34.52
0.15612	34.52
0.17278	34.52
0.18945	34.51
0.20612	34.51
0.22278	34.52
0.23945	34.52
0.25612	34.52
0.27278	34.52
0.28945	34.53
0.30612	34.53
0.32278	34.52
0.33945	34.51
0.35612	34.52
0.37278	34.51
0.38945	34.52
0.40612	34.52
0.42278	34.51
0.43945	34.52
0.45612	34.52
0.47278	34.52
0.48945	34.51
0.50612	34.52
0.52278	34.52
0.53945	34.52
0.55612	34.52
0.57278	34.52
0.58945	34.52
0.60612	34.52
0.62278	34.52
0.63945	34.52
0.65612	34.51
0.67278	34.52
0.68945	34.52
0.70612	34.51
0.72278	34.51
0.73945	34.51
0.75612	34.53
0.77278	34.51
0.78945	34.52
0.80612	34.52
0.82278	34.53
0.83945	34.52
0.85612	34.51
0.87278	34.52
0.88945	34.52
0.90612	34.52
0.92278	34.53
0.93945	34.51
0.95612	34.53
0.97278	34.51
0.98945	34.51
1.00612	34.52
1.02278	34.52
1.03945	34.52
1.05612	34.52
1.07278	34.51
1.08945	34.52
1.10612	34.52
1.12278	34.52
1.13945	34.52
1.15612	34.52
1.17278	34.51
1.18945	34.52
1.20612	34.51
1.22278	34.52
1.23945	34.52
1.25612	34.52
1.27278	34.52
1.28945	34.52
1.30612	34.52
1.32278	34.52
1.33945	34.52
1.35612	34.51
1.37278	34.51
1.38945	34.52
1.40612	34.52
1.42278	34.52
1.43945	34.51
1.45612	34.52
1.47278	34.52
1.48945	34.52
1.50612	34.52
1.52278	34.52
1.53945	34.52
1.55612	34.52
1.57278	34.52
1.58945	34.52
1.60612	34.52
1.62278	34.52
1.63945	34.52
1.65612	34.52
1.67278	34.52
1.68945	34.52
1.70612	34.52
1.72278	34.52
1.73945	34.52
1.75612	34.52
1.77278	34.52
1.78945	34.52
1.80612	34.52
1.82278	34.52
1.83945	34.53
1.85612	34.52
1.87278	34.52
1.88945	34.52
1.90612	34.52
1.92278	34.52
1.93945	34.51
1.95612	34.52
1.97278	34.52
1.98945	34.52
2.00612	34.52
2.02278	34.52
2.03945	34.52
2.05612	34.52
2.07278	34.52
2.08945	34.52
2.10612	34.52
2.12278	34.52
2.13945	34.51
2.15612	34.52
2.17278	34.52
2.18945	34.52
2.20612	34.52
2.22278	34.52
2.23945	34.52
2.25612	34.52
2.27278	34.52
2.28945	34.52
2.30612	34.52
2.32278	34.52
2.33945	34.52
2.35612	34.51
2.37278	34.51
2.38945	34.52
2.40612	34.53
2.42278	34.52
2.43945	34.52
2.45612	34.52
2.47278	34.52
2.48945	34.52
2.50612	34.46
2.52278	34.52
2.53945	34.52
2.55612	34.52
2.57278	34.52
2.58945	34.52
2.60612	34.52
2.62278	34.52
2.63945	34.52
2.65612	34.52
2.67278	34.52
2.68945	34.52
2.70612	34.52
2.72278	34.52
2.73945	34.52
2.75612	34.51
2.77278	34.52
2.78945	34.52
2.80612	34.52
2.82278	34.53
2.83945	34.52
2.85612	34.52
2.87278	34.52
2.88945	34.52
2.90612	34.52
2.92278	34.52
2.93945	34.52
2.95612	34.53
2.97278	34.51
2.98945	34.52
3.00612	34.52
3.02278	34.51
3.03945	34.52
3.05612	34.52
3.07278	34.52
3.08945	34.52
3.10612	34.52
3.12278	34.52
3.13945	34.51
3.15612	34.51
3.17278	34.51
3.18945	34.52
3.20612	34.51
3.22278	34.52
3.23945	34.52
3.25612	34.52
3.27278	34.52
3.28945	34.52
3.30612	34.52
3.32278	34.52
3.33945	34.52
3.35612	34.52
3.37278	34.52
3.38945	34.52
3.40612	34.52
3.42278	34.52
3.43945	34.52
3.45612	34.52
3.47278	34.52
3.48945	34.52
3.50612	34.52
3.52278	34.52
3.53945	34.52
3.55612	34.52
3.57278	34.53
3.58945	34.52
3.60612	34.52
3.62278	34.52
3.63945	34.52
3.65612	34.52
3.67278	34.52
3.68945	34.52
3.70612	34.52
3.72278	34.52
3.73945	34.51
3.75612	34.52
3.77278	34.52
3.78945	34.52
3.80612	34.52
3.82278	34.52
3.83945	34.52
3.85612	34.52
3.87278	34.52
3.88945	34.51
3.90612	34.51
3.92278	34.52
3.93945	34.52
3.95612	34.52
3.97278	34.52
3.98945	34.52

[Status Trace (Column Flow)]
Interval(msec)	1000
# of Points	240
Start Time(min)	0.006
End Time(min)	3.989
Intensity Units	
Intensity Multiplier	1
R.Time (min)	Intensity
0.00612	5.57
0.02278	5.29
0.03945	5.43
0.05612	5.69
0.07278	5.76
0.08945	5.59
0.10612	5.57
0.12278	5.57
0.13945	5.57
0.15612	5.57
0.17278	5.57
0.18945	5.57
0.20612	5.57
0.22278	5.57
0.23945	5.57
0.25612	5.57
0.27278	5.57
0.28945	5.57
0.30612	5.57
0.32278	5.57
0.33945	5.57
0.35612	5.57
0.37278	5.57
0.38945	5.57
0.40612	5.57
0.42278	5.57
0.43945	5.57
0.45612	5.57
0.47278	5.57
0.48945	5.57
0.50612	5.57
0.52278	5.57
0.53945	5.57
0.55612	5.57
0.57278	5.57
0.58945	5.57
0.60612	5.57
0.62278	5.57
0.63945	5.57
0.65612	5.57
0.67278	5.57
0.68945	5.57
0.70612	5.57
0.72278	5.57
0.73945	5.57
0.75612	5.57
0.77278	5.57
0.78945	5.57
0.80612	5.57
0.82278	5.57
0.83945	5.57
0.85612	5.57
0.87278	5.57
0.88945	5.57
0.90612	5.57
0.92278	5.57
0.93945	5.58
0.95612	5.58
0.97278	5.58
0.98945	5.57
1.00612	5.57
1.02278	5.57
1.03945	5.57
1.05612	5.57
1.07278	5.57
1.08945	5.57
1.10612	5.57
1.12278	5.57
1.13945	5.57
1.15612	5.57
1.17278	5.57
1.18945	5.57
1.20612	5.57
1.22278	5.57
1.23945	5.57
1.25612	5.57
1.27278	5.57
1.28945	5.57
1.30612	5.58
1.32278	5.58
1.33945	5.58
1.35612	5.57
1.37278	5.57
1.38945	5.57
1.40612	5.57
1.42278	5.57
1.43945	5.57
1.45612	5.57
1.47278	5.57
1.48945	5.57
1.50612	5.58
1.52278	5.58
1.53945	5.58
1.55612	5.57
1.57278	5.57
1.58945	5.57
1.60612	5.57
1.62278	5.57
1.63945	5.56
1.65612	5.56
1.67278	5.55
1.68945	5.54
1.70612	5.52
1.72278	5.51
1.73945	5.50
1.75612	5.49
1.77278	5.48
1.78945	5.47
1.80612	5.46
1.82278	5.45
1.83945	5.44
1.85612	5.43
1.87278	5.42
1.88945	5.41
1.90612	5.40
1.92278	5.39
1.93945	5.38
1.95612	5.37
1.97278	5.36
1.98945	5.35
2.00612	5.34
2.02278	5.33
2.03945	5.32
2.05612	5.31
2.07278	5.30
2.08945	5.29
2.10612	5.28
2.12278	5.27
2.13945	5.26
2.15612	5.25
2.17278	5.25
2.18945	5.24
2.20612	5.23
2.22278	5.22
2.23945	5.21
2.25612	5.20
2.27278	5.19
2.28945	5.18
2.30612	5.17
2.32278	5.16
2.33945	5.15
2.35612	5.14
2.37278	5.14
2.38945	5.13
2.40612	5.13
2.42278	5.14
2.43945	5.14
2.45612	5.14
2.47278	5.13
2.48945	5.13
2.50612	5.13
2.52278	5.13
2.53945	5.13
2.55612	5.13
2.57278	5.13
2.58945	5.13
2.60612	5.13
2.62278	5.13
2.63945	5.13
2.65612	5.13
2.67278	5.13
2.68945	5.13
2.70612	5.13
2.72278	5.13
2.73945	5.13
2.75612	5.13
2.77278	5.13
2.78945	5.13
2.80612	5.13
2.82278	5.13
2.83945	5.13
2.85612	5.13
2.87278	5.13
2.88945	5.13
2.90612	5.13
2.92278	5.13
2.93945	5.13
2.95612	5.13
2.97278	5.13
2.98945	5.13
3.00612	5.13
3.02278	5.13
3.03945	5.13
3.05612	5.13
3.07278	5.13
3.08945	5.13
3.10612	5.12
3.12278	5.12
3.13945	5.12
3.15612	5.12
3.17278	5.12
3.18945	5.12
3.20612	5.12
3.22278	5.12
3.23945	5.12
3.25612	5.12
3.27278	5.12
3.28945	5.12
3.30612	5.13
3.32278	5.13
3.33945	5.13
3.35612	5.13
3.37278	5.13
3.38945	5.13
3.40612	5.13
3.42278	5.13
3.43945	5.13
3.45612	5.13
3.47278	5.13
3.48945	5.13
3.50612	5.13
3.52278	5.13
3.53945	5.12
3.55612	5.12
3.57278	5.12
3.58945	5.12
3.60612	5.12
3.62278	5.12
3.63945	5.12
3.65612	5.12
3.67278	5.12
3.68945	5.12
3.70612	5.12
3.72278	5.12
3.73945	5.12
3.75612	5.12
3.77278	5.12
3.78945	5.12
3.80612	5.12
3.82278	5.12
3.83945	5.12
3.85612	5.12
3.87278	5.12
3.88945	5.12
3.90612	5.12
3.92278	5.12
3.93945	5.12
3.95612	5.12
3.97278	5.12
3.98945	5.12

[Status Trace (Linear Velocity)]
Interval(msec)	1000
# of Points	240
Start Time(min)	0.006
End Time(min)	3.989
Intensity Units	
Intensity Multiplier	1
R.Time (min)	Intensity
0.00612	39.02
0.02278	37.44
0.03945	38.25
0.05612	39.70
0.07278	40.05
0.08945	39.10
0.10612	39.01
0.12278	39.03
0.13945	39.03
0.15612	39.03
0.17278	39.03
0.18945	39.03
0.20612	39.03
0.22278	39.03
0.23945	39.03
0.25612	39.03
0.27278	39.03
0.28945	39.03
0.30612	39.03
0.32278	39.03
0.33945	39.03
0.35612	39.03
0.37278	39.03
0.38945	39.03
0.40612	39.03
0.42278	39.03
0.43945	39.03
0.45612	39.03
0.47278	39.03
0.48945	39.03
0.50612	39.03
0.52278	39.03
0.53945	39.03
0.55612	39.03
0.57278	39.03
0.58945	39.03
0.60612	39.03
0.62278	39.03
0.63945	39.03
0.65612	39.03
0.67278	39.03
0.68945	39.03
0.70612	39.03
0.72278	39.03
0.73945	39.03
0.75612	39.02
0.77278	39.03
0.78945	39.02
0.80612	39.03
0.82278	39.03
0.83945	39.03
0.85612	39.03
0.87278	39.03
0.88945	39.03
0.90612	39.03
0.92278	39.03
0.93945	39.03
0.95612	39.03
0.97278	39.03
0.98945	39.03
1.00612	39.03
1.02278	39.03
1.03945	39.03
1.05612	39.03
1.07278	39.03
1.08945	39.03
1.10612	39.03
1.12278	39.03
1.13945	39.03
1.15612	39.03
1.17278	39.03
1.18945	39.03
1.20612	39.03
1.22278	39.03
1.23945	39.03
1.25612	39.03
1.27278	39.03
1.28945	39.03
1.30612	39.03
1.32278	39.03
1.33945	39.03
1.35612	39.03
1.37278	39.03
1.38945	39.03
1.40612	39.03
1.42278	39.03
1.43945	39.03
1.45612	39.03
1.47278	39.03
1.48945	39.03
1.50612	39.03
1.52278	39.03
1.53945	39.03
1.55612	39.03
1.57278	39.03
1.58945	39.03
1.60612	39.02
1.62278	39.01
1.63945	39.00
1.65612	38.98
1.67278	38.95
1.68945	38.91
1.70612	38.87
1.72278	38.84
1.73945	38.81
1.75612	38.78
1.77278	38.75
1.78945	38.72
1.80612	38.68
1.82278	38.65
1.83945	38.62
1.85612	38.59
1.87278	38.56
1.88945	38.53
1.90612	38.50
1.92278	38.47
1.93945	38.44
1.95612	38.41
1.97278	38.38
1.98945	38.35
2.00612	38.32
2.02278	38.29
2.03945	38.26
2.05612	38.23
2.07278	38.20
2.08945	38.17
2.10612	38.13
2.12278	38.10
2.13945	38.08
2.15612	38.05
2.17278	38.02
2.18945	37.99
2.20612	37.96
2.22278	37.93
2.23945	37.90
2.25612	37.87
2.27278	37.84
2.28945	37.81
2.30612	37.78
2.32278	37.75
2.33945	37.72
2.35612	37.69
2.37278	37.68
2.38945	37.67
2.40612	37.67
2.42278	37.67
2.43945	37.67
2.45612	37.67
2.47278	37.67
2.48945	37.67
2.50612	37.66
2.52278	37.66
2.53945	37.66
2.55612	37.66
2.57278	37.66
2.58945	37.66
2.60612	37.66
2.62278	37.66
2.63945	37.66
2.65612	37.66
2.67278	37.66
2.68945	37.65
2.70612	37.66
2.72278	37.66
2.73945	37.66
2.75612	37.66
2.77278	37.65
2.78945	37.65
2.80612	37.65
2.82278	37.65
2.83945	37.65
2.85612	37.65
2.87278	37.65
2.88945	37.65
2.90612	37.65
2.92278	37.65
2.93945	37.65
2.95612	37.65
2.97278	37.64
2.98945	37.64
3.00612	37.64
3.02278	37.64
3.03945	37.64
3.05612	37.64
3.07278	37.64
3.08945	37.64
3.10612	37.64
3.12278	37.64
3.13945	37.64
3.15612	37.64
3.17278	37.64
3.18945	37.64
3.20612	37.63
3.22278	37.63
3.23945	37.63
3.25612	37.64
3.27278	37.64
3.28945	37.64
3.30612	37.64
3.32278	37.64
3.33945	37.64
3.35612	37.64
3.37278	37.64
3.38945	37.64
3.40612	37.64
3.42278	37.64
3.43945	37.64
3.45612	37.64
3.47278	37.64
3.48945	37.64
3.50612	37.64
3.52278	37.64
3.53945	37.64
3.55612	37.64
3.57278	37.64
3.58945	37.64
3.60612	37.64
3.62278	37.64
3.63945	37.64
3.65612	37.64
3.67278	37.64
3.68945	37.64
3.70612	37.64
3.72278	37.64
3.73945	37.64
3.75612	37.64
3.77278	37.64
3.78945	37.64
3.80612	37.64
3.82278	37.64
3.83945	37.64
3.85612	37.64
3.87278	37.64
3.88945	37.64
3.90612	37.64
3.92278	37.64
3.93945	37.64
3.95612	37.64
3.97278	37.64
3.98945	37.64

