[Header]
Application Name	LabSolutions
Version	5.110
Data File Name	C:\Users\User\Desktop\GC Analyses\Jack\Nachusa Grasslands Sampling\T1 Timepoint July 12th\T1_07122022_055.gcd
Output Date	3/14/2023
Output Time	3:41:00 PM

[File Information]
Type	Data File
Generated	3/8/2023 7:20:26 PM
Generated by	System Administrator
Modified	3/8/2023 7:27:00 PM
Modified by	System Administrator

[Sample Information]
Operator Name	System Administrator
Acquired	3/8/2023 7:22:59 PM
Sample Type	0:Unknown
Level	0
Sample Name	055
Sample ID	055
ISTD Amount1	1
ISTD Amount2	1
ISTD Amount3	1
ISTD Amount4	1
ISTD Amount5	1
ISTD Amount6	1
ISTD Amount7	1
ISTD Amount8	1
ISTD Amount9	1
ISTD Amount10	1
ISTD Amount11	1
ISTD Amount12	1
ISTD Amount13	1
ISTD Amount14	1
ISTD Amount15	1
ISTD Amount16	1
ISTD Amount17	1
ISTD Amount18	1
ISTD Amount19	1
ISTD Amount20	1
ISTD Amount21	1
ISTD Amount22	1
ISTD Amount23	1
ISTD Amount24	1
ISTD Amount25	1
ISTD Amount26	1
ISTD Amount27	1
ISTD Amount28	1
ISTD Amount29	1
ISTD Amount30	1
ISTD Amount31	1
ISTD Amount32	1
Sample Amount	1
Dilution Factor	1
Vial#	54
Injection Volume	1
Injection Count	1
Bar Code	

[Original Files]
Data File	C:\Users\User\Desktop\GC Analyses\Jack\Nachusa Grasslands Sampling\T1 Timepoint July 12th\T1_07122022_055.gcd
Method File	C:\LabSolutions\Data\GHG_4min_2022\ghg3_togas_w_acet_4 min_new_int.gcm
Batch File	C:\LabSolutions\Data\AutoSamplerTesting\T1_07122022.gcb
Report Format File	c:\LabSolutions\System\DEFAULT.lsr

[File Description]


[Configuration]
Instrument Name	C0B7VH3-Instrument1
Instrument #	1
Line #	1
# of Detectors	3
Detector ID	DET#1	DET#2	DET#3
Detector Name	FID	PTCD	ECD
# of Channels	1	1	1

[Peak Table(Ch1)]
# of Peaks	3
Peak#	R.Time	I.Time	F.Time	Area	Height	A/H	Conc.	Mark	ID#	Name	k'	Plate #	Plate Ht.	Tailing	Resolution	Sep.Factor	Area Ratio	Height Ratio	Conc. %	Norm Conc.
1	1.476	1.439	1.538	25794	12075	2.136	182.108	   	1	CO	0.000	9069	16.540	1.353	0.000	0.000	0	0	22.278	22.278
2	1.571	1.538	1.622	4779	2314	2.065	92.398	 V 	2	CH4	0.065	10578	14.181	0.000	1.549	0.000	0	0	11.303	11.303
3	1.996	1.952	2.524	2163350	1020310	2.120	542.942	   	3	CO2	0.353	17316	8.663	1.332	6.985	5.462	0	0	66.419	66.419

[Peak Table(Ch2)]
# of Peaks	0

[Peak Table(Ch3)]
# of Peaks	5
Peak#	R.Time	I.Time	F.Time	Area	Height	A/H	Conc.	Mark	ID#	Name	k'	Plate #	Plate Ht.	Tailing	Resolution	Sep.Factor	Area Ratio	Height Ratio	Conc. %	Norm Conc.
1	2.462	2.110	2.513	2623	514	5.103	0.000	   			0.000	7410	20.242	0.000	0.000	0.000	0	0	0.000	0.000
2	2.539	2.513	2.631	1326	302	4.392	0.000	 V 			0.031	3191	47.014	0.000	0.523	0.000	0	0	0.000	0.000
3	2.675	2.645	2.803	219	56	3.907	0.000	   			0.086	15719	9.543	2.780	1.023	2.762	0	0	0.000	0.000
4	2.873	2.810	3.041	17928	4802	3.734	0.458	   	1	N2O	0.167	13476	11.131	1.670	2.148	1.931	0	0	100.000	100.000
5	3.397	3.265	3.965	10122	452	22.369	0.000	   	2	SF6	0.380	611	245.563	2.594	1.616	2.277	0	0	0.000	0.000

[Compound Results(Ch1)]
# of IDs	6
ID#	Name	R.Time	Area	Height	Conc.	Curve	3rd	2nd	1st	Constant	Area Ratio	Height Ratio	Conc. %	Norm Conc.
1	CO	1.476	25794	12075	182.108	Linear	0.000000e+00	0.000000e+00	1.416423e+002	0.000000e+00	0	0	22.278	22.278
2	CH4	1.571	4779	2314	92.398	Linear	0.000000e+00	0.000000e+00	5.171738e+001	0.000000e+00	0	0	11.303	11.303
3	CO2	1.996	2163350	1020310	542.942	Linear	0.000000e+00	0.000000e+00	3.984494e+003	0.000000e+00	0	0	66.419	66.419
4	Ethylene	0.000	0	0	0.000	Linear	0.000000e+00	0.000000e+00	0.000000e+00	0.000000e+00	0	0	0.000	0.000
5	Acetylene	0.000	0	0	0.000	Linear	0.000000e+00	0.000000e+00	0.000000e+00	0.000000e+00	0	0	0.000	0.000
6	Ethane	0.000	0	0	0.000	Linear	0.000000e+00	0.000000e+00	0.000000e+00	0.000000e+00	0	0	0.000	0.000

[Compound Results(Ch2)]
# of IDs	5
ID#	Name	R.Time	Area	Height	Conc.	Curve	3rd	2nd	1st	Constant	Area Ratio	Height Ratio	Conc. %	Norm Conc.
1	Hydrogen	0.000	0	0	0.000	Linear	0.000000e+00	0.000000e+00	0.000000e+00	0.000000e+00	0	0	0.000	0.000
2	Oxygen	0.000	0	0	0.000	Linear	0.000000e+00	0.000000e+00	0.000000e+00	0.000000e+00	0	0	0.000	0.000
3	Nitrogen	0.000	0	0	0.000	Linear	0.000000e+00	0.000000e+00	0.000000e+00	0.000000e+00	0	0	0.000	0.000
4	Methane	0.000	0	0	0.000	Linear	0.000000e+00	0.000000e+00	0.000000e+00	0.000000e+00	0	0	0.000	0.000
5	Carbon Monoxide	0.000	0	0	0.000	Linear	0.000000e+00	0.000000e+00	0.000000e+00	0.000000e+00	0	0	0.000	0.000

[Compound Results(Ch3)]
# of IDs	2
ID#	Name	R.Time	Area	Height	Conc.	Curve	3rd	2nd	1st	Constant	Area Ratio	Height Ratio	Conc. %	Norm Conc.
1	N2O	2.873	17928	4802	0.458	Linear	0.000000e+00	0.000000e+00	3.915173e+004	0.000000e+00	0	0	100.000	100.000
2	SF6	3.397	10122	452	0.000	Linear	0.000000e+00	0.000000e+00	0.000000e+00	0.000000e+00	0	0	0.000	0.000

[Group Results(Ch1)]
# of Groups	0

[Group Results(Ch2)]
# of Groups	0

[Group Results(Ch3)]
# of Groups	0

[Chromatogram (Ch1)]
Interval(msec)	220
# of Points	1091
Start Time(min)	0.002
End Time(min)	3.998
R.Time (min)	Intensity
0.00167	3
0.00533	6
0.00900	11
0.01267	12
0.01633	9
0.02000	9
0.02367	12
0.02733	14
0.03100	14
0.03467	11
0.03833	9
0.04200	7
0.04567	10
0.04933	10
0.05300	5
0.05667	-0
0.06033	-8
0.06400	-14
0.06767	-17
0.07133	-17
0.07500	-17
0.07867	-14
0.08233	-10
0.08600	-8
0.08967	-5
0.09333	4
0.09700	18
0.10067	30
0.10433	36
0.10800	37
0.11167	34
0.11533	26
0.11900	22
0.12267	22
0.12633	28
0.13000	36
0.13367	39
0.13733	36
0.14100	27
0.14467	17
0.14833	6
0.15200	-3
0.15567	-8
0.15933	-8
0.16300	-2
0.16667	2
0.17033	0
0.17400	-2
0.17767	-2
0.18133	1
0.18500	3
0.18867	1
0.19233	-4
0.19600	-8
0.19967	-12
0.20333	-15
0.20700	-16
0.21067	-10
0.21433	2
0.21800	16
0.22167	22
0.22533	23
0.22900	24
0.23267	23
0.23633	19
0.24000	19
0.24367	23
0.24733	29
0.25100	35
0.25467	38
0.25833	38
0.26200	35
0.26567	28
0.26933	22
0.27300	19
0.27667	23
0.28033	31
0.28400	36
0.28767	37
0.29133	37
0.29500	35
0.29867	30
0.30233	20
0.30600	10
0.30967	6
0.31333	7
0.31700	10
0.32067	13
0.32433	20
0.32800	30
0.33167	40
0.33533	48
0.33900	53
0.34267	56
0.34633	60
0.35000	63
0.35367	65
0.35733	65
0.36100	67
0.36467	70
0.36833	73
0.37200	77
0.37567	81
0.37933	81
0.38300	79
0.38667	79
0.39033	82
0.39400	82
0.39767	81
0.40133	83
0.40500	88
0.40867	94
0.41233	98
0.41600	99
0.41967	96
0.42333	87
0.42700	73
0.43067	60
0.43433	52
0.43800	50
0.44167	51
0.44533	48
0.44900	45
0.45267	45
0.45633	47
0.46000	50
0.46367	46
0.46733	40
0.47100	37
0.47467	35
0.47833	32
0.48200	28
0.48567	22
0.48933	19
0.49300	17
0.49667	13
0.50033	6
0.50400	2
0.50767	4
0.51133	10
0.51500	14
0.51867	16
0.52233	15
0.52600	16
0.52967	22
0.53333	29
0.53700	33
0.54067	34
0.54433	31
0.54800	25
0.55167	18
0.55533	12
0.55900	7
0.56267	7
0.56633	7
0.57000	5
0.57367	1
0.57733	-4
0.58100	-6
0.58467	-5
0.58833	-5
0.59200	-6
0.59567	-6
0.59933	-4
0.60300	2
0.60667	8
0.61033	12
0.61400	12
0.61767	13
0.62133	13
0.62500	13
0.62867	11
0.63233	8
0.63600	7
0.63967	10
0.64333	14
0.64700	13
0.65067	11
0.65433	7
0.65800	2
0.66167	-2
0.66533	-10
0.66900	-16
0.67267	-20
0.67633	-27
0.68000	-30
0.68367	-27
0.68733	-22
0.69100	-15
0.69467	-10
0.69833	-8
0.70200	-9
0.70567	-11
0.70933	-8
0.71300	0
0.71667	10
0.72033	17
0.72400	16
0.72767	13
0.73133	7
0.73500	-0
0.73867	-8
0.74233	-16
0.74600	-21
0.74967	-24
0.75333	-24
0.75700	-24
0.76067	-22
0.76433	-19
0.76800	-21
0.77167	-27
0.77533	-29
0.77900	-22
0.78267	-10
0.78633	2
0.79000	8
0.79367	7
0.79733	2
0.80100	-4
0.80467	-13
0.80833	-21
0.81200	-24
0.81567	-28
0.81933	-34
0.82300	-40
0.82667	-42
0.83033	-39
0.83400	-31
0.83767	-22
0.84133	-11
0.84500	1
0.84867	8
0.85233	6
0.85600	-1
0.85967	-7
0.86333	-11
0.86700	-15
0.87067	-18
0.87433	-21
0.87800	-23
0.88167	-22
0.88533	-17
0.88900	-15
0.89267	-14
0.89633	-11
0.90000	-7
0.90367	-5
0.90733	-7
0.91100	-9
0.91467	-15
0.91833	-19
0.92200	-18
0.92567	-16
0.92933	-15
0.93300	-16
0.93667	-16
0.94033	-19
0.94400	-27
0.94767	-35
0.95133	-39
0.95500	-39
0.95867	-37
0.96233	-37
0.96600	-32
0.96967	-27
0.97333	-23
0.97700	-19
0.98067	-15
0.98433	-11
0.98800	-7
0.99167	-6
0.99533	-10
0.99900	-17
1.00267	-22
1.00633	-25
1.01000	-28
1.01367	-33
1.01733	-40
1.02100	-45
1.02467	-44
1.02833	-39
1.03200	-33
1.03567	-26
1.03933	-16
1.04300	-5
1.04667	-0
1.05033	-1
1.05400	-5
1.05767	-13
1.06133	-22
1.06500	-28
1.06867	-30
1.07233	-32
1.07600	-34
1.07967	-34
1.08333	-31
1.08700	-30
1.09067	-32
1.09433	-36
1.09800	-38
1.10167	-36
1.10533	-29
1.10900	-23
1.11267	-20
1.11633	-17
1.12000	-20
1.12367	-25
1.12733	-23
1.13100	-22
1.13467	-27
1.13833	-36
1.14200	-43
1.14567	-46
1.14933	-44
1.15300	-38
1.15667	-35
1.16033	-32
1.16400	-33
1.16767	-37
1.17133	-42
1.17500	-45
1.17867	-43
1.18233	-36
1.18600	-32
1.18967	-33
1.19333	-38
1.19700	-44
1.20067	-43
1.20433	-46
1.20800	-51
1.21167	-53
1.21533	-50
1.21900	-45
1.22267	-41
1.22633	-41
1.23000	-41
1.23367	-38
1.23733	-36
1.24100	-38
1.24467	-41
1.24833	-43
1.25200	-41
1.25567	-36
1.25933	-28
1.26300	-22
1.26667	-19
1.27033	-22
1.27400	-31
1.27767	-40
1.28133	-47
1.28500	-47
1.28867	-42
1.29233	-37
1.29600	-36
1.29967	-37
1.30333	-37
1.30700	-38
1.31067	-40
1.31433	-42
1.31800	-44
1.32167	-45
1.32533	-44
1.32900	-43
1.33267	-41
1.33633	-41
1.34000	-42
1.34367	-44
1.34733	-42
1.35100	-37
1.35467	-31
1.35833	-27
1.36200	-25
1.36567	-27
1.36933	-34
1.37300	-40
1.37667	-45
1.38033	-47
1.38400	-47
1.38767	-45
1.39133	-42
1.39500	-41
1.39867	-39
1.40233	-38
1.40600	-44
1.40967	-48
1.41333	-49
1.41700	-48
1.42067	-45
1.42433	-42
1.42800	-44
1.43167	-48
1.43533	-49
1.43900	-33
1.44267	39
1.44633	239
1.45000	704
1.45367	1769
1.45733	3602
1.46100	5892
1.46467	8143
1.46833	10017
1.47200	11357
1.47567	12050
1.47933	11989
1.48300	11141
1.48667	9657
1.49033	7853
1.49400	6063
1.49767	4509
1.50133	3277
1.50500	2355
1.50867	1688
1.51233	1215
1.51600	883
1.51967	653
1.52333	497
1.52700	387
1.53067	309
1.53433	253
1.53800	222
1.54167	247
1.54533	388
1.54900	680
1.55267	1082
1.55633	1509
1.56000	1879
1.56367	2153
1.56733	2304
1.57100	2308
1.57467	2151
1.57833	1855
1.58200	1489
1.58567	1124
1.58933	805
1.59300	551
1.59667	367
1.60033	241
1.60400	156
1.60767	100
1.61133	65
1.61500	41
1.61867	21
1.62233	5
1.62600	-2
1.62967	-3
1.63333	-3
1.63700	-5
1.64067	-5
1.64433	-6
1.64800	-7
1.65167	-6
1.65533	-4
1.65900	-4
1.66267	-7
1.66633	-9
1.67000	-8
1.67367	-6
1.67733	-10
1.68100	-18
1.68467	-25
1.68833	-26
1.69200	-22
1.69567	-19
1.69933	-21
1.70300	-23
1.70667	-19
1.71033	-11
1.71400	-9
1.71767	-16
1.72133	-28
1.72500	-39
1.72867	-46
1.73233	-48
1.73600	-46
1.73967	-39
1.74333	-33
1.74700	-33
1.75067	-39
1.75433	-43
1.75800	-46
1.76167	-47
1.76533	-46
1.76900	-41
1.77267	-35
1.77633	-31
1.78000	-25
1.78367	-14
1.78733	-8
1.79100	-11
1.79467	-20
1.79833	-31
1.80200	-36
1.80567	-34
1.80933	-33
1.81300	-34
1.81667	-38
1.82033	-40
1.82400	-37
1.82767	-31
1.83133	-28
1.83500	-30
1.83867	-32
1.84233	-30
1.84600	-28
1.84967	-29
1.85333	-31
1.85700	-31
1.86067	-31
1.86433	-28
1.86800	-26
1.87167	-26
1.87533	-27
1.87900	-27
1.88267	-27
1.88633	-26
1.89000	-22
1.89367	-20
1.89733	-23
1.90100	-28
1.90467	-31
1.90833	-31
1.91200	-25
1.91567	-14
1.91933	-6
1.92300	-4
1.92667	-8
1.93033	-14
1.93400	-22
1.93767	-28
1.94133	-34
1.94500	-37
1.94867	-36
1.95233	-21
1.95600	107
1.95967	894
1.96333	4635
1.96700	18144
1.97067	55647
1.97433	136105
1.97800	270874
1.98167	450699
1.98533	646772
1.98900	824462
1.99267	955103
1.99633	1020327
2.00000	1013110
2.00367	938702
2.00733	814440
2.01100	665228
2.01467	515571
2.01833	382981
2.02200	275748
2.02567	194626
2.02933	136102
2.03300	95224
2.03667	67250
2.04033	48311
2.04400	35531
2.04767	26879
2.05133	20958
2.05500	16835
2.05867	13908
2.06233	11784
2.06600	10203
2.06967	8995
2.07333	8048
2.07700	7285
2.08067	6656
2.08433	6129
2.08800	5677
2.09167	5281
2.09533	4929
2.09900	4622
2.10267	4355
2.10633	4117
2.11000	3905
2.11367	3717
2.11733	3548
2.12100	3390
2.12467	3246
2.12833	3115
2.13200	2990
2.13567	2870
2.13933	2754
2.14300	2647
2.14667	2553
2.15033	2470
2.15400	2395
2.15767	2321
2.16133	2245
2.16500	2167
2.16867	2092
2.17233	2023
2.17600	1958
2.17967	1897
2.18333	1843
2.18700	1795
2.19067	1749
2.19433	1702
2.19800	1656
2.20167	1614
2.20533	1573
2.20900	1531
2.21267	1489
2.21633	1450
2.22000	1413
2.22367	1378
2.22733	1351
2.23100	1328
2.23467	1302
2.23833	1274
2.24200	1245
2.24567	1215
2.24933	1182
2.25300	1152
2.25667	1124
2.26033	1099
2.26400	1084
2.26767	1071
2.27133	1050
2.27500	1027
2.27867	1006
2.28233	988
2.28600	971
2.28967	959
2.29333	952
2.29700	949
2.30067	947
2.30433	938
2.30800	925
2.31167	908
2.31533	886
2.31900	863
2.32267	850
2.32633	840
2.33000	831
2.33367	826
2.33733	824
2.34100	818
2.34467	799
2.34833	775
2.35200	751
2.35567	732
2.35933	718
2.36300	709
2.36667	702
2.37033	693
2.37400	687
2.37767	686
2.38133	689
2.38500	691
2.38867	685
2.39233	678
2.39600	671
2.39967	663
2.40333	654
2.40700	645
2.41067	637
2.41433	629
2.41800	618
2.42167	607
2.42533	602
2.42900	597
2.43267	591
2.43633	589
2.44000	587
2.44367	583
2.44733	578
2.45100	574
2.45467	568
2.45833	563
2.46200	559
2.46567	555
2.46933	547
2.47300	536
2.47667	529
2.48033	523
2.48400	519
2.48767	521
2.49133	527
2.49500	535
2.49867	539
2.50233	537
2.50600	528
2.50967	517
2.51333	505
2.51700	495
2.52067	490
2.52433	486
2.52800	484
2.53167	482
2.53533	485
2.53900	490
2.54267	497
2.54633	504
2.55000	503
2.55367	494
2.55733	486
2.56100	478
2.56467	470
2.56833	463
2.57200	455
2.57567	447
2.57933	439
2.58300	433
2.58667	429
2.59033	425
2.59400	421
2.59767	418
2.60133	416
2.60500	413
2.60867	411
2.61233	414
2.61600	419
2.61967	415
2.62333	409
2.62700	406
2.63067	409
2.63433	414
2.63800	418
2.64167	418
2.64533	417
2.64900	416
2.65267	414
2.65633	412
2.66000	407
2.66367	402
2.66733	395
2.67100	388
2.67467	382
2.67833	383
2.68200	390
2.68567	395
2.68933	398
2.69300	400
2.69667	401
2.70033	395
2.70400	389
2.70767	387
2.71133	391
2.71500	400
2.71867	409
2.72233	416
2.72600	420
2.72967	420
2.73333	419
2.73700	418
2.74067	419
2.74433	421
2.74800	423
2.75167	419
2.75533	415
2.75900	415
2.76267	417
2.76633	420
2.77000	422
2.77367	425
2.77733	430
2.78100	436
2.78467	442
2.78833	445
2.79200	444
2.79567	443
2.79933	443
2.80300	440
2.80667	434
2.81033	427
2.81400	422
2.81767	423
2.82133	429
2.82500	435
2.82867	434
2.83233	433
2.83600	432
2.83967	427
2.84333	424
2.84700	424
2.85067	425
2.85433	427
2.85800	427
2.86167	431
2.86533	439
2.86900	447
2.87267	450
2.87633	449
2.88000	450
2.88367	454
2.88733	456
2.89100	451
2.89467	437
2.89833	422
2.90200	412
2.90567	407
2.90933	406
2.91300	404
2.91667	401
2.92033	398
2.92400	397
2.92767	398
2.93133	401
2.93500	404
2.93867	408
2.94233	411
2.94600	417
2.94967	421
2.95333	423
2.95700	421
2.96067	414
2.96433	407
2.96800	405
2.97167	405
2.97533	407
2.97900	409
2.98267	411
2.98633	413
2.99000	417
2.99367	424
2.99733	430
3.00100	431
3.00467	424
3.00833	412
3.01200	405
3.01567	402
3.01933	405
3.02300	413
3.02667	421
3.03033	421
3.03400	415
3.03767	409
3.04133	407
3.04500	408
3.04867	407
3.05233	409
3.05600	415
3.05967	416
3.06333	412
3.06700	402
3.07067	393
3.07433	390
3.07800	392
3.08167	393
3.08533	389
3.08900	383
3.09267	377
3.09633	370
3.10000	366
3.10367	365
3.10733	368
3.11100	374
3.11467	380
3.11833	386
3.12200	391
3.12567	395
3.12933	397
3.13300	397
3.13667	395
3.14033	393
3.14400	391
3.14767	387
3.15133	382
3.15500	380
3.15867	384
3.16233	386
3.16600	384
3.16967	382
3.17333	382
3.17700	382
3.18067	381
3.18433	381
3.18800	383
3.19167	383
3.19533	379
3.19900	377
3.20267	380
3.20633	386
3.21000	386
3.21367	380
3.21733	371
3.22100	362
3.22467	349
3.22833	339
3.23200	336
3.23567	338
3.23933	341
3.24300	345
3.24667	350
3.25033	356
3.25400	365
3.25767	371
3.26133	373
3.26500	372
3.26867	371
3.27233	368
3.27600	361
3.27967	354
3.28333	348
3.28700	346
3.29067	344
3.29433	340
3.29800	335
3.30167	335
3.30533	341
3.30900	349
3.31267	355
3.31633	360
3.32000	361
3.32367	355
3.32733	351
3.33100	347
3.33467	346
3.33833	344
3.34200	342
3.34567	341
3.34933	337
3.35300	332
3.35667	330
3.36033	332
3.36400	330
3.36767	326
3.37133	320
3.37500	313
3.37867	312
3.38233	317
3.38600	325
3.38967	334
3.39333	340
3.39700	343
3.40067	342
3.40433	341
3.40800	341
3.41167	338
3.41533	331
3.41900	321
3.42267	314
3.42633	311
3.43000	307
3.43367	303
3.43733	300
3.44100	300
3.44467	305
3.44833	308
3.45200	308
3.45567	308
3.45933	308
3.46300	306
3.46667	300
3.47033	296
3.47400	296
3.47767	301
3.48133	312
3.48500	327
3.48867	339
3.49233	345
3.49600	347
3.49967	343
3.50333	335
3.50700	329
3.51067	324
3.51433	315
3.51800	307
3.52167	305
3.52533	307
3.52900	311
3.53267	312
3.53633	313
3.54000	314
3.54367	314
3.54733	315
3.55100	317
3.55467	317
3.55833	313
3.56200	307
3.56567	302
3.56933	298
3.57300	295
3.57667	291
3.58033	291
3.58400	296
3.58767	301
3.59133	306
3.59500	311
3.59867	313
3.60233	308
3.60600	301
3.60967	298
3.61333	293
3.61700	290
3.62067	290
3.62433	283
3.62800	275
3.63167	271
3.63533	273
3.63900	279
3.64267	286
3.64633	288
3.65000	283
3.65367	277
3.65733	275
3.66100	277
3.66467	278
3.66833	278
3.67200	277
3.67567	276
3.67933	276
3.68300	271
3.68667	268
3.69033	270
3.69400	273
3.69767	267
3.70133	262
3.70500	260
3.70867	259
3.71233	258
3.71600	267
3.71967	279
3.72333	284
3.72700	282
3.73067	277
3.73433	273
3.73800	271
3.74167	270
3.74533	263
3.74900	254
3.75267	247
3.75633	243
3.76000	241
3.76367	239
3.76733	240
3.77100	244
3.77467	249
3.77833	255
3.78200	261
3.78567	263
3.78933	266
3.79300	268
3.79667	267
3.80033	264
3.80400	261
3.80767	264
3.81133	269
3.81500	271
3.81867	272
3.82233	271
3.82600	263
3.82967	250
3.83333	237
3.83700	227
3.84067	224
3.84433	229
3.84800	233
3.85167	231
3.85533	228
3.85900	226
3.86267	227
3.86633	231
3.87000	237
3.87367	241
3.87733	240
3.88100	236
3.88467	234
3.88833	238
3.89200	242
3.89567	244
3.89933	242
3.90300	240
3.90667	236
3.91033	233
3.91400	229
3.91767	225
3.92133	222
3.92500	220
3.92867	216
3.93233	212
3.93600	208
3.93967	206
3.94333	207
3.94700	210
3.95067	216
3.95433	223
3.95800	231
3.96167	241
3.96533	248
3.96900	247
3.97267	243
3.97633	239
3.98000	233
3.98367	225
3.98733	217
3.99100	212
3.99467	212
3.99833	213

[Chromatogram (Ch2)]
Interval(msec)	220
# of Points	1091
Start Time(min)	0.002
End Time(min)	3.998
R.Time (min)	Intensity
0.00167	-0
0.00533	-1
0.00900	-1
0.01267	-1
0.01633	-1
0.02000	-1
0.02367	-2
0.02733	-2
0.03100	-2
0.03467	-2
0.03833	-2
0.04200	-2
0.04567	-1
0.04933	-2
0.05300	-2
0.05667	-2
0.06033	-1
0.06400	-1
0.06767	-1
0.07133	-1
0.07500	-1
0.07867	-1
0.08233	-1
0.08600	-1
0.08967	-1
0.09333	-1
0.09700	-1
0.10067	-0
0.10433	-0
0.10800	0
0.11167	0
0.11533	1
0.11900	1
0.12267	1
0.12633	1
0.13000	1
0.13367	1
0.13733	1
0.14100	1
0.14467	1
0.14833	0
0.15200	-0
0.15567	-0
0.15933	-0
0.16300	-1
0.16667	-0
0.17033	-0
0.17400	-1
0.17767	-1
0.18133	-1
0.18500	-1
0.18867	-2
0.19233	-2
0.19600	-3
0.19967	-3
0.20333	-3
0.20700	-3
0.21067	-3
0.21433	-3
0.21800	-3
0.22167	-3
0.22533	-3
0.22900	-3
0.23267	-3
0.23633	-3
0.24000	-3
0.24367	-4
0.24733	-4
0.25100	-4
0.25467	-4
0.25833	-4
0.26200	-4
0.26567	-4
0.26933	-4
0.27300	-4
0.27667	-3
0.28033	-3
0.28400	-3
0.28767	-3
0.29133	-3
0.29500	-3
0.29867	-3
0.30233	-3
0.30600	-3
0.30967	-3
0.31333	-3
0.31700	-2
0.32067	-2
0.32433	-2
0.32800	-2
0.33167	-2
0.33533	-1
0.33900	-1
0.34267	-1
0.34633	-1
0.35000	-1
0.35367	-1
0.35733	-1
0.36100	-0
0.36467	-0
0.36833	-0
0.37200	-0
0.37567	-0
0.37933	-0
0.38300	-0
0.38667	-1
0.39033	-1
0.39400	-2
0.39767	-2
0.40133	-2
0.40500	-3
0.40867	-3
0.41233	-2
0.41600	-2
0.41967	-2
0.42333	-2
0.42700	-1
0.43067	-2
0.43433	-2
0.43800	-1
0.44167	-1
0.44533	-1
0.44900	-2
0.45267	-2
0.45633	-2
0.46000	-2
0.46367	-1
0.46733	-1
0.47100	-1
0.47467	-1
0.47833	-1
0.48200	-0
0.48567	-0
0.48933	0
0.49300	0
0.49667	0
0.50033	0
0.50400	0
0.50767	0
0.51133	0
0.51500	0
0.51867	-0
0.52233	-0
0.52600	-0
0.52967	-0
0.53333	-0
0.53700	-1
0.54067	-1
0.54433	-1
0.54800	-2
0.55167	-2
0.55533	-2
0.55900	-2
0.56267	-3
0.56633	-3
0.57000	-3
0.57367	-3
0.57733	-3
0.58100	-4
0.58467	-4
0.58833	-4
0.59200	-3
0.59567	-3
0.59933	-3
0.60300	-3
0.60667	-3
0.61033	-3
0.61400	-3
0.61767	-3
0.62133	-3
0.62500	-3
0.62867	-3
0.63233	-3
0.63600	-3
0.63967	-3
0.64333	-3
0.64700	-3
0.65067	-3
0.65433	-3
0.65800	-2
0.66167	-2
0.66533	-2
0.66900	-2
0.67267	-2
0.67633	-1
0.68000	-2
0.68367	-2
0.68733	-2
0.69100	-2
0.69467	-2
0.69833	-2
0.70200	-2
0.70567	-2
0.70933	-1
0.71300	-1
0.71667	-1
0.72033	-1
0.72400	-1
0.72767	-1
0.73133	-0
0.73500	0
0.73867	0
0.74233	1
0.74600	1
0.74967	1
0.75333	1
0.75700	2
0.76067	2
0.76433	2
0.76800	2
0.77167	2
0.77533	2
0.77900	2
0.78267	2
0.78633	2
0.79000	2
0.79367	2
0.79733	2
0.80100	2
0.80467	2
0.80833	1
0.81200	1
0.81567	1
0.81933	1
0.82300	1
0.82667	1
0.83033	0
0.83400	0
0.83767	0
0.84133	0
0.84500	0
0.84867	0
0.85233	-0
0.85600	-0
0.85967	-0
0.86333	-0
0.86700	-0
0.87067	-0
0.87433	-0
0.87800	-0
0.88167	-0
0.88533	0
0.88900	0
0.89267	-0
0.89633	-0
0.90000	-0
0.90367	-1
0.90733	-1
0.91100	-2
0.91467	-2
0.91833	-3
0.92200	-3
0.92567	-3
0.92933	-4
0.93300	-4
0.93667	-4
0.94033	-5
0.94400	-5
0.94767	-5
0.95133	-5
0.95500	-5
0.95867	-5
0.96233	-5
0.96600	-5
0.96967	-5
0.97333	-6
0.97700	-6
0.98067	-6
0.98433	-6
0.98800	-5
0.99167	-5
0.99533	-5
0.99900	-5
1.00267	-4
1.00633	-4
1.01000	-4
1.01367	-4
1.01733	-4
1.02100	-4
1.02467	-4
1.02833	-3
1.03200	-2
1.03567	-2
1.03933	-1
1.04300	-1
1.04667	-0
1.05033	0
1.05400	0
1.05767	1
1.06133	1
1.06500	1
1.06867	1
1.07233	1
1.07600	1
1.07967	1
1.08333	1
1.08700	1
1.09067	1
1.09433	1
1.09800	2
1.10167	2
1.10533	2
1.10900	2
1.11267	2
1.11633	2
1.12000	2
1.12367	2
1.12733	2
1.13100	2
1.13467	2
1.13833	2
1.14200	2
1.14567	1
1.14933	1
1.15300	0
1.15667	-0
1.16033	-0
1.16400	-0
1.16767	-0
1.17133	0
1.17500	0
1.17867	1
1.18233	1
1.18600	1
1.18967	1
1.19333	1
1.19700	1
1.20067	1
1.20433	1
1.20800	0
1.21167	-0
1.21533	-1
1.21900	-2
1.22267	-2
1.22633	-3
1.23000	-4
1.23367	-4
1.23733	-5
1.24100	-5
1.24467	-5
1.24833	-5
1.25200	-5
1.25567	-5
1.25933	-5
1.26300	-5
1.26667	-5
1.27033	-6
1.27400	-6
1.27767	-6
1.28133	-6
1.28500	-6
1.28867	-6
1.29233	-6
1.29600	-6
1.29967	-6
1.30333	-6
1.30700	-6
1.31067	-5
1.31433	-5
1.31800	-4
1.32167	-4
1.32533	-4
1.32900	-4
1.33267	-3
1.33633	-3
1.34000	-2
1.34367	-2
1.34733	-1
1.35100	-1
1.35467	-1
1.35833	-1
1.36200	-1
1.36567	-1
1.36933	-1
1.37300	-1
1.37667	-1
1.38033	-1
1.38400	-1
1.38767	-2
1.39133	-2
1.39500	-2
1.39867	-3
1.40233	-3
1.40600	-3
1.40967	-4
1.41333	-4
1.41700	-4
1.42067	-4
1.42433	-4
1.42800	-4
1.43167	-3
1.43533	-3
1.43900	-2
1.44267	-2
1.44633	-1
1.45000	-1
1.45367	-1
1.45733	-0
1.46100	-0
1.46467	-0
1.46833	0
1.47200	0
1.47567	1
1.47933	1
1.48300	1
1.48667	1
1.49033	1
1.49400	1
1.49767	1
1.50133	1
1.50500	0
1.50867	-1
1.51233	-1
1.51600	-1
1.51967	-1
1.52333	-2
1.52700	-2
1.53067	-2
1.53433	-2
1.53800	-3
1.54167	-3
1.54533	-3
1.54900	-2
1.55267	-2
1.55633	-2
1.56000	-2
1.56367	-1
1.56733	-1
1.57100	-1
1.57467	-1
1.57833	-1
1.58200	-2
1.58567	-2
1.58933	-2
1.59300	-2
1.59667	-3
1.60033	-4
1.60400	-5
1.60767	-6
1.61133	-8
1.61500	-10
1.61867	-13
1.62233	-15
1.62600	-18
1.62967	-21
1.63333	-25
1.63700	-28
1.64067	-32
1.64433	-36
1.64800	-39
1.65167	-43
1.65533	-46
1.65900	-50
1.66267	-53
1.66633	-57
1.67000	-61
1.67367	-65
1.67733	-70
1.68100	-75
1.68467	-79
1.68833	-84
1.69200	-88
1.69567	-92
1.69933	-95
1.70300	-98
1.70667	-100
1.71033	-101
1.71400	-103
1.71767	-104
1.72133	-105
1.72500	-106
1.72867	-107
1.73233	-108
1.73600	-109
1.73967	-110
1.74333	-110
1.74700	-110
1.75067	-110
1.75433	-110
1.75800	-110
1.76167	-110
1.76533	-110
1.76900	-111
1.77267	-112
1.77633	-113
1.78000	-113
1.78367	-114
1.78733	-115
1.79100	-115
1.79467	-116
1.79833	-116
1.80200	-116
1.80567	-116
1.80933	-115
1.81300	-115
1.81667	-115
1.82033	-115
1.82400	-115
1.82767	-116
1.83133	-116
1.83500	-116
1.83867	-116
1.84233	-116
1.84600	-117
1.84967	-117
1.85333	-117
1.85700	-117
1.86067	-117
1.86433	-117
1.86800	-117
1.87167	-117
1.87533	-117
1.87900	-117
1.88267	-117
1.88633	-117
1.89000	-117
1.89367	-116
1.89733	-116
1.90100	-115
1.90467	-115
1.90833	-115
1.91200	-115
1.91567	-115
1.91933	-114
1.92300	-114
1.92667	-114
1.93033	-113
1.93400	-113
1.93767	-113
1.94133	-113
1.94500	-113
1.94867	-113
1.95233	-113
1.95600	-113
1.95967	-113
1.96333	-113
1.96700	-112
1.97067	-112
1.97433	-111
1.97800	-111
1.98167	-110
1.98533	-110
1.98900	-110
1.99267	-110
1.99633	-110
2.00000	-110
2.00367	-111
2.00733	-111
2.01100	-111
2.01467	-112
2.01833	-112
2.02200	-111
2.02567	-111
2.02933	-110
2.03300	-109
2.03667	-108
2.04033	-108
2.04400	-107
2.04767	-106
2.05133	-106
2.05500	-105
2.05867	-104
2.06233	-103
2.06600	-103
2.06967	-102
2.07333	-101
2.07700	-101
2.08067	-101
2.08433	-101
2.08800	-101
2.09167	-102
2.09533	-103
2.09900	-103
2.10267	-103
2.10633	-102
2.11000	-102
2.11367	-101
2.11733	-100
2.12100	-99
2.12467	-98
2.12833	-97
2.13200	-97
2.13567	-96
2.13933	-96
2.14300	-96
2.14667	-96
2.15033	-96
2.15400	-96
2.15767	-96
2.16133	-95
2.16500	-95
2.16867	-94
2.17233	-93
2.17600	-92
2.17967	-91
2.18333	-91
2.18700	-91
2.19067	-91
2.19433	-90
2.19800	-90
2.20167	-90
2.20533	-90
2.20900	-89
2.21267	-89
2.21633	-90
2.22000	-90
2.22367	-90
2.22733	-90
2.23100	-91
2.23467	-91
2.23833	-91
2.24200	-91
2.24567	-91
2.24933	-90
2.25300	-89
2.25667	-88
2.26033	-87
2.26400	-86
2.26767	-86
2.27133	-85
2.27500	-85
2.27867	-85
2.28233	-86
2.28600	-86
2.28967	-86
2.29333	-86
2.29700	-86
2.30067	-85
2.30433	-84
2.30800	-83
2.31167	-82
2.31533	-82
2.31900	-81
2.32267	-81
2.32633	-81
2.33000	-80
2.33367	-80
2.33733	-80
2.34100	-79
2.34467	-79
2.34833	-78
2.35200	-78
2.35567	-78
2.35933	-78
2.36300	-77
2.36667	-77
2.37033	-75
2.37400	-73
2.37767	-71
2.38133	-68
2.38500	-64
2.38867	-60
2.39233	-56
2.39600	-51
2.39967	-46
2.40333	-42
2.40700	-37
2.41067	-32
2.41433	-28
2.41800	-24
2.42167	-21
2.42533	-19
2.42900	-17
2.43267	-16
2.43633	-15
2.44000	-14
2.44367	-14
2.44733	-13
2.45100	-11
2.45467	-9
2.45833	-7
2.46200	-5
2.46567	-3
2.46933	-1
2.47300	0
2.47667	1
2.48033	2
2.48400	3
2.48767	3
2.49133	4
2.49500	5
2.49867	5
2.50233	6
2.50600	6
2.50967	7
2.51333	9
2.51700	10
2.52067	11
2.52433	12
2.52800	13
2.53167	13
2.53533	13
2.53900	13
2.54267	13
2.54633	13
2.55000	14
2.55367	14
2.55733	15
2.56100	16
2.56467	16
2.56833	17
2.57200	17
2.57567	18
2.57933	18
2.58300	17
2.58667	17
2.59033	16
2.59400	15
2.59767	15
2.60133	15
2.60500	14
2.60867	14
2.61233	15
2.61600	15
2.61967	15
2.62333	16
2.62700	16
2.63067	17
2.63433	17
2.63800	17
2.64167	17
2.64533	18
2.64900	18
2.65267	18
2.65633	18
2.66000	18
2.66367	18
2.66733	18
2.67100	18
2.67467	19
2.67833	19
2.68200	19
2.68567	20
2.68933	21
2.69300	22
2.69667	23
2.70033	23
2.70400	24
2.70767	25
2.71133	25
2.71500	26
2.71867	26
2.72233	26
2.72600	26
2.72967	25
2.73333	25
2.73700	24
2.74067	24
2.74433	23
2.74800	22
2.75167	22
2.75533	22
2.75900	22
2.76267	22
2.76633	22
2.77000	22
2.77367	23
2.77733	23
2.78100	24
2.78467	24
2.78833	24
2.79200	25
2.79567	25
2.79933	25
2.80300	25
2.80667	25
2.81033	25
2.81400	25
2.81767	25
2.82133	25
2.82500	25
2.82867	26
2.83233	25
2.83600	25
2.83967	24
2.84333	21
2.84700	17
2.85067	10
2.85433	0
2.85800	-13
2.86167	-31
2.86533	-52
2.86900	-78
2.87267	-108
2.87633	-143
2.88000	-181
2.88367	-222
2.88733	-267
2.89100	-315
2.89467	-365
2.89833	-417
2.90200	-471
2.90567	-525
2.90933	-579
2.91300	-634
2.91667	-688
2.92033	-741
2.92400	-794
2.92767	-845
2.93133	-898
2.93500	-955
2.93867	-1015
2.94233	-1066
2.94600	-1100
2.94967	-1109
2.95333	-1092
2.95700	-1051
2.96067	-992
2.96433	-921
2.96800	-843
2.97167	-761
2.97533	-681
2.97900	-604
2.98267	-531
2.98633	-464
2.99000	-404
2.99367	-349
2.99733	-300
3.00100	-257
3.00467	-219
3.00833	-187
3.01200	-158
3.01567	-134
3.01933	-113
3.02300	-95
3.02667	-79
3.03033	-66
3.03400	-54
3.03767	-44
3.04133	-36
3.04500	-28
3.04867	-22
3.05233	-17
3.05600	-12
3.05967	-8
3.06333	-4
3.06700	-1
3.07067	1
3.07433	3
3.07800	5
3.08167	7
3.08533	8
3.08900	10
3.09267	11
3.09633	12
3.10000	13
3.10367	13
3.10733	14
3.11100	14
3.11467	15
3.11833	15
3.12200	15
3.12567	16
3.12933	16
3.13300	16
3.13667	16
3.14033	17
3.14400	17
3.14767	17
3.15133	17
3.15500	17
3.15867	17
3.16233	18
3.16600	18
3.16967	18
3.17333	19
3.17700	19
3.18067	19
3.18433	19
3.18800	19
3.19167	19
3.19533	19
3.19900	20
3.20267	20
3.20633	20
3.21000	20
3.21367	20
3.21733	19
3.22100	19
3.22467	19
3.22833	19
3.23200	19
3.23567	18
3.23933	18
3.24300	19
3.24667	19
3.25033	19
3.25400	20
3.25767	20
3.26133	21
3.26500	21
3.26867	22
3.27233	23
3.27600	23
3.27967	23
3.28333	24
3.28700	24
3.29067	24
3.29433	25
3.29800	25
3.30167	25
3.30533	26
3.30900	26
3.31267	26
3.31633	26
3.32000	27
3.32367	27
3.32733	28
3.33100	28
3.33467	28
3.33833	28
3.34200	29
3.34567	29
3.34933	29
3.35300	29
3.35667	29
3.36033	29
3.36400	29
3.36767	28
3.37133	28
3.37500	28
3.37867	28
3.38233	27
3.38600	28
3.38967	28
3.39333	28
3.39700	28
3.40067	27
3.40433	27
3.40800	27
3.41167	27
3.41533	27
3.41900	27
3.42267	27
3.42633	27
3.43000	27
3.43367	27
3.43733	27
3.44100	27
3.44467	27
3.44833	27
3.45200	28
3.45567	28
3.45933	28
3.46300	28
3.46667	27
3.47033	27
3.47400	27
3.47767	27
3.48133	27
3.48500	26
3.48867	26
3.49233	26
3.49600	25
3.49967	25
3.50333	25
3.50700	25
3.51067	25
3.51433	24
3.51800	24
3.52167	24
3.52533	24
3.52900	24
3.53267	24
3.53633	24
3.54000	24
3.54367	24
3.54733	24
3.55100	25
3.55467	25
3.55833	25
3.56200	26
3.56567	26
3.56933	27
3.57300	27
3.57667	27
3.58033	27
3.58400	27
3.58767	27
3.59133	27
3.59500	27
3.59867	27
3.60233	27
3.60600	27
3.60967	27
3.61333	27
3.61700	27
3.62067	27
3.62433	27
3.62800	26
3.63167	26
3.63533	25
3.63900	25
3.64267	25
3.64633	25
3.65000	25
3.65367	25
3.65733	25
3.66100	25
3.66467	25
3.66833	25
3.67200	25
3.67567	25
3.67933	25
3.68300	25
3.68667	25
3.69033	25
3.69400	25
3.69767	26
3.70133	26
3.70500	26
3.70867	26
3.71233	26
3.71600	26
3.71967	26
3.72333	25
3.72700	25
3.73067	25
3.73433	25
3.73800	25
3.74167	25
3.74533	26
3.74900	26
3.75267	26
3.75633	27
3.76000	27
3.76367	27
3.76733	27
3.77100	27
3.77467	27
3.77833	27
3.78200	27
3.78567	27
3.78933	28
3.79300	28
3.79667	28
3.80033	28
3.80400	28
3.80767	27
3.81133	27
3.81500	27
3.81867	26
3.82233	26
3.82600	26
3.82967	26
3.83333	25
3.83700	25
3.84067	25
3.84433	25
3.84800	25
3.85167	25
3.85533	25
3.85900	25
3.86267	26
3.86633	26
3.87000	26
3.87367	26
3.87733	26
3.88100	26
3.88467	26
3.88833	26
3.89200	26
3.89567	26
3.89933	26
3.90300	26
3.90667	26
3.91033	26
3.91400	26
3.91767	26
3.92133	26
3.92500	26
3.92867	26
3.93233	26
3.93600	26
3.93967	26
3.94333	26
3.94700	26
3.95067	26
3.95433	26
3.95800	26
3.96167	26
3.96533	26
3.96900	27
3.97267	27
3.97633	27
3.98000	28
3.98367	28
3.98733	28
3.99100	28
3.99467	28
3.99833	28

[Chromatogram (Ch3)]
Interval(msec)	220
# of Points	1091
Start Time(min)	0.002
End Time(min)	3.998
R.Time (min)	Intensity
0.00167	-1
0.00533	-3
0.00900	-5
0.01267	-6
0.01633	-7
0.02000	-6
0.02367	-7
0.02733	-7
0.03100	-7
0.03467	-5
0.03833	-5
0.04200	-4
0.04567	-4
0.04933	-5
0.05300	-7
0.05667	-7
0.06033	-7
0.06400	-6
0.06767	-6
0.07133	-7
0.07500	-9
0.07867	-11
0.08233	-10
0.08600	-9
0.08967	-8
0.09333	-5
0.09700	-4
0.10067	-4
0.10433	-5
0.10800	-7
0.11167	-10
0.11533	-10
0.11900	-8
0.12267	-7
0.12633	-7
0.13000	-6
0.13367	-5
0.13733	-4
0.14100	-3
0.14467	-3
0.14833	-2
0.15200	-3
0.15567	-4
0.15933	-4
0.16300	-4
0.16667	-5
0.17033	-5
0.17400	-4
0.17767	-4
0.18133	-5
0.18500	-4
0.18867	-3
0.19233	-3
0.19600	-5
0.19967	-6
0.20333	-6
0.20700	-3
0.21067	-2
0.21433	-2
0.21800	-3
0.22167	-4
0.22533	-2
0.22900	-1
0.23267	-3
0.23633	-5
0.24000	-6
0.24367	-6
0.24733	-7
0.25100	-6
0.25467	-5
0.25833	-3
0.26200	-5
0.26567	-6
0.26933	-5
0.27300	-5
0.27667	-3
0.28033	-3
0.28400	-3
0.28767	-4
0.29133	-6
0.29500	-5
0.29867	-4
0.30233	-4
0.30600	-3
0.30967	-0
0.31333	1
0.31700	1
0.32067	0
0.32433	-2
0.32800	-2
0.33167	-3
0.33533	-4
0.33900	-4
0.34267	-4
0.34633	-4
0.35000	-4
0.35367	-4
0.35733	-7
0.36100	-10
0.36467	-14
0.36833	-14
0.37200	-13
0.37567	-12
0.37933	-11
0.38300	-9
0.38667	-7
0.39033	-6
0.39400	-6
0.39767	-6
0.40133	-5
0.40500	-4
0.40867	-2
0.41233	-1
0.41600	-2
0.41967	-1
0.42333	-1
0.42700	-2
0.43067	-2
0.43433	-4
0.43800	-4
0.44167	-4
0.44533	-4
0.44900	-4
0.45267	-4
0.45633	-3
0.46000	-3
0.46367	-3
0.46733	-2
0.47100	-3
0.47467	-6
0.47833	-9
0.48200	-10
0.48567	-10
0.48933	-9
0.49300	-10
0.49667	-10
0.50033	-9
0.50400	-8
0.50767	-8
0.51133	-8
0.51500	-5
0.51867	-2
0.52233	-1
0.52600	-1
0.52967	2
0.53333	3
0.53700	1
0.54067	-1
0.54433	-2
0.54800	-2
0.55167	-2
0.55533	-3
0.55900	-4
0.56267	-5
0.56633	-6
0.57000	-6
0.57367	-4
0.57733	-3
0.58100	-2
0.58467	-1
0.58833	-2
0.59200	-4
0.59567	-5
0.59933	-4
0.60300	-4
0.60667	-4
0.61033	-5
0.61400	-6
0.61767	-7
0.62133	-6
0.62500	-8
0.62867	-8
0.63233	-6
0.63600	-4
0.63967	-4
0.64333	-4
0.64700	-3
0.65067	-0
0.65433	-0
0.65800	-1
0.66167	-2
0.66533	-5
0.66900	-5
0.67267	-3
0.67633	-2
0.68000	-2
0.68367	-2
0.68733	-0
0.69100	1
0.69467	1
0.69833	1
0.70200	1
0.70567	3
0.70933	1
0.71300	-2
0.71667	-2
0.72033	-2
0.72400	-1
0.72767	-1
0.73133	-2
0.73500	-2
0.73867	-3
0.74233	-4
0.74600	-3
0.74967	-3
0.75333	-2
0.75700	-1
0.76067	0
0.76433	-1
0.76800	-3
0.77167	-2
0.77533	-0
0.77900	1
0.78267	1
0.78633	-0
0.79000	-1
0.79367	-2
0.79733	-4
0.80100	-5
0.80467	-3
0.80833	-1
0.81200	0
0.81567	-2
0.81933	-4
0.82300	-6
0.82667	-7
0.83033	-7
0.83400	-3
0.83767	-2
0.84133	-1
0.84500	1
0.84867	-0
0.85233	-4
0.85600	-5
0.85967	-6
0.86333	-7
0.86700	-5
0.87067	-4
0.87433	-5
0.87800	-4
0.88167	-5
0.88533	-3
0.88900	0
0.89267	4
0.89633	2
0.90000	1
0.90367	0
0.90733	-0
0.91100	-1
0.91467	-2
0.91833	-3
0.92200	-5
0.92567	-6
0.92933	-6
0.93300	-5
0.93667	-4
0.94033	-2
0.94400	-1
0.94767	-2
0.95133	-2
0.95500	-1
0.95867	-2
0.96233	-2
0.96600	-0
0.96967	2
0.97333	3
0.97700	4
0.98067	6
0.98433	6
0.98800	7
0.99167	7
0.99533	7
0.99900	5
1.00267	4
1.00633	3
1.01000	4
1.01367	4
1.01733	3
1.02100	3
1.02467	3
1.02833	1
1.03200	2
1.03567	3
1.03933	3
1.04300	3
1.04667	3
1.05033	6
1.05400	7
1.05767	7
1.06133	6
1.06500	5
1.06867	5
1.07233	5
1.07600	5
1.07967	3
1.08333	2
1.08700	0
1.09067	2
1.09433	3
1.09800	7
1.10167	9
1.10533	8
1.10900	7
1.11267	7
1.11633	5
1.12000	5
1.12367	5
1.12733	6
1.13100	5
1.13467	5
1.13833	4
1.14200	4
1.14567	4
1.14933	3
1.15300	1
1.15667	0
1.16033	1
1.16400	3
1.16767	4
1.17133	4
1.17500	3
1.17867	3
1.18233	1
1.18600	-1
1.18967	-2
1.19333	-1
1.19700	1
1.20067	2
1.20433	1
1.20800	1
1.21167	0
1.21533	3
1.21900	6
1.22267	5
1.22633	3
1.23000	1
1.23367	2
1.23733	2
1.24100	3
1.24467	2
1.24833	3
1.25200	4
1.25567	4
1.25933	3
1.26300	4
1.26667	3
1.27033	3
1.27400	2
1.27767	3
1.28133	5
1.28500	4
1.28867	1
1.29233	0
1.29600	2
1.29967	4
1.30333	4
1.30700	4
1.31067	4
1.31433	5
1.31800	7
1.32167	8
1.32533	7
1.32900	7
1.33267	6
1.33633	6
1.34000	6
1.34367	7
1.34733	8
1.35100	8
1.35467	8
1.35833	7
1.36200	6
1.36567	7
1.36933	6
1.37300	7
1.37667	6
1.38033	4
1.38400	4
1.38767	6
1.39133	8
1.39500	8
1.39867	5
1.40233	2
1.40600	0
1.40967	1
1.41333	0
1.41700	0
1.42067	3
1.42433	6
1.42800	7
1.43167	8
1.43533	8
1.43900	5
1.44267	6
1.44633	7
1.45000	6
1.45367	6
1.45733	7
1.46100	8
1.46467	9
1.46833	10
1.47200	10
1.47567	7
1.47933	5
1.48300	5
1.48667	7
1.49033	11
1.49400	11
1.49767	10
1.50133	11
1.50500	11
1.50867	11
1.51233	11
1.51600	11
1.51967	10
1.52333	9
1.52700	8
1.53067	7
1.53433	5
1.53800	4
1.54167	1
1.54533	2
1.54900	6
1.55267	8
1.55633	9
1.56000	8
1.56367	9
1.56733	12
1.57100	13
1.57467	12
1.57833	11
1.58200	9
1.58567	8
1.58933	4
1.59300	2
1.59667	1
1.60033	1
1.60400	4
1.60767	4
1.61133	4
1.61500	5
1.61867	6
1.62233	7
1.62600	9
1.62967	9
1.63333	9
1.63700	9
1.64067	8
1.64433	7
1.64800	6
1.65167	6
1.65533	7
1.65900	8
1.66267	8
1.66633	9
1.67000	11
1.67367	12
1.67733	15
1.68100	17
1.68467	20
1.68833	23
1.69200	24
1.69567	27
1.69933	29
1.70300	28
1.70667	29
1.71033	29
1.71400	27
1.71767	26
1.72133	26
1.72500	28
1.72867	31
1.73233	34
1.73600	34
1.73967	34
1.74333	35
1.74700	33
1.75067	33
1.75433	34
1.75800	34
1.76167	37
1.76533	38
1.76900	38
1.77267	37
1.77633	37
1.78000	38
1.78367	39
1.78733	40
1.79100	40
1.79467	40
1.79833	42
1.80200	43
1.80567	42
1.80933	40
1.81300	39
1.81667	39
1.82033	38
1.82400	37
1.82767	34
1.83133	32
1.83500	33
1.83867	34
1.84233	35
1.84600	37
1.84967	37
1.85333	38
1.85700	37
1.86067	39
1.86433	40
1.86800	40
1.87167	41
1.87533	40
1.87900	40
1.88267	39
1.88633	41
1.89000	41
1.89367	40
1.89733	41
1.90100	43
1.90467	45
1.90833	45
1.91200	44
1.91567	43
1.91933	44
1.92300	43
1.92667	42
1.93033	41
1.93400	41
1.93767	42
1.94133	42
1.94500	42
1.94867	42
1.95233	42
1.95600	42
1.95967	43
1.96333	47
1.96700	47
1.97067	46
1.97433	47
1.97800	48
1.98167	50
1.98533	51
1.98900	51
1.99267	51
1.99633	54
2.00000	56
2.00367	56
2.00733	56
2.01100	59
2.01467	59
2.01833	59
2.02200	60
2.02567	63
2.02933	65
2.03300	66
2.03667	66
2.04033	64
2.04400	65
2.04767	67
2.05133	67
2.05500	68
2.05867	68
2.06233	68
2.06600	70
2.06967	70
2.07333	71
2.07700	71
2.08067	70
2.08433	67
2.08800	67
2.09167	67
2.09533	66
2.09900	67
2.10267	68
2.10633	69
2.11000	70
2.11367	73
2.11733	76
2.12100	78
2.12467	78
2.12833	79
2.13200	78
2.13567	78
2.13933	79
2.14300	80
2.14667	82
2.15033	83
2.15400	86
2.15767	88
2.16133	89
2.16500	90
2.16867	90
2.17233	91
2.17600	92
2.17967	92
2.18333	94
2.18700	96
2.19067	100
2.19433	104
2.19800	105
2.20167	106
2.20533	107
2.20900	107
2.21267	107
2.21633	105
2.22000	106
2.22367	108
2.22733	109
2.23100	110
2.23467	111
2.23833	112
2.24200	111
2.24567	113
2.24933	116
2.25300	120
2.25667	123
2.26033	126
2.26400	126
2.26767	127
2.27133	128
2.27500	129
2.27867	131
2.28233	133
2.28600	135
2.28967	136
2.29333	137
2.29700	138
2.30067	138
2.30433	140
2.30800	139
2.31167	140
2.31533	140
2.31900	143
2.32267	147
2.32633	151
2.33000	155
2.33367	157
2.33733	157
2.34100	157
2.34467	156
2.34833	156
2.35200	159
2.35567	161
2.35933	162
2.36300	165
2.36667	169
2.37033	171
2.37400	173
2.37767	175
2.38133	176
2.38500	179
2.38867	180
2.39233	180
2.39600	181
2.39967	185
2.40333	190
2.40700	195
2.41067	198
2.41433	199
2.41800	202
2.42167	205
2.42533	208
2.42900	209
2.43267	212
2.43633	215
2.44000	217
2.44367	252
2.44733	350
2.45100	456
2.45467	543
2.45833	597
2.46200	604
2.46567	579
2.46933	546
2.47300	521
2.47667	508
2.48033	501
2.48400	491
2.48767	470
2.49133	443
2.49500	412
2.49867	383
2.50233	362
2.50600	346
2.50967	335
2.51333	330
2.51700	331
2.52067	339
2.52433	351
2.52800	365
2.53167	381
2.53533	393
2.53900	397
2.54267	393
2.54633	382
2.55000	367
2.55367	350
2.55733	334
2.56100	320
2.56467	306
2.56833	295
2.57200	286
2.57567	280
2.57933	277
2.58300	275
2.58667	272
2.59033	269
2.59400	265
2.59767	257
2.60133	246
2.60500	234
2.60867	214
2.61233	191
2.61600	167
2.61967	144
2.62333	123
2.62700	107
2.63067	100
2.63433	98
2.63800	99
2.64167	102
2.64533	107
2.64900	114
2.65267	124
2.65633	137
2.66000	149
2.66367	158
2.66733	166
2.67100	172
2.67467	175
2.67833	175
2.68200	177
2.68567	177
2.68933	174
2.69300	171
2.69667	167
2.70033	163
2.70400	160
2.70767	158
2.71133	158
2.71500	156
2.71867	155
2.72233	155
2.72600	154
2.72967	157
2.73333	159
2.73700	161
2.74067	160
2.74433	160
2.74800	157
2.75167	157
2.75533	159
2.75900	159
2.76267	160
2.76633	163
2.77000	167
2.77367	170
2.77733	171
2.78100	171
2.78467	171
2.78833	170
2.79200	170
2.79567	170
2.79933	169
2.80300	168
2.80667	168
2.81033	169
2.81400	173
2.81767	180
2.82133	196
2.82500	231
2.82867	303
2.83233	433
2.83600	644
2.83967	953
2.84333	1365
2.84700	1872
2.85067	2445
2.85433	3048
2.85800	3632
2.86167	4152
2.86533	4565
2.86900	4841
2.87267	4974
2.87633	4964
2.88000	4830
2.88367	4599
2.88733	4305
2.89100	3973
2.89467	3624
2.89833	3276
2.90200	2941
2.90567	2625
2.90933	2335
2.91300	2072
2.91667	1834
2.92033	1623
2.92400	1435
2.92767	1271
2.93133	1125
2.93500	999
2.93867	892
2.94233	799
2.94600	719
2.94967	650
2.95333	590
2.95700	538
2.96067	493
2.96433	453
2.96800	421
2.97167	391
2.97533	366
2.97900	345
2.98267	324
2.98633	307
2.99000	291
2.99367	276
2.99733	262
3.00100	250
3.00467	240
3.00833	233
3.01200	226
3.01567	219
3.01933	213
3.02300	207
3.02667	198
3.03033	191
3.03400	187
3.03767	183
3.04133	179
3.04500	174
3.04867	169
3.05233	165
3.05600	162
3.05967	160
3.06333	158
3.06700	152
3.07067	149
3.07433	147
3.07800	146
3.08167	144
3.08533	140
3.08900	139
3.09267	136
3.09633	134
3.10000	133
3.10367	133
3.10733	132
3.11100	131
3.11467	129
3.11833	128
3.12200	127
3.12567	130
3.12933	132
3.13300	132
3.13667	130
3.14033	126
3.14400	123
3.14767	123
3.15133	124
3.15500	124
3.15867	125
3.16233	126
3.16600	125
3.16967	125
3.17333	126
3.17700	127
3.18067	127
3.18433	126
3.18800	127
3.19167	128
3.19533	129
3.19900	132
3.20267	133
3.20633	132
3.21000	131
3.21367	133
3.21733	134
3.22100	136
3.22467	137
3.22833	139
3.23200	143
3.23567	144
3.23933	142
3.24300	136
3.24667	128
3.25033	119
3.25400	111
3.25767	106
3.26133	106
3.26500	117
3.26867	137
3.27233	164
3.27600	196
3.27967	235
3.28333	276
3.28700	317
3.29067	353
3.29433	384
3.29800	412
3.30167	439
3.30533	464
3.30900	486
3.31267	504
3.31633	519
3.32000	534
3.32367	546
3.32733	555
3.33100	562
3.33467	569
3.33833	577
3.34200	581
3.34567	585
3.34933	592
3.35300	599
3.35667	605
3.36033	607
3.36400	608
3.36767	611
3.37133	614
3.37500	615
3.37867	618
3.38233	623
3.38600	628
3.38967	633
3.39333	639
3.39700	642
3.40067	641
3.40433	641
3.40800	642
3.41167	643
3.41533	644
3.41900	647
3.42267	648
3.42633	650
3.43000	649
3.43367	648
3.43733	646
3.44100	645
3.44467	643
3.44833	641
3.45200	639
3.45567	640
3.45933	642
3.46300	641
3.46667	640
3.47033	639
3.47400	638
3.47767	636
3.48133	636
3.48500	635
3.48867	633
3.49233	630
3.49600	627
3.49967	623
3.50333	623
3.50700	623
3.51067	622
3.51433	620
3.51800	617
3.52167	616
3.52533	613
3.52900	612
3.53267	613
3.53633	613
3.54000	611
3.54367	609
3.54733	607
3.55100	606
3.55467	603
3.55833	603
3.56200	604
3.56567	599
3.56933	595
3.57300	592
3.57667	590
3.58033	590
3.58400	589
3.58767	585
3.59133	582
3.59500	580
3.59867	576
3.60233	574
3.60600	572
3.60967	571
3.61333	569
3.61700	568
3.62067	568
3.62433	568
3.62800	570
3.63167	570
3.63533	569
3.63900	566
3.64267	564
3.64633	561
3.65000	558
3.65367	557
3.65733	556
3.66100	556
3.66467	553
3.66833	548
3.67200	547
3.67567	547
3.67933	546
3.68300	546
3.68667	545
3.69033	541
3.69400	536
3.69767	533
3.70133	534
3.70500	534
3.70867	534
3.71233	534
3.71600	534
3.71967	534
3.72333	534
3.72700	533
3.73067	533
3.73433	535
3.73800	536
3.74167	535
3.74533	532
3.74900	531
3.75267	532
3.75633	534
3.76000	536
3.76367	536
3.76733	533
3.77100	533
3.77467	532
3.77833	530
3.78200	528
3.78567	527
3.78933	526
3.79300	526
3.79667	525
3.80033	525
3.80400	526
3.80767	527
3.81133	528
3.81500	528
3.81867	527
3.82233	526
3.82600	524
3.82967	523
3.83333	521
3.83700	520
3.84067	522
3.84433	522
3.84800	520
3.85167	520
3.85533	518
3.85900	518
3.86267	520
3.86633	521
3.87000	520
3.87367	520
3.87733	520
3.88100	519
3.88467	517
3.88833	517
3.89200	517
3.89567	515
3.89933	514
3.90300	513
3.90667	513
3.91033	515
3.91400	516
3.91767	515
3.92133	514
3.92500	511
3.92867	509
3.93233	507
3.93600	506
3.93967	506
3.94333	506
3.94700	503
3.95067	502
3.95433	503
3.95800	504
3.96167	505
3.96533	504
3.96900	500
3.97267	499
3.97633	493
3.98000	489
3.98367	490
3.98733	491
3.99100	492
3.99467	491
3.99833	486

[Status Trace (Column Oven Temperature)]
Interval(msec)	1000
# of Points	240
Start Time(min)	0.014
End Time(min)	3.997
Intensity Units	
Intensity Multiplier	1
R.Time (min)	Intensity
0.01395	35.01
0.03062	35.01
0.04728	35.01
0.06395	35.00
0.08062	35.01
0.09728	35.00
0.11395	35.00
0.13062	35.00
0.14728	35.00
0.16395	34.99
0.18062	35.01
0.19728	35.02
0.21395	35.01
0.23062	35.02
0.24728	35.02
0.26395	35.02
0.28062	35.02
0.29728	35.02
0.31395	35.02
0.33062	35.01
0.34728	35.01
0.36395	35.00
0.38062	35.01
0.39728	35.00
0.41395	35.01
0.43062	35.01
0.44728	35.02
0.46395	35.01
0.48062	35.00
0.49728	35.00
0.51395	35.00
0.53062	35.01
0.54728	35.02
0.56395	35.03
0.58062	35.04
0.59728	35.03
0.61395	35.04
0.63062	35.04
0.64728	35.04
0.66395	35.04
0.68062	35.04
0.69728	35.03
0.71395	35.03
0.73062	35.01
0.74728	35.00
0.76395	34.99
0.78062	34.98
0.79728	34.98
0.81395	34.98
0.83062	34.98
0.84728	34.98
0.86395	34.97
0.88062	34.96
0.89728	34.97
0.91395	34.98
0.93062	34.99
0.94728	35.01
0.96395	35.02
0.98062	35.03
0.99728	35.04
1.01395	35.05
1.03062	35.05
1.04728	35.03
1.06395	35.02
1.08062	35.00
1.09728	34.99
1.11395	34.97
1.13062	34.96
1.14728	34.96
1.16395	34.97
1.18062	34.96
1.19728	34.96
1.21395	34.97
1.23062	34.99
1.24728	35.00
1.26395	35.01
1.28062	35.02
1.29728	35.02
1.31395	35.03
1.33062	35.02
1.34728	35.02
1.36395	35.02
1.38062	35.02
1.39728	35.03
1.41395	35.03
1.43062	35.02
1.44728	35.01
1.46395	35.01
1.48062	35.00
1.49728	35.01
1.51395	35.02
1.53062	35.02
1.54728	35.02
1.56395	35.01
1.58062	35.01
1.59728	35.03
1.61395	35.11
1.63062	35.28
1.64728	35.49
1.66395	35.76
1.68062	36.11
1.69728	36.47
1.71395	36.80
1.73062	37.15
1.74728	37.47
1.76395	37.80
1.78062	38.14
1.79728	38.47
1.81395	38.80
1.83062	39.13
1.84728	39.46
1.86395	39.79
1.88062	40.13
1.89728	40.45
1.91395	40.80
1.93062	41.11
1.94728	41.45
1.96395	41.76
1.98062	42.09
1.99728	42.41
2.01395	42.76
2.03062	43.09
2.04728	43.42
2.06395	43.74
2.08062	44.05
2.09728	44.40
2.11395	44.70
2.13062	45.01
2.14728	45.35
2.16395	45.67
2.18062	45.99
2.19728	46.31
2.21395	46.62
2.23062	46.98
2.24728	47.31
2.26395	47.61
2.28062	47.96
2.29728	48.28
2.31395	48.62
2.33062	48.94
2.34728	49.26
2.36395	49.56
2.38062	49.73
2.39728	49.77
2.41395	49.73
2.43062	49.75
2.44728	49.78
2.46395	49.76
2.48062	49.77
2.49728	49.79
2.51395	49.78
2.53062	49.80
2.54728	49.81
2.56395	49.80
2.58062	49.81
2.59728	49.84
2.61395	49.84
2.63062	49.83
2.64728	49.84
2.66395	49.86
2.68062	49.86
2.69728	49.86
2.71395	49.84
2.73062	49.85
2.74728	49.89
2.76395	49.89
2.78062	49.89
2.79728	49.89
2.81395	49.90
2.83062	49.90
2.84728	49.91
2.86395	49.93
2.88062	49.95
2.89728	49.96
2.91395	49.97
2.93062	49.97
2.94728	49.98
2.96395	49.99
2.98062	50.00
2.99728	50.00
3.01395	50.00
3.03062	50.00
3.04728	50.00
3.06395	50.01
3.08062	50.02
3.09728	50.02
3.11395	50.03
3.13062	50.03
3.14728	50.04
3.16395	50.04
3.18062	50.05
3.19728	50.06
3.21395	50.08
3.23062	50.11
3.24728	50.12
3.26395	50.11
3.28062	50.10
3.29728	50.10
3.31395	50.08
3.33062	50.05
3.34728	50.04
3.36395	50.03
3.38062	50.03
3.39728	50.01
3.41395	50.01
3.43062	50.01
3.44728	50.01
3.46395	50.00
3.48062	50.01
3.49728	50.03
3.51395	50.04
3.53062	50.04
3.54728	50.04
3.56395	50.03
3.58062	50.02
3.59728	50.02
3.61395	50.02
3.63062	50.04
3.64728	50.06
3.66395	50.06
3.68062	50.07
3.69728	50.07
3.71395	50.07
3.73062	50.08
3.74728	50.07
3.76395	50.06
3.78062	50.05
3.79728	50.04
3.81395	50.05
3.83062	50.06
3.84728	50.05
3.86395	50.06
3.88062	50.06
3.89728	50.06
3.91395	50.07
3.93062	50.07
3.94728	50.08
3.96395	50.07
3.98062	50.05
3.99728	50.05

[Status Trace (Injection Unit Temperature)]
Interval(msec)	1000
# of Points	240
Start Time(min)	0.014
End Time(min)	3.997
Intensity Units	
Intensity Multiplier	1
R.Time (min)	Intensity
0.01395	99.98
0.03062	99.98
0.04728	99.98
0.06395	99.98
0.08062	99.98
0.09728	99.98
0.11395	99.98
0.13062	99.98
0.14728	99.98
0.16395	99.98
0.18062	99.98
0.19728	99.98
0.21395	99.98
0.23062	99.98
0.24728	99.98
0.26395	99.98
0.28062	99.98
0.29728	99.98
0.31395	99.98
0.33062	99.98
0.34728	99.98
0.36395	99.98
0.38062	99.99
0.39728	99.98
0.41395	99.99
0.43062	99.98
0.44728	99.98
0.46395	99.98
0.48062	99.98
0.49728	99.98
0.51395	99.99
0.53062	99.98
0.54728	99.98
0.56395	99.98
0.58062	99.99
0.59728	99.98
0.61395	99.98
0.63062	99.98
0.64728	99.98
0.66395	99.98
0.68062	99.98
0.69728	99.98
0.71395	99.98
0.73062	99.98
0.74728	99.98
0.76395	99.98
0.78062	99.98
0.79728	99.98
0.81395	99.98
0.83062	99.98
0.84728	99.98
0.86395	99.98
0.88062	99.98
0.89728	99.98
0.91395	99.98
0.93062	99.98
0.94728	99.98
0.96395	99.98
0.98062	99.98
0.99728	99.98
1.01395	99.98
1.03062	99.98
1.04728	99.98
1.06395	99.98
1.08062	99.98
1.09728	99.97
1.11395	99.98
1.13062	99.97
1.14728	99.98
1.16395	99.98
1.18062	99.98
1.19728	99.98
1.21395	99.98
1.23062	99.98
1.24728	99.98
1.26395	99.98
1.28062	99.98
1.29728	99.98
1.31395	99.98
1.33062	99.98
1.34728	99.97
1.36395	99.98
1.38062	99.98
1.39728	99.98
1.41395	99.98
1.43062	99.98
1.44728	99.98
1.46395	99.98
1.48062	99.99
1.49728	99.98
1.51395	99.98
1.53062	99.99
1.54728	99.98
1.56395	99.98
1.58062	99.98
1.59728	99.99
1.61395	99.99
1.63062	99.99
1.64728	99.99
1.66395	99.99
1.68062	99.99
1.69728	99.99
1.71395	99.99
1.73062	99.99
1.74728	99.99
1.76395	99.99
1.78062	99.99
1.79728	99.99
1.81395	99.98
1.83062	99.99
1.84728	99.98
1.86395	99.99
1.88062	99.98
1.89728	99.98
1.91395	99.98
1.93062	99.98
1.94728	99.98
1.96395	99.98
1.98062	99.98
1.99728	99.97
2.01395	99.98
2.03062	99.98
2.04728	99.97
2.06395	99.98
2.08062	99.97
2.09728	99.97
2.11395	99.97
2.13062	99.97
2.14728	99.97
2.16395	99.96
2.18062	99.97
2.19728	99.97
2.21395	99.96
2.23062	99.97
2.24728	99.97
2.26395	99.96
2.28062	99.97
2.29728	99.97
2.31395	99.97
2.33062	99.97
2.34728	99.97
2.36395	99.96
2.38062	99.97
2.39728	99.97
2.41395	99.96
2.43062	99.97
2.44728	99.96
2.46395	99.97
2.48062	99.97
2.49728	99.97
2.51395	99.97
2.53062	99.97
2.54728	99.97
2.56395	99.97
2.58062	99.97
2.59728	99.97
2.61395	99.97
2.63062	99.98
2.64728	99.98
2.66395	99.98
2.68062	99.98
2.69728	99.98
2.71395	99.98
2.73062	99.98
2.74728	99.98
2.76395	99.98
2.78062	99.99
2.79728	99.99
2.81395	99.99
2.83062	99.99
2.84728	99.99
2.86395	99.99
2.88062	100.00
2.89728	99.99
2.91395	100.00
2.93062	100.00
2.94728	100.01
2.96395	100.00
2.98062	100.01
2.99728	100.00
3.01395	100.01
3.03062	100.02
3.04728	100.02
3.06395	100.01
3.08062	100.02
3.09728	100.02
3.11395	100.02
3.13062	100.02
3.14728	100.02
3.16395	100.03
3.18062	100.03
3.19728	100.03
3.21395	100.03
3.23062	100.03
3.24728	100.03
3.26395	100.03
3.28062	100.03
3.29728	100.03
3.31395	100.03
3.33062	100.04
3.34728	100.04
3.36395	100.04
3.38062	100.04
3.39728	100.05
3.41395	100.04
3.43062	100.04
3.44728	100.04
3.46395	100.04
3.48062	100.05
3.49728	100.04
3.51395	100.05
3.53062	100.05
3.54728	100.05
3.56395	100.05
3.58062	100.05
3.59728	100.05
3.61395	100.05
3.63062	100.05
3.64728	100.05
3.66395	100.05
3.68062	100.05
3.69728	100.05
3.71395	100.05
3.73062	100.05
3.74728	100.05
3.76395	100.05
3.78062	100.05
3.79728	100.05
3.81395	100.05
3.83062	100.05
3.84728	100.04
3.86395	100.05
3.88062	100.05
3.89728	100.05
3.91395	100.04
3.93062	100.05
3.94728	100.04
3.96395	100.05
3.98062	100.04
3.99728	100.05

[Status Trace (Carrier Gas Pressure)]
Interval(msec)	1000
# of Points	240
Start Time(min)	0.014
End Time(min)	3.997
Intensity Units	
Intensity Multiplier	1
R.Time (min)	Intensity
0.01395	57.95
0.03062	55.53
0.04728	57.88
0.06395	59.82
0.08062	58.69
0.09728	57.98
0.11395	57.99
0.13062	58.01
0.14728	58.01
0.16395	58.00
0.18062	58.00
0.19728	58.00
0.21395	58.00
0.23062	58.00
0.24728	58.00
0.26395	58.00
0.28062	58.00
0.29728	58.00
0.31395	58.00
0.33062	58.00
0.34728	58.00
0.36395	58.00
0.38062	58.00
0.39728	58.00
0.41395	58.00
0.43062	58.00
0.44728	58.00
0.46395	58.00
0.48062	58.00
0.49728	58.00
0.51395	58.00
0.53062	58.00
0.54728	58.00
0.56395	58.00
0.58062	58.00
0.59728	58.00
0.61395	58.00
0.63062	58.00
0.64728	58.00
0.66395	58.00
0.68062	58.00
0.69728	58.00
0.71395	58.00
0.73062	58.00
0.74728	58.00
0.76395	58.00
0.78062	58.00
0.79728	58.00
0.81395	58.00
0.83062	58.00
0.84728	58.00
0.86395	58.00
0.88062	58.00
0.89728	58.00
0.91395	58.00
0.93062	58.00
0.94728	58.00
0.96395	58.00
0.98062	58.00
0.99728	58.00
1.01395	58.00
1.03062	58.00
1.04728	58.00
1.06395	58.00
1.08062	58.00
1.09728	58.00
1.11395	58.00
1.13062	58.00
1.14728	58.00
1.16395	58.00
1.18062	58.00
1.19728	58.00
1.21395	58.00
1.23062	58.00
1.24728	58.00
1.26395	58.00
1.28062	58.00
1.29728	58.00
1.31395	58.00
1.33062	58.00
1.34728	58.00
1.36395	58.00
1.38062	58.00
1.39728	58.00
1.41395	58.00
1.43062	58.00
1.44728	58.00
1.46395	58.00
1.48062	58.00
1.49728	58.00
1.51395	58.00
1.53062	58.00
1.54728	58.00
1.56395	58.00
1.58062	58.00
1.59728	58.00
1.61395	58.00
1.63062	58.00
1.64728	58.00
1.66395	58.00
1.68062	58.01
1.69728	58.00
1.71395	58.00
1.73062	58.00
1.74728	58.00
1.76395	58.00
1.78062	58.00
1.79728	58.00
1.81395	58.00
1.83062	58.00
1.84728	58.00
1.86395	58.00
1.88062	58.00
1.89728	58.00
1.91395	58.00
1.93062	58.00
1.94728	58.00
1.96395	58.00
1.98062	58.00
1.99728	58.00
2.01395	58.00
2.03062	58.00
2.04728	58.00
2.06395	58.00
2.08062	58.00
2.09728	58.00
2.11395	58.00
2.13062	58.00
2.14728	58.00
2.16395	58.00
2.18062	58.00
2.19728	58.00
2.21395	58.00
2.23062	58.00
2.24728	58.00
2.26395	58.00
2.28062	58.00
2.29728	58.00
2.31395	58.00
2.33062	58.00
2.34728	58.00
2.36395	58.00
2.38062	57.99
2.39728	57.99
2.41395	57.99
2.43062	58.00
2.44728	58.00
2.46395	58.00
2.48062	58.00
2.49728	58.00
2.51395	57.99
2.53062	57.99
2.54728	58.00
2.56395	58.00
2.58062	58.00
2.59728	58.00
2.61395	58.00
2.63062	58.00
2.64728	58.00
2.66395	58.00
2.68062	58.00
2.69728	58.00
2.71395	58.00
2.73062	58.00
2.74728	58.00
2.76395	58.00
2.78062	58.00
2.79728	58.00
2.81395	58.00
2.83062	58.00
2.84728	58.00
2.86395	58.00
2.88062	58.00
2.89728	58.00
2.91395	58.00
2.93062	58.00
2.94728	58.00
2.96395	58.00
2.98062	58.00
2.99728	58.00
3.01395	58.00
3.03062	58.00
3.04728	58.00
3.06395	58.00
3.08062	58.00
3.09728	58.00
3.11395	58.00
3.13062	58.00
3.14728	58.00
3.16395	58.00
3.18062	58.00
3.19728	58.00
3.21395	58.00
3.23062	58.00
3.24728	58.00
3.26395	58.00
3.28062	58.00
3.29728	58.00
3.31395	58.00
3.33062	58.00
3.34728	58.00
3.36395	58.00
3.38062	58.00
3.39728	58.00
3.41395	58.00
3.43062	58.00
3.44728	58.00
3.46395	58.00
3.48062	58.00
3.49728	58.00
3.51395	58.00
3.53062	58.00
3.54728	58.00
3.56395	58.00
3.58062	58.00
3.59728	58.00
3.61395	58.00
3.63062	58.00
3.64728	58.00
3.66395	58.00
3.68062	58.00
3.69728	58.00
3.71395	58.00
3.73062	58.00
3.74728	58.00
3.76395	58.00
3.78062	58.00
3.79728	58.00
3.81395	58.00
3.83062	58.00
3.84728	58.00
3.86395	58.00
3.88062	58.00
3.89728	58.00
3.91395	58.00
3.93062	58.00
3.94728	58.00
3.96395	58.00
3.98062	58.00
3.99728	58.00

[Status Trace (Carrier Gas Flow)]
Interval(msec)	1000
# of Points	240
Start Time(min)	0.014
End Time(min)	3.997
Intensity Units	
Intensity Multiplier	1
R.Time (min)	Intensity
0.01395	34.69
0.03062	34.54
0.04728	34.54
0.06395	34.51
0.08062	34.51
0.09728	34.53
0.11395	34.52
0.13062	34.52
0.14728	34.52
0.16395	34.52
0.18062	34.52
0.19728	34.51
0.21395	34.52
0.23062	34.52
0.24728	34.52
0.26395	34.52
0.28062	34.51
0.29728	34.52
0.31395	34.52
0.33062	34.52
0.34728	34.52
0.36395	34.52
0.38062	34.52
0.39728	34.52
0.41395	34.52
0.43062	34.52
0.44728	34.52
0.46395	34.52
0.48062	34.52
0.49728	34.52
0.51395	34.52
0.53062	34.52
0.54728	34.52
0.56395	34.52
0.58062	34.52
0.59728	34.52
0.61395	34.52
0.63062	34.52
0.64728	34.52
0.66395	34.52
0.68062	34.52
0.69728	34.52
0.71395	34.52
0.73062	34.52
0.74728	34.52
0.76395	34.52
0.78062	34.52
0.79728	34.52
0.81395	34.52
0.83062	34.52
0.84728	34.52
0.86395	34.51
0.88062	34.52
0.89728	34.52
0.91395	34.53
0.93062	34.52
0.94728	34.52
0.96395	34.51
0.98062	34.52
0.99728	34.52
1.01395	34.51
1.03062	34.52
1.04728	34.53
1.06395	34.52
1.08062	34.51
1.09728	34.52
1.11395	34.52
1.13062	34.52
1.14728	34.51
1.16395	34.52
1.18062	34.52
1.19728	34.52
1.21395	34.52
1.23062	34.52
1.24728	34.52
1.26395	34.52
1.28062	34.52
1.29728	34.52
1.31395	34.52
1.33062	34.52
1.34728	34.52
1.36395	34.52
1.38062	34.51
1.39728	34.52
1.41395	34.52
1.43062	34.52
1.44728	34.52
1.46395	34.52
1.48062	34.52
1.49728	34.52
1.51395	34.51
1.53062	34.52
1.54728	34.52
1.56395	34.52
1.58062	34.52
1.59728	34.52
1.61395	34.52
1.63062	34.52
1.64728	34.52
1.66395	34.52
1.68062	34.52
1.69728	34.52
1.71395	34.51
1.73062	34.52
1.74728	34.52
1.76395	34.52
1.78062	34.52
1.79728	34.52
1.81395	34.52
1.83062	34.52
1.84728	34.52
1.86395	34.52
1.88062	34.52
1.89728	34.52
1.91395	34.52
1.93062	34.52
1.94728	34.52
1.96395	34.52
1.98062	34.52
1.99728	34.52
2.01395	34.51
2.03062	34.51
2.04728	34.52
2.06395	34.52
2.08062	34.52
2.09728	34.52
2.11395	34.52
2.13062	34.52
2.14728	34.53
2.16395	34.51
2.18062	34.52
2.19728	34.52
2.21395	34.52
2.23062	34.51
2.24728	34.52
2.26395	34.52
2.28062	34.52
2.29728	34.52
2.31395	34.52
2.33062	34.52
2.34728	34.52
2.36395	34.52
2.38062	34.51
2.39728	34.52
2.41395	34.52
2.43062	34.52
2.44728	34.51
2.46395	34.52
2.48062	34.51
2.49728	34.52
2.51395	34.52
2.53062	34.52
2.54728	34.52
2.56395	34.52
2.58062	34.51
2.59728	34.52
2.61395	34.52
2.63062	34.51
2.64728	34.52
2.66395	34.52
2.68062	34.52
2.69728	34.52
2.71395	34.52
2.73062	34.52
2.74728	34.52
2.76395	34.52
2.78062	34.52
2.79728	34.52
2.81395	34.52
2.83062	34.52
2.84728	34.51
2.86395	34.52
2.88062	34.52
2.89728	34.52
2.91395	34.52
2.93062	34.51
2.94728	34.52
2.96395	34.52
2.98062	34.52
2.99728	34.52
3.01395	34.52
3.03062	34.52
3.04728	34.52
3.06395	34.52
3.08062	34.52
3.09728	34.52
3.11395	34.52
3.13062	34.52
3.14728	34.52
3.16395	34.52
3.18062	34.52
3.19728	34.52
3.21395	34.51
3.23062	34.51
3.24728	34.52
3.26395	34.51
3.28062	34.52
3.29728	34.52
3.31395	34.52
3.33062	34.52
3.34728	34.51
3.36395	34.52
3.38062	34.52
3.39728	34.52
3.41395	34.52
3.43062	34.53
3.44728	34.52
3.46395	34.53
3.48062	34.53
3.49728	34.52
3.51395	34.52
3.53062	34.51
3.54728	34.52
3.56395	34.51
3.58062	34.52
3.59728	34.52
3.61395	34.52
3.63062	34.52
3.64728	34.52
3.66395	34.52
3.68062	34.52
3.69728	34.52
3.71395	34.51
3.73062	34.52
3.74728	34.52
3.76395	34.51
3.78062	34.52
3.79728	34.52
3.81395	34.52
3.83062	34.52
3.84728	34.52
3.86395	34.52
3.88062	34.52
3.89728	34.52
3.91395	34.52
3.93062	34.52
3.94728	34.52
3.96395	34.52
3.98062	34.52
3.99728	34.52

[Status Trace (Column Flow)]
Interval(msec)	1000
# of Points	240
Start Time(min)	0.014
End Time(min)	3.997
Intensity Units	
Intensity Multiplier	1
R.Time (min)	Intensity
0.01395	5.56
0.03062	5.28
0.04728	5.55
0.06395	5.78
0.08062	5.65
0.09728	5.56
0.11395	5.57
0.13062	5.57
0.14728	5.57
0.16395	5.57
0.18062	5.57
0.19728	5.57
0.21395	5.57
0.23062	5.57
0.24728	5.57
0.26395	5.57
0.28062	5.57
0.29728	5.57
0.31395	5.57
0.33062	5.57
0.34728	5.57
0.36395	5.57
0.38062	5.57
0.39728	5.57
0.41395	5.57
0.43062	5.57
0.44728	5.57
0.46395	5.57
0.48062	5.57
0.49728	5.57
0.51395	5.57
0.53062	5.57
0.54728	5.57
0.56395	5.57
0.58062	5.56
0.59728	5.57
0.61395	5.56
0.63062	5.57
0.64728	5.56
0.66395	5.56
0.68062	5.56
0.69728	5.57
0.71395	5.57
0.73062	5.57
0.74728	5.57
0.76395	5.57
0.78062	5.57
0.79728	5.57
0.81395	5.57
0.83062	5.57
0.84728	5.57
0.86395	5.57
0.88062	5.57
0.89728	5.57
0.91395	5.57
0.93062	5.57
0.94728	5.57
0.96395	5.57
0.98062	5.57
0.99728	5.56
1.01395	5.56
1.03062	5.56
1.04728	5.56
1.06395	5.57
1.08062	5.57
1.09728	5.57
1.11395	5.57
1.13062	5.57
1.14728	5.57
1.16395	5.57
1.18062	5.57
1.19728	5.57
1.21395	5.57
1.23062	5.57
1.24728	5.57
1.26395	5.57
1.28062	5.57
1.29728	5.57
1.31395	5.56
1.33062	5.57
1.34728	5.57
1.36395	5.57
1.38062	5.57
1.39728	5.56
1.41395	5.56
1.43062	5.56
1.44728	5.57
1.46395	5.57
1.48062	5.57
1.49728	5.57
1.51395	5.56
1.53062	5.56
1.54728	5.57
1.56395	5.57
1.58062	5.57
1.59728	5.57
1.61395	5.56
1.63062	5.56
1.64728	5.55
1.66395	5.54
1.68062	5.53
1.69728	5.52
1.71395	5.51
1.73062	5.50
1.74728	5.49
1.76395	5.48
1.78062	5.47
1.79728	5.46
1.81395	5.45
1.83062	5.44
1.84728	5.43
1.86395	5.42
1.88062	5.41
1.89728	5.40
1.91395	5.39
1.93062	5.38
1.94728	5.37
1.96395	5.36
1.98062	5.35
1.99728	5.34
2.01395	5.33
2.03062	5.32
2.04728	5.31
2.06395	5.30
2.08062	5.29
2.09728	5.28
2.11395	5.27
2.13062	5.26
2.14728	5.25
2.16395	5.24
2.18062	5.23
2.19728	5.22
2.21395	5.21
2.23062	5.20
2.24728	5.20
2.26395	5.19
2.28062	5.18
2.29728	5.17
2.31395	5.16
2.33062	5.15
2.34728	5.14
2.36395	5.13
2.38062	5.13
2.39728	5.12
2.41395	5.13
2.43062	5.13
2.44728	5.13
2.46395	5.13
2.48062	5.13
2.49728	5.13
2.51395	5.12
2.53062	5.12
2.54728	5.12
2.56395	5.12
2.58062	5.12
2.59728	5.12
2.61395	5.12
2.63062	5.12
2.64728	5.12
2.66395	5.12
2.68062	5.12
2.69728	5.12
2.71395	5.12
2.73062	5.12
2.74728	5.12
2.76395	5.12
2.78062	5.12
2.79728	5.12
2.81395	5.12
2.83062	5.12
2.84728	5.12
2.86395	5.12
2.88062	5.12
2.89728	5.12
2.91395	5.12
2.93062	5.12
2.94728	5.12
2.96395	5.12
2.98062	5.12
2.99728	5.12
3.01395	5.12
3.03062	5.12
3.04728	5.12
3.06395	5.12
3.08062	5.12
3.09728	5.12
3.11395	5.12
3.13062	5.12
3.14728	5.12
3.16395	5.12
3.18062	5.12
3.19728	5.12
3.21395	5.12
3.23062	5.12
3.24728	5.12
3.26395	5.12
3.28062	5.12
3.29728	5.12
3.31395	5.12
3.33062	5.12
3.34728	5.12
3.36395	5.12
3.38062	5.12
3.39728	5.12
3.41395	5.12
3.43062	5.12
3.44728	5.12
3.46395	5.12
3.48062	5.12
3.49728	5.12
3.51395	5.12
3.53062	5.12
3.54728	5.12
3.56395	5.12
3.58062	5.12
3.59728	5.12
3.61395	5.12
3.63062	5.12
3.64728	5.12
3.66395	5.12
3.68062	5.12
3.69728	5.12
3.71395	5.12
3.73062	5.12
3.74728	5.12
3.76395	5.12
3.78062	5.12
3.79728	5.12
3.81395	5.12
3.83062	5.12
3.84728	5.12
3.86395	5.12
3.88062	5.12
3.89728	5.12
3.91395	5.12
3.93062	5.12
3.94728	5.12
3.96395	5.12
3.98062	5.12
3.99728	5.12

[Status Trace (Linear Velocity)]
Interval(msec)	1000
# of Points	240
Start Time(min)	0.014
End Time(min)	3.997
Intensity Units	
Intensity Multiplier	1
R.Time (min)	Intensity
0.01395	38.99
0.03062	37.40
0.04728	38.95
0.06395	40.22
0.08062	39.48
0.09728	39.01
0.11395	39.02
0.13062	39.04
0.14728	39.03
0.16395	39.03
0.18062	39.03
0.19728	39.03
0.21395	39.03
0.23062	39.03
0.24728	39.03
0.26395	39.03
0.28062	39.02
0.29728	39.03
0.31395	39.03
0.33062	39.03
0.34728	39.03
0.36395	39.03
0.38062	39.03
0.39728	39.03
0.41395	39.03
0.43062	39.03
0.44728	39.03
0.46395	39.03
0.48062	39.03
0.49728	39.03
0.51395	39.03
0.53062	39.03
0.54728	39.02
0.56395	39.02
0.58062	39.02
0.59728	39.02
0.61395	39.02
0.63062	39.02
0.64728	39.02
0.66395	39.02
0.68062	39.02
0.69728	39.02
0.71395	39.02
0.73062	39.03
0.74728	39.03
0.76395	39.03
0.78062	39.03
0.79728	39.03
0.81395	39.03
0.83062	39.03
0.84728	39.03
0.86395	39.03
0.88062	39.03
0.89728	39.03
0.91395	39.03
0.93062	39.03
0.94728	39.03
0.96395	39.03
0.98062	39.02
0.99728	39.02
1.01395	39.02
1.03062	39.02
1.04728	39.02
1.06395	39.03
1.08062	39.03
1.09728	39.03
1.11395	39.03
1.13062	39.03
1.14728	39.03
1.16395	39.03
1.18062	39.03
1.19728	39.03
1.21395	39.03
1.23062	39.03
1.24728	39.03
1.26395	39.03
1.28062	39.03
1.29728	39.02
1.31395	39.02
1.33062	39.02
1.34728	39.02
1.36395	39.03
1.38062	39.02
1.39728	39.02
1.41395	39.02
1.43062	39.02
1.44728	39.03
1.46395	39.03
1.48062	39.03
1.49728	39.03
1.51395	39.02
1.53062	39.02
1.54728	39.03
1.56395	39.03
1.58062	39.03
1.59728	39.02
1.61395	39.02
1.63062	39.00
1.64728	38.98
1.66395	38.96
1.68062	38.92
1.69728	38.89
1.71395	38.85
1.73062	38.82
1.74728	38.79
1.76395	38.76
1.78062	38.73
1.79728	38.70
1.81395	38.66
1.83062	38.63
1.84728	38.61
1.86395	38.57
1.88062	38.54
1.89728	38.51
1.91395	38.48
1.93062	38.45
1.94728	38.42
1.96395	38.39
1.98062	38.36
1.99728	38.33
2.01395	38.30
2.03062	38.26
2.04728	38.24
2.06395	38.21
2.08062	38.18
2.09728	38.15
2.11395	38.12
2.13062	38.09
2.14728	38.06
2.16395	38.03
2.18062	38.00
2.19728	37.98
2.21395	37.94
2.23062	37.91
2.24728	37.88
2.26395	37.85
2.28062	37.83
2.29728	37.80
2.31395	37.76
2.33062	37.74
2.34728	37.71
2.36395	37.69
2.38062	37.66
2.39728	37.66
2.41395	37.66
2.43062	37.66
2.44728	37.66
2.46395	37.66
2.48062	37.66
2.49728	37.66
2.51395	37.66
2.53062	37.65
2.54728	37.66
2.56395	37.66
2.58062	37.66
2.59728	37.66
2.61395	37.66
2.63062	37.66
2.64728	37.66
2.66395	37.65
2.68062	37.65
2.69728	37.65
2.71395	37.66
2.73062	37.66
2.74728	37.65
2.76395	37.65
2.78062	37.65
2.79728	37.65
2.81395	37.65
2.83062	37.65
2.84728	37.65
2.86395	37.65
2.88062	37.65
2.89728	37.65
2.91395	37.65
2.93062	37.64
2.94728	37.64
2.96395	37.64
2.98062	37.64
2.99728	37.64
3.01395	37.64
3.03062	37.64
3.04728	37.64
3.06395	37.64
3.08062	37.64
3.09728	37.64
3.11395	37.64
3.13062	37.64
3.14728	37.64
3.16395	37.64
3.18062	37.64
3.19728	37.64
3.21395	37.64
3.23062	37.63
3.24728	37.63
3.26395	37.63
3.28062	37.63
3.29728	37.63
3.31395	37.64
3.33062	37.64
3.34728	37.64
3.36395	37.64
3.38062	37.64
3.39728	37.64
3.41395	37.64
3.43062	37.64
3.44728	37.64
3.46395	37.64
3.48062	37.64
3.49728	37.64
3.51395	37.64
3.53062	37.64
3.54728	37.64
3.56395	37.64
3.58062	37.64
3.59728	37.64
3.61395	37.64
3.63062	37.64
3.64728	37.64
3.66395	37.64
3.68062	37.64
3.69728	37.64
3.71395	37.64
3.73062	37.64
3.74728	37.64
3.76395	37.64
3.78062	37.64
3.79728	37.64
3.81395	37.64
3.83062	37.64
3.84728	37.64
3.86395	37.64
3.88062	37.64
3.89728	37.64
3.91395	37.64
3.93062	37.64
3.94728	37.64
3.96395	37.64
3.98062	37.64
3.99728	37.64

