[Header]
Application Name	LabSolutions
Version	5.110
Data File Name	C:\Users\User\Desktop\GC Analyses\Jack\Nachusa Grasslands Sampling\T1 Timepoint July 12th\T1_07122022_071.gcd
Output Date	3/14/2023
Output Time	3:41:01 PM

[File Information]
Type	Data File
Generated	3/8/2023 9:09:28 PM
Generated by	System Administrator
Modified	3/8/2023 9:16:04 PM
Modified by	System Administrator

[Sample Information]
Operator Name	System Administrator
Acquired	3/8/2023 9:12:03 PM
Sample Type	0:Unknown
Level	0
Sample Name	071
Sample ID	071
ISTD Amount1	1
ISTD Amount2	1
ISTD Amount3	1
ISTD Amount4	1
ISTD Amount5	1
ISTD Amount6	1
ISTD Amount7	1
ISTD Amount8	1
ISTD Amount9	1
ISTD Amount10	1
ISTD Amount11	1
ISTD Amount12	1
ISTD Amount13	1
ISTD Amount14	1
ISTD Amount15	1
ISTD Amount16	1
ISTD Amount17	1
ISTD Amount18	1
ISTD Amount19	1
ISTD Amount20	1
ISTD Amount21	1
ISTD Amount22	1
ISTD Amount23	1
ISTD Amount24	1
ISTD Amount25	1
ISTD Amount26	1
ISTD Amount27	1
ISTD Amount28	1
ISTD Amount29	1
ISTD Amount30	1
ISTD Amount31	1
ISTD Amount32	1
Sample Amount	1
Dilution Factor	1
Vial#	70
Injection Volume	1
Injection Count	1
Bar Code	

[Original Files]
Data File	C:\Users\User\Desktop\GC Analyses\Jack\Nachusa Grasslands Sampling\T1 Timepoint July 12th\T1_07122022_071.gcd
Method File	C:\LabSolutions\Data\GHG_4min_2022\ghg3_togas_w_acet_4 min_new_int.gcm
Batch File	C:\LabSolutions\Data\AutoSamplerTesting\T1_07122022.gcb
Report Format File	c:\LabSolutions\System\DEFAULT.lsr

[File Description]


[Configuration]
Instrument Name	C0B7VH3-Instrument1
Instrument #	1
Line #	1
# of Detectors	3
Detector ID	DET#1	DET#2	DET#3
Detector Name	FID	PTCD	ECD
# of Channels	1	1	1

[Peak Table(Ch1)]
# of Peaks	3
Peak#	R.Time	I.Time	F.Time	Area	Height	A/H	Conc.	Mark	ID#	Name	k'	Plate #	Plate Ht.	Tailing	Resolution	Sep.Factor	Area Ratio	Height Ratio	Conc. %	Norm Conc.
1	1.483	1.410	1.534	2551	711	3.589	18.011	   	1	CO	0.000	4395	34.133	0.000	0.000	0.000	0	0	1.903	1.903
2	1.567	1.534	1.637	20644	10312	2.002	399.167	 V 	2	CH4	0.057	11304	13.270	1.277	1.136	0.000	0	0	42.178	42.178
3	1.996	1.952	2.634	2108628	988987	2.132	529.209	   	3	CO2	0.346	17118	8.763	1.316	7.150	6.087	0	0	55.919	55.919

[Peak Table(Ch2)]
# of Peaks	0

[Peak Table(Ch3)]
# of Peaks	5
Peak#	R.Time	I.Time	F.Time	Area	Height	A/H	Conc.	Mark	ID#	Name	k'	Plate #	Plate Ht.	Tailing	Resolution	Sep.Factor	Area Ratio	Height Ratio	Conc. %	Norm Conc.
1	2.458	2.194	2.513	2734	576	4.748	0.000	   			0.000	9386	15.982	0.000	0.000	0.000	0	0	0.000	0.000
2	2.539	2.513	2.627	1093	268	4.080	0.000	 V 			0.033	4741	31.640	0.000	0.648	0.000	0	0	0.000	0.000
3	2.667	2.645	2.711	94	44	2.143	0.000	   			0.085	28772	5.213	1.537	1.220	2.591	0	0	0.000	0.000
4	2.873	2.733	3.133	62027	15659	3.961	1.584	   	1	N2O	0.169	12531	11.971	1.679	2.481	1.982	0	0	100.000	100.000
5	3.217	3.137	3.995	16152	561	28.786	0.000	   	2	SF6	0.309	349	429.700	5.282	0.871	1.832	0	0	0.000	0.000

[Compound Results(Ch1)]
# of IDs	6
ID#	Name	R.Time	Area	Height	Conc.	Curve	3rd	2nd	1st	Constant	Area Ratio	Height Ratio	Conc. %	Norm Conc.
1	CO	1.483	2551	711	18.011	Linear	0.000000e+00	0.000000e+00	1.416423e+002	0.000000e+00	0	0	1.903	1.903
2	CH4	1.567	20644	10312	399.167	Linear	0.000000e+00	0.000000e+00	5.171738e+001	0.000000e+00	0	0	42.178	42.178
3	CO2	1.996	2108628	988987	529.209	Linear	0.000000e+00	0.000000e+00	3.984494e+003	0.000000e+00	0	0	55.919	55.919
4	Ethylene	0.000	0	0	0.000	Linear	0.000000e+00	0.000000e+00	0.000000e+00	0.000000e+00	0	0	0.000	0.000
5	Acetylene	0.000	0	0	0.000	Linear	0.000000e+00	0.000000e+00	0.000000e+00	0.000000e+00	0	0	0.000	0.000
6	Ethane	0.000	0	0	0.000	Linear	0.000000e+00	0.000000e+00	0.000000e+00	0.000000e+00	0	0	0.000	0.000

[Compound Results(Ch2)]
# of IDs	5
ID#	Name	R.Time	Area	Height	Conc.	Curve	3rd	2nd	1st	Constant	Area Ratio	Height Ratio	Conc. %	Norm Conc.
1	Hydrogen	0.000	0	0	0.000	Linear	0.000000e+00	0.000000e+00	0.000000e+00	0.000000e+00	0	0	0.000	0.000
2	Oxygen	0.000	0	0	0.000	Linear	0.000000e+00	0.000000e+00	0.000000e+00	0.000000e+00	0	0	0.000	0.000
3	Nitrogen	0.000	0	0	0.000	Linear	0.000000e+00	0.000000e+00	0.000000e+00	0.000000e+00	0	0	0.000	0.000
4	Methane	0.000	0	0	0.000	Linear	0.000000e+00	0.000000e+00	0.000000e+00	0.000000e+00	0	0	0.000	0.000
5	Carbon Monoxide	0.000	0	0	0.000	Linear	0.000000e+00	0.000000e+00	0.000000e+00	0.000000e+00	0	0	0.000	0.000

[Compound Results(Ch3)]
# of IDs	2
ID#	Name	R.Time	Area	Height	Conc.	Curve	3rd	2nd	1st	Constant	Area Ratio	Height Ratio	Conc. %	Norm Conc.
1	N2O	2.873	62027	15659	1.584	Linear	0.000000e+00	0.000000e+00	3.915173e+004	0.000000e+00	0	0	100.000	100.000
2	SF6	3.217	16152	561	0.000	Linear	0.000000e+00	0.000000e+00	0.000000e+00	0.000000e+00	0	0	0.000	0.000

[Group Results(Ch1)]
# of Groups	0

[Group Results(Ch2)]
# of Groups	0

[Group Results(Ch3)]
# of Groups	0

[Chromatogram (Ch1)]
Interval(msec)	220
# of Points	1091
Start Time(min)	0.002
End Time(min)	3.998
R.Time (min)	Intensity
0.00167	1
0.00533	-5
0.00900	-9
0.01267	-10
0.01633	-6
0.02000	-3
0.02367	-2
0.02733	-1
0.03100	1
0.03467	1
0.03833	0
0.04200	3
0.04567	8
0.04933	11
0.05300	14
0.05667	16
0.06033	17
0.06400	16
0.06767	16
0.07133	18
0.07500	21
0.07867	24
0.08233	25
0.08600	21
0.08967	18
0.09333	12
0.09700	8
0.10067	11
0.10433	12
0.10800	9
0.11167	2
0.11533	-3
0.11900	-6
0.12267	-10
0.12633	-16
0.13000	-22
0.13367	-21
0.13733	-18
0.14100	-12
0.14467	-9
0.14833	-5
0.15200	-4
0.15567	-7
0.15933	-9
0.16300	-10
0.16667	-9
0.17033	-6
0.17400	-3
0.17767	-0
0.18133	2
0.18500	5
0.18867	5
0.19233	4
0.19600	6
0.19967	9
0.20333	10
0.20700	9
0.21067	10
0.21433	18
0.21800	29
0.22167	32
0.22533	29
0.22900	24
0.23267	21
0.23633	17
0.24000	13
0.24367	11
0.24733	10
0.25100	13
0.25467	13
0.25833	11
0.26200	7
0.26567	6
0.26933	6
0.27300	9
0.27667	11
0.28033	12
0.28400	18
0.28767	24
0.29133	27
0.29500	29
0.29867	29
0.30233	30
0.30600	34
0.30967	39
0.31333	40
0.31700	35
0.32067	28
0.32433	20
0.32800	16
0.33167	19
0.33533	26
0.33900	35
0.34267	40
0.34633	44
0.35000	46
0.35367	46
0.35733	45
0.36100	47
0.36467	50
0.36833	55
0.37200	61
0.37567	64
0.37933	67
0.38300	69
0.38667	66
0.39033	62
0.39400	54
0.39767	49
0.40133	46
0.40500	46
0.40867	50
0.41233	53
0.41600	52
0.41967	46
0.42333	37
0.42700	28
0.43067	22
0.43433	19
0.43800	21
0.44167	22
0.44533	21
0.44900	21
0.45267	23
0.45633	22
0.46000	18
0.46367	12
0.46733	9
0.47100	11
0.47467	12
0.47833	10
0.48200	11
0.48567	18
0.48933	26
0.49300	26
0.49667	22
0.50033	21
0.50400	21
0.50767	22
0.51133	22
0.51500	18
0.51867	11
0.52233	6
0.52600	6
0.52967	7
0.53333	9
0.53700	11
0.54067	12
0.54433	16
0.54800	15
0.55167	9
0.55533	5
0.55900	-1
0.56267	-7
0.56633	-7
0.57000	-4
0.57367	8
0.57733	20
0.58100	24
0.58467	22
0.58833	15
0.59200	10
0.59567	8
0.59933	8
0.60300	8
0.60667	4
0.61033	-2
0.61400	-6
0.61767	-6
0.62133	-1
0.62500	4
0.62867	11
0.63233	18
0.63600	21
0.63967	18
0.64333	10
0.64700	-1
0.65067	-9
0.65433	-15
0.65800	-21
0.66167	-25
0.66533	-28
0.66900	-29
0.67267	-30
0.67633	-27
0.68000	-18
0.68367	-10
0.68733	-7
0.69100	-7
0.69467	-7
0.69833	-4
0.70200	0
0.70567	4
0.70933	9
0.71300	14
0.71667	17
0.72033	13
0.72400	4
0.72767	-3
0.73133	-8
0.73500	-8
0.73867	-12
0.74233	-17
0.74600	-18
0.74967	-20
0.75333	-23
0.75700	-20
0.76067	-14
0.76433	-5
0.76800	-0
0.77167	-6
0.77533	-13
0.77900	-12
0.78267	-6
0.78633	2
0.79000	7
0.79367	6
0.79733	1
0.80100	-2
0.80467	-2
0.80833	3
0.81200	7
0.81567	7
0.81933	2
0.82300	-3
0.82667	-2
0.83033	-4
0.83400	-8
0.83767	-9
0.84133	-7
0.84500	-5
0.84867	-3
0.85233	-2
0.85600	-4
0.85967	-7
0.86333	-10
0.86700	-13
0.87067	-18
0.87433	-18
0.87800	-16
0.88167	-14
0.88533	-11
0.88900	-8
0.89267	-6
0.89633	-5
0.90000	-2
0.90367	1
0.90733	4
0.91100	3
0.91467	-4
0.91833	-11
0.92200	-19
0.92567	-23
0.92933	-24
0.93300	-22
0.93667	-17
0.94033	-9
0.94400	-2
0.94767	3
0.95133	5
0.95500	9
0.95867	14
0.96233	19
0.96600	22
0.96967	22
0.97333	17
0.97700	13
0.98067	12
0.98433	14
0.98800	18
0.99167	21
0.99533	25
0.99900	28
1.00267	28
1.00633	30
1.01000	33
1.01367	32
1.01733	30
1.02100	28
1.02467	31
1.02833	33
1.03200	35
1.03567	32
1.03933	26
1.04300	23
1.04667	22
1.05033	21
1.05400	19
1.05767	16
1.06133	13
1.06500	11
1.06867	12
1.07233	21
1.07600	35
1.07967	46
1.08333	52
1.08700	52
1.09067	47
1.09433	43
1.09800	42
1.10167	44
1.10533	44
1.10900	42
1.11267	36
1.11633	28
1.12000	20
1.12367	15
1.12733	15
1.13100	18
1.13467	24
1.13833	32
1.14200	38
1.14567	40
1.14933	38
1.15300	36
1.15667	34
1.16033	32
1.16400	26
1.16767	21
1.17133	18
1.17500	16
1.17867	13
1.18233	9
1.18600	6
1.18967	6
1.19333	10
1.19700	12
1.20067	12
1.20433	11
1.20800	8
1.21167	8
1.21533	10
1.21900	15
1.22267	20
1.22633	24
1.23000	27
1.23367	31
1.23733	33
1.24100	29
1.24467	24
1.24833	25
1.25200	32
1.25567	38
1.25933	42
1.26300	43
1.26667	43
1.27033	39
1.27400	35
1.27767	35
1.28133	32
1.28500	24
1.28867	16
1.29233	14
1.29600	20
1.29967	31
1.30333	39
1.30700	37
1.31067	29
1.31433	22
1.31800	19
1.32167	20
1.32533	22
1.32900	19
1.33267	15
1.33633	12
1.34000	11
1.34367	10
1.34733	7
1.35100	2
1.35467	-1
1.35833	-4
1.36200	-2
1.36567	1
1.36933	5
1.37300	13
1.37667	21
1.38033	21
1.38400	17
1.38767	12
1.39133	4
1.39500	-3
1.39867	-7
1.40233	-5
1.40600	2
1.40967	10
1.41333	20
1.41700	27
1.42067	30
1.42433	31
1.42800	28
1.43167	23
1.43533	21
1.43900	36
1.44267	116
1.44633	278
1.45000	458
1.45367	593
1.45733	669
1.46100	700
1.46467	702
1.46833	692
1.47200	688
1.47567	701
1.47933	721
1.48300	730
1.48667	712
1.49033	666
1.49400	601
1.49767	524
1.50133	449
1.50500	383
1.50867	325
1.51233	278
1.51600	240
1.51967	208
1.52333	183
1.52700	159
1.53067	138
1.53433	130
1.53800	181
1.54167	472
1.54533	1307
1.54900	2826
1.55267	4794
1.55633	6780
1.56000	8457
1.56367	9677
1.56733	10341
1.57100	10309
1.57467	9510
1.57833	8095
1.58200	6402
1.58567	4772
1.58933	3399
1.59300	2344
1.59667	1585
1.60033	1067
1.60400	721
1.60767	493
1.61133	344
1.61500	246
1.61867	178
1.62233	128
1.62600	91
1.62967	66
1.63333	47
1.63700	38
1.64067	35
1.64433	37
1.64800	39
1.65167	37
1.65533	30
1.65900	20
1.66267	13
1.66633	6
1.67000	3
1.67367	2
1.67733	1
1.68100	5
1.68467	12
1.68833	17
1.69200	24
1.69567	31
1.69933	36
1.70300	40
1.70667	42
1.71033	32
1.71400	17
1.71767	3
1.72133	-6
1.72500	-8
1.72867	-8
1.73233	-8
1.73600	-2
1.73967	6
1.74333	11
1.74700	9
1.75067	4
1.75433	-1
1.75800	-6
1.76167	-11
1.76533	-15
1.76900	-16
1.77267	-13
1.77633	-13
1.78000	-12
1.78367	-6
1.78733	0
1.79100	5
1.79467	8
1.79833	14
1.80200	18
1.80567	19
1.80933	14
1.81300	11
1.81667	13
1.82033	18
1.82400	21
1.82767	21
1.83133	19
1.83500	16
1.83867	11
1.84233	9
1.84600	10
1.84967	12
1.85333	14
1.85700	22
1.86067	27
1.86433	24
1.86800	20
1.87167	16
1.87533	14
1.87900	13
1.88267	15
1.88633	18
1.89000	24
1.89367	34
1.89733	46
1.90100	54
1.90467	55
1.90833	48
1.91200	39
1.91567	35
1.91933	32
1.92300	28
1.92667	24
1.93033	25
1.93400	31
1.93767	39
1.94133	40
1.94500	34
1.94867	26
1.95233	39
1.95600	181
1.95967	1069
1.96333	5210
1.96700	19816
1.97067	59369
1.97433	142155
1.97800	277466
1.98167	453760
1.98533	642040
1.98900	809699
1.99267	930821
1.99633	989053
2.00000	978263
2.00367	903853
2.00733	782644
2.01100	638274
2.01467	494070
2.01833	366678
2.02200	263877
2.02567	186235
2.02933	130285
2.03300	91232
2.03667	64520
2.04033	46441
2.04400	34234
2.04767	25961
2.05133	20295
2.05500	16355
2.05867	13556
2.06233	11517
2.06600	9991
2.06967	8819
2.07333	7897
2.07700	7152
2.08067	6541
2.08433	6029
2.08800	5595
2.09167	5225
2.09533	4900
2.09900	4612
2.10267	4353
2.10633	4118
2.11000	3905
2.11367	3712
2.11733	3537
2.12100	3379
2.12467	3236
2.12833	3107
2.13200	2987
2.13567	2873
2.13933	2765
2.14300	2666
2.14667	2572
2.15033	2482
2.15400	2397
2.15767	2320
2.16133	2247
2.16500	2174
2.16867	2103
2.17233	2039
2.17600	1985
2.17967	1941
2.18333	1898
2.18700	1855
2.19067	1812
2.19433	1765
2.19800	1716
2.20167	1666
2.20533	1618
2.20900	1574
2.21267	1535
2.21633	1501
2.22000	1470
2.22367	1441
2.22733	1411
2.23100	1377
2.23467	1343
2.23833	1314
2.24200	1292
2.24567	1272
2.24933	1250
2.25300	1228
2.25667	1209
2.26033	1186
2.26400	1160
2.26767	1139
2.27133	1121
2.27500	1102
2.27867	1087
2.28233	1072
2.28600	1055
2.28967	1037
2.29333	1019
2.29700	1004
2.30067	996
2.30433	991
2.30800	976
2.31167	954
2.31533	934
2.31900	917
2.32267	901
2.32633	888
2.33000	874
2.33367	859
2.33733	847
2.34100	837
2.34467	831
2.34833	825
2.35200	823
2.35567	820
2.35933	812
2.36300	799
2.36667	786
2.37033	777
2.37400	767
2.37767	760
2.38133	755
2.38500	751
2.38867	746
2.39233	737
2.39600	726
2.39967	716
2.40333	711
2.40700	709
2.41067	706
2.41433	704
2.41800	701
2.42167	700
2.42533	701
2.42900	700
2.43267	700
2.43633	695
2.44000	682
2.44367	667
2.44733	657
2.45100	649
2.45467	641
2.45833	629
2.46200	622
2.46567	615
2.46933	609
2.47300	608
2.47667	613
2.48033	619
2.48400	620
2.48767	613
2.49133	604
2.49500	592
2.49867	580
2.50233	569
2.50600	562
2.50967	559
2.51333	559
2.51700	560
2.52067	563
2.52433	563
2.52800	559
2.53167	553
2.53533	548
2.53900	543
2.54267	533
2.54633	522
2.55000	517
2.55367	519
2.55733	520
2.56100	516
2.56467	510
2.56833	503
2.57200	500
2.57567	498
2.57933	497
2.58300	497
2.58667	497
2.59033	495
2.59400	492
2.59767	491
2.60133	496
2.60500	497
2.60867	495
2.61233	490
2.61600	486
2.61967	486
2.62333	484
2.62700	478
2.63067	473
2.63433	471
2.63800	469
2.64167	471
2.64533	476
2.64900	481
2.65267	480
2.65633	476
2.66000	472
2.66367	472
2.66733	472
2.67100	472
2.67467	466
2.67833	460
2.68200	457
2.68567	453
2.68933	449
2.69300	452
2.69667	459
2.70033	462
2.70400	460
2.70767	455
2.71133	451
2.71500	446
2.71867	441
2.72233	435
2.72600	427
2.72967	422
2.73333	423
2.73700	425
2.74067	425
2.74433	423
2.74800	422
2.75167	423
2.75533	426
2.75900	427
2.76267	425
2.76633	427
2.77000	433
2.77367	434
2.77733	427
2.78100	417
2.78467	410
2.78833	407
2.79200	406
2.79567	405
2.79933	406
2.80300	407
2.80667	407
2.81033	403
2.81400	404
2.81767	409
2.82133	416
2.82500	423
2.82867	429
2.83233	429
2.83600	425
2.83967	418
2.84333	411
2.84700	405
2.85067	403
2.85433	404
2.85800	404
2.86167	403
2.86533	401
2.86900	398
2.87267	391
2.87633	387
2.88000	389
2.88367	389
2.88733	388
2.89100	382
2.89467	377
2.89833	378
2.90200	385
2.90567	392
2.90933	396
2.91300	392
2.91667	387
2.92033	384
2.92400	380
2.92767	378
2.93133	378
2.93500	382
2.93867	387
2.94233	393
2.94600	396
2.94967	394
2.95333	387
2.95700	380
2.96067	375
2.96433	375
2.96800	377
2.97167	381
2.97533	383
2.97900	384
2.98267	382
2.98633	381
2.99000	382
2.99367	382
2.99733	379
3.00100	378
3.00467	377
3.00833	379
3.01200	382
3.01567	387
3.01933	391
3.02300	388
3.02667	376
3.03033	363
3.03400	354
3.03767	349
3.04133	351
3.04500	357
3.04867	363
3.05233	366
3.05600	366
3.05967	366
3.06333	366
3.06700	368
3.07067	372
3.07433	379
3.07800	387
3.08167	386
3.08533	381
3.08900	374
3.09267	367
3.09633	364
3.10000	368
3.10367	377
3.10733	380
3.11100	375
3.11467	368
3.11833	361
3.12200	353
3.12567	338
3.12933	323
3.13300	315
3.13667	311
3.14033	314
3.14400	325
3.14767	337
3.15133	344
3.15500	346
3.15867	343
3.16233	332
3.16600	319
3.16967	308
3.17333	307
3.17700	312
3.18067	318
3.18433	321
3.18800	322
3.19167	319
3.19533	312
3.19900	310
3.20267	314
3.20633	326
3.21000	335
3.21367	339
3.21733	339
3.22100	332
3.22467	330
3.22833	331
3.23200	332
3.23567	333
3.23933	331
3.24300	327
3.24667	323
3.25033	316
3.25400	309
3.25767	308
3.26133	314
3.26500	320
3.26867	320
3.27233	319
3.27600	316
3.27967	313
3.28333	317
3.28700	319
3.29067	313
3.29433	305
3.29800	300
3.30167	299
3.30533	298
3.30900	297
3.31267	297
3.31633	298
3.32000	301
3.32367	303
3.32733	304
3.33100	302
3.33467	300
3.33833	301
3.34200	302
3.34567	304
3.34933	303
3.35300	302
3.35667	301
3.36033	303
3.36400	307
3.36767	305
3.37133	301
3.37500	291
3.37867	280
3.38233	274
3.38600	271
3.38967	272
3.39333	281
3.39700	289
3.40067	292
3.40433	293
3.40800	293
3.41167	293
3.41533	295
3.41900	296
3.42267	296
3.42633	291
3.43000	285
3.43367	282
3.43733	281
3.44100	284
3.44467	291
3.44833	298
3.45200	302
3.45567	306
3.45933	312
3.46300	317
3.46667	317
3.47033	311
3.47400	297
3.47767	285
3.48133	277
3.48500	272
3.48867	270
3.49233	267
3.49600	268
3.49967	270
3.50333	271
3.50700	273
3.51067	276
3.51433	276
3.51800	275
3.52167	275
3.52533	275
3.52900	275
3.53267	280
3.53633	283
3.54000	278
3.54367	268
3.54733	262
3.55100	259
3.55467	263
3.55833	272
3.56200	276
3.56567	274
3.56933	275
3.57300	277
3.57667	278
3.58033	274
3.58400	265
3.58767	257
3.59133	251
3.59500	247
3.59867	244
3.60233	246
3.60600	252
3.60967	257
3.61333	258
3.61700	254
3.62067	253
3.62433	256
3.62800	260
3.63167	264
3.63533	267
3.63900	269
3.64267	269
3.64633	261
3.65000	251
3.65367	241
3.65733	234
3.66100	230
3.66467	234
3.66833	240
3.67200	245
3.67567	242
3.67933	236
3.68300	230
3.68667	224
3.69033	234
3.69400	253
3.69767	270
3.70133	277
3.70500	273
3.70867	261
3.71233	248
3.71600	238
3.71967	229
3.72333	221
3.72700	217
3.73067	223
3.73433	236
3.73800	237
3.74167	228
3.74533	219
3.74900	213
3.75267	209
3.75633	207
3.76000	208
3.76367	216
3.76733	227
3.77100	237
3.77467	254
3.77833	258
3.78200	254
3.78567	245
3.78933	237
3.79300	230
3.79667	228
3.80033	226
3.80400	223
3.80767	223
3.81133	226
3.81500	232
3.81867	233
3.82233	232
3.82600	231
3.82967	228
3.83333	224
3.83700	219
3.84067	212
3.84433	209
3.84800	210
3.85167	213
3.85533	216
3.85900	219
3.86267	221
3.86633	222
3.87000	226
3.87367	232
3.87733	238
3.88100	242
3.88467	242
3.88833	243
3.89200	240
3.89567	230
3.89933	219
3.90300	208
3.90667	199
3.91033	190
3.91400	184
3.91767	181
3.92133	180
3.92500	182
3.92867	189
3.93233	197
3.93600	202
3.93967	201
3.94333	199
3.94700	200
3.95067	203
3.95433	210
3.95800	219
3.96167	223
3.96533	222
3.96900	220
3.97267	215
3.97633	207
3.98000	201
3.98367	196
3.98733	194
3.99100	196
3.99467	204
3.99833	208

[Chromatogram (Ch2)]
Interval(msec)	220
# of Points	1091
Start Time(min)	0.002
End Time(min)	3.998
R.Time (min)	Intensity
0.00167	-0
0.00533	-1
0.00900	-1
0.01267	-1
0.01633	-1
0.02000	-1
0.02367	-1
0.02733	-1
0.03100	-1
0.03467	-1
0.03833	-1
0.04200	-1
0.04567	-1
0.04933	0
0.05300	1
0.05667	1
0.06033	2
0.06400	3
0.06767	3
0.07133	4
0.07500	4
0.07867	5
0.08233	5
0.08600	5
0.08967	6
0.09333	6
0.09700	6
0.10067	6
0.10433	6
0.10800	6
0.11167	6
0.11533	6
0.11900	6
0.12267	6
0.12633	6
0.13000	6
0.13367	6
0.13733	6
0.14100	6
0.14467	6
0.14833	6
0.15200	6
0.15567	6
0.15933	6
0.16300	6
0.16667	6
0.17033	5
0.17400	5
0.17767	4
0.18133	4
0.18500	4
0.18867	4
0.19233	4
0.19600	4
0.19967	4
0.20333	4
0.20700	4
0.21067	4
0.21433	4
0.21800	4
0.22167	4
0.22533	4
0.22900	4
0.23267	4
0.23633	3
0.24000	3
0.24367	3
0.24733	3
0.25100	3
0.25467	3
0.25833	3
0.26200	2
0.26567	2
0.26933	1
0.27300	1
0.27667	1
0.28033	0
0.28400	0
0.28767	-0
0.29133	-0
0.29500	-0
0.29867	-0
0.30233	-0
0.30600	0
0.30967	1
0.31333	1
0.31700	2
0.32067	2
0.32433	2
0.32800	2
0.33167	2
0.33533	2
0.33900	1
0.34267	1
0.34633	2
0.35000	2
0.35367	2
0.35733	2
0.36100	2
0.36467	2
0.36833	3
0.37200	3
0.37567	3
0.37933	3
0.38300	3
0.38667	3
0.39033	3
0.39400	3
0.39767	3
0.40133	3
0.40500	3
0.40867	3
0.41233	3
0.41600	3
0.41967	3
0.42333	3
0.42700	2
0.43067	2
0.43433	2
0.43800	1
0.44167	1
0.44533	0
0.44900	-1
0.45267	-1
0.45633	-1
0.46000	-1
0.46367	-1
0.46733	-1
0.47100	-2
0.47467	-2
0.47833	-2
0.48200	-2
0.48567	-2
0.48933	-2
0.49300	-2
0.49667	-2
0.50033	-1
0.50400	-1
0.50767	-1
0.51133	-1
0.51500	-1
0.51867	-1
0.52233	-1
0.52600	-1
0.52967	-0
0.53333	-0
0.53700	-1
0.54067	-1
0.54433	-1
0.54800	-0
0.55167	-0
0.55533	0
0.55900	1
0.56267	1
0.56633	2
0.57000	2
0.57367	3
0.57733	3
0.58100	3
0.58467	3
0.58833	3
0.59200	3
0.59567	3
0.59933	4
0.60300	4
0.60667	4
0.61033	5
0.61400	5
0.61767	5
0.62133	5
0.62500	5
0.62867	5
0.63233	6
0.63600	6
0.63967	6
0.64333	6
0.64700	7
0.65067	6
0.65433	6
0.65800	6
0.66167	5
0.66533	5
0.66900	4
0.67267	4
0.67633	4
0.68000	4
0.68367	4
0.68733	3
0.69100	3
0.69467	3
0.69833	2
0.70200	2
0.70567	1
0.70933	1
0.71300	0
0.71667	-0
0.72033	-1
0.72400	-1
0.72767	-1
0.73133	-1
0.73500	-1
0.73867	-1
0.74233	-1
0.74600	-1
0.74967	-1
0.75333	-1
0.75700	-1
0.76067	-1
0.76433	-0
0.76800	-0
0.77167	-0
0.77533	-0
0.77900	0
0.78267	0
0.78633	0
0.79000	0
0.79367	1
0.79733	1
0.80100	1
0.80467	2
0.80833	2
0.81200	2
0.81567	2
0.81933	2
0.82300	2
0.82667	2
0.83033	2
0.83400	2
0.83767	2
0.84133	2
0.84500	1
0.84867	1
0.85233	0
0.85600	-0
0.85967	-1
0.86333	-1
0.86700	-1
0.87067	-2
0.87433	-2
0.87800	-2
0.88167	-2
0.88533	-2
0.88900	-2
0.89267	-2
0.89633	-1
0.90000	-0
0.90367	-0
0.90733	0
0.91100	0
0.91467	1
0.91833	1
0.92200	1
0.92567	1
0.92933	1
0.93300	1
0.93667	2
0.94033	2
0.94400	3
0.94767	4
0.95133	4
0.95500	4
0.95867	4
0.96233	4
0.96600	4
0.96967	4
0.97333	4
0.97700	4
0.98067	3
0.98433	3
0.98800	3
0.99167	3
0.99533	3
0.99900	3
1.00267	3
1.00633	3
1.01000	3
1.01367	3
1.01733	3
1.02100	3
1.02467	3
1.02833	3
1.03200	3
1.03567	3
1.03933	3
1.04300	2
1.04667	2
1.05033	2
1.05400	1
1.05767	1
1.06133	1
1.06500	2
1.06867	2
1.07233	2
1.07600	2
1.07967	2
1.08333	2
1.08700	2
1.09067	2
1.09433	2
1.09800	3
1.10167	3
1.10533	3
1.10900	3
1.11267	3
1.11633	3
1.12000	3
1.12367	3
1.12733	3
1.13100	2
1.13467	2
1.13833	2
1.14200	2
1.14567	2
1.14933	2
1.15300	2
1.15667	2
1.16033	2
1.16400	2
1.16767	2
1.17133	2
1.17500	2
1.17867	1
1.18233	1
1.18600	1
1.18967	0
1.19333	0
1.19700	-0
1.20067	-0
1.20433	-1
1.20800	-1
1.21167	-1
1.21533	-2
1.21900	-2
1.22267	-2
1.22633	-2
1.23000	-2
1.23367	-2
1.23733	-1
1.24100	-1
1.24467	-1
1.24833	-1
1.25200	-1
1.25567	-1
1.25933	-2
1.26300	-2
1.26667	-2
1.27033	-2
1.27400	-2
1.27767	-1
1.28133	-1
1.28500	-1
1.28867	-1
1.29233	-0
1.29600	-0
1.29967	-0
1.30333	0
1.30700	1
1.31067	1
1.31433	1
1.31800	2
1.32167	2
1.32533	2
1.32900	2
1.33267	3
1.33633	3
1.34000	3
1.34367	4
1.34733	4
1.35100	4
1.35467	4
1.35833	5
1.36200	5
1.36567	4
1.36933	4
1.37300	4
1.37667	3
1.38033	3
1.38400	3
1.38767	3
1.39133	3
1.39500	3
1.39867	2
1.40233	2
1.40600	2
1.40967	2
1.41333	2
1.41700	3
1.42067	3
1.42433	3
1.42800	3
1.43167	4
1.43533	4
1.43900	4
1.44267	4
1.44633	4
1.45000	4
1.45367	4
1.45733	5
1.46100	5
1.46467	5
1.46833	4
1.47200	4
1.47567	4
1.47933	3
1.48300	3
1.48667	3
1.49033	3
1.49400	2
1.49767	2
1.50133	1
1.50500	1
1.50867	0
1.51233	-0
1.51600	-1
1.51967	-1
1.52333	-1
1.52700	-1
1.53067	-1
1.53433	-1
1.53800	-1
1.54167	-1
1.54533	-1
1.54900	-0
1.55267	-0
1.55633	-0
1.56000	-0
1.56367	-0
1.56733	-0
1.57100	-0
1.57467	-0
1.57833	-0
1.58200	-1
1.58567	-1
1.58933	-1
1.59300	-1
1.59667	-1
1.60033	-2
1.60400	-3
1.60767	-5
1.61133	-6
1.61500	-8
1.61867	-10
1.62233	-12
1.62600	-15
1.62967	-18
1.63333	-20
1.63700	-23
1.64067	-27
1.64433	-30
1.64800	-33
1.65167	-36
1.65533	-40
1.65900	-43
1.66267	-47
1.66633	-51
1.67000	-56
1.67367	-61
1.67733	-66
1.68100	-72
1.68467	-77
1.68833	-82
1.69200	-87
1.69567	-90
1.69933	-94
1.70300	-97
1.70667	-99
1.71033	-101
1.71400	-103
1.71767	-104
1.72133	-105
1.72500	-106
1.72867	-106
1.73233	-107
1.73600	-108
1.73967	-108
1.74333	-110
1.74700	-111
1.75067	-112
1.75433	-113
1.75800	-113
1.76167	-113
1.76533	-113
1.76900	-113
1.77267	-113
1.77633	-112
1.78000	-111
1.78367	-110
1.78733	-110
1.79100	-110
1.79467	-110
1.79833	-110
1.80200	-111
1.80567	-111
1.80933	-112
1.81300	-113
1.81667	-113
1.82033	-114
1.82400	-114
1.82767	-115
1.83133	-115
1.83500	-115
1.83867	-114
1.84233	-114
1.84600	-114
1.84967	-114
1.85333	-114
1.85700	-114
1.86067	-113
1.86433	-113
1.86800	-113
1.87167	-113
1.87533	-113
1.87900	-113
1.88267	-113
1.88633	-113
1.89000	-113
1.89367	-112
1.89733	-112
1.90100	-112
1.90467	-111
1.90833	-111
1.91200	-111
1.91567	-111
1.91933	-110
1.92300	-110
1.92667	-110
1.93033	-110
1.93400	-110
1.93767	-110
1.94133	-111
1.94500	-111
1.94867	-111
1.95233	-111
1.95600	-110
1.95967	-109
1.96333	-108
1.96700	-107
1.97067	-107
1.97433	-106
1.97800	-106
1.98167	-106
1.98533	-106
1.98900	-106
1.99267	-105
1.99633	-105
2.00000	-105
2.00367	-105
2.00733	-105
2.01100	-105
2.01467	-105
2.01833	-105
2.02200	-105
2.02567	-106
2.02933	-106
2.03300	-106
2.03667	-105
2.04033	-105
2.04400	-104
2.04767	-104
2.05133	-104
2.05500	-103
2.05867	-103
2.06233	-103
2.06600	-102
2.06967	-102
2.07333	-101
2.07700	-100
2.08067	-100
2.08433	-99
2.08800	-99
2.09167	-98
2.09533	-98
2.09900	-98
2.10267	-98
2.10633	-98
2.11000	-98
2.11367	-98
2.11733	-97
2.12100	-97
2.12467	-97
2.12833	-97
2.13200	-97
2.13567	-97
2.13933	-97
2.14300	-97
2.14667	-97
2.15033	-96
2.15400	-96
2.15767	-95
2.16133	-95
2.16500	-95
2.16867	-95
2.17233	-94
2.17600	-94
2.17967	-93
2.18333	-93
2.18700	-92
2.19067	-92
2.19433	-91
2.19800	-91
2.20167	-90
2.20533	-89
2.20900	-88
2.21267	-87
2.21633	-87
2.22000	-86
2.22367	-86
2.22733	-86
2.23100	-85
2.23467	-84
2.23833	-84
2.24200	-84
2.24567	-84
2.24933	-84
2.25300	-84
2.25667	-83
2.26033	-83
2.26400	-83
2.26767	-82
2.27133	-82
2.27500	-82
2.27867	-81
2.28233	-81
2.28600	-80
2.28967	-80
2.29333	-79
2.29700	-79
2.30067	-79
2.30433	-79
2.30800	-79
2.31167	-79
2.31533	-79
2.31900	-78
2.32267	-78
2.32633	-77
2.33000	-77
2.33367	-78
2.33733	-78
2.34100	-78
2.34467	-78
2.34833	-78
2.35200	-78
2.35567	-78
2.35933	-77
2.36300	-76
2.36667	-74
2.37033	-71
2.37400	-68
2.37767	-65
2.38133	-61
2.38500	-56
2.38867	-51
2.39233	-47
2.39600	-42
2.39967	-37
2.40333	-33
2.40700	-29
2.41067	-25
2.41433	-22
2.41800	-20
2.42167	-17
2.42533	-15
2.42900	-13
2.43267	-12
2.43633	-10
2.44000	-9
2.44367	-8
2.44733	-7
2.45100	-6
2.45467	-4
2.45833	-3
2.46200	-1
2.46567	1
2.46933	2
2.47300	4
2.47667	5
2.48033	6
2.48400	7
2.48767	8
2.49133	9
2.49500	10
2.49867	11
2.50233	12
2.50600	13
2.50967	14
2.51333	15
2.51700	15
2.52067	16
2.52433	17
2.52800	17
2.53167	17
2.53533	18
2.53900	19
2.54267	19
2.54633	19
2.55000	19
2.55367	19
2.55733	19
2.56100	19
2.56467	19
2.56833	19
2.57200	19
2.57567	19
2.57933	19
2.58300	19
2.58667	20
2.59033	20
2.59400	21
2.59767	21
2.60133	22
2.60500	22
2.60867	22
2.61233	22
2.61600	23
2.61967	23
2.62333	23
2.62700	24
2.63067	24
2.63433	24
2.63800	25
2.64167	25
2.64533	25
2.64900	25
2.65267	25
2.65633	24
2.66000	24
2.66367	24
2.66733	24
2.67100	24
2.67467	24
2.67833	24
2.68200	24
2.68567	25
2.68933	25
2.69300	25
2.69667	25
2.70033	25
2.70400	26
2.70767	26
2.71133	26
2.71500	26
2.71867	26
2.72233	26
2.72600	26
2.72967	27
2.73333	27
2.73700	27
2.74067	28
2.74433	28
2.74800	28
2.75167	29
2.75533	29
2.75900	30
2.76267	31
2.76633	31
2.77000	32
2.77367	32
2.77733	33
2.78100	33
2.78467	33
2.78833	33
2.79200	33
2.79567	32
2.79933	31
2.80300	30
2.80667	30
2.81033	29
2.81400	29
2.81767	29
2.82133	29
2.82500	29
2.82867	29
2.83233	28
2.83600	28
2.83967	25
2.84333	22
2.84700	16
2.85067	6
2.85433	-6
2.85800	-24
2.86167	-46
2.86533	-73
2.86900	-105
2.87267	-143
2.87633	-186
2.88000	-235
2.88367	-289
2.88733	-348
2.89100	-410
2.89467	-477
2.89833	-548
2.90200	-622
2.90567	-699
2.90933	-779
2.91300	-861
2.91667	-946
2.92033	-1033
2.92400	-1121
2.92767	-1211
2.93133	-1303
2.93500	-1394
2.93867	-1475
2.94233	-1532
2.94600	-1557
2.94967	-1545
2.95333	-1499
2.95700	-1425
2.96067	-1331
2.96433	-1225
2.96800	-1113
2.97167	-1000
2.97533	-891
2.97900	-788
2.98267	-692
2.98633	-604
2.99000	-525
2.99367	-455
2.99733	-392
3.00100	-337
3.00467	-289
3.00833	-248
3.01200	-211
3.01567	-180
3.01933	-153
3.02300	-130
3.02667	-110
3.03033	-92
3.03400	-78
3.03767	-65
3.04133	-54
3.04500	-45
3.04867	-37
3.05233	-30
3.05600	-24
3.05967	-19
3.06333	-14
3.06700	-10
3.07067	-7
3.07433	-4
3.07800	-1
3.08167	1
3.08533	3
3.08900	4
3.09267	6
3.09633	7
3.10000	8
3.10367	9
3.10733	10
3.11100	10
3.11467	11
3.11833	12
3.12200	12
3.12567	13
3.12933	14
3.13300	15
3.13667	16
3.14033	16
3.14400	17
3.14767	18
3.15133	18
3.15500	19
3.15867	20
3.16233	20
3.16600	21
3.16967	22
3.17333	22
3.17700	23
3.18067	24
3.18433	24
3.18800	24
3.19167	25
3.19533	25
3.19900	26
3.20267	26
3.20633	26
3.21000	27
3.21367	27
3.21733	27
3.22100	27
3.22467	27
3.22833	27
3.23200	27
3.23567	27
3.23933	27
3.24300	27
3.24667	28
3.25033	28
3.25400	28
3.25767	28
3.26133	28
3.26500	28
3.26867	28
3.27233	28
3.27600	27
3.27967	27
3.28333	28
3.28700	28
3.29067	28
3.29433	29
3.29800	29
3.30167	29
3.30533	29
3.30900	29
3.31267	29
3.31633	29
3.32000	29
3.32367	29
3.32733	29
3.33100	29
3.33467	29
3.33833	29
3.34200	29
3.34567	29
3.34933	29
3.35300	29
3.35667	29
3.36033	28
3.36400	28
3.36767	28
3.37133	28
3.37500	28
3.37867	28
3.38233	28
3.38600	28
3.38967	29
3.39333	29
3.39700	29
3.40067	29
3.40433	29
3.40800	29
3.41167	29
3.41533	29
3.41900	29
3.42267	29
3.42633	29
3.43000	29
3.43367	30
3.43733	30
3.44100	30
3.44467	30
3.44833	30
3.45200	30
3.45567	30
3.45933	30
3.46300	31
3.46667	31
3.47033	31
3.47400	31
3.47767	31
3.48133	31
3.48500	31
3.48867	31
3.49233	31
3.49600	31
3.49967	31
3.50333	30
3.50700	30
3.51067	29
3.51433	29
3.51800	29
3.52167	28
3.52533	28
3.52900	28
3.53267	28
3.53633	28
3.54000	28
3.54367	28
3.54733	28
3.55100	28
3.55467	28
3.55833	28
3.56200	28
3.56567	28
3.56933	28
3.57300	29
3.57667	29
3.58033	29
3.58400	29
3.58767	29
3.59133	29
3.59500	29
3.59867	28
3.60233	28
3.60600	28
3.60967	28
3.61333	28
3.61700	27
3.62067	27
3.62433	27
3.62800	27
3.63167	27
3.63533	27
3.63900	28
3.64267	28
3.64633	28
3.65000	29
3.65367	29
3.65733	30
3.66100	30
3.66467	31
3.66833	31
3.67200	31
3.67567	32
3.67933	32
3.68300	32
3.68667	32
3.69033	32
3.69400	32
3.69767	32
3.70133	32
3.70500	32
3.70867	32
3.71233	32
3.71600	32
3.71967	32
3.72333	33
3.72700	33
3.73067	33
3.73433	33
3.73800	34
3.74167	34
3.74533	34
3.74900	34
3.75267	34
3.75633	34
3.76000	34
3.76367	33
3.76733	33
3.77100	33
3.77467	32
3.77833	32
3.78200	32
3.78567	32
3.78933	32
3.79300	32
3.79667	31
3.80033	31
3.80400	31
3.80767	31
3.81133	30
3.81500	30
3.81867	30
3.82233	30
3.82600	30
3.82967	30
3.83333	30
3.83700	30
3.84067	30
3.84433	31
3.84800	31
3.85167	31
3.85533	31
3.85900	31
3.86267	31
3.86633	31
3.87000	31
3.87367	31
3.87733	31
3.88100	31
3.88467	31
3.88833	31
3.89200	31
3.89567	31
3.89933	31
3.90300	31
3.90667	31
3.91033	31
3.91400	31
3.91767	30
3.92133	30
3.92500	30
3.92867	30
3.93233	30
3.93600	30
3.93967	30
3.94333	30
3.94700	30
3.95067	30
3.95433	30
3.95800	30
3.96167	30
3.96533	30
3.96900	30
3.97267	30
3.97633	30
3.98000	30
3.98367	30
3.98733	30
3.99100	30
3.99467	30
3.99833	30

[Chromatogram (Ch3)]
Interval(msec)	220
# of Points	1091
Start Time(min)	0.002
End Time(min)	3.998
R.Time (min)	Intensity
0.00167	-1
0.00533	-3
0.00900	-5
0.01267	-6
0.01633	-7
0.02000	-7
0.02367	-5
0.02733	-4
0.03100	-5
0.03467	-4
0.03833	-5
0.04200	-6
0.04567	-6
0.04933	-5
0.05300	-3
0.05667	0
0.06033	2
0.06400	1
0.06767	0
0.07133	-0
0.07500	0
0.07867	1
0.08233	-1
0.08600	-3
0.08967	-4
0.09333	-1
0.09700	-0
0.10067	-1
0.10433	-3
0.10800	-4
0.11167	-3
0.11533	-2
0.11900	-3
0.12267	-4
0.12633	-5
0.13000	-5
0.13367	-4
0.13733	-3
0.14100	-2
0.14467	-0
0.14833	1
0.15200	-0
0.15567	-2
0.15933	-2
0.16300	-2
0.16667	-2
0.17033	-3
0.17400	-2
0.17767	-1
0.18133	-2
0.18500	-3
0.18867	-4
0.19233	-5
0.19600	-5
0.19967	-2
0.20333	-0
0.20700	-0
0.21067	-1
0.21433	-0
0.21800	-1
0.22167	-3
0.22533	-2
0.22900	2
0.23267	3
0.23633	3
0.24000	2
0.24367	-1
0.24733	-1
0.25100	0
0.25467	1
0.25833	0
0.26200	-1
0.26567	-1
0.26933	1
0.27300	1
0.27667	1
0.28033	0
0.28400	0
0.28767	0
0.29133	-0
0.29500	-0
0.29867	-1
0.30233	-2
0.30600	0
0.30967	1
0.31333	1
0.31700	1
0.32067	1
0.32433	0
0.32800	1
0.33167	-0
0.33533	-2
0.33900	-4
0.34267	-4
0.34633	-5
0.35000	-4
0.35367	-4
0.35733	-3
0.36100	-2
0.36467	-1
0.36833	-1
0.37200	-1
0.37567	-2
0.37933	-2
0.38300	-1
0.38667	-2
0.39033	-1
0.39400	-1
0.39767	-1
0.40133	0
0.40500	-1
0.40867	-2
0.41233	-1
0.41600	2
0.41967	2
0.42333	5
0.42700	6
0.43067	7
0.43433	7
0.43800	4
0.44167	1
0.44533	-1
0.44900	-2
0.45267	-2
0.45633	-5
0.46000	-5
0.46367	-4
0.46733	-3
0.47100	-2
0.47467	-2
0.47833	-2
0.48200	1
0.48567	1
0.48933	1
0.49300	1
0.49667	1
0.50033	2
0.50400	3
0.50767	-0
0.51133	-1
0.51500	1
0.51867	3
0.52233	5
0.52600	5
0.52967	4
0.53333	3
0.53700	1
0.54067	1
0.54433	1
0.54800	1
0.55167	1
0.55533	2
0.55900	4
0.56267	3
0.56633	2
0.57000	2
0.57367	1
0.57733	1
0.58100	0
0.58467	0
0.58833	-1
0.59200	-3
0.59567	-3
0.59933	0
0.60300	1
0.60667	-0
0.61033	2
0.61400	4
0.61767	6
0.62133	8
0.62500	8
0.62867	6
0.63233	4
0.63600	5
0.63967	4
0.64333	6
0.64700	9
0.65067	10
0.65433	9
0.65800	9
0.66167	9
0.66533	9
0.66900	8
0.67267	8
0.67633	9
0.68000	7
0.68367	6
0.68733	7
0.69100	6
0.69467	4
0.69833	4
0.70200	3
0.70567	2
0.70933	3
0.71300	3
0.71667	4
0.72033	5
0.72400	5
0.72767	3
0.73133	3
0.73500	3
0.73867	4
0.74233	5
0.74600	5
0.74967	5
0.75333	4
0.75700	3
0.76067	3
0.76433	3
0.76800	1
0.77167	-0
0.77533	1
0.77900	2
0.78267	4
0.78633	6
0.79000	8
0.79367	8
0.79733	7
0.80100	5
0.80467	3
0.80833	2
0.81200	4
0.81567	5
0.81933	7
0.82300	8
0.82667	9
0.83033	8
0.83400	7
0.83767	8
0.84133	8
0.84500	7
0.84867	8
0.85233	8
0.85600	7
0.85967	7
0.86333	8
0.86700	10
0.87067	9
0.87433	9
0.87800	11
0.88167	12
0.88533	12
0.88900	14
0.89267	13
0.89633	12
0.90000	12
0.90367	11
0.90733	10
0.91100	9
0.91467	9
0.91833	12
0.92200	11
0.92567	11
0.92933	10
0.93300	11
0.93667	12
0.94033	11
0.94400	11
0.94767	11
0.95133	11
0.95500	10
0.95867	11
0.96233	12
0.96600	13
0.96967	12
0.97333	10
0.97700	8
0.98067	8
0.98433	9
0.98800	9
0.99167	9
0.99533	10
0.99900	11
1.00267	11
1.00633	10
1.01000	8
1.01367	6
1.01733	6
1.02100	9
1.02467	10
1.02833	11
1.03200	10
1.03567	9
1.03933	10
1.04300	11
1.04667	11
1.05033	9
1.05400	8
1.05767	7
1.06133	9
1.06500	12
1.06867	13
1.07233	13
1.07600	10
1.07967	8
1.08333	9
1.08700	14
1.09067	18
1.09433	18
1.09800	16
1.10167	15
1.10533	16
1.10900	16
1.11267	17
1.11633	16
1.12000	16
1.12367	18
1.12733	18
1.13100	16
1.13467	14
1.13833	13
1.14200	12
1.14567	14
1.14933	14
1.15300	15
1.15667	15
1.16033	15
1.16400	16
1.16767	16
1.17133	14
1.17500	13
1.17867	14
1.18233	14
1.18600	14
1.18967	15
1.19333	14
1.19700	14
1.20067	17
1.20433	18
1.20800	19
1.21167	20
1.21533	19
1.21900	19
1.22267	19
1.22633	18
1.23000	18
1.23367	17
1.23733	15
1.24100	14
1.24467	14
1.24833	14
1.25200	14
1.25567	15
1.25933	17
1.26300	16
1.26667	13
1.27033	11
1.27400	9
1.27767	7
1.28133	10
1.28500	14
1.28867	16
1.29233	14
1.29600	13
1.29967	13
1.30333	14
1.30700	13
1.31067	13
1.31433	12
1.31800	12
1.32167	10
1.32533	10
1.32900	11
1.33267	11
1.33633	11
1.34000	12
1.34367	12
1.34733	12
1.35100	13
1.35467	13
1.35833	12
1.36200	12
1.36567	11
1.36933	11
1.37300	14
1.37667	15
1.38033	14
1.38400	13
1.38767	12
1.39133	13
1.39500	16
1.39867	17
1.40233	18
1.40600	16
1.40967	15
1.41333	14
1.41700	12
1.42067	11
1.42433	9
1.42800	9
1.43167	9
1.43533	10
1.43900	10
1.44267	11
1.44633	9
1.45000	9
1.45367	10
1.45733	11
1.46100	12
1.46467	12
1.46833	12
1.47200	12
1.47567	12
1.47933	14
1.48300	15
1.48667	14
1.49033	14
1.49400	15
1.49767	16
1.50133	19
1.50500	20
1.50867	20
1.51233	19
1.51600	18
1.51967	18
1.52333	19
1.52700	18
1.53067	18
1.53433	18
1.53800	20
1.54167	19
1.54533	18
1.54900	17
1.55267	18
1.55633	16
1.56000	16
1.56367	15
1.56733	17
1.57100	18
1.57467	20
1.57833	20
1.58200	21
1.58567	24
1.58933	26
1.59300	26
1.59667	25
1.60033	24
1.60400	23
1.60767	24
1.61133	25
1.61500	29
1.61867	29
1.62233	30
1.62600	30
1.62967	30
1.63333	29
1.63700	27
1.64067	24
1.64433	25
1.64800	26
1.65167	27
1.65533	26
1.65900	26
1.66267	24
1.66633	23
1.67000	25
1.67367	27
1.67733	28
1.68100	30
1.68467	32
1.68833	31
1.69200	28
1.69567	27
1.69933	27
1.70300	28
1.70667	27
1.71033	25
1.71400	25
1.71767	27
1.72133	29
1.72500	32
1.72867	34
1.73233	35
1.73600	33
1.73967	35
1.74333	36
1.74700	34
1.75067	33
1.75433	36
1.75800	38
1.76167	38
1.76533	35
1.76900	34
1.77267	33
1.77633	33
1.78000	33
1.78367	35
1.78733	35
1.79100	37
1.79467	39
1.79833	41
1.80200	44
1.80567	46
1.80933	46
1.81300	45
1.81667	46
1.82033	46
1.82400	45
1.82767	44
1.83133	43
1.83500	42
1.83867	42
1.84233	43
1.84600	44
1.84967	44
1.85333	43
1.85700	45
1.86067	48
1.86433	49
1.86800	50
1.87167	52
1.87533	51
1.87900	51
1.88267	50
1.88633	50
1.89000	50
1.89367	51
1.89733	53
1.90100	55
1.90467	55
1.90833	56
1.91200	56
1.91567	56
1.91933	56
1.92300	54
1.92667	53
1.93033	55
1.93400	56
1.93767	57
1.94133	60
1.94500	61
1.94867	59
1.95233	60
1.95600	60
1.95967	59
1.96333	59
1.96700	60
1.97067	61
1.97433	62
1.97800	63
1.98167	64
1.98533	65
1.98900	66
1.99267	67
1.99633	67
2.00000	69
2.00367	71
2.00733	74
2.01100	74
2.01467	72
2.01833	69
2.02200	68
2.02567	70
2.02933	71
2.03300	74
2.03667	77
2.04033	78
2.04400	78
2.04767	77
2.05133	77
2.05500	77
2.05867	78
2.06233	82
2.06600	84
2.06967	85
2.07333	88
2.07700	89
2.08067	88
2.08433	89
2.08800	89
2.09167	88
2.09533	87
2.09900	87
2.10267	89
2.10633	89
2.11000	89
2.11367	89
2.11733	89
2.12100	90
2.12467	91
2.12833	94
2.13200	98
2.13567	101
2.13933	102
2.14300	102
2.14667	104
2.15033	105
2.15400	110
2.15767	114
2.16133	119
2.16500	120
2.16867	120
2.17233	118
2.17600	116
2.17967	113
2.18333	112
2.18700	111
2.19067	112
2.19433	115
2.19800	119
2.20167	121
2.20533	123
2.20900	125
2.21267	126
2.21633	127
2.22000	127
2.22367	126
2.22733	127
2.23100	128
2.23467	128
2.23833	128
2.24200	128
2.24567	130
2.24933	131
2.25300	131
2.25667	134
2.26033	137
2.26400	139
2.26767	143
2.27133	147
2.27500	151
2.27867	154
2.28233	154
2.28600	151
2.28967	150
2.29333	151
2.29700	153
2.30067	155
2.30433	158
2.30800	160
2.31167	161
2.31533	165
2.31900	168
2.32267	170
2.32633	172
2.33000	173
2.33367	172
2.33733	173
2.34100	176
2.34467	179
2.34833	181
2.35200	182
2.35567	184
2.35933	184
2.36300	185
2.36667	188
2.37033	192
2.37400	194
2.37767	195
2.38133	196
2.38500	197
2.38867	196
2.39233	196
2.39600	200
2.39967	206
2.40333	209
2.40700	210
2.41067	210
2.41433	211
2.41800	214
2.42167	218
2.42533	222
2.42900	225
2.43267	227
2.43633	229
2.44000	234
2.44367	275
2.44733	381
2.45100	494
2.45467	587
2.45833	639
2.46200	632
2.46567	589
2.46933	539
2.47300	501
2.47667	478
2.48033	461
2.48400	441
2.48767	412
2.49133	377
2.49500	342
2.49867	309
2.50233	285
2.50600	268
2.50967	256
2.51333	251
2.51700	254
2.52067	265
2.52433	277
2.52800	292
2.53167	306
2.53533	314
2.53900	315
2.54267	308
2.54633	294
2.55000	277
2.55367	257
2.55733	235
2.56100	220
2.56467	207
2.56833	194
2.57200	185
2.57567	180
2.57933	177
2.58300	174
2.58667	174
2.59033	174
2.59400	173
2.59767	167
2.60133	153
2.60500	136
2.60867	116
2.61233	94
2.61600	75
2.61967	56
2.62333	40
2.62700	29
2.63067	23
2.63433	22
2.63800	24
2.64167	29
2.64533	34
2.64900	41
2.65267	51
2.65633	63
2.66000	73
2.66367	82
2.66733	88
2.67100	90
2.67467	89
2.67833	87
2.68200	86
2.68567	83
2.68933	80
2.69300	76
2.69667	75
2.70033	72
2.70400	70
2.70767	69
2.71133	66
2.71500	63
2.71867	63
2.72233	62
2.72600	61
2.72967	61
2.73333	62
2.73700	65
2.74067	68
2.74433	68
2.74800	67
2.75167	69
2.75533	73
2.75900	76
2.76267	79
2.76633	81
2.77000	81
2.77367	82
2.77733	82
2.78100	83
2.78467	84
2.78833	85
2.79200	86
2.79567	86
2.79933	86
2.80300	89
2.80667	91
2.81033	96
2.81400	108
2.81767	136
2.82133	203
2.82500	348
2.82867	633
2.83233	1125
2.83600	1889
2.83967	2962
2.84333	4348
2.84700	6006
2.85067	7845
2.85433	9743
2.85800	11561
2.86167	13163
2.86533	14429
2.86900	15279
2.87267	15677
2.87633	15645
2.88000	15243
2.88367	14547
2.88733	13645
2.89100	12620
2.89467	11535
2.89833	10440
2.90200	9378
2.90567	8374
2.90933	7442
2.91300	6588
2.91667	5814
2.92033	5114
2.92400	4490
2.92767	3939
2.93133	3451
2.93500	3020
2.93867	2643
2.94233	2313
2.94600	2023
2.94967	1770
2.95333	1548
2.95700	1356
2.96067	1190
2.96433	1046
2.96800	920
2.97167	809
2.97533	713
2.97900	628
2.98267	557
2.98633	497
2.99000	444
2.99367	397
2.99733	356
3.00100	319
3.00467	290
3.00833	266
3.01200	243
3.01567	221
3.01933	201
3.02300	185
3.02667	172
3.03033	159
3.03400	148
3.03767	138
3.04133	129
3.04500	123
3.04867	119
3.05233	114
3.05600	107
3.05967	101
3.06333	93
3.06700	88
3.07067	84
3.07433	82
3.07800	80
3.08167	77
3.08533	74
3.08900	72
3.09267	68
3.09633	64
3.10000	61
3.10367	61
3.10733	60
3.11100	60
3.11467	58
3.11833	58
3.12200	40
3.12567	-4
3.12933	-47
3.13300	-65
3.13667	-56
3.14033	-25
3.14400	16
3.14767	62
3.15133	114
3.15500	169
3.15867	221
3.16233	267
3.16600	311
3.16967	351
3.17333	388
3.17700	419
3.18067	447
3.18433	470
3.18800	490
3.19167	505
3.19533	517
3.19900	525
3.20267	533
3.20633	539
3.21000	545
3.21367	550
3.21733	553
3.22100	554
3.22467	554
3.22833	556
3.23200	555
3.23567	555
3.23933	555
3.24300	555
3.24667	557
3.25033	561
3.25400	564
3.25767	566
3.26133	565
3.26500	565
3.26867	566
3.27233	565
3.27600	564
3.27967	566
3.28333	565
3.28700	566
3.29067	569
3.29433	572
3.29800	573
3.30167	573
3.30533	574
3.30900	577
3.31267	581
3.31633	586
3.32000	586
3.32367	586
3.32733	586
3.33100	588
3.33467	590
3.33833	593
3.34200	597
3.34567	601
3.34933	606
3.35300	609
3.35667	611
3.36033	613
3.36400	615
3.36767	618
3.37133	620
3.37500	622
3.37867	625
3.38233	625
3.38600	625
3.38967	626
3.39333	626
3.39700	627
3.40067	626
3.40433	624
3.40800	622
3.41167	621
3.41533	619
3.41900	619
3.42267	620
3.42633	619
3.43000	616
3.43367	614
3.43733	611
3.44100	607
3.44467	604
3.44833	598
3.45200	594
3.45567	591
3.45933	589
3.46300	586
3.46667	581
3.47033	579
3.47400	578
3.47767	579
3.48133	577
3.48500	574
3.48867	569
3.49233	565
3.49600	562
3.49967	561
3.50333	557
3.50700	552
3.51067	549
3.51433	549
3.51800	546
3.52167	542
3.52533	541
3.52900	538
3.53267	537
3.53633	537
3.54000	536
3.54367	536
3.54733	535
3.55100	530
3.55467	527
3.55833	527
3.56200	525
3.56567	522
3.56933	519
3.57300	517
3.57667	515
3.58033	513
3.58400	514
3.58767	515
3.59133	514
3.59500	514
3.59867	513
3.60233	510
3.60600	508
3.60967	507
3.61333	506
3.61700	506
3.62067	507
3.62433	508
3.62800	509
3.63167	508
3.63533	506
3.63900	502
3.64267	499
3.64633	497
3.65000	495
3.65367	493
3.65733	492
3.66100	492
3.66467	495
3.66833	495
3.67200	497
3.67567	499
3.67933	498
3.68300	498
3.68667	498
3.69033	496
3.69400	495
3.69767	494
3.70133	496
3.70500	497
3.70867	500
3.71233	501
3.71600	499
3.71967	496
3.72333	495
3.72700	495
3.73067	493
3.73433	494
3.73800	494
3.74167	493
3.74533	491
3.74900	492
3.75267	491
3.75633	492
3.76000	493
3.76367	493
3.76733	492
3.77100	493
3.77467	495
3.77833	494
3.78200	494
3.78567	492
3.78933	490
3.79300	487
3.79667	488
3.80033	487
3.80400	486
3.80767	487
3.81133	488
3.81500	488
3.81867	488
3.82233	485
3.82600	483
3.82967	481
3.83333	478
3.83700	476
3.84067	475
3.84433	471
3.84800	470
3.85167	473
3.85533	473
3.85900	473
3.86267	473
3.86633	472
3.87000	473
3.87367	470
3.87733	468
3.88100	467
3.88467	466
3.88833	464
3.89200	463
3.89567	464
3.89933	464
3.90300	465
3.90667	466
3.91033	466
3.91400	466
3.91767	467
3.92133	467
3.92500	467
3.92867	467
3.93233	467
3.93600	466
3.93967	464
3.94333	461
3.94700	458
3.95067	456
3.95433	453
3.95800	452
3.96167	450
3.96533	447
3.96900	445
3.97267	445
3.97633	445
3.98000	446
3.98367	447
3.98733	450
3.99100	451
3.99467	449
3.99833	446

[Status Trace (Column Oven Temperature)]
Interval(msec)	1000
# of Points	240
Start Time(min)	0.010
End Time(min)	3.994
Intensity Units	
Intensity Multiplier	1
R.Time (min)	Intensity
0.01028	35.06
0.02695	35.08
0.04362	35.08
0.06028	35.06
0.07695	35.05
0.09362	35.04
0.11028	35.05
0.12695	35.04
0.14362	35.02
0.16028	35.01
0.17695	35.01
0.19362	35.00
0.21028	34.99
0.22695	34.99
0.24362	34.98
0.26028	34.99
0.27695	35.00
0.29362	35.01
0.31028	35.00
0.32695	35.02
0.34362	35.01
0.36028	35.01
0.37695	35.00
0.39362	35.00
0.41028	34.99
0.42695	34.99
0.44362	35.00
0.46028	35.01
0.47695	35.02
0.49362	35.03
0.51028	35.04
0.52695	35.04
0.54362	35.05
0.56028	35.04
0.57695	35.04
0.59362	35.03
0.61028	35.01
0.62695	34.98
0.64362	34.97
0.66028	34.96
0.67695	34.97
0.69362	34.97
0.71028	34.98
0.72695	34.99
0.74362	35.00
0.76028	34.99
0.77695	35.01
0.79362	35.00
0.81028	35.00
0.82695	35.00
0.84362	35.00
0.86028	35.02
0.87695	35.03
0.89362	35.02
0.91028	35.02
0.92695	35.02
0.94362	35.01
0.96028	34.99
0.97695	34.99
0.99362	34.98
1.01028	34.97
1.02695	34.97
1.04362	34.98
1.06028	34.97
1.07695	34.97
1.09362	34.98
1.11028	34.97
1.12695	34.96
1.14362	34.97
1.16028	34.96
1.17695	34.97
1.19362	34.98
1.21028	35.01
1.22695	35.02
1.24362	35.03
1.26028	35.04
1.27695	35.03
1.29362	35.03
1.31028	35.02
1.32695	35.01
1.34362	35.00
1.36028	34.99
1.37695	34.98
1.39362	34.99
1.41028	34.99
1.42695	34.98
1.44362	34.97
1.46028	34.97
1.47695	34.97
1.49362	34.97
1.51028	34.99
1.52695	35.00
1.54362	35.00
1.56028	35.01
1.57695	35.02
1.59362	35.04
1.61028	35.10
1.62695	35.22
1.64362	35.39
1.66028	35.64
1.67695	35.99
1.69362	36.37
1.71028	36.73
1.72695	37.06
1.74362	37.42
1.76028	37.74
1.77695	38.05
1.79362	38.38
1.81028	38.72
1.82695	39.05
1.84362	39.38
1.86028	39.71
1.87695	40.05
1.89362	40.36
1.91028	40.68
1.92695	41.00
1.94362	41.36
1.96028	41.66
1.97695	41.99
1.99362	42.31
2.01028	42.64
2.02695	42.98
2.04362	43.31
2.06028	43.65
2.07695	43.97
2.09362	44.30
2.11028	44.61
2.12695	44.94
2.14362	45.28
2.16028	45.59
2.17695	45.93
2.19362	46.25
2.21028	46.57
2.22695	46.91
2.24362	47.23
2.26028	47.57
2.27695	47.88
2.29362	48.20
2.31028	48.54
2.32695	48.86
2.34362	49.20
2.36028	49.52
2.37695	49.66
2.39362	49.71
2.41028	49.69
2.42695	49.70
2.44362	49.70
2.46028	49.71
2.47695	49.71
2.49362	49.72
2.51028	49.74
2.52695	49.74
2.54362	49.75
2.56028	49.76
2.57695	49.78
2.59362	49.79
2.61028	49.81
2.62695	49.81
2.64362	49.81
2.66028	49.82
2.67695	49.83
2.69362	49.85
2.71028	49.86
2.72695	49.86
2.74362	49.87
2.76028	49.86
2.77695	49.85
2.79362	49.86
2.81028	49.88
2.82695	49.88
2.84362	49.89
2.86028	49.90
2.87695	49.90
2.89362	49.90
2.91028	49.91
2.92695	49.93
2.94362	49.92
2.96028	49.95
2.97695	49.97
2.99362	50.00
3.01028	50.02
3.02695	50.03
3.04362	50.04
3.06028	50.06
3.07695	50.07
3.09362	50.08
3.11028	50.10
3.12695	50.10
3.14362	50.10
3.16028	50.10
3.17695	50.09
3.19362	50.08
3.21028	50.06
3.22695	50.05
3.24362	50.03
3.26028	50.03
3.27695	50.02
3.29362	50.02
3.31028	50.02
3.32695	50.02
3.34362	50.02
3.36028	50.03
3.37695	50.04
3.39362	50.04
3.41028	50.03
3.42695	50.03
3.44362	50.03
3.46028	50.03
3.47695	50.03
3.49362	50.03
3.51028	50.05
3.52695	50.07
3.54362	50.08
3.56028	50.08
3.57695	50.08
3.59362	50.09
3.61028	50.10
3.62695	50.11
3.64362	50.11
3.66028	50.09
3.67695	50.08
3.69362	50.06
3.71028	50.05
3.72695	50.04
3.74362	50.02
3.76028	50.01
3.77695	50.01
3.79362	50.00
3.81028	50.01
3.82695	50.00
3.84362	49.99
3.86028	49.99
3.87695	50.00
3.89362	50.00
3.91028	50.01
3.92695	50.01
3.94362	50.01
3.96028	50.01
3.97695	50.02
3.99362	50.01

[Status Trace (Injection Unit Temperature)]
Interval(msec)	1000
# of Points	240
Start Time(min)	0.010
End Time(min)	3.994
Intensity Units	
Intensity Multiplier	1
R.Time (min)	Intensity
0.01028	99.97
0.02695	99.97
0.04362	99.98
0.06028	99.98
0.07695	99.97
0.09362	99.98
0.11028	99.98
0.12695	99.98
0.14362	99.98
0.16028	99.98
0.17695	99.98
0.19362	99.98
0.21028	99.98
0.22695	99.98
0.24362	99.98
0.26028	99.98
0.27695	99.98
0.29362	99.98
0.31028	99.98
0.32695	99.98
0.34362	99.98
0.36028	99.98
0.37695	99.98
0.39362	99.98
0.41028	99.98
0.42695	99.98
0.44362	99.98
0.46028	99.98
0.47695	99.98
0.49362	99.98
0.51028	99.98
0.52695	99.98
0.54362	99.98
0.56028	99.98
0.57695	99.98
0.59362	99.98
0.61028	99.98
0.62695	99.98
0.64362	99.98
0.66028	99.98
0.67695	99.98
0.69362	99.98
0.71028	99.98
0.72695	99.97
0.74362	99.97
0.76028	99.97
0.77695	99.98
0.79362	99.97
0.81028	99.98
0.82695	99.98
0.84362	99.98
0.86028	99.98
0.87695	99.98
0.89362	99.98
0.91028	99.98
0.92695	99.98
0.94362	99.98
0.96028	99.98
0.97695	99.98
0.99362	99.98
1.01028	99.98
1.02695	99.99
1.04362	99.98
1.06028	99.98
1.07695	99.98
1.09362	99.99
1.11028	99.98
1.12695	99.98
1.14362	99.98
1.16028	99.98
1.17695	99.98
1.19362	99.99
1.21028	99.99
1.22695	99.97
1.24362	99.99
1.26028	99.98
1.27695	99.98
1.29362	99.99
1.31028	99.99
1.32695	99.99
1.34362	99.99
1.36028	99.98
1.37695	99.99
1.39362	99.98
1.41028	99.99
1.42695	99.99
1.44362	99.98
1.46028	99.99
1.47695	99.99
1.49362	99.98
1.51028	99.98
1.52695	99.98
1.54362	99.99
1.56028	99.99
1.57695	99.98
1.59362	99.98
1.61028	99.99
1.62695	99.99
1.64362	99.98
1.66028	99.98
1.67695	99.98
1.69362	99.98
1.71028	99.99
1.72695	99.98
1.74362	99.99
1.76028	99.98
1.77695	99.99
1.79362	99.98
1.81028	99.98
1.82695	99.98
1.84362	99.98
1.86028	99.98
1.87695	99.98
1.89362	99.97
1.91028	99.98
1.92695	99.97
1.94362	99.98
1.96028	99.97
1.97695	99.97
1.99362	99.97
2.01028	99.97
2.02695	99.97
2.04362	99.97
2.06028	99.97
2.07695	99.97
2.09362	99.97
2.11028	99.97
2.12695	99.97
2.14362	99.97
2.16028	99.97
2.17695	99.97
2.19362	99.97
2.21028	99.97
2.22695	99.97
2.24362	99.97
2.26028	99.97
2.27695	99.97
2.29362	99.98
2.31028	99.97
2.32695	99.97
2.34362	99.98
2.36028	99.97
2.37695	99.98
2.39362	99.97
2.41028	99.97
2.42695	99.97
2.44362	99.97
2.46028	99.98
2.47695	99.98
2.49362	99.98
2.51028	99.98
2.52695	99.98
2.54362	99.98
2.56028	99.98
2.57695	99.99
2.59362	99.98
2.61028	99.98
2.62695	99.99
2.64362	99.99
2.66028	99.99
2.67695	99.99
2.69362	99.99
2.71028	99.99
2.72695	99.99
2.74362	99.99
2.76028	99.99
2.77695	100.00
2.79362	100.00
2.81028	99.99
2.82695	100.00
2.84362	100.00
2.86028	100.00
2.87695	100.00
2.89362	100.00
2.91028	100.00
2.92695	100.00
2.94362	99.99
2.96028	100.01
2.97695	100.00
2.99362	100.01
3.01028	100.01
3.02695	100.00
3.04362	100.00
3.06028	100.00
3.07695	100.00
3.09362	100.01
3.11028	100.01
3.12695	100.01
3.14362	100.01
3.16028	100.01
3.17695	100.01
3.19362	100.02
3.21028	100.02
3.22695	100.02
3.24362	100.02
3.26028	100.02
3.27695	100.02
3.29362	100.02
3.31028	100.02
3.32695	100.03
3.34362	100.03
3.36028	100.03
3.37695	100.03
3.39362	100.03
3.41028	100.03
3.42695	100.03
3.44362	100.03
3.46028	100.03
3.47695	100.03
3.49362	100.03
3.51028	100.03
3.52695	100.04
3.54362	100.04
3.56028	100.04
3.57695	100.04
3.59362	100.04
3.61028	100.04
3.62695	100.04
3.64362	100.04
3.66028	100.04
3.67695	100.04
3.69362	100.04
3.71028	100.04
3.72695	100.04
3.74362	100.04
3.76028	100.05
3.77695	100.04
3.79362	100.04
3.81028	100.04
3.82695	100.04
3.84362	100.04
3.86028	100.05
3.87695	100.05
3.89362	100.05
3.91028	100.05
3.92695	100.04
3.94362	100.05
3.96028	100.04
3.97695	100.04
3.99362	100.05

[Status Trace (Carrier Gas Pressure)]
Interval(msec)	1000
# of Points	240
Start Time(min)	0.010
End Time(min)	3.994
Intensity Units	
Intensity Multiplier	1
R.Time (min)	Intensity
0.01028	58.00
0.02695	55.06
0.04362	57.39
0.06028	59.52
0.07695	59.10
0.09362	58.02
0.11028	57.99
0.12695	58.01
0.14362	58.01
0.16028	58.00
0.17695	58.00
0.19362	58.00
0.21028	58.00
0.22695	58.00
0.24362	58.00
0.26028	58.00
0.27695	58.00
0.29362	58.00
0.31028	58.00
0.32695	58.00
0.34362	58.00
0.36028	58.00
0.37695	58.00
0.39362	58.00
0.41028	58.00
0.42695	58.00
0.44362	58.00
0.46028	58.00
0.47695	58.00
0.49362	58.00
0.51028	58.00
0.52695	58.00
0.54362	58.00
0.56028	58.00
0.57695	58.00
0.59362	58.00
0.61028	58.00
0.62695	58.00
0.64362	58.00
0.66028	58.00
0.67695	58.00
0.69362	58.00
0.71028	58.00
0.72695	58.00
0.74362	58.00
0.76028	58.00
0.77695	58.00
0.79362	58.00
0.81028	58.00
0.82695	58.00
0.84362	58.00
0.86028	58.00
0.87695	58.00
0.89362	58.00
0.91028	58.00
0.92695	58.00
0.94362	58.00
0.96028	58.00
0.97695	58.00
0.99362	58.00
1.01028	58.00
1.02695	58.00
1.04362	58.00
1.06028	58.00
1.07695	58.00
1.09362	58.00
1.11028	58.00
1.12695	58.00
1.14362	58.00
1.16028	58.00
1.17695	58.00
1.19362	58.00
1.21028	58.00
1.22695	58.00
1.24362	58.00
1.26028	58.00
1.27695	58.00
1.29362	58.00
1.31028	58.00
1.32695	58.00
1.34362	58.00
1.36028	58.00
1.37695	58.00
1.39362	58.00
1.41028	58.00
1.42695	58.00
1.44362	58.00
1.46028	58.00
1.47695	58.00
1.49362	58.00
1.51028	58.00
1.52695	58.00
1.54362	58.00
1.56028	58.00
1.57695	58.00
1.59362	58.00
1.61028	58.00
1.62695	58.00
1.64362	58.00
1.66028	58.00
1.67695	58.01
1.69362	58.01
1.71028	58.00
1.72695	58.00
1.74362	58.00
1.76028	58.00
1.77695	58.00
1.79362	58.00
1.81028	58.00
1.82695	58.00
1.84362	58.00
1.86028	58.00
1.87695	58.00
1.89362	58.00
1.91028	58.00
1.92695	58.00
1.94362	58.00
1.96028	58.00
1.97695	58.00
1.99362	58.00
2.01028	58.00
2.02695	58.00
2.04362	58.00
2.06028	58.00
2.07695	58.00
2.09362	58.00
2.11028	58.00
2.12695	58.00
2.14362	58.00
2.16028	58.00
2.17695	58.00
2.19362	58.00
2.21028	58.00
2.22695	58.00
2.24362	58.00
2.26028	58.00
2.27695	58.00
2.29362	58.00
2.31028	58.00
2.32695	58.00
2.34362	58.00
2.36028	58.00
2.37695	57.99
2.39362	57.99
2.41028	57.99
2.42695	58.00
2.44362	58.00
2.46028	58.00
2.47695	58.00
2.49362	58.00
2.51028	58.00
2.52695	57.99
2.54362	58.00
2.56028	58.00
2.57695	58.00
2.59362	58.00
2.61028	58.00
2.62695	58.00
2.64362	58.00
2.66028	58.00
2.67695	58.00
2.69362	58.00
2.71028	58.00
2.72695	58.00
2.74362	58.00
2.76028	58.00
2.77695	58.00
2.79362	58.00
2.81028	58.00
2.82695	58.00
2.84362	58.00
2.86028	58.00
2.87695	58.00
2.89362	58.00
2.91028	58.00
2.92695	58.00
2.94362	58.00
2.96028	58.00
2.97695	58.00
2.99362	58.00
3.01028	58.00
3.02695	58.00
3.04362	58.00
3.06028	58.00
3.07695	58.00
3.09362	58.00
3.11028	58.00
3.12695	58.00
3.14362	58.00
3.16028	58.00
3.17695	58.00
3.19362	58.00
3.21028	58.00
3.22695	58.00
3.24362	58.00
3.26028	58.00
3.27695	58.00
3.29362	58.00
3.31028	58.00
3.32695	58.00
3.34362	58.00
3.36028	58.00
3.37695	58.00
3.39362	58.00
3.41028	58.00
3.42695	58.00
3.44362	58.00
3.46028	58.00
3.47695	58.00
3.49362	58.00
3.51028	58.00
3.52695	58.00
3.54362	58.00
3.56028	58.00
3.57695	58.00
3.59362	58.00
3.61028	58.00
3.62695	58.00
3.64362	58.00
3.66028	58.00
3.67695	58.00
3.69362	58.00
3.71028	58.00
3.72695	58.00
3.74362	58.00
3.76028	58.00
3.77695	58.00
3.79362	58.00
3.81028	58.00
3.82695	58.00
3.84362	58.00
3.86028	58.00
3.87695	58.00
3.89362	58.00
3.91028	58.00
3.92695	58.00
3.94362	58.00
3.96028	58.00
3.97695	58.00
3.99362	58.00

[Status Trace (Carrier Gas Flow)]
Interval(msec)	1000
# of Points	240
Start Time(min)	0.010
End Time(min)	3.994
Intensity Units	
Intensity Multiplier	1
R.Time (min)	Intensity
0.01028	34.52
0.02695	34.54
0.04362	34.54
0.06028	34.54
0.07695	34.50
0.09362	34.52
0.11028	34.52
0.12695	34.52
0.14362	34.52
0.16028	34.52
0.17695	34.52
0.19362	34.52
0.21028	34.52
0.22695	34.52
0.24362	34.52
0.26028	34.52
0.27695	34.52
0.29362	34.52
0.31028	34.52
0.32695	34.52
0.34362	34.52
0.36028	34.52
0.37695	34.52
0.39362	34.52
0.41028	34.52
0.42695	34.51
0.44362	34.52
0.46028	34.52
0.47695	34.52
0.49362	34.52
0.51028	34.52
0.52695	34.52
0.54362	34.52
0.56028	34.52
0.57695	34.52
0.59362	34.52
0.61028	34.52
0.62695	34.52
0.64362	34.52
0.66028	34.52
0.67695	34.52
0.69362	34.52
0.71028	34.51
0.72695	34.52
0.74362	34.53
0.76028	34.52
0.77695	34.52
0.79362	34.52
0.81028	34.52
0.82695	34.52
0.84362	34.51
0.86028	34.52
0.87695	34.52
0.89362	34.52
0.91028	34.52
0.92695	34.52
0.94362	34.52
0.96028	34.51
0.97695	34.52
0.99362	34.52
1.01028	34.52
1.02695	34.52
1.04362	34.52
1.06028	34.52
1.07695	34.52
1.09362	34.52
1.11028	34.52
1.12695	34.52
1.14362	34.51
1.16028	34.52
1.17695	34.52
1.19362	34.52
1.21028	34.51
1.22695	34.52
1.24362	34.52
1.26028	34.52
1.27695	34.52
1.29362	34.51
1.31028	34.52
1.32695	34.52
1.34362	34.52
1.36028	34.52
1.37695	34.52
1.39362	34.52
1.41028	34.53
1.42695	34.52
1.44362	34.51
1.46028	34.52
1.47695	34.52
1.49362	34.52
1.51028	34.52
1.52695	34.52
1.54362	34.52
1.56028	34.52
1.57695	34.52
1.59362	34.52
1.61028	34.52
1.62695	34.52
1.64362	34.52
1.66028	34.51
1.67695	34.52
1.69362	34.52
1.71028	34.52
1.72695	34.52
1.74362	34.52
1.76028	34.51
1.77695	34.52
1.79362	34.51
1.81028	34.52
1.82695	34.52
1.84362	34.52
1.86028	34.52
1.87695	34.52
1.89362	34.51
1.91028	34.52
1.92695	34.52
1.94362	34.52
1.96028	34.52
1.97695	34.52
1.99362	34.52
2.01028	34.52
2.02695	34.51
2.04362	34.52
2.06028	34.52
2.07695	34.52
2.09362	34.52
2.11028	34.52
2.12695	34.52
2.14362	34.52
2.16028	34.52
2.17695	34.51
2.19362	34.52
2.21028	34.52
2.22695	34.52
2.24362	34.51
2.26028	34.52
2.27695	34.52
2.29362	34.51
2.31028	34.52
2.32695	34.52
2.34362	34.53
2.36028	34.52
2.37695	34.52
2.39362	34.52
2.41028	34.52
2.42695	34.52
2.44362	34.51
2.46028	34.52
2.47695	34.52
2.49362	34.52
2.51028	34.52
2.52695	34.52
2.54362	34.52
2.56028	34.52
2.57695	34.52
2.59362	34.52
2.61028	34.52
2.62695	34.52
2.64362	34.53
2.66028	34.52
2.67695	34.52
2.69362	34.52
2.71028	34.52
2.72695	34.52
2.74362	34.52
2.76028	34.52
2.77695	34.52
2.79362	34.52
2.81028	34.52
2.82695	34.52
2.84362	34.52
2.86028	34.52
2.87695	34.52
2.89362	34.52
2.91028	34.52
2.92695	34.52
2.94362	34.52
2.96028	34.52
2.97695	34.52
2.99362	34.52
3.01028	34.52
3.02695	34.52
3.04362	34.52
3.06028	34.52
3.07695	34.52
3.09362	34.53
3.11028	34.52
3.12695	34.52
3.14362	34.51
3.16028	34.52
3.17695	34.52
3.19362	34.52
3.21028	34.52
3.22695	34.51
3.24362	34.52
3.26028	34.52
3.27695	34.52
3.29362	34.51
3.31028	34.52
3.32695	34.52
3.34362	34.52
3.36028	34.51
3.37695	34.52
3.39362	34.51
3.41028	34.51
3.42695	34.52
3.44362	34.52
3.46028	34.52
3.47695	34.52
3.49362	34.52
3.51028	34.52
3.52695	34.52
3.54362	34.52
3.56028	34.52
3.57695	34.52
3.59362	34.52
3.61028	34.52
3.62695	34.52
3.64362	34.52
3.66028	34.52
3.67695	34.52
3.69362	34.52
3.71028	34.51
3.72695	34.52
3.74362	34.52
3.76028	34.52
3.77695	34.52
3.79362	34.52
3.81028	34.52
3.82695	34.52
3.84362	34.51
3.86028	34.52
3.87695	34.52
3.89362	34.52
3.91028	34.52
3.92695	34.52
3.94362	34.51
3.96028	34.52
3.97695	34.52
3.99362	34.52

[Status Trace (Column Flow)]
Interval(msec)	1000
# of Points	240
Start Time(min)	0.010
End Time(min)	3.994
Intensity Units	
Intensity Multiplier	1
R.Time (min)	Intensity
0.01028	5.56
0.02695	5.22
0.04362	5.49
0.06028	5.74
0.07695	5.69
0.09362	5.57
0.11028	5.56
0.12695	5.56
0.14362	5.56
0.16028	5.56
0.17695	5.56
0.19362	5.56
0.21028	5.56
0.22695	5.56
0.24362	5.56
0.26028	5.56
0.27695	5.56
0.29362	5.56
0.31028	5.56
0.32695	5.56
0.34362	5.56
0.36028	5.56
0.37695	5.56
0.39362	5.56
0.41028	5.56
0.42695	5.56
0.44362	5.56
0.46028	5.56
0.47695	5.56
0.49362	5.56
0.51028	5.56
0.52695	5.56
0.54362	5.56
0.56028	5.56
0.57695	5.56
0.59362	5.56
0.61028	5.56
0.62695	5.56
0.64362	5.56
0.66028	5.57
0.67695	5.57
0.69362	5.57
0.71028	5.56
0.72695	5.56
0.74362	5.56
0.76028	5.56
0.77695	5.56
0.79362	5.56
0.81028	5.56
0.82695	5.56
0.84362	5.56
0.86028	5.56
0.87695	5.56
0.89362	5.56
0.91028	5.56
0.92695	5.56
0.94362	5.56
0.96028	5.56
0.97695	5.56
0.99362	5.56
1.01028	5.56
1.02695	5.56
1.04362	5.56
1.06028	5.56
1.07695	5.56
1.09362	5.56
1.11028	5.56
1.12695	5.56
1.14362	5.56
1.16028	5.56
1.17695	5.56
1.19362	5.56
1.21028	5.56
1.22695	5.56
1.24362	5.56
1.26028	5.56
1.27695	5.56
1.29362	5.56
1.31028	5.56
1.32695	5.56
1.34362	5.56
1.36028	5.56
1.37695	5.56
1.39362	5.56
1.41028	5.56
1.42695	5.56
1.44362	5.56
1.46028	5.56
1.47695	5.56
1.49362	5.56
1.51028	5.56
1.52695	5.56
1.54362	5.56
1.56028	5.56
1.57695	5.56
1.59362	5.56
1.61028	5.56
1.62695	5.56
1.64362	5.55
1.66028	5.54
1.67695	5.53
1.69362	5.52
1.71028	5.51
1.72695	5.50
1.74362	5.49
1.76028	5.48
1.77695	5.47
1.79362	5.46
1.81028	5.45
1.82695	5.44
1.84362	5.43
1.86028	5.42
1.87695	5.41
1.89362	5.40
1.91028	5.39
1.92695	5.38
1.94362	5.37
1.96028	5.36
1.97695	5.35
1.99362	5.34
2.01028	5.33
2.02695	5.32
2.04362	5.31
2.06028	5.30
2.07695	5.29
2.09362	5.28
2.11028	5.27
2.12695	5.26
2.14362	5.25
2.16028	5.24
2.17695	5.23
2.19362	5.22
2.21028	5.21
2.22695	5.20
2.24362	5.20
2.26028	5.19
2.27695	5.18
2.29362	5.17
2.31028	5.16
2.32695	5.15
2.34362	5.14
2.36028	5.13
2.37695	5.13
2.39362	5.12
2.41028	5.13
2.42695	5.13
2.44362	5.13
2.46028	5.13
2.47695	5.13
2.49362	5.12
2.51028	5.12
2.52695	5.12
2.54362	5.12
2.56028	5.12
2.57695	5.12
2.59362	5.12
2.61028	5.12
2.62695	5.12
2.64362	5.12
2.66028	5.12
2.67695	5.12
2.69362	5.12
2.71028	5.12
2.72695	5.12
2.74362	5.12
2.76028	5.12
2.77695	5.12
2.79362	5.12
2.81028	5.12
2.82695	5.12
2.84362	5.12
2.86028	5.12
2.87695	5.12
2.89362	5.12
2.91028	5.12
2.92695	5.12
2.94362	5.12
2.96028	5.12
2.97695	5.12
2.99362	5.12
3.01028	5.12
3.02695	5.12
3.04362	5.12
3.06028	5.12
3.07695	5.12
3.09362	5.11
3.11028	5.11
3.12695	5.11
3.14362	5.11
3.16028	5.11
3.17695	5.11
3.19362	5.11
3.21028	5.12
3.22695	5.12
3.24362	5.12
3.26028	5.12
3.27695	5.12
3.29362	5.12
3.31028	5.12
3.32695	5.12
3.34362	5.12
3.36028	5.12
3.37695	5.12
3.39362	5.12
3.41028	5.12
3.42695	5.12
3.44362	5.12
3.46028	5.12
3.47695	5.12
3.49362	5.12
3.51028	5.12
3.52695	5.12
3.54362	5.12
3.56028	5.12
3.57695	5.12
3.59362	5.11
3.61028	5.11
3.62695	5.11
3.64362	5.11
3.66028	5.11
3.67695	5.12
3.69362	5.12
3.71028	5.12
3.72695	5.12
3.74362	5.12
3.76028	5.12
3.77695	5.12
3.79362	5.12
3.81028	5.12
3.82695	5.12
3.84362	5.12
3.86028	5.12
3.87695	5.12
3.89362	5.12
3.91028	5.12
3.92695	5.12
3.94362	5.12
3.96028	5.12
3.97695	5.12
3.99362	5.12

[Status Trace (Linear Velocity)]
Interval(msec)	1000
# of Points	240
Start Time(min)	0.010
End Time(min)	3.994
Intensity Units	
Intensity Multiplier	1
R.Time (min)	Intensity
0.01028	39.02
0.02695	37.09
0.04362	38.62
0.06028	40.02
0.07695	39.74
0.09362	39.04
0.11028	39.01
0.12695	39.03
0.14362	39.03
0.16028	39.03
0.17695	39.03
0.19362	39.03
0.21028	39.03
0.22695	39.03
0.24362	39.03
0.26028	39.03
0.27695	39.03
0.29362	39.03
0.31028	39.03
0.32695	39.03
0.34362	39.03
0.36028	39.02
0.37695	39.03
0.39362	39.03
0.41028	39.03
0.42695	39.03
0.44362	39.03
0.46028	39.03
0.47695	39.02
0.49362	39.02
0.51028	39.02
0.52695	39.02
0.54362	39.02
0.56028	39.02
0.57695	39.02
0.59362	39.02
0.61028	39.03
0.62695	39.03
0.64362	39.03
0.66028	39.03
0.67695	39.03
0.69362	39.03
0.71028	39.03
0.72695	39.03
0.74362	39.03
0.76028	39.03
0.77695	39.03
0.79362	39.03
0.81028	39.03
0.82695	39.03
0.84362	39.03
0.86028	39.02
0.87695	39.02
0.89362	39.02
0.91028	39.02
0.92695	39.02
0.94362	39.03
0.96028	39.03
0.97695	39.03
0.99362	39.03
1.01028	39.03
1.02695	39.03
1.04362	39.03
1.06028	39.03
1.07695	39.03
1.09362	39.03
1.11028	39.03
1.12695	39.03
1.14362	39.03
1.16028	39.03
1.17695	39.03
1.19362	39.03
1.21028	39.03
1.22695	39.02
1.24362	39.02
1.26028	39.02
1.27695	39.02
1.29362	39.02
1.31028	39.02
1.32695	39.03
1.34362	39.03
1.36028	39.03
1.37695	39.03
1.39362	39.03
1.41028	39.03
1.42695	39.03
1.44362	39.03
1.46028	39.03
1.47695	39.03
1.49362	39.03
1.51028	39.03
1.52695	39.03
1.54362	39.03
1.56028	39.03
1.57695	39.03
1.59362	39.02
1.61028	39.02
1.62695	39.01
1.64362	38.99
1.66028	38.97
1.67695	38.94
1.69362	38.90
1.71028	38.86
1.72695	38.83
1.74362	38.80
1.76028	38.76
1.77695	38.73
1.79362	38.71
1.81028	38.67
1.82695	38.64
1.84362	38.61
1.86028	38.58
1.87695	38.55
1.89362	38.52
1.91028	38.49
1.92695	38.46
1.94362	38.43
1.96028	38.40
1.97695	38.37
1.99362	38.34
2.01028	38.31
2.02695	38.28
2.04362	38.25
2.06028	38.21
2.07695	38.18
2.09362	38.16
2.11028	38.12
2.12695	38.10
2.14362	38.07
2.16028	38.04
2.17695	38.01
2.19362	37.98
2.21028	37.95
2.22695	37.92
2.24362	37.89
2.26028	37.86
2.27695	37.83
2.29362	37.80
2.31028	37.77
2.32695	37.74
2.34362	37.72
2.36028	37.68
2.37695	37.67
2.39362	37.66
2.41028	37.67
2.42695	37.67
2.44362	37.67
2.46028	37.67
2.47695	37.67
2.49362	37.67
2.51028	37.66
2.52695	37.66
2.54362	37.66
2.56028	37.66
2.57695	37.66
2.59362	37.66
2.61028	37.66
2.62695	37.66
2.64362	37.66
2.66028	37.66
2.67695	37.66
2.69362	37.66
2.71028	37.65
2.72695	37.65
2.74362	37.65
2.76028	37.65
2.77695	37.66
2.79362	37.65
2.81028	37.65
2.82695	37.65
2.84362	37.65
2.86028	37.65
2.87695	37.65
2.89362	37.65
2.91028	37.65
2.92695	37.65
2.94362	37.65
2.96028	37.65
2.97695	37.65
2.99362	37.64
3.01028	37.64
3.02695	37.64
3.04362	37.64
3.06028	37.64
3.07695	37.64
3.09362	37.63
3.11028	37.63
3.12695	37.63
3.14362	37.63
3.16028	37.63
3.17695	37.63
3.19362	37.63
3.21028	37.64
3.22695	37.64
3.24362	37.64
3.26028	37.64
3.27695	37.64
3.29362	37.64
3.31028	37.64
3.32695	37.64
3.34362	37.64
3.36028	37.64
3.37695	37.64
3.39362	37.64
3.41028	37.64
3.42695	37.64
3.44362	37.64
3.46028	37.64
3.47695	37.64
3.49362	37.64
3.51028	37.64
3.52695	37.64
3.54362	37.64
3.56028	37.64
3.57695	37.63
3.59362	37.63
3.61028	37.63
3.62695	37.63
3.64362	37.63
3.66028	37.63
3.67695	37.63
3.69362	37.64
3.71028	37.64
3.72695	37.64
3.74362	37.64
3.76028	37.64
3.77695	37.64
3.79362	37.64
3.81028	37.64
3.82695	37.64
3.84362	37.64
3.86028	37.64
3.87695	37.64
3.89362	37.64
3.91028	37.64
3.92695	37.64
3.94362	37.64
3.96028	37.64
3.97695	37.64
3.99362	37.64

