[Header]
Application Name	LabSolutions
Version	5.110
Data File Name	C:\Users\User\Desktop\GC Analyses\Jack\Nachusa Grasslands Sampling\T1 Timepoint July 12th\T1_07122022_061.gcd
Output Date	3/14/2023
Output Time	3:41:00 PM

[File Information]
Type	Data File
Generated	3/8/2023 8:01:14 PM
Generated by	System Administrator
Modified	3/8/2023 8:08:05 PM
Modified by	System Administrator

[Sample Information]
Operator Name	System Administrator
Acquired	3/8/2023 8:04:04 PM
Sample Type	0:Unknown
Level	0
Sample Name	061
Sample ID	061
ISTD Amount1	1
ISTD Amount2	1
ISTD Amount3	1
ISTD Amount4	1
ISTD Amount5	1
ISTD Amount6	1
ISTD Amount7	1
ISTD Amount8	1
ISTD Amount9	1
ISTD Amount10	1
ISTD Amount11	1
ISTD Amount12	1
ISTD Amount13	1
ISTD Amount14	1
ISTD Amount15	1
ISTD Amount16	1
ISTD Amount17	1
ISTD Amount18	1
ISTD Amount19	1
ISTD Amount20	1
ISTD Amount21	1
ISTD Amount22	1
ISTD Amount23	1
ISTD Amount24	1
ISTD Amount25	1
ISTD Amount26	1
ISTD Amount27	1
ISTD Amount28	1
ISTD Amount29	1
ISTD Amount30	1
ISTD Amount31	1
ISTD Amount32	1
Sample Amount	1
Dilution Factor	1
Vial#	60
Injection Volume	1
Injection Count	1
Bar Code	

[Original Files]
Data File	C:\Users\User\Desktop\GC Analyses\Jack\Nachusa Grasslands Sampling\T1 Timepoint July 12th\T1_07122022_061.gcd
Method File	C:\LabSolutions\Data\GHG_4min_2022\ghg3_togas_w_acet_4 min_new_int.gcm
Batch File	C:\LabSolutions\Data\AutoSamplerTesting\T1_07122022.gcb
Report Format File	c:\LabSolutions\System\DEFAULT.lsr

[File Description]


[Configuration]
Instrument Name	C0B7VH3-Instrument1
Instrument #	1
Line #	1
# of Detectors	3
Detector ID	DET#1	DET#2	DET#3
Detector Name	FID	PTCD	ECD
# of Channels	1	1	1

[Peak Table(Ch1)]
# of Peaks	3
Peak#	R.Time	I.Time	F.Time	Area	Height	A/H	Conc.	Mark	ID#	Name	k'	Plate #	Plate Ht.	Tailing	Resolution	Sep.Factor	Area Ratio	Height Ratio	Conc. %	Norm Conc.
1	1.476	1.439	1.538	28148	13283	2.119	198.728	   	1	CO	0.000	9074	16.531	1.319	0.000	0.000	0	0	23.742	23.742
2	1.567	1.538	1.626	4689	2297	2.041	90.663	 V 	2	CH4	0.062	10580	14.177	0.000	1.492	0.000	0	0	10.832	10.832
3	1.996	1.949	2.484	2182045	1033398	2.112	547.634	   	3	CO2	0.353	17231	8.705	1.303	7.045	5.680	0	0	65.426	65.426

[Peak Table(Ch2)]
# of Peaks	0

[Peak Table(Ch3)]
# of Peaks	5
Peak#	R.Time	I.Time	F.Time	Area	Height	A/H	Conc.	Mark	ID#	Name	k'	Plate #	Plate Ht.	Tailing	Resolution	Sep.Factor	Area Ratio	Height Ratio	Conc. %	Norm Conc.
1	2.462	2.000	2.517	3246	551	5.896	0.000	   			0.000	7365	20.366	0.000	0.000	0.000	0	0	0.000	0.000
2	2.539	2.517	2.631	1358	322	4.217	0.000	 V 			0.031	2988	50.204	0.000	0.512	0.000	0	0	0.000	0.000
3	2.678	2.642	2.788	248	63	3.961	0.000	   			0.088	10341	14.505	1.978	0.957	2.810	0	0	0.000	0.000
4	2.873	2.807	3.063	18334	4841	3.787	0.468	   	1	N2O	0.167	13413	11.183	1.670	1.900	1.898	0	0	100.000	100.000
5	3.206	3.071	3.749	9578	402	23.840	0.000	   	2	SF6	0.302	464	323.057	2.513	0.961	1.813	0	0	0.000	0.000

[Compound Results(Ch1)]
# of IDs	6
ID#	Name	R.Time	Area	Height	Conc.	Curve	3rd	2nd	1st	Constant	Area Ratio	Height Ratio	Conc. %	Norm Conc.
1	CO	1.476	28148	13283	198.728	Linear	0.000000e+00	0.000000e+00	1.416423e+002	0.000000e+00	0	0	23.742	23.742
2	CH4	1.567	4689	2297	90.663	Linear	0.000000e+00	0.000000e+00	5.171738e+001	0.000000e+00	0	0	10.832	10.832
3	CO2	1.996	2182045	1033398	547.634	Linear	0.000000e+00	0.000000e+00	3.984494e+003	0.000000e+00	0	0	65.426	65.426
4	Ethylene	0.000	0	0	0.000	Linear	0.000000e+00	0.000000e+00	0.000000e+00	0.000000e+00	0	0	0.000	0.000
5	Acetylene	0.000	0	0	0.000	Linear	0.000000e+00	0.000000e+00	0.000000e+00	0.000000e+00	0	0	0.000	0.000
6	Ethane	0.000	0	0	0.000	Linear	0.000000e+00	0.000000e+00	0.000000e+00	0.000000e+00	0	0	0.000	0.000

[Compound Results(Ch2)]
# of IDs	5
ID#	Name	R.Time	Area	Height	Conc.	Curve	3rd	2nd	1st	Constant	Area Ratio	Height Ratio	Conc. %	Norm Conc.
1	Hydrogen	0.000	0	0	0.000	Linear	0.000000e+00	0.000000e+00	0.000000e+00	0.000000e+00	0	0	0.000	0.000
2	Oxygen	0.000	0	0	0.000	Linear	0.000000e+00	0.000000e+00	0.000000e+00	0.000000e+00	0	0	0.000	0.000
3	Nitrogen	0.000	0	0	0.000	Linear	0.000000e+00	0.000000e+00	0.000000e+00	0.000000e+00	0	0	0.000	0.000
4	Methane	0.000	0	0	0.000	Linear	0.000000e+00	0.000000e+00	0.000000e+00	0.000000e+00	0	0	0.000	0.000
5	Carbon Monoxide	0.000	0	0	0.000	Linear	0.000000e+00	0.000000e+00	0.000000e+00	0.000000e+00	0	0	0.000	0.000

[Compound Results(Ch3)]
# of IDs	2
ID#	Name	R.Time	Area	Height	Conc.	Curve	3rd	2nd	1st	Constant	Area Ratio	Height Ratio	Conc. %	Norm Conc.
1	N2O	2.873	18334	4841	0.468	Linear	0.000000e+00	0.000000e+00	3.915173e+004	0.000000e+00	0	0	100.000	100.000
2	SF6	3.206	9578	402	0.000	Linear	0.000000e+00	0.000000e+00	0.000000e+00	0.000000e+00	0	0	0.000	0.000

[Group Results(Ch1)]
# of Groups	0

[Group Results(Ch2)]
# of Groups	0

[Group Results(Ch3)]
# of Groups	0

[Chromatogram (Ch1)]
Interval(msec)	220
# of Points	1091
Start Time(min)	0.002
End Time(min)	3.998
R.Time (min)	Intensity
0.00167	14
0.00533	13
0.00900	9
0.01267	4
0.01633	-1
0.02000	-1
0.02367	1
0.02733	6
0.03100	11
0.03467	10
0.03833	7
0.04200	3
0.04567	1
0.04933	5
0.05300	9
0.05667	12
0.06033	15
0.06400	16
0.06767	16
0.07133	17
0.07500	14
0.07867	12
0.08233	18
0.08600	26
0.08967	30
0.09333	31
0.09700	32
0.10067	34
0.10433	35
0.10800	34
0.11167	35
0.11533	35
0.11900	36
0.12267	38
0.12633	40
0.13000	44
0.13367	45
0.13733	45
0.14100	45
0.14467	46
0.14833	45
0.15200	43
0.15567	36
0.15933	29
0.16300	26
0.16667	26
0.17033	30
0.17400	31
0.17767	27
0.18133	24
0.18500	22
0.18867	18
0.19233	18
0.19600	20
0.19967	20
0.20333	22
0.20700	29
0.21067	39
0.21433	48
0.21800	53
0.22167	53
0.22533	47
0.22900	34
0.23267	23
0.23633	13
0.24000	5
0.24367	-2
0.24733	-8
0.25100	-10
0.25467	-11
0.25833	-9
0.26200	-6
0.26567	-1
0.26933	1
0.27300	1
0.27667	2
0.28033	7
0.28400	13
0.28767	15
0.29133	12
0.29500	7
0.29867	4
0.30233	3
0.30600	1
0.30967	-1
0.31333	-2
0.31700	-4
0.32067	-5
0.32433	-6
0.32800	-10
0.33167	-12
0.33533	-10
0.33900	-6
0.34267	-0
0.34633	1
0.35000	0
0.35367	-2
0.35733	-3
0.36100	-2
0.36467	1
0.36833	2
0.37200	-1
0.37567	-2
0.37933	3
0.38300	7
0.38667	7
0.39033	6
0.39400	5
0.39767	6
0.40133	11
0.40500	18
0.40867	24
0.41233	28
0.41600	26
0.41967	20
0.42333	13
0.42700	5
0.43067	-2
0.43433	-8
0.43800	-15
0.44167	-21
0.44533	-14
0.44900	-1
0.45267	9
0.45633	13
0.46000	14
0.46367	15
0.46733	19
0.47100	24
0.47467	24
0.47833	23
0.48200	20
0.48567	14
0.48933	6
0.49300	-1
0.49667	-10
0.50033	-20
0.50400	-26
0.50767	-27
0.51133	-26
0.51500	-25
0.51867	-23
0.52233	-23
0.52600	-29
0.52967	-34
0.53333	-38
0.53700	-35
0.54067	-28
0.54433	-19
0.54800	-11
0.55167	-6
0.55533	-2
0.55900	-0
0.56267	1
0.56633	4
0.57000	7
0.57367	13
0.57733	18
0.58100	19
0.58467	14
0.58833	7
0.59200	1
0.59567	-2
0.59933	-3
0.60300	-2
0.60667	-4
0.61033	-8
0.61400	-14
0.61767	-17
0.62133	-11
0.62500	0
0.62867	12
0.63233	19
0.63600	20
0.63967	20
0.64333	21
0.64700	24
0.65067	24
0.65433	22
0.65800	19
0.66167	14
0.66533	5
0.66900	-3
0.67267	-7
0.67633	-10
0.68000	-11
0.68367	-10
0.68733	-10
0.69100	-12
0.69467	-15
0.69833	-12
0.70200	-8
0.70567	-3
0.70933	1
0.71300	5
0.71667	4
0.72033	0
0.72400	-5
0.72767	-8
0.73133	-10
0.73500	-12
0.73867	-13
0.74233	-11
0.74600	-7
0.74967	-5
0.75333	-4
0.75700	-3
0.76067	-1
0.76433	1
0.76800	5
0.77167	9
0.77533	9
0.77900	4
0.78267	-1
0.78633	-4
0.79000	1
0.79367	4
0.79733	3
0.80100	3
0.80467	4
0.80833	3
0.81200	-1
0.81567	-5
0.81933	-6
0.82300	-5
0.82667	-2
0.83033	4
0.83400	11
0.83767	9
0.84133	-4
0.84500	-19
0.84867	-33
0.85233	-42
0.85600	-46
0.85967	-49
0.86333	-51
0.86700	-50
0.87067	-49
0.87433	-48
0.87800	-46
0.88167	-42
0.88533	-32
0.88900	-21
0.89267	-8
0.89633	1
0.90000	7
0.90367	9
0.90733	7
0.91100	5
0.91467	4
0.91833	5
0.92200	5
0.92567	0
0.92933	-9
0.93300	-21
0.93667	-33
0.94033	-42
0.94400	-51
0.94767	-57
0.95133	-62
0.95500	-60
0.95867	-50
0.96233	-40
0.96600	-33
0.96967	-29
0.97333	-26
0.97700	-24
0.98067	-18
0.98433	-9
0.98800	-4
0.99167	-10
0.99533	-29
0.99900	-48
1.00267	-60
1.00633	-61
1.01000	-58
1.01367	-55
1.01733	-47
1.02100	-36
1.02467	-26
1.02833	-15
1.03200	-8
1.03567	-9
1.03933	-13
1.04300	-16
1.04667	-21
1.05033	-30
1.05400	-36
1.05767	-38
1.06133	-35
1.06500	-25
1.06867	-15
1.07233	-8
1.07600	-7
1.07967	-9
1.08333	-17
1.08700	-27
1.09067	-35
1.09433	-34
1.09800	-31
1.10167	-29
1.10533	-30
1.10900	-33
1.11267	-36
1.11633	-39
1.12000	-37
1.12367	-33
1.12733	-28
1.13100	-23
1.13467	-20
1.13833	-22
1.14200	-24
1.14567	-21
1.14933	-17
1.15300	-16
1.15667	-19
1.16033	-22
1.16400	-22
1.16767	-24
1.17133	-28
1.17500	-32
1.17867	-31
1.18233	-22
1.18600	-7
1.18967	9
1.19333	19
1.19700	17
1.20067	7
1.20433	-4
1.20800	-14
1.21167	-23
1.21533	-25
1.21900	-22
1.22267	-23
1.22633	-26
1.23000	-31
1.23367	-39
1.23733	-49
1.24100	-58
1.24467	-66
1.24833	-72
1.25200	-77
1.25567	-78
1.25933	-74
1.26300	-65
1.26667	-54
1.27033	-43
1.27400	-35
1.27767	-28
1.28133	-20
1.28500	-12
1.28867	-8
1.29233	-8
1.29600	-14
1.29967	-23
1.30333	-32
1.30700	-42
1.31067	-49
1.31433	-51
1.31800	-48
1.32167	-43
1.32533	-38
1.32900	-36
1.33267	-38
1.33633	-37
1.34000	-31
1.34367	-26
1.34733	-26
1.35100	-30
1.35467	-33
1.35833	-36
1.36200	-40
1.36567	-45
1.36933	-49
1.37300	-52
1.37667	-48
1.38033	-43
1.38400	-39
1.38767	-36
1.39133	-32
1.39500	-28
1.39867	-26
1.40233	-25
1.40600	-26
1.40967	-25
1.41333	-23
1.41700	-25
1.42067	-26
1.42433	-26
1.42800	-27
1.43167	-28
1.43533	-27
1.43900	-10
1.44267	76
1.44633	303
1.45000	859
1.45367	2132
1.45733	4253
1.46100	6816
1.46467	9266
1.46833	11258
1.47200	12634
1.47567	13282
1.47933	13088
1.48300	12036
1.48667	10330
1.49033	8329
1.49400	6391
1.49767	4741
1.50133	3446
1.50500	2476
1.50867	1773
1.51233	1274
1.51600	925
1.51967	683
1.52333	515
1.52700	398
1.53067	316
1.53433	264
1.53800	249
1.54167	300
1.54533	468
1.54900	777
1.55267	1180
1.55633	1588
1.56000	1933
1.56367	2183
1.56733	2316
1.57100	2296
1.57467	2109
1.57833	1788
1.58200	1410
1.58567	1050
1.58933	749
1.59300	516
1.59667	344
1.60033	227
1.60400	153
1.60767	107
1.61133	78
1.61500	57
1.61867	44
1.62233	37
1.62600	32
1.62967	27
1.63333	20
1.63700	17
1.64067	19
1.64433	18
1.64800	14
1.65167	9
1.65533	3
1.65900	-2
1.66267	-3
1.66633	-3
1.67000	-2
1.67367	-2
1.67733	-8
1.68100	-17
1.68467	-24
1.68833	-25
1.69200	-22
1.69567	-20
1.69933	-15
1.70300	-9
1.70667	-7
1.71033	-7
1.71400	-8
1.71767	-11
1.72133	-17
1.72500	-29
1.72867	-44
1.73233	-55
1.73600	-61
1.73967	-65
1.74333	-67
1.74700	-69
1.75067	-67
1.75433	-60
1.75800	-53
1.76167	-49
1.76533	-45
1.76900	-37
1.77267	-32
1.77633	-32
1.78000	-33
1.78367	-38
1.78733	-38
1.79100	-34
1.79467	-29
1.79833	-22
1.80200	-17
1.80567	-16
1.80933	-16
1.81300	-16
1.81667	-18
1.82033	-24
1.82400	-34
1.82767	-39
1.83133	-37
1.83500	-34
1.83867	-37
1.84233	-39
1.84600	-40
1.84967	-37
1.85333	-25
1.85700	-9
1.86067	-2
1.86433	-12
1.86800	-33
1.87167	-54
1.87533	-68
1.87900	-74
1.88267	-73
1.88633	-69
1.89000	-65
1.89367	-59
1.89733	-49
1.90100	-36
1.90467	-28
1.90833	-29
1.91200	-37
1.91567	-45
1.91933	-51
1.92300	-54
1.92667	-50
1.93033	-42
1.93400	-31
1.93767	-23
1.94133	-19
1.94500	-15
1.94867	-4
1.95233	26
1.95600	194
1.95967	1176
1.96333	5722
1.96700	21641
1.97067	64320
1.97433	153030
1.97800	297069
1.98167	483519
1.98533	681081
1.98900	855097
1.99267	978186
1.99633	1033443
2.00000	1015660
2.00367	932126
2.00733	801743
2.01100	649810
2.01467	500343
2.01833	369809
2.02200	265356
2.02567	186931
2.02933	130648
2.03300	91473
2.03667	64720
2.04033	46623
2.04400	34403
2.04767	26113
2.05133	20430
2.05500	16469
2.05867	13654
2.06233	11609
2.06600	10086
2.06967	8916
2.07333	7988
2.07700	7229
2.08067	6595
2.08433	6063
2.08800	5616
2.09167	5235
2.09533	4903
2.09900	4610
2.10267	4348
2.10633	4114
2.11000	3906
2.11367	3715
2.11733	3538
2.12100	3373
2.12467	3223
2.12833	3089
2.13200	2969
2.13567	2858
2.13933	2754
2.14300	2650
2.14667	2547
2.15033	2448
2.15400	2359
2.15767	2276
2.16133	2200
2.16500	2126
2.16867	2056
2.17233	1988
2.17600	1924
2.17967	1868
2.18333	1817
2.18700	1774
2.19067	1735
2.19433	1691
2.19800	1647
2.20167	1601
2.20533	1554
2.20900	1511
2.21267	1469
2.21633	1430
2.22000	1398
2.22367	1373
2.22733	1348
2.23100	1322
2.23467	1296
2.23833	1271
2.24200	1245
2.24567	1217
2.24933	1188
2.25300	1162
2.25667	1141
2.26033	1121
2.26400	1102
2.26767	1083
2.27133	1063
2.27500	1043
2.27867	1022
2.28233	1004
2.28600	985
2.28967	964
2.29333	944
2.29700	929
2.30067	915
2.30433	902
2.30800	893
2.31167	885
2.31533	878
2.31900	871
2.32267	857
2.32633	839
2.33000	821
2.33367	808
2.33733	796
2.34100	784
2.34467	769
2.34833	752
2.35200	738
2.35567	728
2.35933	719
2.36300	710
2.36667	702
2.37033	695
2.37400	689
2.37767	685
2.38133	679
2.38500	669
2.38867	657
2.39233	646
2.39600	644
2.39967	645
2.40333	641
2.40700	631
2.41067	620
2.41433	612
2.41800	609
2.42167	609
2.42533	609
2.42900	607
2.43267	600
2.43633	588
2.44000	578
2.44367	570
2.44733	564
2.45100	556
2.45467	548
2.45833	542
2.46200	536
2.46567	534
2.46933	539
2.47300	544
2.47667	546
2.48033	546
2.48400	544
2.48767	541
2.49133	543
2.49500	547
2.49867	551
2.50233	551
2.50600	549
2.50967	546
2.51333	542
2.51700	542
2.52067	545
2.52433	549
2.52800	551
2.53167	553
2.53533	552
2.53900	545
2.54267	534
2.54633	518
2.55000	501
2.55367	486
2.55733	473
2.56100	465
2.56467	455
2.56833	444
2.57200	435
2.57567	430
2.57933	429
2.58300	431
2.58667	433
2.59033	437
2.59400	443
2.59767	450
2.60133	459
2.60500	466
2.60867	472
2.61233	474
2.61600	471
2.61967	466
2.62333	461
2.62700	455
2.63067	451
2.63433	452
2.63800	457
2.64167	458
2.64533	455
2.64900	451
2.65267	446
2.65633	443
2.66000	443
2.66367	444
2.66733	448
2.67100	452
2.67467	452
2.67833	451
2.68200	450
2.68567	449
2.68933	446
2.69300	440
2.69667	433
2.70033	425
2.70400	415
2.70767	409
2.71133	405
2.71500	404
2.71867	404
2.72233	407
2.72600	409
2.72967	412
2.73333	415
2.73700	416
2.74067	411
2.74433	402
2.74800	396
2.75167	397
2.75533	402
2.75900	409
2.76267	414
2.76633	414
2.77000	407
2.77367	398
2.77733	391
2.78100	388
2.78467	385
2.78833	385
2.79200	384
2.79567	383
2.79933	386
2.80300	389
2.80667	390
2.81033	387
2.81400	383
2.81767	384
2.82133	387
2.82500	393
2.82867	402
2.83233	404
2.83600	401
2.83967	396
2.84333	395
2.84700	396
2.85067	392
2.85433	392
2.85800	394
2.86167	394
2.86533	393
2.86900	389
2.87267	381
2.87633	372
2.88000	367
2.88367	359
2.88733	348
2.89100	337
2.89467	328
2.89833	322
2.90200	321
2.90567	321
2.90933	324
2.91300	330
2.91667	332
2.92033	334
2.92400	337
2.92767	339
2.93133	337
2.93500	333
2.93867	332
2.94233	332
2.94600	332
2.94967	333
2.95333	338
2.95700	348
2.96067	357
2.96433	369
2.96800	378
2.97167	382
2.97533	379
2.97900	371
2.98267	361
2.98633	350
2.99000	341
2.99367	339
2.99733	344
3.00100	356
3.00467	364
3.00833	368
3.01200	365
3.01567	359
3.01933	352
3.02300	345
3.02667	339
3.03033	334
3.03400	335
3.03767	340
3.04133	345
3.04500	345
3.04867	342
3.05233	340
3.05600	343
3.05967	349
3.06333	356
3.06700	362
3.07067	364
3.07433	359
3.07800	346
3.08167	334
3.08533	328
3.08900	328
3.09267	335
3.09633	345
3.10000	353
3.10367	354
3.10733	351
3.11100	346
3.11467	341
3.11833	337
3.12200	334
3.12567	332
3.12933	329
3.13300	325
3.13667	322
3.14033	321
3.14400	322
3.14767	327
3.15133	333
3.15500	336
3.15867	334
3.16233	332
3.16600	332
3.16967	333
3.17333	335
3.17700	333
3.18067	331
3.18433	329
3.18800	326
3.19167	318
3.19533	308
3.19900	301
3.20267	301
3.20633	307
3.21000	315
3.21367	325
3.21733	333
3.22100	336
3.22467	333
3.22833	332
3.23200	334
3.23567	333
3.23933	322
3.24300	303
3.24667	283
3.25033	273
3.25400	274
3.25767	279
3.26133	284
3.26500	286
3.26867	287
3.27233	286
3.27600	282
3.27967	281
3.28333	282
3.28700	283
3.29067	288
3.29433	294
3.29800	296
3.30167	291
3.30533	286
3.30900	282
3.31267	280
3.31633	281
3.32000	281
3.32367	280
3.32733	280
3.33100	279
3.33467	281
3.33833	286
3.34200	295
3.34567	308
3.34933	319
3.35300	321
3.35667	315
3.36033	307
3.36400	304
3.36767	307
3.37133	315
3.37500	319
3.37867	315
3.38233	302
3.38600	287
3.38967	277
3.39333	272
3.39700	274
3.40067	281
3.40433	286
3.40800	290
3.41167	292
3.41533	291
3.41900	285
3.42267	277
3.42633	274
3.43000	274
3.43367	273
3.43733	273
3.44100	275
3.44467	280
3.44833	287
3.45200	289
3.45567	288
3.45933	286
3.46300	284
3.46667	283
3.47033	280
3.47400	272
3.47767	266
3.48133	263
3.48500	264
3.48867	269
3.49233	279
3.49600	291
3.49967	302
3.50333	302
3.50700	292
3.51067	280
3.51433	271
3.51800	269
3.52167	276
3.52533	278
3.52900	271
3.53267	259
3.53633	247
3.54000	237
3.54367	232
3.54733	233
3.55100	237
3.55467	244
3.55833	250
3.56200	254
3.56567	258
3.56933	255
3.57300	249
3.57667	242
3.58033	241
3.58400	246
3.58767	253
3.59133	260
3.59500	268
3.59867	276
3.60233	277
3.60600	275
3.60967	268
3.61333	257
3.61700	243
3.62067	230
3.62433	225
3.62800	223
3.63167	224
3.63533	229
3.63900	234
3.64267	240
3.64633	248
3.65000	258
3.65367	262
3.65733	255
3.66100	248
3.66467	245
3.66833	249
3.67200	255
3.67567	259
3.67933	258
3.68300	256
3.68667	252
3.69033	243
3.69400	231
3.69767	220
3.70133	214
3.70500	216
3.70867	224
3.71233	236
3.71600	241
3.71967	234
3.72333	224
3.72700	218
3.73067	215
3.73433	217
3.73800	220
3.74167	222
3.74533	224
3.74900	226
3.75267	227
3.75633	224
3.76000	226
3.76367	229
3.76733	228
3.77100	225
3.77467	220
3.77833	217
3.78200	216
3.78567	214
3.78933	211
3.79300	208
3.79667	206
3.80033	204
3.80400	204
3.80767	207
3.81133	210
3.81500	216
3.81867	224
3.82233	228
3.82600	222
3.82967	214
3.83333	209
3.83700	209
3.84067	209
3.84433	211
3.84800	214
3.85167	221
3.85533	232
3.85900	243
3.86267	246
3.86633	241
3.87000	234
3.87367	224
3.87733	215
3.88100	207
3.88467	201
3.88833	196
3.89200	195
3.89567	195
3.89933	194
3.90300	190
3.90667	188
3.91033	188
3.91400	191
3.91767	194
3.92133	197
3.92500	199
3.92867	200
3.93233	201
3.93600	202
3.93967	204
3.94333	206
3.94700	205
3.95067	205
3.95433	210
3.95800	218
3.96167	224
3.96533	227
3.96900	228
3.97267	225
3.97633	220
3.98000	213
3.98367	207
3.98733	201
3.99100	195
3.99467	188
3.99833	180

[Chromatogram (Ch2)]
Interval(msec)	220
# of Points	1091
Start Time(min)	0.002
End Time(min)	3.998
R.Time (min)	Intensity
0.00167	-0
0.00533	-0
0.00900	-0
0.01267	-1
0.01633	-1
0.02000	-1
0.02367	-1
0.02733	-1
0.03100	-1
0.03467	-1
0.03833	-0
0.04200	0
0.04567	1
0.04933	1
0.05300	2
0.05667	3
0.06033	3
0.06400	3
0.06767	3
0.07133	3
0.07500	3
0.07867	3
0.08233	3
0.08600	3
0.08967	3
0.09333	3
0.09700	3
0.10067	3
0.10433	3
0.10800	4
0.11167	4
0.11533	4
0.11900	4
0.12267	4
0.12633	4
0.13000	4
0.13367	3
0.13733	3
0.14100	2
0.14467	2
0.14833	1
0.15200	1
0.15567	1
0.15933	1
0.16300	0
0.16667	-0
0.17033	-0
0.17400	-1
0.17767	-1
0.18133	-1
0.18500	-1
0.18867	-2
0.19233	-2
0.19600	-2
0.19967	-2
0.20333	-2
0.20700	-1
0.21067	-1
0.21433	-0
0.21800	-0
0.22167	-0
0.22533	-0
0.22900	-0
0.23267	-0
0.23633	-0
0.24000	-0
0.24367	0
0.24733	0
0.25100	1
0.25467	2
0.25833	2
0.26200	2
0.26567	3
0.26933	3
0.27300	3
0.27667	3
0.28033	3
0.28400	4
0.28767	4
0.29133	3
0.29500	3
0.29867	3
0.30233	3
0.30600	3
0.30967	3
0.31333	3
0.31700	3
0.32067	3
0.32433	3
0.32800	2
0.33167	2
0.33533	3
0.33900	3
0.34267	3
0.34633	3
0.35000	3
0.35367	3
0.35733	2
0.36100	2
0.36467	2
0.36833	2
0.37200	1
0.37567	1
0.37933	1
0.38300	0
0.38667	0
0.39033	0
0.39400	-0
0.39767	-0
0.40133	-1
0.40500	-1
0.40867	-2
0.41233	-2
0.41600	-2
0.41967	-2
0.42333	-2
0.42700	-2
0.43067	-2
0.43433	-2
0.43800	-2
0.44167	-2
0.44533	-1
0.44900	-1
0.45267	-1
0.45633	-1
0.46000	-1
0.46367	-1
0.46733	-2
0.47100	-2
0.47467	-2
0.47833	-2
0.48200	-1
0.48567	-1
0.48933	-0
0.49300	-0
0.49667	0
0.50033	0
0.50400	0
0.50767	1
0.51133	1
0.51500	1
0.51867	0
0.52233	0
0.52600	0
0.52967	0
0.53333	-0
0.53700	-0
0.54067	-0
0.54433	-0
0.54800	-0
0.55167	0
0.55533	1
0.55900	1
0.56267	1
0.56633	2
0.57000	2
0.57367	2
0.57733	2
0.58100	2
0.58467	2
0.58833	2
0.59200	2
0.59567	2
0.59933	1
0.60300	1
0.60667	1
0.61033	1
0.61400	1
0.61767	0
0.62133	0
0.62500	0
0.62867	0
0.63233	0
0.63600	0
0.63967	1
0.64333	1
0.64700	1
0.65067	1
0.65433	1
0.65800	1
0.66167	0
0.66533	0
0.66900	0
0.67267	0
0.67633	0
0.68000	0
0.68367	1
0.68733	1
0.69100	1
0.69467	1
0.69833	1
0.70200	1
0.70567	1
0.70933	1
0.71300	1
0.71667	2
0.72033	2
0.72400	2
0.72767	1
0.73133	1
0.73500	1
0.73867	1
0.74233	1
0.74600	1
0.74967	1
0.75333	1
0.75700	1
0.76067	1
0.76433	1
0.76800	1
0.77167	1
0.77533	1
0.77900	1
0.78267	0
0.78633	-0
0.79000	-0
0.79367	-0
0.79733	-0
0.80100	-1
0.80467	-1
0.80833	-1
0.81200	-1
0.81567	-2
0.81933	-2
0.82300	-2
0.82667	-2
0.83033	-2
0.83400	-2
0.83767	-2
0.84133	-1
0.84500	-1
0.84867	-0
0.85233	0
0.85600	1
0.85967	1
0.86333	2
0.86700	2
0.87067	3
0.87433	3
0.87800	3
0.88167	3
0.88533	3
0.88900	2
0.89267	2
0.89633	1
0.90000	1
0.90367	0
0.90733	-0
0.91100	-1
0.91467	-1
0.91833	-1
0.92200	-1
0.92567	-1
0.92933	-2
0.93300	-2
0.93667	-2
0.94033	-2
0.94400	-2
0.94767	-2
0.95133	-1
0.95500	-1
0.95867	-1
0.96233	-0
0.96600	0
0.96967	1
0.97333	1
0.97700	1
0.98067	1
0.98433	1
0.98800	1
0.99167	1
0.99533	1
0.99900	1
1.00267	1
1.00633	1
1.01000	1
1.01367	1
1.01733	1
1.02100	1
1.02467	1
1.02833	1
1.03200	1
1.03567	1
1.03933	1
1.04300	2
1.04667	2
1.05033	2
1.05400	2
1.05767	2
1.06133	2
1.06500	1
1.06867	1
1.07233	1
1.07600	1
1.07967	1
1.08333	1
1.08700	1
1.09067	1
1.09433	1
1.09800	1
1.10167	1
1.10533	0
1.10900	-0
1.11267	-1
1.11633	-1
1.12000	-1
1.12367	-1
1.12733	-1
1.13100	-1
1.13467	-2
1.13833	-2
1.14200	-2
1.14567	-3
1.14933	-3
1.15300	-4
1.15667	-4
1.16033	-4
1.16400	-4
1.16767	-4
1.17133	-4
1.17500	-4
1.17867	-4
1.18233	-4
1.18600	-4
1.18967	-4
1.19333	-4
1.19700	-4
1.20067	-4
1.20433	-3
1.20800	-3
1.21167	-2
1.21533	-2
1.21900	-1
1.22267	-1
1.22633	-1
1.23000	-1
1.23367	-2
1.23733	-2
1.24100	-2
1.24467	-2
1.24833	-2
1.25200	-2
1.25567	-2
1.25933	-2
1.26300	-2
1.26667	-3
1.27033	-2
1.27400	-2
1.27767	-3
1.28133	-3
1.28500	-3
1.28867	-3
1.29233	-3
1.29600	-3
1.29967	-3
1.30333	-3
1.30700	-3
1.31067	-3
1.31433	-3
1.31800	-3
1.32167	-3
1.32533	-2
1.32900	-2
1.33267	-2
1.33633	-2
1.34000	-2
1.34367	-2
1.34733	-2
1.35100	-2
1.35467	-2
1.35833	-2
1.36200	-2
1.36567	-2
1.36933	-2
1.37300	-2
1.37667	-2
1.38033	-2
1.38400	-2
1.38767	-2
1.39133	-2
1.39500	-2
1.39867	-2
1.40233	-1
1.40600	-1
1.40967	-1
1.41333	-1
1.41700	-2
1.42067	-2
1.42433	-2
1.42800	-2
1.43167	-3
1.43533	-3
1.43900	-3
1.44267	-3
1.44633	-3
1.45000	-3
1.45367	-3
1.45733	-3
1.46100	-3
1.46467	-3
1.46833	-4
1.47200	-4
1.47567	-4
1.47933	-4
1.48300	-3
1.48667	-3
1.49033	-3
1.49400	-3
1.49767	-3
1.50133	-3
1.50500	-3
1.50867	-2
1.51233	-2
1.51600	-2
1.51967	-2
1.52333	-2
1.52700	-3
1.53067	-3
1.53433	-3
1.53800	-4
1.54167	-4
1.54533	-4
1.54900	-5
1.55267	-5
1.55633	-5
1.56000	-5
1.56367	-5
1.56733	-5
1.57100	-5
1.57467	-6
1.57833	-6
1.58200	-6
1.58567	-6
1.58933	-6
1.59300	-6
1.59667	-6
1.60033	-7
1.60400	-7
1.60767	-9
1.61133	-10
1.61500	-12
1.61867	-14
1.62233	-17
1.62600	-20
1.62967	-23
1.63333	-26
1.63700	-29
1.64067	-33
1.64433	-36
1.64800	-40
1.65167	-43
1.65533	-47
1.65900	-51
1.66267	-55
1.66633	-59
1.67000	-64
1.67367	-69
1.67733	-74
1.68100	-79
1.68467	-84
1.68833	-89
1.69200	-93
1.69567	-97
1.69933	-100
1.70300	-102
1.70667	-104
1.71033	-106
1.71400	-107
1.71767	-108
1.72133	-109
1.72500	-109
1.72867	-110
1.73233	-110
1.73600	-110
1.73967	-109
1.74333	-109
1.74700	-109
1.75067	-109
1.75433	-109
1.75800	-109
1.76167	-110
1.76533	-111
1.76900	-112
1.77267	-113
1.77633	-115
1.78000	-116
1.78367	-118
1.78733	-119
1.79100	-119
1.79467	-120
1.79833	-120
1.80200	-119
1.80567	-119
1.80933	-119
1.81300	-119
1.81667	-118
1.82033	-118
1.82400	-117
1.82767	-116
1.83133	-115
1.83500	-115
1.83867	-115
1.84233	-115
1.84600	-115
1.84967	-116
1.85333	-116
1.85700	-116
1.86067	-116
1.86433	-116
1.86800	-116
1.87167	-116
1.87533	-116
1.87900	-116
1.88267	-116
1.88633	-116
1.89000	-116
1.89367	-116
1.89733	-116
1.90100	-116
1.90467	-117
1.90833	-117
1.91200	-117
1.91567	-117
1.91933	-117
1.92300	-116
1.92667	-116
1.93033	-116
1.93400	-115
1.93767	-115
1.94133	-114
1.94500	-114
1.94867	-114
1.95233	-114
1.95600	-113
1.95967	-113
1.96333	-112
1.96700	-112
1.97067	-112
1.97433	-112
1.97800	-112
1.98167	-112
1.98533	-112
1.98900	-111
1.99267	-111
1.99633	-111
2.00000	-111
2.00367	-110
2.00733	-110
2.01100	-109
2.01467	-108
2.01833	-107
2.02200	-107
2.02567	-107
2.02933	-107
2.03300	-107
2.03667	-107
2.04033	-108
2.04400	-107
2.04767	-107
2.05133	-107
2.05500	-106
2.05867	-105
2.06233	-105
2.06600	-104
2.06967	-104
2.07333	-104
2.07700	-103
2.08067	-103
2.08433	-103
2.08800	-103
2.09167	-103
2.09533	-102
2.09900	-102
2.10267	-102
2.10633	-102
2.11000	-102
2.11367	-102
2.11733	-102
2.12100	-101
2.12467	-101
2.12833	-100
2.13200	-100
2.13567	-100
2.13933	-100
2.14300	-99
2.14667	-99
2.15033	-98
2.15400	-98
2.15767	-97
2.16133	-97
2.16500	-97
2.16867	-96
2.17233	-96
2.17600	-96
2.17967	-96
2.18333	-95
2.18700	-95
2.19067	-94
2.19433	-93
2.19800	-92
2.20167	-92
2.20533	-91
2.20900	-91
2.21267	-91
2.21633	-91
2.22000	-91
2.22367	-91
2.22733	-91
2.23100	-91
2.23467	-91
2.23833	-91
2.24200	-91
2.24567	-91
2.24933	-90
2.25300	-90
2.25667	-89
2.26033	-89
2.26400	-89
2.26767	-88
2.27133	-88
2.27500	-88
2.27867	-88
2.28233	-88
2.28600	-88
2.28967	-88
2.29333	-87
2.29700	-87
2.30067	-86
2.30433	-86
2.30800	-85
2.31167	-85
2.31533	-84
2.31900	-84
2.32267	-83
2.32633	-83
2.33000	-83
2.33367	-82
2.33733	-81
2.34100	-80
2.34467	-79
2.34833	-78
2.35200	-77
2.35567	-75
2.35933	-74
2.36300	-72
2.36667	-70
2.37033	-67
2.37400	-64
2.37767	-61
2.38133	-58
2.38500	-54
2.38867	-50
2.39233	-46
2.39600	-42
2.39967	-37
2.40333	-33
2.40700	-29
2.41067	-26
2.41433	-23
2.41800	-21
2.42167	-20
2.42533	-18
2.42900	-17
2.43267	-16
2.43633	-15
2.44000	-13
2.44367	-12
2.44733	-11
2.45100	-10
2.45467	-9
2.45833	-8
2.46200	-6
2.46567	-4
2.46933	-3
2.47300	-1
2.47667	0
2.48033	2
2.48400	2
2.48767	3
2.49133	4
2.49500	5
2.49867	6
2.50233	7
2.50600	8
2.50967	9
2.51333	10
2.51700	10
2.52067	11
2.52433	11
2.52800	11
2.53167	12
2.53533	12
2.53900	12
2.54267	13
2.54633	13
2.55000	13
2.55367	13
2.55733	12
2.56100	12
2.56467	12
2.56833	12
2.57200	12
2.57567	12
2.57933	12
2.58300	12
2.58667	12
2.59033	12
2.59400	13
2.59767	13
2.60133	13
2.60500	14
2.60867	14
2.61233	14
2.61600	15
2.61967	15
2.62333	16
2.62700	16
2.63067	16
2.63433	15
2.63800	15
2.64167	15
2.64533	15
2.64900	16
2.65267	16
2.65633	17
2.66000	17
2.66367	18
2.66733	18
2.67100	18
2.67467	18
2.67833	19
2.68200	19
2.68567	19
2.68933	20
2.69300	20
2.69667	20
2.70033	21
2.70400	21
2.70767	21
2.71133	22
2.71500	22
2.71867	22
2.72233	23
2.72600	23
2.72967	23
2.73333	24
2.73700	24
2.74067	24
2.74433	24
2.74800	25
2.75167	25
2.75533	25
2.75900	26
2.76267	26
2.76633	26
2.77000	26
2.77367	26
2.77733	26
2.78100	25
2.78467	25
2.78833	24
2.79200	24
2.79567	24
2.79933	24
2.80300	24
2.80667	24
2.81033	25
2.81400	25
2.81767	25
2.82133	26
2.82500	26
2.82867	26
2.83233	26
2.83600	25
2.83967	24
2.84333	21
2.84700	16
2.85067	9
2.85433	-1
2.85800	-14
2.86167	-32
2.86533	-53
2.86900	-79
2.87267	-109
2.87633	-143
2.88000	-182
2.88367	-223
2.88733	-268
2.89100	-315
2.89467	-365
2.89833	-417
2.90200	-470
2.90567	-524
2.90933	-578
2.91300	-633
2.91667	-687
2.92033	-740
2.92400	-792
2.92767	-844
2.93133	-897
2.93500	-955
2.93867	-1015
2.94233	-1067
2.94600	-1101
2.94967	-1110
2.95333	-1093
2.95700	-1053
2.96067	-995
2.96433	-923
2.96800	-845
2.97167	-763
2.97533	-683
2.97900	-605
2.98267	-532
2.98633	-465
2.99000	-405
2.99367	-350
2.99733	-302
3.00100	-259
3.00467	-221
3.00833	-188
3.01200	-160
3.01567	-135
3.01933	-114
3.02300	-96
3.02667	-80
3.03033	-67
3.03400	-55
3.03767	-45
3.04133	-36
3.04500	-29
3.04867	-23
3.05233	-17
3.05600	-13
3.05967	-9
3.06333	-5
3.06700	-2
3.07067	0
3.07433	2
3.07800	4
3.08167	6
3.08533	7
3.08900	8
3.09267	9
3.09633	10
3.10000	11
3.10367	12
3.10733	13
3.11100	14
3.11467	14
3.11833	15
3.12200	15
3.12567	15
3.12933	15
3.13300	16
3.13667	16
3.14033	16
3.14400	17
3.14767	17
3.15133	17
3.15500	18
3.15867	18
3.16233	18
3.16600	19
3.16967	19
3.17333	19
3.17700	19
3.18067	19
3.18433	19
3.18800	20
3.19167	20
3.19533	20
3.19900	20
3.20267	20
3.20633	20
3.21000	20
3.21367	20
3.21733	21
3.22100	21
3.22467	21
3.22833	21
3.23200	22
3.23567	21
3.23933	21
3.24300	22
3.24667	22
3.25033	22
3.25400	22
3.25767	22
3.26133	22
3.26500	22
3.26867	22
3.27233	22
3.27600	22
3.27967	22
3.28333	22
3.28700	22
3.29067	22
3.29433	23
3.29800	23
3.30167	23
3.30533	23
3.30900	23
3.31267	23
3.31633	24
3.32000	24
3.32367	24
3.32733	25
3.33100	25
3.33467	25
3.33833	26
3.34200	26
3.34567	26
3.34933	27
3.35300	27
3.35667	28
3.36033	28
3.36400	28
3.36767	28
3.37133	28
3.37500	28
3.37867	28
3.38233	28
3.38600	28
3.38967	28
3.39333	28
3.39700	28
3.40067	27
3.40433	27
3.40800	27
3.41167	27
3.41533	26
3.41900	26
3.42267	26
3.42633	25
3.43000	25
3.43367	25
3.43733	25
3.44100	25
3.44467	25
3.44833	25
3.45200	25
3.45567	25
3.45933	25
3.46300	25
3.46667	25
3.47033	25
3.47400	25
3.47767	25
3.48133	25
3.48500	25
3.48867	25
3.49233	25
3.49600	25
3.49967	25
3.50333	25
3.50700	25
3.51067	25
3.51433	25
3.51800	25
3.52167	25
3.52533	26
3.52900	26
3.53267	26
3.53633	26
3.54000	26
3.54367	26
3.54733	26
3.55100	26
3.55467	26
3.55833	25
3.56200	25
3.56567	25
3.56933	25
3.57300	25
3.57667	25
3.58033	25
3.58400	26
3.58767	26
3.59133	26
3.59500	27
3.59867	27
3.60233	27
3.60600	27
3.60967	27
3.61333	27
3.61700	26
3.62067	26
3.62433	26
3.62800	26
3.63167	26
3.63533	27
3.63900	26
3.64267	26
3.64633	26
3.65000	26
3.65367	26
3.65733	26
3.66100	25
3.66467	25
3.66833	26
3.67200	26
3.67567	26
3.67933	26
3.68300	26
3.68667	26
3.69033	26
3.69400	26
3.69767	26
3.70133	26
3.70500	26
3.70867	26
3.71233	26
3.71600	26
3.71967	27
3.72333	27
3.72700	27
3.73067	27
3.73433	27
3.73800	27
3.74167	27
3.74533	27
3.74900	27
3.75267	27
3.75633	27
3.76000	27
3.76367	27
3.76733	27
3.77100	27
3.77467	27
3.77833	27
3.78200	28
3.78567	28
3.78933	28
3.79300	28
3.79667	28
3.80033	28
3.80400	29
3.80767	29
3.81133	29
3.81500	29
3.81867	29
3.82233	29
3.82600	29
3.82967	28
3.83333	28
3.83700	27
3.84067	27
3.84433	27
3.84800	27
3.85167	27
3.85533	26
3.85900	26
3.86267	26
3.86633	26
3.87000	26
3.87367	26
3.87733	26
3.88100	26
3.88467	26
3.88833	26
3.89200	26
3.89567	26
3.89933	26
3.90300	26
3.90667	26
3.91033	26
3.91400	26
3.91767	26
3.92133	26
3.92500	26
3.92867	26
3.93233	26
3.93600	25
3.93967	26
3.94333	26
3.94700	26
3.95067	26
3.95433	26
3.95800	26
3.96167	26
3.96533	26
3.96900	26
3.97267	26
3.97633	27
3.98000	27
3.98367	27
3.98733	28
3.99100	28
3.99467	28
3.99833	28

[Chromatogram (Ch3)]
Interval(msec)	220
# of Points	1091
Start Time(min)	0.002
End Time(min)	3.998
R.Time (min)	Intensity
0.00167	0
0.00533	4
0.00900	6
0.01267	7
0.01633	7
0.02000	8
0.02367	8
0.02733	9
0.03100	8
0.03467	6
0.03833	2
0.04200	-0
0.04567	0
0.04933	3
0.05300	3
0.05667	3
0.06033	3
0.06400	4
0.06767	2
0.07133	2
0.07500	3
0.07867	5
0.08233	5
0.08600	5
0.08967	5
0.09333	5
0.09700	3
0.10067	1
0.10433	-0
0.10800	-1
0.11167	1
0.11533	2
0.11900	1
0.12267	1
0.12633	1
0.13000	-1
0.13367	-0
0.13733	-0
0.14100	-0
0.14467	0
0.14833	0
0.15200	2
0.15567	5
0.15933	6
0.16300	5
0.16667	2
0.17033	1
0.17400	2
0.17767	2
0.18133	2
0.18500	1
0.18867	1
0.19233	1
0.19600	2
0.19967	4
0.20333	4
0.20700	4
0.21067	4
0.21433	5
0.21800	4
0.22167	2
0.22533	2
0.22900	2
0.23267	3
0.23633	4
0.24000	4
0.24367	3
0.24733	3
0.25100	3
0.25467	3
0.25833	3
0.26200	4
0.26567	5
0.26933	5
0.27300	4
0.27667	3
0.28033	3
0.28400	4
0.28767	5
0.29133	7
0.29500	6
0.29867	5
0.30233	4
0.30600	3
0.30967	2
0.31333	4
0.31700	6
0.32067	8
0.32433	9
0.32800	8
0.33167	7
0.33533	5
0.33900	3
0.34267	3
0.34633	3
0.35000	5
0.35367	6
0.35733	6
0.36100	5
0.36467	4
0.36833	4
0.37200	5
0.37567	5
0.37933	4
0.38300	4
0.38667	4
0.39033	4
0.39400	3
0.39767	4
0.40133	4
0.40500	8
0.40867	10
0.41233	9
0.41600	8
0.41967	6
0.42333	5
0.42700	5
0.43067	5
0.43433	7
0.43800	9
0.44167	9
0.44533	9
0.44900	9
0.45267	8
0.45633	10
0.46000	12
0.46367	10
0.46733	5
0.47100	3
0.47467	2
0.47833	2
0.48200	2
0.48567	0
0.48933	1
0.49300	3
0.49667	3
0.50033	2
0.50400	3
0.50767	5
0.51133	4
0.51500	4
0.51867	5
0.52233	6
0.52600	4
0.52967	3
0.53333	4
0.53700	5
0.54067	4
0.54433	5
0.54800	6
0.55167	6
0.55533	7
0.55900	7
0.56267	8
0.56633	10
0.57000	11
0.57367	10
0.57733	7
0.58100	3
0.58467	3
0.58833	7
0.59200	8
0.59567	9
0.59933	8
0.60300	7
0.60667	6
0.61033	6
0.61400	5
0.61767	6
0.62133	7
0.62500	7
0.62867	8
0.63233	6
0.63600	6
0.63967	8
0.64333	9
0.64700	8
0.65067	9
0.65433	10
0.65800	9
0.66167	8
0.66533	9
0.66900	10
0.67267	9
0.67633	7
0.68000	6
0.68367	7
0.68733	8
0.69100	10
0.69467	9
0.69833	7
0.70200	7
0.70567	7
0.70933	8
0.71300	10
0.71667	11
0.72033	11
0.72400	10
0.72767	10
0.73133	13
0.73500	13
0.73867	13
0.74233	14
0.74600	14
0.74967	14
0.75333	15
0.75700	16
0.76067	13
0.76433	11
0.76800	13
0.77167	14
0.77533	17
0.77900	15
0.78267	14
0.78633	14
0.79000	14
0.79367	15
0.79733	15
0.80100	15
0.80467	14
0.80833	12
0.81200	12
0.81567	14
0.81933	15
0.82300	14
0.82667	15
0.83033	13
0.83400	10
0.83767	9
0.84133	10
0.84500	10
0.84867	11
0.85233	12
0.85600	14
0.85967	12
0.86333	13
0.86700	15
0.87067	14
0.87433	12
0.87800	13
0.88167	16
0.88533	20
0.88900	20
0.89267	20
0.89633	21
0.90000	23
0.90367	23
0.90733	24
0.91100	23
0.91467	20
0.91833	21
0.92200	19
0.92567	18
0.92933	18
0.93300	18
0.93667	20
0.94033	22
0.94400	21
0.94767	19
0.95133	18
0.95500	17
0.95867	16
0.96233	17
0.96600	19
0.96967	19
0.97333	19
0.97700	19
0.98067	20
0.98433	21
0.98800	20
0.99167	19
0.99533	17
0.99900	16
1.00267	15
1.00633	15
1.01000	16
1.01367	16
1.01733	18
1.02100	19
1.02467	20
1.02833	22
1.03200	23
1.03567	24
1.03933	25
1.04300	24
1.04667	24
1.05033	25
1.05400	25
1.05767	25
1.06133	24
1.06500	24
1.06867	27
1.07233	27
1.07600	28
1.07967	31
1.08333	31
1.08700	30
1.09067	30
1.09433	29
1.09800	29
1.10167	28
1.10533	28
1.10900	28
1.11267	28
1.11633	29
1.12000	31
1.12367	31
1.12733	30
1.13100	29
1.13467	28
1.13833	29
1.14200	31
1.14567	30
1.14933	31
1.15300	30
1.15667	32
1.16033	33
1.16400	32
1.16767	31
1.17133	30
1.17500	30
1.17867	30
1.18233	30
1.18600	30
1.18967	30
1.19333	30
1.19700	31
1.20067	34
1.20433	35
1.20800	36
1.21167	34
1.21533	33
1.21900	31
1.22267	30
1.22633	30
1.23000	27
1.23367	25
1.23733	26
1.24100	27
1.24467	29
1.24833	30
1.25200	31
1.25567	32
1.25933	32
1.26300	32
1.26667	32
1.27033	30
1.27400	30
1.27767	32
1.28133	31
1.28500	29
1.28867	28
1.29233	27
1.29600	28
1.29967	30
1.30333	32
1.30700	32
1.31067	31
1.31433	31
1.31800	32
1.32167	33
1.32533	35
1.32900	34
1.33267	32
1.33633	32
1.34000	32
1.34367	32
1.34733	32
1.35100	33
1.35467	38
1.35833	40
1.36200	38
1.36567	37
1.36933	38
1.37300	39
1.37667	41
1.38033	42
1.38400	41
1.38767	40
1.39133	41
1.39500	42
1.39867	41
1.40233	40
1.40600	41
1.40967	43
1.41333	45
1.41700	43
1.42067	40
1.42433	37
1.42800	36
1.43167	33
1.43533	33
1.43900	34
1.44267	35
1.44633	35
1.45000	34
1.45367	35
1.45733	38
1.46100	39
1.46467	37
1.46833	35
1.47200	34
1.47567	33
1.47933	33
1.48300	34
1.48667	34
1.49033	35
1.49400	34
1.49767	35
1.50133	37
1.50500	36
1.50867	35
1.51233	35
1.51600	35
1.51967	34
1.52333	33
1.52700	31
1.53067	31
1.53433	32
1.53800	32
1.54167	30
1.54533	29
1.54900	30
1.55267	32
1.55633	32
1.56000	31
1.56367	31
1.56733	31
1.57100	29
1.57467	30
1.57833	30
1.58200	30
1.58567	30
1.58933	30
1.59300	31
1.59667	32
1.60033	30
1.60400	27
1.60767	25
1.61133	26
1.61500	27
1.61867	28
1.62233	30
1.62600	34
1.62967	35
1.63333	34
1.63700	35
1.64067	36
1.64433	36
1.64800	38
1.65167	40
1.65533	41
1.65900	40
1.66267	39
1.66633	39
1.67000	40
1.67367	42
1.67733	41
1.68100	40
1.68467	38
1.68833	37
1.69200	38
1.69567	40
1.69933	42
1.70300	42
1.70667	42
1.71033	41
1.71400	42
1.71767	44
1.72133	43
1.72500	43
1.72867	42
1.73233	41
1.73600	39
1.73967	39
1.74333	40
1.74700	42
1.75067	42
1.75433	42
1.75800	41
1.76167	42
1.76533	46
1.76900	48
1.77267	47
1.77633	46
1.78000	46
1.78367	49
1.78733	49
1.79100	46
1.79467	44
1.79833	43
1.80200	42
1.80567	43
1.80933	46
1.81300	50
1.81667	52
1.82033	53
1.82400	53
1.82767	53
1.83133	55
1.83500	57
1.83867	59
1.84233	61
1.84600	61
1.84967	61
1.85333	62
1.85700	62
1.86067	59
1.86433	57
1.86800	59
1.87167	60
1.87533	62
1.87900	64
1.88267	64
1.88633	62
1.89000	63
1.89367	63
1.89733	64
1.90100	66
1.90467	68
1.90833	72
1.91200	76
1.91567	75
1.91933	73
1.92300	72
1.92667	73
1.93033	73
1.93400	72
1.93767	72
1.94133	72
1.94500	74
1.94867	78
1.95233	80
1.95600	79
1.95967	81
1.96333	83
1.96700	84
1.97067	83
1.97433	81
1.97800	79
1.98167	78
1.98533	79
1.98900	81
1.99267	81
1.99633	82
2.00000	83
2.00367	85
2.00733	85
2.01100	86
2.01467	85
2.01833	87
2.02200	87
2.02567	87
2.02933	87
2.03300	87
2.03667	87
2.04033	87
2.04400	87
2.04767	91
2.05133	95
2.05500	96
2.05867	96
2.06233	95
2.06600	94
2.06967	94
2.07333	94
2.07700	95
2.08067	96
2.08433	97
2.08800	100
2.09167	102
2.09533	103
2.09900	104
2.10267	105
2.10633	105
2.11000	107
2.11367	109
2.11733	111
2.12100	113
2.12467	113
2.12833	112
2.13200	112
2.13567	113
2.13933	114
2.14300	117
2.14667	120
2.15033	120
2.15400	120
2.15767	121
2.16133	124
2.16500	125
2.16867	124
2.17233	126
2.17600	128
2.17967	129
2.18333	128
2.18700	127
2.19067	126
2.19433	128
2.19800	130
2.20167	132
2.20533	134
2.20900	138
2.21267	140
2.21633	140
2.22000	139
2.22367	139
2.22733	141
2.23100	142
2.23467	143
2.23833	146
2.24200	148
2.24567	150
2.24933	151
2.25300	152
2.25667	159
2.26033	164
2.26400	166
2.26767	165
2.27133	164
2.27500	166
2.27867	168
2.28233	170
2.28600	170
2.28967	171
2.29333	172
2.29700	174
2.30067	177
2.30433	177
2.30800	176
2.31167	177
2.31533	179
2.31900	181
2.32267	184
2.32633	188
2.33000	191
2.33367	192
2.33733	193
2.34100	193
2.34467	196
2.34833	201
2.35200	206
2.35567	208
2.35933	208
2.36300	208
2.36667	210
2.37033	212
2.37400	212
2.37767	211
2.38133	212
2.38500	213
2.38867	213
2.39233	215
2.39600	220
2.39967	226
2.40333	231
2.40700	235
2.41067	236
2.41433	237
2.41800	241
2.42167	243
2.42533	244
2.42900	244
2.43267	245
2.43633	245
2.44000	247
2.44367	285
2.44733	389
2.45100	502
2.45467	594
2.45833	650
2.46200	656
2.46567	631
2.46933	597
2.47300	573
2.47667	560
2.48033	553
2.48400	543
2.48767	520
2.49133	486
2.49500	451
2.49867	420
2.50233	400
2.50600	386
2.50967	376
2.51333	370
2.51700	370
2.52067	374
2.52433	384
2.52800	397
2.53167	412
2.53533	425
2.53900	432
2.54267	430
2.54633	421
2.55000	406
2.55367	389
2.55733	370
2.56100	354
2.56467	338
2.56833	322
2.57200	313
2.57567	305
2.57933	300
2.58300	296
2.58667	294
2.59033	291
2.59400	286
2.59767	278
2.60133	267
2.60500	252
2.60867	232
2.61233	207
2.61600	182
2.61967	159
2.62333	138
2.62700	124
2.63067	114
2.63433	109
2.63800	109
2.64167	114
2.64533	122
2.64900	132
2.65267	141
2.65633	151
2.66000	160
2.66367	171
2.66733	178
2.67100	183
2.67467	188
2.67833	190
2.68200	190
2.68567	188
2.68933	188
2.69300	189
2.69667	188
2.70033	185
2.70400	182
2.70767	179
2.71133	178
2.71500	176
2.71867	172
2.72233	168
2.72600	164
2.72967	164
2.73333	167
2.73700	169
2.74067	170
2.74433	168
2.74800	167
2.75167	167
2.75533	167
2.75900	166
2.76267	165
2.76633	168
2.77000	171
2.77367	171
2.77733	172
2.78100	170
2.78467	170
2.78833	169
2.79200	169
2.79567	171
2.79933	174
2.80300	174
2.80667	175
2.81033	177
2.81400	182
2.81767	192
2.82133	212
2.82500	254
2.82867	336
2.83233	477
2.83600	702
2.83967	1028
2.84333	1455
2.84700	1976
2.85067	2561
2.85433	3169
2.85800	3749
2.86167	4258
2.86533	4654
2.86900	4909
2.87267	5015
2.87633	4986
2.88000	4838
2.88367	4599
2.88733	4298
2.89100	3961
2.89467	3608
2.89833	3257
2.90200	2919
2.90567	2604
2.90933	2316
2.91300	2057
2.91667	1824
2.92033	1619
2.92400	1437
2.92767	1278
2.93133	1138
2.93500	1017
2.93867	908
2.94233	813
2.94600	733
2.94967	664
2.95333	602
2.95700	550
2.96067	507
2.96433	469
2.96800	436
2.97167	407
2.97533	381
2.97900	360
2.98267	344
2.98633	331
2.99000	314
2.99367	301
2.99733	290
3.00100	280
3.00467	269
3.00833	259
3.01200	251
3.01567	244
3.01933	237
3.02300	229
3.02667	223
3.03033	217
3.03400	212
3.03767	210
3.04133	209
3.04500	208
3.04867	200
3.05233	191
3.05600	184
3.05967	177
3.06333	171
3.06700	167
3.07067	169
3.07433	180
3.07800	199
3.08167	227
3.08533	263
3.08900	300
3.09267	337
3.09633	370
3.10000	404
3.10367	437
3.10733	466
3.11100	490
3.11467	509
3.11833	525
3.12200	541
3.12567	555
3.12933	565
3.13300	573
3.13667	581
3.14033	587
3.14400	592
3.14767	595
3.15133	599
3.15500	604
3.15867	608
3.16233	611
3.16600	615
3.16967	618
3.17333	622
3.17700	624
3.18067	627
3.18433	629
3.18800	631
3.19167	635
3.19533	635
3.19900	639
3.20267	641
3.20633	643
3.21000	644
3.21367	644
3.21733	647
3.22100	648
3.22467	648
3.22833	647
3.23200	646
3.23567	646
3.23933	647
3.24300	650
3.24667	652
3.25033	654
3.25400	653
3.25767	651
3.26133	649
3.26500	650
3.26867	649
3.27233	648
3.27600	648
3.27967	648
3.28333	648
3.28700	649
3.29067	649
3.29433	648
3.29800	647
3.30167	647
3.30533	645
3.30900	643
3.31267	643
3.31633	642
3.32000	640
3.32367	641
3.32733	642
3.33100	643
3.33467	645
3.33833	646
3.34200	646
3.34567	644
3.34933	641
3.35300	642
3.35667	645
3.36033	648
3.36400	648
3.36767	647
3.37133	644
3.37500	643
3.37867	643
3.38233	641
3.38600	640
3.38967	640
3.39333	640
3.39700	641
3.40067	642
3.40433	642
3.40800	641
3.41167	639
3.41533	637
3.41900	637
3.42267	638
3.42633	637
3.43000	638
3.43367	639
3.43733	638
3.44100	637
3.44467	634
3.44833	632
3.45200	630
3.45567	628
3.45933	625
3.46300	622
3.46667	620
3.47033	617
3.47400	616
3.47767	613
3.48133	611
3.48500	611
3.48867	611
3.49233	609
3.49600	606
3.49967	603
3.50333	600
3.50700	599
3.51067	597
3.51433	596
3.51800	594
3.52167	591
3.52533	589
3.52900	586
3.53267	583
3.53633	581
3.54000	580
3.54367	576
3.54733	573
3.55100	572
3.55467	570
3.55833	569
3.56200	569
3.56567	569
3.56933	568
3.57300	566
3.57667	562
3.58033	561
3.58400	562
3.58767	561
3.59133	559
3.59500	556
3.59867	555
3.60233	553
3.60600	551
3.60967	551
3.61333	549
3.61700	548
3.62067	548
3.62433	548
3.62800	549
3.63167	551
3.63533	551
3.63900	549
3.64267	547
3.64633	546
3.65000	547
3.65367	549
3.65733	550
3.66100	547
3.66467	546
3.66833	546
3.67200	547
3.67567	547
3.67933	549
3.68300	547
3.68667	545
3.69033	544
3.69400	542
3.69767	540
3.70133	539
3.70500	536
3.70867	534
3.71233	534
3.71600	536
3.71967	536
3.72333	537
3.72700	538
3.73067	536
3.73433	533
3.73800	531
3.74167	531
3.74533	528
3.74900	528
3.75267	530
3.75633	532
3.76000	533
3.76367	533
3.76733	531
3.77100	528
3.77467	527
3.77833	528
3.78200	528
3.78567	526
3.78933	526
3.79300	528
3.79667	530
3.80033	530
3.80400	527
3.80767	523
3.81133	520
3.81500	518
3.81867	518
3.82233	516
3.82600	514
3.82967	513
3.83333	514
3.83700	515
3.84067	514
3.84433	512
3.84800	512
3.85167	511
3.85533	511
3.85900	511
3.86267	509
3.86633	507
3.87000	505
3.87367	504
3.87733	502
3.88100	500
3.88467	500
3.88833	499
3.89200	500
3.89567	501
3.89933	501
3.90300	500
3.90667	500
3.91033	500
3.91400	498
3.91767	497
3.92133	496
3.92500	495
3.92867	496
3.93233	496
3.93600	493
3.93967	491
3.94333	488
3.94700	485
3.95067	483
3.95433	483
3.95800	484
3.96167	484
3.96533	482
3.96900	480
3.97267	482
3.97633	483
3.98000	482
3.98367	478
3.98733	473
3.99100	471
3.99467	469
3.99833	466

[Status Trace (Column Oven Temperature)]
Interval(msec)	1000
# of Points	240
Start Time(min)	0.013
End Time(min)	3.996
Intensity Units	
Intensity Multiplier	1
R.Time (min)	Intensity
0.01252	35.08
0.02918	35.08
0.04585	35.06
0.06252	35.06
0.07918	35.05
0.09585	35.04
0.11252	35.03
0.12918	35.02
0.14585	35.03
0.16252	35.04
0.17918	35.05
0.19585	35.05
0.21252	35.04
0.22918	35.04
0.24585	35.03
0.26252	35.01
0.27918	35.00
0.29585	35.00
0.31252	35.00
0.32918	34.99
0.34585	35.00
0.36252	34.99
0.37918	35.00
0.39585	35.00
0.41252	35.01
0.42918	35.02
0.44585	35.02
0.46252	35.03
0.47918	35.04
0.49585	35.04
0.51252	35.04
0.52918	35.03
0.54585	35.03
0.56252	35.02
0.57918	35.02
0.59585	35.02
0.61252	35.02
0.62918	35.02
0.64585	35.02
0.66252	35.02
0.67918	35.02
0.69585	35.01
0.71252	35.01
0.72918	35.01
0.74585	34.99
0.76252	35.00
0.77918	35.01
0.79585	35.03
0.81252	35.03
0.82918	35.04
0.84585	35.02
0.86252	35.00
0.87918	35.00
0.89585	35.01
0.91252	35.02
0.92918	35.02
0.94585	35.02
0.96252	35.01
0.97918	35.00
0.99585	35.00
1.01252	34.99
1.02918	34.98
1.04585	34.97
1.06252	34.97
1.07918	34.96
1.09585	34.96
1.11252	34.96
1.12918	34.96
1.14585	34.98
1.16252	34.99
1.17918	34.99
1.19585	34.99
1.21252	34.99
1.22918	34.99
1.24585	34.98
1.26252	34.98
1.27918	34.98
1.29585	34.99
1.31252	34.99
1.32918	34.98
1.34585	34.98
1.36252	34.98
1.37918	34.97
1.39585	34.96
1.41252	34.96
1.42918	34.95
1.44585	34.95
1.46252	34.96
1.47918	34.96
1.49585	34.97
1.51252	34.97
1.52918	34.98
1.54585	34.99
1.56252	35.00
1.57918	35.01
1.59585	35.02
1.61252	35.09
1.62918	35.23
1.64585	35.44
1.66252	35.71
1.67918	36.08
1.69585	36.44
1.71252	36.80
1.72918	37.11
1.74585	37.43
1.76252	37.75
1.77918	38.11
1.79585	38.44
1.81252	38.78
1.82918	39.09
1.84585	39.41
1.86252	39.75
1.87918	40.07
1.89585	40.41
1.91252	40.75
1.92918	41.07
1.94585	41.40
1.96252	41.73
1.97918	42.05
1.99585	42.39
2.01252	42.70
2.02918	43.03
2.04585	43.37
2.06252	43.68
2.07918	44.01
2.09585	44.35
2.11252	44.67
2.12918	45.00
2.14585	45.32
2.16252	45.64
2.17918	45.98
2.19585	46.30
2.21252	46.63
2.22918	46.95
2.24585	47.29
2.26252	47.62
2.27918	47.96
2.29585	48.30
2.31252	48.61
2.32918	48.95
2.34585	49.25
2.36252	49.49
2.37918	49.62
2.39585	49.63
2.41252	49.62
2.42918	49.63
2.44585	49.66
2.46252	49.65
2.47918	49.67
2.49585	49.68
2.51252	49.68
2.52918	49.70
2.54585	49.71
2.56252	49.74
2.57918	49.77
2.59585	49.77
2.61252	49.78
2.62918	49.81
2.64585	49.82
2.66252	49.84
2.67918	49.85
2.69585	49.85
2.71252	49.85
2.72918	49.85
2.74585	49.85
2.76252	49.85
2.77918	49.87
2.79585	49.87
2.81252	49.87
2.82918	49.87
2.84585	49.86
2.86252	49.86
2.87918	49.87
2.89585	49.88
2.91252	49.89
2.92918	49.91
2.94585	49.94
2.96252	49.95
2.97918	49.97
2.99585	49.98
3.01252	49.99
3.02918	50.00
3.04585	50.01
3.06252	50.02
3.07918	50.01
3.09585	50.02
3.11252	50.02
3.12918	50.03
3.14585	50.04
3.16252	50.05
3.17918	50.06
3.19585	50.07
3.21252	50.08
3.22918	50.08
3.24585	50.09
3.26252	50.10
3.27918	50.10
3.29585	50.10
3.31252	50.09
3.32918	50.09
3.34585	50.07
3.36252	50.05
3.37918	50.03
3.39585	50.04
3.41252	50.05
3.42918	50.05
3.44585	50.05
3.46252	50.05
3.47918	50.06
3.49585	50.07
3.51252	50.07
3.52918	50.07
3.54585	50.08
3.56252	50.08
3.57918	50.08
3.59585	50.08
3.61252	50.08
3.62918	50.08
3.64585	50.08
3.66252	50.09
3.67918	50.10
3.69585	50.10
3.71252	50.09
3.72918	50.09
3.74585	50.09
3.76252	50.08
3.77918	50.07
3.79585	50.06
3.81252	50.04
3.82918	50.05
3.84585	50.05
3.86252	50.05
3.87918	50.05
3.89585	50.05
3.91252	50.05
3.92918	50.05
3.94585	50.05
3.96252	50.05
3.97918	50.04
3.99585	50.03

[Status Trace (Injection Unit Temperature)]
Interval(msec)	1000
# of Points	240
Start Time(min)	0.013
End Time(min)	3.996
Intensity Units	
Intensity Multiplier	1
R.Time (min)	Intensity
0.01252	99.98
0.02918	99.97
0.04585	99.98
0.06252	99.98
0.07918	99.98
0.09585	99.97
0.11252	99.97
0.12918	99.97
0.14585	99.98
0.16252	99.97
0.17918	99.98
0.19585	99.98
0.21252	99.98
0.22918	99.98
0.24585	99.98
0.26252	99.98
0.27918	99.97
0.29585	99.98
0.31252	99.98
0.32918	99.98
0.34585	99.98
0.36252	99.98
0.37918	99.98
0.39585	99.98
0.41252	99.98
0.42918	99.98
0.44585	99.98
0.46252	99.98
0.47918	99.98
0.49585	99.98
0.51252	99.98
0.52918	99.98
0.54585	99.98
0.56252	99.98
0.57918	99.98
0.59585	99.98
0.61252	99.98
0.62918	99.98
0.64585	99.98
0.66252	99.98
0.67918	99.98
0.69585	99.98
0.71252	99.98
0.72918	99.98
0.74585	99.98
0.76252	99.98
0.77918	99.98
0.79585	99.98
0.81252	99.98
0.82918	99.98
0.84585	99.98
0.86252	99.98
0.87918	99.98
0.89585	99.98
0.91252	99.98
0.92918	99.98
0.94585	99.98
0.96252	99.98
0.97918	99.98
0.99585	99.98
1.01252	99.98
1.02918	99.98
1.04585	99.98
1.06252	99.98
1.07918	99.99
1.09585	99.98
1.11252	99.98
1.12918	99.98
1.14585	99.98
1.16252	99.98
1.17918	99.98
1.19585	99.98
1.21252	99.98
1.22918	99.98
1.24585	99.98
1.26252	99.98
1.27918	99.98
1.29585	99.98
1.31252	99.98
1.32918	99.98
1.34585	99.98
1.36252	99.98
1.37918	99.98
1.39585	99.98
1.41252	99.98
1.42918	99.98
1.44585	99.98
1.46252	99.98
1.47918	99.98
1.49585	99.98
1.51252	99.97
1.52918	99.98
1.54585	99.98
1.56252	99.98
1.57918	99.98
1.59585	99.98
1.61252	99.98
1.62918	99.98
1.64585	99.98
1.66252	99.98
1.67918	99.99
1.69585	99.98
1.71252	99.99
1.72918	99.98
1.74585	99.99
1.76252	99.99
1.77918	99.99
1.79585	99.99
1.81252	99.99
1.82918	99.99
1.84585	99.99
1.86252	99.99
1.87918	99.99
1.89585	99.99
1.91252	99.99
1.92918	99.98
1.94585	99.98
1.96252	99.98
1.97918	99.98
1.99585	99.98
2.01252	99.98
2.02918	99.98
2.04585	99.98
2.06252	99.98
2.07918	99.98
2.09585	99.97
2.11252	99.98
2.12918	99.97
2.14585	99.97
2.16252	99.97
2.17918	99.97
2.19585	99.97
2.21252	99.97
2.22918	99.97
2.24585	99.97
2.26252	99.97
2.27918	99.97
2.29585	99.97
2.31252	99.97
2.32918	99.97
2.34585	99.97
2.36252	99.97
2.37918	99.97
2.39585	99.97
2.41252	99.97
2.42918	99.97
2.44585	99.97
2.46252	99.97
2.47918	99.97
2.49585	99.97
2.51252	99.97
2.52918	99.97
2.54585	99.97
2.56252	99.97
2.57918	99.98
2.59585	99.97
2.61252	99.97
2.62918	99.98
2.64585	99.98
2.66252	99.98
2.67918	99.98
2.69585	99.98
2.71252	99.98
2.72918	99.98
2.74585	99.99
2.76252	99.99
2.77918	99.99
2.79585	99.99
2.81252	99.99
2.82918	99.99
2.84585	99.99
2.86252	100.00
2.87918	99.99
2.89585	100.00
2.91252	100.00
2.92918	100.00
2.94585	100.00
2.96252	100.00
2.97918	100.00
2.99585	100.00
3.01252	100.01
3.02918	100.01
3.04585	100.01
3.06252	100.01
3.07918	100.01
3.09585	100.01
3.11252	100.01
3.12918	100.01
3.14585	100.01
3.16252	100.01
3.17918	100.02
3.19585	100.02
3.21252	100.02
3.22918	100.02
3.24585	100.02
3.26252	100.02
3.27918	100.02
3.29585	100.02
3.31252	100.03
3.32918	100.03
3.34585	100.03
3.36252	100.03
3.37918	100.02
3.39585	100.03
3.41252	100.03
3.42918	100.03
3.44585	100.03
3.46252	100.03
3.47918	100.03
3.49585	100.03
3.51252	100.03
3.52918	100.03
3.54585	100.03
3.56252	100.03
3.57918	100.03
3.59585	100.03
3.61252	100.02
3.62918	100.03
3.64585	100.03
3.66252	100.04
3.67918	100.04
3.69585	100.04
3.71252	100.04
3.72918	100.04
3.74585	100.03
3.76252	100.04
3.77918	100.04
3.79585	100.04
3.81252	100.04
3.82918	100.04
3.84585	100.04
3.86252	100.04
3.87918	100.04
3.89585	100.04
3.91252	100.04
3.92918	100.04
3.94585	100.04
3.96252	100.04
3.97918	100.04
3.99585	100.04

[Status Trace (Carrier Gas Pressure)]
Interval(msec)	1000
# of Points	240
Start Time(min)	0.013
End Time(min)	3.996
Intensity Units	
Intensity Multiplier	1
R.Time (min)	Intensity
0.01252	57.96
0.02918	54.95
0.04585	57.72
0.06252	59.74
0.07918	58.92
0.09585	57.99
0.11252	57.99
0.12918	58.01
0.14585	58.01
0.16252	58.01
0.17918	58.00
0.19585	58.00
0.21252	58.00
0.22918	58.00
0.24585	58.00
0.26252	58.00
0.27918	58.00
0.29585	58.00
0.31252	58.00
0.32918	58.00
0.34585	58.00
0.36252	58.00
0.37918	58.00
0.39585	58.00
0.41252	58.00
0.42918	58.00
0.44585	58.00
0.46252	58.00
0.47918	58.00
0.49585	58.00
0.51252	58.00
0.52918	58.00
0.54585	58.00
0.56252	58.00
0.57918	58.00
0.59585	58.00
0.61252	58.00
0.62918	58.00
0.64585	58.00
0.66252	58.00
0.67918	58.00
0.69585	58.00
0.71252	58.00
0.72918	58.00
0.74585	58.00
0.76252	58.00
0.77918	58.00
0.79585	58.00
0.81252	58.00
0.82918	58.00
0.84585	58.00
0.86252	58.00
0.87918	58.00
0.89585	58.00
0.91252	58.00
0.92918	58.00
0.94585	58.00
0.96252	58.00
0.97918	58.00
0.99585	58.00
1.01252	58.00
1.02918	58.00
1.04585	58.00
1.06252	58.00
1.07918	58.00
1.09585	58.00
1.11252	58.00
1.12918	58.00
1.14585	58.00
1.16252	58.00
1.17918	58.00
1.19585	58.00
1.21252	58.00
1.22918	58.00
1.24585	58.00
1.26252	58.00
1.27918	58.00
1.29585	58.00
1.31252	58.00
1.32918	58.00
1.34585	58.00
1.36252	58.00
1.37918	58.00
1.39585	58.00
1.41252	58.00
1.42918	58.00
1.44585	58.00
1.46252	58.00
1.47918	58.00
1.49585	58.00
1.51252	58.00
1.52918	58.00
1.54585	58.00
1.56252	58.00
1.57918	58.00
1.59585	58.00
1.61252	58.00
1.62918	58.00
1.64585	58.00
1.66252	58.01
1.67918	58.01
1.69585	58.00
1.71252	58.00
1.72918	58.00
1.74585	58.00
1.76252	58.00
1.77918	58.00
1.79585	58.00
1.81252	58.00
1.82918	58.00
1.84585	58.00
1.86252	58.00
1.87918	58.00
1.89585	58.00
1.91252	58.00
1.92918	58.00
1.94585	58.00
1.96252	58.00
1.97918	58.00
1.99585	58.00
2.01252	58.00
2.02918	58.00
2.04585	58.00
2.06252	58.00
2.07918	58.00
2.09585	58.00
2.11252	58.00
2.12918	58.00
2.14585	58.00
2.16252	58.00
2.17918	58.00
2.19585	58.00
2.21252	58.00
2.22918	58.00
2.24585	58.00
2.26252	58.00
2.27918	58.00
2.29585	58.00
2.31252	58.00
2.32918	58.00
2.34585	58.00
2.36252	58.00
2.37918	57.99
2.39585	57.99
2.41252	58.00
2.42918	58.00
2.44585	58.00
2.46252	58.00
2.47918	58.00
2.49585	58.00
2.51252	57.99
2.52918	57.99
2.54585	58.00
2.56252	58.00
2.57918	58.00
2.59585	58.00
2.61252	58.00
2.62918	58.00
2.64585	58.00
2.66252	58.00
2.67918	58.00
2.69585	58.00
2.71252	58.00
2.72918	58.00
2.74585	58.00
2.76252	58.00
2.77918	58.00
2.79585	58.00
2.81252	58.00
2.82918	58.00
2.84585	58.00
2.86252	58.00
2.87918	58.00
2.89585	58.00
2.91252	58.00
2.92918	58.00
2.94585	58.00
2.96252	58.00
2.97918	58.00
2.99585	58.00
3.01252	58.00
3.02918	58.00
3.04585	58.00
3.06252	58.00
3.07918	58.00
3.09585	58.00
3.11252	58.00
3.12918	58.00
3.14585	58.00
3.16252	58.00
3.17918	58.00
3.19585	58.00
3.21252	58.00
3.22918	58.00
3.24585	58.00
3.26252	58.00
3.27918	58.00
3.29585	58.00
3.31252	58.00
3.32918	58.00
3.34585	58.00
3.36252	58.00
3.37918	58.00
3.39585	58.00
3.41252	58.00
3.42918	58.00
3.44585	58.00
3.46252	58.00
3.47918	58.00
3.49585	58.00
3.51252	58.00
3.52918	58.00
3.54585	58.00
3.56252	58.00
3.57918	58.00
3.59585	58.00
3.61252	58.00
3.62918	58.00
3.64585	58.00
3.66252	58.00
3.67918	58.00
3.69585	58.00
3.71252	58.00
3.72918	58.00
3.74585	58.00
3.76252	58.00
3.77918	58.00
3.79585	58.00
3.81252	58.00
3.82918	58.00
3.84585	58.00
3.86252	58.00
3.87918	58.00
3.89585	58.00
3.91252	58.00
3.92918	58.00
3.94585	58.00
3.96252	58.00
3.97918	58.00
3.99585	58.00

[Status Trace (Carrier Gas Flow)]
Interval(msec)	1000
# of Points	240
Start Time(min)	0.013
End Time(min)	3.996
Intensity Units	
Intensity Multiplier	1
R.Time (min)	Intensity
0.01252	34.64
0.02918	34.54
0.04585	34.54
0.06252	34.53
0.07918	34.51
0.09585	34.52
0.11252	34.52
0.12918	34.52
0.14585	34.52
0.16252	34.52
0.17918	34.52
0.19585	34.52
0.21252	34.52
0.22918	34.52
0.24585	34.52
0.26252	34.52
0.27918	34.52
0.29585	34.53
0.31252	34.52
0.32918	34.52
0.34585	34.51
0.36252	34.52
0.37918	34.52
0.39585	34.52
0.41252	34.52
0.42918	34.52
0.44585	34.52
0.46252	34.52
0.47918	34.51
0.49585	34.52
0.51252	34.52
0.52918	34.52
0.54585	34.52
0.56252	34.52
0.57918	34.52
0.59585	34.52
0.61252	34.52
0.62918	34.51
0.64585	34.52
0.66252	34.52
0.67918	34.52
0.69585	34.52
0.71252	34.52
0.72918	34.52
0.74585	34.52
0.76252	34.52
0.77918	34.52
0.79585	34.51
0.81252	34.52
0.82918	34.52
0.84585	34.52
0.86252	34.52
0.87918	34.52
0.89585	34.52
0.91252	34.52
0.92918	34.51
0.94585	34.52
0.96252	34.52
0.97918	34.52
0.99585	34.52
1.01252	34.52
1.02918	34.52
1.04585	34.52
1.06252	34.52
1.07918	34.52
1.09585	34.52
1.11252	34.52
1.12918	34.52
1.14585	34.51
1.16252	34.51
1.17918	34.53
1.19585	34.52
1.21252	34.52
1.22918	34.52
1.24585	34.52
1.26252	34.52
1.27918	34.52
1.29585	34.52
1.31252	34.52
1.32918	34.52
1.34585	34.52
1.36252	34.52
1.37918	34.52
1.39585	34.52
1.41252	34.52
1.42918	34.52
1.44585	34.52
1.46252	34.52
1.47918	34.52
1.49585	34.52
1.51252	34.52
1.52918	34.52
1.54585	34.52
1.56252	34.52
1.57918	34.52
1.59585	34.52
1.61252	34.52
1.62918	34.52
1.64585	34.52
1.66252	34.52
1.67918	34.52
1.69585	34.52
1.71252	34.52
1.72918	34.52
1.74585	34.52
1.76252	34.52
1.77918	34.52
1.79585	34.52
1.81252	34.52
1.82918	34.52
1.84585	34.52
1.86252	34.52
1.87918	34.52
1.89585	34.52
1.91252	34.52
1.92918	34.52
1.94585	34.52
1.96252	34.52
1.97918	34.52
1.99585	34.52
2.01252	34.52
2.02918	34.52
2.04585	34.52
2.06252	34.52
2.07918	34.52
2.09585	34.52
2.11252	34.52
2.12918	34.52
2.14585	34.51
2.16252	34.52
2.17918	34.52
2.19585	34.52
2.21252	34.52
2.22918	34.52
2.24585	34.52
2.26252	34.52
2.27918	34.52
2.29585	34.52
2.31252	34.52
2.32918	34.51
2.34585	34.52
2.36252	34.52
2.37918	34.52
2.39585	34.52
2.41252	34.51
2.42918	34.52
2.44585	34.51
2.46252	34.52
2.47918	34.52
2.49585	34.52
2.51252	34.52
2.52918	34.52
2.54585	34.52
2.56252	34.52
2.57918	34.51
2.59585	34.52
2.61252	34.52
2.62918	34.52
2.64585	34.52
2.66252	34.52
2.67918	34.52
2.69585	34.52
2.71252	34.52
2.72918	34.51
2.74585	34.51
2.76252	34.52
2.77918	34.52
2.79585	34.52
2.81252	34.52
2.82918	34.52
2.84585	34.52
2.86252	34.52
2.87918	34.52
2.89585	34.52
2.91252	34.52
2.92918	34.52
2.94585	34.52
2.96252	34.52
2.97918	34.52
2.99585	34.52
3.01252	34.52
3.02918	34.51
3.04585	34.51
3.06252	34.51
3.07918	34.52
3.09585	34.52
3.11252	34.52
3.12918	34.52
3.14585	34.52
3.16252	34.52
3.17918	34.52
3.19585	34.52
3.21252	34.52
3.22918	34.52
3.24585	34.52
3.26252	34.52
3.27918	34.52
3.29585	34.52
3.31252	34.52
3.32918	34.52
3.34585	34.52
3.36252	34.52
3.37918	34.52
3.39585	34.52
3.41252	34.52
3.42918	34.52
3.44585	34.52
3.46252	34.52
3.47918	34.52
3.49585	34.52
3.51252	34.51
3.52918	34.52
3.54585	34.52
3.56252	34.52
3.57918	34.52
3.59585	34.52
3.61252	34.52
3.62918	34.52
3.64585	34.52
3.66252	34.52
3.67918	34.51
3.69585	34.52
3.71252	34.52
3.72918	34.51
3.74585	34.52
3.76252	34.52
3.77918	34.52
3.79585	34.52
3.81252	34.52
3.82918	34.52
3.84585	34.52
3.86252	34.53
3.87918	34.51
3.89585	34.51
3.91252	34.52
3.92918	34.52
3.94585	34.52
3.96252	34.52
3.97918	34.52
3.99585	34.53

[Status Trace (Column Flow)]
Interval(msec)	1000
# of Points	240
Start Time(min)	0.013
End Time(min)	3.996
Intensity Units	
Intensity Multiplier	1
R.Time (min)	Intensity
0.01252	5.56
0.02918	5.21
0.04585	5.53
0.06252	5.77
0.07918	5.67
0.09585	5.56
0.11252	5.56
0.12918	5.57
0.14585	5.56
0.16252	5.56
0.17918	5.56
0.19585	5.56
0.21252	5.56
0.22918	5.56
0.24585	5.56
0.26252	5.56
0.27918	5.56
0.29585	5.56
0.31252	5.56
0.32918	5.57
0.34585	5.56
0.36252	5.56
0.37918	5.56
0.39585	5.56
0.41252	5.56
0.42918	5.56
0.44585	5.56
0.46252	5.56
0.47918	5.56
0.49585	5.56
0.51252	5.56
0.52918	5.56
0.54585	5.56
0.56252	5.56
0.57918	5.56
0.59585	5.56
0.61252	5.56
0.62918	5.56
0.64585	5.56
0.66252	5.56
0.67918	5.56
0.69585	5.56
0.71252	5.56
0.72918	5.56
0.74585	5.56
0.76252	5.56
0.77918	5.56
0.79585	5.56
0.81252	5.56
0.82918	5.56
0.84585	5.56
0.86252	5.56
0.87918	5.56
0.89585	5.56
0.91252	5.56
0.92918	5.56
0.94585	5.56
0.96252	5.56
0.97918	5.56
0.99585	5.56
1.01252	5.56
1.02918	5.56
1.04585	5.57
1.06252	5.57
1.07918	5.57
1.09585	5.57
1.11252	5.57
1.12918	5.57
1.14585	5.57
1.16252	5.56
1.17918	5.56
1.19585	5.56
1.21252	5.56
1.22918	5.57
1.24585	5.57
1.26252	5.57
1.27918	5.57
1.29585	5.57
1.31252	5.57
1.32918	5.57
1.34585	5.57
1.36252	5.57
1.37918	5.57
1.39585	5.57
1.41252	5.57
1.42918	5.57
1.44585	5.57
1.46252	5.57
1.47918	5.57
1.49585	5.57
1.51252	5.57
1.52918	5.57
1.54585	5.56
1.56252	5.56
1.57918	5.56
1.59585	5.56
1.61252	5.56
1.62918	5.56
1.64585	5.55
1.66252	5.54
1.67918	5.53
1.69585	5.52
1.71252	5.51
1.72918	5.50
1.74585	5.49
1.76252	5.48
1.77918	5.47
1.79585	5.46
1.81252	5.45
1.82918	5.44
1.84585	5.43
1.86252	5.42
1.87918	5.41
1.89585	5.40
1.91252	5.39
1.92918	5.38
1.94585	5.37
1.96252	5.36
1.97918	5.35
1.99585	5.34
2.01252	5.33
2.02918	5.32
2.04585	5.31
2.06252	5.30
2.07918	5.29
2.09585	5.28
2.11252	5.27
2.12918	5.26
2.14585	5.25
2.16252	5.24
2.17918	5.23
2.19585	5.22
2.21252	5.21
2.22918	5.21
2.24585	5.19
2.26252	5.18
2.27918	5.18
2.29585	5.17
2.31252	5.16
2.32918	5.15
2.34585	5.14
2.36252	5.13
2.37918	5.13
2.39585	5.13
2.41252	5.13
2.42918	5.13
2.44585	5.13
2.46252	5.13
2.47918	5.13
2.49585	5.13
2.51252	5.13
2.52918	5.12
2.54585	5.13
2.56252	5.13
2.57918	5.12
2.59585	5.12
2.61252	5.12
2.62918	5.12
2.64585	5.12
2.66252	5.12
2.67918	5.12
2.69585	5.12
2.71252	5.12
2.72918	5.12
2.74585	5.12
2.76252	5.12
2.77918	5.12
2.79585	5.12
2.81252	5.12
2.82918	5.12
2.84585	5.12
2.86252	5.12
2.87918	5.12
2.89585	5.12
2.91252	5.12
2.92918	5.12
2.94585	5.12
2.96252	5.12
2.97918	5.12
2.99585	5.12
3.01252	5.12
3.02918	5.12
3.04585	5.12
3.06252	5.12
3.07918	5.12
3.09585	5.12
3.11252	5.12
3.12918	5.12
3.14585	5.12
3.16252	5.12
3.17918	5.12
3.19585	5.12
3.21252	5.12
3.22918	5.12
3.24585	5.12
3.26252	5.12
3.27918	5.12
3.29585	5.12
3.31252	5.12
3.32918	5.12
3.34585	5.12
3.36252	5.12
3.37918	5.12
3.39585	5.12
3.41252	5.12
3.42918	5.12
3.44585	5.12
3.46252	5.12
3.47918	5.12
3.49585	5.12
3.51252	5.12
3.52918	5.12
3.54585	5.12
3.56252	5.12
3.57918	5.12
3.59585	5.12
3.61252	5.12
3.62918	5.12
3.64585	5.12
3.66252	5.12
3.67918	5.12
3.69585	5.12
3.71252	5.12
3.72918	5.12
3.74585	5.12
3.76252	5.12
3.77918	5.12
3.79585	5.12
3.81252	5.12
3.82918	5.12
3.84585	5.12
3.86252	5.12
3.87918	5.12
3.89585	5.12
3.91252	5.12
3.92918	5.12
3.94585	5.12
3.96252	5.12
3.97918	5.12
3.99585	5.12

[Status Trace (Linear Velocity)]
Interval(msec)	1000
# of Points	240
Start Time(min)	0.013
End Time(min)	3.996
Intensity Units	
Intensity Multiplier	1
R.Time (min)	Intensity
0.01252	39.00
0.02918	37.01
0.04585	38.83
0.06252	40.16
0.07918	39.63
0.09585	39.02
0.11252	39.02
0.12918	39.03
0.14585	39.03
0.16252	39.03
0.17918	39.02
0.19585	39.02
0.21252	39.02
0.22918	39.02
0.24585	39.02
0.26252	39.03
0.27918	39.03
0.29585	39.03
0.31252	39.03
0.32918	39.03
0.34585	39.03
0.36252	39.03
0.37918	39.03
0.39585	39.03
0.41252	39.03
0.42918	39.03
0.44585	39.02
0.46252	39.02
0.47918	39.02
0.49585	39.02
0.51252	39.02
0.52918	39.02
0.54585	39.02
0.56252	39.02
0.57918	39.02
0.59585	39.03
0.61252	39.03
0.62918	39.03
0.64585	39.02
0.66252	39.03
0.67918	39.02
0.69585	39.03
0.71252	39.03
0.72918	39.03
0.74585	39.03
0.76252	39.03
0.77918	39.03
0.79585	39.02
0.81252	39.02
0.82918	39.02
0.84585	39.02
0.86252	39.03
0.87918	39.03
0.89585	39.03
0.91252	39.03
0.92918	39.02
0.94585	39.02
0.96252	39.02
0.97918	39.03
0.99585	39.03
1.01252	39.03
1.02918	39.03
1.04585	39.03
1.06252	39.03
1.07918	39.03
1.09585	39.03
1.11252	39.03
1.12918	39.03
1.14585	39.03
1.16252	39.03
1.17918	39.03
1.19585	39.03
1.21252	39.03
1.22918	39.03
1.24585	39.03
1.26252	39.03
1.27918	39.03
1.29585	39.03
1.31252	39.03
1.32918	39.03
1.34585	39.03
1.36252	39.03
1.37918	39.03
1.39585	39.03
1.41252	39.03
1.42918	39.03
1.44585	39.03
1.46252	39.03
1.47918	39.03
1.49585	39.03
1.51252	39.03
1.52918	39.03
1.54585	39.03
1.56252	39.03
1.57918	39.03
1.59585	39.02
1.61252	39.02
1.62918	39.01
1.64585	38.99
1.66252	38.96
1.67918	38.93
1.69585	38.89
1.71252	38.85
1.72918	38.83
1.74585	38.79
1.76252	38.76
1.77918	38.74
1.79585	38.70
1.81252	38.67
1.82918	38.64
1.84585	38.61
1.86252	38.58
1.87918	38.55
1.89585	38.51
1.91252	38.48
1.92918	38.45
1.94585	38.42
1.96252	38.39
1.97918	38.36
1.99585	38.33
2.01252	38.30
2.02918	38.27
2.04585	38.24
2.06252	38.21
2.07918	38.18
2.09585	38.15
2.11252	38.12
2.12918	38.09
2.14585	38.06
2.16252	38.03
2.17918	38.00
2.19585	37.97
2.21252	37.94
2.22918	37.92
2.24585	37.88
2.26252	37.85
2.27918	37.83
2.29585	37.79
2.31252	37.76
2.32918	37.74
2.34585	37.71
2.36252	37.69
2.37918	37.67
2.39585	37.67
2.41252	37.67
2.42918	37.68
2.44585	37.67
2.46252	37.67
2.47918	37.67
2.49585	37.67
2.51252	37.66
2.52918	37.66
2.54585	37.67
2.56252	37.67
2.57918	37.66
2.59585	37.66
2.61252	37.66
2.62918	37.66
2.64585	37.66
2.66252	37.66
2.67918	37.66
2.69585	37.66
2.71252	37.66
2.72918	37.66
2.74585	37.66
2.76252	37.66
2.77918	37.65
2.79585	37.65
2.81252	37.65
2.82918	37.65
2.84585	37.65
2.86252	37.66
2.87918	37.65
2.89585	37.65
2.91252	37.65
2.92918	37.65
2.94585	37.65
2.96252	37.65
2.97918	37.65
2.99585	37.64
3.01252	37.64
3.02918	37.64
3.04585	37.64
3.06252	37.64
3.07918	37.64
3.09585	37.64
3.11252	37.64
3.12918	37.64
3.14585	37.64
3.16252	37.64
3.17918	37.64
3.19585	37.64
3.21252	37.64
3.22918	37.64
3.24585	37.63
3.26252	37.63
3.27918	37.63
3.29585	37.63
3.31252	37.63
3.32918	37.63
3.34585	37.64
3.36252	37.64
3.37918	37.64
3.39585	37.64
3.41252	37.64
3.42918	37.64
3.44585	37.64
3.46252	37.64
3.47918	37.64
3.49585	37.64
3.51252	37.64
3.52918	37.64
3.54585	37.64
3.56252	37.63
3.57918	37.63
3.59585	37.64
3.61252	37.64
3.62918	37.64
3.64585	37.64
3.66252	37.63
3.67918	37.63
3.69585	37.63
3.71252	37.63
3.72918	37.63
3.74585	37.63
3.76252	37.64
3.77918	37.64
3.79585	37.64
3.81252	37.64
3.82918	37.64
3.84585	37.64
3.86252	37.64
3.87918	37.64
3.89585	37.64
3.91252	37.64
3.92918	37.64
3.94585	37.64
3.96252	37.64
3.97918	37.64
3.99585	37.64

