[Header]
Application Name	LabSolutions
Version	5.110
Data File Name	C:\Users\User\Desktop\GC Analyses\Jack\Nachusa Grasslands Sampling\T1 Timepoint July 12th\T1_07122022_006.gcd
Output Date	3/14/2023
Output Time	3:40:57 PM

[File Information]
Type	Data File
Generated	3/8/2023 1:50:38 PM
Generated by	System Administrator
Modified	3/8/2023 1:57:05 PM
Modified by	System Administrator

[Sample Information]
Operator Name	System Administrator
Acquired	3/8/2023 1:53:04 PM
Sample Type	0:Unknown
Level	0
Sample Name	006
Sample ID	006
ISTD Amount1	1
ISTD Amount2	1
ISTD Amount3	1
ISTD Amount4	1
ISTD Amount5	1
ISTD Amount6	1
ISTD Amount7	1
ISTD Amount8	1
ISTD Amount9	1
ISTD Amount10	1
ISTD Amount11	1
ISTD Amount12	1
ISTD Amount13	1
ISTD Amount14	1
ISTD Amount15	1
ISTD Amount16	1
ISTD Amount17	1
ISTD Amount18	1
ISTD Amount19	1
ISTD Amount20	1
ISTD Amount21	1
ISTD Amount22	1
ISTD Amount23	1
ISTD Amount24	1
ISTD Amount25	1
ISTD Amount26	1
ISTD Amount27	1
ISTD Amount28	1
ISTD Amount29	1
ISTD Amount30	1
ISTD Amount31	1
ISTD Amount32	1
Sample Amount	1
Dilution Factor	1
Vial#	5
Injection Volume	1
Injection Count	1
Bar Code	

[Original Files]
Data File	C:\Users\User\Desktop\GC Analyses\Jack\Nachusa Grasslands Sampling\T1 Timepoint July 12th\T1_07122022_006.gcd
Method File	C:\LabSolutions\Data\GHG_4min_2022\ghg3_togas_w_acet_4 min_new_int.gcm
Batch File	C:\LabSolutions\Data\AutoSamplerTesting\T1_07122022.gcb
Report Format File	c:\LabSolutions\System\DEFAULT.lsr

[File Description]


[Configuration]
Instrument Name	C0B7VH3-Instrument1
Instrument #	1
Line #	1
# of Detectors	3
Detector ID	DET#1	DET#2	DET#3
Detector Name	FID	PTCD	ECD
# of Channels	1	1	1

[Peak Table(Ch1)]
# of Peaks	3
Peak#	R.Time	I.Time	F.Time	Area	Height	A/H	Conc.	Mark	ID#	Name	k'	Plate #	Plate Ht.	Tailing	Resolution	Sep.Factor	Area Ratio	Height Ratio	Conc. %	Norm Conc.
1	1.476	1.439	1.538	27709	12992	2.133	195.630	   	1	CO	0.000	9015	16.638	1.334	0.000	0.000	0	0	26.941	26.941
2	1.567	1.538	1.622	4639	2231	2.080	89.695	 V 	2	CH4	0.062	10302	14.560	0.000	1.479	0.000	0	0	12.352	12.352
3	1.996	1.952	2.480	1756383	829083	2.118	440.805	   	3	CO2	0.353	17250	8.696	1.316	7.000	5.680	0	0	60.706	60.706

[Peak Table(Ch2)]
# of Peaks	0

[Peak Table(Ch3)]
# of Peaks	4
Peak#	R.Time	I.Time	F.Time	Area	Height	A/H	Conc.	Mark	ID#	Name	k'	Plate #	Plate Ht.	Tailing	Resolution	Sep.Factor	Area Ratio	Height Ratio	Conc. %	Norm Conc.
1	2.462	2.396	2.521	1343	396	3.395	0.000	   			0.000	7059	21.251	0.000	0.000	0.000	0	0	0.000	0.000
2	2.554	2.521	2.634	1162	247	4.707	0.000	 V 			0.037	2475	60.612	0.000	0.568	0.000	0	0	0.000	0.000
3	2.700	2.649	2.810	778	105	7.435	0.000	   			0.097	1459	102.800	0.000	0.601	2.600	0	0	0.000	0.000
4	2.873	2.810	3.023	18577	4984	3.728	0.474	 V 	1	N2O	0.167	13390	11.202	1.570	0.902	1.723	0	0	100.000	100.000

[Compound Results(Ch1)]
# of IDs	6
ID#	Name	R.Time	Area	Height	Conc.	Curve	3rd	2nd	1st	Constant	Area Ratio	Height Ratio	Conc. %	Norm Conc.
1	CO	1.476	27709	12992	195.630	Linear	0.000000e+00	0.000000e+00	1.416423e+002	0.000000e+00	0	0	26.941	26.941
2	CH4	1.567	4639	2231	89.695	Linear	0.000000e+00	0.000000e+00	5.171738e+001	0.000000e+00	0	0	12.352	12.352
3	CO2	1.996	1756383	829083	440.805	Linear	0.000000e+00	0.000000e+00	3.984494e+003	0.000000e+00	0	0	60.706	60.706
4	Ethylene	0.000	0	0	0.000	Linear	0.000000e+00	0.000000e+00	0.000000e+00	0.000000e+00	0	0	0.000	0.000
5	Acetylene	0.000	0	0	0.000	Linear	0.000000e+00	0.000000e+00	0.000000e+00	0.000000e+00	0	0	0.000	0.000
6	Ethane	0.000	0	0	0.000	Linear	0.000000e+00	0.000000e+00	0.000000e+00	0.000000e+00	0	0	0.000	0.000

[Compound Results(Ch2)]
# of IDs	5
ID#	Name	R.Time	Area	Height	Conc.	Curve	3rd	2nd	1st	Constant	Area Ratio	Height Ratio	Conc. %	Norm Conc.
1	Hydrogen	0.000	0	0	0.000	Linear	0.000000e+00	0.000000e+00	0.000000e+00	0.000000e+00	0	0	0.000	0.000
2	Oxygen	0.000	0	0	0.000	Linear	0.000000e+00	0.000000e+00	0.000000e+00	0.000000e+00	0	0	0.000	0.000
3	Nitrogen	0.000	0	0	0.000	Linear	0.000000e+00	0.000000e+00	0.000000e+00	0.000000e+00	0	0	0.000	0.000
4	Methane	0.000	0	0	0.000	Linear	0.000000e+00	0.000000e+00	0.000000e+00	0.000000e+00	0	0	0.000	0.000
5	Carbon Monoxide	0.000	0	0	0.000	Linear	0.000000e+00	0.000000e+00	0.000000e+00	0.000000e+00	0	0	0.000	0.000

[Compound Results(Ch3)]
# of IDs	2
ID#	Name	R.Time	Area	Height	Conc.	Curve	3rd	2nd	1st	Constant	Area Ratio	Height Ratio	Conc. %	Norm Conc.
1	N2O	2.873	18577	4984	0.474	Linear	0.000000e+00	0.000000e+00	3.915173e+004	0.000000e+00	0	0	100.000	100.000
2	SF6	0.000	0	0	0.000	Linear	0.000000e+00	0.000000e+00	0.000000e+00	0.000000e+00	0	0	0.000	0.000

[Group Results(Ch1)]
# of Groups	0

[Group Results(Ch2)]
# of Groups	0

[Group Results(Ch3)]
# of Groups	0

[Chromatogram (Ch1)]
Interval(msec)	220
# of Points	1091
Start Time(min)	0.002
End Time(min)	3.998
R.Time (min)	Intensity
0.00167	-28
0.00533	-26
0.00900	-23
0.01267	-17
0.01633	-13
0.02000	-10
0.02367	-8
0.02733	-8
0.03100	-7
0.03467	-2
0.03833	5
0.04200	9
0.04567	7
0.04933	2
0.05300	-0
0.05667	3
0.06033	6
0.06400	4
0.06767	-3
0.07133	-9
0.07500	-11
0.07867	-5
0.08233	5
0.08600	12
0.08967	10
0.09333	6
0.09700	4
0.10067	7
0.10433	7
0.10800	3
0.11167	0
0.11533	-3
0.11900	-6
0.12267	-6
0.12633	-2
0.13000	2
0.13367	5
0.13733	0
0.14100	-11
0.14467	-22
0.14833	-30
0.15200	-35
0.15567	-38
0.15933	-42
0.16300	-43
0.16667	-39
0.17033	-31
0.17400	-22
0.17767	-14
0.18133	-6
0.18500	-0
0.18867	-0
0.19233	-0
0.19600	-1
0.19967	-3
0.20333	-3
0.20700	1
0.21067	1
0.21433	-1
0.21800	-2
0.22167	-3
0.22533	-3
0.22900	-8
0.23267	-16
0.23633	-21
0.24000	-21
0.24367	-14
0.24733	-3
0.25100	3
0.25467	2
0.25833	-4
0.26200	-13
0.26567	-22
0.26933	-31
0.27300	-37
0.27667	-42
0.28033	-47
0.28400	-52
0.28767	-57
0.29133	-57
0.29500	-56
0.29867	-56
0.30233	-53
0.30600	-48
0.30967	-41
0.31333	-36
0.31700	-29
0.32067	-23
0.32433	-18
0.32800	-12
0.33167	-5
0.33533	-1
0.33900	-1
0.34267	-3
0.34633	-9
0.35000	-18
0.35367	-28
0.35733	-36
0.36100	-39
0.36467	-36
0.36833	-29
0.37200	-20
0.37567	-8
0.37933	2
0.38300	3
0.38667	4
0.39033	7
0.39400	10
0.39767	3
0.40133	-12
0.40500	-25
0.40867	-32
0.41233	-33
0.41600	-29
0.41967	-22
0.42333	-15
0.42700	-13
0.43067	-17
0.43433	-23
0.43800	-29
0.44167	-33
0.44533	-35
0.44900	-34
0.45267	-32
0.45633	-29
0.46000	-25
0.46367	-23
0.46733	-25
0.47100	-28
0.47467	-30
0.47833	-31
0.48200	-31
0.48567	-31
0.48933	-29
0.49300	-27
0.49667	-29
0.50033	-31
0.50400	-30
0.50767	-28
0.51133	-29
0.51500	-27
0.51867	-25
0.52233	-23
0.52600	-24
0.52967	-26
0.53333	-30
0.53700	-32
0.54067	-33
0.54433	-33
0.54800	-33
0.55167	-33
0.55533	-33
0.55900	-31
0.56267	-29
0.56633	-26
0.57000	-26
0.57367	-29
0.57733	-33
0.58100	-36
0.58467	-40
0.58833	-45
0.59200	-51
0.59567	-55
0.59933	-59
0.60300	-56
0.60667	-48
0.61033	-38
0.61400	-28
0.61767	-24
0.62133	-27
0.62500	-32
0.62867	-32
0.63233	-26
0.63600	-21
0.63967	-19
0.64333	-20
0.64700	-24
0.65067	-30
0.65433	-35
0.65800	-38
0.66167	-39
0.66533	-41
0.66900	-43
0.67267	-44
0.67633	-46
0.68000	-50
0.68367	-54
0.68733	-56
0.69100	-56
0.69467	-55
0.69833	-55
0.70200	-53
0.70567	-48
0.70933	-47
0.71300	-51
0.71667	-54
0.72033	-56
0.72400	-57
0.72767	-58
0.73133	-62
0.73500	-70
0.73867	-79
0.74233	-82
0.74600	-79
0.74967	-73
0.75333	-75
0.75700	-80
0.76067	-79
0.76433	-72
0.76800	-65
0.77167	-60
0.77533	-56
0.77900	-53
0.78267	-54
0.78633	-61
0.79000	-65
0.79367	-67
0.79733	-67
0.80100	-65
0.80467	-62
0.80833	-59
0.81200	-56
0.81567	-53
0.81933	-49
0.82300	-45
0.82667	-43
0.83033	-45
0.83400	-48
0.83767	-54
0.84133	-58
0.84500	-58
0.84867	-53
0.85233	-49
0.85600	-48
0.85967	-48
0.86333	-44
0.86700	-40
0.87067	-43
0.87433	-54
0.87800	-66
0.88167	-75
0.88533	-79
0.88900	-80
0.89267	-79
0.89633	-76
0.90000	-75
0.90367	-74
0.90733	-72
0.91100	-69
0.91467	-62
0.91833	-54
0.92200	-53
0.92567	-62
0.92933	-75
0.93300	-86
0.93667	-94
0.94033	-99
0.94400	-101
0.94767	-105
0.95133	-110
0.95500	-112
0.95867	-109
0.96233	-103
0.96600	-95
0.96967	-87
0.97333	-79
0.97700	-73
0.98067	-67
0.98433	-60
0.98800	-59
0.99167	-60
0.99533	-66
0.99900	-72
1.00267	-76
1.00633	-80
1.01000	-85
1.01367	-88
1.01733	-85
1.02100	-79
1.02467	-74
1.02833	-68
1.03200	-59
1.03567	-51
1.03933	-46
1.04300	-47
1.04667	-50
1.05033	-56
1.05400	-63
1.05767	-70
1.06133	-75
1.06500	-76
1.06867	-73
1.07233	-70
1.07600	-69
1.07967	-68
1.08333	-69
1.08700	-71
1.09067	-75
1.09433	-80
1.09800	-86
1.10167	-91
1.10533	-95
1.10900	-99
1.11267	-102
1.11633	-104
1.12000	-105
1.12367	-99
1.12733	-90
1.13100	-82
1.13467	-77
1.13833	-73
1.14200	-74
1.14567	-78
1.14933	-79
1.15300	-81
1.15667	-85
1.16033	-93
1.16400	-100
1.16767	-105
1.17133	-106
1.17500	-103
1.17867	-100
1.18233	-101
1.18600	-104
1.18967	-106
1.19333	-104
1.19700	-101
1.20067	-95
1.20433	-91
1.20800	-93
1.21167	-95
1.21533	-92
1.21900	-90
1.22267	-92
1.22633	-95
1.23000	-99
1.23367	-103
1.23733	-106
1.24100	-107
1.24467	-107
1.24833	-109
1.25200	-111
1.25567	-113
1.25933	-112
1.26300	-109
1.26667	-104
1.27033	-98
1.27400	-92
1.27767	-84
1.28133	-81
1.28500	-86
1.28867	-94
1.29233	-104
1.29600	-114
1.29967	-121
1.30333	-122
1.30700	-117
1.31067	-112
1.31433	-107
1.31800	-99
1.32167	-87
1.32533	-77
1.32900	-73
1.33267	-73
1.33633	-81
1.34000	-94
1.34367	-103
1.34733	-109
1.35100	-115
1.35467	-126
1.35833	-134
1.36200	-136
1.36567	-133
1.36933	-129
1.37300	-125
1.37667	-119
1.38033	-112
1.38400	-108
1.38767	-104
1.39133	-101
1.39500	-102
1.39867	-105
1.40233	-108
1.40600	-105
1.40967	-102
1.41333	-102
1.41700	-99
1.42067	-99
1.42433	-101
1.42800	-100
1.43167	-103
1.43533	-107
1.43900	-92
1.44267	-9
1.44633	218
1.45000	779
1.45367	2034
1.45733	4103
1.46100	6595
1.46467	8978
1.46833	10919
1.47200	12265
1.47567	12907
1.47933	12736
1.48300	11737
1.48667	10093
1.49033	8147
1.49400	6244
1.49767	4610
1.50133	3320
1.50500	2357
1.50867	1665
1.51233	1181
1.51600	849
1.51967	624
1.52333	468
1.52700	358
1.53067	279
1.53433	222
1.53800	194
1.54167	226
1.54533	372
1.54900	664
1.55267	1053
1.55633	1449
1.56000	1788
1.56367	2032
1.56733	2164
1.57100	2155
1.57467	1987
1.57833	1688
1.58200	1328
1.58567	976
1.58933	677
1.59300	448
1.59667	288
1.60033	179
1.60400	99
1.60767	41
1.61133	3
1.61500	-23
1.61867	-42
1.62233	-55
1.62600	-61
1.62967	-62
1.63333	-59
1.63700	-60
1.64067	-62
1.64433	-60
1.64800	-54
1.65167	-48
1.65533	-45
1.65900	-48
1.66267	-55
1.66633	-65
1.67000	-76
1.67367	-86
1.67733	-98
1.68100	-108
1.68467	-112
1.68833	-115
1.69200	-113
1.69567	-107
1.69933	-98
1.70300	-92
1.70667	-89
1.71033	-91
1.71400	-95
1.71767	-95
1.72133	-93
1.72500	-92
1.72867	-94
1.73233	-93
1.73600	-90
1.73967	-93
1.74333	-97
1.74700	-99
1.75067	-103
1.75433	-111
1.75800	-119
1.76167	-118
1.76533	-112
1.76900	-106
1.77267	-101
1.77633	-98
1.78000	-92
1.78367	-86
1.78733	-83
1.79100	-84
1.79467	-89
1.79833	-96
1.80200	-109
1.80567	-125
1.80933	-141
1.81300	-152
1.81667	-152
1.82033	-145
1.82400	-136
1.82767	-129
1.83133	-126
1.83500	-128
1.83867	-132
1.84233	-130
1.84600	-127
1.84967	-125
1.85333	-124
1.85700	-126
1.86067	-123
1.86433	-115
1.86800	-105
1.87167	-100
1.87533	-98
1.87900	-96
1.88267	-96
1.88633	-100
1.89000	-106
1.89367	-116
1.89733	-125
1.90100	-128
1.90467	-125
1.90833	-118
1.91200	-113
1.91567	-111
1.91933	-110
1.92300	-107
1.92667	-105
1.93033	-104
1.93400	-107
1.93767	-109
1.94133	-110
1.94500	-114
1.94867	-117
1.95233	-105
1.95600	14
1.95967	748
1.96333	4150
1.96700	16147
1.97067	48607
1.97433	116584
1.97800	228085
1.98167	374351
1.98533	531825
1.98900	673662
1.99267	777608
1.99633	829014
2.00000	822058
2.00367	760573
2.00733	658475
2.01100	536347
2.01467	414401
2.01833	306893
2.02200	220351
2.02567	155149
2.02933	108269
2.03300	75611
2.03667	53311
2.04033	38241
2.04400	28078
2.04767	21197
2.05133	16485
2.05500	13210
2.05867	10887
2.06233	9201
2.06600	7941
2.06967	6971
2.07333	6209
2.07700	5597
2.08067	5099
2.08433	4683
2.08800	4326
2.09167	4016
2.09533	3747
2.09900	3511
2.10267	3302
2.10633	3115
2.11000	2949
2.11367	2798
2.11733	2659
2.12100	2534
2.12467	2415
2.12833	2303
2.13200	2195
2.13567	2097
2.13933	2009
2.14300	1933
2.14667	1864
2.15033	1800
2.15400	1741
2.15767	1684
2.16133	1632
2.16500	1581
2.16867	1528
2.17233	1476
2.17600	1426
2.17967	1376
2.18333	1330
2.18700	1285
2.19067	1247
2.19433	1214
2.19800	1178
2.20167	1142
2.20533	1109
2.20900	1080
2.21267	1054
2.21633	1029
2.22000	1006
2.22367	983
2.22733	960
2.23100	937
2.23467	915
2.23833	894
2.24200	872
2.24567	851
2.24933	835
2.25300	824
2.25667	818
2.26033	808
2.26400	787
2.26767	758
2.27133	730
2.27500	709
2.27867	700
2.28233	691
2.28600	676
2.28967	657
2.29333	632
2.29700	610
2.30067	593
2.30433	580
2.30800	571
2.31167	563
2.31533	559
2.31900	556
2.32267	547
2.32633	534
2.33000	520
2.33367	510
2.33733	506
2.34100	502
2.34467	498
2.34833	497
2.35200	497
2.35567	495
2.35933	488
2.36300	478
2.36667	470
2.37033	464
2.37400	460
2.37767	455
2.38133	452
2.38500	446
2.38867	438
2.39233	435
2.39600	435
2.39967	438
2.40333	441
2.40700	442
2.41067	440
2.41433	437
2.41800	434
2.42167	430
2.42533	423
2.42900	416
2.43267	410
2.43633	396
2.44000	388
2.44367	381
2.44733	379
2.45100	380
2.45467	377
2.45833	373
2.46200	367
2.46567	360
2.46933	353
2.47300	345
2.47667	337
2.48033	330
2.48400	328
2.48767	332
2.49133	339
2.49500	347
2.49867	352
2.50233	353
2.50600	351
2.50967	344
2.51333	336
2.51700	328
2.52067	321
2.52433	323
2.52800	332
2.53167	344
2.53533	351
2.53900	351
2.54267	346
2.54633	337
2.55000	326
2.55367	320
2.55733	316
2.56100	311
2.56467	304
2.56833	299
2.57200	297
2.57567	297
2.57933	299
2.58300	303
2.58667	307
2.59033	307
2.59400	303
2.59767	300
2.60133	297
2.60500	296
2.60867	297
2.61233	303
2.61600	312
2.61967	319
2.62333	325
2.62700	330
2.63067	333
2.63433	332
2.63800	327
2.64167	321
2.64533	314
2.64900	308
2.65267	302
2.65633	295
2.66000	288
2.66367	286
2.66733	289
2.67100	293
2.67467	300
2.67833	306
2.68200	311
2.68567	313
2.68933	313
2.69300	312
2.69667	308
2.70033	307
2.70400	310
2.70767	317
2.71133	322
2.71500	324
2.71867	325
2.72233	324
2.72600	321
2.72967	321
2.73333	325
2.73700	330
2.74067	334
2.74433	334
2.74800	334
2.75167	334
2.75533	328
2.75900	322
2.76267	314
2.76633	315
2.77000	316
2.77367	314
2.77733	313
2.78100	313
2.78467	321
2.78833	331
2.79200	340
2.79567	347
2.79933	347
2.80300	340
2.80667	330
2.81033	318
2.81400	307
2.81767	298
2.82133	291
2.82500	286
2.82867	285
2.83233	289
2.83600	299
2.83967	309
2.84333	316
2.84700	322
2.85067	330
2.85433	340
2.85800	349
2.86167	353
2.86533	348
2.86900	339
2.87267	329
2.87633	321
2.88000	313
2.88367	308
2.88733	309
2.89100	315
2.89467	318
2.89833	319
2.90200	321
2.90567	326
2.90933	333
2.91300	337
2.91667	337
2.92033	334
2.92400	329
2.92767	323
2.93133	323
2.93500	332
2.93867	349
2.94233	367
2.94600	382
2.94967	392
2.95333	397
2.95700	396
2.96067	388
2.96433	375
2.96800	365
2.97167	354
2.97533	344
2.97900	338
2.98267	338
2.98633	343
2.99000	350
2.99367	359
2.99733	368
3.00100	379
3.00467	389
3.00833	400
3.01200	408
3.01567	414
3.01933	415
3.02300	414
3.02667	412
3.03033	407
3.03400	400
3.03767	391
3.04133	385
3.04500	386
3.04867	393
3.05233	403
3.05600	411
3.05967	413
3.06333	410
3.06700	401
3.07067	395
3.07433	395
3.07800	392
3.08167	386
3.08533	386
3.08900	388
3.09267	391
3.09633	391
3.10000	389
3.10367	386
3.10733	381
3.11100	376
3.11467	373
3.11833	372
3.12200	369
3.12567	369
3.12933	372
3.13300	381
3.13667	390
3.14033	398
3.14400	401
3.14767	399
3.15133	398
3.15500	400
3.15867	405
3.16233	412
3.16600	422
3.16967	428
3.17333	422
3.17700	406
3.18067	387
3.18433	375
3.18800	368
3.19167	362
3.19533	358
3.19900	356
3.20267	360
3.20633	367
3.21000	377
3.21367	389
3.21733	400
3.22100	406
3.22467	406
3.22833	404
3.23200	407
3.23567	411
3.23933	415
3.24300	419
3.24667	418
3.25033	409
3.25400	395
3.25767	385
3.26133	377
3.26500	370
3.26867	363
3.27233	358
3.27600	358
3.27967	363
3.28333	370
3.28700	374
3.29067	374
3.29433	374
3.29800	375
3.30167	376
3.30533	376
3.30900	376
3.31267	377
3.31633	379
3.32000	383
3.32367	383
3.32733	379
3.33100	373
3.33467	369
3.33833	366
3.34200	364
3.34567	360
3.34933	358
3.35300	358
3.35667	362
3.36033	369
3.36400	378
3.36767	383
3.37133	384
3.37500	383
3.37867	381
3.38233	380
3.38600	377
3.38967	377
3.39333	374
3.39700	372
3.40067	372
3.40433	369
3.40800	370
3.41167	372
3.41533	373
3.41900	375
3.42267	377
3.42633	376
3.43000	372
3.43367	369
3.43733	370
3.44100	376
3.44467	379
3.44833	375
3.45200	368
3.45567	359
3.45933	353
3.46300	351
3.46667	349
3.47033	344
3.47400	339
3.47767	334
3.48133	333
3.48500	335
3.48867	337
3.49233	337
3.49600	336
3.49967	334
3.50333	334
3.50700	334
3.51067	337
3.51433	345
3.51800	349
3.52167	350
3.52533	351
3.52900	355
3.53267	356
3.53633	353
3.54000	353
3.54367	361
3.54733	367
3.55100	370
3.55467	366
3.55833	354
3.56200	342
3.56567	329
3.56933	317
3.57300	311
3.57667	309
3.58033	307
3.58400	306
3.58767	310
3.59133	317
3.59500	325
3.59867	329
3.60233	329
3.60600	327
3.60967	325
3.61333	326
3.61700	327
3.62067	329
3.62433	333
3.62800	336
3.63167	336
3.63533	331
3.63900	329
3.64267	326
3.64633	322
3.65000	316
3.65367	312
3.65733	310
3.66100	317
3.66467	325
3.66833	327
3.67200	321
3.67567	314
3.67933	308
3.68300	308
3.68667	311
3.69033	316
3.69400	321
3.69767	318
3.70133	314
3.70500	310
3.70867	311
3.71233	315
3.71600	317
3.71967	318
3.72333	323
3.72700	326
3.73067	325
3.73433	316
3.73800	305
3.74167	295
3.74533	290
3.74900	282
3.75267	283
3.75633	289
3.76000	292
3.76367	294
3.76733	295
3.77100	295
3.77467	293
3.77833	291
3.78200	289
3.78567	288
3.78933	293
3.79300	298
3.79667	299
3.80033	298
3.80400	298
3.80767	302
3.81133	302
3.81500	301
3.81867	299
3.82233	297
3.82600	293
3.82967	289
3.83333	285
3.83700	282
3.84067	281
3.84433	279
3.84800	278
3.85167	281
3.85533	284
3.85900	286
3.86267	286
3.86633	288
3.87000	292
3.87367	297
3.87733	300
3.88100	302
3.88467	301
3.88833	296
3.89200	291
3.89567	289
3.89933	288
3.90300	285
3.90667	280
3.91033	273
3.91400	268
3.91767	267
3.92133	266
3.92500	262
3.92867	260
3.93233	260
3.93600	260
3.93967	264
3.94333	267
3.94700	269
3.95067	272
3.95433	276
3.95800	281
3.96167	285
3.96533	282
3.96900	278
3.97267	274
3.97633	271
3.98000	269
3.98367	270
3.98733	274
3.99100	278
3.99467	280
3.99833	278

[Chromatogram (Ch2)]
Interval(msec)	220
# of Points	1091
Start Time(min)	0.002
End Time(min)	3.998
R.Time (min)	Intensity
0.00167	1
0.00533	1
0.00900	1
0.01267	2
0.01633	1
0.02000	1
0.02367	1
0.02733	2
0.03100	2
0.03467	2
0.03833	2
0.04200	2
0.04567	2
0.04933	2
0.05300	2
0.05667	1
0.06033	1
0.06400	1
0.06767	1
0.07133	1
0.07500	1
0.07867	1
0.08233	1
0.08600	2
0.08967	2
0.09333	2
0.09700	2
0.10067	2
0.10433	2
0.10800	2
0.11167	2
0.11533	2
0.11900	2
0.12267	2
0.12633	2
0.13000	2
0.13367	2
0.13733	3
0.14100	3
0.14467	3
0.14833	4
0.15200	4
0.15567	4
0.15933	4
0.16300	4
0.16667	4
0.17033	4
0.17400	3
0.17767	2
0.18133	2
0.18500	1
0.18867	1
0.19233	1
0.19600	0
0.19967	-0
0.20333	-1
0.20700	-1
0.21067	-1
0.21433	-2
0.21800	-1
0.22167	-1
0.22533	-1
0.22900	-1
0.23267	-2
0.23633	-1
0.24000	-1
0.24367	-1
0.24733	-1
0.25100	-1
0.25467	-1
0.25833	-1
0.26200	-1
0.26567	-0
0.26933	0
0.27300	0
0.27667	1
0.28033	1
0.28400	1
0.28767	1
0.29133	1
0.29500	1
0.29867	1
0.30233	1
0.30600	1
0.30967	1
0.31333	1
0.31700	1
0.32067	1
0.32433	0
0.32800	-0
0.33167	-1
0.33533	-1
0.33900	-2
0.34267	-2
0.34633	-2
0.35000	-3
0.35367	-3
0.35733	-3
0.36100	-3
0.36467	-3
0.36833	-3
0.37200	-3
0.37567	-3
0.37933	-4
0.38300	-4
0.38667	-4
0.39033	-4
0.39400	-4
0.39767	-4
0.40133	-4
0.40500	-4
0.40867	-4
0.41233	-4
0.41600	-4
0.41967	-4
0.42333	-4
0.42700	-4
0.43067	-4
0.43433	-4
0.43800	-4
0.44167	-4
0.44533	-3
0.44900	-3
0.45267	-3
0.45633	-3
0.46000	-3
0.46367	-3
0.46733	-3
0.47100	-3
0.47467	-3
0.47833	-3
0.48200	-3
0.48567	-3
0.48933	-3
0.49300	-2
0.49667	-2
0.50033	-1
0.50400	-1
0.50767	-1
0.51133	-0
0.51500	0
0.51867	0
0.52233	1
0.52600	1
0.52967	2
0.53333	2
0.53700	2
0.54067	2
0.54433	3
0.54800	3
0.55167	3
0.55533	2
0.55900	2
0.56267	2
0.56633	1
0.57000	1
0.57367	1
0.57733	1
0.58100	1
0.58467	1
0.58833	1
0.59200	1
0.59567	1
0.59933	1
0.60300	1
0.60667	1
0.61033	1
0.61400	1
0.61767	1
0.62133	1
0.62500	1
0.62867	1
0.63233	1
0.63600	2
0.63967	2
0.64333	2
0.64700	2
0.65067	3
0.65433	3
0.65800	3
0.66167	3
0.66533	3
0.66900	3
0.67267	3
0.67633	3
0.68000	3
0.68367	2
0.68733	2
0.69100	2
0.69467	1
0.69833	1
0.70200	-0
0.70567	-1
0.70933	-1
0.71300	-1
0.71667	-1
0.72033	-1
0.72400	-1
0.72767	-1
0.73133	-1
0.73500	-1
0.73867	-0
0.74233	-0
0.74600	-0
0.74967	-0
0.75333	-0
0.75700	-0
0.76067	0
0.76433	1
0.76800	1
0.77167	1
0.77533	1
0.77900	1
0.78267	1
0.78633	0
0.79000	-0
0.79367	-0
0.79733	-1
0.80100	-1
0.80467	-2
0.80833	-2
0.81200	-2
0.81567	-2
0.81933	-3
0.82300	-3
0.82667	-3
0.83033	-3
0.83400	-3
0.83767	-3
0.84133	-3
0.84500	-3
0.84867	-3
0.85233	-4
0.85600	-4
0.85967	-4
0.86333	-5
0.86700	-5
0.87067	-5
0.87433	-6
0.87800	-6
0.88167	-6
0.88533	-6
0.88900	-5
0.89267	-5
0.89633	-5
0.90000	-4
0.90367	-4
0.90733	-4
0.91100	-4
0.91467	-4
0.91833	-5
0.92200	-4
0.92567	-4
0.92933	-4
0.93300	-4
0.93667	-3
0.94033	-3
0.94400	-2
0.94767	-2
0.95133	-1
0.95500	-1
0.95867	-1
0.96233	-0
0.96600	0
0.96967	1
0.97333	1
0.97700	2
0.98067	2
0.98433	1
0.98800	1
0.99167	1
0.99533	0
0.99900	-0
1.00267	-0
1.00633	-0
1.01000	-1
1.01367	-1
1.01733	-1
1.02100	-2
1.02467	-2
1.02833	-2
1.03200	-2
1.03567	-3
1.03933	-3
1.04300	-3
1.04667	-2
1.05033	-2
1.05400	-2
1.05767	-2
1.06133	-2
1.06500	-2
1.06867	-2
1.07233	-2
1.07600	-2
1.07967	-1
1.08333	-1
1.08700	-2
1.09067	-2
1.09433	-2
1.09800	-2
1.10167	-2
1.10533	-2
1.10900	-2
1.11267	-2
1.11633	-2
1.12000	-2
1.12367	-3
1.12733	-3
1.13100	-3
1.13467	-4
1.13833	-4
1.14200	-4
1.14567	-4
1.14933	-4
1.15300	-4
1.15667	-4
1.16033	-4
1.16400	-3
1.16767	-3
1.17133	-2
1.17500	-2
1.17867	-2
1.18233	-2
1.18600	-2
1.18967	-2
1.19333	-2
1.19700	-2
1.20067	-2
1.20433	-2
1.20800	-3
1.21167	-3
1.21533	-3
1.21900	-2
1.22267	-2
1.22633	-2
1.23000	-2
1.23367	-2
1.23733	-2
1.24100	-2
1.24467	-1
1.24833	-1
1.25200	-1
1.25567	-1
1.25933	-1
1.26300	-1
1.26667	-1
1.27033	-1
1.27400	-2
1.27767	-2
1.28133	-2
1.28500	-2
1.28867	-2
1.29233	-2
1.29600	-2
1.29967	-2
1.30333	-2
1.30700	-2
1.31067	-2
1.31433	-2
1.31800	-2
1.32167	-2
1.32533	-2
1.32900	-2
1.33267	-2
1.33633	-2
1.34000	-2
1.34367	-2
1.34733	-2
1.35100	-2
1.35467	-2
1.35833	-3
1.36200	-2
1.36567	-2
1.36933	-2
1.37300	-3
1.37667	-3
1.38033	-3
1.38400	-3
1.38767	-3
1.39133	-2
1.39500	-3
1.39867	-2
1.40233	-2
1.40600	-2
1.40967	-2
1.41333	-1
1.41700	-1
1.42067	-1
1.42433	-1
1.42800	-2
1.43167	-2
1.43533	-3
1.43900	-3
1.44267	-3
1.44633	-3
1.45000	-3
1.45367	-3
1.45733	-4
1.46100	-4
1.46467	-4
1.46833	-4
1.47200	-4
1.47567	-4
1.47933	-3
1.48300	-3
1.48667	-4
1.49033	-4
1.49400	-4
1.49767	-5
1.50133	-5
1.50500	-5
1.50867	-5
1.51233	-5
1.51600	-5
1.51967	-5
1.52333	-5
1.52700	-5
1.53067	-5
1.53433	-5
1.53800	-5
1.54167	-5
1.54533	-5
1.54900	-5
1.55267	-4
1.55633	-4
1.56000	-3
1.56367	-2
1.56733	-2
1.57100	-2
1.57467	-2
1.57833	-1
1.58200	-1
1.58567	-1
1.58933	-1
1.59300	-2
1.59667	-2
1.60033	-3
1.60400	-4
1.60767	-5
1.61133	-7
1.61500	-8
1.61867	-10
1.62233	-12
1.62600	-15
1.62967	-18
1.63333	-21
1.63700	-25
1.64067	-28
1.64433	-32
1.64800	-35
1.65167	-39
1.65533	-43
1.65900	-47
1.66267	-52
1.66633	-56
1.67000	-62
1.67367	-67
1.67733	-73
1.68100	-78
1.68467	-82
1.68833	-87
1.69200	-91
1.69567	-94
1.69933	-98
1.70300	-100
1.70667	-102
1.71033	-104
1.71400	-105
1.71767	-106
1.72133	-107
1.72500	-108
1.72867	-109
1.73233	-110
1.73600	-111
1.73967	-112
1.74333	-113
1.74700	-114
1.75067	-114
1.75433	-115
1.75800	-115
1.76167	-115
1.76533	-115
1.76900	-115
1.77267	-115
1.77633	-115
1.78000	-116
1.78367	-116
1.78733	-117
1.79100	-117
1.79467	-118
1.79833	-118
1.80200	-118
1.80567	-118
1.80933	-118
1.81300	-117
1.81667	-117
1.82033	-117
1.82400	-118
1.82767	-118
1.83133	-118
1.83500	-118
1.83867	-118
1.84233	-117
1.84600	-117
1.84967	-117
1.85333	-117
1.85700	-116
1.86067	-117
1.86433	-117
1.86800	-117
1.87167	-117
1.87533	-117
1.87900	-117
1.88267	-117
1.88633	-117
1.89000	-117
1.89367	-117
1.89733	-117
1.90100	-118
1.90467	-118
1.90833	-118
1.91200	-118
1.91567	-118
1.91933	-118
1.92300	-118
1.92667	-118
1.93033	-118
1.93400	-117
1.93767	-117
1.94133	-116
1.94500	-116
1.94867	-115
1.95233	-115
1.95600	-115
1.95967	-115
1.96333	-115
1.96700	-115
1.97067	-115
1.97433	-115
1.97800	-114
1.98167	-113
1.98533	-113
1.98900	-112
1.99267	-111
1.99633	-111
2.00000	-110
2.00367	-110
2.00733	-109
2.01100	-108
2.01467	-107
2.01833	-107
2.02200	-106
2.02567	-105
2.02933	-105
2.03300	-105
2.03667	-105
2.04033	-105
2.04400	-105
2.04767	-106
2.05133	-106
2.05500	-106
2.05867	-106
2.06233	-106
2.06600	-106
2.06967	-106
2.07333	-106
2.07700	-105
2.08067	-105
2.08433	-105
2.08800	-105
2.09167	-105
2.09533	-104
2.09900	-104
2.10267	-103
2.10633	-103
2.11000	-103
2.11367	-103
2.11733	-103
2.12100	-102
2.12467	-101
2.12833	-100
2.13200	-99
2.13567	-98
2.13933	-98
2.14300	-97
2.14667	-97
2.15033	-97
2.15400	-97
2.15767	-97
2.16133	-97
2.16500	-97
2.16867	-96
2.17233	-96
2.17600	-95
2.17967	-95
2.18333	-95
2.18700	-95
2.19067	-94
2.19433	-94
2.19800	-94
2.20167	-93
2.20533	-92
2.20900	-92
2.21267	-91
2.21633	-91
2.22000	-90
2.22367	-90
2.22733	-89
2.23100	-89
2.23467	-89
2.23833	-89
2.24200	-88
2.24567	-88
2.24933	-87
2.25300	-87
2.25667	-86
2.26033	-86
2.26400	-86
2.26767	-86
2.27133	-85
2.27500	-85
2.27867	-85
2.28233	-84
2.28600	-84
2.28967	-84
2.29333	-84
2.29700	-85
2.30067	-85
2.30433	-85
2.30800	-85
2.31167	-85
2.31533	-86
2.31900	-86
2.32267	-87
2.32633	-87
2.33000	-86
2.33367	-86
2.33733	-85
2.34100	-83
2.34467	-81
2.34833	-80
2.35200	-79
2.35567	-77
2.35933	-76
2.36300	-74
2.36667	-72
2.37033	-70
2.37400	-68
2.37767	-65
2.38133	-62
2.38500	-58
2.38867	-54
2.39233	-50
2.39600	-46
2.39967	-41
2.40333	-37
2.40700	-33
2.41067	-30
2.41433	-27
2.41800	-24
2.42167	-22
2.42533	-21
2.42900	-19
2.43267	-18
2.43633	-16
2.44000	-15
2.44367	-13
2.44733	-12
2.45100	-10
2.45467	-9
2.45833	-7
2.46200	-5
2.46567	-3
2.46933	-2
2.47300	0
2.47667	2
2.48033	3
2.48400	4
2.48767	4
2.49133	5
2.49500	5
2.49867	5
2.50233	5
2.50600	6
2.50967	7
2.51333	7
2.51700	8
2.52067	9
2.52433	9
2.52800	10
2.53167	10
2.53533	11
2.53900	11
2.54267	12
2.54633	13
2.55000	13
2.55367	14
2.55733	14
2.56100	14
2.56467	13
2.56833	12
2.57200	12
2.57567	12
2.57933	12
2.58300	12
2.58667	12
2.59033	13
2.59400	14
2.59767	14
2.60133	15
2.60500	16
2.60867	16
2.61233	17
2.61600	17
2.61967	17
2.62333	16
2.62700	16
2.63067	16
2.63433	15
2.63800	15
2.64167	16
2.64533	16
2.64900	16
2.65267	16
2.65633	17
2.66000	17
2.66367	18
2.66733	18
2.67100	18
2.67467	18
2.67833	19
2.68200	19
2.68567	20
2.68933	20
2.69300	21
2.69667	22
2.70033	22
2.70400	23
2.70767	23
2.71133	24
2.71500	24
2.71867	23
2.72233	23
2.72600	22
2.72967	22
2.73333	21
2.73700	21
2.74067	21
2.74433	21
2.74800	21
2.75167	21
2.75533	22
2.75900	22
2.76267	22
2.76633	23
2.77000	23
2.77367	24
2.77733	24
2.78100	24
2.78467	25
2.78833	25
2.79200	25
2.79567	26
2.79933	26
2.80300	26
2.80667	26
2.81033	27
2.81400	27
2.81767	27
2.82133	27
2.82500	27
2.82867	27
2.83233	26
2.83600	25
2.83967	23
2.84333	20
2.84700	15
2.85067	8
2.85433	-2
2.85800	-16
2.86167	-34
2.86533	-56
2.86900	-82
2.87267	-113
2.87633	-147
2.88000	-186
2.88367	-228
2.88733	-274
2.89100	-322
2.89467	-373
2.89833	-425
2.90200	-479
2.90567	-534
2.90933	-589
2.91300	-644
2.91667	-698
2.92033	-752
2.92400	-804
2.92767	-856
2.93133	-909
2.93500	-968
2.93867	-1028
2.94233	-1079
2.94600	-1110
2.94967	-1117
2.95333	-1097
2.95700	-1054
2.96067	-993
2.96433	-920
2.96800	-840
2.97167	-758
2.97533	-677
2.97900	-600
2.98267	-527
2.98633	-460
2.99000	-400
2.99367	-346
2.99733	-298
3.00100	-255
3.00467	-218
3.00833	-185
3.01200	-157
3.01567	-132
3.01933	-111
3.02300	-93
3.02667	-78
3.03033	-64
3.03400	-53
3.03767	-43
3.04133	-34
3.04500	-27
3.04867	-21
3.05233	-16
3.05600	-11
3.05967	-8
3.06333	-5
3.06700	-2
3.07067	0
3.07433	2
3.07800	4
3.08167	5
3.08533	6
3.08900	7
3.09267	8
3.09633	9
3.10000	9
3.10367	10
3.10733	11
3.11100	11
3.11467	12
3.11833	12
3.12200	13
3.12567	13
3.12933	14
3.13300	14
3.13667	14
3.14033	15
3.14400	15
3.14767	15
3.15133	16
3.15500	16
3.15867	16
3.16233	17
3.16600	17
3.16967	17
3.17333	18
3.17700	18
3.18067	19
3.18433	19
3.18800	19
3.19167	20
3.19533	20
3.19900	21
3.20267	21
3.20633	21
3.21000	21
3.21367	21
3.21733	21
3.22100	21
3.22467	22
3.22833	22
3.23200	22
3.23567	22
3.23933	22
3.24300	22
3.24667	22
3.25033	22
3.25400	22
3.25767	22
3.26133	23
3.26500	23
3.26867	23
3.27233	24
3.27600	24
3.27967	24
3.28333	24
3.28700	24
3.29067	24
3.29433	24
3.29800	24
3.30167	25
3.30533	25
3.30900	25
3.31267	25
3.31633	26
3.32000	27
3.32367	27
3.32733	27
3.33100	28
3.33467	28
3.33833	28
3.34200	28
3.34567	29
3.34933	29
3.35300	29
3.35667	30
3.36033	30
3.36400	30
3.36767	30
3.37133	30
3.37500	30
3.37867	30
3.38233	29
3.38600	29
3.38967	29
3.39333	30
3.39700	30
3.40067	29
3.40433	29
3.40800	29
3.41167	29
3.41533	29
3.41900	29
3.42267	28
3.42633	28
3.43000	28
3.43367	28
3.43733	28
3.44100	28
3.44467	28
3.44833	28
3.45200	28
3.45567	28
3.45933	28
3.46300	28
3.46667	27
3.47033	27
3.47400	27
3.47767	26
3.48133	26
3.48500	26
3.48867	26
3.49233	26
3.49600	26
3.49967	26
3.50333	26
3.50700	27
3.51067	27
3.51433	27
3.51800	27
3.52167	28
3.52533	28
3.52900	28
3.53267	28
3.53633	28
3.54000	27
3.54367	27
3.54733	27
3.55100	27
3.55467	26
3.55833	26
3.56200	26
3.56567	26
3.56933	26
3.57300	26
3.57667	26
3.58033	26
3.58400	25
3.58767	25
3.59133	25
3.59500	25
3.59867	25
3.60233	25
3.60600	24
3.60967	24
3.61333	24
3.61700	23
3.62067	23
3.62433	23
3.62800	23
3.63167	23
3.63533	23
3.63900	23
3.64267	24
3.64633	24
3.65000	24
3.65367	24
3.65733	25
3.66100	25
3.66467	26
3.66833	26
3.67200	26
3.67567	26
3.67933	26
3.68300	26
3.68667	26
3.69033	26
3.69400	26
3.69767	26
3.70133	26
3.70500	25
3.70867	25
3.71233	25
3.71600	25
3.71967	24
3.72333	24
3.72700	24
3.73067	24
3.73433	24
3.73800	24
3.74167	24
3.74533	24
3.74900	24
3.75267	24
3.75633	24
3.76000	24
3.76367	24
3.76733	24
3.77100	24
3.77467	24
3.77833	24
3.78200	24
3.78567	25
3.78933	25
3.79300	25
3.79667	25
3.80033	25
3.80400	25
3.80767	25
3.81133	25
3.81500	25
3.81867	26
3.82233	26
3.82600	26
3.82967	26
3.83333	26
3.83700	26
3.84067	26
3.84433	26
3.84800	26
3.85167	27
3.85533	27
3.85900	27
3.86267	26
3.86633	26
3.87000	26
3.87367	26
3.87733	26
3.88100	26
3.88467	27
3.88833	27
3.89200	27
3.89567	27
3.89933	27
3.90300	28
3.90667	28
3.91033	28
3.91400	27
3.91767	27
3.92133	27
3.92500	27
3.92867	26
3.93233	26
3.93600	27
3.93967	27
3.94333	27
3.94700	27
3.95067	27
3.95433	27
3.95800	27
3.96167	27
3.96533	27
3.96900	26
3.97267	26
3.97633	26
3.98000	26
3.98367	25
3.98733	25
3.99100	25
3.99467	25
3.99833	24

[Chromatogram (Ch3)]
Interval(msec)	220
# of Points	1091
Start Time(min)	0.002
End Time(min)	3.998
R.Time (min)	Intensity
0.00167	1
0.00533	3
0.00900	3
0.01267	3
0.01633	2
0.02000	1
0.02367	-2
0.02733	-5
0.03100	-6
0.03467	-6
0.03833	-6
0.04200	-6
0.04567	-6
0.04933	-6
0.05300	-8
0.05667	-8
0.06033	-7
0.06400	-5
0.06767	-2
0.07133	1
0.07500	3
0.07867	2
0.08233	1
0.08600	-3
0.08967	-5
0.09333	-5
0.09700	-4
0.10067	-4
0.10433	-3
0.10800	-3
0.11167	-3
0.11533	-2
0.11900	-1
0.12267	-1
0.12633	-2
0.13000	-4
0.13367	-6
0.13733	-8
0.14100	-8
0.14467	-7
0.14833	-8
0.15200	-9
0.15567	-7
0.15933	-6
0.16300	-8
0.16667	-8
0.17033	-6
0.17400	-4
0.17767	-4
0.18133	-3
0.18500	0
0.18867	1
0.19233	-1
0.19600	-1
0.19967	-0
0.20333	-1
0.20700	-3
0.21067	-5
0.21433	-4
0.21800	-2
0.22167	0
0.22533	-1
0.22900	-3
0.23267	-5
0.23633	-4
0.24000	-3
0.24367	-4
0.24733	-4
0.25100	-5
0.25467	-6
0.25833	-5
0.26200	-6
0.26567	-7
0.26933	-9
0.27300	-9
0.27667	-8
0.28033	-8
0.28400	-6
0.28767	-6
0.29133	-6
0.29500	-4
0.29867	-3
0.30233	-3
0.30600	-4
0.30967	-6
0.31333	-6
0.31700	-7
0.32067	-7
0.32433	-5
0.32800	-7
0.33167	-9
0.33533	-8
0.33900	-8
0.34267	-10
0.34633	-10
0.35000	-10
0.35367	-12
0.35733	-11
0.36100	-10
0.36467	-6
0.36833	-5
0.37200	-6
0.37567	-7
0.37933	-8
0.38300	-9
0.38667	-8
0.39033	-6
0.39400	-6
0.39767	-6
0.40133	-7
0.40500	-9
0.40867	-9
0.41233	-9
0.41600	-10
0.41967	-10
0.42333	-9
0.42700	-8
0.43067	-8
0.43433	-6
0.43800	-5
0.44167	-6
0.44533	-5
0.44900	-5
0.45267	-8
0.45633	-11
0.46000	-9
0.46367	-8
0.46733	-11
0.47100	-12
0.47467	-13
0.47833	-11
0.48200	-8
0.48567	-6
0.48933	-4
0.49300	-3
0.49667	-5
0.50033	-6
0.50400	-8
0.50767	-8
0.51133	-7
0.51500	-8
0.51867	-9
0.52233	-8
0.52600	-8
0.52967	-7
0.53333	-8
0.53700	-9
0.54067	-8
0.54433	-7
0.54800	-5
0.55167	-5
0.55533	-8
0.55900	-12
0.56267	-12
0.56633	-11
0.57000	-8
0.57367	-5
0.57733	-4
0.58100	-5
0.58467	-8
0.58833	-9
0.59200	-8
0.59567	-8
0.59933	-8
0.60300	-7
0.60667	-6
0.61033	-7
0.61400	-9
0.61767	-12
0.62133	-13
0.62500	-11
0.62867	-11
0.63233	-10
0.63600	-8
0.63967	-7
0.64333	-6
0.64700	-7
0.65067	-8
0.65433	-10
0.65800	-11
0.66167	-10
0.66533	-9
0.66900	-10
0.67267	-10
0.67633	-10
0.68000	-11
0.68367	-12
0.68733	-13
0.69100	-13
0.69467	-13
0.69833	-11
0.70200	-10
0.70567	-10
0.70933	-12
0.71300	-14
0.71667	-14
0.72033	-14
0.72400	-15
0.72767	-14
0.73133	-14
0.73500	-13
0.73867	-12
0.74233	-12
0.74600	-12
0.74967	-10
0.75333	-8
0.75700	-7
0.76067	-8
0.76433	-8
0.76800	-7
0.77167	-7
0.77533	-9
0.77900	-11
0.78267	-11
0.78633	-9
0.79000	-8
0.79367	-8
0.79733	-9
0.80100	-7
0.80467	-7
0.80833	-7
0.81200	-6
0.81567	-5
0.81933	-7
0.82300	-9
0.82667	-8
0.83033	-5
0.83400	-2
0.83767	-4
0.84133	-5
0.84500	-5
0.84867	-6
0.85233	-7
0.85600	-6
0.85967	-5
0.86333	-6
0.86700	-5
0.87067	-5
0.87433	-4
0.87800	-5
0.88167	-5
0.88533	-4
0.88900	-3
0.89267	-2
0.89633	-4
0.90000	-7
0.90367	-8
0.90733	-7
0.91100	-7
0.91467	-7
0.91833	-6
0.92200	-7
0.92567	-7
0.92933	-6
0.93300	-6
0.93667	-6
0.94033	-4
0.94400	-3
0.94767	-1
0.95133	-3
0.95500	-5
0.95867	-6
0.96233	-7
0.96600	-8
0.96967	-10
0.97333	-12
0.97700	-10
0.98067	-9
0.98433	-9
0.98800	-8
0.99167	-8
0.99533	-7
0.99900	-4
1.00267	-3
1.00633	-4
1.01000	-6
1.01367	-8
1.01733	-9
1.02100	-11
1.02467	-11
1.02833	-10
1.03200	-8
1.03567	-7
1.03933	-7
1.04300	-7
1.04667	-6
1.05033	-6
1.05400	-5
1.05767	-5
1.06133	-4
1.06500	-5
1.06867	-5
1.07233	-6
1.07600	-7
1.07967	-9
1.08333	-11
1.08700	-10
1.09067	-9
1.09433	-8
1.09800	-8
1.10167	-9
1.10533	-9
1.10900	-10
1.11267	-10
1.11633	-11
1.12000	-12
1.12367	-13
1.12733	-11
1.13100	-11
1.13467	-13
1.13833	-13
1.14200	-12
1.14567	-12
1.14933	-12
1.15300	-11
1.15667	-11
1.16033	-10
1.16400	-10
1.16767	-9
1.17133	-8
1.17500	-9
1.17867	-9
1.18233	-9
1.18600	-8
1.18967	-7
1.19333	-6
1.19700	-9
1.20067	-9
1.20433	-8
1.20800	-8
1.21167	-10
1.21533	-14
1.21900	-16
1.22267	-17
1.22633	-16
1.23000	-13
1.23367	-12
1.23733	-12
1.24100	-11
1.24467	-9
1.24833	-9
1.25200	-8
1.25567	-9
1.25933	-10
1.26300	-11
1.26667	-10
1.27033	-8
1.27400	-6
1.27767	-5
1.28133	-6
1.28500	-5
1.28867	-4
1.29233	-5
1.29600	-5
1.29967	-5
1.30333	-5
1.30700	-5
1.31067	-5
1.31433	-5
1.31800	-8
1.32167	-9
1.32533	-10
1.32900	-11
1.33267	-12
1.33633	-12
1.34000	-12
1.34367	-11
1.34733	-11
1.35100	-10
1.35467	-8
1.35833	-6
1.36200	-6
1.36567	-5
1.36933	-5
1.37300	-7
1.37667	-9
1.38033	-11
1.38400	-11
1.38767	-11
1.39133	-12
1.39500	-11
1.39867	-10
1.40233	-9
1.40600	-10
1.40967	-9
1.41333	-8
1.41700	-9
1.42067	-8
1.42433	-8
1.42800	-9
1.43167	-8
1.43533	-8
1.43900	-9
1.44267	-8
1.44633	-8
1.45000	-7
1.45367	-7
1.45733	-8
1.46100	-6
1.46467	-4
1.46833	-3
1.47200	-5
1.47567	-6
1.47933	-8
1.48300	-10
1.48667	-11
1.49033	-9
1.49400	-8
1.49767	-8
1.50133	-8
1.50500	-7
1.50867	-7
1.51233	-9
1.51600	-10
1.51967	-12
1.52333	-12
1.52700	-12
1.53067	-11
1.53433	-10
1.53800	-11
1.54167	-9
1.54533	-9
1.54900	-9
1.55267	-9
1.55633	-8
1.56000	-8
1.56367	-7
1.56733	-7
1.57100	-8
1.57467	-8
1.57833	-8
1.58200	-6
1.58567	-5
1.58933	-5
1.59300	-4
1.59667	-4
1.60033	-5
1.60400	-7
1.60767	-7
1.61133	-7
1.61500	-7
1.61867	-7
1.62233	-7
1.62600	-8
1.62967	-5
1.63333	-1
1.63700	0
1.64067	-2
1.64433	-6
1.64800	-7
1.65167	-8
1.65533	-8
1.65900	-6
1.66267	-7
1.66633	-7
1.67000	-6
1.67367	-4
1.67733	-6
1.68100	-6
1.68467	-5
1.68833	-4
1.69200	-2
1.69567	-4
1.69933	-5
1.70300	-4
1.70667	-3
1.71033	-1
1.71400	-1
1.71767	-2
1.72133	-2
1.72500	-1
1.72867	2
1.73233	4
1.73600	4
1.73967	4
1.74333	3
1.74700	2
1.75067	4
1.75433	6
1.75800	6
1.76167	3
1.76533	1
1.76900	1
1.77267	2
1.77633	1
1.78000	1
1.78367	1
1.78733	1
1.79100	2
1.79467	3
1.79833	4
1.80200	2
1.80567	-2
1.80933	-4
1.81300	-3
1.81667	0
1.82033	2
1.82400	3
1.82767	5
1.83133	6
1.83500	5
1.83867	3
1.84233	4
1.84600	6
1.84967	10
1.85333	12
1.85700	14
1.86067	13
1.86433	11
1.86800	10
1.87167	9
1.87533	7
1.87900	8
1.88267	8
1.88633	8
1.89000	8
1.89367	10
1.89733	12
1.90100	12
1.90467	13
1.90833	15
1.91200	17
1.91567	18
1.91933	16
1.92300	14
1.92667	15
1.93033	18
1.93400	19
1.93767	17
1.94133	14
1.94500	13
1.94867	14
1.95233	14
1.95600	13
1.95967	15
1.96333	18
1.96700	18
1.97067	18
1.97433	18
1.97800	19
1.98167	21
1.98533	21
1.98900	21
1.99267	22
1.99633	21
2.00000	20
2.00367	20
2.00733	22
2.01100	24
2.01467	25
2.01833	24
2.02200	24
2.02567	25
2.02933	27
2.03300	29
2.03667	30
2.04033	31
2.04400	32
2.04767	33
2.05133	33
2.05500	32
2.05867	30
2.06233	30
2.06600	32
2.06967	34
2.07333	36
2.07700	36
2.08067	35
2.08433	35
2.08800	36
2.09167	38
2.09533	40
2.09900	43
2.10267	43
2.10633	43
2.11000	45
2.11367	46
2.11733	46
2.12100	46
2.12467	46
2.12833	44
2.13200	43
2.13567	41
2.13933	41
2.14300	40
2.14667	43
2.15033	45
2.15400	45
2.15767	47
2.16133	47
2.16500	49
2.16867	51
2.17233	54
2.17600	56
2.17967	57
2.18333	56
2.18700	56
2.19067	57
2.19433	58
2.19800	59
2.20167	59
2.20533	61
2.20900	61
2.21267	62
2.21633	62
2.22000	62
2.22367	62
2.22733	64
2.23100	66
2.23467	66
2.23833	66
2.24200	66
2.24567	69
2.24933	68
2.25300	68
2.25667	69
2.26033	70
2.26400	70
2.26767	71
2.27133	72
2.27500	74
2.27867	75
2.28233	77
2.28600	78
2.28967	78
2.29333	78
2.29700	80
2.30067	83
2.30433	85
2.30800	86
2.31167	86
2.31533	88
2.31900	91
2.32267	93
2.32633	94
2.33000	91
2.33367	89
2.33733	88
2.34100	88
2.34467	90
2.34833	93
2.35200	95
2.35567	96
2.35933	96
2.36300	96
2.36667	99
2.37033	101
2.37400	101
2.37767	100
2.38133	97
2.38500	95
2.38867	95
2.39233	98
2.39600	103
2.39967	109
2.40333	114
2.40700	117
2.41067	120
2.41433	121
2.41800	121
2.42167	121
2.42533	123
2.42900	125
2.43267	124
2.43633	124
2.44000	129
2.44367	159
2.44733	241
2.45100	332
2.45467	410
2.45833	468
2.46200	489
2.46567	478
2.46933	456
2.47300	437
2.47667	423
2.48033	413
2.48400	408
2.48767	398
2.49133	380
2.49500	359
2.49867	337
2.50233	317
2.50600	302
2.50967	291
2.51333	286
2.51700	283
2.52067	283
2.52433	284
2.52800	288
2.53167	297
2.53533	306
2.53900	313
2.54267	321
2.54633	325
2.55000	327
2.55367	327
2.55733	322
2.56100	313
2.56467	302
2.56833	292
2.57200	281
2.57567	274
2.57933	268
2.58300	262
2.58667	256
2.59033	250
2.59400	247
2.59767	241
2.60133	234
2.60500	221
2.60867	201
2.61233	177
2.61600	152
2.61967	128
2.62333	108
2.62700	91
2.63067	78
2.63433	68
2.63800	65
2.64167	64
2.64533	66
2.64900	71
2.65267	80
2.65633	91
2.66000	103
2.66367	115
2.66733	126
2.67100	139
2.67467	150
2.67833	160
2.68200	171
2.68567	180
2.68933	187
2.69300	194
2.69667	199
2.70033	203
2.70400	202
2.70767	203
2.71133	204
2.71500	206
2.71867	209
2.72233	211
2.72600	212
2.72967	214
2.73333	216
2.73700	216
2.74067	217
2.74433	218
2.74800	217
2.75167	215
2.75533	214
2.75900	214
2.76267	213
2.76633	217
2.77000	220
2.77367	220
2.77733	220
2.78100	222
2.78467	223
2.78833	225
2.79200	224
2.79567	225
2.79933	228
2.80300	227
2.80667	226
2.81033	227
2.81400	231
2.81767	240
2.82133	259
2.82500	300
2.82867	384
2.83233	529
2.83600	760
2.83967	1093
2.84333	1533
2.84700	2065
2.85067	2660
2.85433	3282
2.85800	3879
2.86167	4396
2.86533	4799
2.86900	5062
2.87267	5172
2.87633	5138
2.88000	4984
2.88367	4737
2.88733	4426
2.89100	4077
2.89467	3715
2.89833	3355
2.90200	3012
2.90567	2691
2.90933	2397
2.91300	2127
2.91667	1884
2.92033	1670
2.92400	1479
2.92767	1313
2.93133	1167
2.93500	1041
2.93867	932
2.94233	838
2.94600	757
2.94967	687
2.95333	627
2.95700	576
2.96067	532
2.96433	493
2.96800	459
2.97167	430
2.97533	407
2.97900	390
2.98267	375
2.98633	361
2.99000	346
2.99367	332
2.99733	321
3.00100	310
3.00467	299
3.00833	288
3.01200	279
3.01567	275
3.01933	270
3.02300	267
3.02667	264
3.03033	258
3.03400	251
3.03767	247
3.04133	243
3.04500	238
3.04867	236
3.05233	235
3.05600	234
3.05967	231
3.06333	228
3.06700	223
3.07067	219
3.07433	218
3.07800	217
3.08167	213
3.08533	210
3.08900	208
3.09267	208
3.09633	209
3.10000	206
3.10367	203
3.10733	202
3.11100	202
3.11467	201
3.11833	199
3.12200	195
3.12567	191
3.12933	187
3.13300	184
3.13667	182
3.14033	180
3.14400	180
3.14767	181
3.15133	182
3.15500	184
3.15867	185
3.16233	185
3.16600	185
3.16967	183
3.17333	179
3.17700	175
3.18067	174
3.18433	172
3.18800	173
3.19167	173
3.19533	174
3.19900	174
3.20267	173
3.20633	171
3.21000	166
3.21367	165
3.21733	166
3.22100	168
3.22467	167
3.22833	166
3.23200	165
3.23567	166
3.23933	164
3.24300	162
3.24667	162
3.25033	164
3.25400	167
3.25767	168
3.26133	168
3.26500	166
3.26867	164
3.27233	162
3.27600	162
3.27967	163
3.28333	162
3.28700	159
3.29067	157
3.29433	158
3.29800	161
3.30167	161
3.30533	160
3.30900	157
3.31267	154
3.31633	152
3.32000	152
3.32367	151
3.32733	150
3.33100	149
3.33467	149
3.33833	149
3.34200	149
3.34567	146
3.34933	144
3.35300	142
3.35667	140
3.36033	138
3.36400	137
3.36767	138
3.37133	141
3.37500	142
3.37867	141
3.38233	140
3.38600	140
3.38967	138
3.39333	136
3.39700	138
3.40067	138
3.40433	138
3.40800	136
3.41167	137
3.41533	134
3.41900	131
3.42267	128
3.42633	127
3.43000	129
3.43367	130
3.43733	130
3.44100	127
3.44467	124
3.44833	125
3.45200	126
3.45567	127
3.45933	127
3.46300	127
3.46667	127
3.47033	127
3.47400	127
3.47767	130
3.48133	131
3.48500	130
3.48867	128
3.49233	128
3.49600	130
3.49967	130
3.50333	129
3.50700	124
3.51067	122
3.51433	121
3.51800	120
3.52167	121
3.52533	122
3.52900	121
3.53267	120
3.53633	119
3.54000	118
3.54367	117
3.54733	116
3.55100	114
3.55467	112
3.55833	111
3.56200	113
3.56567	115
3.56933	116
3.57300	118
3.57667	119
3.58033	118
3.58400	117
3.58767	117
3.59133	118
3.59500	119
3.59867	121
3.60233	120
3.60600	118
3.60967	116
3.61333	116
3.61700	117
3.62067	118
3.62433	116
3.62800	114
3.63167	115
3.63533	115
3.63900	117
3.64267	120
3.64633	120
3.65000	120
3.65367	120
3.65733	119
3.66100	117
3.66467	114
3.66833	112
3.67200	111
3.67567	112
3.67933	113
3.68300	113
3.68667	114
3.69033	115
3.69400	116
3.69767	116
3.70133	115
3.70500	114
3.70867	113
3.71233	115
3.71600	116
3.71967	115
3.72333	115
3.72700	116
3.73067	118
3.73433	118
3.73800	118
3.74167	120
3.74533	119
3.74900	118
3.75267	117
3.75633	116
3.76000	114
3.76367	113
3.76733	112
3.77100	111
3.77467	110
3.77833	110
3.78200	110
3.78567	109
3.78933	108
3.79300	105
3.79667	105
3.80033	108
3.80400	108
3.80767	109
3.81133	111
3.81500	112
3.81867	112
3.82233	110
3.82600	107
3.82967	101
3.83333	93
3.83700	81
3.84067	65
3.84433	49
3.84800	39
3.85167	32
3.85533	29
3.85900	30
3.86267	32
3.86633	38
3.87000	44
3.87367	49
3.87733	57
3.88100	68
3.88467	79
3.88833	88
3.89200	98
3.89567	110
3.89933	124
3.90300	138
3.90667	152
3.91033	167
3.91400	183
3.91767	200
3.92133	217
3.92500	232
3.92867	244
3.93233	256
3.93600	266
3.93967	273
3.94333	276
3.94700	280
3.95067	287
3.95433	291
3.95800	293
3.96167	298
3.96533	302
3.96900	303
3.97267	304
3.97633	306
3.98000	310
3.98367	314
3.98733	317
3.99100	319
3.99467	319
3.99833	319

[Status Trace (Column Oven Temperature)]
Interval(msec)	1000
# of Points	240
Start Time(min)	0.016
End Time(min)	4.000
Intensity Units	
Intensity Multiplier	1
R.Time (min)	Intensity
0.01628	35.06
0.03295	35.05
0.04962	35.05
0.06628	35.05
0.08295	35.03
0.09962	35.02
0.11628	35.03
0.13295	35.01
0.14962	35.00
0.16628	35.00
0.18295	35.00
0.19962	35.01
0.21628	35.01
0.23295	35.03
0.24962	35.02
0.26628	35.00
0.28295	34.99
0.29962	34.98
0.31628	34.98
0.33295	35.00
0.34962	35.00
0.36628	35.01
0.38295	35.02
0.39962	35.03
0.41628	35.04
0.43295	35.05
0.44962	35.06
0.46628	35.07
0.48295	35.07
0.49962	35.05
0.51628	35.05
0.53295	35.03
0.54962	35.02
0.56628	35.02
0.58295	35.03
0.59962	35.03
0.61628	35.01
0.63295	34.99
0.64962	34.98
0.66628	34.97
0.68295	34.97
0.69962	34.97
0.71628	34.97
0.73295	34.97
0.74962	34.97
0.76628	34.97
0.78295	34.97
0.79962	34.98
0.81628	34.98
0.83295	34.99
0.84962	35.00
0.86628	35.01
0.88295	35.02
0.89962	35.03
0.91628	35.03
0.93295	35.02
0.94962	35.01
0.96628	34.99
0.98295	34.99
0.99962	34.99
1.01628	35.00
1.03295	35.00
1.04962	35.00
1.06628	35.00
1.08295	34.99
1.09962	34.99
1.11628	34.99
1.13295	35.00
1.14962	35.00
1.16628	35.00
1.18295	34.99
1.19962	34.99
1.21628	35.00
1.23295	35.00
1.24962	34.99
1.26628	35.00
1.28295	35.00
1.29962	34.99
1.31628	34.99
1.33295	34.99
1.34962	34.99
1.36628	34.98
1.38295	34.98
1.39962	34.97
1.41628	34.97
1.43295	34.98
1.44962	34.99
1.46628	34.99
1.48295	35.00
1.49962	35.00
1.51628	35.02
1.53295	35.01
1.54962	35.01
1.56628	35.01
1.58295	35.01
1.59962	35.04
1.61628	35.10
1.63295	35.26
1.64962	35.46
1.66628	35.77
1.68295	36.14
1.69962	36.50
1.71628	36.83
1.73295	37.17
1.74962	37.52
1.76628	37.84
1.78295	38.18
1.79962	38.51
1.81628	38.84
1.83295	39.18
1.84962	39.50
1.86628	39.83
1.88295	40.15
1.89962	40.48
1.91628	40.83
1.93295	41.15
1.94962	41.48
1.96628	41.82
1.98295	42.14
1.99962	42.47
2.01628	42.77
2.03295	43.10
2.04962	43.43
2.06628	43.75
2.08295	44.08
2.09962	44.40
2.11628	44.73
2.13295	45.03
2.14962	45.37
2.16628	45.70
2.18295	46.03
2.19962	46.34
2.21628	46.67
2.23295	47.00
2.24962	47.33
2.26628	47.66
2.28295	47.99
2.29962	48.31
2.31628	48.70
2.33295	49.01
2.34962	49.31
2.36628	49.54
2.38295	49.65
2.39962	49.66
2.41628	49.66
2.43295	49.67
2.44962	49.67
2.46628	49.67
2.48295	49.69
2.49962	49.71
2.51628	49.72
2.53295	49.75
2.54962	49.75
2.56628	49.79
2.58295	49.80
2.59962	49.80
2.61628	49.82
2.63295	49.83
2.64962	49.84
2.66628	49.85
2.68295	49.85
2.69962	49.84
2.71628	49.85
2.73295	49.89
2.74962	49.89
2.76628	49.89
2.78295	49.87
2.79962	49.86
2.81628	49.86
2.83295	49.87
2.84962	49.87
2.86628	49.88
2.88295	49.91
2.89962	49.93
2.91628	49.95
2.93295	49.98
2.94962	49.99
2.96628	50.00
2.98295	50.00
2.99962	50.00
3.01628	49.99
3.03295	49.99
3.04962	50.00
3.06628	50.01
3.08295	50.03
3.09962	50.05
3.11628	50.07
3.13295	50.08
3.14962	50.09
3.16628	50.09
3.18295	50.08
3.19962	50.08
3.21628	50.09
3.23295	50.10
3.24962	50.11
3.26628	50.11
3.28295	50.11
3.29962	50.10
3.31628	50.09
3.33295	50.07
3.34962	50.05
3.36628	50.03
3.38295	50.01
3.39962	50.00
3.41628	49.99
3.43295	49.99
3.44962	49.99
3.46628	49.99
3.48295	50.00
3.49962	49.99
3.51628	49.97
3.53295	49.97
3.54962	49.98
3.56628	49.98
3.58295	49.98
3.59962	49.99
3.61628	50.01
3.63295	50.02
3.64962	50.02
3.66628	50.02
3.68295	50.02
3.69962	50.01
3.71628	50.02
3.73295	50.04
3.74962	50.04
3.76628	50.05
3.78295	50.06
3.79962	50.06
3.81628	50.05
3.83295	50.06
3.84962	50.05
3.86628	50.05
3.88295	50.05
3.89962	50.04
3.91628	50.04
3.93295	50.03
3.94962	50.03
3.96628	50.03
3.98295	50.04
3.99962	50.06

[Status Trace (Injection Unit Temperature)]
Interval(msec)	1000
# of Points	240
Start Time(min)	0.016
End Time(min)	4.000
Intensity Units	
Intensity Multiplier	1
R.Time (min)	Intensity
0.01628	99.97
0.03295	99.98
0.04962	99.98
0.06628	99.98
0.08295	99.98
0.09962	99.98
0.11628	99.98
0.13295	99.98
0.14962	99.98
0.16628	99.98
0.18295	99.98
0.19962	99.98
0.21628	99.98
0.23295	99.98
0.24962	99.98
0.26628	99.98
0.28295	99.98
0.29962	99.98
0.31628	99.98
0.33295	99.98
0.34962	99.98
0.36628	99.98
0.38295	99.98
0.39962	99.99
0.41628	99.98
0.43295	99.98
0.44962	99.98
0.46628	99.98
0.48295	99.99
0.49962	99.98
0.51628	99.98
0.53295	99.98
0.54962	99.98
0.56628	99.98
0.58295	99.99
0.59962	99.98
0.61628	99.99
0.63295	99.99
0.64962	99.98
0.66628	99.99
0.68295	99.99
0.69962	99.98
0.71628	99.98
0.73295	99.98
0.74962	99.98
0.76628	99.99
0.78295	99.98
0.79962	99.99
0.81628	99.98
0.83295	99.98
0.84962	99.98
0.86628	99.98
0.88295	99.98
0.89962	99.98
0.91628	99.99
0.93295	99.98
0.94962	99.98
0.96628	99.98
0.98295	99.98
0.99962	99.98
1.01628	99.98
1.03295	99.98
1.04962	99.98
1.06628	99.98
1.08295	99.98
1.09962	99.98
1.11628	99.98
1.13295	99.98
1.14962	99.98
1.16628	99.98
1.18295	99.98
1.19962	99.98
1.21628	99.98
1.23295	99.98
1.24962	99.97
1.26628	99.98
1.28295	99.98
1.29962	99.98
1.31628	99.99
1.33295	99.98
1.34962	99.98
1.36628	99.98
1.38295	99.99
1.39962	99.98
1.41628	99.98
1.43295	99.98
1.44962	99.98
1.46628	99.98
1.48295	99.99
1.49962	99.98
1.51628	99.98
1.53295	99.98
1.54962	99.98
1.56628	99.98
1.58295	99.98
1.59962	99.99
1.61628	99.98
1.63295	99.98
1.64962	99.98
1.66628	99.99
1.68295	99.98
1.69962	99.98
1.71628	99.98
1.73295	99.98
1.74962	99.98
1.76628	99.98
1.78295	99.98
1.79962	99.98
1.81628	99.98
1.83295	99.98
1.84962	99.97
1.86628	99.98
1.88295	99.97
1.89962	99.97
1.91628	99.97
1.93295	99.97
1.94962	99.98
1.96628	99.97
1.98295	99.97
1.99962	99.97
2.01628	99.97
2.03295	99.97
2.04962	99.96
2.06628	99.97
2.08295	99.97
2.09962	99.96
2.11628	99.96
2.13295	99.96
2.14962	99.96
2.16628	99.96
2.18295	99.96
2.19962	99.96
2.21628	99.96
2.23295	99.96
2.24962	99.96
2.26628	99.96
2.28295	99.96
2.29962	99.96
2.31628	99.96
2.33295	99.96
2.34962	99.96
2.36628	99.96
2.38295	99.96
2.39962	99.97
2.41628	99.96
2.43295	99.96
2.44962	99.96
2.46628	99.97
2.48295	99.97
2.49962	99.97
2.51628	99.97
2.53295	99.97
2.54962	99.97
2.56628	99.97
2.58295	99.98
2.59962	99.98
2.61628	99.98
2.63295	99.98
2.64962	99.98
2.66628	99.98
2.68295	99.99
2.69962	99.98
2.71628	99.99
2.73295	99.99
2.74962	99.99
2.76628	99.99
2.78295	99.99
2.79962	99.99
2.81628	99.99
2.83295	100.00
2.84962	100.00
2.86628	100.00
2.88295	100.00
2.89962	100.00
2.91628	100.00
2.93295	100.00
2.94962	100.00
2.96628	100.01
2.98295	100.01
2.99962	100.01
3.01628	100.01
3.03295	100.01
3.04962	100.01
3.06628	100.01
3.08295	100.01
3.09962	100.01
3.11628	100.02
3.13295	100.01
3.14962	100.02
3.16628	100.02
3.18295	100.02
3.19962	100.02
3.21628	100.02
3.23295	100.02
3.24962	100.02
3.26628	100.03
3.28295	100.03
3.29962	100.02
3.31628	100.03
3.33295	100.03
3.34962	100.03
3.36628	100.03
3.38295	100.03
3.39962	100.03
3.41628	100.03
3.43295	100.04
3.44962	100.04
3.46628	100.04
3.48295	100.03
3.49962	100.04
3.51628	100.04
3.53295	100.04
3.54962	100.05
3.56628	100.04
3.58295	100.04
3.59962	100.05
3.61628	100.05
3.63295	100.04
3.64962	100.04
3.66628	100.05
3.68295	100.05
3.69962	100.05
3.71628	100.05
3.73295	100.05
3.74962	100.05
3.76628	100.05
3.78295	100.05
3.79962	100.05
3.81628	100.05
3.83295	100.05
3.84962	100.05
3.86628	100.05
3.88295	100.05
3.89962	100.05
3.91628	100.05
3.93295	100.05
3.94962	100.05
3.96628	100.05
3.98295	100.05
3.99962	100.05

[Status Trace (Carrier Gas Pressure)]
Interval(msec)	1000
# of Points	240
Start Time(min)	0.016
End Time(min)	4.000
Intensity Units	
Intensity Multiplier	1
R.Time (min)	Intensity
0.01628	56.92
0.03295	55.90
0.04962	58.14
0.06628	59.90
0.08295	58.49
0.09962	57.97
0.11628	58.00
0.13295	58.01
0.14962	58.01
0.16628	58.00
0.18295	58.00
0.19962	58.00
0.21628	58.00
0.23295	58.00
0.24962	58.00
0.26628	58.00
0.28295	58.00
0.29962	58.00
0.31628	58.00
0.33295	58.00
0.34962	58.00
0.36628	58.00
0.38295	58.00
0.39962	58.00
0.41628	58.00
0.43295	58.00
0.44962	58.00
0.46628	58.00
0.48295	58.00
0.49962	58.00
0.51628	58.00
0.53295	58.00
0.54962	58.00
0.56628	58.00
0.58295	58.00
0.59962	58.00
0.61628	58.00
0.63295	58.00
0.64962	58.00
0.66628	58.00
0.68295	58.00
0.69962	58.00
0.71628	58.00
0.73295	58.00
0.74962	58.00
0.76628	58.00
0.78295	58.00
0.79962	58.00
0.81628	58.00
0.83295	58.00
0.84962	58.00
0.86628	58.00
0.88295	58.00
0.89962	58.00
0.91628	58.00
0.93295	58.00
0.94962	58.00
0.96628	58.00
0.98295	58.00
0.99962	58.00
1.01628	58.00
1.03295	58.00
1.04962	58.00
1.06628	58.00
1.08295	58.00
1.09962	58.00
1.11628	58.00
1.13295	58.00
1.14962	58.00
1.16628	58.00
1.18295	58.00
1.19962	58.00
1.21628	58.00
1.23295	58.00
1.24962	58.00
1.26628	58.00
1.28295	58.00
1.29962	58.00
1.31628	58.00
1.33295	58.00
1.34962	58.00
1.36628	58.00
1.38295	58.00
1.39962	58.00
1.41628	58.00
1.43295	58.00
1.44962	58.00
1.46628	58.00
1.48295	58.00
1.49962	58.00
1.51628	58.00
1.53295	58.00
1.54962	58.00
1.56628	58.00
1.58295	58.00
1.59962	58.00
1.61628	58.00
1.63295	58.00
1.64962	58.00
1.66628	58.01
1.68295	58.01
1.69962	58.00
1.71628	58.00
1.73295	58.00
1.74962	58.00
1.76628	58.00
1.78295	58.00
1.79962	58.00
1.81628	58.00
1.83295	58.00
1.84962	58.00
1.86628	58.00
1.88295	58.00
1.89962	58.00
1.91628	58.00
1.93295	58.00
1.94962	58.00
1.96628	58.00
1.98295	58.00
1.99962	58.00
2.01628	58.00
2.03295	58.00
2.04962	58.00
2.06628	58.00
2.08295	58.00
2.09962	58.00
2.11628	58.00
2.13295	58.00
2.14962	58.00
2.16628	58.00
2.18295	58.00
2.19962	58.00
2.21628	58.00
2.23295	58.00
2.24962	58.00
2.26628	58.00
2.28295	58.00
2.29962	58.00
2.31628	58.00
2.33295	58.00
2.34962	58.00
2.36628	58.00
2.38295	57.99
2.39962	57.99
2.41628	58.00
2.43295	58.00
2.44962	58.00
2.46628	58.00
2.48295	58.00
2.49962	58.00
2.51628	57.99
2.53295	57.99
2.54962	58.00
2.56628	58.00
2.58295	58.00
2.59962	58.00
2.61628	58.00
2.63295	58.00
2.64962	58.00
2.66628	58.00
2.68295	58.00
2.69962	58.00
2.71628	58.00
2.73295	58.00
2.74962	58.00
2.76628	58.00
2.78295	58.00
2.79962	58.00
2.81628	58.00
2.83295	58.00
2.84962	58.00
2.86628	58.00
2.88295	58.00
2.89962	58.00
2.91628	58.00
2.93295	58.00
2.94962	58.00
2.96628	58.00
2.98295	58.00
2.99962	58.00
3.01628	58.00
3.03295	58.00
3.04962	58.00
3.06628	58.00
3.08295	58.00
3.09962	58.00
3.11628	58.00
3.13295	58.00
3.14962	58.00
3.16628	58.00
3.18295	58.00
3.19962	58.00
3.21628	58.00
3.23295	58.00
3.24962	58.00
3.26628	58.00
3.28295	58.00
3.29962	58.00
3.31628	58.00
3.33295	58.00
3.34962	58.00
3.36628	58.00
3.38295	58.00
3.39962	58.00
3.41628	58.00
3.43295	58.00
3.44962	58.00
3.46628	58.00
3.48295	58.00
3.49962	58.00
3.51628	58.00
3.53295	58.00
3.54962	58.00
3.56628	58.00
3.58295	58.00
3.59962	58.00
3.61628	58.00
3.63295	58.00
3.64962	58.00
3.66628	58.00
3.68295	58.00
3.69962	58.00
3.71628	58.00
3.73295	58.00
3.74962	58.00
3.76628	58.00
3.78295	58.00
3.79962	58.00
3.81628	58.00
3.83295	58.00
3.84962	58.00
3.86628	58.00
3.88295	58.00
3.89962	58.00
3.91628	58.00
3.93295	58.00
3.94962	58.00
3.96628	58.00
3.98295	58.00
3.99962	58.00

[Status Trace (Carrier Gas Flow)]
Interval(msec)	1000
# of Points	240
Start Time(min)	0.016
End Time(min)	4.000
Intensity Units	
Intensity Multiplier	1
R.Time (min)	Intensity
0.01628	33.82
0.03295	34.54
0.04962	34.55
0.06628	34.50
0.08295	34.51
0.09962	34.52
0.11628	34.52
0.13295	34.52
0.14962	34.52
0.16628	34.53
0.18295	34.51
0.19962	34.52
0.21628	34.52
0.23295	34.52
0.24962	34.52
0.26628	34.52
0.28295	34.52
0.29962	34.52
0.31628	34.52
0.33295	34.52
0.34962	34.52
0.36628	34.52
0.38295	34.51
0.39962	34.52
0.41628	34.52
0.43295	34.51
0.44962	34.52
0.46628	34.52
0.48295	34.52
0.49962	34.51
0.51628	34.52
0.53295	34.51
0.54962	34.52
0.56628	34.51
0.58295	34.52
0.59962	34.53
0.61628	34.52
0.63295	34.53
0.64962	34.53
0.66628	34.52
0.68295	34.52
0.69962	34.52
0.71628	34.52
0.73295	34.52
0.74962	34.52
0.76628	34.52
0.78295	34.51
0.79962	34.52
0.81628	34.52
0.83295	34.51
0.84962	34.52
0.86628	34.52
0.88295	34.52
0.89962	34.52
0.91628	34.52
0.93295	34.52
0.94962	34.53
0.96628	34.52
0.98295	34.52
0.99962	34.52
1.01628	34.51
1.03295	34.52
1.04962	34.52
1.06628	34.52
1.08295	34.51
1.09962	34.52
1.11628	34.53
1.13295	34.52
1.14962	34.51
1.16628	34.51
1.18295	34.52
1.19962	34.53
1.21628	34.52
1.23295	34.51
1.24962	34.51
1.26628	34.52
1.28295	34.52
1.29962	34.52
1.31628	34.52
1.33295	34.52
1.34962	34.52
1.36628	34.52
1.38295	34.52
1.39962	34.52
1.41628	34.51
1.43295	34.52
1.44962	34.52
1.46628	34.52
1.48295	34.52
1.49962	34.52
1.51628	34.51
1.53295	34.52
1.54962	34.52
1.56628	34.52
1.58295	34.52
1.59962	34.52
1.61628	34.52
1.63295	34.52
1.64962	34.52
1.66628	34.51
1.68295	34.52
1.69962	34.52
1.71628	34.52
1.73295	34.51
1.74962	34.52
1.76628	34.52
1.78295	34.52
1.79962	34.52
1.81628	34.52
1.83295	34.51
1.84962	34.52
1.86628	34.52
1.88295	34.52
1.89962	34.51
1.91628	34.52
1.93295	34.52
1.94962	34.52
1.96628	34.51
1.98295	34.52
1.99962	34.52
2.01628	34.52
2.03295	34.52
2.04962	34.52
2.06628	34.52
2.08295	34.52
2.09962	34.52
2.11628	34.51
2.13295	34.52
2.14962	34.52
2.16628	34.52
2.18295	34.52
2.19962	34.52
2.21628	34.52
2.23295	34.52
2.24962	34.52
2.26628	34.51
2.28295	34.52
2.29962	34.52
2.31628	34.52
2.33295	34.52
2.34962	34.52
2.36628	34.52
2.38295	34.52
2.39962	34.52
2.41628	34.51
2.43295	34.52
2.44962	34.52
2.46628	34.51
2.48295	34.52
2.49962	34.52
2.51628	34.51
2.53295	34.52
2.54962	34.52
2.56628	34.52
2.58295	34.52
2.59962	34.52
2.61628	34.52
2.63295	34.52
2.64962	34.52
2.66628	34.52
2.68295	34.52
2.69962	34.52
2.71628	34.52
2.73295	34.52
2.74962	34.52
2.76628	34.52
2.78295	34.52
2.79962	34.52
2.81628	34.52
2.83295	34.51
2.84962	34.52
2.86628	34.51
2.88295	34.52
2.89962	34.52
2.91628	34.52
2.93295	34.51
2.94962	34.52
2.96628	34.52
2.98295	34.52
2.99962	34.52
3.01628	34.51
3.03295	34.52
3.04962	34.52
3.06628	34.52
3.08295	34.52
3.09962	34.52
3.11628	34.52
3.13295	34.52
3.14962	34.52
3.16628	34.52
3.18295	34.53
3.19962	34.52
3.21628	34.51
3.23295	34.52
3.24962	34.52
3.26628	34.52
3.28295	34.51
3.29962	34.52
3.31628	34.52
3.33295	34.52
3.34962	34.52
3.36628	34.52
3.38295	34.52
3.39962	34.52
3.41628	34.52
3.43295	34.51
3.44962	34.51
3.46628	34.52
3.48295	34.52
3.49962	34.52
3.51628	34.52
3.53295	34.52
3.54962	34.52
3.56628	34.52
3.58295	34.52
3.59962	34.53
3.61628	34.52
3.63295	34.53
3.64962	34.52
3.66628	34.52
3.68295	34.52
3.69962	34.52
3.71628	34.52
3.73295	34.51
3.74962	34.51
3.76628	34.51
3.78295	34.52
3.79962	34.52
3.81628	34.51
3.83295	34.52
3.84962	34.52
3.86628	34.52
3.88295	34.51
3.89962	34.52
3.91628	34.52
3.93295	34.52
3.94962	34.52
3.96628	34.52
3.98295	34.52
3.99962	34.52

[Status Trace (Column Flow)]
Interval(msec)	1000
# of Points	240
Start Time(min)	0.016
End Time(min)	4.000
Intensity Units	
Intensity Multiplier	1
R.Time (min)	Intensity
0.01628	5.45
0.03295	5.33
0.04962	5.59
0.06628	5.80
0.08295	5.63
0.09962	5.57
0.11628	5.57
0.13295	5.57
0.14962	5.57
0.16628	5.57
0.18295	5.57
0.19962	5.57
0.21628	5.57
0.23295	5.57
0.24962	5.57
0.26628	5.57
0.28295	5.57
0.29962	5.57
0.31628	5.57
0.33295	5.57
0.34962	5.57
0.36628	5.57
0.38295	5.57
0.39962	5.57
0.41628	5.57
0.43295	5.57
0.44962	5.57
0.46628	5.57
0.48295	5.57
0.49962	5.57
0.51628	5.57
0.53295	5.57
0.54962	5.57
0.56628	5.57
0.58295	5.57
0.59962	5.57
0.61628	5.57
0.63295	5.57
0.64962	5.57
0.66628	5.57
0.68295	5.58
0.69962	5.57
0.71628	5.57
0.73295	5.57
0.74962	5.57
0.76628	5.58
0.78295	5.57
0.79962	5.57
0.81628	5.57
0.83295	5.57
0.84962	5.57
0.86628	5.57
0.88295	5.57
0.89962	5.57
0.91628	5.57
0.93295	5.57
0.94962	5.57
0.96628	5.57
0.98295	5.57
0.99962	5.57
1.01628	5.57
1.03295	5.57
1.04962	5.57
1.06628	5.57
1.08295	5.57
1.09962	5.57
1.11628	5.57
1.13295	5.57
1.14962	5.57
1.16628	5.57
1.18295	5.57
1.19962	5.57
1.21628	5.57
1.23295	5.57
1.24962	5.57
1.26628	5.57
1.28295	5.57
1.29962	5.57
1.31628	5.57
1.33295	5.57
1.34962	5.57
1.36628	5.57
1.38295	5.57
1.39962	5.57
1.41628	5.57
1.43295	5.57
1.44962	5.57
1.46628	5.57
1.48295	5.57
1.49962	5.57
1.51628	5.57
1.53295	5.57
1.54962	5.57
1.56628	5.57
1.58295	5.57
1.59962	5.57
1.61628	5.57
1.63295	5.57
1.64962	5.56
1.66628	5.55
1.68295	5.54
1.69962	5.53
1.71628	5.52
1.73295	5.51
1.74962	5.49
1.76628	5.49
1.78295	5.47
1.79962	5.46
1.81628	5.46
1.83295	5.44
1.84962	5.43
1.86628	5.42
1.88295	5.41
1.89962	5.40
1.91628	5.39
1.93295	5.38
1.94962	5.37
1.96628	5.36
1.98295	5.35
1.99962	5.34
2.01628	5.34
2.03295	5.33
2.04962	5.32
2.06628	5.31
2.08295	5.30
2.09962	5.29
2.11628	5.28
2.13295	5.27
2.14962	5.26
2.16628	5.25
2.18295	5.24
2.19962	5.23
2.21628	5.22
2.23295	5.21
2.24962	5.20
2.26628	5.19
2.28295	5.18
2.29962	5.17
2.31628	5.16
2.33295	5.15
2.34962	5.15
2.36628	5.14
2.38295	5.14
2.39962	5.14
2.41628	5.14
2.43295	5.14
2.44962	5.14
2.46628	5.14
2.48295	5.14
2.49962	5.13
2.51628	5.13
2.53295	5.13
2.54962	5.13
2.56628	5.13
2.58295	5.13
2.59962	5.13
2.61628	5.13
2.63295	5.13
2.64962	5.13
2.66628	5.13
2.68295	5.13
2.69962	5.13
2.71628	5.13
2.73295	5.13
2.74962	5.13
2.76628	5.13
2.78295	5.13
2.79962	5.13
2.81628	5.13
2.83295	5.13
2.84962	5.13
2.86628	5.13
2.88295	5.13
2.89962	5.13
2.91628	5.13
2.93295	5.13
2.94962	5.13
2.96628	5.13
2.98295	5.13
2.99962	5.13
3.01628	5.13
3.03295	5.13
3.04962	5.13
3.06628	5.13
3.08295	5.13
3.09962	5.13
3.11628	5.13
3.13295	5.12
3.14962	5.12
3.16628	5.12
3.18295	5.12
3.19962	5.12
3.21628	5.12
3.23295	5.12
3.24962	5.12
3.26628	5.12
3.28295	5.12
3.29962	5.12
3.31628	5.12
3.33295	5.13
3.34962	5.13
3.36628	5.13
3.38295	5.13
3.39962	5.13
3.41628	5.13
3.43295	5.13
3.44962	5.13
3.46628	5.13
3.48295	5.13
3.49962	5.13
3.51628	5.13
3.53295	5.13
3.54962	5.13
3.56628	5.13
3.58295	5.13
3.59962	5.13
3.61628	5.13
3.63295	5.13
3.64962	5.13
3.66628	5.13
3.68295	5.13
3.69962	5.13
3.71628	5.13
3.73295	5.13
3.74962	5.13
3.76628	5.13
3.78295	5.13
3.79962	5.13
3.81628	5.13
3.83295	5.13
3.84962	5.13
3.86628	5.13
3.88295	5.13
3.89962	5.13
3.91628	5.13
3.93295	5.13
3.94962	5.13
3.96628	5.13
3.98295	5.13
3.99962	5.13

[Status Trace (Linear Velocity)]
Interval(msec)	1000
# of Points	240
Start Time(min)	0.016
End Time(min)	4.000
Intensity Units	
Intensity Multiplier	1
R.Time (min)	Intensity
0.01628	38.32
0.03295	37.64
0.04962	39.11
0.06628	40.27
0.08295	39.35
0.09962	39.01
0.11628	39.03
0.13295	39.03
0.14962	39.03
0.16628	39.03
0.18295	39.03
0.19962	39.03
0.21628	39.03
0.23295	39.03
0.24962	39.03
0.26628	39.03
0.28295	39.03
0.29962	39.03
0.31628	39.03
0.33295	39.03
0.34962	39.03
0.36628	39.03
0.38295	39.03
0.39962	39.03
0.41628	39.02
0.43295	39.02
0.44962	39.02
0.46628	39.02
0.48295	39.02
0.49962	39.02
0.51628	39.02
0.53295	39.03
0.54962	39.03
0.56628	39.03
0.58295	39.03
0.59962	39.03
0.61628	39.03
0.63295	39.03
0.64962	39.03
0.66628	39.03
0.68295	39.03
0.69962	39.03
0.71628	39.03
0.73295	39.03
0.74962	39.03
0.76628	39.03
0.78295	39.03
0.79962	39.03
0.81628	39.03
0.83295	39.03
0.84962	39.03
0.86628	39.03
0.88295	39.03
0.89962	39.03
0.91628	39.03
0.93295	39.03
0.94962	39.03
0.96628	39.03
0.98295	39.03
0.99962	39.03
1.01628	39.03
1.03295	39.03
1.04962	39.03
1.06628	39.03
1.08295	39.03
1.09962	39.03
1.11628	39.03
1.13295	39.03
1.14962	39.03
1.16628	39.03
1.18295	39.03
1.19962	39.03
1.21628	39.03
1.23295	39.03
1.24962	39.03
1.26628	39.03
1.28295	39.03
1.29962	39.03
1.31628	39.03
1.33295	39.03
1.34962	39.03
1.36628	39.03
1.38295	39.03
1.39962	39.03
1.41628	39.03
1.43295	39.03
1.44962	39.03
1.46628	39.03
1.48295	39.03
1.49962	39.03
1.51628	39.03
1.53295	39.03
1.54962	39.03
1.56628	39.03
1.58295	39.03
1.59962	39.03
1.61628	39.02
1.63295	39.01
1.64962	38.99
1.66628	38.96
1.68295	38.92
1.69962	38.89
1.71628	38.86
1.73295	38.82
1.74962	38.79
1.76628	38.76
1.78295	38.73
1.79962	38.69
1.81628	38.67
1.83295	38.63
1.84962	38.60
1.86628	38.57
1.88295	38.54
1.89962	38.51
1.91628	38.48
1.93295	38.45
1.94962	38.42
1.96628	38.39
1.98295	38.35
1.99962	38.32
2.01628	38.30
2.03295	38.27
2.04962	38.24
2.06628	38.21
2.08295	38.18
2.09962	38.15
2.11628	38.12
2.13295	38.09
2.14962	38.06
2.16628	38.03
2.18295	38.00
2.19962	37.97
2.21628	37.94
2.23295	37.92
2.24962	37.88
2.26628	37.86
2.28295	37.82
2.29962	37.79
2.31628	37.76
2.33295	37.73
2.34962	37.70
2.36628	37.69
2.38295	37.67
2.39962	37.67
2.41628	37.67
2.43295	37.67
2.44962	37.67
2.46628	37.67
2.48295	37.67
2.49962	37.67
2.51628	37.66
2.53295	37.66
2.54962	37.67
2.56628	37.66
2.58295	37.66
2.59962	37.66
2.61628	37.66
2.63295	37.66
2.64962	37.66
2.66628	37.66
2.68295	37.66
2.69962	37.66
2.71628	37.66
2.73295	37.66
2.74962	37.65
2.76628	37.65
2.78295	37.66
2.79962	37.66
2.81628	37.66
2.83295	37.66
2.84962	37.66
2.86628	37.65
2.88295	37.65
2.89962	37.65
2.91628	37.65
2.93295	37.65
2.94962	37.65
2.96628	37.64
2.98295	37.64
2.99962	37.64
3.01628	37.65
3.03295	37.64
3.04962	37.64
3.06628	37.64
3.08295	37.64
3.09962	37.64
3.11628	37.64
3.13295	37.64
3.14962	37.64
3.16628	37.64
3.18295	37.64
3.19962	37.64
3.21628	37.64
3.23295	37.64
3.24962	37.64
3.26628	37.63
3.28295	37.64
3.29962	37.64
3.31628	37.64
3.33295	37.64
3.34962	37.64
3.36628	37.64
3.38295	37.64
3.39962	37.64
3.41628	37.65
3.43295	37.65
3.44962	37.65
3.46628	37.65
3.48295	37.65
3.49962	37.64
3.51628	37.65
3.53295	37.65
3.54962	37.65
3.56628	37.65
3.58295	37.65
3.59962	37.65
3.61628	37.64
3.63295	37.64
3.64962	37.64
3.66628	37.64
3.68295	37.64
3.69962	37.64
3.71628	37.64
3.73295	37.64
3.74962	37.64
3.76628	37.64
3.78295	37.64
3.79962	37.64
3.81628	37.64
3.83295	37.64
3.84962	37.64
3.86628	37.64
3.88295	37.64
3.89962	37.64
3.91628	37.64
3.93295	37.64
3.94962	37.64
3.96628	37.64
3.98295	37.64
3.99962	37.64

