[Header]
Application Name	LabSolutions
Version	5.110
Data File Name	C:\Users\User\Desktop\GC Analyses\Jack\Nachusa Grasslands Sampling\T1 Timepoint July 12th\T1_07122022_073.gcd
Output Date	3/14/2023
Output Time	3:41:01 PM

[File Information]
Type	Data File
Generated	3/8/2023 9:22:47 PM
Generated by	System Administrator
Modified	3/8/2023 9:29:28 PM
Modified by	System Administrator

[Sample Information]
Operator Name	System Administrator
Acquired	3/8/2023 9:25:26 PM
Sample Type	0:Unknown
Level	0
Sample Name	073
Sample ID	073
ISTD Amount1	1
ISTD Amount2	1
ISTD Amount3	1
ISTD Amount4	1
ISTD Amount5	1
ISTD Amount6	1
ISTD Amount7	1
ISTD Amount8	1
ISTD Amount9	1
ISTD Amount10	1
ISTD Amount11	1
ISTD Amount12	1
ISTD Amount13	1
ISTD Amount14	1
ISTD Amount15	1
ISTD Amount16	1
ISTD Amount17	1
ISTD Amount18	1
ISTD Amount19	1
ISTD Amount20	1
ISTD Amount21	1
ISTD Amount22	1
ISTD Amount23	1
ISTD Amount24	1
ISTD Amount25	1
ISTD Amount26	1
ISTD Amount27	1
ISTD Amount28	1
ISTD Amount29	1
ISTD Amount30	1
ISTD Amount31	1
ISTD Amount32	1
Sample Amount	1
Dilution Factor	1
Vial#	72
Injection Volume	1
Injection Count	1
Bar Code	

[Original Files]
Data File	C:\Users\User\Desktop\GC Analyses\Jack\Nachusa Grasslands Sampling\T1 Timepoint July 12th\T1_07122022_073.gcd
Method File	C:\LabSolutions\Data\GHG_4min_2022\ghg3_togas_w_acet_4 min_new_int.gcm
Batch File	C:\LabSolutions\Data\AutoSamplerTesting\T1_07122022.gcb
Report Format File	c:\LabSolutions\System\DEFAULT.lsr

[File Description]


[Configuration]
Instrument Name	C0B7VH3-Instrument1
Instrument #	1
Line #	1
# of Detectors	3
Detector ID	DET#1	DET#2	DET#3
Detector Name	FID	PTCD	ECD
# of Channels	1	1	1

[Peak Table(Ch1)]
# of Peaks	3
Peak#	R.Time	I.Time	F.Time	Area	Height	A/H	Conc.	Mark	ID#	Name	k'	Plate #	Plate Ht.	Tailing	Resolution	Sep.Factor	Area Ratio	Height Ratio	Conc. %	Norm Conc.
1	1.476	1.439	1.538	30303	14373	2.108	213.944	   	1	CO	0.000	9162	16.372	1.326	0.000	0.000	0	0	23.231	23.231
2	1.567	1.538	1.637	4828	2322	2.079	93.345	 V 	2	CH4	0.062	10375	14.458	0.000	1.488	0.000	0	0	10.136	10.136
3	1.996	1.949	2.605	2445162	1156789	2.114	613.669	   	3	CO2	0.353	17155	8.744	1.290	7.003	5.680	0	0	66.634	66.634

[Peak Table(Ch2)]
# of Peaks	0

[Peak Table(Ch3)]
# of Peaks	5
Peak#	R.Time	I.Time	F.Time	Area	Height	A/H	Conc.	Mark	ID#	Name	k'	Plate #	Plate Ht.	Tailing	Resolution	Sep.Factor	Area Ratio	Height Ratio	Conc. %	Norm Conc.
1	2.462	1.971	2.517	3525	583	6.051	0.000	   			0.000	7692	19.500	0.000	0.000	0.000	0	0	0.000	0.000
2	2.539	2.517	2.631	1302	315	4.139	0.000	 V 			0.031	3679	40.777	0.000	0.551	0.000	0	0	0.000	0.000
3	2.675	2.642	2.788	193	57	3.390	0.000	   			0.086	11845	12.663	1.717	1.021	2.762	0	0	0.000	0.000
4	2.873	2.807	3.104	19050	4923	3.870	0.487	   	1	N2O	0.167	13323	11.259	1.733	2.002	1.931	0	0	100.000	100.000
5	3.320	3.111	3.995	15381	501	30.723	0.000	   	2	SF6	0.348	368	407.902	2.094	1.130	2.089	0	0	0.000	0.000

[Compound Results(Ch1)]
# of IDs	6
ID#	Name	R.Time	Area	Height	Conc.	Curve	3rd	2nd	1st	Constant	Area Ratio	Height Ratio	Conc. %	Norm Conc.
1	CO	1.476	30303	14373	213.944	Linear	0.000000e+00	0.000000e+00	1.416423e+002	0.000000e+00	0	0	23.231	23.231
2	CH4	1.567	4828	2322	93.345	Linear	0.000000e+00	0.000000e+00	5.171738e+001	0.000000e+00	0	0	10.136	10.136
3	CO2	1.996	2445162	1156789	613.669	Linear	0.000000e+00	0.000000e+00	3.984494e+003	0.000000e+00	0	0	66.634	66.634
4	Ethylene	0.000	0	0	0.000	Linear	0.000000e+00	0.000000e+00	0.000000e+00	0.000000e+00	0	0	0.000	0.000
5	Acetylene	0.000	0	0	0.000	Linear	0.000000e+00	0.000000e+00	0.000000e+00	0.000000e+00	0	0	0.000	0.000
6	Ethane	0.000	0	0	0.000	Linear	0.000000e+00	0.000000e+00	0.000000e+00	0.000000e+00	0	0	0.000	0.000

[Compound Results(Ch2)]
# of IDs	5
ID#	Name	R.Time	Area	Height	Conc.	Curve	3rd	2nd	1st	Constant	Area Ratio	Height Ratio	Conc. %	Norm Conc.
1	Hydrogen	0.000	0	0	0.000	Linear	0.000000e+00	0.000000e+00	0.000000e+00	0.000000e+00	0	0	0.000	0.000
2	Oxygen	0.000	0	0	0.000	Linear	0.000000e+00	0.000000e+00	0.000000e+00	0.000000e+00	0	0	0.000	0.000
3	Nitrogen	0.000	0	0	0.000	Linear	0.000000e+00	0.000000e+00	0.000000e+00	0.000000e+00	0	0	0.000	0.000
4	Methane	0.000	0	0	0.000	Linear	0.000000e+00	0.000000e+00	0.000000e+00	0.000000e+00	0	0	0.000	0.000
5	Carbon Monoxide	0.000	0	0	0.000	Linear	0.000000e+00	0.000000e+00	0.000000e+00	0.000000e+00	0	0	0.000	0.000

[Compound Results(Ch3)]
# of IDs	2
ID#	Name	R.Time	Area	Height	Conc.	Curve	3rd	2nd	1st	Constant	Area Ratio	Height Ratio	Conc. %	Norm Conc.
1	N2O	2.873	19050	4923	0.487	Linear	0.000000e+00	0.000000e+00	3.915173e+004	0.000000e+00	0	0	100.000	100.000
2	SF6	3.320	15381	501	0.000	Linear	0.000000e+00	0.000000e+00	0.000000e+00	0.000000e+00	0	0	0.000	0.000

[Group Results(Ch1)]
# of Groups	0

[Group Results(Ch2)]
# of Groups	0

[Group Results(Ch3)]
# of Groups	0

[Chromatogram (Ch1)]
Interval(msec)	220
# of Points	1091
Start Time(min)	0.002
End Time(min)	3.998
R.Time (min)	Intensity
0.00167	9
0.00533	5
0.00900	3
0.01267	4
0.01633	9
0.02000	17
0.02367	22
0.02733	22
0.03100	21
0.03467	22
0.03833	20
0.04200	18
0.04567	18
0.04933	23
0.05300	30
0.05667	35
0.06033	37
0.06400	33
0.06767	27
0.07133	19
0.07500	13
0.07867	9
0.08233	3
0.08600	-3
0.08967	-5
0.09333	-1
0.09700	8
0.10067	19
0.10433	28
0.10800	34
0.11167	36
0.11533	33
0.11900	28
0.12267	23
0.12633	20
0.13000	20
0.13367	20
0.13733	25
0.14100	30
0.14467	30
0.14833	25
0.15200	17
0.15567	11
0.15933	8
0.16300	12
0.16667	21
0.17033	29
0.17400	35
0.17767	37
0.18133	43
0.18500	47
0.18867	47
0.19233	45
0.19600	45
0.19967	50
0.20333	52
0.20700	49
0.21067	44
0.21433	41
0.21800	40
0.22167	45
0.22533	57
0.22900	73
0.23267	84
0.23633	86
0.24000	81
0.24367	75
0.24733	71
0.25100	73
0.25467	81
0.25833	88
0.26200	96
0.26567	100
0.26933	100
0.27300	97
0.27667	95
0.28033	96
0.28400	104
0.28767	112
0.29133	119
0.29500	122
0.29867	122
0.30233	120
0.30600	118
0.30967	119
0.31333	115
0.31700	107
0.32067	98
0.32433	89
0.32800	83
0.33167	81
0.33533	82
0.33900	85
0.34267	89
0.34633	91
0.35000	86
0.35367	81
0.35733	77
0.36100	72
0.36467	64
0.36833	54
0.37200	43
0.37567	41
0.37933	43
0.38300	47
0.38667	51
0.39033	53
0.39400	55
0.39767	54
0.40133	48
0.40500	44
0.40867	41
0.41233	37
0.41600	35
0.41967	35
0.42333	39
0.42700	45
0.43067	50
0.43433	52
0.43800	51
0.44167	50
0.44533	53
0.44900	58
0.45267	60
0.45633	58
0.46000	53
0.46367	49
0.46733	47
0.47100	47
0.47467	52
0.47833	56
0.48200	59
0.48567	58
0.48933	54
0.49300	49
0.49667	43
0.50033	40
0.50400	47
0.50767	55
0.51133	53
0.51500	46
0.51867	40
0.52233	37
0.52600	34
0.52967	32
0.53333	28
0.53700	25
0.54067	26
0.54433	29
0.54800	33
0.55167	37
0.55533	37
0.55900	35
0.56267	35
0.56633	34
0.57000	36
0.57367	40
0.57733	44
0.58100	46
0.58467	48
0.58833	47
0.59200	44
0.59567	39
0.59933	37
0.60300	37
0.60667	37
0.61033	36
0.61400	35
0.61767	36
0.62133	40
0.62500	43
0.62867	45
0.63233	48
0.63600	51
0.63967	54
0.64333	54
0.64700	51
0.65067	49
0.65433	51
0.65800	54
0.66167	55
0.66533	52
0.66900	48
0.67267	44
0.67633	38
0.68000	33
0.68367	28
0.68733	26
0.69100	28
0.69467	30
0.69833	33
0.70200	40
0.70567	45
0.70933	52
0.71300	55
0.71667	53
0.72033	47
0.72400	42
0.72767	38
0.73133	37
0.73500	40
0.73867	42
0.74233	39
0.74600	35
0.74967	34
0.75333	37
0.75700	41
0.76067	45
0.76433	48
0.76800	47
0.77167	45
0.77533	41
0.77900	39
0.78267	40
0.78633	39
0.79000	36
0.79367	30
0.79733	26
0.80100	28
0.80467	36
0.80833	42
0.81200	43
0.81567	47
0.81933	50
0.82300	51
0.82667	50
0.83033	49
0.83400	48
0.83767	50
0.84133	54
0.84500	57
0.84867	55
0.85233	49
0.85600	40
0.85967	36
0.86333	36
0.86700	36
0.87067	43
0.87433	48
0.87800	49
0.88167	49
0.88533	46
0.88900	39
0.89267	29
0.89633	24
0.90000	24
0.90367	32
0.90733	45
0.91100	53
0.91467	55
0.91833	53
0.92200	50
0.92567	49
0.92933	49
0.93300	48
0.93667	44
0.94033	41
0.94400	38
0.94767	40
0.95133	44
0.95500	50
0.95867	54
0.96233	54
0.96600	46
0.96967	38
0.97333	32
0.97700	34
0.98067	35
0.98433	35
0.98800	35
0.99167	38
0.99533	45
0.99900	51
1.00267	52
1.00633	49
1.01000	42
1.01367	37
1.01733	36
1.02100	38
1.02467	39
1.02833	39
1.03200	37
1.03567	32
1.03933	28
1.04300	26
1.04667	25
1.05033	25
1.05400	24
1.05767	23
1.06133	24
1.06500	31
1.06867	40
1.07233	46
1.07600	48
1.07967	44
1.08333	40
1.08700	38
1.09067	37
1.09433	36
1.09800	33
1.10167	29
1.10533	23
1.10900	21
1.11267	25
1.11633	30
1.12000	35
1.12367	39
1.12733	37
1.13100	35
1.13467	37
1.13833	41
1.14200	44
1.14567	44
1.14933	49
1.15300	55
1.15667	56
1.16033	52
1.16400	42
1.16767	32
1.17133	27
1.17500	25
1.17867	24
1.18233	25
1.18600	27
1.18967	30
1.19333	31
1.19700	31
1.20067	31
1.20433	32
1.20800	37
1.21167	43
1.21533	53
1.21900	64
1.22267	69
1.22633	63
1.23000	51
1.23367	40
1.23733	31
1.24100	23
1.24467	20
1.24833	23
1.25200	27
1.25567	30
1.25933	31
1.26300	29
1.26667	28
1.27033	27
1.27400	24
1.27767	19
1.28133	13
1.28500	11
1.28867	13
1.29233	16
1.29600	20
1.29967	28
1.30333	31
1.30700	30
1.31067	29
1.31433	28
1.31800	27
1.32167	28
1.32533	30
1.32900	27
1.33267	23
1.33633	18
1.34000	15
1.34367	14
1.34733	16
1.35100	21
1.35467	28
1.35833	30
1.36200	27
1.36567	24
1.36933	19
1.37300	14
1.37667	11
1.38033	10
1.38400	12
1.38767	16
1.39133	23
1.39500	30
1.39867	33
1.40233	34
1.40600	37
1.40967	41
1.41333	41
1.41700	40
1.42067	37
1.42433	29
1.42800	23
1.43167	17
1.43533	17
1.43900	35
1.44267	119
1.44633	350
1.45000	932
1.45367	2294
1.45733	4581
1.46100	7355
1.46467	10021
1.46833	12201
1.47200	13712
1.47567	14417
1.47933	14193
1.48300	13039
1.48667	11179
1.49033	9007
1.49400	6906
1.49767	5115
1.50133	3713
1.50500	2672
1.50867	1924
1.51233	1398
1.51600	1035
1.51967	784
1.52333	611
1.52700	491
1.53067	411
1.53433	357
1.53800	328
1.54167	360
1.54533	515
1.54900	823
1.55267	1235
1.55633	1654
1.56000	2007
1.56367	2259
1.56733	2386
1.57100	2365
1.57467	2179
1.57833	1860
1.58200	1485
1.58567	1125
1.58933	827
1.59300	598
1.59667	433
1.60033	319
1.60400	239
1.60767	182
1.61133	145
1.61500	125
1.61867	113
1.62233	101
1.62600	93
1.62967	90
1.63333	86
1.63700	80
1.64067	77
1.64433	74
1.64800	69
1.65167	61
1.65533	55
1.65900	50
1.66267	46
1.66633	44
1.67000	42
1.67367	44
1.67733	45
1.68100	45
1.68467	44
1.68833	44
1.69200	43
1.69567	44
1.69933	46
1.70300	45
1.70667	45
1.71033	42
1.71400	40
1.71767	41
1.72133	41
1.72500	40
1.72867	39
1.73233	40
1.73600	41
1.73967	40
1.74333	39
1.74700	39
1.75067	39
1.75433	41
1.75800	44
1.76167	46
1.76533	50
1.76900	51
1.77267	50
1.77633	50
1.78000	52
1.78367	54
1.78733	52
1.79100	50
1.79467	51
1.79833	50
1.80200	49
1.80567	51
1.80933	56
1.81300	60
1.81667	59
1.82033	51
1.82400	42
1.82767	35
1.83133	31
1.83500	29
1.83867	31
1.84233	33
1.84600	33
1.84967	32
1.85333	35
1.85700	36
1.86067	37
1.86433	37
1.86800	37
1.87167	41
1.87533	46
1.87900	50
1.88267	52
1.88633	54
1.89000	56
1.89367	58
1.89733	59
1.90100	57
1.90467	52
1.90833	43
1.91200	36
1.91567	35
1.91933	36
1.92300	36
1.92667	33
1.93033	32
1.93400	33
1.93767	35
1.94133	35
1.94500	35
1.94867	43
1.95233	78
1.95600	285
1.95967	1473
1.96333	6911
1.96700	25886
1.97067	76551
1.97433	180694
1.97800	347221
1.98167	559194
1.98533	779936
1.98900	970843
1.99267	1102273
1.99633	1156868
2.00000	1130264
2.00367	1031582
2.00733	882847
2.01100	712570
2.01467	546905
2.01833	403299
2.02200	288984
2.02567	203475
2.02933	142257
2.03300	99704
2.03667	70660
2.04033	51020
2.04400	37756
2.04767	28751
2.05133	22569
2.05500	18259
2.05867	15196
2.06233	12958
2.06600	11275
2.06967	9977
2.07333	8952
2.07700	8121
2.08067	7437
2.08433	6863
2.08800	6371
2.09167	5945
2.09533	5569
2.09900	5234
2.10267	4934
2.10633	4670
2.11000	4433
2.11367	4218
2.11733	4025
2.12100	3849
2.12467	3683
2.12833	3527
2.13200	3379
2.13567	3242
2.13933	3116
2.14300	2999
2.14667	2892
2.15033	2797
2.15400	2712
2.15767	2631
2.16133	2553
2.16500	2477
2.16867	2404
2.17233	2335
2.17600	2268
2.17967	2204
2.18333	2142
2.18700	2084
2.19067	2032
2.19433	1981
2.19800	1929
2.20167	1881
2.20533	1839
2.20900	1799
2.21267	1758
2.21633	1716
2.22000	1677
2.22367	1639
2.22733	1600
2.23100	1563
2.23467	1528
2.23833	1499
2.24200	1469
2.24567	1438
2.24933	1410
2.25300	1382
2.25667	1353
2.26033	1326
2.26400	1305
2.26767	1288
2.27133	1268
2.27500	1243
2.27867	1219
2.28233	1196
2.28600	1176
2.28967	1156
2.29333	1137
2.29700	1117
2.30067	1097
2.30433	1081
2.30800	1073
2.31167	1066
2.31533	1058
2.31900	1050
2.32267	1037
2.32633	1023
2.33000	1013
2.33367	1000
2.33733	984
2.34100	972
2.34467	966
2.34833	957
2.35200	944
2.35567	929
2.35933	917
2.36300	905
2.36667	894
2.37033	880
2.37400	863
2.37767	847
2.38133	835
2.38500	828
2.38867	821
2.39233	813
2.39600	810
2.39967	810
2.40333	806
2.40700	799
2.41067	793
2.41433	789
2.41800	786
2.42167	784
2.42533	789
2.42900	790
2.43267	781
2.43633	769
2.44000	755
2.44367	738
2.44733	721
2.45100	708
2.45467	703
2.45833	698
2.46200	693
2.46567	689
2.46933	685
2.47300	684
2.47667	681
2.48033	673
2.48400	658
2.48767	642
2.49133	630
2.49500	621
2.49867	615
2.50233	611
2.50600	610
2.50967	611
2.51333	612
2.51700	608
2.52067	603
2.52433	599
2.52800	598
2.53167	601
2.53533	605
2.53900	607
2.54267	608
2.54633	606
2.55000	601
2.55367	594
2.55733	592
2.56100	598
2.56467	607
2.56833	610
2.57200	605
2.57567	593
2.57933	577
2.58300	561
2.58667	549
2.59033	541
2.59400	534
2.59767	532
2.60133	534
2.60500	537
2.60867	537
2.61233	536
2.61600	535
2.61967	534
2.62333	535
2.62700	536
2.63067	536
2.63433	535
2.63800	535
2.64167	536
2.64533	543
2.64900	552
2.65267	558
2.65633	561
2.66000	561
2.66367	555
2.66733	550
2.67100	545
2.67467	541
2.67833	538
2.68200	534
2.68567	528
2.68933	524
2.69300	523
2.69667	524
2.70033	526
2.70400	532
2.70767	540
2.71133	546
2.71500	547
2.71867	546
2.72233	543
2.72600	537
2.72967	527
2.73333	517
2.73700	517
2.74067	522
2.74433	525
2.74800	529
2.75167	533
2.75533	528
2.75900	518
2.76267	510
2.76633	502
2.77000	497
2.77367	496
2.77733	496
2.78100	498
2.78467	499
2.78833	499
2.79200	500
2.79567	499
2.79933	499
2.80300	498
2.80667	497
2.81033	498
2.81400	501
2.81767	504
2.82133	507
2.82500	507
2.82867	501
2.83233	494
2.83600	493
2.83967	495
2.84333	497
2.84700	497
2.85067	494
2.85433	490
2.85800	488
2.86167	487
2.86533	484
2.86900	480
2.87267	473
2.87633	470
2.88000	474
2.88367	476
2.88733	473
2.89100	469
2.89467	464
2.89833	457
2.90200	450
2.90567	445
2.90933	444
2.91300	444
2.91667	445
2.92033	449
2.92400	461
2.92767	474
2.93133	479
2.93500	475
2.93867	468
2.94233	460
2.94600	456
2.94967	454
2.95333	449
2.95700	442
2.96067	439
2.96433	439
2.96800	439
2.97167	437
2.97533	434
2.97900	432
2.98267	429
2.98633	425
2.99000	419
2.99367	412
2.99733	410
3.00100	414
3.00467	423
3.00833	432
3.01200	434
3.01567	434
3.01933	431
3.02300	428
3.02667	427
3.03033	427
3.03400	426
3.03767	425
3.04133	426
3.04500	428
3.04867	430
3.05233	430
3.05600	429
3.05967	424
3.06333	418
3.06700	413
3.07067	412
3.07433	414
3.07800	415
3.08167	420
3.08533	428
3.08900	431
3.09267	427
3.09633	422
3.10000	413
3.10367	407
3.10733	407
3.11100	408
3.11467	405
3.11833	399
3.12200	395
3.12567	399
3.12933	404
3.13300	406
3.13667	403
3.14033	398
3.14400	394
3.14767	392
3.15133	388
3.15500	379
3.15867	369
3.16233	360
3.16600	352
3.16967	348
3.17333	352
3.17700	361
3.18067	368
3.18433	375
3.18800	376
3.19167	373
3.19533	371
3.19900	374
3.20267	375
3.20633	375
3.21000	373
3.21367	371
3.21733	373
3.22100	375
3.22467	377
3.22833	376
3.23200	369
3.23567	364
3.23933	363
3.24300	362
3.24667	360
3.25033	357
3.25400	354
3.25767	356
3.26133	358
3.26500	360
3.26867	361
3.27233	361
3.27600	358
3.27967	354
3.28333	353
3.28700	352
3.29067	351
3.29433	352
3.29800	357
3.30167	361
3.30533	360
3.30900	354
3.31267	346
3.31633	338
3.32000	335
3.32367	334
3.32733	339
3.33100	344
3.33467	346
3.33833	341
3.34200	336
3.34567	336
3.34933	343
3.35300	355
3.35667	362
3.36033	367
3.36400	367
3.36767	362
3.37133	357
3.37500	354
3.37867	354
3.38233	350
3.38600	339
3.38967	327
3.39333	321
3.39700	320
3.40067	321
3.40433	323
3.40800	322
3.41167	320
3.41533	319
3.41900	323
3.42267	331
3.42633	340
3.43000	348
3.43367	348
3.43733	340
3.44100	335
3.44467	331
3.44833	327
3.45200	319
3.45567	310
3.45933	303
3.46300	295
3.46667	290
3.47033	292
3.47400	296
3.47767	298
3.48133	296
3.48500	295
3.48867	296
3.49233	298
3.49600	299
3.49967	304
3.50333	311
3.50700	316
3.51067	316
3.51433	312
3.51800	310
3.52167	306
3.52533	303
3.52900	301
3.53267	301
3.53633	300
3.54000	297
3.54367	290
3.54733	285
3.55100	286
3.55467	290
3.55833	294
3.56200	292
3.56567	287
3.56933	284
3.57300	284
3.57667	285
3.58033	285
3.58400	284
3.58767	285
3.59133	289
3.59500	290
3.59867	287
3.60233	284
3.60600	281
3.60967	279
3.61333	275
3.61700	273
3.62067	277
3.62433	283
3.62800	287
3.63167	288
3.63533	286
3.63900	284
3.64267	286
3.64633	292
3.65000	293
3.65367	287
3.65733	275
3.66100	261
3.66467	246
3.66833	234
3.67200	226
3.67567	225
3.67933	228
3.68300	236
3.68667	244
3.69033	249
3.69400	250
3.69767	246
3.70133	240
3.70500	233
3.70867	230
3.71233	231
3.71600	235
3.71967	236
3.72333	235
3.72700	239
3.73067	242
3.73433	243
3.73800	244
3.74167	244
3.74533	244
3.74900	248
3.75267	252
3.75633	257
3.76000	261
3.76367	262
3.76733	263
3.77100	259
3.77467	254
3.77833	249
3.78200	243
3.78567	235
3.78933	231
3.79300	231
3.79667	233
3.80033	235
3.80400	235
3.80767	232
3.81133	230
3.81500	231
3.81867	236
3.82233	241
3.82600	249
3.82967	258
3.83333	258
3.83700	252
3.84067	247
3.84433	244
3.84800	240
3.85167	234
3.85533	230
3.85900	227
3.86267	220
3.86633	214
3.87000	206
3.87367	201
3.87733	198
3.88100	200
3.88467	205
3.88833	212
3.89200	215
3.89567	217
3.89933	217
3.90300	218
3.90667	217
3.91033	217
3.91400	224
3.91767	232
3.92133	234
3.92500	233
3.92867	228
3.93233	221
3.93600	216
3.93967	213
3.94333	211
3.94700	213
3.95067	214
3.95433	215
3.95800	218
3.96167	222
3.96533	224
3.96900	224
3.97267	222
3.97633	218
3.98000	218
3.98367	222
3.98733	226
3.99100	226
3.99467	219
3.99833	213

[Chromatogram (Ch2)]
Interval(msec)	220
# of Points	1091
Start Time(min)	0.002
End Time(min)	3.998
R.Time (min)	Intensity
0.00167	-0
0.00533	-0
0.00900	-0
0.01267	-0
0.01633	-0
0.02000	-0
0.02367	-0
0.02733	-1
0.03100	-1
0.03467	-1
0.03833	-1
0.04200	-1
0.04567	-0
0.04933	-0
0.05300	-1
0.05667	-1
0.06033	-0
0.06400	-0
0.06767	-0
0.07133	-0
0.07500	-0
0.07867	-0
0.08233	-0
0.08600	-1
0.08967	-1
0.09333	-1
0.09700	-1
0.10067	-1
0.10433	-1
0.10800	-0
0.11167	-0
0.11533	0
0.11900	0
0.12267	0
0.12633	1
0.13000	1
0.13367	2
0.13733	2
0.14100	3
0.14467	4
0.14833	4
0.15200	4
0.15567	4
0.15933	4
0.16300	3
0.16667	3
0.17033	3
0.17400	3
0.17767	3
0.18133	2
0.18500	2
0.18867	2
0.19233	2
0.19600	1
0.19967	1
0.20333	1
0.20700	0
0.21067	0
0.21433	-0
0.21800	0
0.22167	0
0.22533	0
0.22900	0
0.23267	-0
0.23633	-0
0.24000	-0
0.24367	-1
0.24733	-1
0.25100	-1
0.25467	-2
0.25833	-2
0.26200	-2
0.26567	-2
0.26933	-3
0.27300	-3
0.27667	-3
0.28033	-3
0.28400	-2
0.28767	-2
0.29133	-2
0.29500	-1
0.29867	-1
0.30233	-2
0.30600	-2
0.30967	-2
0.31333	-2
0.31700	-2
0.32067	-2
0.32433	-2
0.32800	-2
0.33167	-1
0.33533	-1
0.33900	-0
0.34267	-0
0.34633	0
0.35000	1
0.35367	1
0.35733	1
0.36100	2
0.36467	2
0.36833	2
0.37200	2
0.37567	2
0.37933	2
0.38300	2
0.38667	2
0.39033	2
0.39400	2
0.39767	2
0.40133	2
0.40500	2
0.40867	2
0.41233	2
0.41600	2
0.41967	2
0.42333	2
0.42700	2
0.43067	3
0.43433	3
0.43800	3
0.44167	3
0.44533	3
0.44900	4
0.45267	4
0.45633	4
0.46000	4
0.46367	4
0.46733	4
0.47100	3
0.47467	3
0.47833	3
0.48200	2
0.48567	2
0.48933	2
0.49300	1
0.49667	1
0.50033	1
0.50400	1
0.50767	0
0.51133	-0
0.51500	-0
0.51867	-0
0.52233	-0
0.52600	-0
0.52967	-1
0.53333	-1
0.53700	-1
0.54067	-1
0.54433	-1
0.54800	-1
0.55167	-2
0.55533	-2
0.55900	-2
0.56267	-2
0.56633	-2
0.57000	-2
0.57367	-2
0.57733	-1
0.58100	-1
0.58467	-1
0.58833	-2
0.59200	-2
0.59567	-2
0.59933	-2
0.60300	-2
0.60667	-2
0.61033	-2
0.61400	-2
0.61767	-2
0.62133	-2
0.62500	-2
0.62867	-1
0.63233	-1
0.63600	-1
0.63967	-1
0.64333	-1
0.64700	-1
0.65067	-1
0.65433	-1
0.65800	-1
0.66167	-1
0.66533	-1
0.66900	-1
0.67267	-1
0.67633	-1
0.68000	-1
0.68367	-1
0.68733	-1
0.69100	-1
0.69467	-1
0.69833	-1
0.70200	-1
0.70567	-1
0.70933	-0
0.71300	-0
0.71667	-0
0.72033	-0
0.72400	-0
0.72767	0
0.73133	0
0.73500	-0
0.73867	-0
0.74233	-0
0.74600	-0
0.74967	-1
0.75333	-1
0.75700	-1
0.76067	-1
0.76433	-2
0.76800	-2
0.77167	-2
0.77533	-3
0.77900	-3
0.78267	-4
0.78633	-4
0.79000	-4
0.79367	-4
0.79733	-3
0.80100	-3
0.80467	-3
0.80833	-3
0.81200	-3
0.81567	-2
0.81933	-2
0.82300	-2
0.82667	-2
0.83033	-1
0.83400	-0
0.83767	0
0.84133	1
0.84500	1
0.84867	1
0.85233	2
0.85600	2
0.85967	2
0.86333	2
0.86700	2
0.87067	2
0.87433	2
0.87800	2
0.88167	2
0.88533	2
0.88900	2
0.89267	2
0.89633	2
0.90000	2
0.90367	2
0.90733	1
0.91100	1
0.91467	0
0.91833	-0
0.92200	-0
0.92567	-1
0.92933	-1
0.93300	-1
0.93667	-1
0.94033	-2
0.94400	-2
0.94767	-2
0.95133	-2
0.95500	-2
0.95867	-3
0.96233	-3
0.96600	-3
0.96967	-3
0.97333	-3
0.97700	-3
0.98067	-3
0.98433	-3
0.98800	-3
0.99167	-3
0.99533	-3
0.99900	-2
1.00267	-2
1.00633	-1
1.01000	-1
1.01367	-1
1.01733	-1
1.02100	-1
1.02467	-1
1.02833	-1
1.03200	-1
1.03567	-1
1.03933	-1
1.04300	-1
1.04667	-2
1.05033	-2
1.05400	-2
1.05767	-2
1.06133	-2
1.06500	-2
1.06867	-2
1.07233	-2
1.07600	-2
1.07967	-3
1.08333	-3
1.08700	-3
1.09067	-3
1.09433	-3
1.09800	-3
1.10167	-3
1.10533	-3
1.10900	-3
1.11267	-2
1.11633	-2
1.12000	-2
1.12367	-2
1.12733	-2
1.13100	-2
1.13467	-1
1.13833	-1
1.14200	-0
1.14567	0
1.14933	1
1.15300	2
1.15667	2
1.16033	3
1.16400	3
1.16767	3
1.17133	3
1.17500	2
1.17867	2
1.18233	1
1.18600	0
1.18967	-0
1.19333	-1
1.19700	-1
1.20067	-2
1.20433	-2
1.20800	-3
1.21167	-3
1.21533	-3
1.21900	-2
1.22267	-2
1.22633	-2
1.23000	-2
1.23367	-2
1.23733	-2
1.24100	-2
1.24467	-1
1.24833	-1
1.25200	-1
1.25567	-1
1.25933	-1
1.26300	-0
1.26667	-0
1.27033	-0
1.27400	-1
1.27767	-1
1.28133	-1
1.28500	-1
1.28867	-1
1.29233	-2
1.29600	-2
1.29967	-2
1.30333	-2
1.30700	-2
1.31067	-2
1.31433	-2
1.31800	-2
1.32167	-2
1.32533	-2
1.32900	-1
1.33267	-1
1.33633	-0
1.34000	0
1.34367	1
1.34733	1
1.35100	1
1.35467	1
1.35833	1
1.36200	1
1.36567	1
1.36933	0
1.37300	-0
1.37667	-1
1.38033	-1
1.38400	-2
1.38767	-2
1.39133	-2
1.39500	-2
1.39867	-2
1.40233	-3
1.40600	-3
1.40967	-3
1.41333	-3
1.41700	-3
1.42067	-3
1.42433	-4
1.42800	-3
1.43167	-3
1.43533	-3
1.43900	-3
1.44267	-3
1.44633	-2
1.45000	-2
1.45367	-2
1.45733	-2
1.46100	-2
1.46467	-2
1.46833	-2
1.47200	-2
1.47567	-2
1.47933	-2
1.48300	-2
1.48667	-2
1.49033	-1
1.49400	-1
1.49767	-1
1.50133	-1
1.50500	-1
1.50867	-1
1.51233	-1
1.51600	-1
1.51967	-1
1.52333	-1
1.52700	-1
1.53067	-1
1.53433	-1
1.53800	-1
1.54167	-1
1.54533	-1
1.54900	-1
1.55267	-1
1.55633	-0
1.56000	-0
1.56367	-0
1.56733	-0
1.57100	-0
1.57467	0
1.57833	0
1.58200	0
1.58567	-0
1.58933	-0
1.59300	-1
1.59667	-2
1.60033	-3
1.60400	-4
1.60767	-6
1.61133	-8
1.61500	-10
1.61867	-12
1.62233	-15
1.62600	-18
1.62967	-21
1.63333	-24
1.63700	-27
1.64067	-31
1.64433	-35
1.64800	-38
1.65167	-42
1.65533	-46
1.65900	-49
1.66267	-53
1.66633	-57
1.67000	-61
1.67367	-66
1.67733	-71
1.68100	-76
1.68467	-81
1.68833	-86
1.69200	-90
1.69567	-94
1.69933	-97
1.70300	-100
1.70667	-103
1.71033	-105
1.71400	-106
1.71767	-107
1.72133	-108
1.72500	-108
1.72867	-109
1.73233	-109
1.73600	-109
1.73967	-109
1.74333	-109
1.74700	-108
1.75067	-108
1.75433	-108
1.75800	-108
1.76167	-109
1.76533	-110
1.76900	-111
1.77267	-112
1.77633	-113
1.78000	-113
1.78367	-114
1.78733	-114
1.79100	-114
1.79467	-114
1.79833	-114
1.80200	-115
1.80567	-115
1.80933	-116
1.81300	-116
1.81667	-116
1.82033	-117
1.82400	-117
1.82767	-117
1.83133	-117
1.83500	-117
1.83867	-117
1.84233	-117
1.84600	-118
1.84967	-118
1.85333	-118
1.85700	-118
1.86067	-118
1.86433	-118
1.86800	-117
1.87167	-117
1.87533	-117
1.87900	-118
1.88267	-118
1.88633	-118
1.89000	-118
1.89367	-118
1.89733	-118
1.90100	-118
1.90467	-118
1.90833	-118
1.91200	-117
1.91567	-117
1.91933	-116
1.92300	-115
1.92667	-114
1.93033	-113
1.93400	-112
1.93767	-112
1.94133	-111
1.94500	-111
1.94867	-111
1.95233	-111
1.95600	-111
1.95967	-111
1.96333	-111
1.96700	-111
1.97067	-111
1.97433	-111
1.97800	-111
1.98167	-111
1.98533	-112
1.98900	-112
1.99267	-111
1.99633	-111
2.00000	-111
2.00367	-110
2.00733	-109
2.01100	-109
2.01467	-109
2.01833	-109
2.02200	-108
2.02567	-107
2.02933	-106
2.03300	-105
2.03667	-105
2.04033	-104
2.04400	-103
2.04767	-102
2.05133	-102
2.05500	-101
2.05867	-101
2.06233	-101
2.06600	-102
2.06967	-102
2.07333	-103
2.07700	-103
2.08067	-103
2.08433	-104
2.08800	-104
2.09167	-104
2.09533	-103
2.09900	-103
2.10267	-102
2.10633	-101
2.11000	-100
2.11367	-99
2.11733	-99
2.12100	-98
2.12467	-98
2.12833	-98
2.13200	-98
2.13567	-98
2.13933	-98
2.14300	-97
2.14667	-97
2.15033	-97
2.15400	-97
2.15767	-96
2.16133	-96
2.16500	-95
2.16867	-94
2.17233	-94
2.17600	-93
2.17967	-92
2.18333	-92
2.18700	-92
2.19067	-91
2.19433	-91
2.19800	-91
2.20167	-91
2.20533	-91
2.20900	-91
2.21267	-90
2.21633	-89
2.22000	-89
2.22367	-89
2.22733	-89
2.23100	-89
2.23467	-90
2.23833	-91
2.24200	-91
2.24567	-91
2.24933	-91
2.25300	-91
2.25667	-90
2.26033	-89
2.26400	-88
2.26767	-86
2.27133	-85
2.27500	-85
2.27867	-84
2.28233	-84
2.28600	-85
2.28967	-86
2.29333	-87
2.29700	-87
2.30067	-87
2.30433	-87
2.30800	-87
2.31167	-86
2.31533	-85
2.31900	-84
2.32267	-83
2.32633	-82
2.33000	-81
2.33367	-80
2.33733	-80
2.34100	-79
2.34467	-78
2.34833	-77
2.35200	-76
2.35567	-75
2.35933	-74
2.36300	-73
2.36667	-72
2.37033	-71
2.37400	-68
2.37767	-65
2.38133	-62
2.38500	-58
2.38867	-53
2.39233	-49
2.39600	-44
2.39967	-40
2.40333	-36
2.40700	-32
2.41067	-28
2.41433	-25
2.41800	-22
2.42167	-20
2.42533	-17
2.42900	-16
2.43267	-15
2.43633	-13
2.44000	-12
2.44367	-11
2.44733	-10
2.45100	-9
2.45467	-7
2.45833	-6
2.46200	-4
2.46567	-3
2.46933	-2
2.47300	-1
2.47667	-0
2.48033	1
2.48400	2
2.48767	3
2.49133	4
2.49500	5
2.49867	6
2.50233	7
2.50600	7
2.50967	8
2.51333	9
2.51700	10
2.52067	11
2.52433	12
2.52800	12
2.53167	12
2.53533	12
2.53900	12
2.54267	11
2.54633	11
2.55000	11
2.55367	12
2.55733	12
2.56100	12
2.56467	12
2.56833	12
2.57200	12
2.57567	12
2.57933	12
2.58300	13
2.58667	13
2.59033	13
2.59400	14
2.59767	14
2.60133	15
2.60500	15
2.60867	16
2.61233	16
2.61600	16
2.61967	16
2.62333	16
2.62700	16
2.63067	16
2.63433	16
2.63800	17
2.64167	17
2.64533	17
2.64900	18
2.65267	18
2.65633	19
2.66000	20
2.66367	20
2.66733	20
2.67100	20
2.67467	21
2.67833	21
2.68200	21
2.68567	21
2.68933	21
2.69300	22
2.69667	22
2.70033	22
2.70400	23
2.70767	23
2.71133	23
2.71500	24
2.71867	24
2.72233	24
2.72600	25
2.72967	25
2.73333	25
2.73700	25
2.74067	26
2.74433	26
2.74800	26
2.75167	27
2.75533	27
2.75900	27
2.76267	28
2.76633	28
2.77000	29
2.77367	29
2.77733	29
2.78100	29
2.78467	29
2.78833	29
2.79200	29
2.79567	29
2.79933	29
2.80300	29
2.80667	29
2.81033	29
2.81400	29
2.81767	29
2.82133	29
2.82500	29
2.82867	29
2.83233	28
2.83600	28
2.83967	26
2.84333	24
2.84700	19
2.85067	12
2.85433	2
2.85800	-12
2.86167	-29
2.86533	-50
2.86900	-76
2.87267	-106
2.87633	-140
2.88000	-179
2.88367	-221
2.88733	-266
2.89100	-313
2.89467	-363
2.89833	-415
2.90200	-468
2.90567	-523
2.90933	-577
2.91300	-632
2.91667	-687
2.92033	-741
2.92400	-794
2.92767	-846
2.93133	-901
2.93500	-960
2.93867	-1020
2.94233	-1070
2.94600	-1101
2.94967	-1107
2.95333	-1086
2.95700	-1043
2.96067	-981
2.96433	-909
2.96800	-830
2.97167	-748
2.97533	-668
2.97900	-592
2.98267	-520
2.98633	-454
2.99000	-394
2.99367	-340
2.99733	-293
3.00100	-251
3.00467	-214
3.00833	-182
3.01200	-154
3.01567	-130
3.01933	-109
3.02300	-91
3.02667	-76
3.03033	-63
3.03400	-51
3.03767	-42
3.04133	-34
3.04500	-27
3.04867	-21
3.05233	-15
3.05600	-11
3.05967	-7
3.06333	-4
3.06700	-1
3.07067	2
3.07433	4
3.07800	6
3.08167	8
3.08533	9
3.08900	10
3.09267	11
3.09633	12
3.10000	13
3.10367	14
3.10733	14
3.11100	15
3.11467	16
3.11833	16
3.12200	16
3.12567	16
3.12933	17
3.13300	17
3.13667	18
3.14033	18
3.14400	19
3.14767	19
3.15133	19
3.15500	20
3.15867	20
3.16233	20
3.16600	20
3.16967	21
3.17333	21
3.17700	21
3.18067	21
3.18433	21
3.18800	22
3.19167	22
3.19533	22
3.19900	22
3.20267	22
3.20633	22
3.21000	22
3.21367	22
3.21733	22
3.22100	22
3.22467	23
3.22833	23
3.23200	23
3.23567	24
3.23933	24
3.24300	24
3.24667	24
3.25033	25
3.25400	25
3.25767	25
3.26133	25
3.26500	26
3.26867	26
3.27233	26
3.27600	26
3.27967	27
3.28333	27
3.28700	27
3.29067	28
3.29433	28
3.29800	28
3.30167	28
3.30533	28
3.30900	28
3.31267	28
3.31633	29
3.32000	28
3.32367	28
3.32733	28
3.33100	28
3.33467	28
3.33833	28
3.34200	28
3.34567	29
3.34933	29
3.35300	29
3.35667	29
3.36033	29
3.36400	29
3.36767	28
3.37133	28
3.37500	28
3.37867	28
3.38233	28
3.38600	28
3.38967	28
3.39333	28
3.39700	28
3.40067	28
3.40433	27
3.40800	27
3.41167	27
3.41533	27
3.41900	27
3.42267	26
3.42633	26
3.43000	26
3.43367	26
3.43733	26
3.44100	26
3.44467	26
3.44833	26
3.45200	26
3.45567	26
3.45933	26
3.46300	26
3.46667	26
3.47033	27
3.47400	27
3.47767	27
3.48133	27
3.48500	27
3.48867	27
3.49233	27
3.49600	27
3.49967	27
3.50333	27
3.50700	27
3.51067	27
3.51433	27
3.51800	27
3.52167	27
3.52533	27
3.52900	27
3.53267	27
3.53633	27
3.54000	26
3.54367	26
3.54733	26
3.55100	26
3.55467	26
3.55833	26
3.56200	27
3.56567	27
3.56933	27
3.57300	27
3.57667	27
3.58033	27
3.58400	27
3.58767	27
3.59133	27
3.59500	27
3.59867	27
3.60233	27
3.60600	26
3.60967	26
3.61333	27
3.61700	27
3.62067	26
3.62433	26
3.62800	26
3.63167	26
3.63533	25
3.63900	25
3.64267	25
3.64633	25
3.65000	26
3.65367	26
3.65733	26
3.66100	26
3.66467	27
3.66833	27
3.67200	27
3.67567	27
3.67933	27
3.68300	27
3.68667	27
3.69033	27
3.69400	27
3.69767	27
3.70133	27
3.70500	27
3.70867	27
3.71233	27
3.71600	28
3.71967	28
3.72333	28
3.72700	28
3.73067	28
3.73433	28
3.73800	28
3.74167	28
3.74533	28
3.74900	28
3.75267	28
3.75633	28
3.76000	27
3.76367	27
3.76733	27
3.77100	27
3.77467	26
3.77833	26
3.78200	25
3.78567	25
3.78933	25
3.79300	25
3.79667	25
3.80033	25
3.80400	25
3.80767	25
3.81133	25
3.81500	26
3.81867	26
3.82233	26
3.82600	26
3.82967	26
3.83333	26
3.83700	26
3.84067	26
3.84433	26
3.84800	26
3.85167	27
3.85533	27
3.85900	27
3.86267	27
3.86633	27
3.87000	27
3.87367	27
3.87733	27
3.88100	27
3.88467	27
3.88833	27
3.89200	27
3.89567	27
3.89933	27
3.90300	27
3.90667	27
3.91033	27
3.91400	27
3.91767	27
3.92133	26
3.92500	26
3.92867	26
3.93233	26
3.93600	27
3.93967	27
3.94333	27
3.94700	27
3.95067	27
3.95433	28
3.95800	28
3.96167	28
3.96533	28
3.96900	28
3.97267	28
3.97633	28
3.98000	28
3.98367	28
3.98733	28
3.99100	28
3.99467	29
3.99833	29

[Chromatogram (Ch3)]
Interval(msec)	220
# of Points	1091
Start Time(min)	0.002
End Time(min)	3.998
R.Time (min)	Intensity
0.00167	1
0.00533	1
0.00900	-1
0.01267	-0
0.01633	1
0.02000	1
0.02367	2
0.02733	2
0.03100	2
0.03467	2
0.03833	2
0.04200	1
0.04567	1
0.04933	0
0.05300	0
0.05667	1
0.06033	3
0.06400	4
0.06767	3
0.07133	1
0.07500	-0
0.07867	-2
0.08233	-4
0.08600	-5
0.08967	-4
0.09333	-3
0.09700	-1
0.10067	-1
0.10433	-1
0.10800	-1
0.11167	-1
0.11533	-0
0.11900	0
0.12267	-1
0.12633	-1
0.13000	-2
0.13367	-4
0.13733	-2
0.14100	-5
0.14467	-6
0.14833	-7
0.15200	-7
0.15567	-5
0.15933	-4
0.16300	-3
0.16667	-1
0.17033	-3
0.17400	-3
0.17767	-3
0.18133	-1
0.18500	-1
0.18867	-2
0.19233	-2
0.19600	-1
0.19967	1
0.20333	2
0.20700	2
0.21067	1
0.21433	0
0.21800	0
0.22167	-2
0.22533	-3
0.22900	-2
0.23267	-3
0.23633	-3
0.24000	-1
0.24367	1
0.24733	-1
0.25100	-0
0.25467	0
0.25833	-0
0.26200	1
0.26567	2
0.26933	2
0.27300	2
0.27667	1
0.28033	-0
0.28400	-2
0.28767	-3
0.29133	-3
0.29500	-3
0.29867	-0
0.30233	2
0.30600	3
0.30967	5
0.31333	7
0.31700	8
0.32067	9
0.32433	8
0.32800	6
0.33167	5
0.33533	3
0.33900	3
0.34267	4
0.34633	6
0.35000	5
0.35367	3
0.35733	3
0.36100	3
0.36467	3
0.36833	1
0.37200	-2
0.37567	-5
0.37933	-5
0.38300	-5
0.38667	-4
0.39033	-4
0.39400	-4
0.39767	-2
0.40133	-0
0.40500	3
0.40867	5
0.41233	7
0.41600	7
0.41967	8
0.42333	8
0.42700	8
0.43067	8
0.43433	8
0.43800	8
0.44167	7
0.44533	5
0.44900	5
0.45267	4
0.45633	5
0.46000	4
0.46367	5
0.46733	5
0.47100	5
0.47467	5
0.47833	5
0.48200	5
0.48567	5
0.48933	5
0.49300	5
0.49667	5
0.50033	4
0.50400	3
0.50767	2
0.51133	0
0.51500	-1
0.51867	-1
0.52233	-0
0.52600	1
0.52967	3
0.53333	3
0.53700	1
0.54067	0
0.54433	1
0.54800	1
0.55167	0
0.55533	2
0.55900	2
0.56267	1
0.56633	2
0.57000	2
0.57367	2
0.57733	3
0.58100	2
0.58467	2
0.58833	1
0.59200	1
0.59567	3
0.59933	4
0.60300	3
0.60667	4
0.61033	4
0.61400	2
0.61767	1
0.62133	3
0.62500	5
0.62867	5
0.63233	4
0.63600	2
0.63967	2
0.64333	2
0.64700	5
0.65067	6
0.65433	3
0.65800	1
0.66167	1
0.66533	2
0.66900	5
0.67267	3
0.67633	1
0.68000	3
0.68367	6
0.68733	7
0.69100	7
0.69467	4
0.69833	2
0.70200	-0
0.70567	0
0.70933	2
0.71300	4
0.71667	6
0.72033	7
0.72400	8
0.72767	9
0.73133	8
0.73500	6
0.73867	5
0.74233	5
0.74600	7
0.74967	9
0.75333	9
0.75700	10
0.76067	11
0.76433	11
0.76800	10
0.77167	9
0.77533	9
0.77900	9
0.78267	9
0.78633	12
0.79000	13
0.79367	11
0.79733	7
0.80100	5
0.80467	6
0.80833	7
0.81200	7
0.81567	7
0.81933	8
0.82300	9
0.82667	11
0.83033	11
0.83400	12
0.83767	15
0.84133	14
0.84500	13
0.84867	12
0.85233	10
0.85600	13
0.85967	14
0.86333	15
0.86700	16
0.87067	16
0.87433	14
0.87800	12
0.88167	11
0.88533	10
0.88900	11
0.89267	11
0.89633	10
0.90000	10
0.90367	9
0.90733	8
0.91100	8
0.91467	7
0.91833	7
0.92200	7
0.92567	9
0.92933	10
0.93300	12
0.93667	14
0.94033	14
0.94400	13
0.94767	13
0.95133	13
0.95500	13
0.95867	13
0.96233	11
0.96600	8
0.96967	7
0.97333	7
0.97700	7
0.98067	9
0.98433	9
0.98800	8
0.99167	8
0.99533	11
0.99900	14
1.00267	16
1.00633	17
1.01000	17
1.01367	16
1.01733	14
1.02100	15
1.02467	16
1.02833	17
1.03200	17
1.03567	16
1.03933	16
1.04300	18
1.04667	20
1.05033	19
1.05400	18
1.05767	17
1.06133	17
1.06500	18
1.06867	17
1.07233	18
1.07600	17
1.07967	16
1.08333	15
1.08700	15
1.09067	15
1.09433	15
1.09800	14
1.10167	14
1.10533	16
1.10900	19
1.11267	19
1.11633	18
1.12000	15
1.12367	12
1.12733	14
1.13100	16
1.13467	16
1.13833	18
1.14200	20
1.14567	21
1.14933	23
1.15300	23
1.15667	21
1.16033	21
1.16400	21
1.16767	22
1.17133	22
1.17500	24
1.17867	24
1.18233	24
1.18600	23
1.18967	22
1.19333	20
1.19700	18
1.20067	18
1.20433	17
1.20800	19
1.21167	20
1.21533	21
1.21900	21
1.22267	22
1.22633	21
1.23000	20
1.23367	20
1.23733	21
1.24100	23
1.24467	25
1.24833	25
1.25200	25
1.25567	24
1.25933	24
1.26300	26
1.26667	27
1.27033	27
1.27400	27
1.27767	27
1.28133	27
1.28500	26
1.28867	28
1.29233	29
1.29600	29
1.29967	28
1.30333	27
1.30700	27
1.31067	29
1.31433	30
1.31800	30
1.32167	29
1.32533	27
1.32900	26
1.33267	27
1.33633	27
1.34000	27
1.34367	30
1.34733	30
1.35100	28
1.35467	26
1.35833	24
1.36200	23
1.36567	22
1.36933	25
1.37300	25
1.37667	24
1.38033	23
1.38400	24
1.38767	24
1.39133	25
1.39500	26
1.39867	27
1.40233	28
1.40600	28
1.40967	30
1.41333	31
1.41700	32
1.42067	31
1.42433	29
1.42800	27
1.43167	26
1.43533	28
1.43900	31
1.44267	30
1.44633	28
1.45000	28
1.45367	29
1.45733	29
1.46100	30
1.46467	30
1.46833	29
1.47200	27
1.47567	26
1.47933	27
1.48300	26
1.48667	25
1.49033	24
1.49400	24
1.49767	27
1.50133	28
1.50500	30
1.50867	30
1.51233	31
1.51600	31
1.51967	31
1.52333	29
1.52700	29
1.53067	30
1.53433	29
1.53800	28
1.54167	28
1.54533	28
1.54900	29
1.55267	29
1.55633	30
1.56000	32
1.56367	34
1.56733	33
1.57100	33
1.57467	35
1.57833	34
1.58200	32
1.58567	30
1.58933	30
1.59300	31
1.59667	33
1.60033	34
1.60400	34
1.60767	36
1.61133	35
1.61500	36
1.61867	36
1.62233	37
1.62600	38
1.62967	39
1.63333	39
1.63700	40
1.64067	41
1.64433	39
1.64800	36
1.65167	36
1.65533	38
1.65900	39
1.66267	40
1.66633	40
1.67000	40
1.67367	42
1.67733	44
1.68100	44
1.68467	43
1.68833	42
1.69200	42
1.69567	42
1.69933	39
1.70300	39
1.70667	42
1.71033	44
1.71400	46
1.71767	47
1.72133	47
1.72500	46
1.72867	47
1.73233	48
1.73600	48
1.73967	49
1.74333	49
1.74700	50
1.75067	50
1.75433	50
1.75800	47
1.76167	44
1.76533	43
1.76900	45
1.77267	46
1.77633	49
1.78000	51
1.78367	51
1.78733	50
1.79100	50
1.79467	51
1.79833	52
1.80200	53
1.80567	54
1.80933	55
1.81300	54
1.81667	56
1.82033	57
1.82400	59
1.82767	60
1.83133	59
1.83500	59
1.83867	58
1.84233	58
1.84600	59
1.84967	61
1.85333	63
1.85700	63
1.86067	64
1.86433	65
1.86800	65
1.87167	65
1.87533	66
1.87900	66
1.88267	64
1.88633	62
1.89000	64
1.89367	65
1.89733	66
1.90100	68
1.90467	70
1.90833	70
1.91200	71
1.91567	73
1.91933	75
1.92300	75
1.92667	75
1.93033	73
1.93400	72
1.93767	72
1.94133	71
1.94500	71
1.94867	71
1.95233	73
1.95600	75
1.95967	75
1.96333	74
1.96700	74
1.97067	75
1.97433	76
1.97800	79
1.98167	79
1.98533	80
1.98900	82
1.99267	84
1.99633	85
2.00000	85
2.00367	85
2.00733	85
2.01100	83
2.01467	83
2.01833	84
2.02200	84
2.02567	83
2.02933	85
2.03300	88
2.03667	90
2.04033	93
2.04400	96
2.04767	99
2.05133	99
2.05500	96
2.05867	92
2.06233	92
2.06600	93
2.06967	95
2.07333	100
2.07700	102
2.08067	101
2.08433	101
2.08800	103
2.09167	105
2.09533	106
2.09900	106
2.10267	108
2.10633	110
2.11000	111
2.11367	110
2.11733	108
2.12100	108
2.12467	109
2.12833	110
2.13200	112
2.13567	115
2.13933	118
2.14300	120
2.14667	121
2.15033	121
2.15400	122
2.15767	122
2.16133	121
2.16500	123
2.16867	126
2.17233	129
2.17600	129
2.17967	130
2.18333	132
2.18700	131
2.19067	130
2.19433	130
2.19800	130
2.20167	132
2.20533	136
2.20900	138
2.21267	139
2.21633	140
2.22000	141
2.22367	143
2.22733	147
2.23100	152
2.23467	154
2.23833	155
2.24200	157
2.24567	158
2.24933	158
2.25300	159
2.25667	160
2.26033	162
2.26400	163
2.26767	165
2.27133	166
2.27500	165
2.27867	164
2.28233	164
2.28600	164
2.28967	167
2.29333	171
2.29700	175
2.30067	178
2.30433	180
2.30800	181
2.31167	183
2.31533	184
2.31900	184
2.32267	188
2.32633	191
2.33000	193
2.33367	195
2.33733	197
2.34100	199
2.34467	201
2.34833	202
2.35200	203
2.35567	203
2.35933	204
2.36300	204
2.36667	207
2.37033	208
2.37400	209
2.37767	212
2.38133	213
2.38500	214
2.38867	214
2.39233	216
2.39600	220
2.39967	226
2.40333	229
2.40700	231
2.41067	235
2.41433	239
2.41800	243
2.42167	247
2.42533	253
2.42900	254
2.43267	253
2.43633	254
2.44000	259
2.44367	300
2.44733	409
2.45100	526
2.45467	622
2.45833	679
2.46200	680
2.46567	645
2.46933	603
2.47300	572
2.47667	554
2.48033	543
2.48400	528
2.48767	503
2.49133	471
2.49500	435
2.49867	403
2.50233	380
2.50600	363
2.50967	354
2.51333	352
2.51700	351
2.52067	356
2.52433	369
2.52800	384
2.53167	400
2.53533	412
2.53900	415
2.54267	410
2.54633	400
2.55000	384
2.55367	364
2.55733	344
2.56100	325
2.56467	310
2.56833	300
2.57200	294
2.57567	288
2.57933	284
2.58300	280
2.58667	277
2.59033	277
2.59400	273
2.59767	267
2.60133	255
2.60500	238
2.60867	216
2.61233	190
2.61600	165
2.61967	143
2.62333	124
2.62700	112
2.63067	105
2.63433	102
2.63800	103
2.64167	108
2.64533	116
2.64900	126
2.65267	139
2.65633	150
2.66000	159
2.66367	167
2.66733	173
2.67100	178
2.67467	181
2.67833	182
2.68200	182
2.68567	181
2.68933	178
2.69300	177
2.69667	175
2.70033	172
2.70400	172
2.70767	172
2.71133	169
2.71500	164
2.71867	161
2.72233	159
2.72600	159
2.72967	159
2.73333	160
2.73700	163
2.74067	164
2.74433	164
2.74800	165
2.75167	165
2.75533	167
2.75900	170
2.76267	174
2.76633	175
2.77000	176
2.77367	178
2.77733	179
2.78100	180
2.78467	181
2.78833	181
2.79200	184
2.79567	184
2.79933	186
2.80300	188
2.80667	190
2.81033	190
2.81400	192
2.81767	199
2.82133	216
2.82500	255
2.82867	336
2.83233	479
2.83600	709
2.83967	1040
2.84333	1475
2.84700	2000
2.85067	2591
2.85433	3206
2.85800	3799
2.86167	4316
2.86533	4718
2.86900	4980
2.87267	5094
2.87633	5065
2.88000	4913
2.88367	4668
2.88733	4362
2.89100	4019
2.89467	3661
2.89833	3307
2.90200	2969
2.90567	2654
2.90933	2362
2.91300	2097
2.91667	1857
2.92033	1646
2.92400	1460
2.92767	1300
2.93133	1159
2.93500	1034
2.93867	924
2.94233	832
2.94600	753
2.94967	682
2.95333	620
2.95700	566
2.96067	521
2.96433	481
2.96800	445
2.97167	415
2.97533	389
2.97900	366
2.98267	346
2.98633	327
2.99000	313
2.99367	302
2.99733	290
3.00100	279
3.00467	270
3.00833	262
3.01200	253
3.01567	242
3.01933	235
3.02300	229
3.02667	223
3.03033	216
3.03400	212
3.03767	209
3.04133	203
3.04500	198
3.04867	195
3.05233	190
3.05600	186
3.05967	181
3.06333	178
3.06700	177
3.07067	174
3.07433	172
3.07800	171
3.08167	167
3.08533	165
3.08900	165
3.09267	164
3.09633	153
3.10000	128
3.10367	108
3.10733	103
3.11100	112
3.11467	133
3.11833	160
3.12200	191
3.12567	227
3.12933	264
3.13300	304
3.13667	347
3.14033	389
3.14400	428
3.14767	462
3.15133	492
3.15500	520
3.15867	544
3.16233	564
3.16600	584
3.16967	599
3.17333	612
3.17700	622
3.18067	630
3.18433	636
3.18800	640
3.19167	643
3.19533	645
3.19900	647
3.20267	650
3.20633	651
3.21000	652
3.21367	654
3.21733	657
3.22100	658
3.22467	658
3.22833	659
3.23200	660
3.23567	659
3.23933	658
3.24300	658
3.24667	662
3.25033	665
3.25400	667
3.25767	669
3.26133	670
3.26500	672
3.26867	673
3.27233	675
3.27600	677
3.27967	680
3.28333	681
3.28700	683
3.29067	685
3.29433	687
3.29800	689
3.30167	691
3.30533	694
3.30900	697
3.31267	699
3.31633	703
3.32000	706
3.32367	707
3.32733	705
3.33100	706
3.33467	710
3.33833	712
3.34200	714
3.34567	714
3.34933	715
3.35300	716
3.35667	718
3.36033	720
3.36400	721
3.36767	720
3.37133	719
3.37500	718
3.37867	717
3.38233	717
3.38600	718
3.38967	717
3.39333	715
3.39700	712
3.40067	709
3.40433	708
3.40800	706
3.41167	705
3.41533	704
3.41900	703
3.42267	702
3.42633	697
3.43000	693
3.43367	688
3.43733	685
3.44100	683
3.44467	680
3.44833	678
3.45200	676
3.45567	673
3.45933	671
3.46300	668
3.46667	664
3.47033	660
3.47400	657
3.47767	652
3.48133	648
3.48500	645
3.48867	644
3.49233	643
3.49600	641
3.49967	638
3.50333	637
3.50700	635
3.51067	634
3.51433	634
3.51800	630
3.52167	626
3.52533	626
3.52900	627
3.53267	627
3.53633	623
3.54000	621
3.54367	617
3.54733	612
3.55100	610
3.55467	609
3.55833	608
3.56200	605
3.56567	606
3.56933	607
3.57300	607
3.57667	607
3.58033	605
3.58400	605
3.58767	605
3.59133	602
3.59500	600
3.59867	599
3.60233	597
3.60600	594
3.60967	593
3.61333	594
3.61700	595
3.62067	594
3.62433	594
3.62800	593
3.63167	588
3.63533	584
3.63900	582
3.64267	580
3.64633	581
3.65000	582
3.65367	581
3.65733	580
3.66100	579
3.66467	579
3.66833	580
3.67200	579
3.67567	577
3.67933	576
3.68300	578
3.68667	578
3.69033	577
3.69400	575
3.69767	574
3.70133	572
3.70500	571
3.70867	571
3.71233	571
3.71600	571
3.71967	574
3.72333	576
3.72700	575
3.73067	573
3.73433	573
3.73800	574
3.74167	572
3.74533	571
3.74900	569
3.75267	566
3.75633	562
3.76000	562
3.76367	563
3.76733	565
3.77100	567
3.77467	569
3.77833	568
3.78200	567
3.78567	567
3.78933	567
3.79300	567
3.79667	568
3.80033	567
3.80400	567
3.80767	565
3.81133	565
3.81500	566
3.81867	566
3.82233	566
3.82600	564
3.82967	563
3.83333	561
3.83700	560
3.84067	560
3.84433	560
3.84800	560
3.85167	558
3.85533	556
3.85900	553
3.86267	551
3.86633	551
3.87000	551
3.87367	553
3.87733	552
3.88100	549
3.88467	546
3.88833	543
3.89200	542
3.89567	540
3.89933	539
3.90300	538
3.90667	539
3.91033	539
3.91400	540
3.91767	540
3.92133	538
3.92500	536
3.92867	533
3.93233	532
3.93600	532
3.93967	531
3.94333	530
3.94700	529
3.95067	529
3.95433	529
3.95800	529
3.96167	528
3.96533	526
3.96900	523
3.97267	519
3.97633	515
3.98000	512
3.98367	511
3.98733	509
3.99100	507
3.99467	505
3.99833	501

[Status Trace (Column Oven Temperature)]
Interval(msec)	1000
# of Points	240
Start Time(min)	0.001
End Time(min)	3.984
Intensity Units	
Intensity Multiplier	1
R.Time (min)	Intensity
0.00062	35.02
0.01728	35.02
0.03395	35.03
0.05062	35.04
0.06728	35.04
0.08395	35.05
0.10062	35.05
0.11728	35.05
0.13395	35.03
0.15062	35.01
0.16728	35.02
0.18395	35.02
0.20062	35.02
0.21728	35.02
0.23395	35.01
0.25062	35.03
0.26728	35.04
0.28395	35.03
0.30062	35.04
0.31728	35.03
0.33395	35.03
0.35062	35.02
0.36728	35.02
0.38395	35.02
0.40062	35.01
0.41728	35.01
0.43395	34.99
0.45062	34.99
0.46728	34.98
0.48395	34.98
0.50062	34.98
0.51728	34.99
0.53395	35.00
0.55062	35.00
0.56728	35.00
0.58395	35.00
0.60062	35.01
0.61728	35.02
0.63395	35.01
0.65062	35.01
0.66728	35.02
0.68395	35.02
0.70062	35.02
0.71728	35.01
0.73395	35.01
0.75062	35.01
0.76728	35.02
0.78395	35.02
0.80062	35.03
0.81728	35.02
0.83395	35.01
0.85062	35.01
0.86728	34.99
0.88395	34.98
0.90062	34.98
0.91728	34.98
0.93395	34.98
0.95062	34.99
0.96728	35.00
0.98395	34.99
1.00062	34.99
1.01728	35.00
1.03395	35.00
1.05062	35.01
1.06728	35.01
1.08395	35.02
1.10062	35.02
1.11728	35.02
1.13395	35.01
1.15062	34.99
1.16728	34.98
1.18395	35.00
1.20062	35.01
1.21728	35.01
1.23395	35.01
1.25062	35.01
1.26728	35.00
1.28395	35.00
1.30062	35.01
1.31728	35.01
1.33395	35.01
1.35062	34.99
1.36728	34.99
1.38395	35.01
1.40062	35.02
1.41728	35.02
1.43395	35.03
1.45062	35.03
1.46728	35.02
1.48395	35.02
1.50062	35.02
1.51728	35.02
1.53395	35.02
1.55062	35.01
1.56728	35.00
1.58395	35.00
1.60062	35.04
1.61728	35.14
1.63395	35.30
1.65062	35.52
1.66728	35.82
1.68395	36.18
1.70062	36.55
1.71728	36.88
1.73395	37.21
1.75062	37.52
1.76728	37.86
1.78395	38.19
1.80062	38.53
1.81728	38.86
1.83395	39.19
1.85062	39.52
1.86728	39.85
1.88395	40.19
1.90062	40.52
1.91728	40.85
1.93395	41.17
1.95062	41.49
1.96728	41.83
1.98395	42.16
2.00062	42.48
2.01728	42.80
2.03395	43.11
2.05062	43.42
2.06728	43.76
2.08395	44.10
2.10062	44.42
2.11728	44.74
2.13395	45.06
2.15062	45.39
2.16728	45.70
2.18395	46.02
2.20062	46.35
2.21728	46.67
2.23395	47.04
2.25062	47.38
2.26728	47.68
2.28395	48.04
2.30062	48.40
2.31728	48.71
2.33395	49.03
2.35062	49.32
2.36728	49.55
2.38395	49.66
2.40062	49.68
2.41728	49.67
2.43395	49.69
2.45062	49.69
2.46728	49.69
2.48395	49.71
2.50062	49.72
2.51728	49.72
2.53395	49.75
2.55062	49.77
2.56728	49.80
2.58395	49.81
2.60062	49.81
2.61728	49.84
2.63395	49.85
2.65062	49.85
2.66728	49.84
2.68395	49.86
2.70062	49.85
2.71728	49.86
2.73395	49.87
2.75062	49.87
2.76728	49.86
2.78395	49.86
2.80062	49.86
2.81728	49.87
2.83395	49.87
2.85062	49.87
2.86728	49.87
2.88395	49.87
2.90062	49.90
2.91728	49.93
2.93395	49.97
2.95062	49.98
2.96728	50.00
2.98395	50.01
3.00062	50.03
3.01728	50.03
3.03395	50.04
3.05062	50.05
3.06728	50.04
3.08395	50.05
3.10062	50.06
3.11728	50.07
3.13395	50.07
3.15062	50.07
3.16728	50.08
3.18395	50.09
3.20062	50.10
3.21728	50.10
3.23395	50.10
3.25062	50.10
3.26728	50.09
3.28395	50.08
3.30062	50.07
3.31728	50.06
3.33395	50.06
3.35062	50.05
3.36728	50.04
3.38395	50.04
3.40062	50.04
3.41728	50.05
3.43395	50.04
3.45062	50.04
3.46728	50.04
3.48395	50.04
3.50062	50.05
3.51728	50.05
3.53395	50.06
3.55062	50.05
3.56728	50.05
3.58395	50.06
3.60062	50.06
3.61728	50.07
3.63395	50.08
3.65062	50.08
3.66728	50.08
3.68395	50.08
3.70062	50.07
3.71728	50.06
3.73395	50.06
3.75062	50.06
3.76728	50.06
3.78395	50.08
3.80062	50.08
3.81728	50.09
3.83395	50.09
3.85062	50.09
3.86728	50.09
3.88395	50.08
3.90062	50.07
3.91728	50.08
3.93395	50.09
3.95062	50.08
3.96728	50.07
3.98395	50.07

[Status Trace (Injection Unit Temperature)]
Interval(msec)	1000
# of Points	240
Start Time(min)	0.001
End Time(min)	3.984
Intensity Units	
Intensity Multiplier	1
R.Time (min)	Intensity
0.00062	99.98
0.01728	99.98
0.03395	99.98
0.05062	99.98
0.06728	99.98
0.08395	99.98
0.10062	99.98
0.11728	99.98
0.13395	99.98
0.15062	99.99
0.16728	99.99
0.18395	99.98
0.20062	99.98
0.21728	99.98
0.23395	99.99
0.25062	99.99
0.26728	99.99
0.28395	99.98
0.30062	99.98
0.31728	99.99
0.33395	99.99
0.35062	99.99
0.36728	99.99
0.38395	99.98
0.40062	99.98
0.41728	99.98
0.43395	99.99
0.45062	99.99
0.46728	99.99
0.48395	99.98
0.50062	99.99
0.51728	99.99
0.53395	99.99
0.55062	99.99
0.56728	99.99
0.58395	99.99
0.60062	99.99
0.61728	99.99
0.63395	99.99
0.65062	99.99
0.66728	99.99
0.68395	99.99
0.70062	99.99
0.71728	99.99
0.73395	99.99
0.75062	99.99
0.76728	99.99
0.78395	99.98
0.80062	99.98
0.81728	99.98
0.83395	99.98
0.85062	99.98
0.86728	99.98
0.88395	99.98
0.90062	99.99
0.91728	99.98
0.93395	99.98
0.95062	99.98
0.96728	99.98
0.98395	99.98
1.00062	99.98
1.01728	99.98
1.03395	99.98
1.05062	99.99
1.06728	99.98
1.08395	99.98
1.10062	99.98
1.11728	99.98
1.13395	99.98
1.15062	99.98
1.16728	99.98
1.18395	99.99
1.20062	99.98
1.21728	99.98
1.23395	99.98
1.25062	99.99
1.26728	99.99
1.28395	99.98
1.30062	99.98
1.31728	99.98
1.33395	99.98
1.35062	99.98
1.36728	99.99
1.38395	99.98
1.40062	99.98
1.41728	99.99
1.43395	99.98
1.45062	99.99
1.46728	99.98
1.48395	99.99
1.50062	99.99
1.51728	99.98
1.53395	99.99
1.55062	99.99
1.56728	99.98
1.58395	99.99
1.60062	99.98
1.61728	99.99
1.63395	99.99
1.65062	99.99
1.66728	99.99
1.68395	99.99
1.70062	99.98
1.71728	99.98
1.73395	99.99
1.75062	99.99
1.76728	99.98
1.78395	99.98
1.80062	99.99
1.81728	99.98
1.83395	99.98
1.85062	99.98
1.86728	99.98
1.88395	99.98
1.90062	99.98
1.91728	99.98
1.93395	99.98
1.95062	99.98
1.96728	99.98
1.98395	99.98
2.00062	99.98
2.01728	99.97
2.03395	99.97
2.05062	99.98
2.06728	99.98
2.08395	99.97
2.10062	99.98
2.11728	99.97
2.13395	99.97
2.15062	99.98
2.16728	99.97
2.18395	99.97
2.20062	99.97
2.21728	99.97
2.23395	99.97
2.25062	99.97
2.26728	99.97
2.28395	99.97
2.30062	99.97
2.31728	99.97
2.33395	99.97
2.35062	99.97
2.36728	99.97
2.38395	99.97
2.40062	99.97
2.41728	99.97
2.43395	99.97
2.45062	99.97
2.46728	99.97
2.48395	99.97
2.50062	99.97
2.51728	99.97
2.53395	99.97
2.55062	99.97
2.56728	99.97
2.58395	99.97
2.60062	99.97
2.61728	99.97
2.63395	99.97
2.65062	99.97
2.66728	99.98
2.68395	99.98
2.70062	99.98
2.71728	99.98
2.73395	99.98
2.75062	99.98
2.76728	99.98
2.78395	99.98
2.80062	99.98
2.81728	99.99
2.83395	99.99
2.85062	99.99
2.86728	99.99
2.88395	99.99
2.90062	99.99
2.91728	100.00
2.93395	100.00
2.95062	100.01
2.96728	100.00
2.98395	100.01
3.00062	100.01
3.01728	100.01
3.03395	100.01
3.05062	100.01
3.06728	100.01
3.08395	100.01
3.10062	100.02
3.11728	100.02
3.13395	100.02
3.15062	100.02
3.16728	100.02
3.18395	100.02
3.20062	100.03
3.21728	100.02
3.23395	100.03
3.25062	100.03
3.26728	100.03
3.28395	100.03
3.30062	100.03
3.31728	100.03
3.33395	100.03
3.35062	100.04
3.36728	100.03
3.38395	100.04
3.40062	100.04
3.41728	100.03
3.43395	100.04
3.45062	100.04
3.46728	100.04
3.48395	100.04
3.50062	100.04
3.51728	100.04
3.53395	100.04
3.55062	100.04
3.56728	100.04
3.58395	100.04
3.60062	100.04
3.61728	100.05
3.63395	100.04
3.65062	100.04
3.66728	100.04
3.68395	100.04
3.70062	100.04
3.71728	100.05
3.73395	100.05
3.75062	100.05
3.76728	100.05
3.78395	100.04
3.80062	100.05
3.81728	100.05
3.83395	100.04
3.85062	100.04
3.86728	100.04
3.88395	100.05
3.90062	100.04
3.91728	100.05
3.93395	100.05
3.95062	100.04
3.96728	100.04
3.98395	100.05

[Status Trace (Carrier Gas Pressure)]
Interval(msec)	1000
# of Points	240
Start Time(min)	0.001
End Time(min)	3.984
Intensity Units	
Intensity Multiplier	1
R.Time (min)	Intensity
0.00062	58.00
0.01728	56.63
0.03395	56.11
0.05062	58.32
0.06728	59.89
0.08395	58.38
0.10062	57.97
0.11728	58.00
0.13395	58.01
0.15062	58.01
0.16728	58.00
0.18395	58.00
0.20062	58.00
0.21728	58.00
0.23395	58.00
0.25062	58.00
0.26728	58.00
0.28395	58.00
0.30062	58.00
0.31728	58.00
0.33395	58.00
0.35062	58.00
0.36728	58.00
0.38395	58.00
0.40062	58.00
0.41728	58.00
0.43395	58.00
0.45062	58.00
0.46728	58.00
0.48395	58.00
0.50062	58.00
0.51728	58.00
0.53395	58.00
0.55062	58.00
0.56728	58.00
0.58395	58.00
0.60062	58.00
0.61728	58.00
0.63395	58.00
0.65062	58.00
0.66728	58.00
0.68395	58.00
0.70062	58.00
0.71728	58.00
0.73395	58.00
0.75062	58.00
0.76728	58.00
0.78395	58.00
0.80062	58.00
0.81728	58.00
0.83395	58.00
0.85062	58.00
0.86728	58.00
0.88395	58.00
0.90062	58.00
0.91728	58.00
0.93395	58.00
0.95062	58.00
0.96728	58.00
0.98395	58.00
1.00062	58.00
1.01728	58.00
1.03395	58.00
1.05062	58.00
1.06728	58.00
1.08395	58.00
1.10062	58.00
1.11728	58.00
1.13395	58.00
1.15062	58.00
1.16728	58.00
1.18395	58.00
1.20062	58.00
1.21728	58.00
1.23395	58.00
1.25062	58.00
1.26728	58.00
1.28395	58.00
1.30062	58.00
1.31728	58.00
1.33395	58.00
1.35062	58.00
1.36728	58.00
1.38395	58.00
1.40062	58.00
1.41728	58.00
1.43395	58.00
1.45062	58.00
1.46728	58.00
1.48395	58.00
1.50062	58.00
1.51728	58.00
1.53395	58.00
1.55062	58.00
1.56728	58.00
1.58395	58.00
1.60062	58.00
1.61728	58.00
1.63395	58.00
1.65062	58.00
1.66728	58.01
1.68395	58.01
1.70062	58.00
1.71728	58.00
1.73395	58.00
1.75062	58.00
1.76728	58.00
1.78395	58.00
1.80062	58.00
1.81728	58.00
1.83395	58.00
1.85062	58.00
1.86728	58.00
1.88395	58.00
1.90062	58.00
1.91728	58.00
1.93395	58.00
1.95062	58.00
1.96728	58.00
1.98395	58.00
2.00062	58.00
2.01728	58.00
2.03395	58.00
2.05062	58.00
2.06728	58.00
2.08395	58.00
2.10062	58.00
2.11728	58.00
2.13395	58.00
2.15062	58.00
2.16728	58.00
2.18395	58.00
2.20062	58.00
2.21728	58.00
2.23395	58.00
2.25062	58.00
2.26728	58.00
2.28395	58.00
2.30062	58.00
2.31728	58.00
2.33395	58.00
2.35062	58.00
2.36728	58.00
2.38395	57.99
2.40062	57.99
2.41728	58.00
2.43395	58.00
2.45062	58.00
2.46728	58.00
2.48395	58.00
2.50062	58.00
2.51728	57.99
2.53395	57.99
2.55062	58.00
2.56728	58.00
2.58395	58.00
2.60062	58.00
2.61728	58.00
2.63395	58.00
2.65062	58.00
2.66728	58.00
2.68395	58.00
2.70062	58.00
2.71728	58.00
2.73395	58.00
2.75062	58.00
2.76728	58.00
2.78395	58.00
2.80062	58.00
2.81728	58.00
2.83395	58.00
2.85062	58.00
2.86728	58.00
2.88395	58.00
2.90062	58.00
2.91728	58.00
2.93395	58.00
2.95062	58.00
2.96728	58.00
2.98395	58.00
3.00062	58.00
3.01728	58.00
3.03395	58.00
3.05062	58.00
3.06728	58.00
3.08395	58.00
3.10062	58.00
3.11728	58.00
3.13395	58.00
3.15062	58.00
3.16728	58.00
3.18395	58.00
3.20062	58.00
3.21728	58.00
3.23395	58.00
3.25062	58.00
3.26728	58.00
3.28395	58.00
3.30062	58.00
3.31728	58.00
3.33395	58.00
3.35062	58.00
3.36728	58.00
3.38395	58.00
3.40062	58.00
3.41728	58.00
3.43395	58.00
3.45062	58.00
3.46728	58.00
3.48395	58.00
3.50062	58.00
3.51728	58.00
3.53395	58.00
3.55062	58.00
3.56728	58.00
3.58395	58.00
3.60062	58.00
3.61728	58.00
3.63395	58.00
3.65062	58.00
3.66728	58.00
3.68395	58.00
3.70062	58.00
3.71728	58.00
3.73395	58.00
3.75062	58.00
3.76728	58.00
3.78395	58.00
3.80062	58.00
3.81728	58.00
3.83395	58.00
3.85062	58.00
3.86728	58.00
3.88395	58.00
3.90062	58.00
3.91728	58.00
3.93395	58.00
3.95062	58.00
3.96728	58.00
3.98395	58.00

[Status Trace (Carrier Gas Flow)]
Interval(msec)	1000
# of Points	240
Start Time(min)	0.001
End Time(min)	3.984
Intensity Units	
Intensity Multiplier	1
R.Time (min)	Intensity
0.00062	34.52
0.01728	33.82
0.03395	34.54
0.05062	34.54
0.06728	34.50
0.08395	34.52
0.10062	34.52
0.11728	34.51
0.13395	34.52
0.15062	34.52
0.16728	34.52
0.18395	34.52
0.20062	34.52
0.21728	34.52
0.23395	34.52
0.25062	34.52
0.26728	34.52
0.28395	34.52
0.30062	34.51
0.31728	34.52
0.33395	34.52
0.35062	34.52
0.36728	34.52
0.38395	34.52
0.40062	34.52
0.41728	34.52
0.43395	34.52
0.45062	34.52
0.46728	34.52
0.48395	34.52
0.50062	34.52
0.51728	34.52
0.53395	34.52
0.55062	34.52
0.56728	34.52
0.58395	34.51
0.60062	34.52
0.61728	34.52
0.63395	34.52
0.65062	34.52
0.66728	34.52
0.68395	34.52
0.70062	34.52
0.71728	34.52
0.73395	34.52
0.75062	34.52
0.76728	34.52
0.78395	34.52
0.80062	34.52
0.81728	34.52
0.83395	34.52
0.85062	34.52
0.86728	34.52
0.88395	34.52
0.90062	34.52
0.91728	34.52
0.93395	34.52
0.95062	34.52
0.96728	34.52
0.98395	34.52
1.00062	34.52
1.01728	34.52
1.03395	34.52
1.05062	34.51
1.06728	34.52
1.08395	34.52
1.10062	34.52
1.11728	34.52
1.13395	34.52
1.15062	34.52
1.16728	34.52
1.18395	34.52
1.20062	34.52
1.21728	34.52
1.23395	34.52
1.25062	34.52
1.26728	34.52
1.28395	34.52
1.30062	34.52
1.31728	34.52
1.33395	34.52
1.35062	34.52
1.36728	34.51
1.38395	34.52
1.40062	34.52
1.41728	34.52
1.43395	34.52
1.45062	34.52
1.46728	34.52
1.48395	34.52
1.50062	34.52
1.51728	34.52
1.53395	34.52
1.55062	34.52
1.56728	34.52
1.58395	34.52
1.60062	34.52
1.61728	34.52
1.63395	34.52
1.65062	34.52
1.66728	34.51
1.68395	34.52
1.70062	34.52
1.71728	34.52
1.73395	34.52
1.75062	34.52
1.76728	34.52
1.78395	34.52
1.80062	34.51
1.81728	34.51
1.83395	34.52
1.85062	34.51
1.86728	34.52
1.88395	34.52
1.90062	34.52
1.91728	34.52
1.93395	34.52
1.95062	34.52
1.96728	34.52
1.98395	34.52
2.00062	34.52
2.01728	34.52
2.03395	34.52
2.05062	34.52
2.06728	34.52
2.08395	34.52
2.10062	34.52
2.11728	34.52
2.13395	34.52
2.15062	34.52
2.16728	34.52
2.18395	34.52
2.20062	34.52
2.21728	34.52
2.23395	34.52
2.25062	34.52
2.26728	34.52
2.28395	34.52
2.30062	34.52
2.31728	34.52
2.33395	34.52
2.35062	34.52
2.36728	34.52
2.38395	34.52
2.40062	34.52
2.41728	34.51
2.43395	34.51
2.45062	34.52
2.46728	34.51
2.48395	34.53
2.50062	34.52
2.51728	34.52
2.53395	34.52
2.55062	34.52
2.56728	34.52
2.58395	34.52
2.60062	34.52
2.61728	34.52
2.63395	34.52
2.65062	34.52
2.66728	34.51
2.68395	34.51
2.70062	34.52
2.71728	34.52
2.73395	34.52
2.75062	34.51
2.76728	34.51
2.78395	34.51
2.80062	34.52
2.81728	34.52
2.83395	34.51
2.85062	34.52
2.86728	34.52
2.88395	34.52
2.90062	34.52
2.91728	34.52
2.93395	34.52
2.95062	34.52
2.96728	34.52
2.98395	34.52
3.00062	34.52
3.01728	34.52
3.03395	34.52
3.05062	34.52
3.06728	34.52
3.08395	34.52
3.10062	34.52
3.11728	34.52
3.13395	34.52
3.15062	34.52
3.16728	34.52
3.18395	34.52
3.20062	34.52
3.21728	34.52
3.23395	34.52
3.25062	34.52
3.26728	34.52
3.28395	34.52
3.30062	34.52
3.31728	34.52
3.33395	34.52
3.35062	34.52
3.36728	34.52
3.38395	34.52
3.40062	34.52
3.41728	34.52
3.43395	34.52
3.45062	34.52
3.46728	34.52
3.48395	34.52
3.50062	34.52
3.51728	34.52
3.53395	34.52
3.55062	34.52
3.56728	34.52
3.58395	34.52
3.60062	34.52
3.61728	34.52
3.63395	34.52
3.65062	34.52
3.66728	34.52
3.68395	34.52
3.70062	34.52
3.71728	34.52
3.73395	34.52
3.75062	34.52
3.76728	34.52
3.78395	34.52
3.80062	34.52
3.81728	34.52
3.83395	34.52
3.85062	34.52
3.86728	34.52
3.88395	34.52
3.90062	34.52
3.91728	34.52
3.93395	34.52
3.95062	34.52
3.96728	34.52
3.98395	34.52

[Status Trace (Column Flow)]
Interval(msec)	1000
# of Points	240
Start Time(min)	0.001
End Time(min)	3.984
Intensity Units	
Intensity Multiplier	1
R.Time (min)	Intensity
0.00062	5.56
0.01728	5.40
0.03395	5.34
0.05062	5.60
0.06728	5.79
0.08395	5.61
0.10062	5.56
0.11728	5.56
0.13395	5.56
0.15062	5.56
0.16728	5.56
0.18395	5.56
0.20062	5.56
0.21728	5.56
0.23395	5.56
0.25062	5.56
0.26728	5.56
0.28395	5.56
0.30062	5.56
0.31728	5.56
0.33395	5.56
0.35062	5.56
0.36728	5.56
0.38395	5.56
0.40062	5.56
0.41728	5.56
0.43395	5.56
0.45062	5.56
0.46728	5.57
0.48395	5.57
0.50062	5.57
0.51728	5.56
0.53395	5.56
0.55062	5.56
0.56728	5.56
0.58395	5.56
0.60062	5.56
0.61728	5.56
0.63395	5.56
0.65062	5.56
0.66728	5.56
0.68395	5.56
0.70062	5.56
0.71728	5.56
0.73395	5.56
0.75062	5.56
0.76728	5.56
0.78395	5.56
0.80062	5.56
0.81728	5.56
0.83395	5.56
0.85062	5.56
0.86728	5.56
0.88395	5.57
0.90062	5.57
0.91728	5.57
0.93395	5.57
0.95062	5.57
0.96728	5.56
0.98395	5.56
1.00062	5.56
1.01728	5.56
1.03395	5.56
1.05062	5.56
1.06728	5.56
1.08395	5.56
1.10062	5.56
1.11728	5.56
1.13395	5.56
1.15062	5.56
1.16728	5.57
1.18395	5.56
1.20062	5.56
1.21728	5.56
1.23395	5.56
1.25062	5.56
1.26728	5.56
1.28395	5.56
1.30062	5.56
1.31728	5.56
1.33395	5.56
1.35062	5.56
1.36728	5.56
1.38395	5.56
1.40062	5.56
1.41728	5.56
1.43395	5.56
1.45062	5.56
1.46728	5.56
1.48395	5.56
1.50062	5.56
1.51728	5.56
1.53395	5.56
1.55062	5.56
1.56728	5.56
1.58395	5.56
1.60062	5.56
1.61728	5.56
1.63395	5.56
1.65062	5.55
1.66728	5.54
1.68395	5.53
1.70062	5.52
1.71728	5.51
1.73395	5.50
1.75062	5.49
1.76728	5.47
1.78395	5.46
1.80062	5.46
1.81728	5.44
1.83395	5.43
1.85062	5.42
1.86728	5.41
1.88395	5.40
1.90062	5.39
1.91728	5.38
1.93395	5.37
1.95062	5.36
1.96728	5.35
1.98395	5.34
2.00062	5.34
2.01728	5.33
2.03395	5.32
2.05062	5.31
2.06728	5.30
2.08395	5.29
2.10062	5.28
2.11728	5.27
2.13395	5.26
2.15062	5.25
2.16728	5.24
2.18395	5.23
2.20062	5.22
2.21728	5.21
2.23395	5.20
2.25062	5.19
2.26728	5.18
2.28395	5.17
2.30062	5.16
2.31728	5.15
2.33395	5.14
2.35062	5.14
2.36728	5.13
2.38395	5.13
2.40062	5.13
2.41728	5.13
2.43395	5.13
2.45062	5.13
2.46728	5.13
2.48395	5.13
2.50062	5.13
2.51728	5.12
2.53395	5.12
2.55062	5.12
2.56728	5.12
2.58395	5.12
2.60062	5.12
2.61728	5.12
2.63395	5.12
2.65062	5.12
2.66728	5.12
2.68395	5.12
2.70062	5.12
2.71728	5.12
2.73395	5.12
2.75062	5.12
2.76728	5.12
2.78395	5.12
2.80062	5.12
2.81728	5.12
2.83395	5.12
2.85062	5.12
2.86728	5.12
2.88395	5.12
2.90062	5.12
2.91728	5.12
2.93395	5.12
2.95062	5.12
2.96728	5.12
2.98395	5.12
3.00062	5.12
3.01728	5.12
3.03395	5.12
3.05062	5.12
3.06728	5.12
3.08395	5.12
3.10062	5.12
3.11728	5.12
3.13395	5.12
3.15062	5.12
3.16728	5.12
3.18395	5.12
3.20062	5.12
3.21728	5.11
3.23395	5.11
3.25062	5.11
3.26728	5.12
3.28395	5.12
3.30062	5.12
3.31728	5.12
3.33395	5.12
3.35062	5.12
3.36728	5.12
3.38395	5.12
3.40062	5.12
3.41728	5.12
3.43395	5.12
3.45062	5.12
3.46728	5.12
3.48395	5.12
3.50062	5.12
3.51728	5.12
3.53395	5.12
3.55062	5.12
3.56728	5.12
3.58395	5.12
3.60062	5.12
3.61728	5.12
3.63395	5.12
3.65062	5.12
3.66728	5.12
3.68395	5.12
3.70062	5.12
3.71728	5.12
3.73395	5.12
3.75062	5.12
3.76728	5.12
3.78395	5.12
3.80062	5.12
3.81728	5.12
3.83395	5.12
3.85062	5.12
3.86728	5.12
3.88395	5.12
3.90062	5.12
3.91728	5.12
3.93395	5.12
3.95062	5.12
3.96728	5.12
3.98395	5.12

[Status Trace (Linear Velocity)]
Interval(msec)	1000
# of Points	240
Start Time(min)	0.001
End Time(min)	3.984
Intensity Units	
Intensity Multiplier	1
R.Time (min)	Intensity
0.00062	39.02
0.01728	38.12
0.03395	37.78
0.05062	39.23
0.06728	40.26
0.08395	39.27
0.10062	39.00
0.11728	39.02
0.13395	39.03
0.15062	39.03
0.16728	39.03
0.18395	39.03
0.20062	39.03
0.21728	39.03
0.23395	39.03
0.25062	39.03
0.26728	39.02
0.28395	39.02
0.30062	39.02
0.31728	39.03
0.33395	39.02
0.35062	39.02
0.36728	39.02
0.38395	39.03
0.40062	39.03
0.41728	39.03
0.43395	39.03
0.45062	39.03
0.46728	39.03
0.48395	39.03
0.50062	39.03
0.51728	39.03
0.53395	39.03
0.55062	39.03
0.56728	39.03
0.58395	39.03
0.60062	39.03
0.61728	39.02
0.63395	39.03
0.65062	39.03
0.66728	39.03
0.68395	39.02
0.70062	39.02
0.71728	39.03
0.73395	39.03
0.75062	39.03
0.76728	39.03
0.78395	39.02
0.80062	39.02
0.81728	39.02
0.83395	39.02
0.85062	39.03
0.86728	39.03
0.88395	39.03
0.90062	39.03
0.91728	39.03
0.93395	39.03
0.95062	39.03
0.96728	39.03
0.98395	39.03
1.00062	39.03
1.01728	39.03
1.03395	39.03
1.05062	39.03
1.06728	39.03
1.08395	39.03
1.10062	39.02
1.11728	39.02
1.13395	39.03
1.15062	39.03
1.16728	39.03
1.18395	39.03
1.20062	39.03
1.21728	39.03
1.23395	39.03
1.25062	39.03
1.26728	39.03
1.28395	39.03
1.30062	39.03
1.31728	39.03
1.33395	39.03
1.35062	39.03
1.36728	39.03
1.38395	39.03
1.40062	39.03
1.41728	39.02
1.43395	39.02
1.45062	39.02
1.46728	39.03
1.48395	39.03
1.50062	39.02
1.51728	39.02
1.53395	39.02
1.55062	39.03
1.56728	39.03
1.58395	39.03
1.60062	39.02
1.61728	39.02
1.63395	39.00
1.65062	38.98
1.66728	38.95
1.68395	38.92
1.70062	38.88
1.71728	38.85
1.73395	38.82
1.75062	38.79
1.76728	38.75
1.78395	38.72
1.80062	38.69
1.81728	38.66
1.83395	38.63
1.85062	38.60
1.86728	38.57
1.88395	38.53
1.90062	38.51
1.91728	38.47
1.93395	38.44
1.95062	38.42
1.96728	38.38
1.98395	38.35
2.00062	38.32
2.01728	38.29
2.03395	38.26
2.05062	38.24
2.06728	38.20
2.08395	38.17
2.10062	38.15
2.11728	38.11
2.13395	38.09
2.15062	38.06
2.16728	38.03
2.18395	38.00
2.20062	37.97
2.21728	37.94
2.23395	37.91
2.25062	37.88
2.26728	37.85
2.28395	37.82
2.30062	37.79
2.31728	37.76
2.33395	37.73
2.35062	37.70
2.36728	37.68
2.38395	37.67
2.40062	37.67
2.41728	37.67
2.43395	37.67
2.45062	37.67
2.46728	37.67
2.48395	37.67
2.50062	37.67
2.51728	37.66
2.53395	37.66
2.55062	37.66
2.56728	37.66
2.58395	37.66
2.60062	37.66
2.61728	37.66
2.63395	37.66
2.65062	37.66
2.66728	37.66
2.68395	37.66
2.70062	37.66
2.71728	37.65
2.73395	37.65
2.75062	37.65
2.76728	37.65
2.78395	37.65
2.80062	37.65
2.81728	37.65
2.83395	37.65
2.85062	37.65
2.86728	37.65
2.88395	37.65
2.90062	37.65
2.91728	37.65
2.93395	37.65
2.95062	37.64
2.96728	37.64
2.98395	37.64
3.00062	37.64
3.01728	37.64
3.03395	37.64
3.05062	37.64
3.06728	37.64
3.08395	37.64
3.10062	37.64
3.11728	37.64
3.13395	37.64
3.15062	37.64
3.16728	37.64
3.18395	37.63
3.20062	37.63
3.21728	37.63
3.23395	37.63
3.25062	37.63
3.26728	37.63
3.28395	37.64
3.30062	37.64
3.31728	37.64
3.33395	37.64
3.35062	37.64
3.36728	37.64
3.38395	37.64
3.40062	37.64
3.41728	37.64
3.43395	37.64
3.45062	37.64
3.46728	37.64
3.48395	37.64
3.50062	37.64
3.51728	37.64
3.53395	37.64
3.55062	37.64
3.56728	37.64
3.58395	37.64
3.60062	37.64
3.61728	37.64
3.63395	37.64
3.65062	37.64
3.66728	37.64
3.68395	37.64
3.70062	37.64
3.71728	37.64
3.73395	37.64
3.75062	37.64
3.76728	37.64
3.78395	37.64
3.80062	37.64
3.81728	37.63
3.83395	37.63
3.85062	37.63
3.86728	37.63
3.88395	37.64
3.90062	37.64
3.91728	37.64
3.93395	37.63
3.95062	37.64
3.96728	37.64
3.98395	37.64

