[Header]
Application Name	LabSolutions
Version	5.110
Data File Name	C:\Users\User\Desktop\GC Analyses\Jack\Nachusa Grasslands Sampling\T1 Timepoint July 12th\T1_07122022_017.gcd
Output Date	3/14/2023
Output Time	3:40:57 PM

[File Information]
Type	Data File
Generated	3/8/2023 3:03:02 PM
Generated by	System Administrator
Modified	3/8/2023 3:09:30 PM
Modified by	System Administrator

[Sample Information]
Operator Name	System Administrator
Acquired	3/8/2023 3:05:29 PM
Sample Type	0:Unknown
Level	0
Sample Name	017
Sample ID	017
ISTD Amount1	1
ISTD Amount2	1
ISTD Amount3	1
ISTD Amount4	1
ISTD Amount5	1
ISTD Amount6	1
ISTD Amount7	1
ISTD Amount8	1
ISTD Amount9	1
ISTD Amount10	1
ISTD Amount11	1
ISTD Amount12	1
ISTD Amount13	1
ISTD Amount14	1
ISTD Amount15	1
ISTD Amount16	1
ISTD Amount17	1
ISTD Amount18	1
ISTD Amount19	1
ISTD Amount20	1
ISTD Amount21	1
ISTD Amount22	1
ISTD Amount23	1
ISTD Amount24	1
ISTD Amount25	1
ISTD Amount26	1
ISTD Amount27	1
ISTD Amount28	1
ISTD Amount29	1
ISTD Amount30	1
ISTD Amount31	1
ISTD Amount32	1
Sample Amount	1
Dilution Factor	1
Vial#	16
Injection Volume	1
Injection Count	1
Bar Code	

[Original Files]
Data File	C:\Users\User\Desktop\GC Analyses\Jack\Nachusa Grasslands Sampling\T1 Timepoint July 12th\T1_07122022_017.gcd
Method File	C:\LabSolutions\Data\GHG_4min_2022\ghg3_togas_w_acet_4 min_new_int.gcm
Batch File	C:\LabSolutions\Data\AutoSamplerTesting\T1_07122022.gcb
Report Format File	c:\LabSolutions\System\DEFAULT.lsr

[File Description]


[Configuration]
Instrument Name	C0B7VH3-Instrument1
Instrument #	1
Line #	1
# of Detectors	3
Detector ID	DET#1	DET#2	DET#3
Detector Name	FID	PTCD	ECD
# of Channels	1	1	1

[Peak Table(Ch1)]
# of Peaks	4
Peak#	R.Time	I.Time	F.Time	Area	Height	A/H	Conc.	Mark	ID#	Name	k'	Plate #	Plate Ht.	Tailing	Resolution	Sep.Factor	Area Ratio	Height Ratio	Conc. %	Norm Conc.
1	1.483	1.439	1.534	2571	740	3.473	18.151	   	1	CO	0.000	4797	31.271	0.000	0.000	0.000	0	0	1.925	1.925
2	1.567	1.534	1.644	20525	10223	2.008	396.866	 V 	2	CH4	0.057	11272	13.307	1.277	1.166	0.000	0	0	42.094	42.094
3	1.996	1.949	2.517	2102961	989293	2.126	527.786	   	3	CO2	0.346	17127	8.758	1.313	7.146	6.087	0	0	55.981	55.981
4	3.368	2.785	3.903	3700	109	33.797	0.000	   	6	Ethane	1.271	1293	116.039	0.956	6.295	3.671	0	0	0.000	0.000

[Peak Table(Ch2)]
# of Peaks	0

[Peak Table(Ch3)]
# of Peaks	6
Peak#	R.Time	I.Time	F.Time	Area	Height	A/H	Conc.	Mark	ID#	Name	k'	Plate #	Plate Ht.	Tailing	Resolution	Sep.Factor	Area Ratio	Height Ratio	Conc. %	Norm Conc.
1	2.458	2.326	2.513	1311	346	3.783	0.000	   			0.000	15441	9.714	0.000	0.000	0.000	0	0	0.000	0.000
2	2.546	2.513	2.583	604	185	3.260	0.000	 V 			0.036	5017	29.899	0.000	0.789	0.000	0	0	0.000	0.000
3	2.594	2.583	2.631	257	139	1.845	0.000	 V 			0.055	2391	62.747	0.000	0.268	1.542	0	0	0.000	0.000
4	2.704	2.642	2.711	377	132	2.849	0.000	   			0.100	553	271.236	0.000	0.327	1.811	0	0	0.000	0.000
5	2.873	2.711	3.320	66292	15803	4.195	1.693	 V 	1	N2O	0.169	12385	12.111	1.682	0.599	1.687	0	0	100.000	100.000
6	3.459	3.327	3.995	11012	533	20.653	0.000	   	2	SF6	0.407	723	207.456	2.468	1.899	2.416	0	0	0.000	0.000

[Compound Results(Ch1)]
# of IDs	6
ID#	Name	R.Time	Area	Height	Conc.	Curve	3rd	2nd	1st	Constant	Area Ratio	Height Ratio	Conc. %	Norm Conc.
1	CO	1.483	2571	740	18.151	Linear	0.000000e+00	0.000000e+00	1.416423e+002	0.000000e+00	0	0	1.925	1.925
2	CH4	1.567	20525	10223	396.866	Linear	0.000000e+00	0.000000e+00	5.171738e+001	0.000000e+00	0	0	42.094	42.094
3	CO2	1.996	2102961	989293	527.786	Linear	0.000000e+00	0.000000e+00	3.984494e+003	0.000000e+00	0	0	55.981	55.981
4	Ethylene	0.000	0	0	0.000	Linear	0.000000e+00	0.000000e+00	0.000000e+00	0.000000e+00	0	0	0.000	0.000
5	Acetylene	0.000	0	0	0.000	Linear	0.000000e+00	0.000000e+00	0.000000e+00	0.000000e+00	0	0	0.000	0.000
6	Ethane	3.368	3700	109	0.000	Linear	0.000000e+00	0.000000e+00	0.000000e+00	0.000000e+00	0	0	0.000	0.000

[Compound Results(Ch2)]
# of IDs	5
ID#	Name	R.Time	Area	Height	Conc.	Curve	3rd	2nd	1st	Constant	Area Ratio	Height Ratio	Conc. %	Norm Conc.
1	Hydrogen	0.000	0	0	0.000	Linear	0.000000e+00	0.000000e+00	0.000000e+00	0.000000e+00	0	0	0.000	0.000
2	Oxygen	0.000	0	0	0.000	Linear	0.000000e+00	0.000000e+00	0.000000e+00	0.000000e+00	0	0	0.000	0.000
3	Nitrogen	0.000	0	0	0.000	Linear	0.000000e+00	0.000000e+00	0.000000e+00	0.000000e+00	0	0	0.000	0.000
4	Methane	0.000	0	0	0.000	Linear	0.000000e+00	0.000000e+00	0.000000e+00	0.000000e+00	0	0	0.000	0.000
5	Carbon Monoxide	0.000	0	0	0.000	Linear	0.000000e+00	0.000000e+00	0.000000e+00	0.000000e+00	0	0	0.000	0.000

[Compound Results(Ch3)]
# of IDs	2
ID#	Name	R.Time	Area	Height	Conc.	Curve	3rd	2nd	1st	Constant	Area Ratio	Height Ratio	Conc. %	Norm Conc.
1	N2O	2.873	66292	15803	1.693	Linear	0.000000e+00	0.000000e+00	3.915173e+004	0.000000e+00	0	0	100.000	100.000
2	SF6	3.459	11012	533	0.000	Linear	0.000000e+00	0.000000e+00	0.000000e+00	0.000000e+00	0	0	0.000	0.000

[Group Results(Ch1)]
# of Groups	0

[Group Results(Ch2)]
# of Groups	0

[Group Results(Ch3)]
# of Groups	0

[Chromatogram (Ch1)]
Interval(msec)	220
# of Points	1091
Start Time(min)	0.002
End Time(min)	3.998
R.Time (min)	Intensity
0.00167	21
0.00533	22
0.00900	20
0.01267	18
0.01633	19
0.02000	17
0.02367	8
0.02733	-3
0.03100	-10
0.03467	-9
0.03833	0
0.04200	10
0.04567	16
0.04933	21
0.05300	21
0.05667	15
0.06033	10
0.06400	6
0.06767	3
0.07133	0
0.07500	-3
0.07867	-3
0.08233	5
0.08600	13
0.08967	21
0.09333	27
0.09700	31
0.10067	35
0.10433	34
0.10800	27
0.11167	20
0.11533	12
0.11900	2
0.12267	-10
0.12633	-19
0.13000	-28
0.13367	-36
0.13733	-36
0.14100	-30
0.14467	-25
0.14833	-21
0.15200	-15
0.15567	-7
0.15933	2
0.16300	10
0.16667	11
0.17033	5
0.17400	-2
0.17767	-12
0.18133	-19
0.18500	-22
0.18867	-19
0.19233	-16
0.19600	-13
0.19967	-11
0.20333	-9
0.20700	-7
0.21067	-3
0.21433	0
0.21800	-3
0.22167	-7
0.22533	-11
0.22900	-13
0.23267	-15
0.23633	-15
0.24000	-14
0.24367	-10
0.24733	-8
0.25100	-6
0.25467	-6
0.25833	-6
0.26200	-4
0.26567	-4
0.26933	-6
0.27300	-6
0.27667	-3
0.28033	3
0.28400	8
0.28767	16
0.29133	20
0.29500	20
0.29867	18
0.30233	13
0.30600	9
0.30967	1
0.31333	-4
0.31700	-4
0.32067	-3
0.32433	-7
0.32800	-13
0.33167	-19
0.33533	-27
0.33900	-34
0.34267	-35
0.34633	-31
0.35000	-24
0.35367	-15
0.35733	-3
0.36100	7
0.36467	15
0.36833	21
0.37200	27
0.37567	31
0.37933	32
0.38300	30
0.38667	26
0.39033	21
0.39400	16
0.39767	11
0.40133	13
0.40500	19
0.40867	21
0.41233	22
0.41600	26
0.41967	38
0.42333	49
0.42700	56
0.43067	60
0.43433	60
0.43800	61
0.44167	65
0.44533	67
0.44900	66
0.45267	64
0.45633	66
0.46000	71
0.46367	76
0.46733	83
0.47100	86
0.47467	82
0.47833	73
0.48200	65
0.48567	62
0.48933	64
0.49300	66
0.49667	70
0.50033	75
0.50400	82
0.50767	85
0.51133	87
0.51500	86
0.51867	79
0.52233	71
0.52600	65
0.52967	55
0.53333	44
0.53700	36
0.54067	31
0.54433	33
0.54800	41
0.55167	46
0.55533	50
0.55900	51
0.56267	51
0.56633	51
0.57000	49
0.57367	45
0.57733	39
0.58100	30
0.58467	21
0.58833	13
0.59200	7
0.59567	2
0.59933	-1
0.60300	-3
0.60667	-2
0.61033	3
0.61400	8
0.61767	12
0.62133	13
0.62500	12
0.62867	3
0.63233	-11
0.63600	-19
0.63967	-21
0.64333	-21
0.64700	-18
0.65067	-15
0.65433	-11
0.65800	-6
0.66167	-2
0.66533	1
0.66900	0
0.67267	-4
0.67633	-10
0.68000	-13
0.68367	-13
0.68733	-11
0.69100	-7
0.69467	-6
0.69833	-8
0.70200	-5
0.70567	-3
0.70933	-5
0.71300	-3
0.71667	3
0.72033	8
0.72400	8
0.72767	2
0.73133	-6
0.73500	-15
0.73867	-21
0.74233	-26
0.74600	-32
0.74967	-35
0.75333	-36
0.75700	-38
0.76067	-38
0.76433	-36
0.76800	-33
0.77167	-30
0.77533	-23
0.77900	-17
0.78267	-15
0.78633	-16
0.79000	-17
0.79367	-12
0.79733	-7
0.80100	-7
0.80467	-12
0.80833	-18
0.81200	-21
0.81567	-21
0.81933	-20
0.82300	-19
0.82667	-20
0.83033	-24
0.83400	-30
0.83767	-31
0.84133	-27
0.84500	-23
0.84867	-22
0.85233	-25
0.85600	-26
0.85967	-23
0.86333	-19
0.86700	-12
0.87067	-4
0.87433	-2
0.87800	-4
0.88167	-7
0.88533	-6
0.88900	-3
0.89267	-2
0.89633	-10
0.90000	-24
0.90367	-33
0.90733	-39
0.91100	-46
0.91467	-55
0.91833	-65
0.92200	-67
0.92567	-62
0.92933	-55
0.93300	-48
0.93667	-41
0.94033	-36
0.94400	-33
0.94767	-38
0.95133	-45
0.95500	-49
0.95867	-49
0.96233	-47
0.96600	-46
0.96967	-50
0.97333	-54
0.97700	-60
0.98067	-60
0.98433	-56
0.98800	-54
0.99167	-55
0.99533	-53
0.99900	-48
1.00267	-45
1.00633	-44
1.01000	-44
1.01367	-46
1.01733	-44
1.02100	-39
1.02467	-34
1.02833	-33
1.03200	-35
1.03567	-40
1.03933	-45
1.04300	-49
1.04667	-49
1.05033	-46
1.05400	-42
1.05767	-41
1.06133	-41
1.06500	-39
1.06867	-35
1.07233	-34
1.07600	-37
1.07967	-41
1.08333	-42
1.08700	-40
1.09067	-38
1.09433	-37
1.09800	-34
1.10167	-28
1.10533	-23
1.10900	-19
1.11267	-20
1.11633	-24
1.12000	-31
1.12367	-42
1.12733	-52
1.13100	-61
1.13467	-66
1.13833	-69
1.14200	-67
1.14567	-62
1.14933	-58
1.15300	-54
1.15667	-52
1.16033	-48
1.16400	-42
1.16767	-41
1.17133	-47
1.17500	-50
1.17867	-52
1.18233	-53
1.18600	-51
1.18967	-49
1.19333	-50
1.19700	-51
1.20067	-52
1.20433	-53
1.20800	-52
1.21167	-48
1.21533	-45
1.21900	-45
1.22267	-42
1.22633	-39
1.23000	-40
1.23367	-42
1.23733	-48
1.24100	-49
1.24467	-49
1.24833	-51
1.25200	-51
1.25567	-50
1.25933	-50
1.26300	-49
1.26667	-47
1.27033	-51
1.27400	-59
1.27767	-63
1.28133	-66
1.28500	-66
1.28867	-65
1.29233	-61
1.29600	-53
1.29967	-40
1.30333	-29
1.30700	-28
1.31067	-36
1.31433	-46
1.31800	-52
1.32167	-57
1.32533	-62
1.32900	-64
1.33267	-64
1.33633	-64
1.34000	-62
1.34367	-61
1.34733	-59
1.35100	-57
1.35467	-57
1.35833	-59
1.36200	-60
1.36567	-63
1.36933	-67
1.37300	-68
1.37667	-69
1.38033	-69
1.38400	-69
1.38767	-66
1.39133	-59
1.39500	-49
1.39867	-41
1.40233	-39
1.40600	-44
1.40967	-53
1.41333	-59
1.41700	-62
1.42067	-63
1.42433	-61
1.42800	-62
1.43167	-64
1.43533	-63
1.43900	-48
1.44267	27
1.44633	189
1.45000	375
1.45367	520
1.45733	607
1.46100	643
1.46467	646
1.46833	637
1.47200	636
1.47567	652
1.47933	676
1.48300	693
1.48667	684
1.49033	643
1.49400	573
1.49767	490
1.50133	411
1.50500	342
1.50867	280
1.51233	222
1.51600	170
1.51967	127
1.52333	96
1.52700	72
1.53067	52
1.53433	43
1.53800	98
1.54167	388
1.54533	1200
1.54900	2690
1.55267	4637
1.55633	6609
1.56000	8280
1.56367	9502
1.56733	10177
1.57100	10174
1.57467	9413
1.57833	8030
1.58200	6355
1.58567	4727
1.58933	3351
1.59300	2292
1.59667	1526
1.60033	998
1.60400	641
1.60767	403
1.61133	249
1.61500	149
1.61867	86
1.62233	42
1.62600	12
1.62967	-6
1.63333	-19
1.63700	-32
1.64067	-42
1.64433	-45
1.64800	-44
1.65167	-48
1.65533	-54
1.65900	-58
1.66267	-59
1.66633	-62
1.67000	-66
1.67367	-69
1.67733	-72
1.68100	-74
1.68467	-78
1.68833	-79
1.69200	-76
1.69567	-74
1.69933	-68
1.70300	-62
1.70667	-58
1.71033	-55
1.71400	-55
1.71767	-53
1.72133	-49
1.72500	-48
1.72867	-53
1.73233	-60
1.73600	-67
1.73967	-71
1.74333	-73
1.74700	-72
1.75067	-72
1.75433	-71
1.75800	-73
1.76167	-77
1.76533	-82
1.76900	-84
1.77267	-83
1.77633	-80
1.78000	-75
1.78367	-69
1.78733	-63
1.79100	-58
1.79467	-58
1.79833	-60
1.80200	-61
1.80567	-56
1.80933	-49
1.81300	-44
1.81667	-44
1.82033	-46
1.82400	-48
1.82767	-48
1.83133	-50
1.83500	-53
1.83867	-53
1.84233	-50
1.84600	-49
1.84967	-47
1.85333	-44
1.85700	-39
1.86067	-34
1.86433	-32
1.86800	-31
1.87167	-29
1.87533	-26
1.87900	-26
1.88267	-28
1.88633	-27
1.89000	-26
1.89367	-24
1.89733	-23
1.90100	-24
1.90467	-31
1.90833	-38
1.91200	-41
1.91567	-36
1.91933	-31
1.92300	-31
1.92667	-36
1.93033	-42
1.93400	-45
1.93767	-46
1.94133	-46
1.94500	-46
1.94867	-45
1.95233	-20
1.95600	137
1.95967	1038
1.96333	5203
1.96700	19855
1.97067	59483
1.97433	142394
1.97800	277776
1.98167	454176
1.98533	642619
1.98900	810116
1.99267	931078
1.99633	989298
2.00000	978524
2.00367	904088
2.00733	782600
2.01100	637939
2.01467	493528
2.01833	366023
2.02200	263176
2.02567	185540
2.02933	129629
2.03300	90625
2.03667	63958
2.04033	45923
2.04400	33765
2.04767	25533
2.05133	19899
2.05500	15976
2.05867	13190
2.06233	11166
2.06600	9656
2.06967	8499
2.07333	7589
2.07700	6860
2.08067	6264
2.08433	5765
2.08800	5340
2.09167	4973
2.09533	4649
2.09900	4366
2.10267	4118
2.10633	3901
2.11000	3708
2.11367	3534
2.11733	3371
2.12100	3217
2.12467	3072
2.12833	2936
2.13200	2809
2.13567	2693
2.13933	2583
2.14300	2478
2.14667	2379
2.15033	2292
2.15400	2215
2.15767	2147
2.16133	2085
2.16500	2024
2.16867	1961
2.17233	1899
2.17600	1839
2.17967	1784
2.18333	1732
2.18700	1683
2.19067	1642
2.19433	1604
2.19800	1568
2.20167	1535
2.20533	1503
2.20900	1472
2.21267	1441
2.21633	1409
2.22000	1374
2.22367	1336
2.22733	1301
2.23100	1266
2.23467	1231
2.23833	1201
2.24200	1179
2.24567	1159
2.24933	1140
2.25300	1119
2.25667	1098
2.26033	1076
2.26400	1054
2.26767	1032
2.27133	1015
2.27500	1003
2.27867	992
2.28233	979
2.28600	964
2.28967	949
2.29333	933
2.29700	918
2.30067	902
2.30433	884
2.30800	868
2.31167	857
2.31533	846
2.31900	835
2.32267	828
2.32633	829
2.33000	835
2.33367	836
2.33733	825
2.34100	806
2.34467	781
2.34833	762
2.35200	750
2.35567	743
2.35933	738
2.36300	733
2.36667	728
2.37033	722
2.37400	714
2.37767	703
2.38133	692
2.38500	684
2.38867	681
2.39233	680
2.39600	677
2.39967	672
2.40333	665
2.40700	659
2.41067	657
2.41433	660
2.41800	666
2.42167	671
2.42533	665
2.42900	649
2.43267	630
2.43633	616
2.44000	607
2.44367	603
2.44733	603
2.45100	603
2.45467	603
2.45833	601
2.46200	598
2.46567	596
2.46933	593
2.47300	585
2.47667	575
2.48033	565
2.48400	561
2.48767	560
2.49133	560
2.49500	559
2.49867	559
2.50233	558
2.50600	555
2.50967	551
2.51333	547
2.51700	545
2.52067	547
2.52433	550
2.52800	552
2.53167	554
2.53533	556
2.53900	555
2.54267	555
2.54633	555
2.55000	557
2.55367	557
2.55733	556
2.56100	554
2.56467	555
2.56833	557
2.57200	557
2.57567	554
2.57933	548
2.58300	542
2.58667	540
2.59033	540
2.59400	544
2.59767	549
2.60133	549
2.60500	541
2.60867	532
2.61233	524
2.61600	519
2.61967	517
2.62333	517
2.62700	518
2.63067	517
2.63433	513
2.63800	507
2.64167	503
2.64533	502
2.64900	505
2.65267	511
2.65633	515
2.66000	521
2.66367	529
2.66733	540
2.67100	551
2.67467	555
2.67833	552
2.68200	546
2.68567	543
2.68933	541
2.69300	541
2.69667	542
2.70033	543
2.70400	543
2.70767	543
2.71133	543
2.71500	541
2.71867	535
2.72233	531
2.72600	528
2.72967	526
2.73333	526
2.73700	530
2.74067	537
2.74433	543
2.74800	547
2.75167	544
2.75533	534
2.75900	526
2.76267	523
2.76633	521
2.77000	521
2.77367	518
2.77733	514
2.78100	520
2.78467	536
2.78833	550
2.79200	558
2.79567	564
2.79933	564
2.80300	559
2.80667	552
2.81033	547
2.81400	545
2.81767	547
2.82133	550
2.82500	551
2.82867	551
2.83233	547
2.83600	544
2.83967	540
2.84333	536
2.84700	536
2.85067	538
2.85433	539
2.85800	538
2.86167	540
2.86533	544
2.86900	549
2.87267	555
2.87633	558
2.88000	559
2.88367	560
2.88733	559
2.89100	558
2.89467	557
2.89833	558
2.90200	557
2.90567	552
2.90933	550
2.91300	552
2.91667	558
2.92033	562
2.92400	562
2.92767	563
2.93133	566
2.93500	567
2.93867	568
2.94233	570
2.94600	574
2.94967	576
2.95333	575
2.95700	572
2.96067	569
2.96433	566
2.96800	566
2.97167	568
2.97533	574
2.97900	583
2.98267	592
2.98633	598
2.99000	599
2.99367	590
2.99733	581
3.00100	575
3.00467	570
3.00833	566
3.01200	563
3.01567	563
3.01933	567
3.02300	570
3.02667	573
3.03033	573
3.03400	571
3.03767	568
3.04133	570
3.04500	573
3.04867	577
3.05233	580
3.05600	580
3.05967	579
3.06333	579
3.06700	577
3.07067	574
3.07433	576
3.07800	579
3.08167	578
3.08533	576
3.08900	578
3.09267	580
3.09633	578
3.10000	575
3.10367	573
3.10733	572
3.11100	572
3.11467	571
3.11833	570
3.12200	571
3.12567	572
3.12933	572
3.13300	567
3.13667	565
3.14033	570
3.14400	582
3.14767	589
3.15133	584
3.15500	573
3.15867	566
3.16233	565
3.16600	564
3.16967	559
3.17333	553
3.17700	549
3.18067	553
3.18433	560
3.18800	567
3.19167	566
3.19533	563
3.19900	564
3.20267	567
3.20633	569
3.21000	576
3.21367	581
3.21733	580
3.22100	576
3.22467	573
3.22833	568
3.23200	562
3.23567	558
3.23933	551
3.24300	545
3.24667	543
3.25033	543
3.25400	547
3.25767	553
3.26133	556
3.26500	558
3.26867	559
3.27233	559
3.27600	559
3.27967	560
3.28333	562
3.28700	561
3.29067	560
3.29433	563
3.29800	563
3.30167	559
3.30533	553
3.30900	550
3.31267	550
3.31633	550
3.32000	548
3.32367	545
3.32733	544
3.33100	545
3.33467	547
3.33833	552
3.34200	559
3.34567	563
3.34933	563
3.35300	561
3.35667	561
3.36033	565
3.36400	572
3.36767	576
3.37133	571
3.37500	560
3.37867	550
3.38233	541
3.38600	536
3.38967	536
3.39333	536
3.39700	538
3.40067	540
3.40433	543
3.40800	549
3.41167	556
3.41533	558
3.41900	556
3.42267	554
3.42633	551
3.43000	545
3.43367	536
3.43733	528
3.44100	526
3.44467	527
3.44833	531
3.45200	533
3.45567	529
3.45933	520
3.46300	512
3.46667	509
3.47033	510
3.47400	511
3.47767	512
3.48133	515
3.48500	514
3.48867	513
3.49233	511
3.49600	508
3.49967	504
3.50333	500
3.50700	497
3.51067	494
3.51433	493
3.51800	495
3.52167	499
3.52533	504
3.52900	504
3.53267	500
3.53633	495
3.54000	492
3.54367	493
3.54733	496
3.55100	499
3.55467	503
3.55833	505
3.56200	509
3.56567	508
3.56933	503
3.57300	497
3.57667	494
3.58033	494
3.58400	492
3.58767	493
3.59133	494
3.59500	493
3.59867	491
3.60233	489
3.60600	486
3.60967	482
3.61333	477
3.61700	473
3.62067	474
3.62433	480
3.62800	485
3.63167	487
3.63533	486
3.63900	485
3.64267	488
3.64633	490
3.65000	491
3.65367	491
3.65733	491
3.66100	488
3.66467	484
3.66833	482
3.67200	481
3.67567	478
3.67933	475
3.68300	471
3.68667	465
3.69033	460
3.69400	460
3.69767	465
3.70133	469
3.70500	470
3.70867	470
3.71233	473
3.71600	478
3.71967	477
3.72333	474
3.72700	473
3.73067	471
3.73433	470
3.73800	469
3.74167	468
3.74533	465
3.74900	464
3.75267	461
3.75633	457
3.76000	450
3.76367	443
3.76733	442
3.77100	449
3.77467	457
3.77833	460
3.78200	457
3.78567	447
3.78933	437
3.79300	430
3.79667	434
3.80033	444
3.80400	458
3.80767	464
3.81133	455
3.81500	443
3.81867	434
3.82233	429
3.82600	425
3.82967	421
3.83333	422
3.83700	424
3.84067	421
3.84433	417
3.84800	416
3.85167	419
3.85533	424
3.85900	429
3.86267	434
3.86633	439
3.87000	440
3.87367	434
3.87733	428
3.88100	424
3.88467	424
3.88833	423
3.89200	418
3.89567	413
3.89933	408
3.90300	404
3.90667	399
3.91033	398
3.91400	401
3.91767	405
3.92133	409
3.92500	408
3.92867	403
3.93233	399
3.93600	397
3.93967	396
3.94333	398
3.94700	400
3.95067	401
3.95433	402
3.95800	402
3.96167	400
3.96533	399
3.96900	400
3.97267	400
3.97633	397
3.98000	394
3.98367	393
3.98733	392
3.99100	392
3.99467	392
3.99833	396

[Chromatogram (Ch2)]
Interval(msec)	220
# of Points	1091
Start Time(min)	0.002
End Time(min)	3.998
R.Time (min)	Intensity
0.00167	1
0.00533	2
0.00900	2
0.01267	2
0.01633	2
0.02000	2
0.02367	3
0.02733	3
0.03100	3
0.03467	3
0.03833	3
0.04200	3
0.04567	3
0.04933	3
0.05300	3
0.05667	3
0.06033	3
0.06400	3
0.06767	3
0.07133	4
0.07500	4
0.07867	4
0.08233	5
0.08600	5
0.08967	4
0.09333	4
0.09700	4
0.10067	4
0.10433	4
0.10800	4
0.11167	3
0.11533	3
0.11900	3
0.12267	3
0.12633	2
0.13000	2
0.13367	2
0.13733	2
0.14100	2
0.14467	1
0.14833	1
0.15200	1
0.15567	1
0.15933	1
0.16300	1
0.16667	1
0.17033	1
0.17400	2
0.17767	2
0.18133	2
0.18500	2
0.18867	3
0.19233	3
0.19600	3
0.19967	3
0.20333	4
0.20700	4
0.21067	4
0.21433	4
0.21800	4
0.22167	4
0.22533	4
0.22900	4
0.23267	4
0.23633	4
0.24000	4
0.24367	4
0.24733	4
0.25100	4
0.25467	4
0.25833	3
0.26200	3
0.26567	3
0.26933	4
0.27300	4
0.27667	4
0.28033	4
0.28400	3
0.28767	3
0.29133	3
0.29500	3
0.29867	3
0.30233	2
0.30600	2
0.30967	2
0.31333	2
0.31700	1
0.32067	1
0.32433	1
0.32800	1
0.33167	1
0.33533	1
0.33900	1
0.34267	1
0.34633	1
0.35000	1
0.35367	1
0.35733	1
0.36100	1
0.36467	1
0.36833	1
0.37200	1
0.37567	0
0.37933	-0
0.38300	-1
0.38667	-1
0.39033	-1
0.39400	-2
0.39767	-2
0.40133	-2
0.40500	-2
0.40867	-2
0.41233	-3
0.41600	-3
0.41967	-3
0.42333	-3
0.42700	-3
0.43067	-3
0.43433	-3
0.43800	-3
0.44167	-3
0.44533	-3
0.44900	-3
0.45267	-2
0.45633	-2
0.46000	-2
0.46367	-2
0.46733	-2
0.47100	-2
0.47467	-2
0.47833	-1
0.48200	-1
0.48567	-1
0.48933	-1
0.49300	-1
0.49667	-0
0.50033	0
0.50400	0
0.50767	0
0.51133	0
0.51500	0
0.51867	1
0.52233	0
0.52600	0
0.52967	0
0.53333	1
0.53700	1
0.54067	1
0.54433	1
0.54800	1
0.55167	1
0.55533	1
0.55900	2
0.56267	2
0.56633	2
0.57000	3
0.57367	3
0.57733	3
0.58100	3
0.58467	3
0.58833	3
0.59200	3
0.59567	3
0.59933	3
0.60300	3
0.60667	2
0.61033	2
0.61400	2
0.61767	1
0.62133	1
0.62500	1
0.62867	0
0.63233	0
0.63600	-0
0.63967	-0
0.64333	0
0.64700	1
0.65067	1
0.65433	2
0.65800	2
0.66167	2
0.66533	3
0.66900	3
0.67267	4
0.67633	4
0.68000	4
0.68367	5
0.68733	5
0.69100	5
0.69467	5
0.69833	5
0.70200	5
0.70567	5
0.70933	5
0.71300	4
0.71667	4
0.72033	3
0.72400	3
0.72767	2
0.73133	2
0.73500	1
0.73867	1
0.74233	0
0.74600	-0
0.74967	-1
0.75333	-1
0.75700	-1
0.76067	-1
0.76433	-0
0.76800	-0
0.77167	-0
0.77533	0
0.77900	0
0.78267	0
0.78633	1
0.79000	1
0.79367	1
0.79733	1
0.80100	1
0.80467	1
0.80833	1
0.81200	1
0.81567	0
0.81933	0
0.82300	-0
0.82667	-0
0.83033	-0
0.83400	-1
0.83767	-1
0.84133	-1
0.84500	-1
0.84867	-1
0.85233	-1
0.85600	-1
0.85967	-1
0.86333	-1
0.86700	-1
0.87067	-1
0.87433	-1
0.87800	-1
0.88167	-1
0.88533	-1
0.88900	-1
0.89267	-1
0.89633	-1
0.90000	-0
0.90367	-0
0.90733	-0
0.91100	-0
0.91467	0
0.91833	0
0.92200	0
0.92567	1
0.92933	1
0.93300	1
0.93667	2
0.94033	2
0.94400	2
0.94767	2
0.95133	2
0.95500	2
0.95867	2
0.96233	1
0.96600	0
0.96967	-0
0.97333	-1
0.97700	-1
0.98067	-2
0.98433	-2
0.98800	-2
0.99167	-2
0.99533	-2
0.99900	-1
1.00267	-1
1.00633	-1
1.01000	-1
1.01367	-1
1.01733	-1
1.02100	-1
1.02467	-1
1.02833	-1
1.03200	-1
1.03567	-1
1.03933	-1
1.04300	-1
1.04667	-1
1.05033	-1
1.05400	-1
1.05767	-1
1.06133	-1
1.06500	-0
1.06867	-0
1.07233	-0
1.07600	-0
1.07967	-0
1.08333	0
1.08700	0
1.09067	1
1.09433	1
1.09800	2
1.10167	2
1.10533	3
1.10900	3
1.11267	3
1.11633	3
1.12000	3
1.12367	3
1.12733	3
1.13100	3
1.13467	3
1.13833	3
1.14200	3
1.14567	3
1.14933	2
1.15300	2
1.15667	2
1.16033	2
1.16400	1
1.16767	1
1.17133	1
1.17500	0
1.17867	0
1.18233	0
1.18600	-0
1.18967	-0
1.19333	-1
1.19700	-1
1.20067	-1
1.20433	-1
1.20800	-2
1.21167	-2
1.21533	-2
1.21900	-2
1.22267	-3
1.22633	-3
1.23000	-3
1.23367	-4
1.23733	-4
1.24100	-4
1.24467	-4
1.24833	-4
1.25200	-4
1.25567	-3
1.25933	-3
1.26300	-3
1.26667	-3
1.27033	-2
1.27400	-2
1.27767	-2
1.28133	-1
1.28500	-1
1.28867	-1
1.29233	-1
1.29600	-1
1.29967	-0
1.30333	-0
1.30700	0
1.31067	0
1.31433	0
1.31800	0
1.32167	0
1.32533	0
1.32900	0
1.33267	1
1.33633	1
1.34000	1
1.34367	2
1.34733	2
1.35100	2
1.35467	3
1.35833	3
1.36200	3
1.36567	3
1.36933	3
1.37300	3
1.37667	3
1.38033	3
1.38400	2
1.38767	2
1.39133	2
1.39500	2
1.39867	2
1.40233	1
1.40600	1
1.40967	1
1.41333	0
1.41700	-0
1.42067	-1
1.42433	-2
1.42800	-3
1.43167	-4
1.43533	-4
1.43900	-4
1.44267	-4
1.44633	-5
1.45000	-5
1.45367	-5
1.45733	-5
1.46100	-5
1.46467	-4
1.46833	-4
1.47200	-4
1.47567	-3
1.47933	-3
1.48300	-3
1.48667	-3
1.49033	-2
1.49400	-2
1.49767	-1
1.50133	-0
1.50500	0
1.50867	1
1.51233	1
1.51600	1
1.51967	1
1.52333	1
1.52700	0
1.53067	0
1.53433	-0
1.53800	-1
1.54167	-1
1.54533	-1
1.54900	-1
1.55267	-2
1.55633	-2
1.56000	-2
1.56367	-2
1.56733	-2
1.57100	-2
1.57467	-2
1.57833	-2
1.58200	-1
1.58567	-1
1.58933	-1
1.59300	-1
1.59667	-2
1.60033	-3
1.60400	-4
1.60767	-5
1.61133	-7
1.61500	-8
1.61867	-10
1.62233	-13
1.62600	-15
1.62967	-18
1.63333	-22
1.63700	-26
1.64067	-30
1.64433	-34
1.64800	-38
1.65167	-42
1.65533	-46
1.65900	-50
1.66267	-54
1.66633	-58
1.67000	-63
1.67367	-68
1.67733	-73
1.68100	-78
1.68467	-83
1.68833	-87
1.69200	-90
1.69567	-94
1.69933	-97
1.70300	-99
1.70667	-101
1.71033	-102
1.71400	-103
1.71767	-105
1.72133	-106
1.72500	-107
1.72867	-108
1.73233	-109
1.73600	-110
1.73967	-111
1.74333	-112
1.74700	-112
1.75067	-112
1.75433	-112
1.75800	-112
1.76167	-111
1.76533	-111
1.76900	-112
1.77267	-112
1.77633	-112
1.78000	-112
1.78367	-112
1.78733	-113
1.79100	-113
1.79467	-113
1.79833	-114
1.80200	-114
1.80567	-114
1.80933	-114
1.81300	-115
1.81667	-115
1.82033	-116
1.82400	-117
1.82767	-117
1.83133	-118
1.83500	-118
1.83867	-118
1.84233	-118
1.84600	-117
1.84967	-117
1.85333	-116
1.85700	-115
1.86067	-115
1.86433	-115
1.86800	-115
1.87167	-114
1.87533	-115
1.87900	-115
1.88267	-115
1.88633	-115
1.89000	-115
1.89367	-115
1.89733	-114
1.90100	-114
1.90467	-113
1.90833	-113
1.91200	-113
1.91567	-113
1.91933	-113
1.92300	-114
1.92667	-114
1.93033	-115
1.93400	-115
1.93767	-114
1.94133	-114
1.94500	-113
1.94867	-112
1.95233	-112
1.95600	-111
1.95967	-111
1.96333	-111
1.96700	-112
1.97067	-112
1.97433	-112
1.97800	-111
1.98167	-111
1.98533	-110
1.98900	-110
1.99267	-109
1.99633	-109
2.00000	-109
2.00367	-109
2.00733	-109
2.01100	-108
2.01467	-108
2.01833	-108
2.02200	-107
2.02567	-107
2.02933	-107
2.03300	-106
2.03667	-106
2.04033	-106
2.04400	-106
2.04767	-106
2.05133	-106
2.05500	-105
2.05867	-104
2.06233	-104
2.06600	-103
2.06967	-103
2.07333	-102
2.07700	-102
2.08067	-101
2.08433	-101
2.08800	-101
2.09167	-100
2.09533	-100
2.09900	-101
2.10267	-101
2.10633	-100
2.11000	-100
2.11367	-101
2.11733	-101
2.12100	-100
2.12467	-99
2.12833	-99
2.13200	-98
2.13567	-97
2.13933	-97
2.14300	-96
2.14667	-96
2.15033	-95
2.15400	-95
2.15767	-95
2.16133	-95
2.16500	-95
2.16867	-94
2.17233	-94
2.17600	-94
2.17967	-94
2.18333	-94
2.18700	-94
2.19067	-93
2.19433	-93
2.19800	-92
2.20167	-92
2.20533	-91
2.20900	-91
2.21267	-90
2.21633	-90
2.22000	-89
2.22367	-89
2.22733	-89
2.23100	-88
2.23467	-88
2.23833	-88
2.24200	-88
2.24567	-88
2.24933	-89
2.25300	-89
2.25667	-89
2.26033	-88
2.26400	-87
2.26767	-87
2.27133	-86
2.27500	-85
2.27867	-84
2.28233	-83
2.28600	-83
2.28967	-82
2.29333	-81
2.29700	-81
2.30067	-81
2.30433	-82
2.30800	-83
2.31167	-84
2.31533	-85
2.31900	-86
2.32267	-85
2.32633	-85
2.33000	-84
2.33367	-83
2.33733	-82
2.34100	-81
2.34467	-81
2.34833	-80
2.35200	-79
2.35567	-78
2.35933	-77
2.36300	-75
2.36667	-73
2.37033	-71
2.37400	-68
2.37767	-64
2.38133	-60
2.38500	-56
2.38867	-52
2.39233	-47
2.39600	-43
2.39967	-38
2.40333	-34
2.40700	-30
2.41067	-27
2.41433	-24
2.41800	-22
2.42167	-21
2.42533	-19
2.42900	-18
2.43267	-17
2.43633	-15
2.44000	-13
2.44367	-12
2.44733	-10
2.45100	-9
2.45467	-8
2.45833	-7
2.46200	-5
2.46567	-4
2.46933	-3
2.47300	-2
2.47667	-1
2.48033	-0
2.48400	1
2.48767	3
2.49133	4
2.49500	5
2.49867	6
2.50233	7
2.50600	7
2.50967	8
2.51333	9
2.51700	10
2.52067	11
2.52433	12
2.52800	13
2.53167	14
2.53533	14
2.53900	14
2.54267	14
2.54633	14
2.55000	14
2.55367	14
2.55733	15
2.56100	15
2.56467	15
2.56833	16
2.57200	16
2.57567	16
2.57933	16
2.58300	16
2.58667	15
2.59033	15
2.59400	14
2.59767	14
2.60133	14
2.60500	14
2.60867	15
2.61233	15
2.61600	16
2.61967	16
2.62333	17
2.62700	18
2.63067	19
2.63433	19
2.63800	20
2.64167	21
2.64533	21
2.64900	22
2.65267	22
2.65633	22
2.66000	21
2.66367	21
2.66733	21
2.67100	21
2.67467	22
2.67833	22
2.68200	22
2.68567	22
2.68933	23
2.69300	24
2.69667	24
2.70033	25
2.70400	26
2.70767	27
2.71133	27
2.71500	28
2.71867	28
2.72233	29
2.72600	29
2.72967	28
2.73333	28
2.73700	27
2.74067	26
2.74433	26
2.74800	25
2.75167	24
2.75533	24
2.75900	24
2.76267	24
2.76633	24
2.77000	24
2.77367	24
2.77733	24
2.78100	24
2.78467	24
2.78833	25
2.79200	26
2.79567	26
2.79933	26
2.80300	27
2.80667	27
2.81033	27
2.81400	27
2.81767	27
2.82133	27
2.82500	27
2.82867	27
2.83233	26
2.83600	25
2.83967	23
2.84333	19
2.84700	12
2.85067	2
2.85433	-11
2.85800	-28
2.86167	-51
2.86533	-78
2.86900	-111
2.87267	-150
2.87633	-193
2.88000	-242
2.88367	-296
2.88733	-355
2.89100	-418
2.89467	-485
2.89833	-555
2.90200	-628
2.90567	-705
2.90933	-784
2.91300	-865
2.91667	-949
2.92033	-1034
2.92400	-1122
2.92767	-1211
2.93133	-1301
2.93500	-1391
2.93867	-1471
2.94233	-1528
2.94600	-1552
2.94967	-1539
2.95333	-1493
2.95700	-1419
2.96067	-1325
2.96433	-1219
2.96800	-1107
2.97167	-995
2.97533	-886
2.97900	-783
2.98267	-688
2.98633	-600
2.99000	-522
2.99367	-452
2.99733	-390
3.00100	-336
3.00467	-288
3.00833	-246
3.01200	-211
3.01567	-179
3.01933	-152
3.02300	-129
3.02667	-109
3.03033	-92
3.03400	-77
3.03767	-65
3.04133	-54
3.04500	-45
3.04867	-37
3.05233	-30
3.05600	-24
3.05967	-19
3.06333	-14
3.06700	-11
3.07067	-8
3.07433	-5
3.07800	-3
3.08167	-1
3.08533	1
3.08900	3
3.09267	4
3.09633	5
3.10000	6
3.10367	7
3.10733	8
3.11100	9
3.11467	10
3.11833	11
3.12200	12
3.12567	12
3.12933	13
3.13300	13
3.13667	14
3.14033	14
3.14400	14
3.14767	15
3.15133	15
3.15500	15
3.15867	16
3.16233	16
3.16600	16
3.16967	16
3.17333	16
3.17700	16
3.18067	16
3.18433	16
3.18800	16
3.19167	17
3.19533	17
3.19900	17
3.20267	18
3.20633	18
3.21000	19
3.21367	20
3.21733	20
3.22100	21
3.22467	22
3.22833	22
3.23200	22
3.23567	23
3.23933	23
3.24300	24
3.24667	24
3.25033	24
3.25400	24
3.25767	24
3.26133	24
3.26500	24
3.26867	25
3.27233	25
3.27600	25
3.27967	25
3.28333	25
3.28700	26
3.29067	26
3.29433	26
3.29800	26
3.30167	26
3.30533	26
3.30900	27
3.31267	27
3.31633	26
3.32000	26
3.32367	26
3.32733	26
3.33100	26
3.33467	26
3.33833	26
3.34200	26
3.34567	27
3.34933	27
3.35300	27
3.35667	27
3.36033	28
3.36400	28
3.36767	28
3.37133	28
3.37500	28
3.37867	28
3.38233	28
3.38600	29
3.38967	29
3.39333	28
3.39700	28
3.40067	28
3.40433	27
3.40800	27
3.41167	27
3.41533	26
3.41900	26
3.42267	26
3.42633	26
3.43000	26
3.43367	25
3.43733	25
3.44100	25
3.44467	25
3.44833	25
3.45200	25
3.45567	25
3.45933	26
3.46300	26
3.46667	26
3.47033	26
3.47400	26
3.47767	26
3.48133	26
3.48500	26
3.48867	25
3.49233	26
3.49600	26
3.49967	26
3.50333	26
3.50700	26
3.51067	26
3.51433	26
3.51800	26
3.52167	27
3.52533	27
3.52900	27
3.53267	28
3.53633	28
3.54000	28
3.54367	28
3.54733	29
3.55100	29
3.55467	29
3.55833	29
3.56200	29
3.56567	30
3.56933	30
3.57300	30
3.57667	30
3.58033	30
3.58400	30
3.58767	30
3.59133	30
3.59500	31
3.59867	31
3.60233	31
3.60600	30
3.60967	30
3.61333	30
3.61700	30
3.62067	30
3.62433	30
3.62800	30
3.63167	30
3.63533	30
3.63900	30
3.64267	29
3.64633	29
3.65000	29
3.65367	29
3.65733	29
3.66100	29
3.66467	29
3.66833	29
3.67200	29
3.67567	29
3.67933	29
3.68300	29
3.68667	29
3.69033	29
3.69400	29
3.69767	28
3.70133	28
3.70500	28
3.70867	28
3.71233	28
3.71600	28
3.71967	28
3.72333	28
3.72700	28
3.73067	28
3.73433	28
3.73800	28
3.74167	29
3.74533	29
3.74900	28
3.75267	28
3.75633	28
3.76000	28
3.76367	28
3.76733	28
3.77100	28
3.77467	28
3.77833	28
3.78200	28
3.78567	27
3.78933	27
3.79300	26
3.79667	26
3.80033	25
3.80400	25
3.80767	24
3.81133	24
3.81500	23
3.81867	23
3.82233	23
3.82600	22
3.82967	22
3.83333	22
3.83700	22
3.84067	22
3.84433	22
3.84800	22
3.85167	22
3.85533	22
3.85900	22
3.86267	23
3.86633	23
3.87000	23
3.87367	24
3.87733	25
3.88100	26
3.88467	26
3.88833	27
3.89200	28
3.89567	28
3.89933	29
3.90300	29
3.90667	29
3.91033	29
3.91400	30
3.91767	30
3.92133	30
3.92500	30
3.92867	30
3.93233	30
3.93600	30
3.93967	30
3.94333	30
3.94700	30
3.95067	30
3.95433	29
3.95800	29
3.96167	29
3.96533	29
3.96900	29
3.97267	29
3.97633	29
3.98000	29
3.98367	29
3.98733	29
3.99100	29
3.99467	29
3.99833	29

[Chromatogram (Ch3)]
Interval(msec)	220
# of Points	1091
Start Time(min)	0.002
End Time(min)	3.998
R.Time (min)	Intensity
0.00167	1
0.00533	2
0.00900	4
0.01267	4
0.01633	5
0.02000	4
0.02367	1
0.02733	-1
0.03100	-2
0.03467	-1
0.03833	2
0.04200	1
0.04567	-0
0.04933	0
0.05300	0
0.05667	2
0.06033	3
0.06400	1
0.06767	0
0.07133	1
0.07500	0
0.07867	1
0.08233	-0
0.08600	1
0.08967	2
0.09333	3
0.09700	3
0.10067	3
0.10433	5
0.10800	5
0.11167	5
0.11533	5
0.11900	4
0.12267	2
0.12633	1
0.13000	3
0.13367	6
0.13733	7
0.14100	6
0.14467	4
0.14833	2
0.15200	1
0.15567	-1
0.15933	-0
0.16300	-0
0.16667	1
0.17033	1
0.17400	2
0.17767	4
0.18133	4
0.18500	4
0.18867	5
0.19233	3
0.19600	1
0.19967	1
0.20333	1
0.20700	2
0.21067	3
0.21433	3
0.21800	3
0.22167	4
0.22533	3
0.22900	3
0.23267	3
0.23633	3
0.24000	2
0.24367	3
0.24733	2
0.25100	-1
0.25467	-2
0.25833	-3
0.26200	-2
0.26567	-4
0.26933	-5
0.27300	-5
0.27667	-5
0.28033	-6
0.28400	-5
0.28767	-4
0.29133	-2
0.29500	-0
0.29867	1
0.30233	1
0.30600	3
0.30967	3
0.31333	3
0.31700	0
0.32067	-1
0.32433	2
0.32800	7
0.33167	10
0.33533	9
0.33900	6
0.34267	3
0.34633	2
0.35000	1
0.35367	1
0.35733	-0
0.36100	-1
0.36467	-1
0.36833	0
0.37200	2
0.37567	2
0.37933	3
0.38300	5
0.38667	6
0.39033	6
0.39400	6
0.39767	7
0.40133	8
0.40500	9
0.40867	9
0.41233	10
0.41600	9
0.41967	9
0.42333	7
0.42700	4
0.43067	4
0.43433	4
0.43800	4
0.44167	4
0.44533	5
0.44900	6
0.45267	7
0.45633	8
0.46000	7
0.46367	7
0.46733	10
0.47100	11
0.47467	11
0.47833	12
0.48200	12
0.48567	9
0.48933	7
0.49300	6
0.49667	6
0.50033	6
0.50400	6
0.50767	6
0.51133	7
0.51500	8
0.51867	8
0.52233	11
0.52600	10
0.52967	9
0.53333	9
0.53700	9
0.54067	9
0.54433	8
0.54800	6
0.55167	6
0.55533	7
0.55900	8
0.56267	9
0.56633	7
0.57000	5
0.57367	3
0.57733	2
0.58100	3
0.58467	7
0.58833	8
0.59200	8
0.59567	8
0.59933	7
0.60300	7
0.60667	9
0.61033	11
0.61400	12
0.61767	10
0.62133	8
0.62500	7
0.62867	7
0.63233	7
0.63600	8
0.63967	10
0.64333	12
0.64700	12
0.65067	12
0.65433	12
0.65800	11
0.66167	11
0.66533	11
0.66900	13
0.67267	17
0.67633	19
0.68000	18
0.68367	14
0.68733	13
0.69100	13
0.69467	13
0.69833	15
0.70200	16
0.70567	16
0.70933	14
0.71300	13
0.71667	12
0.72033	11
0.72400	12
0.72767	14
0.73133	15
0.73500	15
0.73867	14
0.74233	11
0.74600	8
0.74967	7
0.75333	7
0.75700	8
0.76067	10
0.76433	12
0.76800	12
0.77167	11
0.77533	10
0.77900	11
0.78267	12
0.78633	14
0.79000	14
0.79367	13
0.79733	12
0.80100	13
0.80467	13
0.80833	13
0.81200	13
0.81567	14
0.81933	13
0.82300	12
0.82667	11
0.83033	10
0.83400	9
0.83767	8
0.84133	6
0.84500	6
0.84867	8
0.85233	10
0.85600	12
0.85967	10
0.86333	7
0.86700	6
0.87067	6
0.87433	10
0.87800	10
0.88167	8
0.88533	8
0.88900	8
0.89267	7
0.89633	6
0.90000	6
0.90367	6
0.90733	6
0.91100	6
0.91467	7
0.91833	7
0.92200	7
0.92567	6
0.92933	7
0.93300	8
0.93667	8
0.94033	9
0.94400	9
0.94767	9
0.95133	9
0.95500	11
0.95867	11
0.96233	9
0.96600	7
0.96967	8
0.97333	9
0.97700	9
0.98067	7
0.98433	8
0.98800	8
0.99167	11
0.99533	15
0.99900	17
1.00267	19
1.00633	18
1.01000	17
1.01367	16
1.01733	16
1.02100	14
1.02467	13
1.02833	13
1.03200	11
1.03567	11
1.03933	12
1.04300	13
1.04667	13
1.05033	11
1.05400	10
1.05767	10
1.06133	12
1.06500	12
1.06867	13
1.07233	13
1.07600	14
1.07967	15
1.08333	15
1.08700	15
1.09067	14
1.09433	12
1.09800	10
1.10167	9
1.10533	9
1.10900	9
1.11267	9
1.11633	9
1.12000	9
1.12367	9
1.12733	9
1.13100	10
1.13467	10
1.13833	10
1.14200	11
1.14567	12
1.14933	14
1.15300	15
1.15667	12
1.16033	8
1.16400	10
1.16767	12
1.17133	11
1.17500	11
1.17867	10
1.18233	10
1.18600	10
1.18967	10
1.19333	11
1.19700	13
1.20067	14
1.20433	14
1.20800	14
1.21167	12
1.21533	11
1.21900	12
1.22267	12
1.22633	10
1.23000	8
1.23367	6
1.23733	8
1.24100	8
1.24467	9
1.24833	10
1.25200	10
1.25567	9
1.25933	7
1.26300	7
1.26667	9
1.27033	11
1.27400	12
1.27767	11
1.28133	11
1.28500	9
1.28867	7
1.29233	6
1.29600	6
1.29967	7
1.30333	7
1.30700	8
1.31067	10
1.31433	13
1.31800	12
1.32167	10
1.32533	9
1.32900	9
1.33267	10
1.33633	11
1.34000	12
1.34367	10
1.34733	9
1.35100	10
1.35467	8
1.35833	8
1.36200	9
1.36567	10
1.36933	11
1.37300	12
1.37667	12
1.38033	13
1.38400	15
1.38767	14
1.39133	15
1.39500	16
1.39867	14
1.40233	14
1.40600	14
1.40967	12
1.41333	12
1.41700	11
1.42067	11
1.42433	12
1.42800	12
1.43167	12
1.43533	14
1.43900	15
1.44267	14
1.44633	12
1.45000	8
1.45367	4
1.45733	2
1.46100	2
1.46467	4
1.46833	4
1.47200	3
1.47567	3
1.47933	4
1.48300	6
1.48667	8
1.49033	9
1.49400	10
1.49767	10
1.50133	8
1.50500	7
1.50867	6
1.51233	5
1.51600	6
1.51967	5
1.52333	3
1.52700	1
1.53067	-0
1.53433	0
1.53800	2
1.54167	6
1.54533	8
1.54900	10
1.55267	11
1.55633	11
1.56000	11
1.56367	10
1.56733	10
1.57100	9
1.57467	9
1.57833	10
1.58200	11
1.58567	9
1.58933	7
1.59300	8
1.59667	8
1.60033	10
1.60400	12
1.60767	12
1.61133	12
1.61500	13
1.61867	12
1.62233	10
1.62600	10
1.62967	11
1.63333	10
1.63700	9
1.64067	9
1.64433	9
1.64800	8
1.65167	9
1.65533	10
1.65900	10
1.66267	11
1.66633	12
1.67000	14
1.67367	16
1.67733	17
1.68100	16
1.68467	16
1.68833	19
1.69200	21
1.69567	20
1.69933	19
1.70300	16
1.70667	15
1.71033	14
1.71400	15
1.71767	17
1.72133	18
1.72500	19
1.72867	20
1.73233	21
1.73600	21
1.73967	20
1.74333	21
1.74700	22
1.75067	22
1.75433	22
1.75800	22
1.76167	23
1.76533	25
1.76900	27
1.77267	25
1.77633	23
1.78000	23
1.78367	23
1.78733	23
1.79100	22
1.79467	20
1.79833	21
1.80200	23
1.80567	25
1.80933	25
1.81300	26
1.81667	28
1.82033	28
1.82400	29
1.82767	31
1.83133	34
1.83500	34
1.83867	33
1.84233	31
1.84600	29
1.84967	26
1.85333	24
1.85700	24
1.86067	24
1.86433	24
1.86800	25
1.87167	29
1.87533	30
1.87900	31
1.88267	32
1.88633	34
1.89000	34
1.89367	34
1.89733	35
1.90100	35
1.90467	34
1.90833	35
1.91200	36
1.91567	35
1.91933	36
1.92300	38
1.92667	39
1.93033	39
1.93400	38
1.93767	38
1.94133	37
1.94500	35
1.94867	36
1.95233	35
1.95600	36
1.95967	37
1.96333	39
1.96700	43
1.97067	45
1.97433	44
1.97800	45
1.98167	48
1.98533	49
1.98900	48
1.99267	45
1.99633	44
2.00000	44
2.00367	45
2.00733	44
2.01100	44
2.01467	45
2.01833	46
2.02200	48
2.02567	50
2.02933	51
2.03300	50
2.03667	52
2.04033	55
2.04400	57
2.04767	57
2.05133	57
2.05500	56
2.05867	57
2.06233	58
2.06600	58
2.06967	58
2.07333	58
2.07700	60
2.08067	62
2.08433	62
2.08800	61
2.09167	61
2.09533	62
2.09900	65
2.10267	69
2.10633	71
2.11000	70
2.11367	68
2.11733	66
2.12100	67
2.12467	68
2.12833	68
2.13200	68
2.13567	71
2.13933	73
2.14300	76
2.14667	78
2.15033	80
2.15400	81
2.15767	80
2.16133	79
2.16500	78
2.16867	79
2.17233	80
2.17600	83
2.17967	84
2.18333	86
2.18700	88
2.19067	89
2.19433	89
2.19800	90
2.20167	92
2.20533	93
2.20900	93
2.21267	94
2.21633	95
2.22000	95
2.22367	96
2.22733	97
2.23100	100
2.23467	103
2.23833	104
2.24200	105
2.24567	104
2.24933	104
2.25300	105
2.25667	106
2.26033	108
2.26400	110
2.26767	113
2.27133	114
2.27500	112
2.27867	111
2.28233	113
2.28600	117
2.28967	121
2.29333	122
2.29700	123
2.30067	125
2.30433	127
2.30800	129
2.31167	132
2.31533	134
2.31900	135
2.32267	133
2.32633	132
2.33000	135
2.33367	137
2.33733	139
2.34100	139
2.34467	142
2.34833	145
2.35200	146
2.35567	147
2.35933	147
2.36300	148
2.36667	149
2.37033	150
2.37400	153
2.37767	154
2.38133	155
2.38500	156
2.38867	156
2.39233	158
2.39600	160
2.39967	163
2.40333	166
2.40700	167
2.41067	171
2.41433	175
2.41800	179
2.42167	181
2.42533	185
2.42900	189
2.43267	192
2.43633	195
2.44000	197
2.44367	224
2.44733	293
2.45100	355
2.45467	393
2.45833	408
2.46200	390
2.46567	353
2.46933	317
2.47300	289
2.47667	268
2.48033	257
2.48400	247
2.48767	231
2.49133	210
2.49500	188
2.49867	169
2.50233	155
2.50600	144
2.50967	136
2.51333	131
2.51700	130
2.52067	130
2.52433	138
2.52800	152
2.53167	167
2.53533	182
2.53900	193
2.54267	199
2.54633	199
2.55000	193
2.55367	181
2.55733	169
2.56100	157
2.56467	146
2.56833	137
2.57200	130
2.57567	127
2.57933	127
2.58300	128
2.58667	129
2.59033	129
2.59400	127
2.59767	122
2.60133	111
2.60500	97
2.60867	79
2.61233	58
2.61600	36
2.61967	14
2.62333	-6
2.62700	-20
2.63067	-31
2.63433	-39
2.63800	-37
2.64167	-29
2.64533	-21
2.64900	-9
2.65267	4
2.65633	19
2.66000	33
2.66367	48
2.66733	61
2.67100	71
2.67467	79
2.67833	87
2.68200	93
2.68567	98
2.68933	104
2.69300	107
2.69667	109
2.70033	111
2.70400	113
2.70767	113
2.71133	112
2.71500	112
2.71867	111
2.72233	111
2.72600	113
2.72967	115
2.73333	118
2.73700	121
2.74067	123
2.74433	126
2.74800	128
2.75167	132
2.75533	138
2.75900	144
2.76267	149
2.76633	152
2.77000	156
2.77367	159
2.77733	162
2.78100	162
2.78467	162
2.78833	163
2.79200	163
2.79567	163
2.79933	165
2.80300	170
2.80667	175
2.81033	180
2.81400	191
2.81767	221
2.82133	297
2.82500	457
2.82867	761
2.83233	1276
2.83600	2063
2.83967	3163
2.84333	4575
2.84700	6251
2.85067	8100
2.85433	10001
2.85800	11810
2.86167	13389
2.86533	14624
2.86900	15438
2.87267	15808
2.87633	15751
2.88000	15326
2.88367	14613
2.88733	13698
2.89100	12663
2.89467	11572
2.89833	10480
2.90200	9418
2.90567	8414
2.90933	7483
2.91300	6629
2.91667	5859
2.92033	5168
2.92400	4551
2.92767	4004
2.93133	3519
2.93500	3091
2.93867	2717
2.94233	2391
2.94600	2106
2.94967	1858
2.95333	1642
2.95700	1454
2.96067	1289
2.96433	1148
2.96800	1027
2.97167	920
2.97533	829
2.97900	751
2.98267	684
2.98633	626
2.99000	575
2.99367	531
2.99733	494
3.00100	462
3.00467	435
3.00833	411
3.01200	391
3.01567	372
3.01933	356
3.02300	339
3.02667	323
3.03033	309
3.03400	299
3.03767	289
3.04133	279
3.04500	271
3.04867	266
3.05233	264
3.05600	260
3.05967	255
3.06333	251
3.06700	249
3.07067	244
3.07433	238
3.07800	233
3.08167	230
3.08533	231
3.08900	229
3.09267	225
3.09633	223
3.10000	221
3.10367	220
3.10733	220
3.11100	219
3.11467	218
3.11833	218
3.12200	218
3.12567	215
3.12933	214
3.13300	212
3.13667	210
3.14033	210
3.14400	210
3.14767	208
3.15133	208
3.15500	207
3.15867	205
3.16233	204
3.16600	205
3.16967	206
3.17333	204
3.17700	202
3.18067	202
3.18433	201
3.18800	202
3.19167	200
3.19533	197
3.19900	197
3.20267	200
3.20633	201
3.21000	202
3.21367	202
3.21733	202
3.22100	202
3.22467	204
3.22833	203
3.23200	202
3.23567	202
3.23933	201
3.24300	200
3.24667	197
3.25033	195
3.25400	197
3.25767	200
3.26133	200
3.26500	199
3.26867	198
3.27233	198
3.27600	197
3.27967	196
3.28333	198
3.28700	198
3.29067	197
3.29433	196
3.29800	196
3.30167	194
3.30533	189
3.30900	171
3.31267	133
3.31633	93
3.32000	71
3.32367	67
3.32733	76
3.33100	94
3.33467	119
3.33833	152
3.34200	192
3.34567	234
3.34933	275
3.35300	315
3.35667	354
3.36033	390
3.36400	422
3.36767	452
3.37133	481
3.37500	507
3.37867	527
3.38233	543
3.38600	558
3.38967	571
3.39333	580
3.39700	588
3.40067	599
3.40433	611
3.40800	621
3.41167	630
3.41533	638
3.41900	644
3.42267	649
3.42633	654
3.43000	661
3.43367	665
3.43733	667
3.44100	670
3.44467	672
3.44833	677
3.45200	683
3.45567	688
3.45933	692
3.46300	693
3.46667	694
3.47033	695
3.47400	697
3.47767	700
3.48133	701
3.48500	700
3.48867	699
3.49233	698
3.49600	696
3.49967	695
3.50333	695
3.50700	693
3.51067	689
3.51433	684
3.51800	683
3.52167	681
3.52533	678
3.52900	674
3.53267	669
3.53633	668
3.54000	666
3.54367	663
3.54733	662
3.55100	658
3.55467	655
3.55833	651
3.56200	647
3.56567	645
3.56933	642
3.57300	639
3.57667	637
3.58033	634
3.58400	632
3.58767	627
3.59133	623
3.59500	622
3.59867	620
3.60233	617
3.60600	615
3.60967	611
3.61333	607
3.61700	603
3.62067	600
3.62433	596
3.62800	595
3.63167	593
3.63533	591
3.63900	591
3.64267	590
3.64633	590
3.65000	589
3.65367	586
3.65733	585
3.66100	583
3.66467	580
3.66833	579
3.67200	577
3.67567	575
3.67933	574
3.68300	572
3.68667	570
3.69033	570
3.69400	568
3.69767	567
3.70133	567
3.70500	567
3.70867	565
3.71233	562
3.71600	560
3.71967	557
3.72333	555
3.72700	554
3.73067	552
3.73433	549
3.73800	551
3.74167	550
3.74533	548
3.74900	546
3.75267	544
3.75633	546
3.76000	545
3.76367	543
3.76733	540
3.77100	538
3.77467	536
3.77833	534
3.78200	533
3.78567	533
3.78933	533
3.79300	531
3.79667	528
3.80033	527
3.80400	525
3.80767	523
3.81133	522
3.81500	521
3.81867	520
3.82233	521
3.82600	524
3.82967	525
3.83333	525
3.83700	523
3.84067	521
3.84433	521
3.84800	520
3.85167	518
3.85533	514
3.85900	512
3.86267	512
3.86633	513
3.87000	515
3.87367	517
3.87733	516
3.88100	515
3.88467	514
3.88833	515
3.89200	517
3.89567	515
3.89933	513
3.90300	511
3.90667	509
3.91033	504
3.91400	503
3.91767	505
3.92133	507
3.92500	505
3.92867	504
3.93233	504
3.93600	504
3.93967	503
3.94333	505
3.94700	505
3.95067	501
3.95433	497
3.95800	497
3.96167	497
3.96533	500
3.96900	501
3.97267	501
3.97633	501
3.98000	498
3.98367	496
3.98733	496
3.99100	495
3.99467	493
3.99833	493

[Status Trace (Column Oven Temperature)]
Interval(msec)	1000
# of Points	240
Start Time(min)	0.013
End Time(min)	3.996
Intensity Units	
Intensity Multiplier	1
R.Time (min)	Intensity
0.01262	35.05
0.02928	35.05
0.04595	35.03
0.06262	35.03
0.07928	35.02
0.09595	35.02
0.11262	35.02
0.12928	35.03
0.14595	35.04
0.16262	35.04
0.17928	35.04
0.19595	35.03
0.21262	35.03
0.22928	35.01
0.24595	35.00
0.26262	34.99
0.27928	34.99
0.29595	34.98
0.31262	34.98
0.32928	34.99
0.34595	34.98
0.36262	34.99
0.37928	35.00
0.39595	35.01
0.41262	35.02
0.42928	35.03
0.44595	35.04
0.46262	35.04
0.47928	35.05
0.49595	35.05
0.51262	35.04
0.52928	35.04
0.54595	35.04
0.56262	35.03
0.57928	35.03
0.59595	35.02
0.61262	35.03
0.62928	35.04
0.64595	35.03
0.66262	35.02
0.67928	35.00
0.69595	34.98
0.71262	34.98
0.72928	34.98
0.74595	34.99
0.76262	34.99
0.77928	34.99
0.79595	34.99
0.81262	34.99
0.82928	35.00
0.84595	35.00
0.86262	35.01
0.87928	35.01
0.89595	35.02
0.91262	35.02
0.92928	35.00
0.94595	35.00
0.96262	35.01
0.97928	35.01
0.99595	35.01
1.01262	35.02
1.02928	35.02
1.04595	35.02
1.06262	35.01
1.07928	35.01
1.09595	35.00
1.11262	34.99
1.12928	34.98
1.14595	34.98
1.16262	34.98
1.17928	34.98
1.19595	34.98
1.21262	34.99
1.22928	35.00
1.24595	35.01
1.26262	35.01
1.27928	35.00
1.29595	35.00
1.31262	34.99
1.32928	34.98
1.34595	34.97
1.36262	34.95
1.37928	34.94
1.39595	34.94
1.41262	34.96
1.42928	34.99
1.44595	34.99
1.46262	35.00
1.47928	35.01
1.49595	35.00
1.51262	34.99
1.52928	34.99
1.54595	35.00
1.56262	35.00
1.57928	35.00
1.59595	35.02
1.61262	35.09
1.62928	35.23
1.64595	35.43
1.66262	35.71
1.67928	36.06
1.69595	36.42
1.71262	36.77
1.72928	37.11
1.74595	37.45
1.76262	37.78
1.77928	38.10
1.79595	38.44
1.81262	38.76
1.82928	39.12
1.84595	39.42
1.86262	39.75
1.87928	40.10
1.89595	40.42
1.91262	40.75
1.92928	41.09
1.94595	41.41
1.96262	41.74
1.97928	42.06
1.99595	42.38
2.01262	42.70
2.02928	43.04
2.04595	43.37
2.06262	43.69
2.07928	44.01
2.09595	44.34
2.11262	44.67
2.12928	45.00
2.14595	45.31
2.16262	45.64
2.17928	45.96
2.19595	46.28
2.21262	46.60
2.22928	46.91
2.24595	47.27
2.26262	47.60
2.27928	47.92
2.29595	48.25
2.31262	48.63
2.32928	48.94
2.34595	49.24
2.36262	49.50
2.37928	49.63
2.39595	49.63
2.41262	49.64
2.42928	49.66
2.44595	49.66
2.46262	49.68
2.47928	49.69
2.49595	49.71
2.51262	49.72
2.52928	49.73
2.54595	49.75
2.56262	49.76
2.57928	49.78
2.59595	49.83
2.61262	49.85
2.62928	49.85
2.64595	49.84
2.66262	49.87
2.67928	49.88
2.69595	49.86
2.71262	49.84
2.72928	49.84
2.74595	49.88
2.76262	49.90
2.77928	49.91
2.79595	49.89
2.81262	49.90
2.82928	49.91
2.84595	49.92
2.86262	49.93
2.87928	49.93
2.89595	49.94
2.91262	49.94
2.92928	49.95
2.94595	49.95
2.96262	49.96
2.97928	49.97
2.99595	50.00
3.01262	50.01
3.02928	50.02
3.04595	50.03
3.06262	50.05
3.07928	50.05
3.09595	50.04
3.11262	50.05
3.12928	50.06
3.14595	50.08
3.16262	50.09
3.17928	50.10
3.19595	50.11
3.21262	50.11
3.22928	50.10
3.24595	50.09
3.26262	50.09
3.27928	50.08
3.29595	50.07
3.31262	50.07
3.32928	50.07
3.34595	50.06
3.36262	50.06
3.37928	50.04
3.39595	50.04
3.41262	50.05
3.42928	50.06
3.44595	50.07
3.46262	50.08
3.47928	50.09
3.49595	50.09
3.51262	50.09
3.52928	50.08
3.54595	50.08
3.56262	50.07
3.57928	50.06
3.59595	50.05
3.61262	50.04
3.62928	50.04
3.64595	50.04
3.66262	50.04
3.67928	50.03
3.69595	50.03
3.71262	50.03
3.72928	50.02
3.74595	50.02
3.76262	50.02
3.77928	50.03
3.79595	50.05
3.81262	50.07
3.82928	50.08
3.84595	50.10
3.86262	50.11
3.87928	50.09
3.89595	50.07
3.91262	50.04
3.92928	50.04
3.94595	50.03
3.96262	50.02
3.97928	50.02
3.99595	50.01

[Status Trace (Injection Unit Temperature)]
Interval(msec)	1000
# of Points	240
Start Time(min)	0.013
End Time(min)	3.996
Intensity Units	
Intensity Multiplier	1
R.Time (min)	Intensity
0.01262	99.97
0.02928	99.97
0.04595	99.98
0.06262	99.98
0.07928	99.98
0.09595	99.98
0.11262	99.98
0.12928	99.98
0.14595	99.98
0.16262	99.98
0.17928	99.98
0.19595	99.98
0.21262	99.98
0.22928	99.98
0.24595	99.97
0.26262	99.98
0.27928	99.98
0.29595	99.98
0.31262	99.98
0.32928	99.98
0.34595	99.98
0.36262	99.98
0.37928	99.98
0.39595	99.98
0.41262	99.98
0.42928	99.98
0.44595	99.98
0.46262	99.98
0.47928	99.98
0.49595	99.98
0.51262	99.98
0.52928	99.98
0.54595	99.98
0.56262	99.98
0.57928	99.99
0.59595	99.98
0.61262	99.99
0.62928	99.98
0.64595	99.98
0.66262	99.98
0.67928	99.98
0.69595	99.98
0.71262	99.98
0.72928	99.98
0.74595	99.98
0.76262	99.98
0.77928	99.98
0.79595	99.98
0.81262	99.98
0.82928	99.98
0.84595	99.98
0.86262	99.97
0.87928	99.98
0.89595	99.98
0.91262	99.98
0.92928	99.98
0.94595	99.98
0.96262	99.98
0.97928	99.98
0.99595	99.98
1.01262	99.98
1.02928	99.98
1.04595	99.98
1.06262	99.98
1.07928	99.98
1.09595	99.98
1.11262	99.98
1.12928	99.98
1.14595	99.98
1.16262	99.98
1.17928	99.98
1.19595	99.98
1.21262	99.98
1.22928	99.98
1.24595	99.97
1.26262	99.98
1.27928	99.97
1.29595	99.97
1.31262	99.98
1.32928	99.98
1.34595	99.98
1.36262	99.98
1.37928	99.98
1.39595	99.98
1.41262	99.97
1.42928	99.98
1.44595	99.98
1.46262	99.98
1.47928	99.98
1.49595	99.98
1.51262	99.98
1.52928	99.98
1.54595	99.98
1.56262	99.98
1.57928	99.99
1.59595	99.99
1.61262	99.98
1.62928	99.98
1.64595	99.97
1.66262	99.98
1.67928	99.98
1.69595	99.98
1.71262	99.98
1.72928	99.98
1.74595	99.98
1.76262	99.98
1.77928	99.98
1.79595	99.98
1.81262	99.97
1.82928	99.98
1.84595	99.98
1.86262	99.98
1.87928	99.98
1.89595	99.98
1.91262	99.97
1.92928	99.97
1.94595	99.98
1.96262	99.97
1.97928	99.97
1.99595	99.98
2.01262	99.97
2.02928	99.97
2.04595	99.97
2.06262	99.97
2.07928	99.97
2.09595	99.97
2.11262	99.97
2.12928	99.97
2.14595	99.97
2.16262	99.97
2.17928	99.97
2.19595	99.97
2.21262	99.96
2.22928	99.96
2.24595	99.96
2.26262	99.97
2.27928	99.97
2.29595	99.96
2.31262	99.96
2.32928	99.97
2.34595	99.96
2.36262	99.96
2.37928	99.97
2.39595	99.96
2.41262	99.97
2.42928	99.97
2.44595	99.96
2.46262	99.96
2.47928	99.97
2.49595	99.97
2.51262	99.96
2.52928	99.96
2.54595	99.97
2.56262	99.97
2.57928	99.97
2.59595	99.97
2.61262	99.97
2.62928	99.97
2.64595	99.97
2.66262	99.98
2.67928	99.98
2.69595	99.97
2.71262	99.98
2.72928	99.98
2.74595	99.98
2.76262	99.99
2.77928	99.98
2.79595	99.99
2.81262	99.99
2.82928	99.99
2.84595	100.00
2.86262	99.99
2.87928	99.99
2.89595	100.00
2.91262	100.00
2.92928	100.00
2.94595	100.00
2.96262	100.00
2.97928	100.00
2.99595	100.01
3.01262	100.01
3.02928	100.01
3.04595	100.01
3.06262	100.01
3.07928	100.01
3.09595	100.01
3.11262	100.02
3.12928	100.02
3.14595	100.02
3.16262	100.02
3.17928	100.02
3.19595	100.02
3.21262	100.01
3.22928	100.02
3.24595	100.02
3.26262	100.02
3.27928	100.03
3.29595	100.03
3.31262	100.02
3.32928	100.03
3.34595	100.03
3.36262	100.03
3.37928	100.03
3.39595	100.03
3.41262	100.03
3.42928	100.03
3.44595	100.04
3.46262	100.03
3.47928	100.04
3.49595	100.04
3.51262	100.04
3.52928	100.04
3.54595	100.03
3.56262	100.04
3.57928	100.04
3.59595	100.05
3.61262	100.04
3.62928	100.05
3.64595	100.04
3.66262	100.04
3.67928	100.05
3.69595	100.04
3.71262	100.05
3.72928	100.05
3.74595	100.05
3.76262	100.04
3.77928	100.05
3.79595	100.05
3.81262	100.05
3.82928	100.05
3.84595	100.05
3.86262	100.05
3.87928	100.04
3.89595	100.06
3.91262	100.05
3.92928	100.05
3.94595	100.05
3.96262	100.05
3.97928	100.05
3.99595	100.05

[Status Trace (Carrier Gas Pressure)]
Interval(msec)	1000
# of Points	240
Start Time(min)	0.013
End Time(min)	3.996
Intensity Units	
Intensity Multiplier	1
R.Time (min)	Intensity
0.01262	57.98
0.02928	55.01
0.04595	57.78
0.06262	59.70
0.07928	58.87
0.09595	57.99
0.11262	57.99
0.12928	58.01
0.14595	58.01
0.16262	58.00
0.17928	58.00
0.19595	58.00
0.21262	58.00
0.22928	58.00
0.24595	58.00
0.26262	58.00
0.27928	58.00
0.29595	58.00
0.31262	58.00
0.32928	58.00
0.34595	58.00
0.36262	58.00
0.37928	58.00
0.39595	58.00
0.41262	58.00
0.42928	58.00
0.44595	58.00
0.46262	58.00
0.47928	58.00
0.49595	58.00
0.51262	58.00
0.52928	58.00
0.54595	58.00
0.56262	58.00
0.57928	58.00
0.59595	58.00
0.61262	58.00
0.62928	58.00
0.64595	58.00
0.66262	58.00
0.67928	58.00
0.69595	58.00
0.71262	58.00
0.72928	58.00
0.74595	58.00
0.76262	58.00
0.77928	58.00
0.79595	58.00
0.81262	58.00
0.82928	58.00
0.84595	58.00
0.86262	58.00
0.87928	58.00
0.89595	58.00
0.91262	58.00
0.92928	58.00
0.94595	58.00
0.96262	58.00
0.97928	58.00
0.99595	58.00
1.01262	58.00
1.02928	58.00
1.04595	58.00
1.06262	58.00
1.07928	58.00
1.09595	58.00
1.11262	58.00
1.12928	58.00
1.14595	58.00
1.16262	58.00
1.17928	58.00
1.19595	58.00
1.21262	58.00
1.22928	58.00
1.24595	58.00
1.26262	58.00
1.27928	58.00
1.29595	58.00
1.31262	58.00
1.32928	58.00
1.34595	58.00
1.36262	58.00
1.37928	58.00
1.39595	58.00
1.41262	58.00
1.42928	58.00
1.44595	58.00
1.46262	58.00
1.47928	58.00
1.49595	58.00
1.51262	58.00
1.52928	58.00
1.54595	58.00
1.56262	58.00
1.57928	58.00
1.59595	58.00
1.61262	58.00
1.62928	58.00
1.64595	58.00
1.66262	58.01
1.67928	58.01
1.69595	58.00
1.71262	58.00
1.72928	58.00
1.74595	58.00
1.76262	58.00
1.77928	58.00
1.79595	58.00
1.81262	58.00
1.82928	58.00
1.84595	58.00
1.86262	58.00
1.87928	58.00
1.89595	58.00
1.91262	58.00
1.92928	58.00
1.94595	58.00
1.96262	58.00
1.97928	58.00
1.99595	58.00
2.01262	58.00
2.02928	58.00
2.04595	58.00
2.06262	58.00
2.07928	58.00
2.09595	58.00
2.11262	58.00
2.12928	58.00
2.14595	58.00
2.16262	58.00
2.17928	58.00
2.19595	58.00
2.21262	58.00
2.22928	58.00
2.24595	58.00
2.26262	58.00
2.27928	58.00
2.29595	58.00
2.31262	58.00
2.32928	58.00
2.34595	58.00
2.36262	58.00
2.37928	57.99
2.39595	57.99
2.41262	58.00
2.42928	58.00
2.44595	58.00
2.46262	58.00
2.47928	58.00
2.49595	58.00
2.51262	57.99
2.52928	57.99
2.54595	58.00
2.56262	58.00
2.57928	58.00
2.59595	58.00
2.61262	58.00
2.62928	58.00
2.64595	58.00
2.66262	58.00
2.67928	58.00
2.69595	58.00
2.71262	58.00
2.72928	58.00
2.74595	58.00
2.76262	58.00
2.77928	58.00
2.79595	58.00
2.81262	58.00
2.82928	58.00
2.84595	58.00
2.86262	58.00
2.87928	58.00
2.89595	58.00
2.91262	58.00
2.92928	58.00
2.94595	58.00
2.96262	58.00
2.97928	58.00
2.99595	58.00
3.01262	58.00
3.02928	58.00
3.04595	58.00
3.06262	58.00
3.07928	58.00
3.09595	58.00
3.11262	58.00
3.12928	58.00
3.14595	58.00
3.16262	58.00
3.17928	58.00
3.19595	58.00
3.21262	58.00
3.22928	58.00
3.24595	58.00
3.26262	58.00
3.27928	58.00
3.29595	58.00
3.31262	58.00
3.32928	58.00
3.34595	58.00
3.36262	58.00
3.37928	58.00
3.39595	58.00
3.41262	58.00
3.42928	58.00
3.44595	58.00
3.46262	58.00
3.47928	58.00
3.49595	58.00
3.51262	58.00
3.52928	58.00
3.54595	58.00
3.56262	58.00
3.57928	58.00
3.59595	58.00
3.61262	58.00
3.62928	58.00
3.64595	58.00
3.66262	58.00
3.67928	58.00
3.69595	58.00
3.71262	58.00
3.72928	58.00
3.74595	58.00
3.76262	58.00
3.77928	58.00
3.79595	58.00
3.81262	58.00
3.82928	58.00
3.84595	58.00
3.86262	58.00
3.87928	58.00
3.89595	58.00
3.91262	58.00
3.92928	58.00
3.94595	58.00
3.96262	58.00
3.97928	58.00
3.99595	58.00

[Status Trace (Carrier Gas Flow)]
Interval(msec)	1000
# of Points	240
Start Time(min)	0.013
End Time(min)	3.996
Intensity Units	
Intensity Multiplier	1
R.Time (min)	Intensity
0.01262	34.58
0.02928	34.53
0.04595	34.55
0.06262	34.53
0.07928	34.51
0.09595	34.52
0.11262	34.52
0.12928	34.52
0.14595	34.51
0.16262	34.52
0.17928	34.53
0.19595	34.52
0.21262	34.52
0.22928	34.52
0.24595	34.52
0.26262	34.52
0.27928	34.52
0.29595	34.53
0.31262	34.52
0.32928	34.52
0.34595	34.52
0.36262	34.53
0.37928	34.52
0.39595	34.52
0.41262	34.52
0.42928	34.52
0.44595	34.53
0.46262	34.52
0.47928	34.52
0.49595	34.52
0.51262	34.52
0.52928	34.52
0.54595	34.52
0.56262	34.52
0.57928	34.52
0.59595	34.52
0.61262	34.52
0.62928	34.52
0.64595	34.52
0.66262	34.51
0.67928	34.52
0.69595	34.52
0.71262	34.52
0.72928	34.52
0.74595	34.52
0.76262	34.52
0.77928	34.52
0.79595	34.52
0.81262	34.52
0.82928	34.52
0.84595	34.52
0.86262	34.52
0.87928	34.52
0.89595	34.51
0.91262	34.52
0.92928	34.52
0.94595	34.52
0.96262	34.51
0.97928	34.52
0.99595	34.52
1.01262	34.52
1.02928	34.52
1.04595	34.52
1.06262	34.52
1.07928	34.52
1.09595	34.52
1.11262	34.52
1.12928	34.52
1.14595	34.52
1.16262	34.52
1.17928	34.52
1.19595	34.52
1.21262	34.52
1.22928	34.52
1.24595	34.52
1.26262	34.51
1.27928	34.51
1.29595	34.52
1.31262	34.52
1.32928	34.52
1.34595	34.52
1.36262	34.53
1.37928	34.52
1.39595	34.51
1.41262	34.52
1.42928	34.52
1.44595	34.51
1.46262	34.52
1.47928	34.52
1.49595	34.51
1.51262	34.52
1.52928	34.53
1.54595	34.53
1.56262	34.51
1.57928	34.52
1.59595	34.53
1.61262	34.53
1.62928	34.51
1.64595	34.52
1.66262	34.52
1.67928	34.52
1.69595	34.52
1.71262	34.51
1.72928	34.52
1.74595	34.52
1.76262	34.52
1.77928	34.52
1.79595	34.52
1.81262	34.52
1.82928	34.52
1.84595	34.52
1.86262	34.52
1.87928	34.52
1.89595	34.52
1.91262	34.52
1.92928	34.51
1.94595	34.51
1.96262	34.52
1.97928	34.52
1.99595	34.51
2.01262	34.51
2.02928	34.52
2.04595	34.52
2.06262	34.52
2.07928	34.52
2.09595	34.52
2.11262	34.52
2.12928	34.52
2.14595	34.52
2.16262	34.52
2.17928	34.52
2.19595	34.52
2.21262	34.52
2.22928	34.52
2.24595	34.52
2.26262	34.52
2.27928	34.51
2.29595	34.52
2.31262	34.52
2.32928	34.52
2.34595	34.52
2.36262	34.52
2.37928	34.52
2.39595	34.52
2.41262	34.52
2.42928	34.52
2.44595	34.52
2.46262	34.52
2.47928	34.52
2.49595	34.52
2.51262	34.52
2.52928	34.51
2.54595	34.52
2.56262	34.52
2.57928	34.52
2.59595	34.52
2.61262	34.52
2.62928	34.52
2.64595	34.51
2.66262	34.52
2.67928	34.52
2.69595	34.52
2.71262	34.52
2.72928	34.51
2.74595	34.51
2.76262	34.52
2.77928	34.52
2.79595	34.52
2.81262	34.52
2.82928	34.52
2.84595	34.52
2.86262	34.52
2.87928	34.52
2.89595	34.52
2.91262	34.52
2.92928	34.52
2.94595	34.53
2.96262	34.52
2.97928	34.52
2.99595	34.52
3.01262	34.51
3.02928	34.53
3.04595	34.51
3.06262	34.52
3.07928	34.52
3.09595	34.52
3.11262	34.52
3.12928	34.51
3.14595	34.52
3.16262	34.52
3.17928	34.52
3.19595	34.52
3.21262	34.53
3.22928	34.52
3.24595	34.52
3.26262	34.52
3.27928	34.52
3.29595	34.51
3.31262	34.51
3.32928	34.51
3.34595	34.52
3.36262	34.52
3.37928	34.52
3.39595	34.51
3.41262	34.53
3.42928	34.52
3.44595	34.52
3.46262	34.52
3.47928	34.52
3.49595	34.52
3.51262	34.53
3.52928	34.52
3.54595	34.52
3.56262	34.52
3.57928	34.52
3.59595	34.51
3.61262	34.52
3.62928	34.53
3.64595	34.52
3.66262	34.52
3.67928	34.52
3.69595	34.52
3.71262	34.52
3.72928	34.52
3.74595	34.52
3.76262	34.52
3.77928	34.53
3.79595	34.52
3.81262	34.52
3.82928	34.51
3.84595	34.52
3.86262	34.52
3.87928	34.52
3.89595	34.51
3.91262	34.52
3.92928	34.52
3.94595	34.52
3.96262	34.51
3.97928	34.52
3.99595	34.52

[Status Trace (Column Flow)]
Interval(msec)	1000
# of Points	240
Start Time(min)	0.013
End Time(min)	3.996
Intensity Units	
Intensity Multiplier	1
R.Time (min)	Intensity
0.01262	5.57
0.02928	5.22
0.04595	5.55
0.06262	5.77
0.07928	5.67
0.09595	5.57
0.11262	5.57
0.12928	5.57
0.14595	5.57
0.16262	5.57
0.17928	5.57
0.19595	5.57
0.21262	5.57
0.22928	5.57
0.24595	5.57
0.26262	5.57
0.27928	5.57
0.29595	5.57
0.31262	5.57
0.32928	5.57
0.34595	5.57
0.36262	5.57
0.37928	5.57
0.39595	5.57
0.41262	5.57
0.42928	5.57
0.44595	5.57
0.46262	5.57
0.47928	5.57
0.49595	5.57
0.51262	5.57
0.52928	5.57
0.54595	5.57
0.56262	5.57
0.57928	5.57
0.59595	5.57
0.61262	5.57
0.62928	5.57
0.64595	5.57
0.66262	5.57
0.67928	5.57
0.69595	5.57
0.71262	5.57
0.72928	5.57
0.74595	5.57
0.76262	5.57
0.77928	5.57
0.79595	5.57
0.81262	5.57
0.82928	5.57
0.84595	5.57
0.86262	5.57
0.87928	5.57
0.89595	5.57
0.91262	5.57
0.92928	5.57
0.94595	5.57
0.96262	5.57
0.97928	5.57
0.99595	5.57
1.01262	5.57
1.02928	5.57
1.04595	5.57
1.06262	5.57
1.07928	5.57
1.09595	5.57
1.11262	5.57
1.12928	5.57
1.14595	5.57
1.16262	5.57
1.17928	5.57
1.19595	5.57
1.21262	5.57
1.22928	5.57
1.24595	5.57
1.26262	5.57
1.27928	5.57
1.29595	5.57
1.31262	5.57
1.32928	5.57
1.34595	5.57
1.36262	5.57
1.37928	5.57
1.39595	5.57
1.41262	5.57
1.42928	5.57
1.44595	5.57
1.46262	5.57
1.47928	5.57
1.49595	5.57
1.51262	5.57
1.52928	5.57
1.54595	5.57
1.56262	5.57
1.57928	5.57
1.59595	5.57
1.61262	5.57
1.62928	5.57
1.64595	5.56
1.66262	5.55
1.67928	5.54
1.69595	5.53
1.71262	5.52
1.72928	5.51
1.74595	5.50
1.76262	5.49
1.77928	5.48
1.79595	5.46
1.81262	5.46
1.82928	5.44
1.84595	5.43
1.86262	5.43
1.87928	5.41
1.89595	5.40
1.91262	5.40
1.92928	5.38
1.94595	5.37
1.96262	5.37
1.97928	5.35
1.99595	5.34
2.01262	5.34
2.02928	5.33
2.04595	5.32
2.06262	5.31
2.07928	5.30
2.09595	5.29
2.11262	5.28
2.12928	5.27
2.14595	5.26
2.16262	5.25
2.17928	5.24
2.19595	5.23
2.21262	5.22
2.22928	5.21
2.24595	5.20
2.26262	5.19
2.27928	5.18
2.29595	5.17
2.31262	5.17
2.32928	5.15
2.34595	5.15
2.36262	5.14
2.37928	5.13
2.39595	5.13
2.41262	5.13
2.42928	5.13
2.44595	5.13
2.46262	5.13
2.47928	5.13
2.49595	5.13
2.51262	5.13
2.52928	5.13
2.54595	5.13
2.56262	5.13
2.57928	5.13
2.59595	5.13
2.61262	5.13
2.62928	5.13
2.64595	5.13
2.66262	5.13
2.67928	5.13
2.69595	5.13
2.71262	5.13
2.72928	5.13
2.74595	5.13
2.76262	5.13
2.77928	5.13
2.79595	5.13
2.81262	5.13
2.82928	5.13
2.84595	5.13
2.86262	5.13
2.87928	5.13
2.89595	5.13
2.91262	5.13
2.92928	5.13
2.94595	5.13
2.96262	5.13
2.97928	5.13
2.99595	5.13
3.01262	5.13
3.02928	5.12
3.04595	5.12
3.06262	5.12
3.07928	5.12
3.09595	5.12
3.11262	5.12
3.12928	5.12
3.14595	5.12
3.16262	5.12
3.17928	5.12
3.19595	5.12
3.21262	5.12
3.22928	5.12
3.24595	5.12
3.26262	5.12
3.27928	5.12
3.29595	5.12
3.31262	5.12
3.32928	5.12
3.34595	5.12
3.36262	5.12
3.37928	5.12
3.39595	5.12
3.41262	5.12
3.42928	5.12
3.44595	5.12
3.46262	5.12
3.47928	5.12
3.49595	5.12
3.51262	5.12
3.52928	5.12
3.54595	5.12
3.56262	5.12
3.57928	5.12
3.59595	5.12
3.61262	5.12
3.62928	5.12
3.64595	5.12
3.66262	5.12
3.67928	5.12
3.69595	5.12
3.71262	5.12
3.72928	5.12
3.74595	5.12
3.76262	5.12
3.77928	5.12
3.79595	5.12
3.81262	5.12
3.82928	5.12
3.84595	5.12
3.86262	5.12
3.87928	5.12
3.89595	5.12
3.91262	5.12
3.92928	5.12
3.94595	5.12
3.96262	5.12
3.97928	5.12
3.99595	5.12

[Status Trace (Linear Velocity)]
Interval(msec)	1000
# of Points	240
Start Time(min)	0.013
End Time(min)	3.996
Intensity Units	
Intensity Multiplier	1
R.Time (min)	Intensity
0.01262	39.01
0.02928	37.06
0.04595	38.88
0.06262	40.14
0.07928	39.60
0.09595	39.02
0.11262	39.02
0.12928	39.03
0.14595	39.03
0.16262	39.03
0.17928	39.03
0.19595	39.03
0.21262	39.03
0.22928	39.03
0.24595	39.03
0.26262	39.03
0.27928	39.03
0.29595	39.03
0.31262	39.03
0.32928	39.03
0.34595	39.03
0.36262	39.03
0.37928	39.03
0.39595	39.03
0.41262	39.03
0.42928	39.03
0.44595	39.02
0.46262	39.02
0.47928	39.02
0.49595	39.02
0.51262	39.02
0.52928	39.02
0.54595	39.03
0.56262	39.03
0.57928	39.03
0.59595	39.03
0.61262	39.03
0.62928	39.02
0.64595	39.02
0.66262	39.03
0.67928	39.03
0.69595	39.03
0.71262	39.03
0.72928	39.03
0.74595	39.03
0.76262	39.03
0.77928	39.03
0.79595	39.03
0.81262	39.03
0.82928	39.03
0.84595	39.03
0.86262	39.03
0.87928	39.03
0.89595	39.03
0.91262	39.03
0.92928	39.03
0.94595	39.03
0.96262	39.03
0.97928	39.03
0.99595	39.03
1.01262	39.03
1.02928	39.03
1.04595	39.03
1.06262	39.03
1.07928	39.03
1.09595	39.03
1.11262	39.03
1.12928	39.03
1.14595	39.03
1.16262	39.03
1.17928	39.03
1.19595	39.03
1.21262	39.03
1.22928	39.03
1.24595	39.03
1.26262	39.03
1.27928	39.03
1.29595	39.03
1.31262	39.03
1.32928	39.03
1.34595	39.03
1.36262	39.03
1.37928	39.03
1.39595	39.03
1.41262	39.03
1.42928	39.03
1.44595	39.03
1.46262	39.03
1.47928	39.03
1.49595	39.03
1.51262	39.03
1.52928	39.03
1.54595	39.03
1.56262	39.03
1.57928	39.03
1.59595	39.03
1.61262	39.02
1.62928	39.01
1.64595	38.99
1.66262	38.97
1.67928	38.93
1.69595	38.89
1.71262	38.86
1.72928	38.83
1.74595	38.79
1.76262	38.77
1.77928	38.73
1.79595	38.70
1.81262	38.67
1.82928	38.64
1.84595	38.61
1.86262	38.58
1.87928	38.55
1.89595	38.51
1.91262	38.49
1.92928	38.45
1.94595	38.42
1.96262	38.40
1.97928	38.36
1.99595	38.33
2.01262	38.31
2.02928	38.27
2.04595	38.24
2.06262	38.21
2.07928	38.18
2.09595	38.15
2.11262	38.12
2.12928	38.09
2.14595	38.06
2.16262	38.04
2.17928	38.01
2.19595	37.98
2.21262	37.95
2.22928	37.92
2.24595	37.89
2.26262	37.86
2.27928	37.83
2.29595	37.80
2.31262	37.77
2.32928	37.74
2.34595	37.71
2.36262	37.69
2.37928	37.67
2.39595	37.67
2.41262	37.67
2.42928	37.67
2.44595	37.67
2.46262	37.67
2.47928	37.67
2.49595	37.67
2.51262	37.66
2.52928	37.66
2.54595	37.67
2.56262	37.67
2.57928	37.66
2.59595	37.66
2.61262	37.66
2.62928	37.66
2.64595	37.66
2.66262	37.66
2.67928	37.65
2.69595	37.66
2.71262	37.66
2.72928	37.66
2.74595	37.66
2.76262	37.65
2.77928	37.65
2.79595	37.65
2.81262	37.65
2.82928	37.65
2.84595	37.65
2.86262	37.65
2.87928	37.65
2.89595	37.65
2.91262	37.65
2.92928	37.65
2.94595	37.65
2.96262	37.65
2.97928	37.65
2.99595	37.64
3.01262	37.64
3.02928	37.64
3.04595	37.64
3.06262	37.64
3.07928	37.64
3.09595	37.64
3.11262	37.64
3.12928	37.64
3.14595	37.64
3.16262	37.64
3.17928	37.63
3.19595	37.63
3.21262	37.63
3.22928	37.63
3.24595	37.64
3.26262	37.64
3.27928	37.64
3.29595	37.64
3.31262	37.64
3.32928	37.64
3.34595	37.64
3.36262	37.64
3.37928	37.64
3.39595	37.64
3.41262	37.64
3.42928	37.64
3.44595	37.64
3.46262	37.64
3.47928	37.64
3.49595	37.64
3.51262	37.64
3.52928	37.64
3.54595	37.64
3.56262	37.64
3.57928	37.64
3.59595	37.64
3.61262	37.64
3.62928	37.64
3.64595	37.64
3.66262	37.64
3.67928	37.64
3.69595	37.64
3.71262	37.64
3.72928	37.64
3.74595	37.64
3.76262	37.64
3.77928	37.64
3.79595	37.64
3.81262	37.64
3.82928	37.64
3.84595	37.63
3.86262	37.63
3.87928	37.63
3.89595	37.64
3.91262	37.64
3.92928	37.64
3.94595	37.64
3.96262	37.64
3.97928	37.64
3.99595	37.64

