[Header]
Application Name	LabSolutions
Version	5.110
Data File Name	C:\Users\User\Desktop\GC Analyses\Jack\Nachusa Grasslands Sampling\T1 Timepoint July 12th\T1_07122022_031.gcd
Output Date	3/14/2023
Output Time	3:40:58 PM

[File Information]
Type	Data File
Generated	3/8/2023 4:36:42 PM
Generated by	System Administrator
Modified	3/8/2023 4:43:17 PM
Modified by	System Administrator

[Sample Information]
Operator Name	System Administrator
Acquired	3/8/2023 4:39:16 PM
Sample Type	0:Unknown
Level	0
Sample Name	031
Sample ID	031
ISTD Amount1	1
ISTD Amount2	1
ISTD Amount3	1
ISTD Amount4	1
ISTD Amount5	1
ISTD Amount6	1
ISTD Amount7	1
ISTD Amount8	1
ISTD Amount9	1
ISTD Amount10	1
ISTD Amount11	1
ISTD Amount12	1
ISTD Amount13	1
ISTD Amount14	1
ISTD Amount15	1
ISTD Amount16	1
ISTD Amount17	1
ISTD Amount18	1
ISTD Amount19	1
ISTD Amount20	1
ISTD Amount21	1
ISTD Amount22	1
ISTD Amount23	1
ISTD Amount24	1
ISTD Amount25	1
ISTD Amount26	1
ISTD Amount27	1
ISTD Amount28	1
ISTD Amount29	1
ISTD Amount30	1
ISTD Amount31	1
ISTD Amount32	1
Sample Amount	1
Dilution Factor	1
Vial#	30
Injection Volume	1
Injection Count	1
Bar Code	

[Original Files]
Data File	C:\Users\User\Desktop\GC Analyses\Jack\Nachusa Grasslands Sampling\T1 Timepoint July 12th\T1_07122022_031.gcd
Method File	C:\LabSolutions\Data\GHG_4min_2022\ghg3_togas_w_acet_4 min_new_int.gcm
Batch File	C:\LabSolutions\Data\AutoSamplerTesting\T1_07122022.gcb
Report Format File	c:\LabSolutions\System\DEFAULT.lsr

[File Description]


[Configuration]
Instrument Name	C0B7VH3-Instrument1
Instrument #	1
Line #	1
# of Detectors	3
Detector ID	DET#1	DET#2	DET#3
Detector Name	FID	PTCD	ECD
# of Channels	1	1	1

[Peak Table(Ch1)]
# of Peaks	4
Peak#	R.Time	I.Time	F.Time	Area	Height	A/H	Conc.	Mark	ID#	Name	k'	Plate #	Plate Ht.	Tailing	Resolution	Sep.Factor	Area Ratio	Height Ratio	Conc. %	Norm Conc.
1	1.476	1.432	1.538	25270	11787	2.144	178.410	   	1	CO	0.000	8982	16.701	1.339	0.000	0.000	0	0	24.009	24.009
2	1.567	1.538	1.648	4995	2325	2.148	96.577	 V 	2	CH4	0.062	10219	14.678	0.000	1.475	0.000	0	0	12.996	12.996
3	1.996	1.952	2.517	1865223	881641	2.116	468.120	   	3	CO2	0.353	17306	8.667	1.317	6.992	5.680	0	0	62.995	62.995
4	3.236	3.206	3.269	130	64	2.020	0.000	   	6	Ethane	1.193	46351	3.236	1.087	20.516	3.380	0	0	0.000	0.000

[Peak Table(Ch2)]
# of Peaks	0

[Peak Table(Ch3)]
# of Peaks	5
Peak#	R.Time	I.Time	F.Time	Area	Height	A/H	Conc.	Mark	ID#	Name	k'	Plate #	Plate Ht.	Tailing	Resolution	Sep.Factor	Area Ratio	Height Ratio	Conc. %	Norm Conc.
1	2.462	2.081	2.517	2623	501	5.238	0.000	   			0.000	7212	20.800	0.000	0.000	0.000	0	0	0.000	0.000
2	2.543	2.517	2.634	1269	291	4.359	0.000	 V 			0.033	3023	49.620	0.000	0.536	0.000	0	0	0.000	0.000
3	2.682	2.649	2.730	160	59	2.702	0.000	   			0.089	19311	7.768	1.240	1.063	2.727	0	0	0.000	0.000
4	2.873	2.766	3.052	18045	4813	3.750	0.461	   	1	N2O	0.167	13517	11.097	1.650	2.166	1.867	0	0	100.000	100.000
5	3.305	3.206	3.965	11069	438	25.283	0.000	   	2	SF6	0.343	500	300.075	3.865	1.254	2.054	0	0	0.000	0.000

[Compound Results(Ch1)]
# of IDs	6
ID#	Name	R.Time	Area	Height	Conc.	Curve	3rd	2nd	1st	Constant	Area Ratio	Height Ratio	Conc. %	Norm Conc.
1	CO	1.476	25270	11787	178.410	Linear	0.000000e+00	0.000000e+00	1.416423e+002	0.000000e+00	0	0	24.009	24.009
2	CH4	1.567	4995	2325	96.577	Linear	0.000000e+00	0.000000e+00	5.171738e+001	0.000000e+00	0	0	12.996	12.996
3	CO2	1.996	1865223	881641	468.120	Linear	0.000000e+00	0.000000e+00	3.984494e+003	0.000000e+00	0	0	62.995	62.995
4	Ethylene	0.000	0	0	0.000	Linear	0.000000e+00	0.000000e+00	0.000000e+00	0.000000e+00	0	0	0.000	0.000
5	Acetylene	0.000	0	0	0.000	Linear	0.000000e+00	0.000000e+00	0.000000e+00	0.000000e+00	0	0	0.000	0.000
6	Ethane	3.236	130	64	0.000	Linear	0.000000e+00	0.000000e+00	0.000000e+00	0.000000e+00	0	0	0.000	0.000

[Compound Results(Ch2)]
# of IDs	5
ID#	Name	R.Time	Area	Height	Conc.	Curve	3rd	2nd	1st	Constant	Area Ratio	Height Ratio	Conc. %	Norm Conc.
1	Hydrogen	0.000	0	0	0.000	Linear	0.000000e+00	0.000000e+00	0.000000e+00	0.000000e+00	0	0	0.000	0.000
2	Oxygen	0.000	0	0	0.000	Linear	0.000000e+00	0.000000e+00	0.000000e+00	0.000000e+00	0	0	0.000	0.000
3	Nitrogen	0.000	0	0	0.000	Linear	0.000000e+00	0.000000e+00	0.000000e+00	0.000000e+00	0	0	0.000	0.000
4	Methane	0.000	0	0	0.000	Linear	0.000000e+00	0.000000e+00	0.000000e+00	0.000000e+00	0	0	0.000	0.000
5	Carbon Monoxide	0.000	0	0	0.000	Linear	0.000000e+00	0.000000e+00	0.000000e+00	0.000000e+00	0	0	0.000	0.000

[Compound Results(Ch3)]
# of IDs	2
ID#	Name	R.Time	Area	Height	Conc.	Curve	3rd	2nd	1st	Constant	Area Ratio	Height Ratio	Conc. %	Norm Conc.
1	N2O	2.873	18045	4813	0.461	Linear	0.000000e+00	0.000000e+00	3.915173e+004	0.000000e+00	0	0	100.000	100.000
2	SF6	3.305	11069	438	0.000	Linear	0.000000e+00	0.000000e+00	0.000000e+00	0.000000e+00	0	0	0.000	0.000

[Group Results(Ch1)]
# of Groups	0

[Group Results(Ch2)]
# of Groups	0

[Group Results(Ch3)]
# of Groups	0

[Chromatogram (Ch1)]
Interval(msec)	220
# of Points	1091
Start Time(min)	0.002
End Time(min)	3.998
R.Time (min)	Intensity
0.00167	-9
0.00533	-7
0.00900	-4
0.01267	-4
0.01633	-5
0.02000	-5
0.02367	-3
0.02733	2
0.03100	7
0.03467	9
0.03833	5
0.04200	-1
0.04567	-4
0.04933	-3
0.05300	-6
0.05667	-11
0.06033	-13
0.06400	-11
0.06767	-10
0.07133	-9
0.07500	-7
0.07867	-4
0.08233	-2
0.08600	2
0.08967	10
0.09333	15
0.09700	14
0.10067	8
0.10433	2
0.10800	1
0.11167	3
0.11533	5
0.11900	5
0.12267	8
0.12633	13
0.13000	18
0.13367	22
0.13733	20
0.14100	16
0.14467	10
0.14833	9
0.15200	11
0.15567	16
0.15933	18
0.16300	14
0.16667	11
0.17033	10
0.17400	9
0.17767	8
0.18133	9
0.18500	8
0.18867	7
0.19233	9
0.19600	10
0.19967	12
0.20333	15
0.20700	11
0.21067	7
0.21433	8
0.21800	12
0.22167	16
0.22533	19
0.22900	20
0.23267	18
0.23633	10
0.24000	2
0.24367	-0
0.24733	-0
0.25100	0
0.25467	2
0.25833	6
0.26200	12
0.26567	17
0.26933	23
0.27300	27
0.27667	31
0.28033	32
0.28400	33
0.28767	36
0.29133	35
0.29500	35
0.29867	35
0.30233	33
0.30600	32
0.30967	37
0.31333	50
0.31700	61
0.32067	65
0.32433	65
0.32800	61
0.33167	58
0.33533	59
0.33900	65
0.34267	72
0.34633	78
0.35000	80
0.35367	80
0.35733	77
0.36100	74
0.36467	66
0.36833	57
0.37200	51
0.37567	50
0.37933	50
0.38300	50
0.38667	51
0.39033	50
0.39400	49
0.39767	49
0.40133	51
0.40500	49
0.40867	40
0.41233	29
0.41600	21
0.41967	14
0.42333	13
0.42700	17
0.43067	22
0.43433	26
0.43800	28
0.44167	31
0.44533	36
0.44900	35
0.45267	32
0.45633	32
0.46000	34
0.46367	34
0.46733	34
0.47100	34
0.47467	36
0.47833	37
0.48200	35
0.48567	36
0.48933	36
0.49300	36
0.49667	31
0.50033	23
0.50400	18
0.50767	17
0.51133	16
0.51500	13
0.51867	12
0.52233	13
0.52600	15
0.52967	16
0.53333	15
0.53700	15
0.54067	17
0.54433	20
0.54800	24
0.55167	26
0.55533	23
0.55900	16
0.56267	11
0.56633	11
0.57000	11
0.57367	5
0.57733	-2
0.58100	-8
0.58467	-10
0.58833	-5
0.59200	2
0.59567	9
0.59933	13
0.60300	14
0.60667	14
0.61033	13
0.61400	13
0.61767	16
0.62133	23
0.62500	31
0.62867	34
0.63233	34
0.63600	31
0.63967	27
0.64333	21
0.64700	11
0.65067	1
0.65433	-5
0.65800	-2
0.66167	3
0.66533	10
0.66900	22
0.67267	37
0.67633	46
0.68000	45
0.68367	34
0.68733	18
0.69100	3
0.69467	-9
0.69833	-16
0.70200	-18
0.70567	-16
0.70933	-15
0.71300	-10
0.71667	-4
0.72033	1
0.72400	2
0.72767	-2
0.73133	-8
0.73500	-14
0.73867	-16
0.74233	-15
0.74600	-12
0.74967	-7
0.75333	-0
0.75700	7
0.76067	14
0.76433	19
0.76800	19
0.77167	15
0.77533	10
0.77900	9
0.78267	10
0.78633	8
0.79000	2
0.79367	-2
0.79733	-2
0.80100	0
0.80467	5
0.80833	12
0.81200	14
0.81567	13
0.81933	12
0.82300	9
0.82667	7
0.83033	9
0.83400	12
0.83767	14
0.84133	15
0.84500	15
0.84867	13
0.85233	11
0.85600	9
0.85967	7
0.86333	5
0.86700	7
0.87067	9
0.87433	11
0.87800	12
0.88167	15
0.88533	16
0.88900	12
0.89267	9
0.89633	10
0.90000	14
0.90367	16
0.90733	15
0.91100	15
0.91467	16
0.91833	19
0.92200	24
0.92567	25
0.92933	23
0.93300	22
0.93667	19
0.94033	13
0.94400	10
0.94767	8
0.95133	6
0.95500	3
0.95867	-1
0.96233	-3
0.96600	-2
0.96967	3
0.97333	13
0.97700	22
0.98067	25
0.98433	25
0.98800	25
0.99167	23
0.99533	16
0.99900	6
1.00267	-9
1.00633	-20
1.01000	-25
1.01367	-27
1.01733	-28
1.02100	-28
1.02467	-29
1.02833	-31
1.03200	-29
1.03567	-24
1.03933	-16
1.04300	-8
1.04667	-4
1.05033	-2
1.05400	1
1.05767	2
1.06133	1
1.06500	-2
1.06867	-7
1.07233	-10
1.07600	-8
1.07967	-6
1.08333	-4
1.08700	-1
1.09067	2
1.09433	3
1.09800	-1
1.10167	-6
1.10533	-13
1.10900	-23
1.11267	-31
1.11633	-36
1.12000	-41
1.12367	-40
1.12733	-33
1.13100	-25
1.13467	-16
1.13833	-10
1.14200	-9
1.14567	-9
1.14933	-8
1.15300	-8
1.15667	-11
1.16033	-17
1.16400	-22
1.16767	-24
1.17133	-24
1.17500	-21
1.17867	-19
1.18233	-19
1.18600	-19
1.18967	-19
1.19333	-16
1.19700	-15
1.20067	-14
1.20433	-14
1.20800	-14
1.21167	-13
1.21533	-13
1.21900	-16
1.22267	-21
1.22633	-28
1.23000	-33
1.23367	-36
1.23733	-34
1.24100	-30
1.24467	-21
1.24833	-15
1.25200	-17
1.25567	-22
1.25933	-24
1.26300	-23
1.26667	-22
1.27033	-21
1.27400	-21
1.27767	-25
1.28133	-32
1.28500	-38
1.28867	-41
1.29233	-43
1.29600	-44
1.29967	-49
1.30333	-56
1.30700	-60
1.31067	-57
1.31433	-51
1.31800	-44
1.32167	-37
1.32533	-31
1.32900	-27
1.33267	-27
1.33633	-26
1.34000	-23
1.34367	-20
1.34733	-21
1.35100	-24
1.35467	-25
1.35833	-25
1.36200	-23
1.36567	-21
1.36933	-18
1.37300	-15
1.37667	-14
1.38033	-19
1.38400	-25
1.38767	-27
1.39133	-23
1.39500	-18
1.39867	-16
1.40233	-19
1.40600	-25
1.40967	-33
1.41333	-35
1.41700	-35
1.42067	-37
1.42433	-38
1.42800	-34
1.43167	-31
1.43533	-25
1.43900	-4
1.44267	79
1.44633	294
1.45000	791
1.45367	1898
1.45733	3744
1.46100	5989
1.46467	8151
1.46833	9922
1.47200	11160
1.47567	11760
1.47933	11623
1.48300	10733
1.48667	9249
1.49033	7484
1.49400	5761
1.49767	4282
1.50133	3112
1.50500	2236
1.50867	1604
1.51233	1161
1.51600	853
1.51967	640
1.52333	498
1.52700	400
1.53067	326
1.53433	273
1.53800	246
1.54167	281
1.54533	435
1.54900	739
1.55267	1145
1.55633	1559
1.56000	1907
1.56367	2164
1.56733	2306
1.57100	2299
1.57467	2125
1.57833	1815
1.58200	1442
1.58567	1080
1.58933	775
1.59300	539
1.59667	367
1.60033	250
1.60400	172
1.60767	124
1.61133	100
1.61500	87
1.61867	78
1.62233	71
1.62600	63
1.62967	51
1.63333	41
1.63700	32
1.64067	16
1.64433	-1
1.64800	-13
1.65167	-21
1.65533	-27
1.65900	-28
1.66267	-26
1.66633	-21
1.67000	-18
1.67367	-15
1.67733	-14
1.68100	-11
1.68467	-4
1.68833	5
1.69200	10
1.69567	14
1.69933	17
1.70300	22
1.70667	25
1.71033	21
1.71400	15
1.71767	9
1.72133	4
1.72500	-4
1.72867	-14
1.73233	-23
1.73600	-27
1.73967	-26
1.74333	-25
1.74700	-22
1.75067	-20
1.75433	-20
1.75800	-17
1.76167	-7
1.76533	2
1.76900	8
1.77267	12
1.77633	15
1.78000	19
1.78367	23
1.78733	25
1.79100	20
1.79467	10
1.79833	-2
1.80200	-17
1.80567	-33
1.80933	-47
1.81300	-55
1.81667	-55
1.82033	-50
1.82400	-48
1.82767	-47
1.83133	-46
1.83500	-43
1.83867	-40
1.84233	-37
1.84600	-37
1.84967	-37
1.85333	-36
1.85700	-34
1.86067	-25
1.86433	-15
1.86800	-5
1.87167	-0
1.87533	-2
1.87900	-8
1.88267	-14
1.88633	-19
1.89000	-21
1.89367	-17
1.89733	-11
1.90100	-2
1.90467	9
1.90833	17
1.91200	20
1.91567	20
1.91933	16
1.92300	6
1.92667	-5
1.93033	-7
1.93400	1
1.93767	6
1.94133	7
1.94500	9
1.94867	10
1.95233	25
1.95600	154
1.95967	918
1.96333	4481
1.96700	17106
1.97067	51362
1.97433	123440
1.97800	242202
1.98167	398408
1.98533	566741
1.98900	717988
1.99267	828190
1.99633	881703
2.00000	872456
2.00367	805474
2.00733	696235
2.01100	566488
2.01467	437426
2.01833	323926
2.02200	232712
2.02567	164040
2.02933	114659
2.03300	80240
2.03667	56719
2.04033	40809
2.04400	30077
2.04767	22806
2.05133	17828
2.05500	14367
2.05867	11900
2.06233	10100
2.06600	8758
2.06967	7732
2.07333	6926
2.07700	6276
2.08067	5739
2.08433	5287
2.08800	4900
2.09167	4565
2.09533	4270
2.09900	4006
2.10267	3775
2.10633	3573
2.11000	3393
2.11367	3224
2.11733	3070
2.12100	2929
2.12467	2801
2.12833	2683
2.13200	2573
2.13567	2474
2.13933	2378
2.14300	2288
2.14667	2211
2.15033	2143
2.15400	2076
2.15767	2008
2.16133	1944
2.16500	1882
2.16867	1823
2.17233	1771
2.17600	1721
2.17967	1670
2.18333	1626
2.18700	1585
2.19067	1544
2.19433	1500
2.19800	1457
2.20167	1415
2.20533	1377
2.20900	1342
2.21267	1309
2.21633	1278
2.22000	1247
2.22367	1219
2.22733	1195
2.23100	1176
2.23467	1159
2.23833	1146
2.24200	1133
2.24567	1114
2.24933	1089
2.25300	1063
2.25667	1034
2.26033	1007
2.26400	981
2.26767	955
2.27133	934
2.27500	920
2.27867	909
2.28233	897
2.28600	886
2.28967	874
2.29333	862
2.29700	851
2.30067	841
2.30433	831
2.30800	818
2.31167	802
2.31533	790
2.31900	784
2.32267	781
2.32633	775
2.33000	766
2.33367	755
2.33733	748
2.34100	744
2.34467	741
2.34833	739
2.35200	736
2.35567	729
2.35933	720
2.36300	705
2.36667	686
2.37033	664
2.37400	641
2.37767	628
2.38133	627
2.38500	629
2.38867	633
2.39233	640
2.39600	642
2.39967	639
2.40333	635
2.40700	632
2.41067	622
2.41433	611
2.41800	601
2.42167	590
2.42533	579
2.42900	571
2.43267	564
2.43633	559
2.44000	555
2.44367	548
2.44733	540
2.45100	535
2.45467	534
2.45833	537
2.46200	541
2.46567	546
2.46933	549
2.47300	547
2.47667	540
2.48033	535
2.48400	534
2.48767	532
2.49133	528
2.49500	525
2.49867	520
2.50233	512
2.50600	502
2.50967	496
2.51333	496
2.51700	497
2.52067	499
2.52433	502
2.52800	506
2.53167	509
2.53533	511
2.53900	509
2.54267	505
2.54633	498
2.55000	491
2.55367	486
2.55733	482
2.56100	481
2.56467	482
2.56833	482
2.57200	480
2.57567	478
2.57933	477
2.58300	480
2.58667	483
2.59033	481
2.59400	476
2.59767	471
2.60133	466
2.60500	463
2.60867	460
2.61233	455
2.61600	449
2.61967	448
2.62333	448
2.62700	448
2.63067	445
2.63433	440
2.63800	433
2.64167	429
2.64533	429
2.64900	429
2.65267	429
2.65633	432
2.66000	437
2.66367	447
2.66733	452
2.67100	450
2.67467	449
2.67833	451
2.68200	456
2.68567	464
2.68933	471
2.69300	473
2.69667	468
2.70033	459
2.70400	450
2.70767	445
2.71133	442
2.71500	439
2.71867	437
2.72233	435
2.72600	429
2.72967	423
2.73333	422
2.73700	429
2.74067	436
2.74433	443
2.74800	451
2.75167	456
2.75533	453
2.75900	447
2.76267	442
2.76633	440
2.77000	440
2.77367	440
2.77733	443
2.78100	448
2.78467	451
2.78833	449
2.79200	447
2.79567	450
2.79933	456
2.80300	466
2.80667	478
2.81033	488
2.81400	497
2.81767	503
2.82133	508
2.82500	509
2.82867	505
2.83233	499
2.83600	494
2.83967	488
2.84333	482
2.84700	478
2.85067	479
2.85433	485
2.85800	490
2.86167	491
2.86533	489
2.86900	487
2.87267	486
2.87633	483
2.88000	480
2.88367	474
2.88733	469
2.89100	469
2.89467	475
2.89833	483
2.90200	491
2.90567	492
2.90933	491
2.91300	494
2.91667	498
2.92033	504
2.92400	510
2.92767	510
2.93133	506
2.93500	504
2.93867	504
2.94233	505
2.94600	503
2.94967	501
2.95333	501
2.95700	501
2.96067	502
2.96433	501
2.96800	497
2.97167	492
2.97533	485
2.97900	475
2.98267	468
2.98633	465
2.99000	465
2.99367	468
2.99733	470
3.00100	476
3.00467	485
3.00833	493
3.01200	495
3.01567	493
3.01933	490
3.02300	493
3.02667	495
3.03033	494
3.03400	493
3.03767	493
3.04133	493
3.04500	490
3.04867	489
3.05233	491
3.05600	499
3.05967	505
3.06333	502
3.06700	492
3.07067	484
3.07433	477
3.07800	472
3.08167	468
3.08533	468
3.08900	472
3.09267	476
3.09633	479
3.10000	481
3.10367	484
3.10733	491
3.11100	496
3.11467	500
3.11833	506
3.12200	508
3.12567	503
3.12933	496
3.13300	493
3.13667	491
3.14033	488
3.14400	484
3.14767	480
3.15133	473
3.15500	464
3.15867	456
3.16233	459
3.16600	465
3.16967	469
3.17333	469
3.17700	465
3.18067	464
3.18433	469
3.18800	475
3.19167	476
3.19533	468
3.19900	457
3.20267	448
3.20633	444
3.21000	448
3.21367	456
3.21733	465
3.22100	471
3.22467	478
3.22833	489
3.23200	497
3.23567	500
3.23933	494
3.24300	484
3.24667	478
3.25033	477
3.25400	472
3.25767	459
3.26133	446
3.26500	435
3.26867	426
3.27233	422
3.27600	421
3.27967	423
3.28333	426
3.28700	429
3.29067	430
3.29433	427
3.29800	420
3.30167	415
3.30533	414
3.30900	416
3.31267	417
3.31633	419
3.32000	420
3.32367	421
3.32733	422
3.33100	422
3.33467	419
3.33833	416
3.34200	419
3.34567	429
3.34933	435
3.35300	438
3.35667	437
3.36033	437
3.36400	436
3.36767	436
3.37133	439
3.37500	444
3.37867	447
3.38233	446
3.38600	441
3.38967	429
3.39333	419
3.39700	412
3.40067	414
3.40433	420
3.40800	425
3.41167	428
3.41533	432
3.41900	433
3.42267	431
3.42633	429
3.43000	425
3.43367	423
3.43733	419
3.44100	413
3.44467	410
3.44833	407
3.45200	406
3.45567	409
3.45933	414
3.46300	419
3.46667	422
3.47033	419
3.47400	415
3.47767	414
3.48133	415
3.48500	416
3.48867	417
3.49233	418
3.49600	420
3.49967	422
3.50333	423
3.50700	426
3.51067	427
3.51433	425
3.51800	420
3.52167	413
3.52533	408
3.52900	404
3.53267	401
3.53633	401
3.54000	402
3.54367	406
3.54733	411
3.55100	413
3.55467	413
3.55833	410
3.56200	407
3.56567	403
3.56933	393
3.57300	381
3.57667	370
3.58033	360
3.58400	356
3.58767	357
3.59133	358
3.59500	359
3.59867	360
3.60233	362
3.60600	371
3.60967	382
3.61333	390
3.61700	391
3.62067	390
3.62433	388
3.62800	385
3.63167	381
3.63533	377
3.63900	375
3.64267	374
3.64633	374
3.65000	372
3.65367	367
3.65733	363
3.66100	364
3.66467	367
3.66833	368
3.67200	370
3.67567	372
3.67933	372
3.68300	368
3.68667	365
3.69033	365
3.69400	362
3.69767	357
3.70133	349
3.70500	343
3.70867	346
3.71233	355
3.71600	362
3.71967	369
3.72333	375
3.72700	375
3.73067	375
3.73433	376
3.73800	375
3.74167	374
3.74533	372
3.74900	365
3.75267	353
3.75633	339
3.76000	326
3.76367	319
3.76733	318
3.77100	319
3.77467	322
3.77833	324
3.78200	327
3.78567	332
3.78933	334
3.79300	332
3.79667	331
3.80033	332
3.80400	334
3.80767	335
3.81133	334
3.81500	333
3.81867	334
3.82233	339
3.82600	341
3.82967	335
3.83333	328
3.83700	323
3.84067	321
3.84433	318
3.84800	314
3.85167	314
3.85533	313
3.85900	310
3.86267	309
3.86633	312
3.87000	316
3.87367	317
3.87733	316
3.88100	315
3.88467	314
3.88833	311
3.89200	310
3.89567	309
3.89933	310
3.90300	314
3.90667	320
3.91033	323
3.91400	327
3.91767	328
3.92133	327
3.92500	324
3.92867	320
3.93233	317
3.93600	316
3.93967	314
3.94333	310
3.94700	306
3.95067	301
3.95433	297
3.95800	295
3.96167	295
3.96533	299
3.96900	303
3.97267	304
3.97633	305
3.98000	303
3.98367	298
3.98733	296
3.99100	297
3.99467	297
3.99833	297

[Chromatogram (Ch2)]
Interval(msec)	220
# of Points	1091
Start Time(min)	0.002
End Time(min)	3.998
R.Time (min)	Intensity
0.00167	1
0.00533	1
0.00900	1
0.01267	1
0.01633	2
0.02000	2
0.02367	2
0.02733	3
0.03100	3
0.03467	3
0.03833	3
0.04200	3
0.04567	2
0.04933	2
0.05300	2
0.05667	2
0.06033	2
0.06400	2
0.06767	2
0.07133	1
0.07500	1
0.07867	1
0.08233	1
0.08600	1
0.08967	1
0.09333	1
0.09700	1
0.10067	1
0.10433	1
0.10800	1
0.11167	1
0.11533	1
0.11900	1
0.12267	1
0.12633	1
0.13000	1
0.13367	1
0.13733	1
0.14100	1
0.14467	1
0.14833	1
0.15200	0
0.15567	0
0.15933	0
0.16300	0
0.16667	0
0.17033	0
0.17400	0
0.17767	1
0.18133	1
0.18500	1
0.18867	1
0.19233	2
0.19600	2
0.19967	2
0.20333	2
0.20700	2
0.21067	2
0.21433	2
0.21800	2
0.22167	2
0.22533	2
0.22900	1
0.23267	1
0.23633	1
0.24000	1
0.24367	1
0.24733	1
0.25100	1
0.25467	1
0.25833	2
0.26200	2
0.26567	2
0.26933	2
0.27300	3
0.27667	3
0.28033	3
0.28400	3
0.28767	3
0.29133	4
0.29500	4
0.29867	4
0.30233	4
0.30600	4
0.30967	4
0.31333	4
0.31700	4
0.32067	4
0.32433	4
0.32800	4
0.33167	4
0.33533	3
0.33900	3
0.34267	2
0.34633	1
0.35000	1
0.35367	0
0.35733	0
0.36100	-0
0.36467	-0
0.36833	-0
0.37200	-0
0.37567	-1
0.37933	-1
0.38300	-1
0.38667	-1
0.39033	-1
0.39400	-1
0.39767	-1
0.40133	-1
0.40500	-1
0.40867	-1
0.41233	-1
0.41600	-1
0.41967	-1
0.42333	-1
0.42700	-1
0.43067	-1
0.43433	-1
0.43800	-1
0.44167	-2
0.44533	-2
0.44900	-2
0.45267	-2
0.45633	-2
0.46000	-2
0.46367	-1
0.46733	-1
0.47100	-0
0.47467	0
0.47833	0
0.48200	1
0.48567	2
0.48933	2
0.49300	3
0.49667	3
0.50033	3
0.50400	3
0.50767	4
0.51133	4
0.51500	4
0.51867	4
0.52233	4
0.52600	3
0.52967	3
0.53333	2
0.53700	2
0.54067	1
0.54433	1
0.54800	1
0.55167	1
0.55533	2
0.55900	2
0.56267	2
0.56633	2
0.57000	2
0.57367	2
0.57733	1
0.58100	1
0.58467	1
0.58833	1
0.59200	0
0.59567	0
0.59933	-0
0.60300	-0
0.60667	-1
0.61033	-1
0.61400	-2
0.61767	-2
0.62133	-2
0.62500	-2
0.62867	-2
0.63233	-3
0.63600	-3
0.63967	-3
0.64333	-3
0.64700	-3
0.65067	-3
0.65433	-3
0.65800	-3
0.66167	-2
0.66533	-2
0.66900	-2
0.67267	-1
0.67633	-1
0.68000	-1
0.68367	-1
0.68733	-1
0.69100	-1
0.69467	-0
0.69833	-0
0.70200	-0
0.70567	-0
0.70933	-0
0.71300	-0
0.71667	-0
0.72033	-0
0.72400	-0
0.72767	-0
0.73133	-0
0.73500	-0
0.73867	-0
0.74233	0
0.74600	0
0.74967	0
0.75333	-0
0.75700	-0
0.76067	0
0.76433	0
0.76800	-0
0.77167	-0
0.77533	-1
0.77900	-1
0.78267	-1
0.78633	-1
0.79000	-2
0.79367	-2
0.79733	-2
0.80100	-2
0.80467	-2
0.80833	-1
0.81200	-1
0.81567	-0
0.81933	0
0.82300	1
0.82667	1
0.83033	1
0.83400	2
0.83767	2
0.84133	3
0.84500	3
0.84867	3
0.85233	3
0.85600	3
0.85967	2
0.86333	2
0.86700	2
0.87067	2
0.87433	1
0.87800	1
0.88167	1
0.88533	1
0.88900	1
0.89267	1
0.89633	1
0.90000	1
0.90367	0
0.90733	0
0.91100	-0
0.91467	-0
0.91833	-0
0.92200	-0
0.92567	-1
0.92933	-1
0.93300	-1
0.93667	-2
0.94033	-2
0.94400	-2
0.94767	-2
0.95133	-2
0.95500	-1
0.95867	-1
0.96233	-1
0.96600	-0
0.96967	-0
0.97333	0
0.97700	1
0.98067	1
0.98433	1
0.98800	1
0.99167	0
0.99533	0
0.99900	-0
1.00267	-0
1.00633	-1
1.01000	-1
1.01367	-1
1.01733	-1
1.02100	-1
1.02467	-1
1.02833	-2
1.03200	-2
1.03567	-1
1.03933	-1
1.04300	-1
1.04667	-1
1.05033	-1
1.05400	-1
1.05767	-2
1.06133	-2
1.06500	-2
1.06867	-2
1.07233	-1
1.07600	-1
1.07967	-1
1.08333	-1
1.08700	-1
1.09067	-1
1.09433	-0
1.09800	-0
1.10167	0
1.10533	0
1.10900	1
1.11267	1
1.11633	1
1.12000	1
1.12367	1
1.12733	1
1.13100	1
1.13467	2
1.13833	2
1.14200	2
1.14567	2
1.14933	2
1.15300	3
1.15667	3
1.16033	3
1.16400	3
1.16767	3
1.17133	3
1.17500	3
1.17867	3
1.18233	3
1.18600	2
1.18967	2
1.19333	2
1.19700	2
1.20067	2
1.20433	2
1.20800	2
1.21167	2
1.21533	1
1.21900	1
1.22267	1
1.22633	1
1.23000	2
1.23367	2
1.23733	2
1.24100	2
1.24467	2
1.24833	2
1.25200	1
1.25567	1
1.25933	1
1.26300	0
1.26667	0
1.27033	0
1.27400	-0
1.27767	-0
1.28133	-1
1.28500	-1
1.28867	-1
1.29233	-2
1.29600	-2
1.29967	-2
1.30333	-3
1.30700	-3
1.31067	-3
1.31433	-3
1.31800	-3
1.32167	-3
1.32533	-3
1.32900	-3
1.33267	-3
1.33633	-3
1.34000	-3
1.34367	-3
1.34733	-3
1.35100	-3
1.35467	-3
1.35833	-2
1.36200	-2
1.36567	-2
1.36933	-2
1.37300	-2
1.37667	-2
1.38033	-2
1.38400	-1
1.38767	-1
1.39133	-1
1.39500	-1
1.39867	-1
1.40233	-0
1.40600	-0
1.40967	0
1.41333	0
1.41700	0
1.42067	0
1.42433	0
1.42800	0
1.43167	0
1.43533	0
1.43900	-0
1.44267	-0
1.44633	-1
1.45000	-1
1.45367	-1
1.45733	-1
1.46100	-1
1.46467	-0
1.46833	-0
1.47200	-0
1.47567	-0
1.47933	-0
1.48300	-0
1.48667	-0
1.49033	-1
1.49400	-1
1.49767	-1
1.50133	-1
1.50500	-2
1.50867	-2
1.51233	-2
1.51600	-2
1.51967	-2
1.52333	-2
1.52700	-2
1.53067	-2
1.53433	-2
1.53800	-2
1.54167	-2
1.54533	-2
1.54900	-2
1.55267	-2
1.55633	-2
1.56000	-2
1.56367	-2
1.56733	-1
1.57100	-1
1.57467	-2
1.57833	-2
1.58200	-2
1.58567	-2
1.58933	-2
1.59300	-3
1.59667	-4
1.60033	-4
1.60400	-5
1.60767	-6
1.61133	-7
1.61500	-8
1.61867	-10
1.62233	-12
1.62600	-14
1.62967	-17
1.63333	-20
1.63700	-23
1.64067	-26
1.64433	-30
1.64800	-33
1.65167	-37
1.65533	-41
1.65900	-45
1.66267	-50
1.66633	-55
1.67000	-60
1.67367	-66
1.67733	-71
1.68100	-77
1.68467	-82
1.68833	-87
1.69200	-91
1.69567	-95
1.69933	-99
1.70300	-101
1.70667	-104
1.71033	-105
1.71400	-107
1.71767	-108
1.72133	-109
1.72500	-110
1.72867	-111
1.73233	-112
1.73600	-112
1.73967	-112
1.74333	-113
1.74700	-113
1.75067	-112
1.75433	-112
1.75800	-111
1.76167	-111
1.76533	-110
1.76900	-110
1.77267	-110
1.77633	-111
1.78000	-112
1.78367	-112
1.78733	-113
1.79100	-114
1.79467	-114
1.79833	-114
1.80200	-114
1.80567	-114
1.80933	-114
1.81300	-114
1.81667	-114
1.82033	-114
1.82400	-114
1.82767	-114
1.83133	-114
1.83500	-114
1.83867	-115
1.84233	-115
1.84600	-115
1.84967	-116
1.85333	-116
1.85700	-116
1.86067	-117
1.86433	-117
1.86800	-117
1.87167	-117
1.87533	-117
1.87900	-116
1.88267	-115
1.88633	-114
1.89000	-114
1.89367	-113
1.89733	-113
1.90100	-113
1.90467	-113
1.90833	-113
1.91200	-114
1.91567	-114
1.91933	-114
1.92300	-114
1.92667	-114
1.93033	-114
1.93400	-114
1.93767	-114
1.94133	-114
1.94500	-113
1.94867	-112
1.95233	-112
1.95600	-112
1.95967	-112
1.96333	-112
1.96700	-111
1.97067	-110
1.97433	-109
1.97800	-109
1.98167	-109
1.98533	-109
1.98900	-109
1.99267	-108
1.99633	-108
2.00000	-107
2.00367	-107
2.00733	-107
2.01100	-107
2.01467	-107
2.01833	-107
2.02200	-107
2.02567	-108
2.02933	-108
2.03300	-107
2.03667	-107
2.04033	-106
2.04400	-106
2.04767	-105
2.05133	-105
2.05500	-105
2.05867	-105
2.06233	-105
2.06600	-105
2.06967	-105
2.07333	-104
2.07700	-104
2.08067	-103
2.08433	-103
2.08800	-102
2.09167	-101
2.09533	-101
2.09900	-100
2.10267	-100
2.10633	-100
2.11000	-99
2.11367	-99
2.11733	-99
2.12100	-99
2.12467	-98
2.12833	-97
2.13200	-96
2.13567	-96
2.13933	-95
2.14300	-95
2.14667	-95
2.15033	-95
2.15400	-95
2.15767	-95
2.16133	-95
2.16500	-95
2.16867	-95
2.17233	-94
2.17600	-94
2.17967	-94
2.18333	-94
2.18700	-94
2.19067	-94
2.19433	-94
2.19800	-94
2.20167	-94
2.20533	-94
2.20900	-93
2.21267	-93
2.21633	-93
2.22000	-93
2.22367	-93
2.22733	-93
2.23100	-93
2.23467	-92
2.23833	-92
2.24200	-91
2.24567	-90
2.24933	-90
2.25300	-89
2.25667	-88
2.26033	-88
2.26400	-88
2.26767	-87
2.27133	-87
2.27500	-87
2.27867	-87
2.28233	-87
2.28600	-86
2.28967	-86
2.29333	-86
2.29700	-85
2.30067	-85
2.30433	-85
2.30800	-85
2.31167	-84
2.31533	-84
2.31900	-83
2.32267	-83
2.32633	-82
2.33000	-81
2.33367	-81
2.33733	-80
2.34100	-80
2.34467	-80
2.34833	-79
2.35200	-78
2.35567	-77
2.35933	-75
2.36300	-74
2.36667	-72
2.37033	-69
2.37400	-66
2.37767	-62
2.38133	-59
2.38500	-54
2.38867	-50
2.39233	-45
2.39600	-41
2.39967	-37
2.40333	-33
2.40700	-29
2.41067	-25
2.41433	-22
2.41800	-19
2.42167	-17
2.42533	-16
2.42900	-15
2.43267	-14
2.43633	-13
2.44000	-11
2.44367	-10
2.44733	-8
2.45100	-7
2.45467	-5
2.45833	-4
2.46200	-3
2.46567	-2
2.46933	-1
2.47300	0
2.47667	1
2.48033	2
2.48400	3
2.48767	4
2.49133	5
2.49500	6
2.49867	7
2.50233	8
2.50600	8
2.50967	9
2.51333	9
2.51700	9
2.52067	10
2.52433	11
2.52800	11
2.53167	12
2.53533	12
2.53900	13
2.54267	13
2.54633	14
2.55000	14
2.55367	15
2.55733	15
2.56100	16
2.56467	16
2.56833	17
2.57200	17
2.57567	17
2.57933	17
2.58300	18
2.58667	18
2.59033	18
2.59400	18
2.59767	17
2.60133	17
2.60500	17
2.60867	17
2.61233	17
2.61600	17
2.61967	17
2.62333	16
2.62700	16
2.63067	16
2.63433	16
2.63800	16
2.64167	16
2.64533	16
2.64900	16
2.65267	17
2.65633	17
2.66000	18
2.66367	19
2.66733	20
2.67100	20
2.67467	21
2.67833	22
2.68200	22
2.68567	23
2.68933	23
2.69300	23
2.69667	23
2.70033	24
2.70400	24
2.70767	24
2.71133	24
2.71500	24
2.71867	24
2.72233	23
2.72600	23
2.72967	23
2.73333	23
2.73700	24
2.74067	24
2.74433	25
2.74800	25
2.75167	26
2.75533	27
2.75900	27
2.76267	28
2.76633	28
2.77000	28
2.77367	28
2.77733	28
2.78100	27
2.78467	27
2.78833	26
2.79200	25
2.79567	24
2.79933	24
2.80300	24
2.80667	24
2.81033	24
2.81400	24
2.81767	24
2.82133	25
2.82500	25
2.82867	26
2.83233	26
2.83600	25
2.83967	24
2.84333	21
2.84700	16
2.85067	8
2.85433	-3
2.85800	-17
2.86167	-35
2.86533	-57
2.86900	-84
2.87267	-115
2.87633	-149
2.88000	-188
2.88367	-230
2.88733	-275
2.89100	-323
2.89467	-373
2.89833	-424
2.90200	-477
2.90567	-530
2.90933	-584
2.91300	-638
2.91667	-691
2.92033	-744
2.92400	-795
2.92767	-845
2.93133	-898
2.93500	-956
2.93867	-1015
2.94233	-1065
2.94600	-1096
2.94967	-1101
2.95333	-1081
2.95700	-1037
2.96067	-977
2.96433	-905
2.96800	-826
2.97167	-745
2.97533	-666
2.97900	-589
2.98267	-518
2.98633	-452
2.99000	-393
2.99367	-339
2.99733	-291
3.00100	-249
3.00467	-213
3.00833	-180
3.01200	-153
3.01567	-129
3.01933	-109
3.02300	-91
3.02667	-76
3.03033	-63
3.03400	-51
3.03767	-42
3.04133	-34
3.04500	-27
3.04867	-21
3.05233	-16
3.05600	-12
3.05967	-9
3.06333	-6
3.06700	-3
3.07067	-0
3.07433	2
3.07800	4
3.08167	6
3.08533	7
3.08900	9
3.09267	10
3.09633	11
3.10000	12
3.10367	12
3.10733	13
3.11100	13
3.11467	14
3.11833	14
3.12200	15
3.12567	15
3.12933	16
3.13300	17
3.13667	17
3.14033	17
3.14400	18
3.14767	18
3.15133	18
3.15500	19
3.15867	19
3.16233	19
3.16600	20
3.16967	20
3.17333	20
3.17700	20
3.18067	21
3.18433	21
3.18800	21
3.19167	22
3.19533	22
3.19900	22
3.20267	22
3.20633	22
3.21000	22
3.21367	23
3.21733	23
3.22100	23
3.22467	24
3.22833	24
3.23200	25
3.23567	25
3.23933	26
3.24300	26
3.24667	26
3.25033	26
3.25400	27
3.25767	27
3.26133	27
3.26500	27
3.26867	27
3.27233	27
3.27600	27
3.27967	26
3.28333	26
3.28700	26
3.29067	26
3.29433	26
3.29800	26
3.30167	26
3.30533	26
3.30900	26
3.31267	26
3.31633	25
3.32000	25
3.32367	25
3.32733	25
3.33100	26
3.33467	26
3.33833	26
3.34200	26
3.34567	27
3.34933	27
3.35300	28
3.35667	28
3.36033	28
3.36400	29
3.36767	29
3.37133	29
3.37500	30
3.37867	30
3.38233	30
3.38600	31
3.38967	31
3.39333	31
3.39700	31
3.40067	30
3.40433	30
3.40800	30
3.41167	30
3.41533	30
3.41900	30
3.42267	29
3.42633	29
3.43000	29
3.43367	29
3.43733	28
3.44100	28
3.44467	28
3.44833	28
3.45200	28
3.45567	29
3.45933	29
3.46300	29
3.46667	29
3.47033	29
3.47400	29
3.47767	29
3.48133	29
3.48500	29
3.48867	29
3.49233	29
3.49600	29
3.49967	30
3.50333	30
3.50700	30
3.51067	30
3.51433	30
3.51800	30
3.52167	30
3.52533	29
3.52900	29
3.53267	29
3.53633	29
3.54000	29
3.54367	28
3.54733	28
3.55100	28
3.55467	28
3.55833	28
3.56200	28
3.56567	28
3.56933	29
3.57300	29
3.57667	29
3.58033	29
3.58400	29
3.58767	29
3.59133	28
3.59500	28
3.59867	28
3.60233	28
3.60600	28
3.60967	28
3.61333	28
3.61700	28
3.62067	28
3.62433	28
3.62800	28
3.63167	28
3.63533	28
3.63900	28
3.64267	28
3.64633	28
3.65000	28
3.65367	29
3.65733	29
3.66100	29
3.66467	29
3.66833	29
3.67200	29
3.67567	29
3.67933	29
3.68300	29
3.68667	29
3.69033	29
3.69400	29
3.69767	28
3.70133	28
3.70500	28
3.70867	28
3.71233	28
3.71600	28
3.71967	29
3.72333	29
3.72700	29
3.73067	29
3.73433	29
3.73800	29
3.74167	30
3.74533	30
3.74900	30
3.75267	30
3.75633	30
3.76000	30
3.76367	29
3.76733	29
3.77100	29
3.77467	29
3.77833	29
3.78200	29
3.78567	29
3.78933	29
3.79300	29
3.79667	29
3.80033	29
3.80400	29
3.80767	29
3.81133	29
3.81500	29
3.81867	29
3.82233	29
3.82600	29
3.82967	28
3.83333	28
3.83700	28
3.84067	28
3.84433	28
3.84800	27
3.85167	27
3.85533	27
3.85900	27
3.86267	27
3.86633	27
3.87000	27
3.87367	28
3.87733	28
3.88100	28
3.88467	28
3.88833	28
3.89200	28
3.89567	28
3.89933	28
3.90300	28
3.90667	28
3.91033	28
3.91400	28
3.91767	28
3.92133	29
3.92500	29
3.92867	28
3.93233	28
3.93600	28
3.93967	28
3.94333	28
3.94700	28
3.95067	28
3.95433	27
3.95800	27
3.96167	27
3.96533	27
3.96900	26
3.97267	26
3.97633	27
3.98000	27
3.98367	27
3.98733	27
3.99100	27
3.99467	27
3.99833	28

[Chromatogram (Ch3)]
Interval(msec)	220
# of Points	1091
Start Time(min)	0.002
End Time(min)	3.998
R.Time (min)	Intensity
0.00167	-1
0.00533	0
0.00900	0
0.01267	-0
0.01633	1
0.02000	2
0.02367	3
0.02733	5
0.03100	6
0.03467	9
0.03833	10
0.04200	9
0.04567	7
0.04933	5
0.05300	3
0.05667	2
0.06033	3
0.06400	3
0.06767	3
0.07133	3
0.07500	2
0.07867	2
0.08233	2
0.08600	4
0.08967	3
0.09333	3
0.09700	3
0.10067	3
0.10433	1
0.10800	-1
0.11167	-2
0.11533	-3
0.11900	-1
0.12267	-0
0.12633	0
0.13000	-1
0.13367	-1
0.13733	-1
0.14100	2
0.14467	5
0.14833	5
0.15200	5
0.15567	6
0.15933	7
0.16300	2
0.16667	1
0.17033	2
0.17400	2
0.17767	1
0.18133	1
0.18500	2
0.18867	6
0.19233	9
0.19600	10
0.19967	9
0.20333	10
0.20700	9
0.21067	9
0.21433	10
0.21800	11
0.22167	11
0.22533	10
0.22900	8
0.23267	8
0.23633	8
0.24000	6
0.24367	5
0.24733	4
0.25100	7
0.25467	11
0.25833	13
0.26200	13
0.26567	11
0.26933	11
0.27300	11
0.27667	12
0.28033	11
0.28400	11
0.28767	12
0.29133	15
0.29500	15
0.29867	15
0.30233	12
0.30600	9
0.30967	8
0.31333	6
0.31700	6
0.32067	5
0.32433	6
0.32800	6
0.33167	6
0.33533	7
0.33900	6
0.34267	7
0.34633	7
0.35000	7
0.35367	8
0.35733	9
0.36100	8
0.36467	8
0.36833	8
0.37200	9
0.37567	9
0.37933	8
0.38300	9
0.38667	9
0.39033	10
0.39400	10
0.39767	10
0.40133	8
0.40500	6
0.40867	7
0.41233	7
0.41600	6
0.41967	6
0.42333	9
0.42700	10
0.43067	11
0.43433	12
0.43800	13
0.44167	12
0.44533	12
0.44900	10
0.45267	10
0.45633	9
0.46000	8
0.46367	9
0.46733	10
0.47100	10
0.47467	12
0.47833	11
0.48200	12
0.48567	15
0.48933	16
0.49300	16
0.49667	16
0.50033	15
0.50400	14
0.50767	13
0.51133	11
0.51500	9
0.51867	6
0.52233	6
0.52600	7
0.52967	7
0.53333	6
0.53700	8
0.54067	8
0.54433	7
0.54800	7
0.55167	6
0.55533	6
0.55900	5
0.56267	3
0.56633	1
0.57000	2
0.57367	3
0.57733	6
0.58100	6
0.58467	8
0.58833	10
0.59200	10
0.59567	10
0.59933	10
0.60300	11
0.60667	10
0.61033	9
0.61400	9
0.61767	10
0.62133	10
0.62500	10
0.62867	13
0.63233	16
0.63600	18
0.63967	18
0.64333	17
0.64700	15
0.65067	14
0.65433	15
0.65800	15
0.66167	14
0.66533	12
0.66900	11
0.67267	9
0.67633	8
0.68000	8
0.68367	10
0.68733	11
0.69100	10
0.69467	10
0.69833	10
0.70200	9
0.70567	10
0.70933	11
0.71300	11
0.71667	12
0.72033	12
0.72400	14
0.72767	13
0.73133	13
0.73500	14
0.73867	14
0.74233	14
0.74600	14
0.74967	15
0.75333	16
0.75700	14
0.76067	13
0.76433	12
0.76800	12
0.77167	11
0.77533	11
0.77900	9
0.78267	8
0.78633	7
0.79000	8
0.79367	8
0.79733	8
0.80100	10
0.80467	12
0.80833	13
0.81200	14
0.81567	14
0.81933	13
0.82300	12
0.82667	11
0.83033	13
0.83400	15
0.83767	15
0.84133	16
0.84500	18
0.84867	17
0.85233	16
0.85600	15
0.85967	13
0.86333	12
0.86700	12
0.87067	15
0.87433	18
0.87800	20
0.88167	18
0.88533	16
0.88900	17
0.89267	17
0.89633	15
0.90000	12
0.90367	10
0.90733	11
0.91100	10
0.91467	12
0.91833	14
0.92200	14
0.92567	11
0.92933	10
0.93300	12
0.93667	14
0.94033	15
0.94400	16
0.94767	16
0.95133	15
0.95500	14
0.95867	13
0.96233	14
0.96600	14
0.96967	15
0.97333	16
0.97700	16
0.98067	16
0.98433	15
0.98800	14
0.99167	14
0.99533	15
0.99900	15
1.00267	15
1.00633	14
1.01000	13
1.01367	13
1.01733	14
1.02100	16
1.02467	16
1.02833	17
1.03200	17
1.03567	16
1.03933	14
1.04300	15
1.04667	16
1.05033	18
1.05400	17
1.05767	16
1.06133	17
1.06500	19
1.06867	20
1.07233	18
1.07600	15
1.07967	14
1.08333	13
1.08700	14
1.09067	15
1.09433	16
1.09800	17
1.10167	17
1.10533	15
1.10900	15
1.11267	17
1.11633	18
1.12000	17
1.12367	17
1.12733	17
1.13100	16
1.13467	18
1.13833	18
1.14200	19
1.14567	19
1.14933	18
1.15300	18
1.15667	19
1.16033	19
1.16400	19
1.16767	19
1.17133	19
1.17500	18
1.17867	19
1.18233	20
1.18600	21
1.18967	21
1.19333	22
1.19700	22
1.20067	24
1.20433	23
1.20800	22
1.21167	18
1.21533	15
1.21900	14
1.22267	16
1.22633	18
1.23000	19
1.23367	19
1.23733	17
1.24100	17
1.24467	18
1.24833	21
1.25200	21
1.25567	21
1.25933	20
1.26300	22
1.26667	24
1.27033	23
1.27400	24
1.27767	26
1.28133	25
1.28500	24
1.28867	23
1.29233	22
1.29600	21
1.29967	21
1.30333	20
1.30700	21
1.31067	21
1.31433	21
1.31800	22
1.32167	22
1.32533	22
1.32900	22
1.33267	21
1.33633	20
1.34000	21
1.34367	23
1.34733	24
1.35100	23
1.35467	23
1.35833	23
1.36200	24
1.36567	24
1.36933	26
1.37300	28
1.37667	29
1.38033	29
1.38400	26
1.38767	24
1.39133	23
1.39500	24
1.39867	24
1.40233	26
1.40600	28
1.40967	29
1.41333	29
1.41700	30
1.42067	31
1.42433	33
1.42800	33
1.43167	31
1.43533	30
1.43900	32
1.44267	33
1.44633	32
1.45000	31
1.45367	31
1.45733	31
1.46100	31
1.46467	31
1.46833	32
1.47200	31
1.47567	31
1.47933	31
1.48300	30
1.48667	30
1.49033	30
1.49400	31
1.49767	32
1.50133	35
1.50500	36
1.50867	35
1.51233	34
1.51600	31
1.51967	27
1.52333	24
1.52700	22
1.53067	21
1.53433	22
1.53800	22
1.54167	22
1.54533	22
1.54900	24
1.55267	26
1.55633	24
1.56000	23
1.56367	23
1.56733	23
1.57100	23
1.57467	25
1.57833	27
1.58200	27
1.58567	26
1.58933	26
1.59300	27
1.59667	28
1.60033	28
1.60400	28
1.60767	29
1.61133	28
1.61500	24
1.61867	23
1.62233	23
1.62600	22
1.62967	22
1.63333	22
1.63700	22
1.64067	22
1.64433	23
1.64800	25
1.65167	26
1.65533	27
1.65900	28
1.66267	28
1.66633	28
1.67000	29
1.67367	31
1.67733	33
1.68100	34
1.68467	36
1.68833	38
1.69200	38
1.69567	39
1.69933	38
1.70300	37
1.70667	35
1.71033	33
1.71400	33
1.71767	32
1.72133	31
1.72500	34
1.72867	34
1.73233	35
1.73600	36
1.73967	36
1.74333	34
1.74700	32
1.75067	32
1.75433	32
1.75800	32
1.76167	35
1.76533	36
1.76900	37
1.77267	37
1.77633	38
1.78000	38
1.78367	40
1.78733	41
1.79100	41
1.79467	40
1.79833	40
1.80200	39
1.80567	39
1.80933	38
1.81300	37
1.81667	37
1.82033	36
1.82400	36
1.82767	37
1.83133	37
1.83500	39
1.83867	39
1.84233	39
1.84600	40
1.84967	42
1.85333	43
1.85700	44
1.86067	45
1.86433	47
1.86800	45
1.87167	44
1.87533	44
1.87900	45
1.88267	45
1.88633	44
1.89000	45
1.89367	48
1.89733	51
1.90100	51
1.90467	49
1.90833	46
1.91200	44
1.91567	44
1.91933	44
1.92300	43
1.92667	46
1.93033	49
1.93400	50
1.93767	50
1.94133	50
1.94500	50
1.94867	51
1.95233	52
1.95600	54
1.95967	57
1.96333	59
1.96700	59
1.97067	59
1.97433	59
1.97800	57
1.98167	55
1.98533	55
1.98900	55
1.99267	56
1.99633	57
2.00000	58
2.00367	58
2.00733	58
2.01100	59
2.01467	60
2.01833	62
2.02200	67
2.02567	70
2.02933	71
2.03300	71
2.03667	69
2.04033	68
2.04400	69
2.04767	70
2.05133	71
2.05500	72
2.05867	73
2.06233	74
2.06600	75
2.06967	76
2.07333	76
2.07700	75
2.08067	75
2.08433	77
2.08800	79
2.09167	79
2.09533	82
2.09900	84
2.10267	83
2.10633	83
2.11000	82
2.11367	82
2.11733	84
2.12100	84
2.12467	85
2.12833	86
2.13200	88
2.13567	89
2.13933	90
2.14300	91
2.14667	93
2.15033	93
2.15400	94
2.15767	95
2.16133	98
2.16500	100
2.16867	102
2.17233	102
2.17600	102
2.17967	103
2.18333	102
2.18700	102
2.19067	102
2.19433	103
2.19800	105
2.20167	107
2.20533	109
2.20900	112
2.21267	115
2.21633	117
2.22000	117
2.22367	117
2.22733	117
2.23100	119
2.23467	120
2.23833	120
2.24200	119
2.24567	121
2.24933	124
2.25300	125
2.25667	127
2.26033	131
2.26400	134
2.26767	133
2.27133	135
2.27500	138
2.27867	139
2.28233	141
2.28600	142
2.28967	142
2.29333	145
2.29700	145
2.30067	145
2.30433	147
2.30800	148
2.31167	152
2.31533	154
2.31900	155
2.32267	157
2.32633	160
2.33000	163
2.33367	164
2.33733	166
2.34100	169
2.34467	173
2.34833	177
2.35200	179
2.35567	183
2.35933	184
2.36300	183
2.36667	183
2.37033	183
2.37400	184
2.37767	183
2.38133	184
2.38500	188
2.38867	188
2.39233	187
2.39600	189
2.39967	193
2.40333	198
2.40700	200
2.41067	201
2.41433	202
2.41800	206
2.42167	209
2.42533	212
2.42900	215
2.43267	217
2.43633	220
2.44000	224
2.44367	256
2.44733	350
2.45100	452
2.45467	535
2.45833	591
2.46200	603
2.46567	580
2.46933	549
2.47300	523
2.47667	506
2.48033	497
2.48400	487
2.48767	470
2.49133	446
2.49500	418
2.49867	390
2.50233	367
2.50600	351
2.50967	340
2.51333	336
2.51700	337
2.52067	340
2.52433	347
2.52800	358
2.53167	371
2.53533	384
2.53900	395
2.54267	399
2.54633	396
2.55000	386
2.55367	373
2.55733	358
2.56100	341
2.56467	324
2.56833	310
2.57200	299
2.57567	292
2.57933	288
2.58300	286
2.58667	285
2.59033	284
2.59400	281
2.59767	274
2.60133	260
2.60500	244
2.60867	225
2.61233	206
2.61600	186
2.61967	168
2.62333	152
2.62700	135
2.63067	122
2.63433	114
2.63800	113
2.64167	116
2.64533	120
2.64900	127
2.65267	136
2.65633	147
2.66000	162
2.66367	178
2.66733	191
2.67100	201
2.67467	208
2.67833	214
2.68200	218
2.68567	219
2.68933	218
2.69300	217
2.69667	217
2.70033	216
2.70400	212
2.70767	209
2.71133	208
2.71500	208
2.71867	209
2.72233	208
2.72600	207
2.72967	204
2.73333	203
2.73700	202
2.74067	202
2.74433	201
2.74800	202
2.75167	203
2.75533	204
2.75900	204
2.76267	203
2.76633	205
2.77000	206
2.77367	207
2.77733	210
2.78100	211
2.78467	211
2.78833	211
2.79200	213
2.79567	215
2.79933	217
2.80300	220
2.80667	222
2.81033	221
2.81400	221
2.81767	226
2.82133	242
2.82500	282
2.82867	359
2.83233	496
2.83600	713
2.83967	1032
2.84333	1453
2.84700	1966
2.85067	2548
2.85433	3154
2.85800	3736
2.86167	4245
2.86533	4644
2.86900	4906
2.87267	5020
2.87633	4997
2.88000	4854
2.88367	4618
2.88733	4318
2.89100	3979
2.89467	3627
2.89833	3278
2.90200	2943
2.90567	2629
2.90933	2338
2.91300	2074
2.91667	1837
2.92033	1631
2.92400	1449
2.92767	1288
2.93133	1148
2.93500	1026
2.93867	919
2.94233	826
2.94600	749
2.94967	681
2.95333	622
2.95700	569
2.96067	525
2.96433	487
2.96800	454
2.97167	425
2.97533	400
2.97900	382
2.98267	365
2.98633	349
2.99000	335
2.99367	321
2.99733	307
3.00100	295
3.00467	283
3.00833	274
3.01200	267
3.01567	263
3.01933	259
3.02300	255
3.02667	251
3.03033	244
3.03400	239
3.03767	234
3.04133	229
3.04500	223
3.04867	217
3.05233	212
3.05600	208
3.05967	204
3.06333	204
3.06700	206
3.07067	205
3.07433	202
3.07800	200
3.08167	195
3.08533	191
3.08900	189
3.09267	186
3.09633	183
3.10000	180
3.10367	178
3.10733	178
3.11100	178
3.11467	178
3.11833	175
3.12200	170
3.12567	167
3.12933	168
3.13300	169
3.13667	170
3.14033	170
3.14400	168
3.14767	169
3.15133	169
3.15500	167
3.15867	165
3.16233	165
3.16600	163
3.16967	163
3.17333	162
3.17700	162
3.18067	164
3.18433	163
3.18800	157
3.19167	148
3.19533	142
3.19900	138
3.20267	139
3.20633	143
3.21000	154
3.21367	172
3.21733	197
3.22100	228
3.22467	263
3.22833	300
3.23200	340
3.23567	378
3.23933	413
3.24300	446
3.24667	474
3.25033	497
3.25400	519
3.25767	537
3.26133	552
3.26500	567
3.26867	581
3.27233	588
3.27600	593
3.27967	598
3.28333	605
3.28700	611
3.29067	614
3.29433	615
3.29800	616
3.30167	620
3.30533	622
3.30900	620
3.31267	621
3.31633	624
3.32000	625
3.32367	624
3.32733	625
3.33100	626
3.33467	627
3.33833	630
3.34200	631
3.34567	633
3.34933	634
3.35300	635
3.35667	637
3.36033	638
3.36400	638
3.36767	639
3.37133	639
3.37500	641
3.37867	644
3.38233	645
3.38600	646
3.38967	646
3.39333	646
3.39700	647
3.40067	647
3.40433	646
3.40800	646
3.41167	648
3.41533	649
3.41900	651
3.42267	654
3.42633	655
3.43000	653
3.43367	651
3.43733	646
3.44100	640
3.44467	636
3.44833	634
3.45200	633
3.45567	633
3.45933	632
3.46300	630
3.46667	628
3.47033	628
3.47400	626
3.47767	625
3.48133	625
3.48500	623
3.48867	621
3.49233	617
3.49600	612
3.49967	608
3.50333	607
3.50700	607
3.51067	607
3.51433	608
3.51800	607
3.52167	605
3.52533	606
3.52900	604
3.53267	602
3.53633	602
3.54000	601
3.54367	600
3.54733	596
3.55100	594
3.55467	591
3.55833	588
3.56200	587
3.56567	586
3.56933	585
3.57300	585
3.57667	583
3.58033	582
3.58400	580
3.58767	577
3.59133	573
3.59500	570
3.59867	568
3.60233	565
3.60600	560
3.60967	555
3.61333	554
3.61700	552
3.62067	550
3.62433	548
3.62800	546
3.63167	545
3.63533	544
3.63900	543
3.64267	541
3.64633	539
3.65000	538
3.65367	534
3.65733	533
3.66100	532
3.66467	530
3.66833	528
3.67200	526
3.67567	524
3.67933	524
3.68300	525
3.68667	526
3.69033	525
3.69400	525
3.69767	524
3.70133	520
3.70500	518
3.70867	516
3.71233	514
3.71600	513
3.71967	510
3.72333	509
3.72700	509
3.73067	508
3.73433	509
3.73800	509
3.74167	507
3.74533	504
3.74900	502
3.75267	499
3.75633	498
3.76000	499
3.76367	500
3.76733	501
3.77100	502
3.77467	502
3.77833	499
3.78200	498
3.78567	497
3.78933	497
3.79300	496
3.79667	493
3.80033	490
3.80400	489
3.80767	491
3.81133	493
3.81500	492
3.81867	492
3.82233	489
3.82600	489
3.82967	488
3.83333	487
3.83700	488
3.84067	487
3.84433	488
3.84800	489
3.85167	487
3.85533	485
3.85900	482
3.86267	478
3.86633	476
3.87000	475
3.87367	474
3.87733	475
3.88100	477
3.88467	478
3.88833	479
3.89200	479
3.89567	475
3.89933	472
3.90300	471
3.90667	468
3.91033	467
3.91400	466
3.91767	464
3.92133	462
3.92500	462
3.92867	460
3.93233	459
3.93600	458
3.93967	458
3.94333	459
3.94700	459
3.95067	457
3.95433	456
3.95800	455
3.96167	454
3.96533	454
3.96900	454
3.97267	450
3.97633	448
3.98000	449
3.98367	451
3.98733	451
3.99100	450
3.99467	448
3.99833	444

[Status Trace (Column Oven Temperature)]
Interval(msec)	1000
# of Points	240
Start Time(min)	0.016
End Time(min)	3.999
Intensity Units	
Intensity Multiplier	1
R.Time (min)	Intensity
0.01578	35.06
0.03245	35.05
0.04912	35.05
0.06578	35.05
0.08245	35.05
0.09912	35.05
0.11578	35.05
0.13245	35.05
0.14912	35.06
0.16578	35.05
0.18245	35.05
0.19912	35.04
0.21578	35.03
0.23245	35.03
0.24912	35.03
0.26578	35.01
0.28245	35.00
0.29912	34.99
0.31578	34.97
0.33245	34.98
0.34912	34.98
0.36578	34.98
0.38245	34.99
0.39912	35.00
0.41578	35.00
0.43245	35.01
0.44912	35.03
0.46578	35.02
0.48245	35.00
0.49912	34.99
0.51578	34.97
0.53245	34.98
0.54912	34.97
0.56578	34.97
0.58245	34.97
0.59912	34.99
0.61578	35.00
0.63245	35.01
0.64912	35.02
0.66578	35.02
0.68245	35.01
0.69912	35.01
0.71578	35.00
0.73245	35.00
0.74912	35.00
0.76578	35.01
0.78245	35.02
0.79912	35.02
0.81578	35.01
0.83245	35.01
0.84912	35.00
0.86578	34.99
0.88245	35.00
0.89912	35.00
0.91578	35.00
0.93245	35.01
0.94912	35.02
0.96578	35.01
0.98245	35.02
0.99912	35.02
1.01578	35.02
1.03245	35.03
1.04912	35.03
1.06578	35.03
1.08245	35.02
1.09912	35.02
1.11578	35.02
1.13245	35.01
1.14912	34.99
1.16578	34.99
1.18245	34.99
1.19912	34.98
1.21578	34.96
1.23245	34.96
1.24912	34.96
1.26578	34.96
1.28245	34.97
1.29912	34.98
1.31578	34.99
1.33245	34.99
1.34912	35.00
1.36578	35.01
1.38245	35.01
1.39912	35.00
1.41578	34.99
1.43245	34.99
1.44912	34.98
1.46578	34.98
1.48245	34.98
1.49912	35.00
1.51578	35.00
1.53245	35.00
1.54912	35.00
1.56578	35.00
1.58245	35.01
1.59912	35.04
1.61578	35.11
1.63245	35.25
1.64912	35.45
1.66578	35.75
1.68245	36.13
1.69912	36.49
1.71578	36.84
1.73245	37.18
1.74912	37.50
1.76578	37.81
1.78245	38.15
1.79912	38.49
1.81578	38.81
1.83245	39.14
1.84912	39.47
1.86578	39.82
1.88245	40.12
1.89912	40.45
1.91578	40.78
1.93245	41.10
1.94912	41.43
1.96578	41.75
1.98245	42.07
1.99912	42.38
2.01578	42.72
2.03245	43.03
2.04912	43.37
2.06578	43.70
2.08245	44.01
2.09912	44.35
2.11578	44.70
2.13245	45.00
2.14912	45.36
2.16578	45.68
2.18245	46.00
2.19912	46.32
2.21578	46.65
2.23245	47.00
2.24912	47.32
2.26578	47.65
2.28245	47.99
2.29912	48.31
2.31578	48.65
2.33245	48.98
2.34912	49.30
2.36578	49.53
2.38245	49.62
2.39912	49.64
2.41578	49.62
2.43245	49.63
2.44912	49.63
2.46578	49.64
2.48245	49.65
2.49912	49.66
2.51578	49.68
2.53245	49.69
2.54912	49.70
2.56578	49.71
2.58245	49.72
2.59912	49.74
2.61578	49.76
2.63245	49.77
2.64912	49.81
2.66578	49.82
2.68245	49.82
2.69912	49.83
2.71578	49.85
2.73245	49.86
2.74912	49.85
2.76578	49.84
2.78245	49.87
2.79912	49.91
2.81578	49.92
2.83245	49.92
2.84912	49.92
2.86578	49.91
2.88245	49.91
2.89912	49.91
2.91578	49.91
2.93245	49.92
2.94912	49.93
2.96578	49.95
2.98245	49.96
2.99912	49.97
3.01578	49.98
3.03245	49.99
3.04912	50.02
3.06578	50.04
3.08245	50.05
3.09912	50.06
3.11578	50.07
3.13245	50.07
3.14912	50.08
3.16578	50.08
3.18245	50.09
3.19912	50.10
3.21578	50.10
3.23245	50.08
3.24912	50.08
3.26578	50.09
3.28245	50.10
3.29912	50.11
3.31578	50.12
3.33245	50.11
3.34912	50.10
3.36578	50.08
3.38245	50.06
3.39912	50.05
3.41578	50.04
3.43245	50.04
3.44912	50.04
3.46578	50.03
3.48245	50.03
3.49912	50.02
3.51578	50.02
3.53245	50.03
3.54912	50.03
3.56578	50.03
3.58245	50.04
3.59912	50.04
3.61578	50.04
3.63245	50.04
3.64912	50.04
3.66578	50.04
3.68245	50.03
3.69912	50.04
3.71578	50.04
3.73245	50.03
3.74912	50.03
3.76578	50.03
3.78245	50.03
3.79912	50.03
3.81578	50.03
3.83245	50.05
3.84912	50.05
3.86578	50.05
3.88245	50.05
3.89912	50.05
3.91578	50.05
3.93245	50.05
3.94912	50.05
3.96578	50.06
3.98245	50.06
3.99912	50.05

[Status Trace (Injection Unit Temperature)]
Interval(msec)	1000
# of Points	240
Start Time(min)	0.016
End Time(min)	3.999
Intensity Units	
Intensity Multiplier	1
R.Time (min)	Intensity
0.01578	99.98
0.03245	99.97
0.04912	99.98
0.06578	99.98
0.08245	99.98
0.09912	99.98
0.11578	99.97
0.13245	99.98
0.14912	99.98
0.16578	99.98
0.18245	99.98
0.19912	99.98
0.21578	99.98
0.23245	99.98
0.24912	99.98
0.26578	99.98
0.28245	99.98
0.29912	99.98
0.31578	99.98
0.33245	99.98
0.34912	99.98
0.36578	99.98
0.38245	99.98
0.39912	99.99
0.41578	99.99
0.43245	99.98
0.44912	99.98
0.46578	99.98
0.48245	99.99
0.49912	99.98
0.51578	99.98
0.53245	99.99
0.54912	99.98
0.56578	99.98
0.58245	99.98
0.59912	99.99
0.61578	99.98
0.63245	99.98
0.64912	99.98
0.66578	99.98
0.68245	99.98
0.69912	99.98
0.71578	99.98
0.73245	99.98
0.74912	99.98
0.76578	99.98
0.78245	99.98
0.79912	99.98
0.81578	99.98
0.83245	99.98
0.84912	99.98
0.86578	99.98
0.88245	99.98
0.89912	99.98
0.91578	99.98
0.93245	99.98
0.94912	99.98
0.96578	99.98
0.98245	99.98
0.99912	99.98
1.01578	99.97
1.03245	99.98
1.04912	99.99
1.06578	99.98
1.08245	99.98
1.09912	99.98
1.11578	99.98
1.13245	99.99
1.14912	99.98
1.16578	99.98
1.18245	99.98
1.19912	99.98
1.21578	99.98
1.23245	99.98
1.24912	99.98
1.26578	99.99
1.28245	99.98
1.29912	99.98
1.31578	99.99
1.33245	99.99
1.34912	99.99
1.36578	99.98
1.38245	99.99
1.39912	99.98
1.41578	99.98
1.43245	99.98
1.44912	99.99
1.46578	99.98
1.48245	99.99
1.49912	99.98
1.51578	99.98
1.53245	99.98
1.54912	99.98
1.56578	99.98
1.58245	99.97
1.59912	99.99
1.61578	99.98
1.63245	99.98
1.64912	99.99
1.66578	99.98
1.68245	99.98
1.69912	99.98
1.71578	99.98
1.73245	99.98
1.74912	99.98
1.76578	99.98
1.78245	99.98
1.79912	99.98
1.81578	99.98
1.83245	99.98
1.84912	99.98
1.86578	99.98
1.88245	99.97
1.89912	99.98
1.91578	99.98
1.93245	99.97
1.94912	99.98
1.96578	99.98
1.98245	99.98
1.99912	99.98
2.01578	99.97
2.03245	99.98
2.04912	99.97
2.06578	99.97
2.08245	99.98
2.09912	99.97
2.11578	99.98
2.13245	99.98
2.14912	99.98
2.16578	99.97
2.18245	99.97
2.19912	99.97
2.21578	99.97
2.23245	99.98
2.24912	99.97
2.26578	99.97
2.28245	99.97
2.29912	99.98
2.31578	99.97
2.33245	99.97
2.34912	99.97
2.36578	99.97
2.38245	99.97
2.39912	99.97
2.41578	99.97
2.43245	99.97
2.44912	99.97
2.46578	99.97
2.48245	99.97
2.49912	99.97
2.51578	99.97
2.53245	99.98
2.54912	99.97
2.56578	99.97
2.58245	99.97
2.59912	99.98
2.61578	99.97
2.63245	99.97
2.64912	99.98
2.66578	99.97
2.68245	99.98
2.69912	99.98
2.71578	99.98
2.73245	99.98
2.74912	99.99
2.76578	99.99
2.78245	99.99
2.79912	99.99
2.81578	99.99
2.83245	99.99
2.84912	100.00
2.86578	100.00
2.88245	100.00
2.89912	100.00
2.91578	100.00
2.93245	100.00
2.94912	100.00
2.96578	100.01
2.98245	100.00
2.99912	100.01
3.01578	100.01
3.03245	100.01
3.04912	100.01
3.06578	100.01
3.08245	100.01
3.09912	100.01
3.11578	100.02
3.13245	100.02
3.14912	100.02
3.16578	100.02
3.18245	100.02
3.19912	100.02
3.21578	100.02
3.23245	100.02
3.24912	100.02
3.26578	100.03
3.28245	100.03
3.29912	100.03
3.31578	100.03
3.33245	100.02
3.34912	100.03
3.36578	100.04
3.38245	100.03
3.39912	100.03
3.41578	100.04
3.43245	100.03
3.44912	100.03
3.46578	100.03
3.48245	100.04
3.49912	100.04
3.51578	100.04
3.53245	100.04
3.54912	100.04
3.56578	100.04
3.58245	100.04
3.59912	100.04
3.61578	100.04
3.63245	100.04
3.64912	100.04
3.66578	100.04
3.68245	100.04
3.69912	100.04
3.71578	100.04
3.73245	100.04
3.74912	100.04
3.76578	100.04
3.78245	100.04
3.79912	100.05
3.81578	100.04
3.83245	100.05
3.84912	100.05
3.86578	100.05
3.88245	100.05
3.89912	100.05
3.91578	100.05
3.93245	100.05
3.94912	100.05
3.96578	100.05
3.98245	100.05
3.99912	100.05

[Status Trace (Carrier Gas Pressure)]
Interval(msec)	1000
# of Points	240
Start Time(min)	0.016
End Time(min)	3.999
Intensity Units	
Intensity Multiplier	1
R.Time (min)	Intensity
0.01578	57.06
0.03245	55.81
0.04912	58.20
0.06578	59.88
0.08245	58.53
0.09912	57.97
0.11578	58.00
0.13245	58.01
0.14912	58.01
0.16578	58.00
0.18245	58.00
0.19912	58.00
0.21578	58.00
0.23245	58.00
0.24912	58.00
0.26578	58.00
0.28245	58.00
0.29912	58.00
0.31578	58.00
0.33245	58.00
0.34912	58.00
0.36578	58.00
0.38245	58.00
0.39912	58.00
0.41578	58.00
0.43245	58.00
0.44912	58.00
0.46578	58.00
0.48245	58.00
0.49912	58.00
0.51578	58.00
0.53245	58.00
0.54912	58.00
0.56578	58.00
0.58245	58.00
0.59912	58.00
0.61578	58.00
0.63245	58.00
0.64912	58.00
0.66578	58.00
0.68245	58.00
0.69912	58.00
0.71578	58.00
0.73245	58.00
0.74912	58.00
0.76578	58.00
0.78245	58.00
0.79912	58.00
0.81578	58.00
0.83245	58.00
0.84912	58.00
0.86578	58.00
0.88245	58.00
0.89912	58.00
0.91578	58.00
0.93245	58.00
0.94912	58.00
0.96578	58.00
0.98245	58.00
0.99912	58.00
1.01578	58.00
1.03245	58.00
1.04912	58.00
1.06578	58.00
1.08245	58.00
1.09912	58.00
1.11578	58.00
1.13245	58.00
1.14912	58.00
1.16578	58.00
1.18245	58.00
1.19912	58.00
1.21578	58.00
1.23245	58.00
1.24912	58.00
1.26578	58.00
1.28245	58.00
1.29912	58.00
1.31578	58.00
1.33245	58.00
1.34912	58.00
1.36578	58.00
1.38245	58.00
1.39912	58.00
1.41578	58.00
1.43245	58.00
1.44912	58.00
1.46578	58.00
1.48245	58.00
1.49912	58.00
1.51578	58.00
1.53245	58.00
1.54912	58.00
1.56578	58.00
1.58245	58.00
1.59912	58.00
1.61578	58.00
1.63245	58.00
1.64912	58.01
1.66578	58.01
1.68245	58.01
1.69912	58.00
1.71578	58.00
1.73245	58.00
1.74912	58.00
1.76578	58.00
1.78245	58.00
1.79912	58.00
1.81578	58.00
1.83245	58.00
1.84912	58.00
1.86578	58.00
1.88245	58.00
1.89912	58.00
1.91578	58.00
1.93245	58.00
1.94912	58.00
1.96578	58.00
1.98245	58.00
1.99912	58.00
2.01578	58.00
2.03245	58.00
2.04912	58.00
2.06578	58.00
2.08245	58.00
2.09912	58.00
2.11578	58.00
2.13245	58.00
2.14912	58.00
2.16578	58.00
2.18245	58.00
2.19912	58.00
2.21578	58.00
2.23245	58.00
2.24912	58.00
2.26578	58.00
2.28245	58.00
2.29912	58.00
2.31578	58.00
2.33245	58.00
2.34912	58.00
2.36578	58.00
2.38245	57.99
2.39912	57.99
2.41578	58.00
2.43245	58.00
2.44912	58.00
2.46578	58.00
2.48245	58.00
2.49912	58.00
2.51578	57.99
2.53245	57.99
2.54912	58.00
2.56578	58.00
2.58245	58.00
2.59912	58.00
2.61578	58.00
2.63245	58.00
2.64912	58.00
2.66578	58.00
2.68245	58.00
2.69912	58.00
2.71578	58.00
2.73245	58.00
2.74912	58.00
2.76578	58.00
2.78245	58.00
2.79912	58.00
2.81578	58.00
2.83245	58.00
2.84912	58.00
2.86578	58.00
2.88245	58.00
2.89912	58.00
2.91578	58.00
2.93245	58.00
2.94912	58.00
2.96578	58.00
2.98245	58.00
2.99912	58.00
3.01578	58.00
3.03245	58.00
3.04912	58.00
3.06578	58.00
3.08245	58.00
3.09912	58.00
3.11578	58.00
3.13245	58.00
3.14912	58.00
3.16578	58.00
3.18245	58.00
3.19912	58.00
3.21578	58.00
3.23245	58.00
3.24912	58.00
3.26578	58.00
3.28245	58.00
3.29912	58.00
3.31578	58.00
3.33245	58.00
3.34912	58.00
3.36578	58.00
3.38245	58.00
3.39912	58.00
3.41578	58.00
3.43245	58.00
3.44912	58.00
3.46578	58.00
3.48245	58.00
3.49912	58.00
3.51578	58.00
3.53245	58.00
3.54912	58.00
3.56578	58.00
3.58245	58.00
3.59912	58.00
3.61578	58.00
3.63245	58.00
3.64912	58.00
3.66578	58.00
3.68245	58.00
3.69912	58.00
3.71578	58.00
3.73245	58.00
3.74912	58.00
3.76578	58.00
3.78245	58.00
3.79912	58.00
3.81578	58.00
3.83245	58.00
3.84912	58.00
3.86578	58.00
3.88245	58.00
3.89912	58.00
3.91578	58.00
3.93245	58.00
3.94912	58.00
3.96578	58.00
3.98245	58.00
3.99912	58.00

[Status Trace (Carrier Gas Flow)]
Interval(msec)	1000
# of Points	240
Start Time(min)	0.016
End Time(min)	3.999
Intensity Units	
Intensity Multiplier	1
R.Time (min)	Intensity
0.01578	33.85
0.03245	34.54
0.04912	34.54
0.06578	34.51
0.08245	34.51
0.09912	34.52
0.11578	34.52
0.13245	34.52
0.14912	34.52
0.16578	34.52
0.18245	34.52
0.19912	34.52
0.21578	34.52
0.23245	34.52
0.24912	34.52
0.26578	34.52
0.28245	34.52
0.29912	34.52
0.31578	34.52
0.33245	34.52
0.34912	34.52
0.36578	34.52
0.38245	34.52
0.39912	34.52
0.41578	34.52
0.43245	34.52
0.44912	34.52
0.46578	34.52
0.48245	34.52
0.49912	34.52
0.51578	34.52
0.53245	34.52
0.54912	34.52
0.56578	34.52
0.58245	34.52
0.59912	34.52
0.61578	34.52
0.63245	34.52
0.64912	34.51
0.66578	34.52
0.68245	34.53
0.69912	34.52
0.71578	34.52
0.73245	34.52
0.74912	34.52
0.76578	34.52
0.78245	34.52
0.79912	34.53
0.81578	34.52
0.83245	34.52
0.84912	34.52
0.86578	34.52
0.88245	34.52
0.89912	34.51
0.91578	34.52
0.93245	34.52
0.94912	34.51
0.96578	34.52
0.98245	34.52
0.99912	34.52
1.01578	34.52
1.03245	34.52
1.04912	34.52
1.06578	34.52
1.08245	34.52
1.09912	34.52
1.11578	34.52
1.13245	34.52
1.14912	34.52
1.16578	34.51
1.18245	34.51
1.19912	34.52
1.21578	34.52
1.23245	34.52
1.24912	34.52
1.26578	34.52
1.28245	34.52
1.29912	34.52
1.31578	34.52
1.33245	34.52
1.34912	34.52
1.36578	34.52
1.38245	34.52
1.39912	34.52
1.41578	34.52
1.43245	34.52
1.44912	34.52
1.46578	34.52
1.48245	34.52
1.49912	34.52
1.51578	34.52
1.53245	34.52
1.54912	34.52
1.56578	34.52
1.58245	34.52
1.59912	34.52
1.61578	34.52
1.63245	34.52
1.64912	34.52
1.66578	34.52
1.68245	34.52
1.69912	34.52
1.71578	34.51
1.73245	34.52
1.74912	34.52
1.76578	34.52
1.78245	34.52
1.79912	34.51
1.81578	34.52
1.83245	34.52
1.84912	34.52
1.86578	34.52
1.88245	34.52
1.89912	34.52
1.91578	34.52
1.93245	34.52
1.94912	34.51
1.96578	34.52
1.98245	34.52
1.99912	34.52
2.01578	34.51
2.03245	34.52
2.04912	34.52
2.06578	34.51
2.08245	34.52
2.09912	34.52
2.11578	34.51
2.13245	34.52
2.14912	34.52
2.16578	34.52
2.18245	34.52
2.19912	34.52
2.21578	34.51
2.23245	34.53
2.24912	34.52
2.26578	34.51
2.28245	34.53
2.29912	34.52
2.31578	34.51
2.33245	34.51
2.34912	34.52
2.36578	34.52
2.38245	34.52
2.39912	34.52
2.41578	34.52
2.43245	34.52
2.44912	34.52
2.46578	34.52
2.48245	34.52
2.49912	34.52
2.51578	34.52
2.53245	34.52
2.54912	34.52
2.56578	34.52
2.58245	34.52
2.59912	34.52
2.61578	34.52
2.63245	34.52
2.64912	34.52
2.66578	34.52
2.68245	34.51
2.69912	34.52
2.71578	34.52
2.73245	34.52
2.74912	34.52
2.76578	34.52
2.78245	34.52
2.79912	34.52
2.81578	34.52
2.83245	34.52
2.84912	34.51
2.86578	34.52
2.88245	34.52
2.89912	34.52
2.91578	34.52
2.93245	34.52
2.94912	34.52
2.96578	34.52
2.98245	34.52
2.99912	34.52
3.01578	34.52
3.03245	34.52
3.04912	34.52
3.06578	34.52
3.08245	34.52
3.09912	34.52
3.11578	34.52
3.13245	34.51
3.14912	34.51
3.16578	34.51
3.18245	34.52
3.19912	34.52
3.21578	34.52
3.23245	34.52
3.24912	34.52
3.26578	34.52
3.28245	34.52
3.29912	34.52
3.31578	34.52
3.33245	34.52
3.34912	34.52
3.36578	34.51
3.38245	34.52
3.39912	34.53
3.41578	34.52
3.43245	34.51
3.44912	34.52
3.46578	34.52
3.48245	34.52
3.49912	34.52
3.51578	34.52
3.53245	34.52
3.54912	34.52
3.56578	34.52
3.58245	34.52
3.59912	34.52
3.61578	34.52
3.63245	34.52
3.64912	34.52
3.66578	34.52
3.68245	34.52
3.69912	34.52
3.71578	34.51
3.73245	34.52
3.74912	34.52
3.76578	34.52
3.78245	34.52
3.79912	34.52
3.81578	34.52
3.83245	34.52
3.84912	34.52
3.86578	34.52
3.88245	34.52
3.89912	34.52
3.91578	34.52
3.93245	34.52
3.94912	34.52
3.96578	34.52
3.98245	34.52
3.99912	34.52

[Status Trace (Column Flow)]
Interval(msec)	1000
# of Points	240
Start Time(min)	0.016
End Time(min)	3.999
Intensity Units	
Intensity Multiplier	1
R.Time (min)	Intensity
0.01578	5.46
0.03245	5.31
0.04912	5.59
0.06578	5.79
0.08245	5.63
0.09912	5.56
0.11578	5.57
0.13245	5.57
0.14912	5.57
0.16578	5.57
0.18245	5.57
0.19912	5.57
0.21578	5.57
0.23245	5.57
0.24912	5.57
0.26578	5.57
0.28245	5.57
0.29912	5.57
0.31578	5.57
0.33245	5.57
0.34912	5.57
0.36578	5.57
0.38245	5.57
0.39912	5.57
0.41578	5.57
0.43245	5.57
0.44912	5.57
0.46578	5.57
0.48245	5.57
0.49912	5.57
0.51578	5.57
0.53245	5.57
0.54912	5.57
0.56578	5.57
0.58245	5.57
0.59912	5.57
0.61578	5.57
0.63245	5.57
0.64912	5.57
0.66578	5.57
0.68245	5.57
0.69912	5.57
0.71578	5.57
0.73245	5.57
0.74912	5.57
0.76578	5.57
0.78245	5.57
0.79912	5.57
0.81578	5.57
0.83245	5.57
0.84912	5.57
0.86578	5.57
0.88245	5.57
0.89912	5.57
0.91578	5.57
0.93245	5.57
0.94912	5.57
0.96578	5.57
0.98245	5.57
0.99912	5.57
1.01578	5.57
1.03245	5.57
1.04912	5.57
1.06578	5.57
1.08245	5.57
1.09912	5.57
1.11578	5.57
1.13245	5.57
1.14912	5.57
1.16578	5.57
1.18245	5.57
1.19912	5.57
1.21578	5.57
1.23245	5.57
1.24912	5.57
1.26578	5.57
1.28245	5.57
1.29912	5.57
1.31578	5.57
1.33245	5.57
1.34912	5.57
1.36578	5.57
1.38245	5.57
1.39912	5.57
1.41578	5.57
1.43245	5.57
1.44912	5.57
1.46578	5.57
1.48245	5.57
1.49912	5.57
1.51578	5.57
1.53245	5.57
1.54912	5.57
1.56578	5.57
1.58245	5.57
1.59912	5.57
1.61578	5.57
1.63245	5.56
1.64912	5.56
1.66578	5.55
1.68245	5.53
1.69912	5.52
1.71578	5.51
1.73245	5.50
1.74912	5.49
1.76578	5.48
1.78245	5.47
1.79912	5.46
1.81578	5.45
1.83245	5.44
1.84912	5.43
1.86578	5.42
1.88245	5.41
1.89912	5.40
1.91578	5.39
1.93245	5.38
1.94912	5.37
1.96578	5.36
1.98245	5.35
1.99912	5.34
2.01578	5.33
2.03245	5.32
2.04912	5.31
2.06578	5.30
2.08245	5.29
2.09912	5.28
2.11578	5.28
2.13245	5.27
2.14912	5.26
2.16578	5.25
2.18245	5.24
2.19912	5.23
2.21578	5.22
2.23245	5.21
2.24912	5.20
2.26578	5.19
2.28245	5.18
2.29912	5.17
2.31578	5.16
2.33245	5.15
2.34912	5.14
2.36578	5.14
2.38245	5.13
2.39912	5.13
2.41578	5.13
2.43245	5.13
2.44912	5.13
2.46578	5.13
2.48245	5.13
2.49912	5.13
2.51578	5.13
2.53245	5.13
2.54912	5.13
2.56578	5.13
2.58245	5.13
2.59912	5.13
2.61578	5.13
2.63245	5.13
2.64912	5.13
2.66578	5.13
2.68245	5.13
2.69912	5.13
2.71578	5.13
2.73245	5.13
2.74912	5.13
2.76578	5.13
2.78245	5.13
2.79912	5.13
2.81578	5.13
2.83245	5.13
2.84912	5.13
2.86578	5.13
2.88245	5.13
2.89912	5.13
2.91578	5.13
2.93245	5.13
2.94912	5.13
2.96578	5.12
2.98245	5.12
2.99912	5.12
3.01578	5.12
3.03245	5.12
3.04912	5.12
3.06578	5.12
3.08245	5.12
3.09912	5.12
3.11578	5.12
3.13245	5.12
3.14912	5.12
3.16578	5.12
3.18245	5.12
3.19912	5.12
3.21578	5.12
3.23245	5.12
3.24912	5.12
3.26578	5.12
3.28245	5.12
3.29912	5.12
3.31578	5.12
3.33245	5.12
3.34912	5.12
3.36578	5.12
3.38245	5.12
3.39912	5.12
3.41578	5.12
3.43245	5.12
3.44912	5.12
3.46578	5.12
3.48245	5.12
3.49912	5.12
3.51578	5.12
3.53245	5.12
3.54912	5.12
3.56578	5.12
3.58245	5.12
3.59912	5.12
3.61578	5.12
3.63245	5.12
3.64912	5.12
3.66578	5.12
3.68245	5.12
3.69912	5.12
3.71578	5.12
3.73245	5.12
3.74912	5.12
3.76578	5.12
3.78245	5.12
3.79912	5.12
3.81578	5.12
3.83245	5.12
3.84912	5.12
3.86578	5.12
3.88245	5.12
3.89912	5.12
3.91578	5.12
3.93245	5.12
3.94912	5.12
3.96578	5.12
3.98245	5.12
3.99912	5.12

[Status Trace (Linear Velocity)]
Interval(msec)	1000
# of Points	240
Start Time(min)	0.016
End Time(min)	3.999
Intensity Units	
Intensity Multiplier	1
R.Time (min)	Intensity
0.01578	38.41
0.03245	37.59
0.04912	39.16
0.06578	40.26
0.08245	39.37
0.09912	39.00
0.11578	39.02
0.13245	39.03
0.14912	39.03
0.16578	39.02
0.18245	39.02
0.19912	39.03
0.21578	39.03
0.23245	39.03
0.24912	39.03
0.26578	39.03
0.28245	39.03
0.29912	39.03
0.31578	39.03
0.33245	39.03
0.34912	39.03
0.36578	39.03
0.38245	39.03
0.39912	39.03
0.41578	39.03
0.43245	39.03
0.44912	39.03
0.46578	39.03
0.48245	39.03
0.49912	39.03
0.51578	39.03
0.53245	39.03
0.54912	39.03
0.56578	39.03
0.58245	39.03
0.59912	39.03
0.61578	39.03
0.63245	39.03
0.64912	39.03
0.66578	39.03
0.68245	39.03
0.69912	39.03
0.71578	39.03
0.73245	39.03
0.74912	39.03
0.76578	39.03
0.78245	39.03
0.79912	39.03
0.81578	39.03
0.83245	39.03
0.84912	39.03
0.86578	39.03
0.88245	39.03
0.89912	39.03
0.91578	39.03
0.93245	39.03
0.94912	39.03
0.96578	39.03
0.98245	39.03
0.99912	39.03
1.01578	39.03
1.03245	39.03
1.04912	39.02
1.06578	39.02
1.08245	39.03
1.09912	39.03
1.11578	39.03
1.13245	39.03
1.14912	39.03
1.16578	39.03
1.18245	39.03
1.19912	39.03
1.21578	39.03
1.23245	39.03
1.24912	39.03
1.26578	39.03
1.28245	39.03
1.29912	39.03
1.31578	39.03
1.33245	39.03
1.34912	39.03
1.36578	39.03
1.38245	39.03
1.39912	39.03
1.41578	39.03
1.43245	39.03
1.44912	39.03
1.46578	39.03
1.48245	39.03
1.49912	39.03
1.51578	39.03
1.53245	39.03
1.54912	39.03
1.56578	39.03
1.58245	39.03
1.59912	39.02
1.61578	39.02
1.63245	39.01
1.64912	38.99
1.66578	38.96
1.68245	38.92
1.69912	38.89
1.71578	38.85
1.73245	38.82
1.74912	38.79
1.76578	38.76
1.78245	38.73
1.79912	38.70
1.81578	38.67
1.83245	38.63
1.84912	38.60
1.86578	38.57
1.88245	38.54
1.89912	38.51
1.91578	38.48
1.93245	38.45
1.94912	38.42
1.96578	38.39
1.98245	38.36
1.99912	38.33
2.01578	38.30
2.03245	38.27
2.04912	38.24
2.06578	38.21
2.08245	38.18
2.09912	38.15
2.11578	38.12
2.13245	38.09
2.14912	38.06
2.16578	38.03
2.18245	38.00
2.19912	37.97
2.21578	37.95
2.23245	37.91
2.24912	37.88
2.26578	37.86
2.28245	37.82
2.29912	37.79
2.31578	37.77
2.33245	37.73
2.34912	37.71
2.36578	37.68
2.38245	37.67
2.39912	37.67
2.41578	37.67
2.43245	37.68
2.44912	37.68
2.46578	37.67
2.48245	37.67
2.49912	37.67
2.51578	37.67
2.53245	37.66
2.54912	37.67
2.56578	37.67
2.58245	37.67
2.59912	37.67
2.61578	37.67
2.63245	37.66
2.64912	37.66
2.66578	37.66
2.68245	37.66
2.69912	37.66
2.71578	37.66
2.73245	37.66
2.74912	37.66
2.76578	37.66
2.78245	37.66
2.79912	37.65
2.81578	37.65
2.83245	37.65
2.84912	37.65
2.86578	37.65
2.88245	37.65
2.89912	37.65
2.91578	37.65
2.93245	37.65
2.94912	37.65
2.96578	37.65
2.98245	37.65
2.99912	37.65
3.01578	37.65
3.03245	37.64
3.04912	37.64
3.06578	37.64
3.08245	37.64
3.09912	37.64
3.11578	37.64
3.13245	37.64
3.14912	37.64
3.16578	37.64
3.18245	37.64
3.19912	37.63
3.21578	37.63
3.23245	37.64
3.24912	37.64
3.26578	37.64
3.28245	37.63
3.29912	37.63
3.31578	37.63
3.33245	37.63
3.34912	37.63
3.36578	37.64
3.38245	37.64
3.39912	37.64
3.41578	37.64
3.43245	37.64
3.44912	37.64
3.46578	37.64
3.48245	37.64
3.49912	37.64
3.51578	37.64
3.53245	37.64
3.54912	37.64
3.56578	37.64
3.58245	37.64
3.59912	37.64
3.61578	37.64
3.63245	37.64
3.64912	37.64
3.66578	37.64
3.68245	37.64
3.69912	37.64
3.71578	37.64
3.73245	37.64
3.74912	37.64
3.76578	37.64
3.78245	37.64
3.79912	37.64
3.81578	37.64
3.83245	37.64
3.84912	37.64
3.86578	37.64
3.88245	37.64
3.89912	37.64
3.91578	37.64
3.93245	37.64
3.94912	37.64
3.96578	37.64
3.98245	37.64
3.99912	37.64

