[Header]
Application Name	LabSolutions
Version	5.110
Data File Name	C:\Users\User\Desktop\GC Analyses\Jack\Nachusa Grasslands Sampling\T1 Timepoint July 12th\T1_07122022_051.gcd
Output Date	3/14/2023
Output Time	3:41:00 PM

[File Information]
Type	Data File
Generated	3/8/2023 6:52:53 PM
Generated by	System Administrator
Modified	3/8/2023 6:59:44 PM
Modified by	System Administrator

[Sample Information]
Operator Name	System Administrator
Acquired	3/8/2023 6:55:43 PM
Sample Type	0:Unknown
Level	0
Sample Name	051
Sample ID	051
ISTD Amount1	1
ISTD Amount2	1
ISTD Amount3	1
ISTD Amount4	1
ISTD Amount5	1
ISTD Amount6	1
ISTD Amount7	1
ISTD Amount8	1
ISTD Amount9	1
ISTD Amount10	1
ISTD Amount11	1
ISTD Amount12	1
ISTD Amount13	1
ISTD Amount14	1
ISTD Amount15	1
ISTD Amount16	1
ISTD Amount17	1
ISTD Amount18	1
ISTD Amount19	1
ISTD Amount20	1
ISTD Amount21	1
ISTD Amount22	1
ISTD Amount23	1
ISTD Amount24	1
ISTD Amount25	1
ISTD Amount26	1
ISTD Amount27	1
ISTD Amount28	1
ISTD Amount29	1
ISTD Amount30	1
ISTD Amount31	1
ISTD Amount32	1
Sample Amount	1
Dilution Factor	1
Vial#	50
Injection Volume	1
Injection Count	1
Bar Code	

[Original Files]
Data File	C:\Users\User\Desktop\GC Analyses\Jack\Nachusa Grasslands Sampling\T1 Timepoint July 12th\T1_07122022_051.gcd
Method File	C:\LabSolutions\Data\GHG_4min_2022\ghg3_togas_w_acet_4 min_new_int.gcm
Batch File	C:\LabSolutions\Data\AutoSamplerTesting\T1_07122022.gcb
Report Format File	c:\LabSolutions\System\DEFAULT.lsr

[File Description]


[Configuration]
Instrument Name	C0B7VH3-Instrument1
Instrument #	1
Line #	1
# of Detectors	3
Detector ID	DET#1	DET#2	DET#3
Detector Name	FID	PTCD	ECD
# of Channels	1	1	1

[Peak Table(Ch1)]
# of Peaks	3
Peak#	R.Time	I.Time	F.Time	Area	Height	A/H	Conc.	Mark	ID#	Name	k'	Plate #	Plate Ht.	Tailing	Resolution	Sep.Factor	Area Ratio	Height Ratio	Conc. %	Norm Conc.
1	1.476	1.439	1.538	52895	25472	2.077	373.441	   	1	CO	0.000	9374	16.002	1.337	0.000	0.000	0	0	38.653	38.653
2	1.567	1.538	1.630	5002	2351	2.128	96.713	 V 	2	CH4	0.062	9722	15.429	0.000	1.472	0.000	0	0	10.010	10.010
3	1.996	1.949	2.510	1976290	937030	2.109	495.995	   	3	CO2	0.353	17306	8.667	1.303	6.904	5.680	0	0	51.337	51.337

[Peak Table(Ch2)]
# of Peaks	0

[Peak Table(Ch3)]
# of Peaks	5
Peak#	R.Time	I.Time	F.Time	Area	Height	A/H	Conc.	Mark	ID#	Name	k'	Plate #	Plate Ht.	Tailing	Resolution	Sep.Factor	Area Ratio	Height Ratio	Conc. %	Norm Conc.
1	2.462	2.301	2.513	1858	489	3.800	0.000	   			0.000	8143	18.421	0.000	0.000	0.000	0	0	0.000	0.000
2	2.543	2.513	2.638	1346	292	4.604	0.000	 V 			0.033	2606	57.559	0.000	0.523	0.000	0	0	0.000	0.000
3	2.682	2.638	2.719	307	87	3.521	0.000	 V 			0.089	3392	44.221	0.000	0.727	2.727	0	0	0.000	0.000
4	2.873	2.719	3.093	20594	4910	4.194	0.526	 V 	1	N2O	0.167	12854	11.669	1.854	1.335	1.867	0	0	100.000	100.000
5	3.228	3.100	3.980	15944	562	28.392	0.000	   	2	SF6	0.311	391	384.017	3.411	0.942	1.866	0	0	0.000	0.000

[Compound Results(Ch1)]
# of IDs	6
ID#	Name	R.Time	Area	Height	Conc.	Curve	3rd	2nd	1st	Constant	Area Ratio	Height Ratio	Conc. %	Norm Conc.
1	CO	1.476	52895	25472	373.441	Linear	0.000000e+00	0.000000e+00	1.416423e+002	0.000000e+00	0	0	38.653	38.653
2	CH4	1.567	5002	2351	96.713	Linear	0.000000e+00	0.000000e+00	5.171738e+001	0.000000e+00	0	0	10.010	10.010
3	CO2	1.996	1976290	937030	495.995	Linear	0.000000e+00	0.000000e+00	3.984494e+003	0.000000e+00	0	0	51.337	51.337
4	Ethylene	0.000	0	0	0.000	Linear	0.000000e+00	0.000000e+00	0.000000e+00	0.000000e+00	0	0	0.000	0.000
5	Acetylene	0.000	0	0	0.000	Linear	0.000000e+00	0.000000e+00	0.000000e+00	0.000000e+00	0	0	0.000	0.000
6	Ethane	0.000	0	0	0.000	Linear	0.000000e+00	0.000000e+00	0.000000e+00	0.000000e+00	0	0	0.000	0.000

[Compound Results(Ch2)]
# of IDs	5
ID#	Name	R.Time	Area	Height	Conc.	Curve	3rd	2nd	1st	Constant	Area Ratio	Height Ratio	Conc. %	Norm Conc.
1	Hydrogen	0.000	0	0	0.000	Linear	0.000000e+00	0.000000e+00	0.000000e+00	0.000000e+00	0	0	0.000	0.000
2	Oxygen	0.000	0	0	0.000	Linear	0.000000e+00	0.000000e+00	0.000000e+00	0.000000e+00	0	0	0.000	0.000
3	Nitrogen	0.000	0	0	0.000	Linear	0.000000e+00	0.000000e+00	0.000000e+00	0.000000e+00	0	0	0.000	0.000
4	Methane	0.000	0	0	0.000	Linear	0.000000e+00	0.000000e+00	0.000000e+00	0.000000e+00	0	0	0.000	0.000
5	Carbon Monoxide	0.000	0	0	0.000	Linear	0.000000e+00	0.000000e+00	0.000000e+00	0.000000e+00	0	0	0.000	0.000

[Compound Results(Ch3)]
# of IDs	2
ID#	Name	R.Time	Area	Height	Conc.	Curve	3rd	2nd	1st	Constant	Area Ratio	Height Ratio	Conc. %	Norm Conc.
1	N2O	2.873	20594	4910	0.526	Linear	0.000000e+00	0.000000e+00	3.915173e+004	0.000000e+00	0	0	100.000	100.000
2	SF6	3.228	15944	562	0.000	Linear	0.000000e+00	0.000000e+00	0.000000e+00	0.000000e+00	0	0	0.000	0.000

[Group Results(Ch1)]
# of Groups	0

[Group Results(Ch2)]
# of Groups	0

[Group Results(Ch3)]
# of Groups	0

[Chromatogram (Ch1)]
Interval(msec)	220
# of Points	1091
Start Time(min)	0.002
End Time(min)	3.998
R.Time (min)	Intensity
0.00167	18
0.00533	14
0.00900	8
0.01267	4
0.01633	4
0.02000	8
0.02367	12
0.02733	16
0.03100	16
0.03467	14
0.03833	19
0.04200	26
0.04567	31
0.04933	36
0.05300	41
0.05667	43
0.06033	45
0.06400	48
0.06767	53
0.07133	62
0.07500	71
0.07867	78
0.08233	82
0.08600	84
0.08967	89
0.09333	97
0.09700	106
0.10067	113
0.10433	119
0.10800	121
0.11167	122
0.11533	121
0.11900	118
0.12267	111
0.12633	100
0.13000	90
0.13367	87
0.13733	87
0.14100	91
0.14467	96
0.14833	99
0.15200	98
0.15567	95
0.15933	92
0.16300	90
0.16667	85
0.17033	79
0.17400	67
0.17767	61
0.18133	60
0.18500	60
0.18867	58
0.19233	56
0.19600	57
0.19967	59
0.20333	59
0.20700	61
0.21067	63
0.21433	63
0.21800	60
0.22167	56
0.22533	54
0.22900	53
0.23267	50
0.23633	48
0.24000	45
0.24367	42
0.24733	40
0.25100	41
0.25467	44
0.25833	53
0.26200	60
0.26567	60
0.26933	52
0.27300	45
0.27667	40
0.28033	36
0.28400	25
0.28767	11
0.29133	3
0.29500	-1
0.29867	-2
0.30233	1
0.30600	9
0.30967	21
0.31333	32
0.31700	38
0.32067	40
0.32433	42
0.32800	46
0.33167	48
0.33533	46
0.33900	45
0.34267	41
0.34633	33
0.35000	20
0.35367	13
0.35733	13
0.36100	15
0.36467	15
0.36833	15
0.37200	16
0.37567	18
0.37933	22
0.38300	29
0.38667	35
0.39033	36
0.39400	34
0.39767	33
0.40133	32
0.40500	28
0.40867	22
0.41233	20
0.41600	24
0.41967	27
0.42333	28
0.42700	30
0.43067	32
0.43433	32
0.43800	36
0.44167	42
0.44533	44
0.44900	42
0.45267	37
0.45633	34
0.46000	32
0.46367	31
0.46733	27
0.47100	22
0.47467	20
0.47833	23
0.48200	26
0.48567	28
0.48933	28
0.49300	29
0.49667	28
0.50033	27
0.50400	27
0.50767	26
0.51133	25
0.51500	25
0.51867	26
0.52233	24
0.52600	25
0.52967	30
0.53333	32
0.53700	27
0.54067	24
0.54433	22
0.54800	20
0.55167	20
0.55533	22
0.55900	23
0.56267	26
0.56633	28
0.57000	27
0.57367	23
0.57733	19
0.58100	18
0.58467	19
0.58833	21
0.59200	21
0.59567	22
0.59933	28
0.60300	37
0.60667	44
0.61033	44
0.61400	38
0.61767	32
0.62133	29
0.62500	29
0.62867	30
0.63233	28
0.63600	28
0.63967	30
0.64333	33
0.64700	38
0.65067	45
0.65433	49
0.65800	47
0.66167	46
0.66533	45
0.66900	43
0.67267	42
0.67633	44
0.68000	50
0.68367	53
0.68733	49
0.69100	39
0.69467	29
0.69833	21
0.70200	17
0.70567	12
0.70933	7
0.71300	6
0.71667	8
0.72033	10
0.72400	11
0.72767	11
0.73133	8
0.73500	7
0.73867	5
0.74233	6
0.74600	12
0.74967	20
0.75333	28
0.75700	36
0.76067	43
0.76433	46
0.76800	47
0.77167	44
0.77533	37
0.77900	31
0.78267	27
0.78633	26
0.79000	27
0.79367	28
0.79733	25
0.80100	21
0.80467	15
0.80833	14
0.81200	21
0.81567	33
0.81933	44
0.82300	50
0.82667	50
0.83033	47
0.83400	42
0.83767	34
0.84133	28
0.84500	27
0.84867	34
0.85233	44
0.85600	51
0.85967	54
0.86333	58
0.86700	68
0.87067	78
0.87433	85
0.87800	87
0.88167	87
0.88533	84
0.88900	79
0.89267	74
0.89633	71
0.90000	69
0.90367	68
0.90733	72
0.91100	77
0.91467	79
0.91833	74
0.92200	65
0.92567	59
0.92933	58
0.93300	57
0.93667	54
0.94033	55
0.94400	57
0.94767	54
0.95133	49
0.95500	46
0.95867	48
0.96233	53
0.96600	57
0.96967	62
0.97333	63
0.97700	62
0.98067	64
0.98433	68
0.98800	70
0.99167	67
0.99533	62
0.99900	60
1.00267	62
1.00633	68
1.01000	72
1.01367	76
1.01733	78
1.02100	76
1.02467	73
1.02833	71
1.03200	69
1.03567	67
1.03933	63
1.04300	58
1.04667	56
1.05033	56
1.05400	56
1.05767	57
1.06133	56
1.06500	56
1.06867	56
1.07233	58
1.07600	65
1.07967	74
1.08333	80
1.08700	76
1.09067	70
1.09433	62
1.09800	54
1.10167	46
1.10533	41
1.10900	41
1.11267	41
1.11633	40
1.12000	39
1.12367	39
1.12733	46
1.13100	54
1.13467	59
1.13833	60
1.14200	59
1.14567	57
1.14933	56
1.15300	56
1.15667	58
1.16033	58
1.16400	55
1.16767	52
1.17133	52
1.17500	53
1.17867	51
1.18233	49
1.18600	50
1.18967	54
1.19333	59
1.19700	62
1.20067	62
1.20433	56
1.20800	49
1.21167	45
1.21533	45
1.21900	46
1.22267	45
1.22633	44
1.23000	42
1.23367	45
1.23733	53
1.24100	62
1.24467	67
1.24833	69
1.25200	70
1.25567	71
1.25933	67
1.26300	58
1.26667	47
1.27033	37
1.27400	30
1.27767	25
1.28133	23
1.28500	23
1.28867	24
1.29233	23
1.29600	19
1.29967	14
1.30333	12
1.30700	15
1.31067	26
1.31433	40
1.31800	48
1.32167	48
1.32533	43
1.32900	34
1.33267	25
1.33633	21
1.34000	22
1.34367	25
1.34733	22
1.35100	20
1.35467	20
1.35833	16
1.36200	12
1.36567	11
1.36933	14
1.37300	17
1.37667	20
1.38033	24
1.38400	31
1.38767	40
1.39133	44
1.39500	42
1.39867	35
1.40233	30
1.40600	23
1.40967	18
1.41333	17
1.41700	16
1.42067	16
1.42433	16
1.42800	17
1.43167	15
1.43533	13
1.43900	30
1.44267	128
1.44633	428
1.45000	1352
1.45367	3725
1.45733	7813
1.46100	12809
1.46467	17620
1.46833	21547
1.47200	24262
1.47567	25515
1.47933	25085
1.48300	22981
1.48667	19624
1.49033	15729
1.49400	11985
1.49767	8808
1.50133	6330
1.50500	4503
1.50867	3204
1.51233	2301
1.51600	1677
1.51967	1246
1.52333	952
1.52700	748
1.53067	605
1.53433	506
1.53800	452
1.54167	469
1.54533	612
1.54900	909
1.55267	1309
1.55633	1714
1.56000	2056
1.56367	2301
1.56733	2427
1.57100	2404
1.57467	2219
1.57833	1903
1.58200	1535
1.58567	1182
1.58933	887
1.59300	659
1.59667	486
1.60033	356
1.60400	265
1.60767	201
1.61133	158
1.61500	130
1.61867	114
1.62233	106
1.62600	103
1.62967	98
1.63333	92
1.63700	93
1.64067	99
1.64433	103
1.64800	98
1.65167	90
1.65533	82
1.65900	76
1.66267	71
1.66633	65
1.67000	60
1.67367	57
1.67733	57
1.68100	61
1.68467	60
1.68833	51
1.69200	42
1.69567	38
1.69933	36
1.70300	34
1.70667	35
1.71033	39
1.71400	47
1.71767	52
1.72133	55
1.72500	53
1.72867	49
1.73233	45
1.73600	45
1.73967	46
1.74333	46
1.74700	44
1.75067	41
1.75433	34
1.75800	28
1.76167	26
1.76533	27
1.76900	31
1.77267	34
1.77633	33
1.78000	33
1.78367	36
1.78733	39
1.79100	39
1.79467	39
1.79833	37
1.80200	34
1.80567	31
1.80933	29
1.81300	33
1.81667	41
1.82033	49
1.82400	51
1.82767	52
1.83133	53
1.83500	52
1.83867	49
1.84233	45
1.84600	41
1.84967	38
1.85333	39
1.85700	42
1.86067	42
1.86433	43
1.86800	48
1.87167	47
1.87533	44
1.87900	41
1.88267	40
1.88633	45
1.89000	56
1.89367	60
1.89733	59
1.90100	55
1.90467	56
1.90833	57
1.91200	55
1.91567	47
1.91933	38
1.92300	34
1.92667	35
1.93033	40
1.93400	47
1.93767	51
1.94133	51
1.94500	52
1.94867	57
1.95233	78
1.95600	228
1.95967	1125
1.96333	5239
1.96700	19551
1.97067	57853
1.97433	137302
1.97800	266393
1.98167	434352
1.98533	613420
1.98900	772036
1.99267	885208
1.99633	937128
2.00000	922245
2.00367	846785
2.00733	728146
2.01100	589732
2.01467	453683
2.01833	335036
2.02200	240239
2.02567	169157
2.02933	118197
2.03300	82755
2.03667	58564
2.04033	42210
2.04400	31175
2.04767	23692
2.05133	18563
2.05500	14989
2.05867	12446
2.06233	10594
2.06600	9208
2.06967	8142
2.07333	7301
2.07700	6622
2.08067	6063
2.08433	5596
2.08800	5203
2.09167	4863
2.09533	4562
2.09900	4295
2.10267	4058
2.10633	3845
2.11000	3652
2.11367	3477
2.11733	3316
2.12100	3162
2.12467	3015
2.12833	2878
2.13200	2756
2.13567	2650
2.13933	2554
2.14300	2464
2.14667	2379
2.15033	2301
2.15400	2228
2.15767	2160
2.16133	2095
2.16500	2030
2.16867	1966
2.17233	1907
2.17600	1857
2.17967	1817
2.18333	1777
2.18700	1735
2.19067	1690
2.19433	1640
2.19800	1588
2.20167	1539
2.20533	1491
2.20900	1447
2.21267	1414
2.21633	1385
2.22000	1361
2.22367	1336
2.22733	1314
2.23100	1293
2.23467	1268
2.23833	1240
2.24200	1211
2.24567	1182
2.24933	1158
2.25300	1142
2.25667	1128
2.26033	1109
2.26400	1090
2.26767	1075
2.27133	1060
2.27500	1041
2.27867	1021
2.28233	999
2.28600	975
2.28967	956
2.29333	945
2.29700	935
2.30067	919
2.30433	899
2.30800	881
2.31167	866
2.31533	852
2.31900	839
2.32267	831
2.32633	827
2.33000	822
2.33367	812
2.33733	802
2.34100	791
2.34467	780
2.34833	773
2.35200	768
2.35567	766
2.35933	762
2.36300	757
2.36667	750
2.37033	743
2.37400	736
2.37767	733
2.38133	730
2.38500	722
2.38867	709
2.39233	695
2.39600	683
2.39967	670
2.40333	660
2.40700	654
2.41067	652
2.41433	653
2.41800	654
2.42167	652
2.42533	646
2.42900	640
2.43267	639
2.43633	637
2.44000	633
2.44367	625
2.44733	615
2.45100	607
2.45467	602
2.45833	596
2.46200	591
2.46567	587
2.46933	586
2.47300	584
2.47667	578
2.48033	573
2.48400	570
2.48767	570
2.49133	571
2.49500	571
2.49867	564
2.50233	553
2.50600	544
2.50967	541
2.51333	545
2.51700	550
2.52067	551
2.52433	546
2.52800	541
2.53167	540
2.53533	544
2.53900	551
2.54267	552
2.54633	546
2.55000	534
2.55367	525
2.55733	521
2.56100	516
2.56467	506
2.56833	495
2.57200	485
2.57567	474
2.57933	468
2.58300	467
2.58667	467
2.59033	470
2.59400	474
2.59767	479
2.60133	480
2.60500	477
2.60867	470
2.61233	467
2.61600	466
2.61967	464
2.62333	457
2.62700	446
2.63067	438
2.63433	437
2.63800	434
2.64167	431
2.64533	429
2.64900	434
2.65267	444
2.65633	455
2.66000	461
2.66367	462
2.66733	460
2.67100	457
2.67467	455
2.67833	457
2.68200	457
2.68567	455
2.68933	450
2.69300	445
2.69667	443
2.70033	441
2.70400	440
2.70767	440
2.71133	441
2.71500	444
2.71867	446
2.72233	447
2.72600	450
2.72967	453
2.73333	457
2.73700	458
2.74067	454
2.74433	450
2.74800	444
2.75167	437
2.75533	430
2.75900	421
2.76267	413
2.76633	408
2.77000	406
2.77367	406
2.77733	410
2.78100	417
2.78467	423
2.78833	426
2.79200	427
2.79567	427
2.79933	429
2.80300	434
2.80667	437
2.81033	433
2.81400	429
2.81767	425
2.82133	425
2.82500	425
2.82867	423
2.83233	421
2.83600	420
2.83967	420
2.84333	421
2.84700	423
2.85067	425
2.85433	427
2.85800	427
2.86167	429
2.86533	432
2.86900	434
2.87267	437
2.87633	436
2.88000	433
2.88367	434
2.88733	438
2.89100	443
2.89467	446
2.89833	445
2.90200	442
2.90567	438
2.90933	436
2.91300	435
2.91667	436
2.92033	436
2.92400	432
2.92767	428
2.93133	427
2.93500	430
2.93867	430
2.94233	425
2.94600	418
2.94967	415
2.95333	412
2.95700	408
2.96067	407
2.96433	410
2.96800	413
2.97167	415
2.97533	413
2.97900	410
2.98267	405
2.98633	402
2.99000	399
2.99367	399
2.99733	403
3.00100	409
3.00467	416
3.00833	420
3.01200	421
3.01567	419
3.01933	417
3.02300	413
3.02667	412
3.03033	415
3.03400	417
3.03767	415
3.04133	411
3.04500	408
3.04867	406
3.05233	405
3.05600	406
3.05967	406
3.06333	406
3.06700	407
3.07067	405
3.07433	404
3.07800	409
3.08167	412
3.08533	411
3.08900	412
3.09267	414
3.09633	415
3.10000	419
3.10367	421
3.10733	415
3.11100	402
3.11467	392
3.11833	383
3.12200	381
3.12567	383
3.12933	388
3.13300	390
3.13667	388
3.14033	388
3.14400	388
3.14767	390
3.15133	395
3.15500	403
3.15867	411
3.16233	413
3.16600	409
3.16967	407
3.17333	408
3.17700	407
3.18067	402
3.18433	395
3.18800	384
3.19167	370
3.19533	362
3.19900	359
3.20267	361
3.20633	367
3.21000	370
3.21367	372
3.21733	374
3.22100	378
3.22467	383
3.22833	387
3.23200	389
3.23567	390
3.23933	386
3.24300	383
3.24667	385
3.25033	391
3.25400	396
3.25767	400
3.26133	400
3.26500	397
3.26867	390
3.27233	385
3.27600	382
3.27967	381
3.28333	382
3.28700	386
3.29067	387
3.29433	386
3.29800	384
3.30167	378
3.30533	373
3.30900	370
3.31267	366
3.31633	358
3.32000	352
3.32367	354
3.32733	363
3.33100	376
3.33467	386
3.33833	387
3.34200	382
3.34567	377
3.34933	370
3.35300	361
3.35667	355
3.36033	354
3.36400	356
3.36767	359
3.37133	364
3.37500	367
3.37867	366
3.38233	362
3.38600	357
3.38967	355
3.39333	353
3.39700	351
3.40067	349
3.40433	348
3.40800	349
3.41167	352
3.41533	353
3.41900	351
3.42267	347
3.42633	345
3.43000	344
3.43367	344
3.43733	350
3.44100	362
3.44467	372
3.44833	376
3.45200	373
3.45567	363
3.45933	351
3.46300	343
3.46667	341
3.47033	336
3.47400	329
3.47767	329
3.48133	334
3.48500	341
3.48867	343
3.49233	341
3.49600	337
3.49967	333
3.50333	332
3.50700	332
3.51067	334
3.51433	339
3.51800	346
3.52167	353
3.52533	359
3.52900	362
3.53267	359
3.53633	348
3.54000	335
3.54367	323
3.54733	316
3.55100	314
3.55467	317
3.55833	319
3.56200	322
3.56567	322
3.56933	320
3.57300	320
3.57667	324
3.58033	330
3.58400	333
3.58767	331
3.59133	326
3.59500	321
3.59867	320
3.60233	319
3.60600	319
3.60967	318
3.61333	320
3.61700	324
3.62067	325
3.62433	326
3.62800	328
3.63167	329
3.63533	326
3.63900	321
3.64267	317
3.64633	316
3.65000	313
3.65367	313
3.65733	317
3.66100	319
3.66467	320
3.66833	317
3.67200	312
3.67567	310
3.67933	313
3.68300	316
3.68667	315
3.69033	312
3.69400	312
3.69767	312
3.70133	310
3.70500	308
3.70867	309
3.71233	315
3.71600	322
3.71967	326
3.72333	324
3.72700	314
3.73067	304
3.73433	294
3.73800	287
3.74167	281
3.74533	276
3.74900	269
3.75267	266
3.75633	265
3.76000	267
3.76367	270
3.76733	269
3.77100	272
3.77467	280
3.77833	291
3.78200	308
3.78567	322
3.78933	326
3.79300	319
3.79667	306
3.80033	290
3.80400	273
3.80767	259
3.81133	251
3.81500	252
3.81867	255
3.82233	256
3.82600	258
3.82967	263
3.83333	268
3.83700	275
3.84067	275
3.84433	272
3.84800	268
3.85167	266
3.85533	269
3.85900	271
3.86267	269
3.86633	263
3.87000	258
3.87367	255
3.87733	257
3.88100	259
3.88467	259
3.88833	260
3.89200	261
3.89567	261
3.89933	259
3.90300	256
3.90667	253
3.91033	251
3.91400	251
3.91767	253
3.92133	253
3.92500	254
3.92867	251
3.93233	243
3.93600	235
3.93967	232
3.94333	234
3.94700	239
3.95067	244
3.95433	249
3.95800	253
3.96167	254
3.96533	250
3.96900	244
3.97267	239
3.97633	235
3.98000	235
3.98367	238
3.98733	243
3.99100	246
3.99467	245
3.99833	246

[Chromatogram (Ch2)]
Interval(msec)	220
# of Points	1091
Start Time(min)	0.002
End Time(min)	3.998
R.Time (min)	Intensity
0.00167	0
0.00533	0
0.00900	0
0.01267	0
0.01633	0
0.02000	0
0.02367	0
0.02733	0
0.03100	-0
0.03467	-0
0.03833	-1
0.04200	-1
0.04567	-2
0.04933	-2
0.05300	-2
0.05667	-2
0.06033	-2
0.06400	-2
0.06767	-3
0.07133	-3
0.07500	-3
0.07867	-3
0.08233	-3
0.08600	-2
0.08967	-2
0.09333	-2
0.09700	-2
0.10067	-1
0.10433	-1
0.10800	-1
0.11167	-1
0.11533	-1
0.11900	-1
0.12267	-1
0.12633	-1
0.13000	-1
0.13367	-1
0.13733	-1
0.14100	-1
0.14467	-2
0.14833	-2
0.15200	-3
0.15567	-3
0.15933	-4
0.16300	-4
0.16667	-4
0.17033	-4
0.17400	-4
0.17767	-4
0.18133	-4
0.18500	-3
0.18867	-3
0.19233	-3
0.19600	-3
0.19967	-3
0.20333	-3
0.20700	-3
0.21067	-4
0.21433	-4
0.21800	-4
0.22167	-4
0.22533	-5
0.22900	-5
0.23267	-5
0.23633	-5
0.24000	-5
0.24367	-4
0.24733	-4
0.25100	-4
0.25467	-4
0.25833	-4
0.26200	-4
0.26567	-4
0.26933	-3
0.27300	-3
0.27667	-3
0.28033	-3
0.28400	-3
0.28767	-3
0.29133	-3
0.29500	-2
0.29867	-2
0.30233	-2
0.30600	-1
0.30967	-2
0.31333	-2
0.31700	-2
0.32067	-2
0.32433	-2
0.32800	-1
0.33167	-1
0.33533	-2
0.33900	-2
0.34267	-2
0.34633	-2
0.35000	-2
0.35367	-3
0.35733	-3
0.36100	-3
0.36467	-3
0.36833	-3
0.37200	-3
0.37567	-3
0.37933	-2
0.38300	-2
0.38667	-2
0.39033	-2
0.39400	-3
0.39767	-3
0.40133	-3
0.40500	-3
0.40867	-3
0.41233	-3
0.41600	-3
0.41967	-3
0.42333	-3
0.42700	-4
0.43067	-4
0.43433	-4
0.43800	-5
0.44167	-5
0.44533	-5
0.44900	-5
0.45267	-6
0.45633	-6
0.46000	-6
0.46367	-6
0.46733	-6
0.47100	-6
0.47467	-6
0.47833	-6
0.48200	-6
0.48567	-6
0.48933	-6
0.49300	-6
0.49667	-6
0.50033	-5
0.50400	-5
0.50767	-5
0.51133	-4
0.51500	-4
0.51867	-4
0.52233	-3
0.52600	-3
0.52967	-3
0.53333	-3
0.53700	-3
0.54067	-3
0.54433	-2
0.54800	-2
0.55167	-2
0.55533	-2
0.55900	-2
0.56267	-1
0.56633	-1
0.57000	-1
0.57367	-1
0.57733	-1
0.58100	-1
0.58467	-1
0.58833	-1
0.59200	-1
0.59567	-1
0.59933	-1
0.60300	-1
0.60667	-1
0.61033	-1
0.61400	-1
0.61767	-2
0.62133	-2
0.62500	-3
0.62867	-3
0.63233	-4
0.63600	-4
0.63967	-4
0.64333	-4
0.64700	-5
0.65067	-5
0.65433	-5
0.65800	-5
0.66167	-5
0.66533	-5
0.66900	-5
0.67267	-5
0.67633	-6
0.68000	-5
0.68367	-5
0.68733	-5
0.69100	-5
0.69467	-5
0.69833	-5
0.70200	-5
0.70567	-5
0.70933	-5
0.71300	-5
0.71667	-5
0.72033	-4
0.72400	-4
0.72767	-4
0.73133	-4
0.73500	-4
0.73867	-3
0.74233	-3
0.74600	-3
0.74967	-3
0.75333	-3
0.75700	-3
0.76067	-3
0.76433	-3
0.76800	-3
0.77167	-3
0.77533	-3
0.77900	-3
0.78267	-3
0.78633	-4
0.79000	-4
0.79367	-4
0.79733	-3
0.80100	-3
0.80467	-3
0.80833	-3
0.81200	-3
0.81567	-3
0.81933	-3
0.82300	-4
0.82667	-4
0.83033	-4
0.83400	-4
0.83767	-4
0.84133	-4
0.84500	-3
0.84867	-3
0.85233	-3
0.85600	-3
0.85967	-4
0.86333	-4
0.86700	-4
0.87067	-4
0.87433	-4
0.87800	-4
0.88167	-4
0.88533	-4
0.88900	-4
0.89267	-4
0.89633	-4
0.90000	-4
0.90367	-4
0.90733	-3
0.91100	-3
0.91467	-3
0.91833	-3
0.92200	-3
0.92567	-3
0.92933	-3
0.93300	-3
0.93667	-3
0.94033	-3
0.94400	-3
0.94767	-3
0.95133	-3
0.95500	-2
0.95867	-2
0.96233	-2
0.96600	-2
0.96967	-3
0.97333	-3
0.97700	-3
0.98067	-4
0.98433	-4
0.98800	-4
0.99167	-4
0.99533	-4
0.99900	-4
1.00267	-4
1.00633	-4
1.01000	-5
1.01367	-5
1.01733	-5
1.02100	-5
1.02467	-5
1.02833	-5
1.03200	-5
1.03567	-4
1.03933	-4
1.04300	-4
1.04667	-4
1.05033	-4
1.05400	-4
1.05767	-4
1.06133	-4
1.06500	-4
1.06867	-4
1.07233	-4
1.07600	-4
1.07967	-4
1.08333	-4
1.08700	-4
1.09067	-5
1.09433	-5
1.09800	-5
1.10167	-6
1.10533	-6
1.10900	-6
1.11267	-6
1.11633	-6
1.12000	-6
1.12367	-6
1.12733	-5
1.13100	-5
1.13467	-5
1.13833	-5
1.14200	-5
1.14567	-5
1.14933	-5
1.15300	-5
1.15667	-5
1.16033	-6
1.16400	-6
1.16767	-6
1.17133	-6
1.17500	-6
1.17867	-6
1.18233	-6
1.18600	-6
1.18967	-6
1.19333	-6
1.19700	-6
1.20067	-6
1.20433	-6
1.20800	-6
1.21167	-6
1.21533	-6
1.21900	-7
1.22267	-7
1.22633	-7
1.23000	-7
1.23367	-7
1.23733	-7
1.24100	-7
1.24467	-8
1.24833	-8
1.25200	-8
1.25567	-8
1.25933	-8
1.26300	-8
1.26667	-8
1.27033	-8
1.27400	-8
1.27767	-8
1.28133	-8
1.28500	-8
1.28867	-8
1.29233	-8
1.29600	-8
1.29967	-8
1.30333	-8
1.30700	-8
1.31067	-7
1.31433	-7
1.31800	-7
1.32167	-7
1.32533	-7
1.32900	-7
1.33267	-6
1.33633	-6
1.34000	-6
1.34367	-6
1.34733	-6
1.35100	-5
1.35467	-5
1.35833	-5
1.36200	-5
1.36567	-5
1.36933	-5
1.37300	-4
1.37667	-4
1.38033	-3
1.38400	-3
1.38767	-3
1.39133	-3
1.39500	-3
1.39867	-3
1.40233	-3
1.40600	-3
1.40967	-3
1.41333	-4
1.41700	-4
1.42067	-4
1.42433	-4
1.42800	-4
1.43167	-4
1.43533	-4
1.43900	-4
1.44267	-5
1.44633	-5
1.45000	-5
1.45367	-5
1.45733	-5
1.46100	-5
1.46467	-5
1.46833	-5
1.47200	-5
1.47567	-5
1.47933	-5
1.48300	-5
1.48667	-5
1.49033	-5
1.49400	-5
1.49767	-5
1.50133	-5
1.50500	-5
1.50867	-5
1.51233	-5
1.51600	-4
1.51967	-4
1.52333	-4
1.52700	-4
1.53067	-4
1.53433	-4
1.53800	-4
1.54167	-4
1.54533	-4
1.54900	-4
1.55267	-4
1.55633	-4
1.56000	-4
1.56367	-4
1.56733	-4
1.57100	-5
1.57467	-5
1.57833	-5
1.58200	-6
1.58567	-6
1.58933	-7
1.59300	-7
1.59667	-8
1.60033	-9
1.60400	-10
1.60767	-11
1.61133	-13
1.61500	-16
1.61867	-18
1.62233	-21
1.62600	-24
1.62967	-27
1.63333	-30
1.63700	-33
1.64067	-37
1.64433	-40
1.64800	-44
1.65167	-47
1.65533	-51
1.65900	-54
1.66267	-57
1.66633	-61
1.67000	-65
1.67367	-69
1.67733	-73
1.68100	-78
1.68467	-83
1.68833	-87
1.69200	-92
1.69567	-96
1.69933	-99
1.70300	-102
1.70667	-105
1.71033	-107
1.71400	-108
1.71767	-109
1.72133	-110
1.72500	-111
1.72867	-112
1.73233	-113
1.73600	-114
1.73967	-114
1.74333	-115
1.74700	-116
1.75067	-116
1.75433	-116
1.75800	-116
1.76167	-116
1.76533	-116
1.76900	-116
1.77267	-116
1.77633	-116
1.78000	-116
1.78367	-116
1.78733	-117
1.79100	-117
1.79467	-118
1.79833	-118
1.80200	-119
1.80567	-119
1.80933	-119
1.81300	-119
1.81667	-120
1.82033	-120
1.82400	-121
1.82767	-121
1.83133	-121
1.83500	-121
1.83867	-121
1.84233	-120
1.84600	-118
1.84967	-118
1.85333	-117
1.85700	-116
1.86067	-116
1.86433	-117
1.86800	-117
1.87167	-118
1.87533	-118
1.87900	-118
1.88267	-119
1.88633	-119
1.89000	-119
1.89367	-119
1.89733	-120
1.90100	-120
1.90467	-120
1.90833	-120
1.91200	-120
1.91567	-120
1.91933	-120
1.92300	-119
1.92667	-119
1.93033	-118
1.93400	-118
1.93767	-117
1.94133	-117
1.94500	-116
1.94867	-116
1.95233	-116
1.95600	-115
1.95967	-115
1.96333	-115
1.96700	-115
1.97067	-115
1.97433	-115
1.97800	-114
1.98167	-114
1.98533	-113
1.98900	-113
1.99267	-113
1.99633	-112
2.00000	-112
2.00367	-112
2.00733	-112
2.01100	-112
2.01467	-112
2.01833	-112
2.02200	-112
2.02567	-112
2.02933	-111
2.03300	-110
2.03667	-109
2.04033	-108
2.04400	-107
2.04767	-106
2.05133	-106
2.05500	-105
2.05867	-105
2.06233	-105
2.06600	-105
2.06967	-105
2.07333	-105
2.07700	-105
2.08067	-105
2.08433	-105
2.08800	-105
2.09167	-105
2.09533	-105
2.09900	-105
2.10267	-104
2.10633	-104
2.11000	-104
2.11367	-104
2.11733	-104
2.12100	-104
2.12467	-104
2.12833	-104
2.13200	-103
2.13567	-103
2.13933	-103
2.14300	-102
2.14667	-102
2.15033	-101
2.15400	-100
2.15767	-99
2.16133	-98
2.16500	-98
2.16867	-97
2.17233	-97
2.17600	-97
2.17967	-97
2.18333	-97
2.18700	-97
2.19067	-97
2.19433	-96
2.19800	-95
2.20167	-95
2.20533	-94
2.20900	-94
2.21267	-94
2.21633	-93
2.22000	-94
2.22367	-94
2.22733	-95
2.23100	-95
2.23467	-95
2.23833	-95
2.24200	-94
2.24567	-94
2.24933	-94
2.25300	-93
2.25667	-93
2.26033	-92
2.26400	-92
2.26767	-91
2.27133	-91
2.27500	-91
2.27867	-90
2.28233	-90
2.28600	-90
2.28967	-90
2.29333	-91
2.29700	-91
2.30067	-91
2.30433	-91
2.30800	-90
2.31167	-89
2.31533	-89
2.31900	-88
2.32267	-88
2.32633	-87
2.33000	-86
2.33367	-85
2.33733	-84
2.34100	-83
2.34467	-82
2.34833	-82
2.35200	-81
2.35567	-80
2.35933	-79
2.36300	-77
2.36667	-76
2.37033	-74
2.37400	-71
2.37767	-68
2.38133	-65
2.38500	-62
2.38867	-58
2.39233	-54
2.39600	-49
2.39967	-45
2.40333	-41
2.40700	-37
2.41067	-33
2.41433	-29
2.41800	-26
2.42167	-23
2.42533	-21
2.42900	-19
2.43267	-17
2.43633	-16
2.44000	-14
2.44367	-13
2.44733	-11
2.45100	-10
2.45467	-9
2.45833	-7
2.46200	-7
2.46567	-6
2.46933	-4
2.47300	-3
2.47667	-3
2.48033	-2
2.48400	-1
2.48767	0
2.49133	1
2.49500	2
2.49867	3
2.50233	4
2.50600	5
2.50967	5
2.51333	6
2.51700	6
2.52067	6
2.52433	7
2.52800	7
2.53167	8
2.53533	8
2.53900	9
2.54267	10
2.54633	10
2.55000	10
2.55367	11
2.55733	11
2.56100	12
2.56467	12
2.56833	12
2.57200	12
2.57567	12
2.57933	12
2.58300	11
2.58667	11
2.59033	11
2.59400	11
2.59767	12
2.60133	12
2.60500	11
2.60867	11
2.61233	11
2.61600	10
2.61967	10
2.62333	10
2.62700	10
2.63067	9
2.63433	9
2.63800	9
2.64167	10
2.64533	10
2.64900	11
2.65267	11
2.65633	12
2.66000	13
2.66367	13
2.66733	13
2.67100	13
2.67467	13
2.67833	14
2.68200	14
2.68567	15
2.68933	15
2.69300	16
2.69667	17
2.70033	18
2.70400	18
2.70767	19
2.71133	19
2.71500	19
2.71867	19
2.72233	20
2.72600	20
2.72967	20
2.73333	19
2.73700	19
2.74067	19
2.74433	19
2.74800	20
2.75167	20
2.75533	20
2.75900	21
2.76267	21
2.76633	22
2.77000	23
2.77367	23
2.77733	23
2.78100	23
2.78467	23
2.78833	23
2.79200	23
2.79567	23
2.79933	22
2.80300	22
2.80667	22
2.81033	21
2.81400	21
2.81767	20
2.82133	20
2.82500	20
2.82867	19
2.83233	19
2.83600	19
2.83967	17
2.84333	15
2.84700	10
2.85067	4
2.85433	-6
2.85800	-19
2.86167	-36
2.86533	-58
2.86900	-83
2.87267	-113
2.87633	-147
2.88000	-185
2.88367	-227
2.88733	-272
2.89100	-319
2.89467	-369
2.89833	-420
2.90200	-472
2.90567	-526
2.90933	-580
2.91300	-633
2.91667	-687
2.92033	-740
2.92400	-791
2.92767	-842
2.93133	-895
2.93500	-952
2.93867	-1012
2.94233	-1065
2.94600	-1099
2.94967	-1110
2.95333	-1094
2.95700	-1054
2.96067	-996
2.96433	-926
2.96800	-848
2.97167	-767
2.97533	-687
2.97900	-610
2.98267	-538
2.98633	-471
2.99000	-410
2.99367	-355
2.99733	-307
3.00100	-264
3.00467	-226
3.00833	-193
3.01200	-165
3.01567	-140
3.01933	-118
3.02300	-100
3.02667	-84
3.03033	-70
3.03400	-58
3.03767	-47
3.04133	-39
3.04500	-32
3.04867	-26
3.05233	-21
3.05600	-17
3.05967	-13
3.06333	-9
3.06700	-6
3.07067	-4
3.07433	-1
3.07800	1
3.08167	2
3.08533	3
3.08900	4
3.09267	5
3.09633	6
3.10000	7
3.10367	7
3.10733	8
3.11100	8
3.11467	9
3.11833	9
3.12200	9
3.12567	9
3.12933	10
3.13300	10
3.13667	10
3.14033	11
3.14400	11
3.14767	12
3.15133	12
3.15500	12
3.15867	13
3.16233	13
3.16600	14
3.16967	14
3.17333	15
3.17700	15
3.18067	15
3.18433	15
3.18800	15
3.19167	15
3.19533	15
3.19900	15
3.20267	15
3.20633	15
3.21000	15
3.21367	15
3.21733	15
3.22100	15
3.22467	15
3.22833	15
3.23200	16
3.23567	16
3.23933	16
3.24300	17
3.24667	17
3.25033	18
3.25400	18
3.25767	19
3.26133	19
3.26500	19
3.26867	20
3.27233	20
3.27600	21
3.27967	21
3.28333	21
3.28700	21
3.29067	22
3.29433	22
3.29800	22
3.30167	22
3.30533	22
3.30900	22
3.31267	22
3.31633	22
3.32000	22
3.32367	21
3.32733	21
3.33100	21
3.33467	21
3.33833	21
3.34200	21
3.34567	21
3.34933	21
3.35300	21
3.35667	21
3.36033	21
3.36400	21
3.36767	21
3.37133	21
3.37500	22
3.37867	22
3.38233	22
3.38600	22
3.38967	22
3.39333	22
3.39700	22
3.40067	22
3.40433	22
3.40800	22
3.41167	22
3.41533	22
3.41900	22
3.42267	21
3.42633	21
3.43000	22
3.43367	22
3.43733	22
3.44100	22
3.44467	22
3.44833	22
3.45200	22
3.45567	22
3.45933	22
3.46300	21
3.46667	22
3.47033	22
3.47400	22
3.47767	22
3.48133	22
3.48500	22
3.48867	22
3.49233	22
3.49600	22
3.49967	22
3.50333	22
3.50700	21
3.51067	21
3.51433	21
3.51800	21
3.52167	21
3.52533	21
3.52900	21
3.53267	21
3.53633	21
3.54000	21
3.54367	21
3.54733	21
3.55100	21
3.55467	21
3.55833	21
3.56200	21
3.56567	21
3.56933	21
3.57300	21
3.57667	21
3.58033	21
3.58400	22
3.58767	22
3.59133	22
3.59500	22
3.59867	22
3.60233	22
3.60600	22
3.60967	22
3.61333	22
3.61700	22
3.62067	22
3.62433	22
3.62800	22
3.63167	22
3.63533	22
3.63900	22
3.64267	22
3.64633	22
3.65000	22
3.65367	22
3.65733	22
3.66100	22
3.66467	22
3.66833	22
3.67200	22
3.67567	22
3.67933	23
3.68300	23
3.68667	23
3.69033	22
3.69400	22
3.69767	22
3.70133	22
3.70500	22
3.70867	22
3.71233	22
3.71600	22
3.71967	22
3.72333	21
3.72700	21
3.73067	21
3.73433	21
3.73800	21
3.74167	21
3.74533	21
3.74900	21
3.75267	22
3.75633	22
3.76000	22
3.76367	22
3.76733	22
3.77100	22
3.77467	22
3.77833	22
3.78200	21
3.78567	21
3.78933	21
3.79300	20
3.79667	20
3.80033	20
3.80400	20
3.80767	20
3.81133	20
3.81500	20
3.81867	20
3.82233	21
3.82600	21
3.82967	21
3.83333	21
3.83700	21
3.84067	21
3.84433	21
3.84800	21
3.85167	21
3.85533	20
3.85900	20
3.86267	20
3.86633	20
3.87000	20
3.87367	20
3.87733	20
3.88100	21
3.88467	21
3.88833	21
3.89200	21
3.89567	22
3.89933	22
3.90300	22
3.90667	22
3.91033	22
3.91400	22
3.91767	22
3.92133	22
3.92500	22
3.92867	21
3.93233	21
3.93600	21
3.93967	21
3.94333	21
3.94700	21
3.95067	21
3.95433	21
3.95800	22
3.96167	22
3.96533	22
3.96900	22
3.97267	22
3.97633	22
3.98000	22
3.98367	22
3.98733	23
3.99100	23
3.99467	23
3.99833	23

[Chromatogram (Ch3)]
Interval(msec)	220
# of Points	1091
Start Time(min)	0.002
End Time(min)	3.998
R.Time (min)	Intensity
0.00167	-0
0.00533	1
0.00900	2
0.01267	4
0.01633	2
0.02000	2
0.02367	1
0.02733	2
0.03100	3
0.03467	2
0.03833	3
0.04200	4
0.04567	5
0.04933	6
0.05300	5
0.05667	4
0.06033	3
0.06400	3
0.06767	3
0.07133	2
0.07500	3
0.07867	2
0.08233	2
0.08600	3
0.08967	2
0.09333	1
0.09700	0
0.10067	-2
0.10433	-4
0.10800	-5
0.11167	-6
0.11533	-7
0.11900	-7
0.12267	-7
0.12633	-9
0.13000	-11
0.13367	-10
0.13733	-8
0.14100	-7
0.14467	-5
0.14833	-5
0.15200	-5
0.15567	-5
0.15933	-3
0.16300	-3
0.16667	-1
0.17033	0
0.17400	0
0.17767	-1
0.18133	-2
0.18500	-4
0.18867	-5
0.19233	-6
0.19600	-7
0.19967	-6
0.20333	-5
0.20700	-5
0.21067	-5
0.21433	-5
0.21800	-6
0.22167	-5
0.22533	-5
0.22900	-5
0.23267	-5
0.23633	-4
0.24000	-4
0.24367	-3
0.24733	-3
0.25100	-2
0.25467	-1
0.25833	-2
0.26200	-2
0.26567	-2
0.26933	0
0.27300	0
0.27667	-1
0.28033	1
0.28400	3
0.28767	2
0.29133	-0
0.29500	-1
0.29867	-0
0.30233	1
0.30600	1
0.30967	1
0.31333	1
0.31700	-0
0.32067	-2
0.32433	-3
0.32800	-2
0.33167	-4
0.33533	-6
0.33900	-4
0.34267	-2
0.34633	1
0.35000	4
0.35367	4
0.35733	5
0.36100	4
0.36467	4
0.36833	4
0.37200	6
0.37567	5
0.37933	3
0.38300	1
0.38667	-1
0.39033	-3
0.39400	-3
0.39767	-4
0.40133	-3
0.40500	-2
0.40867	0
0.41233	2
0.41600	3
0.41967	1
0.42333	1
0.42700	-1
0.43067	-0
0.43433	1
0.43800	2
0.44167	0
0.44533	-2
0.44900	-3
0.45267	-4
0.45633	-3
0.46000	-1
0.46367	2
0.46733	3
0.47100	2
0.47467	-0
0.47833	-3
0.48200	-5
0.48567	-5
0.48933	-3
0.49300	-3
0.49667	-4
0.50033	-3
0.50400	-2
0.50767	-0
0.51133	2
0.51500	3
0.51867	5
0.52233	6
0.52600	7
0.52967	8
0.53333	10
0.53700	12
0.54067	10
0.54433	9
0.54800	7
0.55167	5
0.55533	6
0.55900	7
0.56267	7
0.56633	8
0.57000	8
0.57367	7
0.57733	7
0.58100	8
0.58467	7
0.58833	7
0.59200	8
0.59567	9
0.59933	8
0.60300	8
0.60667	9
0.61033	9
0.61400	9
0.61767	8
0.62133	7
0.62500	7
0.62867	8
0.63233	7
0.63600	8
0.63967	10
0.64333	10
0.64700	10
0.65067	10
0.65433	9
0.65800	8
0.66167	7
0.66533	6
0.66900	7
0.67267	8
0.67633	10
0.68000	12
0.68367	14
0.68733	15
0.69100	14
0.69467	13
0.69833	15
0.70200	16
0.70567	17
0.70933	19
0.71300	19
0.71667	17
0.72033	17
0.72400	16
0.72767	13
0.73133	10
0.73500	11
0.73867	14
0.74233	16
0.74600	19
0.74967	18
0.75333	16
0.75700	15
0.76067	14
0.76433	13
0.76800	14
0.77167	14
0.77533	12
0.77900	12
0.78267	12
0.78633	13
0.79000	12
0.79367	10
0.79733	10
0.80100	10
0.80467	10
0.80833	10
0.81200	10
0.81567	11
0.81933	12
0.82300	12
0.82667	10
0.83033	8
0.83400	8
0.83767	8
0.84133	6
0.84500	4
0.84867	4
0.85233	5
0.85600	7
0.85967	9
0.86333	8
0.86700	9
0.87067	9
0.87433	8
0.87800	9
0.88167	10
0.88533	9
0.88900	10
0.89267	10
0.89633	11
0.90000	12
0.90367	13
0.90733	13
0.91100	11
0.91467	12
0.91833	11
0.92200	10
0.92567	12
0.92933	13
0.93300	14
0.93667	12
0.94033	13
0.94400	14
0.94767	13
0.95133	12
0.95500	12
0.95867	13
0.96233	12
0.96600	13
0.96967	16
0.97333	19
0.97700	19
0.98067	20
0.98433	22
0.98800	22
0.99167	19
0.99533	18
0.99900	18
1.00267	17
1.00633	18
1.01000	19
1.01367	20
1.01733	20
1.02100	19
1.02467	17
1.02833	15
1.03200	15
1.03567	15
1.03933	13
1.04300	12
1.04667	12
1.05033	12
1.05400	14
1.05767	15
1.06133	15
1.06500	16
1.06867	16
1.07233	15
1.07600	14
1.07967	12
1.08333	11
1.08700	13
1.09067	13
1.09433	11
1.09800	12
1.10167	11
1.10533	8
1.10900	6
1.11267	7
1.11633	9
1.12000	9
1.12367	7
1.12733	6
1.13100	8
1.13467	9
1.13833	9
1.14200	9
1.14567	10
1.14933	11
1.15300	11
1.15667	10
1.16033	11
1.16400	11
1.16767	8
1.17133	7
1.17500	8
1.17867	7
1.18233	6
1.18600	7
1.18967	8
1.19333	8
1.19700	5
1.20067	4
1.20433	3
1.20800	1
1.21167	0
1.21533	2
1.21900	2
1.22267	4
1.22633	6
1.23000	8
1.23367	8
1.23733	8
1.24100	9
1.24467	6
1.24833	7
1.25200	8
1.25567	8
1.25933	7
1.26300	8
1.26667	9
1.27033	9
1.27400	7
1.27767	6
1.28133	5
1.28500	3
1.28867	3
1.29233	5
1.29600	6
1.29967	7
1.30333	8
1.30700	8
1.31067	7
1.31433	9
1.31800	10
1.32167	11
1.32533	10
1.32900	8
1.33267	8
1.33633	8
1.34000	9
1.34367	9
1.34733	8
1.35100	8
1.35467	8
1.35833	8
1.36200	9
1.36567	9
1.36933	8
1.37300	8
1.37667	9
1.38033	8
1.38400	8
1.38767	9
1.39133	11
1.39500	11
1.39867	12
1.40233	13
1.40600	14
1.40967	11
1.41333	10
1.41700	10
1.42067	12
1.42433	15
1.42800	16
1.43167	15
1.43533	15
1.43900	14
1.44267	14
1.44633	13
1.45000	14
1.45367	13
1.45733	12
1.46100	12
1.46467	13
1.46833	15
1.47200	14
1.47567	13
1.47933	13
1.48300	14
1.48667	15
1.49033	15
1.49400	15
1.49767	14
1.50133	13
1.50500	13
1.50867	14
1.51233	14
1.51600	12
1.51967	11
1.52333	14
1.52700	15
1.53067	13
1.53433	12
1.53800	13
1.54167	13
1.54533	15
1.54900	16
1.55267	16
1.55633	13
1.56000	11
1.56367	12
1.56733	16
1.57100	17
1.57467	16
1.57833	15
1.58200	13
1.58567	12
1.58933	12
1.59300	11
1.59667	10
1.60033	12
1.60400	15
1.60767	19
1.61133	18
1.61500	17
1.61867	14
1.62233	15
1.62600	18
1.62967	21
1.63333	23
1.63700	23
1.64067	24
1.64433	26
1.64800	27
1.65167	27
1.65533	28
1.65900	28
1.66267	29
1.66633	30
1.67000	28
1.67367	25
1.67733	25
1.68100	28
1.68467	28
1.68833	29
1.69200	29
1.69567	28
1.69933	26
1.70300	27
1.70667	27
1.71033	27
1.71400	27
1.71767	28
1.72133	30
1.72500	32
1.72867	32
1.73233	32
1.73600	30
1.73967	29
1.74333	29
1.74700	28
1.75067	30
1.75433	31
1.75800	32
1.76167	34
1.76533	35
1.76900	36
1.77267	37
1.77633	40
1.78000	42
1.78367	42
1.78733	41
1.79100	40
1.79467	39
1.79833	37
1.80200	39
1.80567	41
1.80933	43
1.81300	44
1.81667	44
1.82033	44
1.82400	45
1.82767	46
1.83133	49
1.83500	51
1.83867	54
1.84233	54
1.84600	53
1.84967	51
1.85333	49
1.85700	50
1.86067	50
1.86433	49
1.86800	49
1.87167	48
1.87533	48
1.87900	49
1.88267	49
1.88633	51
1.89000	53
1.89367	55
1.89733	56
1.90100	56
1.90467	55
1.90833	54
1.91200	55
1.91567	56
1.91933	58
1.92300	59
1.92667	59
1.93033	61
1.93400	63
1.93767	62
1.94133	58
1.94500	57
1.94867	60
1.95233	62
1.95600	63
1.95967	66
1.96333	68
1.96700	70
1.97067	71
1.97433	71
1.97800	71
1.98167	71
1.98533	71
1.98900	72
1.99267	74
1.99633	76
2.00000	77
2.00367	79
2.00733	83
2.01100	86
2.01467	88
2.01833	90
2.02200	89
2.02567	88
2.02933	84
2.03300	81
2.03667	80
2.04033	81
2.04400	84
2.04767	88
2.05133	89
2.05500	92
2.05867	92
2.06233	95
2.06600	96
2.06967	97
2.07333	98
2.07700	99
2.08067	99
2.08433	97
2.08800	96
2.09167	96
2.09533	97
2.09900	100
2.10267	102
2.10633	106
2.11000	106
2.11367	106
2.11733	106
2.12100	109
2.12467	111
2.12833	114
2.13200	116
2.13567	117
2.13933	117
2.14300	119
2.14667	121
2.15033	124
2.15400	127
2.15767	128
2.16133	129
2.16500	130
2.16867	131
2.17233	131
2.17600	134
2.17967	136
2.18333	139
2.18700	139
2.19067	140
2.19433	143
2.19800	145
2.20167	146
2.20533	148
2.20900	149
2.21267	150
2.21633	153
2.22000	155
2.22367	155
2.22733	155
2.23100	155
2.23467	155
2.23833	156
2.24200	155
2.24567	156
2.24933	159
2.25300	163
2.25667	166
2.26033	168
2.26400	169
2.26767	170
2.27133	173
2.27500	177
2.27867	178
2.28233	180
2.28600	181
2.28967	181
2.29333	179
2.29700	177
2.30067	176
2.30433	177
2.30800	179
2.31167	178
2.31533	180
2.31900	186
2.32267	188
2.32633	187
2.33000	187
2.33367	188
2.33733	193
2.34100	196
2.34467	197
2.34833	200
2.35200	202
2.35567	204
2.35933	204
2.36300	204
2.36667	207
2.37033	209
2.37400	211
2.37767	212
2.38133	214
2.38500	215
2.38867	213
2.39233	213
2.39600	218
2.39967	225
2.40333	230
2.40700	235
2.41067	238
2.41433	238
2.41800	239
2.42167	239
2.42533	241
2.42900	244
2.43267	246
2.43633	248
2.44000	252
2.44367	290
2.44733	390
2.45100	497
2.45467	583
2.45833	636
2.46200	646
2.46567	626
2.46933	599
2.47300	578
2.47667	566
2.48033	557
2.48400	544
2.48767	522
2.49133	493
2.49500	460
2.49867	430
2.50233	406
2.50600	391
2.50967	383
2.51333	381
2.51700	383
2.52067	389
2.52433	400
2.52800	412
2.53167	425
2.53533	434
2.53900	439
2.54267	439
2.54633	433
2.55000	420
2.55367	405
2.55733	389
2.56100	373
2.56467	359
2.56833	345
2.57200	334
2.57567	329
2.57933	326
2.58300	325
2.58667	322
2.59033	318
2.59400	314
2.59767	307
2.60133	296
2.60500	278
2.60867	257
2.61233	236
2.61600	213
2.61967	192
2.62333	173
2.62700	158
2.63067	149
2.63433	142
2.63800	140
2.64167	141
2.64533	146
2.64900	154
2.65267	163
2.65633	175
2.66000	186
2.66367	195
2.66733	202
2.67100	208
2.67467	213
2.67833	217
2.68200	217
2.68567	216
2.68933	215
2.69300	214
2.69667	212
2.70033	209
2.70400	207
2.70767	205
2.71133	202
2.71500	200
2.71867	197
2.72233	196
2.72600	196
2.72967	197
2.73333	198
2.73700	201
2.74067	205
2.74433	207
2.74800	209
2.75167	211
2.75533	212
2.75900	214
2.76267	214
2.76633	214
2.77000	214
2.77367	215
2.77733	216
2.78100	218
2.78467	217
2.78833	216
2.79200	216
2.79567	219
2.79933	220
2.80300	221
2.80667	221
2.81033	223
2.81400	228
2.81767	235
2.82133	252
2.82500	289
2.82867	364
2.83233	501
2.83600	723
2.83967	1042
2.84333	1465
2.84700	1980
2.85067	2558
2.85433	3159
2.85800	3736
2.86167	4243
2.86533	4641
2.86900	4903
2.87267	5017
2.87633	4993
2.88000	4850
2.88367	4612
2.88733	4312
2.89100	3978
2.89467	3632
2.89833	3289
2.90200	2953
2.90567	2638
2.90933	2352
2.91300	2095
2.91667	1860
2.92033	1651
2.92400	1467
2.92767	1306
2.93133	1167
2.93500	1047
2.93867	942
2.94233	850
2.94600	768
2.94967	698
2.95333	639
2.95700	589
2.96067	545
2.96433	508
2.96800	475
2.97167	445
2.97533	419
2.97900	395
2.98267	375
2.98633	358
2.99000	345
2.99367	335
2.99733	326
3.00100	317
3.00467	308
3.00833	301
3.01200	296
3.01567	290
3.01933	285
3.02300	278
3.02667	272
3.03033	266
3.03400	262
3.03767	258
3.04133	255
3.04500	251
3.04867	247
3.05233	243
3.05600	240
3.05967	238
3.06333	235
3.06700	233
3.07067	232
3.07433	230
3.07800	215
3.08167	175
3.08533	134
3.08900	102
3.09267	81
3.09633	69
3.10000	71
3.10367	89
3.10733	118
3.11100	156
3.11467	201
3.11833	250
3.12200	299
3.12567	347
3.12933	389
3.13300	427
3.13667	461
3.14033	491
3.14400	516
3.14767	538
3.15133	557
3.15500	574
3.15867	589
3.16233	600
3.16600	609
3.16967	618
3.17333	625
3.17700	632
3.18067	639
3.18433	644
3.18800	649
3.19167	655
3.19533	662
3.19900	669
3.20267	674
3.20633	675
3.21000	680
3.21367	687
3.21733	691
3.22100	694
3.22467	697
3.22833	700
3.23200	701
3.23567	701
3.23933	700
3.24300	701
3.24667	703
3.25033	703
3.25400	703
3.25767	701
3.26133	700
3.26500	699
3.26867	698
3.27233	697
3.27600	696
3.27967	693
3.28333	689
3.28700	688
3.29067	688
3.29433	685
3.29800	683
3.30167	680
3.30533	679
3.30900	678
3.31267	678
3.31633	679
3.32000	679
3.32367	676
3.32733	673
3.33100	671
3.33467	671
3.33833	672
3.34200	673
3.34567	674
3.34933	672
3.35300	670
3.35667	668
3.36033	668
3.36400	669
3.36767	671
3.37133	673
3.37500	672
3.37867	671
3.38233	670
3.38600	670
3.38967	668
3.39333	665
3.39700	666
3.40067	667
3.40433	667
3.40800	667
3.41167	669
3.41533	668
3.41900	668
3.42267	668
3.42633	667
3.43000	667
3.43367	668
3.43733	668
3.44100	668
3.44467	668
3.44833	668
3.45200	666
3.45567	664
3.45933	663
3.46300	663
3.46667	664
3.47033	663
3.47400	664
3.47767	662
3.48133	660
3.48500	658
3.48867	657
3.49233	655
3.49600	651
3.49967	650
3.50333	649
3.50700	647
3.51067	644
3.51433	641
3.51800	637
3.52167	632
3.52533	628
3.52900	626
3.53267	625
3.53633	624
3.54000	620
3.54367	619
3.54733	617
3.55100	616
3.55467	615
3.55833	612
3.56200	610
3.56567	609
3.56933	608
3.57300	608
3.57667	608
3.58033	610
3.58400	610
3.58767	608
3.59133	606
3.59500	605
3.59867	605
3.60233	604
3.60600	603
3.60967	605
3.61333	606
3.61700	605
3.62067	607
3.62433	608
3.62800	607
3.63167	605
3.63533	604
3.63900	604
3.64267	604
3.64633	604
3.65000	604
3.65367	602
3.65733	602
3.66100	601
3.66467	601
3.66833	601
3.67200	604
3.67567	605
3.67933	603
3.68300	601
3.68667	599
3.69033	598
3.69400	598
3.69767	596
3.70133	595
3.70500	595
3.70867	594
3.71233	594
3.71600	594
3.71967	595
3.72333	596
3.72700	597
3.73067	599
3.73433	598
3.73800	598
3.74167	596
3.74533	593
3.74900	590
3.75267	588
3.75633	587
3.76000	587
3.76367	585
3.76733	583
3.77100	582
3.77467	581
3.77833	580
3.78200	581
3.78567	582
3.78933	583
3.79300	581
3.79667	580
3.80033	580
3.80400	580
3.80767	580
3.81133	582
3.81500	583
3.81867	583
3.82233	583
3.82600	581
3.82967	580
3.83333	579
3.83700	577
3.84067	576
3.84433	574
3.84800	573
3.85167	574
3.85533	576
3.85900	576
3.86267	574
3.86633	573
3.87000	570
3.87367	568
3.87733	565
3.88100	562
3.88467	561
3.88833	562
3.89200	564
3.89567	563
3.89933	560
3.90300	558
3.90667	556
3.91033	554
3.91400	551
3.91767	550
3.92133	550
3.92500	548
3.92867	546
3.93233	545
3.93600	546
3.93967	546
3.94333	545
3.94700	543
3.95067	541
3.95433	538
3.95800	538
3.96167	536
3.96533	535
3.96900	535
3.97267	535
3.97633	535
3.98000	535
3.98367	533
3.98733	531
3.99100	529
3.99467	524
3.99833	520

[Status Trace (Column Oven Temperature)]
Interval(msec)	1000
# of Points	240
Start Time(min)	0.014
End Time(min)	3.998
Intensity Units	
Intensity Multiplier	1
R.Time (min)	Intensity
0.01418	35.03
0.03085	35.03
0.04752	35.02
0.06418	35.02
0.08085	35.02
0.09752	35.02
0.11418	35.01
0.13085	35.02
0.14752	35.02
0.16418	35.03
0.18085	35.02
0.19752	35.03
0.21418	35.04
0.23085	35.05
0.24752	35.05
0.26418	35.05
0.28085	35.04
0.29752	35.02
0.31418	35.02
0.33085	35.01
0.34752	35.02
0.36418	35.01
0.38085	35.01
0.39752	35.01
0.41418	35.01
0.43085	35.02
0.44752	35.03
0.46418	35.04
0.48085	35.04
0.49752	35.04
0.51418	35.03
0.53085	35.02
0.54752	35.01
0.56418	35.01
0.58085	35.00
0.59752	35.00
0.61418	35.00
0.63085	35.01
0.64752	35.01
0.66418	35.02
0.68085	35.02
0.69752	35.01
0.71418	35.01
0.73085	35.01
0.74752	34.99
0.76418	34.99
0.78085	34.99
0.79752	34.99
0.81418	34.98
0.83085	34.99
0.84752	35.00
0.86418	34.99
0.88085	34.99
0.89752	34.99
0.91418	34.99
0.93085	34.99
0.94752	34.98
0.96418	34.97
0.98085	34.97
0.99752	34.97
1.01418	34.97
1.03085	34.97
1.04752	34.96
1.06418	34.96
1.08085	34.97
1.09752	34.96
1.11418	34.96
1.13085	34.97
1.14752	34.97
1.16418	34.99
1.18085	34.99
1.19752	34.99
1.21418	34.99
1.23085	35.01
1.24752	35.02
1.26418	35.03
1.28085	35.04
1.29752	35.05
1.31418	35.04
1.33085	35.03
1.34752	35.03
1.36418	35.02
1.38085	35.02
1.39752	35.00
1.41418	35.00
1.43085	35.00
1.44752	35.00
1.46418	35.00
1.48085	35.00
1.49752	35.00
1.51418	34.99
1.53085	34.98
1.54752	34.97
1.56418	34.97
1.58085	34.98
1.59752	35.02
1.61418	35.12
1.63085	35.27
1.64752	35.49
1.66418	35.75
1.68085	36.10
1.69752	36.46
1.71418	36.80
1.73085	37.15
1.74752	37.47
1.76418	37.81
1.78085	38.13
1.79752	38.47
1.81418	38.80
1.83085	39.14
1.84752	39.44
1.86418	39.78
1.88085	40.11
1.89752	40.45
1.91418	40.77
1.93085	41.11
1.94752	41.42
1.96418	41.75
1.98085	42.08
1.99752	42.39
2.01418	42.74
2.03085	43.04
2.04752	43.35
2.06418	43.70
2.08085	44.02
2.09752	44.33
2.11418	44.67
2.13085	45.00
2.14752	45.32
2.16418	45.63
2.18085	45.97
2.19752	46.27
2.21418	46.62
2.23085	46.96
2.24752	47.29
2.26418	47.61
2.28085	47.95
2.29752	48.32
2.31418	48.64
2.33085	48.96
2.34752	49.27
2.36418	49.50
2.38085	49.65
2.39752	49.68
2.41418	49.66
2.43085	49.67
2.44752	49.65
2.46418	49.67
2.48085	49.68
2.49752	49.69
2.51418	49.70
2.53085	49.72
2.54752	49.72
2.56418	49.73
2.58085	49.76
2.59752	49.77
2.61418	49.79
2.63085	49.81
2.64752	49.80
2.66418	49.83
2.68085	49.84
2.69752	49.84
2.71418	49.85
2.73085	49.87
2.74752	49.87
2.76418	49.86
2.78085	49.85
2.79752	49.85
2.81418	49.88
2.83085	49.90
2.84752	49.90
2.86418	49.91
2.88085	49.92
2.89752	49.92
2.91418	49.92
2.93085	49.93
2.94752	49.94
2.96418	49.95
2.98085	49.97
2.99752	49.98
3.01418	49.99
3.03085	49.98
3.04752	50.00
3.06418	50.00
3.08085	50.01
3.09752	50.02
3.11418	50.03
3.13085	50.05
3.14752	50.06
3.16418	50.06
3.18085	50.07
3.19752	50.08
3.21418	50.10
3.23085	50.11
3.24752	50.10
3.26418	50.09
3.28085	50.09
3.29752	50.08
3.31418	50.08
3.33085	50.07
3.34752	50.08
3.36418	50.08
3.38085	50.08
3.39752	50.08
3.41418	50.08
3.43085	50.08
3.44752	50.08
3.46418	50.08
3.48085	50.08
3.49752	50.08
3.51418	50.08
3.53085	50.08
3.54752	50.09
3.56418	50.08
3.58085	50.09
3.59752	50.08
3.61418	50.08
3.63085	50.08
3.64752	50.07
3.66418	50.07
3.68085	50.07
3.69752	50.08
3.71418	50.07
3.73085	50.07
3.74752	50.07
3.76418	50.08
3.78085	50.09
3.79752	50.09
3.81418	50.10
3.83085	50.09
3.84752	50.09
3.86418	50.09
3.88085	50.09
3.89752	50.09
3.91418	50.09
3.93085	50.09
3.94752	50.10
3.96418	50.09
3.98085	50.08
3.99752	50.07

[Status Trace (Injection Unit Temperature)]
Interval(msec)	1000
# of Points	240
Start Time(min)	0.014
End Time(min)	3.998
Intensity Units	
Intensity Multiplier	1
R.Time (min)	Intensity
0.01418	99.98
0.03085	99.98
0.04752	99.98
0.06418	99.98
0.08085	99.98
0.09752	99.98
0.11418	99.98
0.13085	99.98
0.14752	99.98
0.16418	99.98
0.18085	99.99
0.19752	99.98
0.21418	99.98
0.23085	99.98
0.24752	99.98
0.26418	99.98
0.28085	99.99
0.29752	99.99
0.31418	99.98
0.33085	99.98
0.34752	99.98
0.36418	99.98
0.38085	99.98
0.39752	99.98
0.41418	99.98
0.43085	99.98
0.44752	99.98
0.46418	99.98
0.48085	99.98
0.49752	99.98
0.51418	99.98
0.53085	99.98
0.54752	99.98
0.56418	99.98
0.58085	99.98
0.59752	99.98
0.61418	99.98
0.63085	99.98
0.64752	99.98
0.66418	99.98
0.68085	99.98
0.69752	99.98
0.71418	99.98
0.73085	99.98
0.74752	99.97
0.76418	99.98
0.78085	99.98
0.79752	99.97
0.81418	99.98
0.83085	99.98
0.84752	99.98
0.86418	99.98
0.88085	99.97
0.89752	99.97
0.91418	99.97
0.93085	99.97
0.94752	99.97
0.96418	99.97
0.98085	99.98
0.99752	99.97
1.01418	99.97
1.03085	99.97
1.04752	99.98
1.06418	99.97
1.08085	99.97
1.09752	99.97
1.11418	99.98
1.13085	99.98
1.14752	99.98
1.16418	99.98
1.18085	99.98
1.19752	99.98
1.21418	99.98
1.23085	99.98
1.24752	99.98
1.26418	99.98
1.28085	99.98
1.29752	99.98
1.31418	99.99
1.33085	99.98
1.34752	99.98
1.36418	99.99
1.38085	99.99
1.39752	99.99
1.41418	99.99
1.43085	99.99
1.44752	99.99
1.46418	99.99
1.48085	99.99
1.49752	99.99
1.51418	99.99
1.53085	99.99
1.54752	99.99
1.56418	99.99
1.58085	99.99
1.59752	99.99
1.61418	99.99
1.63085	99.99
1.64752	99.99
1.66418	99.99
1.68085	99.99
1.69752	99.99
1.71418	99.99
1.73085	99.99
1.74752	99.99
1.76418	99.99
1.78085	99.99
1.79752	99.99
1.81418	99.98
1.83085	99.99
1.84752	99.98
1.86418	99.98
1.88085	99.99
1.89752	99.98
1.91418	99.98
1.93085	99.98
1.94752	99.98
1.96418	99.98
1.98085	99.98
1.99752	99.98
2.01418	99.98
2.03085	99.98
2.04752	99.98
2.06418	99.98
2.08085	99.98
2.09752	99.97
2.11418	99.97
2.13085	99.98
2.14752	99.97
2.16418	99.97
2.18085	99.97
2.19752	99.97
2.21418	99.97
2.23085	99.97
2.24752	99.97
2.26418	99.96
2.28085	99.96
2.29752	99.97
2.31418	99.97
2.33085	99.96
2.34752	99.97
2.36418	99.96
2.38085	99.96
2.39752	99.97
2.41418	99.97
2.43085	99.96
2.44752	99.97
2.46418	99.97
2.48085	99.97
2.49752	99.97
2.51418	99.97
2.53085	99.97
2.54752	99.97
2.56418	99.97
2.58085	99.97
2.59752	99.97
2.61418	99.97
2.63085	99.98
2.64752	99.98
2.66418	99.98
2.68085	99.98
2.69752	99.98
2.71418	99.98
2.73085	99.98
2.74752	99.99
2.76418	99.99
2.78085	99.99
2.79752	99.99
2.81418	99.99
2.83085	100.00
2.84752	99.99
2.86418	100.00
2.88085	100.00
2.89752	100.00
2.91418	100.00
2.93085	100.01
2.94752	100.01
2.96418	100.00
2.98085	100.01
2.99752	100.01
3.01418	100.01
3.03085	100.01
3.04752	100.01
3.06418	100.01
3.08085	100.02
3.09752	100.02
3.11418	100.02
3.13085	100.02
3.14752	100.02
3.16418	100.02
3.18085	100.02
3.19752	100.02
3.21418	100.03
3.23085	100.03
3.24752	100.03
3.26418	100.03
3.28085	100.03
3.29752	100.03
3.31418	100.03
3.33085	100.03
3.34752	100.03
3.36418	100.03
3.38085	100.03
3.39752	100.04
3.41418	100.04
3.43085	100.03
3.44752	100.04
3.46418	100.04
3.48085	100.04
3.49752	100.04
3.51418	100.04
3.53085	100.04
3.54752	100.04
3.56418	100.04
3.58085	100.04
3.59752	100.05
3.61418	100.04
3.63085	100.04
3.64752	100.04
3.66418	100.05
3.68085	100.05
3.69752	100.05
3.71418	100.05
3.73085	100.04
3.74752	100.05
3.76418	100.05
3.78085	100.05
3.79752	100.05
3.81418	100.05
3.83085	100.05
3.84752	100.05
3.86418	100.05
3.88085	100.05
3.89752	100.05
3.91418	100.04
3.93085	100.05
3.94752	100.05
3.96418	100.05
3.98085	100.05
3.99752	100.05

[Status Trace (Carrier Gas Pressure)]
Interval(msec)	1000
# of Points	240
Start Time(min)	0.014
End Time(min)	3.998
Intensity Units	
Intensity Multiplier	1
R.Time (min)	Intensity
0.01418	57.36
0.03085	55.41
0.04752	57.95
0.06418	59.85
0.08085	58.72
0.09752	57.98
0.11418	58.00
0.13085	58.01
0.14752	58.01
0.16418	58.00
0.18085	58.00
0.19752	58.00
0.21418	58.00
0.23085	58.00
0.24752	58.00
0.26418	58.00
0.28085	58.00
0.29752	58.00
0.31418	58.00
0.33085	58.00
0.34752	58.00
0.36418	58.00
0.38085	58.00
0.39752	58.00
0.41418	58.00
0.43085	58.00
0.44752	58.00
0.46418	58.00
0.48085	58.00
0.49752	58.00
0.51418	58.00
0.53085	58.00
0.54752	58.00
0.56418	58.00
0.58085	58.00
0.59752	58.00
0.61418	58.00
0.63085	58.00
0.64752	58.00
0.66418	58.00
0.68085	58.00
0.69752	58.00
0.71418	58.00
0.73085	58.00
0.74752	58.00
0.76418	58.00
0.78085	58.00
0.79752	58.00
0.81418	58.00
0.83085	58.00
0.84752	58.00
0.86418	58.00
0.88085	58.00
0.89752	58.00
0.91418	58.00
0.93085	58.00
0.94752	58.00
0.96418	58.00
0.98085	58.00
0.99752	58.00
1.01418	58.00
1.03085	58.00
1.04752	58.00
1.06418	58.00
1.08085	58.00
1.09752	58.00
1.11418	58.00
1.13085	58.00
1.14752	58.00
1.16418	58.00
1.18085	58.00
1.19752	58.00
1.21418	58.00
1.23085	58.00
1.24752	58.00
1.26418	58.00
1.28085	58.00
1.29752	58.00
1.31418	58.00
1.33085	58.00
1.34752	58.00
1.36418	58.00
1.38085	58.00
1.39752	58.00
1.41418	58.00
1.43085	58.00
1.44752	58.00
1.46418	58.00
1.48085	58.00
1.49752	58.00
1.51418	58.00
1.53085	58.00
1.54752	58.00
1.56418	58.00
1.58085	58.00
1.59752	58.00
1.61418	58.00
1.63085	58.00
1.64752	58.00
1.66418	58.00
1.68085	58.01
1.69752	58.00
1.71418	58.00
1.73085	58.00
1.74752	58.00
1.76418	58.00
1.78085	58.00
1.79752	58.00
1.81418	58.00
1.83085	58.00
1.84752	58.00
1.86418	58.00
1.88085	58.00
1.89752	58.00
1.91418	58.00
1.93085	58.00
1.94752	58.00
1.96418	58.00
1.98085	58.00
1.99752	58.00
2.01418	58.00
2.03085	58.00
2.04752	58.00
2.06418	58.00
2.08085	58.00
2.09752	58.00
2.11418	58.00
2.13085	58.00
2.14752	58.00
2.16418	58.00
2.18085	58.00
2.19752	58.00
2.21418	58.00
2.23085	58.00
2.24752	58.00
2.26418	58.00
2.28085	58.00
2.29752	58.00
2.31418	58.00
2.33085	58.00
2.34752	58.00
2.36418	58.00
2.38085	57.99
2.39752	57.99
2.41418	57.99
2.43085	58.00
2.44752	58.00
2.46418	58.00
2.48085	58.00
2.49752	58.00
2.51418	57.99
2.53085	57.99
2.54752	58.00
2.56418	58.00
2.58085	58.00
2.59752	58.00
2.61418	58.00
2.63085	58.00
2.64752	58.00
2.66418	58.00
2.68085	58.00
2.69752	58.00
2.71418	58.00
2.73085	58.00
2.74752	58.00
2.76418	58.00
2.78085	58.00
2.79752	58.00
2.81418	58.00
2.83085	58.00
2.84752	58.00
2.86418	58.00
2.88085	58.00
2.89752	58.00
2.91418	58.00
2.93085	58.00
2.94752	58.00
2.96418	58.00
2.98085	58.00
2.99752	58.00
3.01418	58.00
3.03085	58.00
3.04752	58.00
3.06418	58.00
3.08085	58.00
3.09752	58.00
3.11418	58.00
3.13085	58.00
3.14752	58.00
3.16418	58.00
3.18085	58.00
3.19752	58.00
3.21418	58.00
3.23085	58.00
3.24752	58.00
3.26418	58.00
3.28085	58.00
3.29752	58.00
3.31418	58.00
3.33085	58.00
3.34752	58.00
3.36418	58.00
3.38085	58.00
3.39752	58.00
3.41418	58.00
3.43085	58.00
3.44752	58.00
3.46418	58.00
3.48085	58.00
3.49752	58.00
3.51418	58.00
3.53085	58.00
3.54752	58.00
3.56418	58.00
3.58085	58.00
3.59752	58.00
3.61418	58.00
3.63085	58.00
3.64752	58.00
3.66418	58.00
3.68085	58.00
3.69752	58.00
3.71418	58.00
3.73085	58.00
3.74752	58.00
3.76418	58.00
3.78085	58.00
3.79752	58.00
3.81418	58.00
3.83085	58.00
3.84752	58.00
3.86418	58.00
3.88085	58.00
3.89752	58.00
3.91418	58.00
3.93085	58.00
3.94752	58.00
3.96418	58.00
3.98085	58.00
3.99752	58.00

[Status Trace (Carrier Gas Flow)]
Interval(msec)	1000
# of Points	240
Start Time(min)	0.014
End Time(min)	3.998
Intensity Units	
Intensity Multiplier	1
R.Time (min)	Intensity
0.01418	33.97
0.03085	34.53
0.04752	34.54
0.06418	34.51
0.08085	34.51
0.09752	34.52
0.11418	34.52
0.13085	34.52
0.14752	34.52
0.16418	34.52
0.18085	34.52
0.19752	34.52
0.21418	34.52
0.23085	34.51
0.24752	34.52
0.26418	34.52
0.28085	34.52
0.29752	34.52
0.31418	34.52
0.33085	34.52
0.34752	34.52
0.36418	34.52
0.38085	34.52
0.39752	34.52
0.41418	34.52
0.43085	34.52
0.44752	34.52
0.46418	34.51
0.48085	34.52
0.49752	34.52
0.51418	34.52
0.53085	34.52
0.54752	34.52
0.56418	34.52
0.58085	34.52
0.59752	34.52
0.61418	34.52
0.63085	34.51
0.64752	34.52
0.66418	34.52
0.68085	34.52
0.69752	34.52
0.71418	34.52
0.73085	34.52
0.74752	34.52
0.76418	34.52
0.78085	34.52
0.79752	34.51
0.81418	34.52
0.83085	34.52
0.84752	34.52
0.86418	34.52
0.88085	34.52
0.89752	34.52
0.91418	34.52
0.93085	34.52
0.94752	34.52
0.96418	34.52
0.98085	34.52
0.99752	34.52
1.01418	34.52
1.03085	34.52
1.04752	34.52
1.06418	34.52
1.08085	34.52
1.09752	34.52
1.11418	34.52
1.13085	34.52
1.14752	34.52
1.16418	34.52
1.18085	34.52
1.19752	34.52
1.21418	34.52
1.23085	34.52
1.24752	34.52
1.26418	34.52
1.28085	34.52
1.29752	34.52
1.31418	34.52
1.33085	34.52
1.34752	34.52
1.36418	34.52
1.38085	34.52
1.39752	34.51
1.41418	34.52
1.43085	34.52
1.44752	34.52
1.46418	34.52
1.48085	34.52
1.49752	34.52
1.51418	34.52
1.53085	34.52
1.54752	34.51
1.56418	34.52
1.58085	34.52
1.59752	34.52
1.61418	34.52
1.63085	34.52
1.64752	34.52
1.66418	34.52
1.68085	34.52
1.69752	34.52
1.71418	34.52
1.73085	34.52
1.74752	34.52
1.76418	34.52
1.78085	34.53
1.79752	34.52
1.81418	34.52
1.83085	34.52
1.84752	34.52
1.86418	34.52
1.88085	34.52
1.89752	34.52
1.91418	34.52
1.93085	34.52
1.94752	34.52
1.96418	34.51
1.98085	34.52
1.99752	34.51
2.01418	34.52
2.03085	34.51
2.04752	34.52
2.06418	34.52
2.08085	34.52
2.09752	34.52
2.11418	34.52
2.13085	34.52
2.14752	34.51
2.16418	34.52
2.18085	34.52
2.19752	34.52
2.21418	34.52
2.23085	34.52
2.24752	34.52
2.26418	34.51
2.28085	34.52
2.29752	34.52
2.31418	34.51
2.33085	34.52
2.34752	34.52
2.36418	34.52
2.38085	34.52
2.39752	34.52
2.41418	34.52
2.43085	34.52
2.44752	34.52
2.46418	34.51
2.48085	34.52
2.49752	34.52
2.51418	34.52
2.53085	34.52
2.54752	34.52
2.56418	34.52
2.58085	34.52
2.59752	34.52
2.61418	34.52
2.63085	34.52
2.64752	34.52
2.66418	34.52
2.68085	34.52
2.69752	34.52
2.71418	34.52
2.73085	34.51
2.74752	34.52
2.76418	34.52
2.78085	34.52
2.79752	34.52
2.81418	34.52
2.83085	34.51
2.84752	34.52
2.86418	34.52
2.88085	34.52
2.89752	34.52
2.91418	34.52
2.93085	34.52
2.94752	34.52
2.96418	34.52
2.98085	34.51
2.99752	34.52
3.01418	34.52
3.03085	34.52
3.04752	34.52
3.06418	34.52
3.08085	34.52
3.09752	34.51
3.11418	34.52
3.13085	34.52
3.14752	34.51
3.16418	34.52
3.18085	34.52
3.19752	34.52
3.21418	34.52
3.23085	34.52
3.24752	34.52
3.26418	34.52
3.28085	34.52
3.29752	34.52
3.31418	34.52
3.33085	34.52
3.34752	34.52
3.36418	34.52
3.38085	34.52
3.39752	34.52
3.41418	34.52
3.43085	34.52
3.44752	34.52
3.46418	34.51
3.48085	34.52
3.49752	34.52
3.51418	34.52
3.53085	34.52
3.54752	34.52
3.56418	34.51
3.58085	34.52
3.59752	34.52
3.61418	34.52
3.63085	34.52
3.64752	34.52
3.66418	34.51
3.68085	34.52
3.69752	34.52
3.71418	34.51
3.73085	34.52
3.74752	34.53
3.76418	34.52
3.78085	34.52
3.79752	34.52
3.81418	34.52
3.83085	34.52
3.84752	34.52
3.86418	34.52
3.88085	34.52
3.89752	34.52
3.91418	34.52
3.93085	34.52
3.94752	34.52
3.96418	34.52
3.98085	34.52
3.99752	34.52

[Status Trace (Column Flow)]
Interval(msec)	1000
# of Points	240
Start Time(min)	0.014
End Time(min)	3.998
Intensity Units	
Intensity Multiplier	1
R.Time (min)	Intensity
0.01418	5.49
0.03085	5.26
0.04752	5.56
0.06418	5.78
0.08085	5.65
0.09752	5.56
0.11418	5.57
0.13085	5.57
0.14752	5.57
0.16418	5.57
0.18085	5.57
0.19752	5.57
0.21418	5.57
0.23085	5.57
0.24752	5.57
0.26418	5.57
0.28085	5.57
0.29752	5.57
0.31418	5.57
0.33085	5.57
0.34752	5.57
0.36418	5.57
0.38085	5.57
0.39752	5.57
0.41418	5.57
0.43085	5.57
0.44752	5.57
0.46418	5.57
0.48085	5.56
0.49752	5.56
0.51418	5.57
0.53085	5.57
0.54752	5.57
0.56418	5.57
0.58085	5.57
0.59752	5.57
0.61418	5.57
0.63085	5.57
0.64752	5.57
0.66418	5.57
0.68085	5.57
0.69752	5.57
0.71418	5.57
0.73085	5.57
0.74752	5.57
0.76418	5.57
0.78085	5.57
0.79752	5.57
0.81418	5.57
0.83085	5.57
0.84752	5.57
0.86418	5.57
0.88085	5.57
0.89752	5.57
0.91418	5.57
0.93085	5.57
0.94752	5.57
0.96418	5.57
0.98085	5.57
0.99752	5.57
1.01418	5.57
1.03085	5.57
1.04752	5.57
1.06418	5.57
1.08085	5.57
1.09752	5.57
1.11418	5.57
1.13085	5.57
1.14752	5.57
1.16418	5.57
1.18085	5.57
1.19752	5.57
1.21418	5.57
1.23085	5.57
1.24752	5.57
1.26418	5.57
1.28085	5.57
1.29752	5.56
1.31418	5.56
1.33085	5.57
1.34752	5.57
1.36418	5.57
1.38085	5.57
1.39752	5.57
1.41418	5.57
1.43085	5.57
1.44752	5.57
1.46418	5.57
1.48085	5.57
1.49752	5.57
1.51418	5.57
1.53085	5.57
1.54752	5.57
1.56418	5.57
1.58085	5.57
1.59752	5.57
1.61418	5.56
1.63085	5.56
1.64752	5.55
1.66418	5.54
1.68085	5.53
1.69752	5.52
1.71418	5.51
1.73085	5.50
1.74752	5.49
1.76418	5.48
1.78085	5.47
1.79752	5.46
1.81418	5.45
1.83085	5.44
1.84752	5.43
1.86418	5.42
1.88085	5.41
1.89752	5.40
1.91418	5.39
1.93085	5.38
1.94752	5.37
1.96418	5.36
1.98085	5.35
1.99752	5.34
2.01418	5.33
2.03085	5.32
2.04752	5.31
2.06418	5.30
2.08085	5.29
2.09752	5.28
2.11418	5.27
2.13085	5.26
2.14752	5.25
2.16418	5.24
2.18085	5.24
2.19752	5.22
2.21418	5.22
2.23085	5.21
2.24752	5.20
2.26418	5.19
2.28085	5.18
2.29752	5.17
2.31418	5.16
2.33085	5.15
2.34752	5.14
2.36418	5.13
2.38085	5.13
2.39752	5.13
2.41418	5.13
2.43085	5.13
2.44752	5.13
2.46418	5.13
2.48085	5.13
2.49752	5.13
2.51418	5.13
2.53085	5.13
2.54752	5.13
2.56418	5.13
2.58085	5.13
2.59752	5.13
2.61418	5.13
2.63085	5.12
2.64752	5.13
2.66418	5.12
2.68085	5.12
2.69752	5.12
2.71418	5.12
2.73085	5.12
2.74752	5.12
2.76418	5.12
2.78085	5.12
2.79752	5.12
2.81418	5.12
2.83085	5.12
2.84752	5.12
2.86418	5.12
2.88085	5.12
2.89752	5.12
2.91418	5.12
2.93085	5.12
2.94752	5.12
2.96418	5.12
2.98085	5.12
2.99752	5.12
3.01418	5.12
3.03085	5.12
3.04752	5.12
3.06418	5.12
3.08085	5.12
3.09752	5.12
3.11418	5.12
3.13085	5.12
3.14752	5.12
3.16418	5.12
3.18085	5.12
3.19752	5.12
3.21418	5.12
3.23085	5.12
3.24752	5.12
3.26418	5.12
3.28085	5.12
3.29752	5.12
3.31418	5.12
3.33085	5.12
3.34752	5.12
3.36418	5.12
3.38085	5.12
3.39752	5.12
3.41418	5.12
3.43085	5.12
3.44752	5.12
3.46418	5.12
3.48085	5.12
3.49752	5.12
3.51418	5.12
3.53085	5.12
3.54752	5.12
3.56418	5.12
3.58085	5.12
3.59752	5.12
3.61418	5.12
3.63085	5.12
3.64752	5.12
3.66418	5.12
3.68085	5.12
3.69752	5.12
3.71418	5.12
3.73085	5.12
3.74752	5.12
3.76418	5.12
3.78085	5.12
3.79752	5.12
3.81418	5.12
3.83085	5.12
3.84752	5.12
3.86418	5.12
3.88085	5.12
3.89752	5.12
3.91418	5.12
3.93085	5.12
3.94752	5.12
3.96418	5.12
3.98085	5.12
3.99752	5.12

[Status Trace (Linear Velocity)]
Interval(msec)	1000
# of Points	240
Start Time(min)	0.014
End Time(min)	3.998
Intensity Units	
Intensity Multiplier	1
R.Time (min)	Intensity
0.01418	38.60
0.03085	37.33
0.04752	38.99
0.06418	40.24
0.08085	39.50
0.09752	39.01
0.11418	39.02
0.13085	39.03
0.14752	39.03
0.16418	39.03
0.18085	39.03
0.19752	39.03
0.21418	39.02
0.23085	39.02
0.24752	39.02
0.26418	39.02
0.28085	39.02
0.29752	39.02
0.31418	39.03
0.33085	39.03
0.34752	39.03
0.36418	39.02
0.38085	39.03
0.39752	39.03
0.41418	39.03
0.43085	39.03
0.44752	39.03
0.46418	39.02
0.48085	39.02
0.49752	39.02
0.51418	39.02
0.53085	39.03
0.54752	39.03
0.56418	39.03
0.58085	39.03
0.59752	39.03
0.61418	39.03
0.63085	39.03
0.64752	39.03
0.66418	39.03
0.68085	39.02
0.69752	39.03
0.71418	39.03
0.73085	39.03
0.74752	39.03
0.76418	39.03
0.78085	39.03
0.79752	39.03
0.81418	39.03
0.83085	39.03
0.84752	39.03
0.86418	39.03
0.88085	39.03
0.89752	39.03
0.91418	39.03
0.93085	39.03
0.94752	39.03
0.96418	39.03
0.98085	39.03
0.99752	39.03
1.01418	39.03
1.03085	39.03
1.04752	39.03
1.06418	39.03
1.08085	39.03
1.09752	39.03
1.11418	39.03
1.13085	39.03
1.14752	39.03
1.16418	39.03
1.18085	39.03
1.19752	39.03
1.21418	39.03
1.23085	39.03
1.24752	39.03
1.26418	39.02
1.28085	39.02
1.29752	39.02
1.31418	39.02
1.33085	39.02
1.34752	39.02
1.36418	39.02
1.38085	39.03
1.39752	39.03
1.41418	39.03
1.43085	39.03
1.44752	39.03
1.46418	39.03
1.48085	39.03
1.49752	39.03
1.51418	39.03
1.53085	39.03
1.54752	39.03
1.56418	39.03
1.58085	39.03
1.59752	39.03
1.61418	39.02
1.63085	39.01
1.64752	38.98
1.66418	38.96
1.68085	38.93
1.69752	38.89
1.71418	38.85
1.73085	38.83
1.74752	38.79
1.76418	38.76
1.78085	38.73
1.79752	38.70
1.81418	38.66
1.83085	38.64
1.84752	38.60
1.86418	38.57
1.88085	38.55
1.89752	38.51
1.91418	38.48
1.93085	38.45
1.94752	38.42
1.96418	38.39
1.98085	38.36
1.99752	38.33
2.01418	38.30
2.03085	38.27
2.04752	38.24
2.06418	38.21
2.08085	38.18
2.09752	38.15
2.11418	38.12
2.13085	38.09
2.14752	38.06
2.16418	38.03
2.18085	38.01
2.19752	37.97
2.21418	37.94
2.23085	37.92
2.24752	37.88
2.26418	37.85
2.28085	37.83
2.29752	37.79
2.31418	37.76
2.33085	37.74
2.34752	37.71
2.36418	37.69
2.38085	37.67
2.39752	37.67
2.41418	37.67
2.43085	37.67
2.44752	37.67
2.46418	37.67
2.48085	37.67
2.49752	37.67
2.51418	37.66
2.53085	37.66
2.54752	37.67
2.56418	37.67
2.58085	37.66
2.59752	37.66
2.61418	37.66
2.63085	37.66
2.64752	37.66
2.66418	37.66
2.68085	37.66
2.69752	37.66
2.71418	37.66
2.73085	37.65
2.74752	37.65
2.76418	37.65
2.78085	37.66
2.79752	37.66
2.81418	37.65
2.83085	37.65
2.84752	37.65
2.86418	37.65
2.88085	37.65
2.89752	37.65
2.91418	37.65
2.93085	37.65
2.94752	37.65
2.96418	37.65
2.98085	37.65
2.99752	37.64
3.01418	37.64
3.03085	37.64
3.04752	37.64
3.06418	37.64
3.08085	37.64
3.09752	37.64
3.11418	37.64
3.13085	37.64
3.14752	37.64
3.16418	37.64
3.18085	37.64
3.19752	37.64
3.21418	37.63
3.23085	37.63
3.24752	37.63
3.26418	37.63
3.28085	37.63
3.29752	37.64
3.31418	37.64
3.33085	37.64
3.34752	37.64
3.36418	37.64
3.38085	37.64
3.39752	37.64
3.41418	37.64
3.43085	37.64
3.44752	37.64
3.46418	37.64
3.48085	37.64
3.49752	37.64
3.51418	37.63
3.53085	37.64
3.54752	37.63
3.56418	37.64
3.58085	37.63
3.59752	37.64
3.61418	37.64
3.63085	37.64
3.64752	37.64
3.66418	37.64
3.68085	37.64
3.69752	37.64
3.71418	37.64
3.73085	37.64
3.74752	37.64
3.76418	37.64
3.78085	37.64
3.79752	37.63
3.81418	37.63
3.83085	37.63
3.84752	37.63
3.86418	37.63
3.88085	37.63
3.89752	37.63
3.91418	37.63
3.93085	37.63
3.94752	37.63
3.96418	37.63
3.98085	37.64
3.99752	37.64

