[Header]
Application Name	LabSolutions
Version	5.110
Data File Name	C:\Users\User\Desktop\GC Analyses\Jack\Nachusa Grasslands Sampling\T1 Timepoint July 12th\T1_07122022_014.gcd
Output Date	3/14/2023
Output Time	3:40:57 PM

[File Information]
Type	Data File
Generated	3/8/2023 2:43:22 PM
Generated by	System Administrator
Modified	3/8/2023 2:49:49 PM
Modified by	System Administrator

[Sample Information]
Operator Name	System Administrator
Acquired	3/8/2023 2:45:49 PM
Sample Type	0:Unknown
Level	0
Sample Name	014
Sample ID	014
ISTD Amount1	1
ISTD Amount2	1
ISTD Amount3	1
ISTD Amount4	1
ISTD Amount5	1
ISTD Amount6	1
ISTD Amount7	1
ISTD Amount8	1
ISTD Amount9	1
ISTD Amount10	1
ISTD Amount11	1
ISTD Amount12	1
ISTD Amount13	1
ISTD Amount14	1
ISTD Amount15	1
ISTD Amount16	1
ISTD Amount17	1
ISTD Amount18	1
ISTD Amount19	1
ISTD Amount20	1
ISTD Amount21	1
ISTD Amount22	1
ISTD Amount23	1
ISTD Amount24	1
ISTD Amount25	1
ISTD Amount26	1
ISTD Amount27	1
ISTD Amount28	1
ISTD Amount29	1
ISTD Amount30	1
ISTD Amount31	1
ISTD Amount32	1
Sample Amount	1
Dilution Factor	1
Vial#	13
Injection Volume	1
Injection Count	1
Bar Code	

[Original Files]
Data File	C:\Users\User\Desktop\GC Analyses\Jack\Nachusa Grasslands Sampling\T1 Timepoint July 12th\T1_07122022_014.gcd
Method File	C:\LabSolutions\Data\GHG_4min_2022\ghg3_togas_w_acet_4 min_new_int.gcm
Batch File	C:\LabSolutions\Data\AutoSamplerTesting\T1_07122022.gcb
Report Format File	c:\LabSolutions\System\DEFAULT.lsr

[File Description]


[Configuration]
Instrument Name	C0B7VH3-Instrument1
Instrument #	1
Line #	1
# of Detectors	3
Detector ID	DET#1	DET#2	DET#3
Detector Name	FID	PTCD	ECD
# of Channels	1	1	1

[Peak Table(Ch1)]
# of Peaks	3
Peak#	R.Time	I.Time	F.Time	Area	Height	A/H	Conc.	Mark	ID#	Name	k'	Plate #	Plate Ht.	Tailing	Resolution	Sep.Factor	Area Ratio	Height Ratio	Conc. %	Norm Conc.
1	1.476	1.439	1.538	28234	13312	2.121	199.331	   	1	CO	0.000	9103	16.478	1.335	0.000	0.000	0	0	32.096	32.096
2	1.567	1.538	1.622	4740	2284	2.075	91.651	 V 	2	CH4	0.062	10403	14.419	0.000	1.486	0.000	0	0	14.757	14.757
3	1.996	1.949	2.477	1315155	619741	2.122	330.068	   	3	CO2	0.353	17326	8.658	1.326	7.025	5.680	0	0	53.147	53.147

[Peak Table(Ch2)]
# of Peaks	0

[Peak Table(Ch3)]
# of Peaks	6
Peak#	R.Time	I.Time	F.Time	Area	Height	A/H	Conc.	Mark	ID#	Name	k'	Plate #	Plate Ht.	Tailing	Resolution	Sep.Factor	Area Ratio	Height Ratio	Conc. %	Norm Conc.
1	2.458	2.161	2.517	1855	348	5.335	0.000	   			0.000	8869	16.913	0.000	0.000	0.000	0	0	0.000	0.000
2	2.546	2.517	2.631	750	176	4.261	0.000	 V 			0.036	4855	30.898	0.000	0.702	0.000	0	0	0.000	0.000
3	2.700	2.645	2.715	352	119	2.955	0.000	   			0.098	710	211.267	0.000	0.558	2.750	0	0	0.000	0.000
4	2.873	2.715	3.309	23497	5101	4.606	0.600	SV 	1	N2O	0.169	12728	11.785	1.890	0.680	1.712	0	0	100.000	100.000
5	3.291	3.210	3.305	306	95	3.229	0.000	T  	2	SF6	0.339	15901	9.433	0.592	4.054	2.009	0	0	0.000	0.000
6	3.456	3.316	3.995	11187	512	21.831	0.000	   	2	SF6	0.406	553	271.079	2.387	0.477	1.198	0	0	0.000	0.000

[Compound Results(Ch1)]
# of IDs	6
ID#	Name	R.Time	Area	Height	Conc.	Curve	3rd	2nd	1st	Constant	Area Ratio	Height Ratio	Conc. %	Norm Conc.
1	CO	1.476	28234	13312	199.331	Linear	0.000000e+00	0.000000e+00	1.416423e+002	0.000000e+00	0	0	32.096	32.096
2	CH4	1.567	4740	2284	91.651	Linear	0.000000e+00	0.000000e+00	5.171738e+001	0.000000e+00	0	0	14.757	14.757
3	CO2	1.996	1315155	619741	330.068	Linear	0.000000e+00	0.000000e+00	3.984494e+003	0.000000e+00	0	0	53.147	53.147
4	Ethylene	0.000	0	0	0.000	Linear	0.000000e+00	0.000000e+00	0.000000e+00	0.000000e+00	0	0	0.000	0.000
5	Acetylene	0.000	0	0	0.000	Linear	0.000000e+00	0.000000e+00	0.000000e+00	0.000000e+00	0	0	0.000	0.000
6	Ethane	0.000	0	0	0.000	Linear	0.000000e+00	0.000000e+00	0.000000e+00	0.000000e+00	0	0	0.000	0.000

[Compound Results(Ch2)]
# of IDs	5
ID#	Name	R.Time	Area	Height	Conc.	Curve	3rd	2nd	1st	Constant	Area Ratio	Height Ratio	Conc. %	Norm Conc.
1	Hydrogen	0.000	0	0	0.000	Linear	0.000000e+00	0.000000e+00	0.000000e+00	0.000000e+00	0	0	0.000	0.000
2	Oxygen	0.000	0	0	0.000	Linear	0.000000e+00	0.000000e+00	0.000000e+00	0.000000e+00	0	0	0.000	0.000
3	Nitrogen	0.000	0	0	0.000	Linear	0.000000e+00	0.000000e+00	0.000000e+00	0.000000e+00	0	0	0.000	0.000
4	Methane	0.000	0	0	0.000	Linear	0.000000e+00	0.000000e+00	0.000000e+00	0.000000e+00	0	0	0.000	0.000
5	Carbon Monoxide	0.000	0	0	0.000	Linear	0.000000e+00	0.000000e+00	0.000000e+00	0.000000e+00	0	0	0.000	0.000

[Compound Results(Ch3)]
# of IDs	2
ID#	Name	R.Time	Area	Height	Conc.	Curve	3rd	2nd	1st	Constant	Area Ratio	Height Ratio	Conc. %	Norm Conc.
1	N2O	2.873	23497	5101	0.600	Linear	0.000000e+00	0.000000e+00	3.915173e+004	0.000000e+00	0	0	100.000	100.000
2	SF6	3.456	11493	607	0.000	Linear	0.000000e+00	0.000000e+00	0.000000e+00	0.000000e+00	0	0	0.000	0.000

[Group Results(Ch1)]
# of Groups	0

[Group Results(Ch2)]
# of Groups	0

[Group Results(Ch3)]
# of Groups	0

[Chromatogram (Ch1)]
Interval(msec)	220
# of Points	1091
Start Time(min)	0.002
End Time(min)	3.998
R.Time (min)	Intensity
0.00167	-9
0.00533	-8
0.00900	-6
0.01267	-4
0.01633	-1
0.02000	7
0.02367	15
0.02733	16
0.03100	15
0.03467	13
0.03833	10
0.04200	4
0.04567	1
0.04933	3
0.05300	6
0.05667	3
0.06033	-4
0.06400	-10
0.06767	-6
0.07133	5
0.07500	12
0.07867	12
0.08233	8
0.08600	-0
0.08967	-10
0.09333	-19
0.09700	-28
0.10067	-28
0.10433	-20
0.10800	-7
0.11167	5
0.11533	12
0.11900	12
0.12267	8
0.12633	0
0.13000	-5
0.13367	-1
0.13733	13
0.14100	23
0.14467	26
0.14833	26
0.15200	24
0.15567	21
0.15933	16
0.16300	8
0.16667	2
0.17033	1
0.17400	3
0.17767	3
0.18133	2
0.18500	-2
0.18867	-7
0.19233	-10
0.19600	-10
0.19967	-10
0.20333	-11
0.20700	-13
0.21067	-14
0.21433	-14
0.21800	-11
0.22167	-7
0.22533	-3
0.22900	-0
0.23267	-3
0.23633	-14
0.24000	-23
0.24367	-30
0.24733	-33
0.25100	-32
0.25467	-29
0.25833	-27
0.26200	-25
0.26567	-19
0.26933	-7
0.27300	9
0.27667	20
0.28033	23
0.28400	20
0.28767	14
0.29133	6
0.29500	-3
0.29867	-11
0.30233	-20
0.30600	-27
0.30967	-31
0.31333	-31
0.31700	-29
0.32067	-22
0.32433	-15
0.32800	-8
0.33167	-4
0.33533	-4
0.33900	-4
0.34267	-3
0.34633	-2
0.35000	-1
0.35367	2
0.35733	6
0.36100	7
0.36467	5
0.36833	1
0.37200	-3
0.37567	-2
0.37933	3
0.38300	8
0.38667	12
0.39033	17
0.39400	21
0.39767	22
0.40133	17
0.40500	10
0.40867	6
0.41233	9
0.41600	12
0.41967	14
0.42333	14
0.42700	17
0.43067	21
0.43433	27
0.43800	32
0.44167	35
0.44533	35
0.44900	36
0.45267	38
0.45633	41
0.46000	42
0.46367	44
0.46733	48
0.47100	53
0.47467	59
0.47833	67
0.48200	71
0.48567	71
0.48933	67
0.49300	63
0.49667	61
0.50033	60
0.50400	60
0.50767	63
0.51133	68
0.51500	68
0.51867	65
0.52233	59
0.52600	52
0.52967	49
0.53333	51
0.53700	52
0.54067	52
0.54433	47
0.54800	39
0.55167	31
0.55533	24
0.55900	20
0.56267	19
0.56633	21
0.57000	21
0.57367	19
0.57733	17
0.58100	19
0.58467	25
0.58833	29
0.59200	34
0.59567	41
0.59933	38
0.60300	27
0.60667	15
0.61033	3
0.61400	-8
0.61767	-19
0.62133	-26
0.62500	-29
0.62867	-29
0.63233	-24
0.63600	-15
0.63967	-6
0.64333	-2
0.64700	-4
0.65067	-7
0.65433	-10
0.65800	-11
0.66167	-10
0.66533	-10
0.66900	-9
0.67267	-6
0.67633	-1
0.68000	-0
0.68367	-3
0.68733	-4
0.69100	1
0.69467	5
0.69833	5
0.70200	3
0.70567	0
0.70933	-4
0.71300	-10
0.71667	-19
0.72033	-27
0.72400	-33
0.72767	-38
0.73133	-35
0.73500	-30
0.73867	-35
0.74233	-45
0.74600	-52
0.74967	-52
0.75333	-47
0.75700	-40
0.76067	-34
0.76433	-29
0.76800	-25
0.77167	-20
0.77533	-17
0.77900	-14
0.78267	-13
0.78633	-17
0.79000	-26
0.79367	-32
0.79733	-27
0.80100	-17
0.80467	-14
0.80833	-20
0.81200	-29
0.81567	-35
0.81933	-33
0.82300	-28
0.82667	-25
0.83033	-25
0.83400	-25
0.83767	-24
0.84133	-22
0.84500	-20
0.84867	-21
0.85233	-25
0.85600	-26
0.85967	-24
0.86333	-25
0.86700	-28
0.87067	-31
0.87433	-29
0.87800	-25
0.88167	-21
0.88533	-15
0.88900	-12
0.89267	-13
0.89633	-15
0.90000	-20
0.90367	-23
0.90733	-26
0.91100	-28
0.91467	-29
0.91833	-28
0.92200	-22
0.92567	-10
0.92933	3
0.93300	9
0.93667	5
0.94033	-2
0.94400	-8
0.94767	-13
0.95133	-16
0.95500	-17
0.95867	-12
0.96233	-4
0.96600	6
0.96967	14
0.97333	14
0.97700	9
0.98067	-2
0.98433	-16
0.98800	-29
0.99167	-36
0.99533	-41
0.99900	-44
1.00267	-44
1.00633	-40
1.01000	-34
1.01367	-28
1.01733	-20
1.02100	-16
1.02467	-21
1.02833	-30
1.03200	-41
1.03567	-51
1.03933	-58
1.04300	-62
1.04667	-62
1.05033	-58
1.05400	-49
1.05767	-41
1.06133	-37
1.06500	-36
1.06867	-34
1.07233	-31
1.07600	-30
1.07967	-28
1.08333	-25
1.08700	-22
1.09067	-23
1.09433	-20
1.09800	-13
1.10167	-8
1.10533	-7
1.10900	-7
1.11267	-10
1.11633	-15
1.12000	-23
1.12367	-28
1.12733	-29
1.13100	-30
1.13467	-30
1.13833	-31
1.14200	-33
1.14567	-34
1.14933	-38
1.15300	-43
1.15667	-48
1.16033	-49
1.16400	-46
1.16767	-43
1.17133	-42
1.17500	-40
1.17867	-38
1.18233	-32
1.18600	-25
1.18967	-20
1.19333	-19
1.19700	-22
1.20067	-25
1.20433	-29
1.20800	-35
1.21167	-43
1.21533	-48
1.21900	-51
1.22267	-49
1.22633	-42
1.23000	-36
1.23367	-28
1.23733	-19
1.24100	-12
1.24467	-10
1.24833	-15
1.25200	-25
1.25567	-33
1.25933	-38
1.26300	-40
1.26667	-40
1.27033	-39
1.27400	-37
1.27767	-38
1.28133	-40
1.28500	-45
1.28867	-49
1.29233	-50
1.29600	-53
1.29967	-57
1.30333	-59
1.30700	-59
1.31067	-58
1.31433	-59
1.31800	-58
1.32167	-54
1.32533	-47
1.32900	-44
1.33267	-46
1.33633	-50
1.34000	-54
1.34367	-54
1.34733	-50
1.35100	-44
1.35467	-37
1.35833	-31
1.36200	-28
1.36567	-29
1.36933	-32
1.37300	-38
1.37667	-42
1.38033	-42
1.38400	-40
1.38767	-37
1.39133	-33
1.39500	-29
1.39867	-28
1.40233	-31
1.40600	-35
1.40967	-39
1.41333	-46
1.41700	-50
1.42067	-48
1.42433	-41
1.42800	-37
1.43167	-39
1.43533	-36
1.43900	-22
1.44267	54
1.44633	266
1.45000	799
1.45367	2040
1.45733	4134
1.46100	6691
1.46467	9163
1.46833	11190
1.47200	12608
1.47567	13298
1.47933	13143
1.48300	12131
1.48667	10449
1.49033	8449
1.49400	6494
1.49767	4815
1.50133	3488
1.50500	2493
1.50867	1776
1.51233	1272
1.51600	925
1.51967	689
1.52333	528
1.52700	417
1.53067	338
1.53433	280
1.53800	249
1.54167	277
1.54533	426
1.54900	725
1.55267	1130
1.55633	1543
1.56000	1892
1.56367	2149
1.56733	2290
1.57100	2282
1.57467	2110
1.57833	1802
1.58200	1431
1.58567	1074
1.58933	776
1.59300	553
1.59667	392
1.60033	278
1.60400	195
1.60767	132
1.61133	84
1.61500	50
1.61867	29
1.62233	18
1.62600	14
1.62967	17
1.63333	21
1.63700	24
1.64067	27
1.64433	30
1.64800	26
1.65167	16
1.65533	7
1.65900	-1
1.66267	-7
1.66633	-13
1.67000	-15
1.67367	-13
1.67733	-7
1.68100	2
1.68467	10
1.68833	12
1.69200	12
1.69567	6
1.69933	-1
1.70300	-6
1.70667	-9
1.71033	-15
1.71400	-19
1.71767	-21
1.72133	-21
1.72500	-23
1.72867	-23
1.73233	-18
1.73600	-9
1.73967	-1
1.74333	1
1.74700	-2
1.75067	-6
1.75433	-10
1.75800	-17
1.76167	-22
1.76533	-23
1.76900	-19
1.77267	-19
1.77633	-20
1.78000	-21
1.78367	-23
1.78733	-26
1.79100	-30
1.79467	-29
1.79833	-26
1.80200	-22
1.80567	-20
1.80933	-20
1.81300	-23
1.81667	-27
1.82033	-31
1.82400	-31
1.82767	-28
1.83133	-22
1.83500	-19
1.83867	-14
1.84233	-6
1.84600	1
1.84967	2
1.85333	1
1.85700	-1
1.86067	-3
1.86433	-5
1.86800	-11
1.87167	-20
1.87533	-29
1.87900	-36
1.88267	-38
1.88633	-34
1.89000	-23
1.89367	-9
1.89733	-4
1.90100	-10
1.90467	-22
1.90833	-36
1.91200	-47
1.91567	-52
1.91933	-50
1.92300	-44
1.92667	-41
1.93033	-42
1.93400	-46
1.93767	-50
1.94133	-52
1.94500	-52
1.94867	-46
1.95233	-24
1.95600	77
1.95967	618
1.96333	3080
1.96700	11736
1.97067	35090
1.97433	84106
1.97800	165068
1.98167	272571
1.98533	389973
1.98900	497359
1.99267	577864
1.99633	619736
2.00000	617570
2.00367	573557
2.00733	497969
2.01100	406365
2.01467	314344
2.01833	232999
2.02200	167446
2.02567	118029
2.02933	82481
2.03300	57705
2.03667	40777
2.04033	29332
2.04400	21612
2.04767	16382
2.05133	12802
2.05500	10313
2.05867	8547
2.06233	7258
2.06600	6291
2.06967	5546
2.07333	4955
2.07700	4470
2.08067	4073
2.08433	3745
2.08800	3463
2.09167	3215
2.09533	3000
2.09900	2815
2.10267	2658
2.10633	2524
2.11000	2401
2.11367	2287
2.11733	2177
2.12100	2074
2.12467	1982
2.12833	1903
2.13200	1834
2.13567	1767
2.13933	1701
2.14300	1635
2.14667	1573
2.15033	1516
2.15400	1467
2.15767	1424
2.16133	1383
2.16500	1341
2.16867	1298
2.17233	1262
2.17600	1231
2.17967	1203
2.18333	1177
2.18700	1150
2.19067	1124
2.19433	1101
2.19800	1077
2.20167	1047
2.20533	1018
2.20900	991
2.21267	965
2.21633	943
2.22000	928
2.22367	913
2.22733	898
2.23100	883
2.23467	864
2.23833	842
2.24200	818
2.24567	797
2.24933	783
2.25300	777
2.25667	771
2.26033	763
2.26400	751
2.26767	735
2.27133	717
2.27500	699
2.27867	683
2.28233	666
2.28600	651
2.28967	646
2.29333	646
2.29700	642
2.30067	632
2.30433	616
2.30800	602
2.31167	591
2.31533	581
2.31900	571
2.32267	562
2.32633	556
2.33000	554
2.33367	554
2.33733	553
2.34100	551
2.34467	553
2.34833	556
2.35200	556
2.35567	551
2.35933	541
2.36300	528
2.36667	514
2.37033	501
2.37400	488
2.37767	479
2.38133	474
2.38500	472
2.38867	476
2.39233	481
2.39600	479
2.39967	474
2.40333	468
2.40700	460
2.41067	454
2.41433	451
2.41800	450
2.42167	451
2.42533	456
2.42900	460
2.43267	459
2.43633	454
2.44000	447
2.44367	435
2.44733	422
2.45100	412
2.45467	407
2.45833	408
2.46200	413
2.46567	417
2.46933	418
2.47300	415
2.47667	413
2.48033	414
2.48400	417
2.48767	419
2.49133	420
2.49500	418
2.49867	414
2.50233	411
2.50600	408
2.50967	404
2.51333	407
2.51700	412
2.52067	414
2.52433	412
2.52800	407
2.53167	401
2.53533	397
2.53900	396
2.54267	394
2.54633	391
2.55000	385
2.55367	379
2.55733	378
2.56100	375
2.56467	369
2.56833	366
2.57200	365
2.57567	368
2.57933	375
2.58300	383
2.58667	389
2.59033	390
2.59400	390
2.59767	390
2.60133	389
2.60500	384
2.60867	376
2.61233	367
2.61600	357
2.61967	352
2.62333	352
2.62700	357
2.63067	362
2.63433	364
2.63800	364
2.64167	362
2.64533	360
2.64900	364
2.65267	368
2.65633	366
2.66000	362
2.66367	362
2.66733	365
2.67100	370
2.67467	371
2.67833	370
2.68200	369
2.68567	371
2.68933	377
2.69300	383
2.69667	387
2.70033	386
2.70400	376
2.70767	362
2.71133	354
2.71500	355
2.71867	360
2.72233	360
2.72600	358
2.72967	356
2.73333	355
2.73700	358
2.74067	366
2.74433	373
2.74800	378
2.75167	380
2.75533	382
2.75900	385
2.76267	385
2.76633	382
2.77000	376
2.77367	368
2.77733	366
2.78100	370
2.78467	378
2.78833	382
2.79200	383
2.79567	386
2.79933	391
2.80300	394
2.80667	398
2.81033	407
2.81400	415
2.81767	415
2.82133	409
2.82500	399
2.82867	389
2.83233	385
2.83600	383
2.83967	380
2.84333	376
2.84700	374
2.85067	377
2.85433	384
2.85800	392
2.86167	398
2.86533	404
2.86900	407
2.87267	407
2.87633	406
2.88000	405
2.88367	402
2.88733	397
2.89100	390
2.89467	382
2.89833	383
2.90200	388
2.90567	396
2.90933	398
2.91300	395
2.91667	389
2.92033	386
2.92400	391
2.92767	401
2.93133	410
2.93500	414
2.93867	413
2.94233	410
2.94600	401
2.94967	391
2.95333	383
2.95700	379
2.96067	379
2.96433	384
2.96800	392
2.97167	400
2.97533	408
2.97900	414
2.98267	415
2.98633	417
2.99000	420
2.99367	419
2.99733	411
3.00100	401
3.00467	392
3.00833	386
3.01200	388
3.01567	396
3.01933	405
3.02300	408
3.02667	407
3.03033	406
3.03400	406
3.03767	406
3.04133	408
3.04500	410
3.04867	410
3.05233	408
3.05600	402
3.05967	392
3.06333	384
3.06700	384
3.07067	388
3.07433	391
3.07800	394
3.08167	396
3.08533	398
3.08900	402
3.09267	404
3.09633	405
3.10000	408
3.10367	416
3.10733	428
3.11100	437
3.11467	441
3.11833	438
3.12200	432
3.12567	422
3.12933	415
3.13300	409
3.13667	409
3.14033	412
3.14400	412
3.14767	408
3.15133	401
3.15500	394
3.15867	392
3.16233	394
3.16600	399
3.16967	405
3.17333	406
3.17700	400
3.18067	390
3.18433	385
3.18800	386
3.19167	390
3.19533	393
3.19900	392
3.20267	392
3.20633	393
3.21000	398
3.21367	406
3.21733	412
3.22100	416
3.22467	415
3.22833	410
3.23200	405
3.23567	397
3.23933	390
3.24300	386
3.24667	385
3.25033	386
3.25400	388
3.25767	391
3.26133	397
3.26500	405
3.26867	413
3.27233	420
3.27600	424
3.27967	427
3.28333	428
3.28700	424
3.29067	415
3.29433	406
3.29800	403
3.30167	407
3.30533	410
3.30900	406
3.31267	399
3.31633	398
3.32000	404
3.32367	411
3.32733	410
3.33100	402
3.33467	391
3.33833	385
3.34200	384
3.34567	388
3.34933	390
3.35300	391
3.35667	391
3.36033	393
3.36400	394
3.36767	392
3.37133	389
3.37500	386
3.37867	381
3.38233	379
3.38600	382
3.38967	390
3.39333	400
3.39700	404
3.40067	403
3.40433	398
3.40800	392
3.41167	390
3.41533	393
3.41900	398
3.42267	397
3.42633	390
3.43000	381
3.43367	375
3.43733	374
3.44100	379
3.44467	384
3.44833	385
3.45200	385
3.45567	383
3.45933	383
3.46300	387
3.46667	388
3.47033	382
3.47400	370
3.47767	361
3.48133	352
3.48500	344
3.48867	342
3.49233	346
3.49600	351
3.49967	359
3.50333	365
3.50700	367
3.51067	370
3.51433	373
3.51800	377
3.52167	376
3.52533	370
3.52900	367
3.53267	365
3.53633	367
3.54000	371
3.54367	371
3.54733	368
3.55100	365
3.55467	361
3.55833	360
3.56200	363
3.56567	365
3.56933	364
3.57300	363
3.57667	360
3.58033	357
3.58400	356
3.58767	355
3.59133	351
3.59500	347
3.59867	344
3.60233	344
3.60600	348
3.60967	353
3.61333	357
3.61700	358
3.62067	361
3.62433	362
3.62800	359
3.63167	355
3.63533	353
3.63900	351
3.64267	347
3.64633	349
3.65000	356
3.65367	361
3.65733	362
3.66100	359
3.66467	354
3.66833	348
3.67200	350
3.67567	356
3.67933	359
3.68300	354
3.68667	346
3.69033	344
3.69400	346
3.69767	345
3.70133	341
3.70500	334
3.70867	326
3.71233	322
3.71600	323
3.71967	331
3.72333	341
3.72700	351
3.73067	360
3.73433	363
3.73800	359
3.74167	353
3.74533	346
3.74900	338
3.75267	331
3.75633	328
3.76000	334
3.76367	339
3.76733	334
3.77100	324
3.77467	324
3.77833	331
3.78200	334
3.78567	331
3.78933	324
3.79300	317
3.79667	315
3.80033	317
3.80400	323
3.80767	334
3.81133	345
3.81500	354
3.81867	354
3.82233	349
3.82600	340
3.82967	328
3.83333	315
3.83700	307
3.84067	304
3.84433	305
3.84800	307
3.85167	307
3.85533	307
3.85900	311
3.86267	316
3.86633	318
3.87000	322
3.87367	331
3.87733	339
3.88100	340
3.88467	335
3.88833	330
3.89200	320
3.89567	308
3.89933	300
3.90300	301
3.90667	307
3.91033	308
3.91400	304
3.91767	302
3.92133	303
3.92500	303
3.92867	308
3.93233	312
3.93600	310
3.93967	303
3.94333	297
3.94700	294
3.95067	296
3.95433	299
3.95800	306
3.96167	317
3.96533	326
3.96900	332
3.97267	328
3.97633	316
3.98000	302
3.98367	292
3.98733	289
3.99100	291
3.99467	296
3.99833	300

[Chromatogram (Ch2)]
Interval(msec)	220
# of Points	1091
Start Time(min)	0.002
End Time(min)	3.998
R.Time (min)	Intensity
0.00167	-0
0.00533	-0
0.00900	-0
0.01267	-0
0.01633	-0
0.02000	0
0.02367	0
0.02733	1
0.03100	1
0.03467	2
0.03833	2
0.04200	3
0.04567	3
0.04933	3
0.05300	3
0.05667	4
0.06033	4
0.06400	4
0.06767	4
0.07133	4
0.07500	4
0.07867	4
0.08233	4
0.08600	4
0.08967	5
0.09333	5
0.09700	4
0.10067	4
0.10433	4
0.10800	3
0.11167	3
0.11533	3
0.11900	3
0.12267	3
0.12633	3
0.13000	3
0.13367	3
0.13733	3
0.14100	3
0.14467	3
0.14833	4
0.15200	4
0.15567	4
0.15933	5
0.16300	5
0.16667	5
0.17033	6
0.17400	5
0.17767	5
0.18133	5
0.18500	5
0.18867	5
0.19233	4
0.19600	4
0.19967	4
0.20333	4
0.20700	4
0.21067	4
0.21433	4
0.21800	4
0.22167	4
0.22533	4
0.22900	4
0.23267	4
0.23633	3
0.24000	3
0.24367	2
0.24733	2
0.25100	1
0.25467	1
0.25833	1
0.26200	1
0.26567	1
0.26933	1
0.27300	2
0.27667	2
0.28033	3
0.28400	3
0.28767	3
0.29133	4
0.29500	4
0.29867	5
0.30233	6
0.30600	6
0.30967	6
0.31333	6
0.31700	5
0.32067	5
0.32433	5
0.32800	5
0.33167	4
0.33533	4
0.33900	4
0.34267	3
0.34633	3
0.35000	3
0.35367	2
0.35733	2
0.36100	2
0.36467	2
0.36833	2
0.37200	2
0.37567	1
0.37933	1
0.38300	1
0.38667	1
0.39033	1
0.39400	1
0.39767	1
0.40133	1
0.40500	1
0.40867	1
0.41233	1
0.41600	1
0.41967	2
0.42333	2
0.42700	2
0.43067	3
0.43433	3
0.43800	3
0.44167	4
0.44533	4
0.44900	5
0.45267	5
0.45633	5
0.46000	5
0.46367	5
0.46733	5
0.47100	5
0.47467	5
0.47833	5
0.48200	5
0.48567	5
0.48933	5
0.49300	4
0.49667	4
0.50033	4
0.50400	4
0.50767	4
0.51133	4
0.51500	3
0.51867	3
0.52233	2
0.52600	2
0.52967	2
0.53333	1
0.53700	1
0.54067	1
0.54433	1
0.54800	0
0.55167	0
0.55533	0
0.55900	1
0.56267	1
0.56633	0
0.57000	0
0.57367	0
0.57733	0
0.58100	0
0.58467	0
0.58833	1
0.59200	1
0.59567	1
0.59933	2
0.60300	2
0.60667	2
0.61033	2
0.61400	2
0.61767	2
0.62133	2
0.62500	2
0.62867	2
0.63233	2
0.63600	2
0.63967	3
0.64333	3
0.64700	3
0.65067	3
0.65433	3
0.65800	3
0.66167	3
0.66533	3
0.66900	3
0.67267	4
0.67633	4
0.68000	4
0.68367	4
0.68733	4
0.69100	4
0.69467	4
0.69833	4
0.70200	4
0.70567	4
0.70933	4
0.71300	4
0.71667	4
0.72033	4
0.72400	4
0.72767	4
0.73133	5
0.73500	5
0.73867	5
0.74233	5
0.74600	5
0.74967	5
0.75333	5
0.75700	5
0.76067	4
0.76433	4
0.76800	4
0.77167	3
0.77533	3
0.77900	2
0.78267	2
0.78633	1
0.79000	0
0.79367	-0
0.79733	-0
0.80100	-0
0.80467	-0
0.80833	0
0.81200	1
0.81567	1
0.81933	1
0.82300	2
0.82667	2
0.83033	2
0.83400	2
0.83767	2
0.84133	3
0.84500	3
0.84867	3
0.85233	3
0.85600	3
0.85967	3
0.86333	3
0.86700	3
0.87067	3
0.87433	2
0.87800	3
0.88167	3
0.88533	3
0.88900	3
0.89267	3
0.89633	3
0.90000	3
0.90367	3
0.90733	3
0.91100	4
0.91467	4
0.91833	4
0.92200	4
0.92567	4
0.92933	3
0.93300	3
0.93667	3
0.94033	2
0.94400	2
0.94767	1
0.95133	1
0.95500	1
0.95867	0
0.96233	0
0.96600	-0
0.96967	-0
0.97333	-0
0.97700	0
0.98067	0
0.98433	1
0.98800	1
0.99167	1
0.99533	1
0.99900	1
1.00267	1
1.00633	1
1.01000	1
1.01367	1
1.01733	1
1.02100	1
1.02467	1
1.02833	1
1.03200	1
1.03567	1
1.03933	2
1.04300	2
1.04667	2
1.05033	2
1.05400	2
1.05767	2
1.06133	2
1.06500	2
1.06867	2
1.07233	3
1.07600	3
1.07967	3
1.08333	3
1.08700	3
1.09067	3
1.09433	3
1.09800	3
1.10167	3
1.10533	3
1.10900	3
1.11267	3
1.11633	3
1.12000	2
1.12367	2
1.12733	2
1.13100	2
1.13467	3
1.13833	3
1.14200	3
1.14567	3
1.14933	3
1.15300	3
1.15667	3
1.16033	3
1.16400	3
1.16767	3
1.17133	2
1.17500	2
1.17867	2
1.18233	2
1.18600	2
1.18967	2
1.19333	2
1.19700	2
1.20067	1
1.20433	1
1.20800	1
1.21167	1
1.21533	1
1.21900	1
1.22267	1
1.22633	0
1.23000	0
1.23367	0
1.23733	0
1.24100	0
1.24467	0
1.24833	-0
1.25200	-0
1.25567	-0
1.25933	-0
1.26300	-0
1.26667	-0
1.27033	-0
1.27400	0
1.27767	0
1.28133	1
1.28500	1
1.28867	2
1.29233	2
1.29600	2
1.29967	2
1.30333	1
1.30700	1
1.31067	1
1.31433	1
1.31800	0
1.32167	-0
1.32533	-1
1.32900	-1
1.33267	-2
1.33633	-2
1.34000	-3
1.34367	-3
1.34733	-3
1.35100	-4
1.35467	-4
1.35833	-3
1.36200	-3
1.36567	-2
1.36933	-2
1.37300	-2
1.37667	-2
1.38033	-1
1.38400	-1
1.38767	-1
1.39133	-1
1.39500	-1
1.39867	-1
1.40233	-0
1.40600	-0
1.40967	0
1.41333	1
1.41700	1
1.42067	1
1.42433	1
1.42800	1
1.43167	1
1.43533	1
1.43900	1
1.44267	1
1.44633	1
1.45000	1
1.45367	1
1.45733	1
1.46100	1
1.46467	1
1.46833	1
1.47200	1
1.47567	1
1.47933	1
1.48300	2
1.48667	2
1.49033	2
1.49400	2
1.49767	2
1.50133	2
1.50500	3
1.50867	3
1.51233	3
1.51600	3
1.51967	3
1.52333	3
1.52700	3
1.53067	2
1.53433	2
1.53800	2
1.54167	2
1.54533	2
1.54900	2
1.55267	3
1.55633	3
1.56000	3
1.56367	3
1.56733	2
1.57100	2
1.57467	2
1.57833	2
1.58200	1
1.58567	1
1.58933	0
1.59300	-0
1.59667	-1
1.60033	-2
1.60400	-3
1.60767	-5
1.61133	-6
1.61500	-8
1.61867	-11
1.62233	-13
1.62600	-16
1.62967	-19
1.63333	-22
1.63700	-25
1.64067	-29
1.64433	-32
1.64800	-36
1.65167	-40
1.65533	-44
1.65900	-48
1.66267	-53
1.66633	-58
1.67000	-63
1.67367	-69
1.67733	-74
1.68100	-80
1.68467	-85
1.68833	-89
1.69200	-93
1.69567	-96
1.69933	-99
1.70300	-101
1.70667	-103
1.71033	-105
1.71400	-105
1.71767	-106
1.72133	-107
1.72500	-108
1.72867	-108
1.73233	-108
1.73600	-109
1.73967	-109
1.74333	-108
1.74700	-108
1.75067	-107
1.75433	-106
1.75800	-106
1.76167	-106
1.76533	-106
1.76900	-108
1.77267	-109
1.77633	-110
1.78000	-112
1.78367	-113
1.78733	-114
1.79100	-115
1.79467	-115
1.79833	-115
1.80200	-115
1.80567	-115
1.80933	-115
1.81300	-115
1.81667	-115
1.82033	-115
1.82400	-115
1.82767	-115
1.83133	-115
1.83500	-115
1.83867	-115
1.84233	-115
1.84600	-115
1.84967	-116
1.85333	-116
1.85700	-116
1.86067	-115
1.86433	-115
1.86800	-114
1.87167	-114
1.87533	-114
1.87900	-113
1.88267	-113
1.88633	-113
1.89000	-112
1.89367	-112
1.89733	-113
1.90100	-113
1.90467	-113
1.90833	-113
1.91200	-113
1.91567	-113
1.91933	-112
1.92300	-112
1.92667	-112
1.93033	-111
1.93400	-111
1.93767	-111
1.94133	-111
1.94500	-111
1.94867	-111
1.95233	-111
1.95600	-111
1.95967	-111
1.96333	-110
1.96700	-109
1.97067	-109
1.97433	-108
1.97800	-108
1.98167	-108
1.98533	-108
1.98900	-108
1.99267	-108
1.99633	-108
2.00000	-108
2.00367	-108
2.00733	-107
2.01100	-107
2.01467	-107
2.01833	-106
2.02200	-106
2.02567	-106
2.02933	-105
2.03300	-105
2.03667	-104
2.04033	-103
2.04400	-103
2.04767	-102
2.05133	-101
2.05500	-101
2.05867	-101
2.06233	-100
2.06600	-100
2.06967	-100
2.07333	-100
2.07700	-100
2.08067	-99
2.08433	-99
2.08800	-99
2.09167	-99
2.09533	-99
2.09900	-99
2.10267	-99
2.10633	-99
2.11000	-99
2.11367	-100
2.11733	-100
2.12100	-99
2.12467	-99
2.12833	-98
2.13200	-97
2.13567	-97
2.13933	-97
2.14300	-96
2.14667	-96
2.15033	-96
2.15400	-96
2.15767	-96
2.16133	-96
2.16500	-95
2.16867	-95
2.17233	-93
2.17600	-93
2.17967	-92
2.18333	-92
2.18700	-92
2.19067	-92
2.19433	-92
2.19800	-92
2.20167	-92
2.20533	-92
2.20900	-92
2.21267	-91
2.21633	-91
2.22000	-90
2.22367	-90
2.22733	-89
2.23100	-88
2.23467	-88
2.23833	-88
2.24200	-88
2.24567	-88
2.24933	-88
2.25300	-88
2.25667	-88
2.26033	-88
2.26400	-88
2.26767	-88
2.27133	-87
2.27500	-87
2.27867	-86
2.28233	-86
2.28600	-85
2.28967	-85
2.29333	-84
2.29700	-83
2.30067	-83
2.30433	-82
2.30800	-82
2.31167	-81
2.31533	-81
2.31900	-81
2.32267	-81
2.32633	-80
2.33000	-80
2.33367	-80
2.33733	-80
2.34100	-79
2.34467	-79
2.34833	-78
2.35200	-77
2.35567	-76
2.35933	-74
2.36300	-73
2.36667	-71
2.37033	-68
2.37400	-65
2.37767	-62
2.38133	-58
2.38500	-54
2.38867	-49
2.39233	-45
2.39600	-40
2.39967	-36
2.40333	-32
2.40700	-28
2.41067	-24
2.41433	-22
2.41800	-20
2.42167	-18
2.42533	-17
2.42900	-16
2.43267	-15
2.43633	-13
2.44000	-12
2.44367	-10
2.44733	-8
2.45100	-6
2.45467	-5
2.45833	-3
2.46200	-2
2.46567	-1
2.46933	0
2.47300	2
2.47667	4
2.48033	5
2.48400	6
2.48767	7
2.49133	7
2.49500	8
2.49867	8
2.50233	9
2.50600	9
2.50967	10
2.51333	10
2.51700	11
2.52067	12
2.52433	12
2.52800	13
2.53167	14
2.53533	15
2.53900	15
2.54267	15
2.54633	15
2.55000	15
2.55367	15
2.55733	15
2.56100	15
2.56467	15
2.56833	15
2.57200	15
2.57567	16
2.57933	16
2.58300	16
2.58667	16
2.59033	16
2.59400	17
2.59767	17
2.60133	18
2.60500	18
2.60867	18
2.61233	18
2.61600	18
2.61967	18
2.62333	19
2.62700	19
2.63067	19
2.63433	20
2.63800	20
2.64167	20
2.64533	21
2.64900	21
2.65267	21
2.65633	22
2.66000	22
2.66367	23
2.66733	23
2.67100	24
2.67467	24
2.67833	24
2.68200	24
2.68567	24
2.68933	24
2.69300	24
2.69667	24
2.70033	24
2.70400	24
2.70767	24
2.71133	24
2.71500	24
2.71867	25
2.72233	25
2.72600	25
2.72967	26
2.73333	27
2.73700	27
2.74067	28
2.74433	29
2.74800	30
2.75167	30
2.75533	31
2.75900	31
2.76267	31
2.76633	31
2.77000	31
2.77367	31
2.77733	31
2.78100	31
2.78467	31
2.78833	31
2.79200	30
2.79567	30
2.79933	30
2.80300	30
2.80667	30
2.81033	30
2.81400	30
2.81767	29
2.82133	29
2.82500	29
2.82867	29
2.83233	28
2.83600	27
2.83967	25
2.84333	22
2.84700	18
2.85067	10
2.85433	-0
2.85800	-14
2.86167	-32
2.86533	-54
2.86900	-80
2.87267	-111
2.87633	-146
2.88000	-184
2.88367	-226
2.88733	-272
2.89100	-320
2.89467	-370
2.89833	-422
2.90200	-475
2.90567	-529
2.90933	-584
2.91300	-638
2.91667	-692
2.92033	-745
2.92400	-798
2.92767	-849
2.93133	-903
2.93500	-962
2.93867	-1021
2.94233	-1073
2.94600	-1105
2.94967	-1112
2.95333	-1092
2.95700	-1049
2.96067	-988
2.96433	-916
2.96800	-836
2.97167	-754
2.97533	-673
2.97900	-595
2.98267	-523
2.98633	-456
2.99000	-395
2.99367	-341
2.99733	-293
3.00100	-250
3.00467	-213
3.00833	-180
3.01200	-152
3.01567	-128
3.01933	-107
3.02300	-89
3.02667	-74
3.03033	-61
3.03400	-50
3.03767	-40
3.04133	-31
3.04500	-24
3.04867	-18
3.05233	-13
3.05600	-8
3.05967	-4
3.06333	-1
3.06700	2
3.07067	5
3.07433	7
3.07800	8
3.08167	10
3.08533	11
3.08900	12
3.09267	13
3.09633	14
3.10000	14
3.10367	15
3.10733	15
3.11100	16
3.11467	16
3.11833	17
3.12200	17
3.12567	18
3.12933	18
3.13300	18
3.13667	18
3.14033	18
3.14400	18
3.14767	18
3.15133	18
3.15500	18
3.15867	18
3.16233	19
3.16600	19
3.16967	19
3.17333	20
3.17700	20
3.18067	20
3.18433	21
3.18800	21
3.19167	21
3.19533	21
3.19900	22
3.20267	22
3.20633	22
3.21000	22
3.21367	23
3.21733	23
3.22100	23
3.22467	24
3.22833	24
3.23200	25
3.23567	25
3.23933	26
3.24300	27
3.24667	28
3.25033	29
3.25400	29
3.25767	30
3.26133	30
3.26500	31
3.26867	31
3.27233	31
3.27600	31
3.27967	31
3.28333	32
3.28700	32
3.29067	32
3.29433	32
3.29800	32
3.30167	32
3.30533	32
3.30900	32
3.31267	32
3.31633	32
3.32000	32
3.32367	31
3.32733	32
3.33100	32
3.33467	32
3.33833	32
3.34200	32
3.34567	32
3.34933	32
3.35300	31
3.35667	31
3.36033	31
3.36400	31
3.36767	30
3.37133	30
3.37500	30
3.37867	30
3.38233	30
3.38600	30
3.38967	30
3.39333	30
3.39700	30
3.40067	30
3.40433	30
3.40800	30
3.41167	30
3.41533	30
3.41900	29
3.42267	29
3.42633	29
3.43000	28
3.43367	28
3.43733	28
3.44100	28
3.44467	28
3.44833	28
3.45200	28
3.45567	28
3.45933	28
3.46300	29
3.46667	29
3.47033	29
3.47400	29
3.47767	29
3.48133	29
3.48500	29
3.48867	29
3.49233	29
3.49600	29
3.49967	29
3.50333	29
3.50700	28
3.51067	28
3.51433	28
3.51800	28
3.52167	28
3.52533	28
3.52900	28
3.53267	28
3.53633	28
3.54000	29
3.54367	28
3.54733	28
3.55100	28
3.55467	28
3.55833	28
3.56200	28
3.56567	29
3.56933	29
3.57300	29
3.57667	28
3.58033	28
3.58400	28
3.58767	28
3.59133	27
3.59500	27
3.59867	27
3.60233	27
3.60600	27
3.60967	27
3.61333	27
3.61700	27
3.62067	27
3.62433	27
3.62800	27
3.63167	28
3.63533	28
3.63900	28
3.64267	28
3.64633	28
3.65000	28
3.65367	29
3.65733	29
3.66100	29
3.66467	29
3.66833	30
3.67200	30
3.67567	30
3.67933	30
3.68300	30
3.68667	30
3.69033	30
3.69400	30
3.69767	30
3.70133	31
3.70500	31
3.70867	31
3.71233	31
3.71600	31
3.71967	31
3.72333	32
3.72700	32
3.73067	32
3.73433	32
3.73800	32
3.74167	32
3.74533	33
3.74900	33
3.75267	33
3.75633	33
3.76000	33
3.76367	33
3.76733	34
3.77100	34
3.77467	34
3.77833	33
3.78200	33
3.78567	33
3.78933	33
3.79300	33
3.79667	32
3.80033	32
3.80400	32
3.80767	32
3.81133	32
3.81500	31
3.81867	31
3.82233	31
3.82600	31
3.82967	30
3.83333	30
3.83700	29
3.84067	29
3.84433	29
3.84800	29
3.85167	29
3.85533	29
3.85900	28
3.86267	28
3.86633	28
3.87000	28
3.87367	28
3.87733	27
3.88100	27
3.88467	27
3.88833	27
3.89200	28
3.89567	28
3.89933	28
3.90300	28
3.90667	28
3.91033	28
3.91400	28
3.91767	28
3.92133	28
3.92500	28
3.92867	28
3.93233	28
3.93600	28
3.93967	28
3.94333	28
3.94700	28
3.95067	29
3.95433	29
3.95800	29
3.96167	29
3.96533	29
3.96900	29
3.97267	29
3.97633	29
3.98000	29
3.98367	29
3.98733	29
3.99100	29
3.99467	29
3.99833	29

[Chromatogram (Ch3)]
Interval(msec)	220
# of Points	1091
Start Time(min)	0.002
End Time(min)	3.998
R.Time (min)	Intensity
0.00167	-1
0.00533	-1
0.00900	-1
0.01267	-2
0.01633	-2
0.02000	-1
0.02367	-1
0.02733	1
0.03100	1
0.03467	1
0.03833	1
0.04200	3
0.04567	4
0.04933	4
0.05300	3
0.05667	2
0.06033	2
0.06400	3
0.06767	1
0.07133	0
0.07500	-1
0.07867	-3
0.08233	-4
0.08600	-4
0.08967	-4
0.09333	-3
0.09700	-3
0.10067	-4
0.10433	-3
0.10800	-3
0.11167	-4
0.11533	-5
0.11900	-6
0.12267	-7
0.12633	-7
0.13000	-6
0.13367	-5
0.13733	-5
0.14100	-5
0.14467	-6
0.14833	-6
0.15200	-6
0.15567	-7
0.15933	-7
0.16300	-8
0.16667	-7
0.17033	-5
0.17400	-6
0.17767	-8
0.18133	-9
0.18500	-7
0.18867	-6
0.19233	-5
0.19600	-6
0.19967	-6
0.20333	-7
0.20700	-9
0.21067	-12
0.21433	-13
0.21800	-15
0.22167	-14
0.22533	-12
0.22900	-9
0.23267	-8
0.23633	-7
0.24000	-9
0.24367	-9
0.24733	-9
0.25100	-8
0.25467	-9
0.25833	-8
0.26200	-9
0.26567	-7
0.26933	-8
0.27300	-11
0.27667	-12
0.28033	-11
0.28400	-11
0.28767	-11
0.29133	-9
0.29500	-7
0.29867	-8
0.30233	-8
0.30600	-7
0.30967	-6
0.31333	-5
0.31700	-5
0.32067	-6
0.32433	-6
0.32800	-5
0.33167	-6
0.33533	-8
0.33900	-8
0.34267	-7
0.34633	-5
0.35000	-2
0.35367	-1
0.35733	-2
0.36100	-4
0.36467	-6
0.36833	-8
0.37200	-8
0.37567	-7
0.37933	-6
0.38300	-6
0.38667	-6
0.39033	-6
0.39400	-7
0.39767	-7
0.40133	-7
0.40500	-6
0.40867	-5
0.41233	-5
0.41600	-4
0.41967	-2
0.42333	-1
0.42700	0
0.43067	0
0.43433	1
0.43800	0
0.44167	-1
0.44533	-2
0.44900	-3
0.45267	-3
0.45633	-1
0.46000	-1
0.46367	-0
0.46733	-2
0.47100	-3
0.47467	-2
0.47833	-1
0.48200	-0
0.48567	1
0.48933	1
0.49300	-1
0.49667	-2
0.50033	-4
0.50400	-6
0.50767	-5
0.51133	-5
0.51500	-7
0.51867	-7
0.52233	-5
0.52600	-3
0.52967	-3
0.53333	-4
0.53700	-5
0.54067	-5
0.54433	-5
0.54800	-6
0.55167	-4
0.55533	-1
0.55900	2
0.56267	2
0.56633	1
0.57000	-2
0.57367	-3
0.57733	-5
0.58100	-7
0.58467	-6
0.58833	-4
0.59200	-1
0.59567	-1
0.59933	-1
0.60300	-1
0.60667	0
0.61033	-1
0.61400	-1
0.61767	-2
0.62133	-2
0.62500	-5
0.62867	-6
0.63233	-7
0.63600	-8
0.63967	-9
0.64333	-8
0.64700	-6
0.65067	-3
0.65433	-3
0.65800	-4
0.66167	-5
0.66533	-5
0.66900	-5
0.67267	-6
0.67633	-7
0.68000	-8
0.68367	-8
0.68733	-6
0.69100	-6
0.69467	-5
0.69833	-5
0.70200	-4
0.70567	-4
0.70933	-6
0.71300	-9
0.71667	-10
0.72033	-8
0.72400	-3
0.72767	1
0.73133	2
0.73500	1
0.73867	-3
0.74233	-4
0.74600	-5
0.74967	-7
0.75333	-7
0.75700	-4
0.76067	-2
0.76433	-2
0.76800	-3
0.77167	-3
0.77533	-2
0.77900	-2
0.78267	-1
0.78633	-1
0.79000	-1
0.79367	-1
0.79733	-2
0.80100	-2
0.80467	-3
0.80833	-2
0.81200	-2
0.81567	-4
0.81933	-5
0.82300	-7
0.82667	-9
0.83033	-11
0.83400	-10
0.83767	-8
0.84133	-8
0.84500	-7
0.84867	-5
0.85233	-4
0.85600	-2
0.85967	-1
0.86333	-1
0.86700	-2
0.87067	-2
0.87433	-1
0.87800	-0
0.88167	1
0.88533	1
0.88900	2
0.89267	2
0.89633	2
0.90000	2
0.90367	2
0.90733	1
0.91100	2
0.91467	1
0.91833	-1
0.92200	-5
0.92567	-5
0.92933	-3
0.93300	0
0.93667	1
0.94033	3
0.94400	1
0.94767	-0
0.95133	-3
0.95500	-5
0.95867	-6
0.96233	-5
0.96600	-4
0.96967	-4
0.97333	-2
0.97700	-0
0.98067	0
0.98433	-1
0.98800	-3
0.99167	-3
0.99533	-1
0.99900	1
1.00267	4
1.00633	6
1.01000	6
1.01367	5
1.01733	6
1.02100	6
1.02467	4
1.02833	1
1.03200	-0
1.03567	-2
1.03933	-2
1.04300	-3
1.04667	-1
1.05033	1
1.05400	3
1.05767	5
1.06133	6
1.06500	7
1.06867	9
1.07233	8
1.07600	6
1.07967	6
1.08333	5
1.08700	5
1.09067	3
1.09433	4
1.09800	4
1.10167	3
1.10533	4
1.10900	3
1.11267	1
1.11633	2
1.12000	4
1.12367	4
1.12733	2
1.13100	1
1.13467	-0
1.13833	1
1.14200	1
1.14567	-0
1.14933	-0
1.15300	-0
1.15667	0
1.16033	-0
1.16400	-2
1.16767	-1
1.17133	0
1.17500	4
1.17867	5
1.18233	7
1.18600	8
1.18967	6
1.19333	4
1.19700	3
1.20067	3
1.20433	1
1.20800	-3
1.21167	-2
1.21533	-1
1.21900	0
1.22267	2
1.22633	2
1.23000	1
1.23367	0
1.23733	-0
1.24100	-1
1.24467	-3
1.24833	-4
1.25200	-3
1.25567	-2
1.25933	-1
1.26300	-1
1.26667	0
1.27033	2
1.27400	2
1.27767	3
1.28133	4
1.28500	5
1.28867	4
1.29233	3
1.29600	2
1.29967	1
1.30333	-0
1.30700	-1
1.31067	-0
1.31433	-1
1.31800	-2
1.32167	-1
1.32533	1
1.32900	3
1.33267	4
1.33633	2
1.34000	0
1.34367	-3
1.34733	-5
1.35100	-5
1.35467	-3
1.35833	-3
1.36200	-4
1.36567	-3
1.36933	-1
1.37300	-0
1.37667	-1
1.38033	-2
1.38400	-4
1.38767	-5
1.39133	-5
1.39500	-7
1.39867	-7
1.40233	-7
1.40600	-5
1.40967	-2
1.41333	-1
1.41700	-2
1.42067	-1
1.42433	-0
1.42800	1
1.43167	4
1.43533	6
1.43900	5
1.44267	4
1.44633	3
1.45000	5
1.45367	6
1.45733	5
1.46100	4
1.46467	1
1.46833	-2
1.47200	-1
1.47567	1
1.47933	3
1.48300	4
1.48667	3
1.49033	0
1.49400	1
1.49767	1
1.50133	1
1.50500	2
1.50867	1
1.51233	2
1.51600	1
1.51967	2
1.52333	5
1.52700	7
1.53067	9
1.53433	11
1.53800	9
1.54167	5
1.54533	5
1.54900	7
1.55267	6
1.55633	6
1.56000	6
1.56367	6
1.56733	6
1.57100	6
1.57467	5
1.57833	3
1.58200	1
1.58567	0
1.58933	0
1.59300	-1
1.59667	-1
1.60033	-2
1.60400	-1
1.60767	-1
1.61133	-1
1.61500	-0
1.61867	1
1.62233	2
1.62600	3
1.62967	5
1.63333	8
1.63700	8
1.64067	7
1.64433	9
1.64800	12
1.65167	14
1.65533	15
1.65900	14
1.66267	14
1.66633	11
1.67000	9
1.67367	11
1.67733	13
1.68100	16
1.68467	19
1.68833	19
1.69200	18
1.69567	17
1.69933	17
1.70300	17
1.70667	19
1.71033	19
1.71400	21
1.71767	21
1.72133	20
1.72500	18
1.72867	19
1.73233	19
1.73600	19
1.73967	18
1.74333	18
1.74700	18
1.75067	17
1.75433	15
1.75800	13
1.76167	13
1.76533	15
1.76900	18
1.77267	20
1.77633	21
1.78000	19
1.78367	17
1.78733	17
1.79100	17
1.79467	19
1.79833	20
1.80200	21
1.80567	22
1.80933	23
1.81300	26
1.81667	26
1.82033	26
1.82400	26
1.82767	25
1.83133	25
1.83500	27
1.83867	29
1.84233	32
1.84600	34
1.84967	33
1.85333	32
1.85700	30
1.86067	30
1.86433	31
1.86800	31
1.87167	32
1.87533	32
1.87900	32
1.88267	34
1.88633	35
1.89000	36
1.89367	35
1.89733	34
1.90100	34
1.90467	33
1.90833	32
1.91200	30
1.91567	29
1.91933	29
1.92300	32
1.92667	35
1.93033	36
1.93400	39
1.93767	40
1.94133	39
1.94500	39
1.94867	40
1.95233	41
1.95600	40
1.95967	39
1.96333	40
1.96700	38
1.97067	39
1.97433	41
1.97800	43
1.98167	45
1.98533	47
1.98900	48
1.99267	50
1.99633	50
2.00000	48
2.00367	46
2.00733	46
2.01100	46
2.01467	46
2.01833	47
2.02200	47
2.02567	48
2.02933	49
2.03300	51
2.03667	53
2.04033	56
2.04400	59
2.04767	59
2.05133	59
2.05500	61
2.05867	62
2.06233	62
2.06600	63
2.06967	60
2.07333	58
2.07700	57
2.08067	59
2.08433	61
2.08800	63
2.09167	63
2.09533	64
2.09900	66
2.10267	69
2.10633	69
2.11000	68
2.11367	69
2.11733	71
2.12100	72
2.12467	73
2.12833	74
2.13200	76
2.13567	79
2.13933	82
2.14300	83
2.14667	82
2.15033	81
2.15400	81
2.15767	80
2.16133	81
2.16500	81
2.16867	82
2.17233	81
2.17600	80
2.17967	81
2.18333	81
2.18700	83
2.19067	86
2.19433	89
2.19800	91
2.20167	92
2.20533	92
2.20900	92
2.21267	92
2.21633	94
2.22000	97
2.22367	100
2.22733	102
2.23100	101
2.23467	98
2.23833	97
2.24200	99
2.24567	101
2.24933	103
2.25300	105
2.25667	107
2.26033	108
2.26400	108
2.26767	109
2.27133	110
2.27500	111
2.27867	113
2.28233	114
2.28600	116
2.28967	117
2.29333	116
2.29700	116
2.30067	118
2.30433	119
2.30800	121
2.31167	126
2.31533	127
2.31900	125
2.32267	124
2.32633	126
2.33000	128
2.33367	131
2.33733	133
2.34100	134
2.34467	135
2.34833	139
2.35200	143
2.35567	143
2.35933	140
2.36300	139
2.36667	140
2.37033	141
2.37400	143
2.37767	143
2.38133	146
2.38500	148
2.38867	148
2.39233	150
2.39600	153
2.39967	156
2.40333	158
2.40700	160
2.41067	163
2.41433	167
2.41800	170
2.42167	171
2.42533	173
2.42900	177
2.43267	180
2.43633	182
2.44000	183
2.44367	209
2.44733	278
2.45100	342
2.45467	384
2.45833	404
2.46200	394
2.46567	362
2.46933	325
2.47300	296
2.47667	279
2.48033	272
2.48400	265
2.48767	253
2.49133	235
2.49500	214
2.49867	193
2.50233	177
2.50600	165
2.50967	158
2.51333	155
2.51700	154
2.52067	157
2.52433	164
2.52800	175
2.53167	188
2.53533	203
2.53900	215
2.54267	222
2.54633	225
2.55000	222
2.55367	215
2.55733	203
2.56100	188
2.56467	176
2.56833	167
2.57200	161
2.57567	158
2.57933	158
2.58300	157
2.58667	157
2.59033	158
2.59400	156
2.59767	152
2.60133	144
2.60500	132
2.60867	120
2.61233	106
2.61600	91
2.61967	74
2.62333	59
2.62700	48
2.63067	42
2.63433	37
2.63800	36
2.64167	39
2.64533	47
2.64900	59
2.65267	73
2.65633	85
2.66000	96
2.66367	104
2.66733	112
2.67100	123
2.67467	134
2.67833	144
2.68200	153
2.68567	159
2.68933	163
2.69300	166
2.69667	167
2.70033	167
2.70400	167
2.70767	165
2.71133	164
2.71500	163
2.71867	163
2.72233	163
2.72600	163
2.72967	163
2.73333	164
2.73700	165
2.74067	167
2.74433	167
2.74800	169
2.75167	168
2.75533	169
2.75900	174
2.76267	179
2.76633	181
2.77000	183
2.77367	184
2.77733	186
2.78100	188
2.78467	191
2.78833	192
2.79200	193
2.79567	194
2.79933	197
2.80300	199
2.80667	202
2.81033	205
2.81400	208
2.81767	217
2.82133	237
2.82500	280
2.82867	361
2.83233	503
2.83600	730
2.83967	1061
2.84333	1502
2.84700	2034
2.85067	2630
2.85433	3253
2.85800	3849
2.86167	4371
2.86533	4777
2.86900	5040
2.87267	5154
2.87633	5124
2.88000	4974
2.88367	4731
2.88733	4426
2.89100	4081
2.89467	3721
2.89833	3366
2.90200	3021
2.90567	2696
2.90933	2397
2.91300	2129
2.91667	1887
2.92033	1673
2.92400	1486
2.92767	1322
2.93133	1177
2.93500	1051
2.93867	943
2.94233	849
2.94600	768
2.94967	697
2.95333	635
2.95700	583
2.96067	541
2.96433	504
2.96800	472
2.97167	443
2.97533	417
2.97900	394
2.98267	375
2.98633	357
2.99000	343
2.99367	332
2.99733	322
3.00100	314
3.00467	306
3.00833	300
3.01200	293
3.01567	285
3.01933	278
3.02300	274
3.02667	270
3.03033	266
3.03400	262
3.03767	257
3.04133	251
3.04500	248
3.04867	248
3.05233	245
3.05600	239
3.05967	236
3.06333	233
3.06700	230
3.07067	229
3.07433	230
3.07800	231
3.08167	231
3.08533	229
3.08900	228
3.09267	226
3.09633	220
3.10000	215
3.10367	212
3.10733	212
3.11100	212
3.11467	210
3.11833	209
3.12200	209
3.12567	209
3.12933	207
3.13300	206
3.13667	204
3.14033	203
3.14400	202
3.14767	201
3.15133	202
3.15500	202
3.15867	201
3.16233	200
3.16600	199
3.16967	201
3.17333	201
3.17700	199
3.18067	199
3.18433	200
3.18800	204
3.19167	206
3.19533	204
3.19900	203
3.20267	203
3.20633	202
3.21000	201
3.21367	201
3.21733	203
3.22100	203
3.22467	203
3.22833	203
3.23200	204
3.23567	205
3.23933	205
3.24300	206
3.24667	207
3.25033	206
3.25400	205
3.25767	205
3.26133	205
3.26500	207
3.26867	207
3.27233	206
3.27600	204
3.27967	203
3.28333	201
3.28700	200
3.29067	198
3.29433	192
3.29800	171
3.30167	127
3.30533	86
3.30900	66
3.31267	67
3.31633	82
3.32000	106
3.32367	137
3.32733	172
3.33100	211
3.33467	252
3.33833	293
3.34200	335
3.34567	376
3.34933	413
3.35300	444
3.35667	469
3.36033	492
3.36400	512
3.36767	529
3.37133	546
3.37500	562
3.37867	575
3.38233	585
3.38600	595
3.38967	604
3.39333	612
3.39700	617
3.40067	621
3.40433	627
3.40800	632
3.41167	636
3.41533	640
3.41900	645
3.42267	649
3.42633	653
3.43000	655
3.43367	659
3.43733	663
3.44100	665
3.44467	668
3.44833	670
3.45200	674
3.45567	677
3.45933	677
3.46300	677
3.46667	678
3.47033	679
3.47400	680
3.47767	682
3.48133	684
3.48500	685
3.48867	685
3.49233	685
3.49600	683
3.49967	682
3.50333	682
3.50700	683
3.51067	683
3.51433	682
3.51800	680
3.52167	676
3.52533	674
3.52900	672
3.53267	667
3.53633	665
3.54000	667
3.54367	668
3.54733	665
3.55100	659
3.55467	653
3.55833	650
3.56200	646
3.56567	645
3.56933	644
3.57300	642
3.57667	640
3.58033	637
3.58400	633
3.58767	631
3.59133	629
3.59500	625
3.59867	624
3.60233	621
3.60600	614
3.60967	608
3.61333	604
3.61700	603
3.62067	602
3.62433	600
3.62800	597
3.63167	594
3.63533	593
3.63900	590
3.64267	587
3.64633	586
3.65000	585
3.65367	581
3.65733	578
3.66100	577
3.66467	574
3.66833	573
3.67200	572
3.67567	572
3.67933	569
3.68300	566
3.68667	565
3.69033	565
3.69400	564
3.69767	563
3.70133	561
3.70500	560
3.70867	559
3.71233	559
3.71600	557
3.71967	555
3.72333	553
3.72700	550
3.73067	548
3.73433	546
3.73800	545
3.74167	544
3.74533	544
3.74900	542
3.75267	540
3.75633	537
3.76000	535
3.76367	531
3.76733	528
3.77100	526
3.77467	525
3.77833	526
3.78200	527
3.78567	526
3.78933	523
3.79300	522
3.79667	521
3.80033	522
3.80400	521
3.80767	519
3.81133	519
3.81500	519
3.81867	517
3.82233	516
3.82600	517
3.82967	518
3.83333	517
3.83700	514
3.84067	512
3.84433	509
3.84800	507
3.85167	507
3.85533	509
3.85900	510
3.86267	510
3.86633	510
3.87000	507
3.87367	503
3.87733	500
3.88100	500
3.88467	501
3.88833	502
3.89200	502
3.89567	501
3.89933	500
3.90300	498
3.90667	498
3.91033	498
3.91400	499
3.91767	500
3.92133	502
3.92500	500
3.92867	497
3.93233	494
3.93600	492
3.93967	493
3.94333	496
3.94700	497
3.95067	498
3.95433	497
3.95800	495
3.96167	492
3.96533	492
3.96900	492
3.97267	493
3.97633	493
3.98000	492
3.98367	490
3.98733	488
3.99100	486
3.99467	483
3.99833	476

[Status Trace (Column Oven Temperature)]
Interval(msec)	1000
# of Points	240
Start Time(min)	0.006
End Time(min)	3.989
Intensity Units	
Intensity Multiplier	1
R.Time (min)	Intensity
0.00600	35.07
0.02267	35.07
0.03933	35.06
0.05600	35.06
0.07267	35.05
0.08933	35.05
0.10600	35.05
0.12267	35.06
0.13933	35.05
0.15600	35.03
0.17267	35.04
0.18933	35.03
0.20600	35.03
0.22267	35.02
0.23933	35.03
0.25600	35.05
0.27267	35.05
0.28933	35.03
0.30600	35.03
0.32267	35.02
0.33933	35.02
0.35600	35.02
0.37267	35.03
0.38933	35.03
0.40600	35.04
0.42267	35.03
0.43933	35.02
0.45600	35.02
0.47267	35.01
0.48933	35.00
0.50600	35.01
0.52267	35.00
0.53933	35.01
0.55600	35.02
0.57267	35.02
0.58933	35.03
0.60600	35.03
0.62267	35.02
0.63933	35.02
0.65600	35.02
0.67267	35.02
0.68933	35.01
0.70600	35.00
0.72267	34.99
0.73933	34.98
0.75600	34.98
0.77267	34.99
0.78933	35.00
0.80600	35.01
0.82267	34.99
0.83933	34.99
0.85600	34.99
0.87267	34.98
0.88933	34.98
0.90600	34.98
0.92267	34.98
0.93933	34.99
0.95600	35.00
0.97267	35.00
0.98933	35.00
1.00600	35.01
1.02267	35.01
1.03933	35.00
1.05600	34.99
1.07267	34.98
1.08933	34.98
1.10600	34.98
1.12267	34.97
1.13933	34.97
1.15600	34.96
1.17267	34.96
1.18933	34.97
1.20600	34.97
1.22267	34.98
1.23933	34.98
1.25600	34.98
1.27267	34.97
1.28933	34.97
1.30600	34.97
1.32267	34.99
1.33933	35.00
1.35600	35.00
1.37267	35.01
1.38933	35.01
1.40600	34.99
1.42267	35.00
1.43933	34.99
1.45600	35.00
1.47267	35.00
1.48933	34.99
1.50600	34.97
1.52267	34.96
1.53933	34.96
1.55600	34.96
1.57267	34.96
1.58933	34.98
1.60600	35.04
1.62267	35.15
1.63933	35.33
1.65600	35.58
1.67267	35.94
1.68933	36.30
1.70600	36.65
1.72267	37.00
1.73933	37.32
1.75600	37.62
1.77267	37.98
1.78933	38.32
1.80600	38.64
1.82267	38.97
1.83933	39.30
1.85600	39.63
1.87267	39.95
1.88933	40.28
1.90600	40.61
1.92267	40.93
1.93933	41.26
1.95600	41.58
1.97267	41.90
1.98933	42.24
2.00600	42.55
2.02267	42.89
2.03933	43.21
2.05600	43.54
2.07267	43.84
2.08933	44.18
2.10600	44.52
2.12267	44.84
2.13933	45.17
2.15600	45.51
2.17267	45.82
2.18933	46.17
2.20600	46.50
2.22267	46.83
2.23933	47.17
2.25600	47.50
2.27267	47.82
2.28933	48.15
2.30600	48.49
2.32267	48.82
2.33933	49.15
2.35600	49.43
2.37267	49.62
2.38933	49.66
2.40600	49.65
2.42267	49.68
2.43933	49.66
2.45600	49.68
2.47267	49.68
2.48933	49.69
2.50600	49.72
2.52267	49.73
2.53933	49.74
2.55600	49.77
2.57267	49.80
2.58933	49.80
2.60600	49.83
2.62267	49.83
2.63933	49.84
2.65600	49.84
2.67267	49.84
2.68933	49.85
2.70600	49.88
2.72267	49.89
2.73933	49.87
2.75600	49.86
2.77267	49.85
2.78933	49.85
2.80600	49.86
2.82267	49.87
2.83933	49.89
2.85600	49.89
2.87267	49.89
2.88933	49.91
2.90600	49.92
2.92267	49.94
2.93933	49.96
2.95600	49.97
2.97267	49.99
2.98933	49.99
3.00600	50.00
3.02267	50.01
3.03933	50.01
3.05600	50.00
3.07267	50.01
3.08933	50.02
3.10600	50.03
3.12267	50.05
3.13933	50.07
3.15600	50.08
3.17267	50.09
3.18933	50.11
3.20600	50.13
3.22267	50.12
3.23933	50.08
3.25600	50.06
3.27267	50.04
3.28933	50.03
3.30600	50.02
3.32267	50.01
3.33933	50.00
3.35600	49.99
3.37267	50.00
3.38933	49.99
3.40600	50.00
3.42267	50.01
3.43933	50.01
3.45600	50.01
3.47267	50.01
3.48933	50.02
3.50600	50.03
3.52267	50.04
3.53933	50.04
3.55600	50.05
3.57267	50.07
3.58933	50.08
3.60600	50.10
3.62267	50.11
3.63933	50.10
3.65600	50.10
3.67267	50.09
3.68933	50.08
3.70600	50.07
3.72267	50.05
3.73933	50.03
3.75600	50.02
3.77267	50.00
3.78933	49.98
3.80600	49.98
3.82267	49.98
3.83933	49.99
3.85600	49.99
3.87267	50.00
3.88933	50.01
3.90600	50.02
3.92267	50.01
3.93933	50.01
3.95600	50.00
3.97267	50.00
3.98933	50.00

[Status Trace (Injection Unit Temperature)]
Interval(msec)	1000
# of Points	240
Start Time(min)	0.006
End Time(min)	3.989
Intensity Units	
Intensity Multiplier	1
R.Time (min)	Intensity
0.00600	99.98
0.02267	99.97
0.03933	99.97
0.05600	99.98
0.07267	99.98
0.08933	99.98
0.10600	99.97
0.12267	99.98
0.13933	99.98
0.15600	99.97
0.17267	99.97
0.18933	99.98
0.20600	99.98
0.22267	99.98
0.23933	99.97
0.25600	99.98
0.27267	99.98
0.28933	99.98
0.30600	99.98
0.32267	99.97
0.33933	99.97
0.35600	99.97
0.37267	99.98
0.38933	99.97
0.40600	99.98
0.42267	99.97
0.43933	99.98
0.45600	99.97
0.47267	99.98
0.48933	99.98
0.50600	99.98
0.52267	99.98
0.53933	99.98
0.55600	99.98
0.57267	99.98
0.58933	99.98
0.60600	99.98
0.62267	99.98
0.63933	99.98
0.65600	99.98
0.67267	99.98
0.68933	99.98
0.70600	99.98
0.72267	99.98
0.73933	99.98
0.75600	99.98
0.77267	99.98
0.78933	99.98
0.80600	99.98
0.82267	99.98
0.83933	99.98
0.85600	99.99
0.87267	99.98
0.88933	99.98
0.90600	99.98
0.92267	99.98
0.93933	99.99
0.95600	99.99
0.97267	99.98
0.98933	99.98
1.00600	99.98
1.02267	99.98
1.03933	99.98
1.05600	99.98
1.07267	99.98
1.08933	99.98
1.10600	99.99
1.12267	99.98
1.13933	99.98
1.15600	99.98
1.17267	99.98
1.18933	99.98
1.20600	99.98
1.22267	99.98
1.23933	99.98
1.25600	99.98
1.27267	99.98
1.28933	99.98
1.30600	99.99
1.32267	99.98
1.33933	99.98
1.35600	99.98
1.37267	99.98
1.38933	99.98
1.40600	99.98
1.42267	99.98
1.43933	99.98
1.45600	99.98
1.47267	99.98
1.48933	99.98
1.50600	99.98
1.52267	99.98
1.53933	99.97
1.55600	99.98
1.57267	99.97
1.58933	99.98
1.60600	99.98
1.62267	99.98
1.63933	99.98
1.65600	99.97
1.67267	99.97
1.68933	99.97
1.70600	99.97
1.72267	99.97
1.73933	99.97
1.75600	99.97
1.77267	99.97
1.78933	99.98
1.80600	99.98
1.82267	99.97
1.83933	99.98
1.85600	99.97
1.87267	99.98
1.88933	99.98
1.90600	99.97
1.92267	99.98
1.93933	99.97
1.95600	99.97
1.97267	99.97
1.98933	99.97
2.00600	99.97
2.02267	99.97
2.03933	99.97
2.05600	99.96
2.07267	99.97
2.08933	99.97
2.10600	99.97
2.12267	99.97
2.13933	99.97
2.15600	99.97
2.17267	99.97
2.18933	99.97
2.20600	99.97
2.22267	99.97
2.23933	99.97
2.25600	99.97
2.27267	99.97
2.28933	99.96
2.30600	99.97
2.32267	99.97
2.33933	99.97
2.35600	99.97
2.37267	99.97
2.38933	99.97
2.40600	99.97
2.42267	99.96
2.43933	99.97
2.45600	99.97
2.47267	99.97
2.48933	99.97
2.50600	99.97
2.52267	99.97
2.53933	99.98
2.55600	99.97
2.57267	99.97
2.58933	99.97
2.60600	99.97
2.62267	99.97
2.63933	99.97
2.65600	99.98
2.67267	99.98
2.68933	99.98
2.70600	99.98
2.72267	99.98
2.73933	99.98
2.75600	99.98
2.77267	99.98
2.78933	99.98
2.80600	99.98
2.82267	99.98
2.83933	99.99
2.85600	99.99
2.87267	99.99
2.88933	99.99
2.90600	100.00
2.92267	99.99
2.93933	100.00
2.95600	100.00
2.97267	100.00
2.98933	100.00
3.00600	100.00
3.02267	100.01
3.03933	100.01
3.05600	100.01
3.07267	100.01
3.08933	100.02
3.10600	100.01
3.12267	100.01
3.13933	100.02
3.15600	100.02
3.17267	100.02
3.18933	100.02
3.20600	100.02
3.22267	100.02
3.23933	100.02
3.25600	100.02
3.27267	100.03
3.28933	100.03
3.30600	100.03
3.32267	100.03
3.33933	100.03
3.35600	100.03
3.37267	100.03
3.38933	100.04
3.40600	100.03
3.42267	100.03
3.43933	100.04
3.45600	100.04
3.47267	100.04
3.48933	100.04
3.50600	100.04
3.52267	100.04
3.53933	100.04
3.55600	100.04
3.57267	100.04
3.58933	100.04
3.60600	100.04
3.62267	100.04
3.63933	100.04
3.65600	100.04
3.67267	100.04
3.68933	100.04
3.70600	100.04
3.72267	100.05
3.73933	100.04
3.75600	100.05
3.77267	100.04
3.78933	100.05
3.80600	100.05
3.82267	100.05
3.83933	100.04
3.85600	100.05
3.87267	100.05
3.88933	100.05
3.90600	100.05
3.92267	100.05
3.93933	100.05
3.95600	100.05
3.97267	100.05
3.98933	100.05

[Status Trace (Carrier Gas Pressure)]
Interval(msec)	1000
# of Points	240
Start Time(min)	0.006
End Time(min)	3.989
Intensity Units	
Intensity Multiplier	1
R.Time (min)	Intensity
0.00600	58.00
0.02267	55.71
0.03933	56.83
0.05600	59.04
0.07267	59.68
0.08933	58.13
0.10600	57.98
0.12267	58.01
0.13933	58.01
0.15600	58.01
0.17267	58.00
0.18933	58.00
0.20600	58.00
0.22267	58.00
0.23933	58.00
0.25600	58.00
0.27267	58.00
0.28933	58.00
0.30600	58.00
0.32267	58.00
0.33933	58.00
0.35600	58.00
0.37267	58.00
0.38933	58.00
0.40600	58.00
0.42267	58.00
0.43933	58.00
0.45600	58.00
0.47267	58.00
0.48933	58.00
0.50600	58.00
0.52267	58.00
0.53933	58.00
0.55600	58.00
0.57267	58.00
0.58933	58.00
0.60600	58.00
0.62267	58.00
0.63933	58.00
0.65600	58.00
0.67267	58.00
0.68933	58.00
0.70600	58.00
0.72267	58.00
0.73933	58.00
0.75600	58.00
0.77267	58.00
0.78933	58.00
0.80600	58.00
0.82267	58.00
0.83933	58.00
0.85600	58.00
0.87267	58.00
0.88933	58.00
0.90600	58.00
0.92267	58.00
0.93933	58.00
0.95600	58.00
0.97267	58.00
0.98933	58.00
1.00600	58.00
1.02267	58.00
1.03933	58.00
1.05600	58.00
1.07267	58.00
1.08933	58.00
1.10600	58.00
1.12267	58.00
1.13933	58.00
1.15600	58.00
1.17267	58.00
1.18933	58.00
1.20600	58.00
1.22267	58.00
1.23933	58.00
1.25600	58.00
1.27267	58.00
1.28933	58.00
1.30600	58.00
1.32267	58.00
1.33933	58.00
1.35600	58.00
1.37267	58.00
1.38933	58.00
1.40600	58.00
1.42267	58.00
1.43933	58.00
1.45600	58.00
1.47267	58.00
1.48933	58.00
1.50600	58.00
1.52267	58.00
1.53933	58.00
1.55600	58.00
1.57267	58.00
1.58933	58.00
1.60600	58.00
1.62267	58.00
1.63933	58.00
1.65600	58.01
1.67267	58.01
1.68933	58.00
1.70600	58.00
1.72267	58.00
1.73933	58.00
1.75600	58.00
1.77267	58.00
1.78933	58.00
1.80600	58.00
1.82267	58.00
1.83933	58.00
1.85600	58.00
1.87267	58.00
1.88933	58.00
1.90600	58.00
1.92267	58.00
1.93933	58.00
1.95600	58.00
1.97267	58.00
1.98933	58.00
2.00600	58.00
2.02267	58.00
2.03933	58.00
2.05600	58.00
2.07267	58.00
2.08933	58.00
2.10600	58.00
2.12267	58.00
2.13933	58.00
2.15600	58.00
2.17267	58.00
2.18933	58.00
2.20600	58.00
2.22267	58.00
2.23933	58.00
2.25600	58.00
2.27267	58.00
2.28933	58.00
2.30600	58.00
2.32267	58.00
2.33933	58.00
2.35600	58.00
2.37267	58.00
2.38933	57.99
2.40600	57.99
2.42267	58.00
2.43933	58.00
2.45600	58.00
2.47267	58.00
2.48933	58.00
2.50600	58.00
2.52267	57.99
2.53933	58.00
2.55600	58.00
2.57267	58.00
2.58933	58.00
2.60600	58.00
2.62267	58.00
2.63933	58.00
2.65600	58.00
2.67267	58.00
2.68933	58.00
2.70600	58.00
2.72267	58.00
2.73933	58.00
2.75600	58.00
2.77267	58.00
2.78933	58.00
2.80600	58.00
2.82267	58.00
2.83933	58.00
2.85600	58.00
2.87267	58.00
2.88933	58.00
2.90600	58.00
2.92267	58.00
2.93933	58.00
2.95600	58.00
2.97267	58.00
2.98933	58.00
3.00600	58.00
3.02267	58.00
3.03933	58.00
3.05600	58.00
3.07267	58.00
3.08933	58.00
3.10600	58.00
3.12267	58.00
3.13933	58.00
3.15600	58.00
3.17267	58.00
3.18933	58.00
3.20600	58.00
3.22267	58.00
3.23933	58.00
3.25600	58.00
3.27267	58.00
3.28933	58.00
3.30600	58.00
3.32267	58.00
3.33933	58.00
3.35600	58.00
3.37267	58.00
3.38933	58.00
3.40600	58.00
3.42267	58.00
3.43933	58.00
3.45600	58.00
3.47267	58.00
3.48933	58.00
3.50600	58.00
3.52267	58.00
3.53933	58.00
3.55600	58.00
3.57267	58.00
3.58933	58.00
3.60600	58.00
3.62267	58.00
3.63933	58.00
3.65600	58.00
3.67267	58.00
3.68933	58.00
3.70600	58.00
3.72267	58.00
3.73933	58.00
3.75600	58.00
3.77267	58.00
3.78933	58.00
3.80600	58.00
3.82267	58.00
3.83933	58.00
3.85600	58.00
3.87267	58.00
3.88933	58.00
3.90600	58.00
3.92267	58.00
3.93933	58.00
3.95600	58.00
3.97267	58.00
3.98933	58.00

[Status Trace (Carrier Gas Flow)]
Interval(msec)	1000
# of Points	240
Start Time(min)	0.006
End Time(min)	3.989
Intensity Units	
Intensity Multiplier	1
R.Time (min)	Intensity
0.00600	34.52
0.02267	34.54
0.03933	34.55
0.05600	34.55
0.07267	34.49
0.08933	34.52
0.10600	34.52
0.12267	34.52
0.13933	34.52
0.15600	34.52
0.17267	34.52
0.18933	34.52
0.20600	34.52
0.22267	34.52
0.23933	34.52
0.25600	34.52
0.27267	34.51
0.28933	34.52
0.30600	34.52
0.32267	34.51
0.33933	34.52
0.35600	34.52
0.37267	34.52
0.38933	34.52
0.40600	34.51
0.42267	34.52
0.43933	34.52
0.45600	34.51
0.47267	34.52
0.48933	34.52
0.50600	34.52
0.52267	34.52
0.53933	34.52
0.55600	34.51
0.57267	34.52
0.58933	34.52
0.60600	34.52
0.62267	34.51
0.63933	34.52
0.65600	34.53
0.67267	34.52
0.68933	34.52
0.70600	34.52
0.72267	34.52
0.73933	34.52
0.75600	34.52
0.77267	34.52
0.78933	34.51
0.80600	34.52
0.82267	34.52
0.83933	34.51
0.85600	34.51
0.87267	34.52
0.88933	34.52
0.90600	34.51
0.92267	34.52
0.93933	34.52
0.95600	34.52
0.97267	34.52
0.98933	34.52
1.00600	34.52
1.02267	34.53
1.03933	34.52
1.05600	34.52
1.07267	34.52
1.08933	34.52
1.10600	34.52
1.12267	34.52
1.13933	34.52
1.15600	34.52
1.17267	34.52
1.18933	34.52
1.20600	34.52
1.22267	34.52
1.23933	34.52
1.25600	34.53
1.27267	34.52
1.28933	34.51
1.30600	34.52
1.32267	34.52
1.33933	34.52
1.35600	34.52
1.37267	34.52
1.38933	34.52
1.40600	34.52
1.42267	34.52
1.43933	34.51
1.45600	34.52
1.47267	34.52
1.48933	34.52
1.50600	34.52
1.52267	34.52
1.53933	34.52
1.55600	34.51
1.57267	34.52
1.58933	34.52
1.60600	34.53
1.62267	34.52
1.63933	34.52
1.65600	34.52
1.67267	34.52
1.68933	34.52
1.70600	34.52
1.72267	34.52
1.73933	34.52
1.75600	34.52
1.77267	34.52
1.78933	34.51
1.80600	34.52
1.82267	34.53
1.83933	34.52
1.85600	34.51
1.87267	34.52
1.88933	34.52
1.90600	34.52
1.92267	34.52
1.93933	34.51
1.95600	34.52
1.97267	34.53
1.98933	34.52
2.00600	34.52
2.02267	34.52
2.03933	34.52
2.05600	34.52
2.07267	34.52
2.08933	34.51
2.10600	34.52
2.12267	34.52
2.13933	34.52
2.15600	34.52
2.17267	34.52
2.18933	34.52
2.20600	34.52
2.22267	34.52
2.23933	34.52
2.25600	34.52
2.27267	34.51
2.28933	34.51
2.30600	34.52
2.32267	34.52
2.33933	34.52
2.35600	34.52
2.37267	34.52
2.38933	34.51
2.40600	34.52
2.42267	34.51
2.43933	34.52
2.45600	34.52
2.47267	34.52
2.48933	34.52
2.50600	34.47
2.52267	34.52
2.53933	34.51
2.55600	34.52
2.57267	34.52
2.58933	34.53
2.60600	34.52
2.62267	34.53
2.63933	34.53
2.65600	34.52
2.67267	34.52
2.68933	34.52
2.70600	34.52
2.72267	34.52
2.73933	34.52
2.75600	34.52
2.77267	34.52
2.78933	34.52
2.80600	34.52
2.82267	34.51
2.83933	34.52
2.85600	34.52
2.87267	34.52
2.88933	34.51
2.90600	34.51
2.92267	34.52
2.93933	34.52
2.95600	34.52
2.97267	34.51
2.98933	34.52
3.00600	34.52
3.02267	34.52
3.03933	34.52
3.05600	34.52
3.07267	34.52
3.08933	34.52
3.10600	34.52
3.12267	34.52
3.13933	34.52
3.15600	34.53
3.17267	34.51
3.18933	34.52
3.20600	34.51
3.22267	34.51
3.23933	34.52
3.25600	34.52
3.27267	34.52
3.28933	34.51
3.30600	34.52
3.32267	34.52
3.33933	34.52
3.35600	34.51
3.37267	34.53
3.38933	34.52
3.40600	34.52
3.42267	34.51
3.43933	34.52
3.45600	34.52
3.47267	34.51
3.48933	34.52
3.50600	34.52
3.52267	34.51
3.53933	34.52
3.55600	34.52
3.57267	34.52
3.58933	34.52
3.60600	34.52
3.62267	34.53
3.63933	34.52
3.65600	34.52
3.67267	34.52
3.68933	34.52
3.70600	34.52
3.72267	34.52
3.73933	34.52
3.75600	34.52
3.77267	34.52
3.78933	34.52
3.80600	34.52
3.82267	34.52
3.83933	34.51
3.85600	34.53
3.87267	34.52
3.88933	34.52
3.90600	34.52
3.92267	34.52
3.93933	34.52
3.95600	34.52
3.97267	34.52
3.98933	34.52

[Status Trace (Column Flow)]
Interval(msec)	1000
# of Points	240
Start Time(min)	0.006
End Time(min)	3.989
Intensity Units	
Intensity Multiplier	1
R.Time (min)	Intensity
0.00600	5.57
0.02267	5.30
0.03933	5.43
0.05600	5.69
0.07267	5.77
0.08933	5.59
0.10600	5.57
0.12267	5.57
0.13933	5.57
0.15600	5.57
0.17267	5.57
0.18933	5.57
0.20600	5.57
0.22267	5.57
0.23933	5.57
0.25600	5.57
0.27267	5.57
0.28933	5.57
0.30600	5.57
0.32267	5.57
0.33933	5.57
0.35600	5.57
0.37267	5.57
0.38933	5.57
0.40600	5.57
0.42267	5.57
0.43933	5.57
0.45600	5.57
0.47267	5.57
0.48933	5.57
0.50600	5.57
0.52267	5.57
0.53933	5.57
0.55600	5.57
0.57267	5.57
0.58933	5.57
0.60600	5.57
0.62267	5.57
0.63933	5.57
0.65600	5.57
0.67267	5.57
0.68933	5.57
0.70600	5.57
0.72267	5.57
0.73933	5.57
0.75600	5.57
0.77267	5.57
0.78933	5.57
0.80600	5.57
0.82267	5.57
0.83933	5.57
0.85600	5.57
0.87267	5.57
0.88933	5.57
0.90600	5.57
0.92267	5.57
0.93933	5.57
0.95600	5.57
0.97267	5.57
0.98933	5.57
1.00600	5.57
1.02267	5.57
1.03933	5.57
1.05600	5.57
1.07267	5.57
1.08933	5.57
1.10600	5.57
1.12267	5.57
1.13933	5.57
1.15600	5.57
1.17267	5.57
1.18933	5.57
1.20600	5.57
1.22267	5.57
1.23933	5.57
1.25600	5.57
1.27267	5.57
1.28933	5.57
1.30600	5.57
1.32267	5.57
1.33933	5.57
1.35600	5.57
1.37267	5.57
1.38933	5.57
1.40600	5.57
1.42267	5.57
1.43933	5.57
1.45600	5.57
1.47267	5.57
1.48933	5.57
1.50600	5.57
1.52267	5.57
1.53933	5.57
1.55600	5.57
1.57267	5.57
1.58933	5.57
1.60600	5.57
1.62267	5.57
1.63933	5.56
1.65600	5.55
1.67267	5.55
1.68933	5.53
1.70600	5.52
1.72267	5.51
1.73933	5.50
1.75600	5.49
1.77267	5.48
1.78933	5.47
1.80600	5.46
1.82267	5.45
1.83933	5.44
1.85600	5.43
1.87267	5.42
1.88933	5.41
1.90600	5.40
1.92267	5.39
1.93933	5.38
1.95600	5.37
1.97267	5.36
1.98933	5.35
2.00600	5.34
2.02267	5.33
2.03933	5.32
2.05600	5.31
2.07267	5.30
2.08933	5.29
2.10600	5.28
2.12267	5.27
2.13933	5.26
2.15600	5.25
2.17267	5.25
2.18933	5.23
2.20600	5.22
2.22267	5.22
2.23933	5.21
2.25600	5.20
2.27267	5.19
2.28933	5.18
2.30600	5.17
2.32267	5.16
2.33933	5.15
2.35600	5.14
2.37267	5.14
2.38933	5.13
2.40600	5.13
2.42267	5.13
2.43933	5.13
2.45600	5.13
2.47267	5.13
2.48933	5.13
2.50600	5.13
2.52267	5.13
2.53933	5.13
2.55600	5.13
2.57267	5.13
2.58933	5.13
2.60600	5.13
2.62267	5.13
2.63933	5.13
2.65600	5.13
2.67267	5.13
2.68933	5.13
2.70600	5.13
2.72267	5.13
2.73933	5.13
2.75600	5.13
2.77267	5.13
2.78933	5.13
2.80600	5.13
2.82267	5.13
2.83933	5.13
2.85600	5.13
2.87267	5.13
2.88933	5.13
2.90600	5.13
2.92267	5.13
2.93933	5.13
2.95600	5.13
2.97267	5.13
2.98933	5.13
3.00600	5.13
3.02267	5.13
3.03933	5.13
3.05600	5.13
3.07267	5.13
3.08933	5.13
3.10600	5.12
3.12267	5.12
3.13933	5.12
3.15600	5.12
3.17267	5.12
3.18933	5.12
3.20600	5.12
3.22267	5.12
3.23933	5.12
3.25600	5.12
3.27267	5.12
3.28933	5.12
3.30600	5.12
3.32267	5.13
3.33933	5.13
3.35600	5.13
3.37267	5.13
3.38933	5.13
3.40600	5.13
3.42267	5.13
3.43933	5.13
3.45600	5.13
3.47267	5.13
3.48933	5.13
3.50600	5.12
3.52267	5.12
3.53933	5.12
3.55600	5.12
3.57267	5.12
3.58933	5.12
3.60600	5.12
3.62267	5.12
3.63933	5.12
3.65600	5.12
3.67267	5.12
3.68933	5.12
3.70600	5.12
3.72267	5.12
3.73933	5.12
3.75600	5.13
3.77267	5.13
3.78933	5.13
3.80600	5.13
3.82267	5.13
3.83933	5.13
3.85600	5.13
3.87267	5.13
3.88933	5.13
3.90600	5.13
3.92267	5.13
3.93933	5.13
3.95600	5.13
3.97267	5.13
3.98933	5.13

[Status Trace (Linear Velocity)]
Interval(msec)	1000
# of Points	240
Start Time(min)	0.006
End Time(min)	3.989
Intensity Units	
Intensity Multiplier	1
R.Time (min)	Intensity
0.00600	39.02
0.02267	37.52
0.03933	38.25
0.05600	39.70
0.07267	40.12
0.08933	39.11
0.10600	39.01
0.12267	39.03
0.13933	39.03
0.15600	39.03
0.17267	39.03
0.18933	39.03
0.20600	39.03
0.22267	39.03
0.23933	39.03
0.25600	39.03
0.27267	39.02
0.28933	39.03
0.30600	39.03
0.32267	39.03
0.33933	39.03
0.35600	39.03
0.37267	39.03
0.38933	39.03
0.40600	39.03
0.42267	39.03
0.43933	39.03
0.45600	39.03
0.47267	39.03
0.48933	39.03
0.50600	39.03
0.52267	39.03
0.53933	39.03
0.55600	39.03
0.57267	39.03
0.58933	39.03
0.60600	39.03
0.62267	39.03
0.63933	39.03
0.65600	39.03
0.67267	39.03
0.68933	39.03
0.70600	39.03
0.72267	39.03
0.73933	39.03
0.75600	39.03
0.77267	39.03
0.78933	39.03
0.80600	39.03
0.82267	39.03
0.83933	39.03
0.85600	39.03
0.87267	39.03
0.88933	39.03
0.90600	39.03
0.92267	39.03
0.93933	39.03
0.95600	39.03
0.97267	39.03
0.98933	39.03
1.00600	39.03
1.02267	39.03
1.03933	39.03
1.05600	39.03
1.07267	39.03
1.08933	39.03
1.10600	39.03
1.12267	39.03
1.13933	39.03
1.15600	39.03
1.17267	39.03
1.18933	39.03
1.20600	39.03
1.22267	39.03
1.23933	39.03
1.25600	39.03
1.27267	39.03
1.28933	39.03
1.30600	39.03
1.32267	39.03
1.33933	39.03
1.35600	39.03
1.37267	39.03
1.38933	39.03
1.40600	39.03
1.42267	39.03
1.43933	39.03
1.45600	39.03
1.47267	39.03
1.48933	39.03
1.50600	39.03
1.52267	39.03
1.53933	39.03
1.55600	39.03
1.57267	39.03
1.58933	39.03
1.60600	39.03
1.62267	39.02
1.63933	39.00
1.65600	38.98
1.67267	38.95
1.68933	38.91
1.70600	38.87
1.72267	38.84
1.73933	38.81
1.75600	38.78
1.77267	38.75
1.78933	38.71
1.80600	38.68
1.82267	38.65
1.83933	38.62
1.85600	38.59
1.87267	38.56
1.88933	38.53
1.90600	38.50
1.92267	38.47
1.93933	38.44
1.95600	38.41
1.97267	38.38
1.98933	38.35
2.00600	38.32
2.02267	38.29
2.03933	38.26
2.05600	38.23
2.07267	38.20
2.08933	38.17
2.10600	38.14
2.12267	38.11
2.13933	38.08
2.15600	38.05
2.17267	38.02
2.18933	37.99
2.20600	37.96
2.22267	37.93
2.23933	37.90
2.25600	37.87
2.27267	37.84
2.28933	37.81
2.30600	37.78
2.32267	37.75
2.33933	37.72
2.35600	37.69
2.37267	37.68
2.38933	37.67
2.40600	37.67
2.42267	37.67
2.43933	37.67
2.45600	37.67
2.47267	37.67
2.48933	37.67
2.50600	37.67
2.52267	37.66
2.53933	37.67
2.55600	37.67
2.57267	37.66
2.58933	37.66
2.60600	37.66
2.62267	37.66
2.63933	37.66
2.65600	37.66
2.67267	37.66
2.68933	37.66
2.70600	37.66
2.72267	37.65
2.73933	37.66
2.75600	37.66
2.77267	37.66
2.78933	37.66
2.80600	37.66
2.82267	37.66
2.83933	37.65
2.85600	37.65
2.87267	37.65
2.88933	37.65
2.90600	37.65
2.92267	37.65
2.93933	37.65
2.95600	37.65
2.97267	37.64
2.98933	37.64
3.00600	37.64
3.02267	37.64
3.03933	37.64
3.05600	37.64
3.07267	37.64
3.08933	37.64
3.10600	37.64
3.12267	37.64
3.13933	37.64
3.15600	37.64
3.17267	37.64
3.18933	37.63
3.20600	37.63
3.22267	37.63
3.23933	37.64
3.25600	37.64
3.27267	37.64
3.28933	37.64
3.30600	37.64
3.32267	37.64
3.33933	37.64
3.35600	37.64
3.37267	37.64
3.38933	37.64
3.40600	37.64
3.42267	37.64
3.43933	37.64
3.45600	37.64
3.47267	37.64
3.48933	37.64
3.50600	37.64
3.52267	37.64
3.53933	37.64
3.55600	37.64
3.57267	37.64
3.58933	37.64
3.60600	37.64
3.62267	37.63
3.63933	37.63
3.65600	37.64
3.67267	37.64
3.68933	37.64
3.70600	37.64
3.72267	37.64
3.73933	37.64
3.75600	37.64
3.77267	37.64
3.78933	37.65
3.80600	37.65
3.82267	37.65
3.83933	37.65
3.85600	37.65
3.87267	37.64
3.88933	37.64
3.90600	37.64
3.92267	37.64
3.93933	37.64
3.95600	37.64
3.97267	37.65
3.98933	37.64

