[Header]
Application Name	LabSolutions
Version	5.110
Data File Name	C:\Users\User\Desktop\GC Analyses\Jack\Nachusa Grasslands Sampling\T1 Timepoint July 12th\T1_07122022_045.gcd
Output Date	3/14/2023
Output Time	3:40:59 PM

[File Information]
Type	Data File
Generated	3/8/2023 6:12:15 PM
Generated by	System Administrator
Modified	3/8/2023 6:18:56 PM
Modified by	System Administrator

[Sample Information]
Operator Name	System Administrator
Acquired	3/8/2023 6:14:56 PM
Sample Type	0:Unknown
Level	0
Sample Name	045
Sample ID	045
ISTD Amount1	1
ISTD Amount2	1
ISTD Amount3	1
ISTD Amount4	1
ISTD Amount5	1
ISTD Amount6	1
ISTD Amount7	1
ISTD Amount8	1
ISTD Amount9	1
ISTD Amount10	1
ISTD Amount11	1
ISTD Amount12	1
ISTD Amount13	1
ISTD Amount14	1
ISTD Amount15	1
ISTD Amount16	1
ISTD Amount17	1
ISTD Amount18	1
ISTD Amount19	1
ISTD Amount20	1
ISTD Amount21	1
ISTD Amount22	1
ISTD Amount23	1
ISTD Amount24	1
ISTD Amount25	1
ISTD Amount26	1
ISTD Amount27	1
ISTD Amount28	1
ISTD Amount29	1
ISTD Amount30	1
ISTD Amount31	1
ISTD Amount32	1
Sample Amount	1
Dilution Factor	1
Vial#	44
Injection Volume	1
Injection Count	1
Bar Code	

[Original Files]
Data File	C:\Users\User\Desktop\GC Analyses\Jack\Nachusa Grasslands Sampling\T1 Timepoint July 12th\T1_07122022_045.gcd
Method File	C:\LabSolutions\Data\GHG_4min_2022\ghg3_togas_w_acet_4 min_new_int.gcm
Batch File	C:\LabSolutions\Data\AutoSamplerTesting\T1_07122022.gcb
Report Format File	c:\LabSolutions\System\DEFAULT.lsr

[File Description]


[Configuration]
Instrument Name	C0B7VH3-Instrument1
Instrument #	1
Line #	1
# of Detectors	3
Detector ID	DET#1	DET#2	DET#3
Detector Name	FID	PTCD	ECD
# of Channels	1	1	1

[Peak Table(Ch1)]
# of Peaks	3
Peak#	R.Time	I.Time	F.Time	Area	Height	A/H	Conc.	Mark	ID#	Name	k'	Plate #	Plate Ht.	Tailing	Resolution	Sep.Factor	Area Ratio	Height Ratio	Conc. %	Norm Conc.
1	1.476	1.439	1.538	26313	12331	2.134	185.768	   	1	CO	0.000	9010	16.647	1.336	0.000	0.000	0	0	30.755	30.755
2	1.567	1.538	1.637	4763	2255	2.112	92.101	 V 	2	CH4	0.062	10138	14.797	0.000	1.473	0.000	0	0	15.248	15.248
3	1.996	1.949	2.469	1299606	613167	2.119	326.166	   	3	CO2	0.353	17345	8.648	1.321	6.981	5.680	0	0	53.998	53.998

[Peak Table(Ch2)]
# of Peaks	0

[Peak Table(Ch3)]
# of Peaks	5
Peak#	R.Time	I.Time	F.Time	Area	Height	A/H	Conc.	Mark	ID#	Name	k'	Plate #	Plate Ht.	Tailing	Resolution	Sep.Factor	Area Ratio	Height Ratio	Conc. %	Norm Conc.
1	2.462	2.253	2.517	2102	488	4.308	0.000	   			0.000	7255	20.675	0.000	0.000	0.000	0	0	0.000	0.000
2	2.539	2.517	2.638	1336	289	4.631	0.000	 V 			0.031	2891	51.884	0.000	0.506	0.000	0	0	0.000	0.000
3	2.689	2.638	2.737	596	121	4.919	0.000	 V 			0.092	2521	59.501	0.000	0.746	2.952	0	0	0.000	0.000
4	2.873	2.737	3.140	21246	5056	4.202	0.543	 V 	1	N2O	0.167	12918	11.612	1.797	1.163	1.806	0	0	100.000	100.000
5	3.313	3.148	3.969	14132	536	26.363	0.000	   	2	SF6	0.346	335	447.253	2.441	1.067	2.071	0	0	0.000	0.000

[Compound Results(Ch1)]
# of IDs	6
ID#	Name	R.Time	Area	Height	Conc.	Curve	3rd	2nd	1st	Constant	Area Ratio	Height Ratio	Conc. %	Norm Conc.
1	CO	1.476	26313	12331	185.768	Linear	0.000000e+00	0.000000e+00	1.416423e+002	0.000000e+00	0	0	30.755	30.755
2	CH4	1.567	4763	2255	92.101	Linear	0.000000e+00	0.000000e+00	5.171738e+001	0.000000e+00	0	0	15.248	15.248
3	CO2	1.996	1299606	613167	326.166	Linear	0.000000e+00	0.000000e+00	3.984494e+003	0.000000e+00	0	0	53.998	53.998
4	Ethylene	0.000	0	0	0.000	Linear	0.000000e+00	0.000000e+00	0.000000e+00	0.000000e+00	0	0	0.000	0.000
5	Acetylene	0.000	0	0	0.000	Linear	0.000000e+00	0.000000e+00	0.000000e+00	0.000000e+00	0	0	0.000	0.000
6	Ethane	0.000	0	0	0.000	Linear	0.000000e+00	0.000000e+00	0.000000e+00	0.000000e+00	0	0	0.000	0.000

[Compound Results(Ch2)]
# of IDs	5
ID#	Name	R.Time	Area	Height	Conc.	Curve	3rd	2nd	1st	Constant	Area Ratio	Height Ratio	Conc. %	Norm Conc.
1	Hydrogen	0.000	0	0	0.000	Linear	0.000000e+00	0.000000e+00	0.000000e+00	0.000000e+00	0	0	0.000	0.000
2	Oxygen	0.000	0	0	0.000	Linear	0.000000e+00	0.000000e+00	0.000000e+00	0.000000e+00	0	0	0.000	0.000
3	Nitrogen	0.000	0	0	0.000	Linear	0.000000e+00	0.000000e+00	0.000000e+00	0.000000e+00	0	0	0.000	0.000
4	Methane	0.000	0	0	0.000	Linear	0.000000e+00	0.000000e+00	0.000000e+00	0.000000e+00	0	0	0.000	0.000
5	Carbon Monoxide	0.000	0	0	0.000	Linear	0.000000e+00	0.000000e+00	0.000000e+00	0.000000e+00	0	0	0.000	0.000

[Compound Results(Ch3)]
# of IDs	2
ID#	Name	R.Time	Area	Height	Conc.	Curve	3rd	2nd	1st	Constant	Area Ratio	Height Ratio	Conc. %	Norm Conc.
1	N2O	2.873	21246	5056	0.543	Linear	0.000000e+00	0.000000e+00	3.915173e+004	0.000000e+00	0	0	100.000	100.000
2	SF6	3.313	14132	536	0.000	Linear	0.000000e+00	0.000000e+00	0.000000e+00	0.000000e+00	0	0	0.000	0.000

[Group Results(Ch1)]
# of Groups	0

[Group Results(Ch2)]
# of Groups	0

[Group Results(Ch3)]
# of Groups	0

[Chromatogram (Ch1)]
Interval(msec)	220
# of Points	1091
Start Time(min)	0.002
End Time(min)	3.998
R.Time (min)	Intensity
0.00167	-5
0.00533	-2
0.00900	-2
0.01267	-5
0.01633	-6
0.02000	-3
0.02367	3
0.02733	7
0.03100	10
0.03467	8
0.03833	2
0.04200	-3
0.04567	-8
0.04933	-15
0.05300	-23
0.05667	-27
0.06033	-27
0.06400	-24
0.06767	-20
0.07133	-11
0.07500	3
0.07867	16
0.08233	21
0.08600	18
0.08967	13
0.09333	12
0.09700	10
0.10067	8
0.10433	8
0.10800	9
0.11167	8
0.11533	6
0.11900	2
0.12267	-4
0.12633	-9
0.13000	-10
0.13367	-11
0.13733	-9
0.14100	-8
0.14467	-10
0.14833	-11
0.15200	-10
0.15567	-8
0.15933	-5
0.16300	-3
0.16667	-1
0.17033	3
0.17400	9
0.17767	17
0.18133	24
0.18500	28
0.18867	29
0.19233	32
0.19600	34
0.19967	40
0.20333	49
0.20700	56
0.21067	56
0.21433	53
0.21800	51
0.22167	48
0.22533	47
0.22900	49
0.23267	55
0.23633	58
0.24000	59
0.24367	63
0.24733	72
0.25100	80
0.25467	82
0.25833	78
0.26200	72
0.26567	70
0.26933	74
0.27300	79
0.27667	83
0.28033	85
0.28400	81
0.28767	74
0.29133	68
0.29500	59
0.29867	49
0.30233	41
0.30600	37
0.30967	36
0.31333	31
0.31700	29
0.32067	31
0.32433	31
0.32800	30
0.33167	30
0.33533	28
0.33900	22
0.34267	23
0.34633	29
0.35000	34
0.35367	35
0.35733	33
0.36100	27
0.36467	20
0.36833	15
0.37200	10
0.37567	6
0.37933	2
0.38300	-3
0.38667	-11
0.39033	-17
0.39400	-17
0.39767	-12
0.40133	-5
0.40500	-1
0.40867	-3
0.41233	-8
0.41600	-12
0.41967	-15
0.42333	-13
0.42700	-9
0.43067	-8
0.43433	-5
0.43800	5
0.44167	18
0.44533	28
0.44900	31
0.45267	28
0.45633	21
0.46000	17
0.46367	18
0.46733	18
0.47100	18
0.47467	15
0.47833	5
0.48200	-8
0.48567	-21
0.48933	-29
0.49300	-35
0.49667	-41
0.50033	-45
0.50400	-46
0.50767	-42
0.51133	-39
0.51500	-37
0.51867	-34
0.52233	-34
0.52600	-31
0.52967	-28
0.53333	-24
0.53700	-21
0.54067	-17
0.54433	-11
0.54800	-7
0.55167	-7
0.55533	-7
0.55900	-5
0.56267	0
0.56633	3
0.57000	7
0.57367	10
0.57733	6
0.58100	5
0.58467	4
0.58833	1
0.59200	-4
0.59567	-14
0.59933	-21
0.60300	-24
0.60667	-24
0.61033	-25
0.61400	-29
0.61767	-34
0.62133	-37
0.62500	-37
0.62867	-29
0.63233	-20
0.63600	-17
0.63967	-16
0.64333	-13
0.64700	-8
0.65067	-7
0.65433	-6
0.65800	-1
0.66167	3
0.66533	1
0.66900	-6
0.67267	-17
0.67633	-28
0.68000	-36
0.68367	-44
0.68733	-50
0.69100	-53
0.69467	-56
0.69833	-56
0.70200	-50
0.70567	-35
0.70933	-24
0.71300	-19
0.71667	-15
0.72033	-12
0.72400	-9
0.72767	-8
0.73133	-10
0.73500	-14
0.73867	-19
0.74233	-23
0.74600	-24
0.74967	-18
0.75333	-6
0.75700	2
0.76067	6
0.76433	2
0.76800	-7
0.77167	-20
0.77533	-33
0.77900	-45
0.78267	-56
0.78633	-62
0.79000	-62
0.79367	-57
0.79733	-56
0.80100	-56
0.80467	-53
0.80833	-48
0.81200	-44
0.81567	-40
0.81933	-39
0.82300	-34
0.82667	-31
0.83033	-34
0.83400	-36
0.83767	-36
0.84133	-36
0.84500	-33
0.84867	-31
0.85233	-29
0.85600	-30
0.85967	-36
0.86333	-43
0.86700	-48
0.87067	-52
0.87433	-51
0.87800	-44
0.88167	-40
0.88533	-37
0.88900	-34
0.89267	-32
0.89633	-34
0.90000	-43
0.90367	-53
0.90733	-57
0.91100	-57
0.91467	-55
0.91833	-52
0.92200	-45
0.92567	-37
0.92933	-26
0.93300	-13
0.93667	-7
0.94033	2
0.94400	13
0.94767	23
0.95133	29
0.95500	30
0.95867	28
0.96233	22
0.96600	15
0.96967	9
0.97333	3
0.97700	-1
0.98067	-2
0.98433	-1
0.98800	0
0.99167	6
0.99533	9
0.99900	7
1.00267	2
1.00633	-1
1.01000	-4
1.01367	-6
1.01733	-6
1.02100	-1
1.02467	2
1.02833	1
1.03200	-2
1.03567	0
1.03933	5
1.04300	6
1.04667	3
1.05033	-1
1.05400	-1
1.05767	4
1.06133	13
1.06500	17
1.06867	18
1.07233	16
1.07600	12
1.07967	5
1.08333	-2
1.08700	-10
1.09067	-16
1.09433	-24
1.09800	-32
1.10167	-34
1.10533	-30
1.10900	-21
1.11267	-14
1.11633	-10
1.12000	-7
1.12367	-3
1.12733	-3
1.13100	-2
1.13467	1
1.13833	5
1.14200	5
1.14567	4
1.14933	-2
1.15300	-10
1.15667	-14
1.16033	-13
1.16400	-7
1.16767	6
1.17133	22
1.17500	37
1.17867	42
1.18233	35
1.18600	18
1.18967	-2
1.19333	-18
1.19700	-28
1.20067	-35
1.20433	-45
1.20800	-56
1.21167	-63
1.21533	-65
1.21900	-64
1.22267	-63
1.22633	-56
1.23000	-43
1.23367	-31
1.23733	-24
1.24100	-18
1.24467	-11
1.24833	-7
1.25200	-11
1.25567	-28
1.25933	-35
1.26300	-31
1.26667	-29
1.27033	-18
1.27400	-10
1.27767	-9
1.28133	-14
1.28500	-18
1.28867	-20
1.29233	-22
1.29600	-23
1.29967	-22
1.30333	-20
1.30700	-16
1.31067	-12
1.31433	-9
1.31800	-6
1.32167	-0
1.32533	5
1.32900	6
1.33267	3
1.33633	-2
1.34000	-7
1.34367	-12
1.34733	-13
1.35100	-13
1.35467	-12
1.35833	-9
1.36200	-8
1.36567	-9
1.36933	-3
1.37300	2
1.37667	2
1.38033	-1
1.38400	-6
1.38767	-14
1.39133	-25
1.39500	-38
1.39867	-51
1.40233	-63
1.40600	-68
1.40967	-63
1.41333	-53
1.41700	-38
1.42067	-24
1.42433	-20
1.42800	-17
1.43167	-18
1.43533	-19
1.43900	1
1.44267	93
1.44633	324
1.45000	852
1.45367	2030
1.45733	3981
1.46100	6335
1.46467	8593
1.46833	10437
1.47200	11719
1.47567	12328
1.47933	12154
1.48300	11186
1.48667	9612
1.49033	7762
1.49400	5965
1.49767	4427
1.50133	3219
1.50500	2319
1.50867	1668
1.51233	1207
1.51600	890
1.51967	676
1.52333	528
1.52700	421
1.53067	344
1.53433	288
1.53800	255
1.54167	279
1.54533	423
1.54900	718
1.55267	1115
1.55633	1520
1.56000	1864
1.56367	2114
1.56733	2243
1.57100	2223
1.57467	2043
1.57833	1742
1.58200	1393
1.58567	1057
1.58933	766
1.59300	537
1.59667	371
1.60033	255
1.60400	171
1.60767	113
1.61133	76
1.61500	54
1.61867	40
1.62233	24
1.62600	8
1.62967	-3
1.63333	-11
1.63700	-20
1.64067	-24
1.64433	-19
1.64800	-15
1.65167	-17
1.65533	-21
1.65900	-23
1.66267	-22
1.66633	-20
1.67000	-16
1.67367	-11
1.67733	-6
1.68100	-6
1.68467	-9
1.68833	-13
1.69200	-16
1.69567	-20
1.69933	-23
1.70300	-27
1.70667	-30
1.71033	-26
1.71400	-18
1.71767	-10
1.72133	-5
1.72500	-1
1.72867	1
1.73233	-2
1.73600	-8
1.73967	-11
1.74333	-16
1.74700	-19
1.75067	-22
1.75433	-26
1.75800	-25
1.76167	-24
1.76533	-24
1.76900	-23
1.77267	-23
1.77633	-22
1.78000	-20
1.78367	-19
1.78733	-15
1.79100	-15
1.79467	-17
1.79833	-20
1.80200	-19
1.80567	-15
1.80933	-12
1.81300	-8
1.81667	-5
1.82033	-7
1.82400	-12
1.82767	-22
1.83133	-31
1.83500	-36
1.83867	-40
1.84233	-40
1.84600	-37
1.84967	-35
1.85333	-31
1.85700	-28
1.86067	-24
1.86433	-17
1.86800	-12
1.87167	-9
1.87533	-8
1.87900	-11
1.88267	-17
1.88633	-24
1.89000	-31
1.89367	-36
1.89733	-34
1.90100	-26
1.90467	-21
1.90833	-24
1.91200	-29
1.91567	-35
1.91933	-41
1.92300	-46
1.92667	-44
1.93033	-39
1.93400	-35
1.93767	-30
1.94133	-29
1.94500	-29
1.94867	-24
1.95233	1
1.95600	105
1.95967	658
1.96333	3178
1.96700	11970
1.97067	35537
1.97433	84728
1.97800	165601
1.98167	272525
1.98533	388739
1.98900	494427
1.99267	573059
1.99633	613179
2.00000	609496
2.00367	564552
2.00733	488967
2.01100	398184
2.01467	307513
2.01833	227711
2.02200	163591
2.02567	115344
2.02933	80674
2.03300	56522
2.03667	40022
2.04033	28856
2.04400	21313
2.04767	16194
2.05133	12685
2.05500	10241
2.05867	8501
2.06233	7230
2.06600	6276
2.06967	5542
2.07333	4966
2.07700	4502
2.08067	4118
2.08433	3797
2.08800	3522
2.09167	3281
2.09533	3069
2.09900	2889
2.10267	2735
2.10633	2598
2.11000	2474
2.11367	2358
2.11733	2247
2.12100	2139
2.12467	2037
2.12833	1943
2.13200	1855
2.13567	1777
2.13933	1709
2.14300	1649
2.14667	1596
2.15033	1546
2.15400	1497
2.15767	1450
2.16133	1401
2.16500	1354
2.16867	1312
2.17233	1271
2.17600	1231
2.17967	1187
2.18333	1144
2.18700	1111
2.19067	1086
2.19433	1061
2.19800	1038
2.20167	1018
2.20533	999
2.20900	979
2.21267	961
2.21633	936
2.22000	918
2.22367	898
2.22733	879
2.23100	862
2.23467	850
2.23833	837
2.24200	823
2.24567	805
2.24933	783
2.25300	758
2.25667	737
2.26033	717
2.26400	699
2.26767	685
2.27133	673
2.27500	664
2.27867	657
2.28233	650
2.28600	645
2.28967	639
2.29333	632
2.29700	627
2.30067	623
2.30433	618
2.30800	613
2.31167	604
2.31533	593
2.31900	581
2.32267	567
2.32633	552
2.33000	536
2.33367	522
2.33733	511
2.34100	504
2.34467	499
2.34833	494
2.35200	490
2.35567	484
2.35933	481
2.36300	484
2.36667	485
2.37033	479
2.37400	468
2.37767	457
2.38133	450
2.38500	446
2.38867	446
2.39233	449
2.39600	451
2.39967	449
2.40333	446
2.40700	444
2.41067	442
2.41433	445
2.41800	449
2.42167	452
2.42533	452
2.42900	447
2.43267	439
2.43633	430
2.44000	418
2.44367	405
2.44733	391
2.45100	381
2.45467	376
2.45833	369
2.46200	363
2.46567	362
2.46933	363
2.47300	364
2.47667	365
2.48033	369
2.48400	375
2.48767	377
2.49133	375
2.49500	371
2.49867	369
2.50233	370
2.50600	371
2.50967	366
2.51333	361
2.51700	354
2.52067	351
2.52433	349
2.52800	346
2.53167	344
2.53533	342
2.53900	341
2.54267	343
2.54633	348
2.55000	349
2.55367	347
2.55733	343
2.56100	338
2.56467	332
2.56833	325
2.57200	320
2.57567	321
2.57933	326
2.58300	329
2.58667	326
2.59033	325
2.59400	324
2.59767	322
2.60133	320
2.60500	319
2.60867	316
2.61233	313
2.61600	316
2.61967	322
2.62333	326
2.62700	330
2.63067	333
2.63433	340
2.63800	345
2.64167	347
2.64533	344
2.64900	340
2.65267	336
2.65633	329
2.66000	319
2.66367	307
2.66733	303
2.67100	302
2.67467	303
2.67833	302
2.68200	304
2.68567	304
2.68933	302
2.69300	299
2.69667	292
2.70033	282
2.70400	276
2.70767	276
2.71133	283
2.71500	295
2.71867	304
2.72233	313
2.72600	319
2.72967	322
2.73333	320
2.73700	317
2.74067	309
2.74433	304
2.74800	304
2.75167	305
2.75533	304
2.75900	305
2.76267	308
2.76633	310
2.77000	313
2.77367	318
2.77733	322
2.78100	323
2.78467	321
2.78833	320
2.79200	321
2.79567	322
2.79933	320
2.80300	315
2.80667	311
2.81033	306
2.81400	299
2.81767	290
2.82133	284
2.82500	285
2.82867	293
2.83233	306
2.83600	320
2.83967	327
2.84333	323
2.84700	315
2.85067	307
2.85433	306
2.85800	313
2.86167	322
2.86533	328
2.86900	329
2.87267	329
2.87633	332
2.88000	333
2.88367	331
2.88733	327
2.89100	322
2.89467	322
2.89833	320
2.90200	313
2.90567	309
2.90933	307
2.91300	307
2.91667	313
2.92033	322
2.92400	329
2.92767	330
2.93133	326
2.93500	321
2.93867	320
2.94233	322
2.94600	322
2.94967	322
2.95333	320
2.95700	317
2.96067	318
2.96433	319
2.96800	323
2.97167	327
2.97533	333
2.97900	338
2.98267	340
2.98633	338
2.99000	334
2.99367	331
2.99733	333
3.00100	336
3.00467	336
3.00833	330
3.01200	321
3.01567	315
3.01933	313
3.02300	313
3.02667	314
3.03033	319
3.03400	327
3.03767	334
3.04133	338
3.04500	338
3.04867	337
3.05233	333
3.05600	325
3.05967	312
3.06333	302
3.06700	295
3.07067	293
3.07433	296
3.07800	304
3.08167	312
3.08533	314
3.08900	314
3.09267	316
3.09633	322
3.10000	322
3.10367	317
3.10733	313
3.11100	310
3.11467	309
3.11833	308
3.12200	311
3.12567	320
3.12933	330
3.13300	330
3.13667	321
3.14033	306
3.14400	291
3.14767	284
3.15133	280
3.15500	281
3.15867	289
3.16233	302
3.16600	310
3.16967	310
3.17333	305
3.17700	306
3.18067	312
3.18433	320
3.18800	324
3.19167	324
3.19533	325
3.19900	331
3.20267	337
3.20633	333
3.21000	325
3.21367	320
3.21733	318
3.22100	317
3.22467	312
3.22833	305
3.23200	303
3.23567	304
3.23933	305
3.24300	303
3.24667	301
3.25033	301
3.25400	303
3.25767	308
3.26133	314
3.26500	319
3.26867	320
3.27233	313
3.27600	302
3.27967	291
3.28333	283
3.28700	278
3.29067	276
3.29433	274
3.29800	277
3.30167	283
3.30533	285
3.30900	287
3.31267	292
3.31633	298
3.32000	304
3.32367	302
3.32733	294
3.33100	287
3.33467	283
3.33833	284
3.34200	290
3.34567	297
3.34933	302
3.35300	303
3.35667	300
3.36033	296
3.36400	296
3.36767	299
3.37133	304
3.37500	308
3.37867	307
3.38233	305
3.38600	304
3.38967	304
3.39333	303
3.39700	298
3.40067	291
3.40433	289
3.40800	289
3.41167	291
3.41533	296
3.41900	298
3.42267	295
3.42633	296
3.43000	298
3.43367	298
3.43733	296
3.44100	293
3.44467	287
3.44833	285
3.45200	285
3.45567	288
3.45933	292
3.46300	296
3.46667	301
3.47033	304
3.47400	303
3.47767	302
3.48133	302
3.48500	303
3.48867	304
3.49233	303
3.49600	297
3.49967	288
3.50333	278
3.50700	268
3.51067	257
3.51433	249
3.51800	246
3.52167	250
3.52533	257
3.52900	261
3.53267	259
3.53633	254
3.54000	246
3.54367	241
3.54733	241
3.55100	244
3.55467	245
3.55833	249
3.56200	252
3.56567	255
3.56933	255
3.57300	255
3.57667	257
3.58033	258
3.58400	254
3.58767	249
3.59133	250
3.59500	256
3.59867	262
3.60233	262
3.60600	262
3.60967	262
3.61333	265
3.61700	268
3.62067	267
3.62433	261
3.62800	255
3.63167	257
3.63533	262
3.63900	265
3.64267	262
3.64633	254
3.65000	244
3.65367	240
3.65733	236
3.66100	235
3.66467	235
3.66833	237
3.67200	239
3.67567	239
3.67933	236
3.68300	230
3.68667	227
3.69033	227
3.69400	228
3.69767	233
3.70133	241
3.70500	246
3.70867	250
3.71233	249
3.71600	247
3.71967	241
3.72333	233
3.72700	230
3.73067	227
3.73433	227
3.73800	229
3.74167	231
3.74533	232
3.74900	233
3.75267	233
3.75633	234
3.76000	238
3.76367	235
3.76733	227
3.77100	222
3.77467	217
3.77833	212
3.78200	210
3.78567	210
3.78933	211
3.79300	215
3.79667	217
3.80033	217
3.80400	217
3.80767	221
3.81133	226
3.81500	232
3.81867	235
3.82233	232
3.82600	222
3.82967	214
3.83333	209
3.83700	206
3.84067	201
3.84433	196
3.84800	191
3.85167	191
3.85533	195
3.85900	198
3.86267	199
3.86633	199
3.87000	197
3.87367	198
3.87733	207
3.88100	219
3.88467	225
3.88833	224
3.89200	217
3.89567	206
3.89933	199
3.90300	198
3.90667	196
3.91033	193
3.91400	189
3.91767	187
3.92133	187
3.92500	192
3.92867	202
3.93233	210
3.93600	211
3.93967	206
3.94333	198
3.94700	190
3.95067	184
3.95433	183
3.95800	185
3.96167	188
3.96533	190
3.96900	193
3.97267	196
3.97633	202
3.98000	208
3.98367	212
3.98733	214
3.99100	211
3.99467	203
3.99833	195

[Chromatogram (Ch2)]
Interval(msec)	220
# of Points	1091
Start Time(min)	0.002
End Time(min)	3.998
R.Time (min)	Intensity
0.00167	-1
0.00533	-1
0.00900	-0
0.01267	0
0.01633	0
0.02000	0
0.02367	0
0.02733	0
0.03100	0
0.03467	0
0.03833	1
0.04200	1
0.04567	1
0.04933	1
0.05300	1
0.05667	1
0.06033	1
0.06400	0
0.06767	0
0.07133	0
0.07500	0
0.07867	0
0.08233	1
0.08600	1
0.08967	1
0.09333	1
0.09700	2
0.10067	2
0.10433	2
0.10800	3
0.11167	3
0.11533	3
0.11900	3
0.12267	3
0.12633	3
0.13000	3
0.13367	3
0.13733	2
0.14100	2
0.14467	2
0.14833	2
0.15200	2
0.15567	2
0.15933	2
0.16300	2
0.16667	2
0.17033	2
0.17400	2
0.17767	2
0.18133	2
0.18500	2
0.18867	2
0.19233	2
0.19600	1
0.19967	1
0.20333	1
0.20700	0
0.21067	0
0.21433	0
0.21800	0
0.22167	0
0.22533	1
0.22900	1
0.23267	2
0.23633	2
0.24000	2
0.24367	3
0.24733	3
0.25100	4
0.25467	4
0.25833	5
0.26200	5
0.26567	5
0.26933	5
0.27300	5
0.27667	4
0.28033	4
0.28400	4
0.28767	4
0.29133	3
0.29500	3
0.29867	3
0.30233	3
0.30600	3
0.30967	3
0.31333	3
0.31700	3
0.32067	3
0.32433	2
0.32800	2
0.33167	1
0.33533	1
0.33900	1
0.34267	1
0.34633	0
0.35000	0
0.35367	-0
0.35733	-1
0.36100	-1
0.36467	-2
0.36833	-2
0.37200	-2
0.37567	-2
0.37933	-2
0.38300	-2
0.38667	-2
0.39033	-2
0.39400	-1
0.39767	-1
0.40133	-1
0.40500	-0
0.40867	-0
0.41233	0
0.41600	1
0.41967	1
0.42333	2
0.42700	3
0.43067	3
0.43433	3
0.43800	3
0.44167	3
0.44533	3
0.44900	3
0.45267	3
0.45633	3
0.46000	3
0.46367	3
0.46733	3
0.47100	3
0.47467	3
0.47833	3
0.48200	3
0.48567	3
0.48933	4
0.49300	4
0.49667	4
0.50033	4
0.50400	4
0.50767	3
0.51133	3
0.51500	3
0.51867	3
0.52233	3
0.52600	3
0.52967	2
0.53333	2
0.53700	2
0.54067	2
0.54433	2
0.54800	1
0.55167	1
0.55533	0
0.55900	0
0.56267	-0
0.56633	-0
0.57000	-0
0.57367	-1
0.57733	-1
0.58100	-1
0.58467	-1
0.58833	-0
0.59200	-0
0.59567	-0
0.59933	0
0.60300	-0
0.60667	-0
0.61033	0
0.61400	0
0.61767	0
0.62133	0
0.62500	1
0.62867	1
0.63233	1
0.63600	2
0.63967	2
0.64333	2
0.64700	2
0.65067	2
0.65433	2
0.65800	2
0.66167	2
0.66533	2
0.66900	2
0.67267	1
0.67633	1
0.68000	0
0.68367	0
0.68733	0
0.69100	0
0.69467	-0
0.69833	-0
0.70200	-0
0.70567	-0
0.70933	-0
0.71300	-0
0.71667	-0
0.72033	-0
0.72400	-0
0.72767	-0
0.73133	0
0.73500	0
0.73867	1
0.74233	1
0.74600	1
0.74967	1
0.75333	1
0.75700	2
0.76067	2
0.76433	2
0.76800	2
0.77167	2
0.77533	3
0.77900	3
0.78267	3
0.78633	2
0.79000	2
0.79367	2
0.79733	2
0.80100	2
0.80467	2
0.80833	2
0.81200	2
0.81567	2
0.81933	2
0.82300	1
0.82667	1
0.83033	1
0.83400	0
0.83767	0
0.84133	0
0.84500	0
0.84867	0
0.85233	0
0.85600	0
0.85967	0
0.86333	0
0.86700	0
0.87067	-0
0.87433	-0
0.87800	-0
0.88167	-0
0.88533	-1
0.88900	-1
0.89267	-2
0.89633	-2
0.90000	-3
0.90367	-3
0.90733	-3
0.91100	-3
0.91467	-3
0.91833	-3
0.92200	-3
0.92567	-3
0.92933	-3
0.93300	-2
0.93667	-2
0.94033	-2
0.94400	-1
0.94767	-1
0.95133	-1
0.95500	-1
0.95867	-1
0.96233	-1
0.96600	-1
0.96967	-1
0.97333	-1
0.97700	-1
0.98067	-1
0.98433	-1
0.98800	-1
0.99167	-1
0.99533	-1
0.99900	-0
1.00267	-0
1.00633	-0
1.01000	-0
1.01367	0
1.01733	0
1.02100	0
1.02467	1
1.02833	1
1.03200	1
1.03567	1
1.03933	1
1.04300	1
1.04667	1
1.05033	1
1.05400	1
1.05767	0
1.06133	0
1.06500	0
1.06867	0
1.07233	0
1.07600	-0
1.07967	-0
1.08333	-0
1.08700	-0
1.09067	-1
1.09433	-1
1.09800	-1
1.10167	-1
1.10533	-1
1.10900	-2
1.11267	-2
1.11633	-2
1.12000	-2
1.12367	-2
1.12733	-1
1.13100	-1
1.13467	-0
1.13833	-0
1.14200	0
1.14567	0
1.14933	0
1.15300	0
1.15667	0
1.16033	0
1.16400	-0
1.16767	-0
1.17133	-0
1.17500	-0
1.17867	-1
1.18233	-1
1.18600	-2
1.18967	-3
1.19333	-3
1.19700	-4
1.20067	-4
1.20433	-4
1.20800	-5
1.21167	-5
1.21533	-4
1.21900	-4
1.22267	-4
1.22633	-4
1.23000	-4
1.23367	-4
1.23733	-4
1.24100	-4
1.24467	-3
1.24833	-3
1.25200	-2
1.25567	-2
1.25933	-2
1.26300	-2
1.26667	-1
1.27033	-1
1.27400	-1
1.27767	-1
1.28133	-1
1.28500	-1
1.28867	-1
1.29233	-1
1.29600	-1
1.29967	-1
1.30333	-1
1.30700	-1
1.31067	-1
1.31433	-1
1.31800	-1
1.32167	-1
1.32533	-1
1.32900	-1
1.33267	-0
1.33633	-0
1.34000	0
1.34367	0
1.34733	0
1.35100	1
1.35467	1
1.35833	1
1.36200	2
1.36567	2
1.36933	2
1.37300	2
1.37667	2
1.38033	2
1.38400	2
1.38767	2
1.39133	2
1.39500	2
1.39867	3
1.40233	2
1.40600	2
1.40967	2
1.41333	2
1.41700	2
1.42067	1
1.42433	1
1.42800	1
1.43167	1
1.43533	1
1.43900	0
1.44267	0
1.44633	0
1.45000	0
1.45367	0
1.45733	0
1.46100	-0
1.46467	-0
1.46833	-1
1.47200	-1
1.47567	-2
1.47933	-2
1.48300	-3
1.48667	-3
1.49033	-4
1.49400	-4
1.49767	-5
1.50133	-5
1.50500	-5
1.50867	-5
1.51233	-5
1.51600	-4
1.51967	-4
1.52333	-4
1.52700	-3
1.53067	-3
1.53433	-3
1.53800	-3
1.54167	-3
1.54533	-3
1.54900	-3
1.55267	-3
1.55633	-2
1.56000	-2
1.56367	-2
1.56733	-2
1.57100	-2
1.57467	-2
1.57833	-2
1.58200	-2
1.58567	-2
1.58933	-2
1.59300	-3
1.59667	-3
1.60033	-4
1.60400	-4
1.60767	-5
1.61133	-7
1.61500	-8
1.61867	-10
1.62233	-13
1.62600	-15
1.62967	-18
1.63333	-22
1.63700	-25
1.64067	-29
1.64433	-32
1.64800	-36
1.65167	-39
1.65533	-43
1.65900	-47
1.66267	-51
1.66633	-55
1.67000	-60
1.67367	-65
1.67733	-70
1.68100	-76
1.68467	-81
1.68833	-86
1.69200	-91
1.69567	-95
1.69933	-99
1.70300	-102
1.70667	-104
1.71033	-106
1.71400	-108
1.71767	-110
1.72133	-111
1.72500	-111
1.72867	-112
1.73233	-112
1.73600	-112
1.73967	-112
1.74333	-111
1.74700	-110
1.75067	-110
1.75433	-109
1.75800	-108
1.76167	-107
1.76533	-107
1.76900	-108
1.77267	-108
1.77633	-109
1.78000	-110
1.78367	-110
1.78733	-111
1.79100	-112
1.79467	-113
1.79833	-113
1.80200	-114
1.80567	-115
1.80933	-116
1.81300	-117
1.81667	-117
1.82033	-117
1.82400	-117
1.82767	-117
1.83133	-117
1.83500	-117
1.83867	-117
1.84233	-117
1.84600	-118
1.84967	-118
1.85333	-118
1.85700	-118
1.86067	-117
1.86433	-117
1.86800	-117
1.87167	-116
1.87533	-116
1.87900	-115
1.88267	-115
1.88633	-115
1.89000	-115
1.89367	-115
1.89733	-116
1.90100	-116
1.90467	-116
1.90833	-116
1.91200	-116
1.91567	-116
1.91933	-116
1.92300	-115
1.92667	-115
1.93033	-114
1.93400	-113
1.93767	-113
1.94133	-112
1.94500	-112
1.94867	-112
1.95233	-112
1.95600	-112
1.95967	-111
1.96333	-111
1.96700	-110
1.97067	-110
1.97433	-110
1.97800	-110
1.98167	-110
1.98533	-110
1.98900	-110
1.99267	-109
1.99633	-109
2.00000	-109
2.00367	-108
2.00733	-108
2.01100	-107
2.01467	-107
2.01833	-106
2.02200	-106
2.02567	-105
2.02933	-105
2.03300	-105
2.03667	-105
2.04033	-104
2.04400	-104
2.04767	-103
2.05133	-103
2.05500	-102
2.05867	-101
2.06233	-101
2.06600	-101
2.06967	-101
2.07333	-101
2.07700	-101
2.08067	-101
2.08433	-101
2.08800	-102
2.09167	-102
2.09533	-102
2.09900	-102
2.10267	-101
2.10633	-100
2.11000	-99
2.11367	-99
2.11733	-99
2.12100	-99
2.12467	-98
2.12833	-98
2.13200	-98
2.13567	-98
2.13933	-98
2.14300	-97
2.14667	-97
2.15033	-97
2.15400	-96
2.15767	-96
2.16133	-95
2.16500	-94
2.16867	-93
2.17233	-93
2.17600	-92
2.17967	-92
2.18333	-92
2.18700	-91
2.19067	-91
2.19433	-90
2.19800	-90
2.20167	-90
2.20533	-89
2.20900	-89
2.21267	-89
2.21633	-88
2.22000	-88
2.22367	-87
2.22733	-87
2.23100	-87
2.23467	-86
2.23833	-86
2.24200	-86
2.24567	-86
2.24933	-86
2.25300	-86
2.25667	-86
2.26033	-86
2.26400	-86
2.26767	-86
2.27133	-86
2.27500	-86
2.27867	-85
2.28233	-84
2.28600	-83
2.28967	-83
2.29333	-83
2.29700	-83
2.30067	-83
2.30433	-83
2.30800	-83
2.31167	-83
2.31533	-83
2.31900	-83
2.32267	-82
2.32633	-81
2.33000	-80
2.33367	-79
2.33733	-78
2.34100	-77
2.34467	-77
2.34833	-77
2.35200	-77
2.35567	-77
2.35933	-76
2.36300	-76
2.36667	-75
2.37033	-74
2.37400	-72
2.37767	-69
2.38133	-66
2.38500	-63
2.38867	-59
2.39233	-55
2.39600	-50
2.39967	-46
2.40333	-41
2.40700	-37
2.41067	-33
2.41433	-29
2.41800	-26
2.42167	-23
2.42533	-20
2.42900	-18
2.43267	-16
2.43633	-14
2.44000	-13
2.44367	-12
2.44733	-10
2.45100	-9
2.45467	-7
2.45833	-5
2.46200	-4
2.46567	-2
2.46933	-1
2.47300	0
2.47667	2
2.48033	3
2.48400	5
2.48767	6
2.49133	6
2.49500	7
2.49867	7
2.50233	7
2.50600	8
2.50967	9
2.51333	10
2.51700	11
2.52067	11
2.52433	12
2.52800	13
2.53167	13
2.53533	13
2.53900	13
2.54267	14
2.54633	14
2.55000	14
2.55367	14
2.55733	14
2.56100	14
2.56467	15
2.56833	15
2.57200	16
2.57567	16
2.57933	17
2.58300	17
2.58667	17
2.59033	17
2.59400	17
2.59767	17
2.60133	18
2.60500	18
2.60867	18
2.61233	18
2.61600	18
2.61967	18
2.62333	18
2.62700	19
2.63067	19
2.63433	19
2.63800	19
2.64167	20
2.64533	20
2.64900	20
2.65267	21
2.65633	21
2.66000	21
2.66367	21
2.66733	21
2.67100	21
2.67467	21
2.67833	21
2.68200	22
2.68567	22
2.68933	23
2.69300	23
2.69667	24
2.70033	25
2.70400	25
2.70767	26
2.71133	25
2.71500	25
2.71867	25
2.72233	25
2.72600	24
2.72967	24
2.73333	24
2.73700	24
2.74067	25
2.74433	25
2.74800	26
2.75167	26
2.75533	27
2.75900	27
2.76267	28
2.76633	28
2.77000	29
2.77367	29
2.77733	29
2.78100	29
2.78467	29
2.78833	29
2.79200	28
2.79567	27
2.79933	27
2.80300	26
2.80667	25
2.81033	24
2.81400	24
2.81767	23
2.82133	23
2.82500	23
2.82867	23
2.83233	23
2.83600	22
2.83967	21
2.84333	18
2.84700	13
2.85067	6
2.85433	-4
2.85800	-18
2.86167	-36
2.86533	-58
2.86900	-85
2.87267	-116
2.87633	-151
2.88000	-189
2.88367	-231
2.88733	-277
2.89100	-325
2.89467	-375
2.89833	-427
2.90200	-480
2.90567	-534
2.90933	-588
2.91300	-642
2.91667	-696
2.92033	-748
2.92400	-800
2.92767	-851
2.93133	-904
2.93500	-961
2.93867	-1020
2.94233	-1070
2.94600	-1101
2.94967	-1108
2.95333	-1088
2.95700	-1045
2.96067	-985
2.96433	-913
2.96800	-834
2.97167	-753
2.97533	-673
2.97900	-596
2.98267	-524
2.98633	-458
2.99000	-397
2.99367	-343
2.99733	-295
3.00100	-253
3.00467	-216
3.00833	-183
3.01200	-155
3.01567	-131
3.01933	-110
3.02300	-92
3.02667	-77
3.03033	-63
3.03400	-52
3.03767	-42
3.04133	-34
3.04500	-27
3.04867	-20
3.05233	-15
3.05600	-10
3.05967	-6
3.06333	-3
3.06700	0
3.07067	3
3.07433	5
3.07800	6
3.08167	8
3.08533	9
3.08900	11
3.09267	12
3.09633	13
3.10000	14
3.10367	14
3.10733	15
3.11100	15
3.11467	15
3.11833	16
3.12200	16
3.12567	16
3.12933	17
3.13300	17
3.13667	18
3.14033	18
3.14400	19
3.14767	19
3.15133	19
3.15500	19
3.15867	19
3.16233	20
3.16600	20
3.16967	20
3.17333	20
3.17700	20
3.18067	20
3.18433	20
3.18800	20
3.19167	21
3.19533	21
3.19900	21
3.20267	22
3.20633	22
3.21000	23
3.21367	23
3.21733	23
3.22100	23
3.22467	24
3.22833	24
3.23200	24
3.23567	24
3.23933	24
3.24300	24
3.24667	24
3.25033	24
3.25400	24
3.25767	24
3.26133	24
3.26500	24
3.26867	24
3.27233	24
3.27600	24
3.27967	24
3.28333	24
3.28700	25
3.29067	25
3.29433	25
3.29800	25
3.30167	25
3.30533	26
3.30900	26
3.31267	26
3.31633	26
3.32000	26
3.32367	26
3.32733	26
3.33100	26
3.33467	26
3.33833	25
3.34200	25
3.34567	25
3.34933	25
3.35300	25
3.35667	25
3.36033	25
3.36400	25
3.36767	25
3.37133	25
3.37500	25
3.37867	26
3.38233	26
3.38600	26
3.38967	27
3.39333	27
3.39700	27
3.40067	27
3.40433	28
3.40800	28
3.41167	28
3.41533	29
3.41900	29
3.42267	30
3.42633	30
3.43000	31
3.43367	31
3.43733	31
3.44100	31
3.44467	31
3.44833	31
3.45200	31
3.45567	31
3.45933	31
3.46300	31
3.46667	31
3.47033	31
3.47400	30
3.47767	30
3.48133	30
3.48500	30
3.48867	29
3.49233	29
3.49600	29
3.49967	29
3.50333	29
3.50700	29
3.51067	29
3.51433	29
3.51800	29
3.52167	29
3.52533	29
3.52900	29
3.53267	29
3.53633	29
3.54000	28
3.54367	28
3.54733	28
3.55100	28
3.55467	29
3.55833	29
3.56200	29
3.56567	29
3.56933	29
3.57300	29
3.57667	29
3.58033	29
3.58400	29
3.58767	29
3.59133	29
3.59500	29
3.59867	29
3.60233	29
3.60600	29
3.60967	29
3.61333	29
3.61700	29
3.62067	29
3.62433	29
3.62800	29
3.63167	29
3.63533	30
3.63900	30
3.64267	30
3.64633	29
3.65000	29
3.65367	28
3.65733	28
3.66100	28
3.66467	28
3.66833	28
3.67200	27
3.67567	27
3.67933	27
3.68300	27
3.68667	27
3.69033	27
3.69400	27
3.69767	27
3.70133	26
3.70500	26
3.70867	26
3.71233	26
3.71600	26
3.71967	26
3.72333	26
3.72700	26
3.73067	26
3.73433	26
3.73800	27
3.74167	27
3.74533	27
3.74900	28
3.75267	28
3.75633	28
3.76000	28
3.76367	28
3.76733	28
3.77100	28
3.77467	27
3.77833	27
3.78200	27
3.78567	27
3.78933	27
3.79300	27
3.79667	27
3.80033	28
3.80400	28
3.80767	28
3.81133	28
3.81500	28
3.81867	28
3.82233	28
3.82600	28
3.82967	28
3.83333	28
3.83700	28
3.84067	28
3.84433	28
3.84800	28
3.85167	28
3.85533	27
3.85900	27
3.86267	27
3.86633	26
3.87000	26
3.87367	26
3.87733	26
3.88100	26
3.88467	26
3.88833	26
3.89200	26
3.89567	26
3.89933	26
3.90300	26
3.90667	26
3.91033	26
3.91400	26
3.91767	26
3.92133	26
3.92500	26
3.92867	26
3.93233	26
3.93600	26
3.93967	26
3.94333	26
3.94700	26
3.95067	26
3.95433	26
3.95800	26
3.96167	26
3.96533	26
3.96900	26
3.97267	26
3.97633	26
3.98000	26
3.98367	26
3.98733	26
3.99100	26
3.99467	27
3.99833	27

[Chromatogram (Ch3)]
Interval(msec)	220
# of Points	1091
Start Time(min)	0.002
End Time(min)	3.998
R.Time (min)	Intensity
0.00167	-0
0.00533	-1
0.00900	-5
0.01267	-7
0.01633	-9
0.02000	-9
0.02367	-10
0.02733	-11
0.03100	-10
0.03467	-8
0.03833	-6
0.04200	-6
0.04567	-7
0.04933	-6
0.05300	-6
0.05667	-7
0.06033	-8
0.06400	-8
0.06767	-8
0.07133	-9
0.07500	-9
0.07867	-8
0.08233	-8
0.08600	-6
0.08967	-7
0.09333	-7
0.09700	-6
0.10067	-5
0.10433	-5
0.10800	-6
0.11167	-6
0.11533	-4
0.11900	-2
0.12267	-1
0.12633	-2
0.13000	-2
0.13367	-4
0.13733	-2
0.14100	-1
0.14467	-1
0.14833	0
0.15200	-0
0.15567	-3
0.15933	-6
0.16300	-5
0.16667	-4
0.17033	-6
0.17400	-7
0.17767	-6
0.18133	-4
0.18500	-1
0.18867	-0
0.19233	-1
0.19600	-1
0.19967	-2
0.20333	-4
0.20700	-6
0.21067	-8
0.21433	-8
0.21800	-8
0.22167	-8
0.22533	-7
0.22900	-6
0.23267	-6
0.23633	-6
0.24000	-7
0.24367	-8
0.24733	-9
0.25100	-8
0.25467	-7
0.25833	-7
0.26200	-7
0.26567	-6
0.26933	-7
0.27300	-6
0.27667	-6
0.28033	-4
0.28400	-4
0.28767	-3
0.29133	-0
0.29500	-2
0.29867	-5
0.30233	-6
0.30600	-8
0.30967	-10
0.31333	-10
0.31700	-9
0.32067	-5
0.32433	-3
0.32800	-2
0.33167	-3
0.33533	-3
0.33900	-3
0.34267	-3
0.34633	-2
0.35000	-1
0.35367	-3
0.35733	-5
0.36100	-6
0.36467	-6
0.36833	-5
0.37200	-5
0.37567	-3
0.37933	-2
0.38300	-2
0.38667	-4
0.39033	-5
0.39400	-6
0.39767	-9
0.40133	-9
0.40500	-6
0.40867	-6
0.41233	-6
0.41600	-7
0.41967	-6
0.42333	-7
0.42700	-9
0.43067	-10
0.43433	-10
0.43800	-8
0.44167	-6
0.44533	-5
0.44900	-7
0.45267	-10
0.45633	-10
0.46000	-10
0.46367	-11
0.46733	-11
0.47100	-11
0.47467	-10
0.47833	-9
0.48200	-8
0.48567	-8
0.48933	-6
0.49300	-5
0.49667	-3
0.50033	-1
0.50400	-0
0.50767	0
0.51133	1
0.51500	2
0.51867	2
0.52233	1
0.52600	-0
0.52967	-0
0.53333	-0
0.53700	2
0.54067	2
0.54433	2
0.54800	3
0.55167	4
0.55533	4
0.55900	3
0.56267	1
0.56633	-2
0.57000	-2
0.57367	-1
0.57733	-0
0.58100	1
0.58467	2
0.58833	3
0.59200	2
0.59567	3
0.59933	5
0.60300	4
0.60667	2
0.61033	2
0.61400	2
0.61767	1
0.62133	1
0.62500	2
0.62867	3
0.63233	1
0.63600	-0
0.63967	-1
0.64333	-2
0.64700	-1
0.65067	-2
0.65433	-1
0.65800	-0
0.66167	-2
0.66533	-4
0.66900	-2
0.67267	-1
0.67633	-0
0.68000	1
0.68367	3
0.68733	4
0.69100	2
0.69467	2
0.69833	3
0.70200	4
0.70567	5
0.70933	4
0.71300	4
0.71667	3
0.72033	1
0.72400	1
0.72767	1
0.73133	2
0.73500	2
0.73867	1
0.74233	2
0.74600	3
0.74967	5
0.75333	5
0.75700	7
0.76067	8
0.76433	7
0.76800	4
0.77167	2
0.77533	1
0.77900	3
0.78267	1
0.78633	1
0.79000	3
0.79367	5
0.79733	4
0.80100	3
0.80467	4
0.80833	4
0.81200	3
0.81567	4
0.81933	3
0.82300	-0
0.82667	-2
0.83033	-1
0.83400	2
0.83767	3
0.84133	4
0.84500	4
0.84867	-0
0.85233	-2
0.85600	-1
0.85967	-0
0.86333	-0
0.86700	3
0.87067	4
0.87433	3
0.87800	3
0.88167	3
0.88533	2
0.88900	1
0.89267	2
0.89633	3
0.90000	4
0.90367	4
0.90733	6
0.91100	9
0.91467	10
0.91833	9
0.92200	8
0.92567	7
0.92933	7
0.93300	5
0.93667	4
0.94033	2
0.94400	1
0.94767	2
0.95133	0
0.95500	-1
0.95867	-0
0.96233	1
0.96600	-2
0.96967	-3
0.97333	-4
0.97700	-5
0.98067	-7
0.98433	-5
0.98800	-0
0.99167	4
0.99533	5
0.99900	5
1.00267	5
1.00633	4
1.01000	4
1.01367	5
1.01733	6
1.02100	6
1.02467	6
1.02833	5
1.03200	2
1.03567	2
1.03933	3
1.04300	3
1.04667	2
1.05033	3
1.05400	5
1.05767	6
1.06133	4
1.06500	3
1.06867	2
1.07233	4
1.07600	6
1.07967	8
1.08333	8
1.08700	9
1.09067	8
1.09433	4
1.09800	3
1.10167	2
1.10533	3
1.10900	4
1.11267	4
1.11633	6
1.12000	8
1.12367	8
1.12733	9
1.13100	9
1.13467	9
1.13833	6
1.14200	4
1.14567	3
1.14933	5
1.15300	6
1.15667	6
1.16033	8
1.16400	6
1.16767	4
1.17133	4
1.17500	5
1.17867	6
1.18233	6
1.18600	7
1.18967	9
1.19333	9
1.19700	8
1.20067	6
1.20433	4
1.20800	4
1.21167	5
1.21533	6
1.21900	8
1.22267	9
1.22633	7
1.23000	8
1.23367	8
1.23733	5
1.24100	3
1.24467	5
1.24833	7
1.25200	6
1.25567	5
1.25933	6
1.26300	6
1.26667	7
1.27033	8
1.27400	8
1.27767	8
1.28133	7
1.28500	8
1.28867	9
1.29233	9
1.29600	8
1.29967	7
1.30333	4
1.30700	4
1.31067	6
1.31433	9
1.31800	10
1.32167	9
1.32533	11
1.32900	11
1.33267	12
1.33633	11
1.34000	10
1.34367	7
1.34733	7
1.35100	7
1.35467	7
1.35833	6
1.36200	4
1.36567	3
1.36933	5
1.37300	9
1.37667	11
1.38033	13
1.38400	15
1.38767	16
1.39133	17
1.39500	15
1.39867	14
1.40233	12
1.40600	12
1.40967	14
1.41333	17
1.41700	18
1.42067	17
1.42433	16
1.42800	12
1.43167	9
1.43533	8
1.43900	8
1.44267	8
1.44633	8
1.45000	6
1.45367	7
1.45733	10
1.46100	10
1.46467	10
1.46833	10
1.47200	9
1.47567	7
1.47933	7
1.48300	9
1.48667	11
1.49033	13
1.49400	15
1.49767	14
1.50133	15
1.50500	17
1.50867	21
1.51233	21
1.51600	21
1.51967	18
1.52333	16
1.52700	14
1.53067	13
1.53433	13
1.53800	14
1.54167	14
1.54533	16
1.54900	16
1.55267	14
1.55633	14
1.56000	14
1.56367	14
1.56733	14
1.57100	15
1.57467	16
1.57833	19
1.58200	19
1.58567	19
1.58933	19
1.59300	19
1.59667	19
1.60033	19
1.60400	20
1.60767	20
1.61133	21
1.61500	22
1.61867	23
1.62233	25
1.62600	24
1.62967	22
1.63333	20
1.63700	18
1.64067	18
1.64433	19
1.64800	19
1.65167	18
1.65533	17
1.65900	16
1.66267	17
1.66633	19
1.67000	19
1.67367	19
1.67733	20
1.68100	22
1.68467	23
1.68833	24
1.69200	24
1.69567	26
1.69933	28
1.70300	29
1.70667	30
1.71033	29
1.71400	29
1.71767	29
1.72133	29
1.72500	29
1.72867	28
1.73233	28
1.73600	28
1.73967	28
1.74333	29
1.74700	29
1.75067	31
1.75433	33
1.75800	33
1.76167	33
1.76533	35
1.76900	36
1.77267	37
1.77633	38
1.78000	40
1.78367	39
1.78733	39
1.79100	39
1.79467	39
1.79833	39
1.80200	40
1.80567	41
1.80933	42
1.81300	41
1.81667	40
1.82033	39
1.82400	38
1.82767	40
1.83133	42
1.83500	44
1.83867	44
1.84233	45
1.84600	46
1.84967	47
1.85333	47
1.85700	46
1.86067	45
1.86433	46
1.86800	47
1.87167	45
1.87533	45
1.87900	45
1.88267	45
1.88633	45
1.89000	46
1.89367	46
1.89733	45
1.90100	44
1.90467	45
1.90833	48
1.91200	51
1.91567	52
1.91933	55
1.92300	56
1.92667	55
1.93033	55
1.93400	56
1.93767	59
1.94133	61
1.94500	60
1.94867	58
1.95233	57
1.95600	57
1.95967	56
1.96333	57
1.96700	57
1.97067	60
1.97433	64
1.97800	68
1.98167	67
1.98533	62
1.98900	61
1.99267	63
1.99633	65
2.00000	66
2.00367	67
2.00733	68
2.01100	70
2.01467	72
2.01833	74
2.02200	76
2.02567	77
2.02933	77
2.03300	75
2.03667	73
2.04033	73
2.04400	72
2.04767	72
2.05133	73
2.05500	74
2.05867	77
2.06233	80
2.06600	80
2.06967	82
2.07333	84
2.07700	87
2.08067	88
2.08433	89
2.08800	87
2.09167	86
2.09533	86
2.09900	87
2.10267	88
2.10633	88
2.11000	89
2.11367	91
2.11733	93
2.12100	94
2.12467	96
2.12833	98
2.13200	100
2.13567	99
2.13933	100
2.14300	101
2.14667	100
2.15033	99
2.15400	101
2.15767	101
2.16133	101
2.16500	103
2.16867	104
2.17233	105
2.17600	105
2.17967	106
2.18333	107
2.18700	109
2.19067	111
2.19433	112
2.19800	114
2.20167	117
2.20533	120
2.20900	123
2.21267	127
2.21633	129
2.22000	129
2.22367	131
2.22733	134
2.23100	135
2.23467	134
2.23833	132
2.24200	134
2.24567	135
2.24933	134
2.25300	134
2.25667	136
2.26033	140
2.26400	141
2.26767	143
2.27133	142
2.27500	143
2.27867	145
2.28233	148
2.28600	150
2.28967	154
2.29333	157
2.29700	159
2.30067	161
2.30433	164
2.30800	164
2.31167	162
2.31533	163
2.31900	165
2.32267	167
2.32633	168
2.33000	168
2.33367	168
2.33733	169
2.34100	170
2.34467	170
2.34833	171
2.35200	174
2.35567	178
2.35933	181
2.36300	182
2.36667	182
2.37033	184
2.37400	187
2.37767	190
2.38133	192
2.38500	193
2.38867	191
2.39233	192
2.39600	196
2.39967	201
2.40333	206
2.40700	212
2.41067	215
2.41433	217
2.41800	217
2.42167	219
2.42533	222
2.42900	224
2.43267	224
2.43633	227
2.44000	231
2.44367	268
2.44733	364
2.45100	467
2.45467	553
2.45833	605
2.46200	613
2.46567	591
2.46933	564
2.47300	544
2.47667	530
2.48033	523
2.48400	511
2.48767	490
2.49133	463
2.49500	435
2.49867	409
2.50233	390
2.50600	375
2.50967	363
2.51333	356
2.51700	355
2.52067	359
2.52433	368
2.52800	381
2.53167	395
2.53533	404
2.53900	410
2.54267	408
2.54633	398
2.55000	385
2.55367	369
2.55733	352
2.56100	339
2.56467	328
2.56833	318
2.57200	311
2.57567	305
2.57933	299
2.58300	296
2.58667	293
2.59033	292
2.59400	290
2.59767	286
2.60133	277
2.60500	265
2.60867	250
2.61233	235
2.61600	221
2.61967	208
2.62333	194
2.62700	182
2.63067	174
2.63433	170
2.63800	169
2.64167	173
2.64533	179
2.64900	187
2.65267	199
2.65633	207
2.66000	214
2.66367	221
2.66733	229
2.67100	235
2.67467	235
2.67833	234
2.68200	235
2.68567	235
2.68933	236
2.69300	236
2.69667	233
2.70033	228
2.70400	224
2.70767	221
2.71133	219
2.71500	214
2.71867	211
2.72233	210
2.72600	207
2.72967	204
2.73333	202
2.73700	202
2.74067	204
2.74433	206
2.74800	208
2.75167	209
2.75533	209
2.75900	209
2.76267	210
2.76633	212
2.77000	213
2.77367	212
2.77733	214
2.78100	214
2.78467	214
2.78833	213
2.79200	213
2.79567	215
2.79933	217
2.80300	218
2.80667	218
2.81033	218
2.81400	222
2.81767	231
2.82133	250
2.82500	292
2.82867	377
2.83233	526
2.83600	759
2.83967	1096
2.84333	1535
2.84700	2070
2.85067	2671
2.85433	3295
2.85800	3887
2.86167	4402
2.86533	4802
2.86900	5058
2.87267	5163
2.87633	5128
2.88000	4969
2.88367	4722
2.88733	4413
2.89100	4065
2.89467	3704
2.89833	3347
2.90200	3005
2.90567	2685
2.90933	2391
2.91300	2125
2.91667	1886
2.92033	1676
2.92400	1489
2.92767	1325
2.93133	1182
2.93500	1061
2.93867	953
2.94233	858
2.94600	776
2.94967	704
2.95333	641
2.95700	588
2.96067	542
2.96433	505
2.96800	471
2.97167	444
2.97533	420
2.97900	400
2.98267	381
2.98633	364
2.99000	348
2.99367	332
2.99733	318
3.00100	308
3.00467	300
3.00833	291
3.01200	284
3.01567	276
3.01933	271
3.02300	265
3.02667	258
3.03033	252
3.03400	249
3.03767	248
3.04133	247
3.04500	246
3.04867	241
3.05233	239
3.05600	236
3.05967	232
3.06333	229
3.06700	227
3.07067	226
3.07433	223
3.07800	219
3.08167	218
3.08533	218
3.08900	216
3.09267	213
3.09633	210
3.10000	207
3.10367	206
3.10733	206
3.11100	206
3.11467	206
3.11833	207
3.12200	205
3.12567	202
3.12933	197
3.13300	170
3.13667	126
3.14033	95
3.14400	88
3.14767	97
3.15133	117
3.15500	145
3.15867	180
3.16233	222
3.16600	266
3.16967	312
3.17333	353
3.17700	392
3.18067	432
3.18433	467
3.18800	497
3.19167	524
3.19533	547
3.19900	566
3.20267	584
3.20633	599
3.21000	609
3.21367	619
3.21733	628
3.22100	636
3.22467	644
3.22833	652
3.23200	656
3.23567	658
3.23933	661
3.24300	663
3.24667	665
3.25033	668
3.25400	669
3.25767	671
3.26133	675
3.26500	679
3.26867	683
3.27233	687
3.27600	690
3.27967	692
3.28333	695
3.28700	700
3.29067	702
3.29433	705
3.29800	711
3.30167	715
3.30533	718
3.30900	720
3.31267	722
3.31633	723
3.32000	723
3.32367	722
3.32733	720
3.33100	717
3.33467	714
3.33833	713
3.34200	711
3.34567	711
3.34933	712
3.35300	710
3.35667	706
3.36033	703
3.36400	703
3.36767	704
3.37133	704
3.37500	700
3.37867	699
3.38233	698
3.38600	696
3.38967	693
3.39333	692
3.39700	691
3.40067	692
3.40433	693
3.40800	692
3.41167	691
3.41533	690
3.41900	692
3.42267	693
3.42633	694
3.43000	691
3.43367	687
3.43733	683
3.44100	683
3.44467	682
3.44833	681
3.45200	681
3.45567	678
3.45933	677
3.46300	675
3.46667	672
3.47033	670
3.47400	669
3.47767	666
3.48133	667
3.48500	668
3.48867	668
3.49233	665
3.49600	660
3.49967	659
3.50333	657
3.50700	654
3.51067	651
3.51433	647
3.51800	645
3.52167	643
3.52533	641
3.52900	638
3.53267	636
3.53633	634
3.54000	633
3.54367	633
3.54733	633
3.55100	630
3.55467	628
3.55833	626
3.56200	624
3.56567	624
3.56933	622
3.57300	621
3.57667	620
3.58033	618
3.58400	615
3.58767	611
3.59133	609
3.59500	608
3.59867	608
3.60233	611
3.60600	612
3.60967	611
3.61333	607
3.61700	603
3.62067	601
3.62433	600
3.62800	599
3.63167	599
3.63533	598
3.63900	596
3.64267	593
3.64633	590
3.65000	587
3.65367	586
3.65733	587
3.66100	587
3.66467	586
3.66833	584
3.67200	582
3.67567	583
3.67933	585
3.68300	587
3.68667	588
3.69033	590
3.69400	591
3.69767	590
3.70133	586
3.70500	584
3.70867	583
3.71233	582
3.71600	581
3.71967	581
3.72333	579
3.72700	576
3.73067	577
3.73433	580
3.73800	579
3.74167	576
3.74533	575
3.74900	575
3.75267	574
3.75633	572
3.76000	570
3.76367	568
3.76733	568
3.77100	569
3.77467	570
3.77833	571
3.78200	572
3.78567	570
3.78933	568
3.79300	564
3.79667	564
3.80033	565
3.80400	567
3.80767	567
3.81133	568
3.81500	568
3.81867	568
3.82233	568
3.82600	569
3.82967	569
3.83333	568
3.83700	566
3.84067	563
3.84433	560
3.84800	559
3.85167	559
3.85533	560
3.85900	562
3.86267	565
3.86633	567
3.87000	569
3.87367	568
3.87733	566
3.88100	563
3.88467	561
3.88833	561
3.89200	558
3.89567	556
3.89933	555
3.90300	554
3.90667	554
3.91033	556
3.91400	557
3.91767	557
3.92133	556
3.92500	554
3.92867	551
3.93233	550
3.93600	548
3.93967	546
3.94333	544
3.94700	542
3.95067	541
3.95433	542
3.95800	541
3.96167	541
3.96533	540
3.96900	541
3.97267	539
3.97633	536
3.98000	534
3.98367	533
3.98733	535
3.99100	537
3.99467	535
3.99833	530

[Status Trace (Column Oven Temperature)]
Interval(msec)	1000
# of Points	239
Start Time(min)	0.014
End Time(min)	3.981
Intensity Units	
Intensity Multiplier	1
R.Time (min)	Intensity
0.01412	35.08
0.03078	35.08
0.04745	35.08
0.06412	35.07
0.08078	35.07
0.09745	35.07
0.11412	35.06
0.13078	35.07
0.14745	35.06
0.16412	35.06
0.18078	35.06
0.19745	35.06
0.21412	35.06
0.23078	35.05
0.24745	35.04
0.26412	35.02
0.28078	35.02
0.29745	35.01
0.31412	35.00
0.33078	35.01
0.34745	35.02
0.36412	35.03
0.38078	35.03
0.39745	35.03
0.41412	35.01
0.43078	35.00
0.44745	34.99
0.46412	34.98
0.48078	34.97
0.49745	34.96
0.51412	34.97
0.53078	34.97
0.54745	34.97
0.56412	34.98
0.58078	34.97
0.59745	34.97
0.61412	34.97
0.63078	34.96
0.64745	34.97
0.66412	34.97
0.68078	34.98
0.69745	34.99
0.71412	34.99
0.73078	34.97
0.74745	34.97
0.76412	34.96
0.78078	34.96
0.79745	34.95
0.81412	34.96
0.83078	34.95
0.84745	34.95
0.86412	34.96
0.88078	34.97
0.89745	34.99
0.91412	35.00
0.93078	34.99
0.94745	35.00
0.96412	35.00
0.98078	35.00
0.99745	35.01
1.01412	35.00
1.03078	34.99
1.04745	34.98
1.06412	34.98
1.08078	34.98
1.09745	34.99
1.11412	34.99
1.13078	34.98
1.14745	34.97
1.16412	34.98
1.18078	34.99
1.19745	35.00
1.21412	35.02
1.23078	35.02
1.24745	35.02
1.26412	35.02
1.28078	35.03
1.29745	35.02
1.31412	35.02
1.33078	35.02
1.34745	35.00
1.36412	34.99
1.38078	34.99
1.39745	34.98
1.41412	34.97
1.43078	34.97
1.44745	34.97
1.46412	34.98
1.48078	34.99
1.49745	35.00
1.51412	35.01
1.53078	35.01
1.54745	35.01
1.56412	35.01
1.58078	35.01
1.59745	35.04
1.61412	35.10
1.63078	35.24
1.64745	35.44
1.66412	35.71
1.68078	36.09
1.69745	36.46
1.71412	36.82
1.73078	37.16
1.74745	37.46
1.76412	37.77
1.78078	38.12
1.79745	38.46
1.81412	38.80
1.83078	39.13
1.84745	39.46
1.86412	39.80
1.88078	40.12
1.89745	40.46
1.91412	40.78
1.93078	41.10
1.94745	41.43
1.96412	41.73
1.98078	42.06
1.99745	42.39
2.01412	42.71
2.03078	43.05
2.04745	43.37
2.06412	43.68
2.08078	44.03
2.09745	44.35
2.11412	44.67
2.13078	45.01
2.14745	45.33
2.16412	45.65
2.18078	45.99
2.19745	46.31
2.21412	46.64
2.23078	46.96
2.24745	47.29
2.26412	47.62
2.28078	47.94
2.29745	48.28
2.31412	48.63
2.33078	48.93
2.34745	49.26
2.36412	49.55
2.38078	49.72
2.39745	49.75
2.41412	49.75
2.43078	49.74
2.44745	49.75
2.46412	49.75
2.48078	49.75
2.49745	49.78
2.51412	49.78
2.53078	49.80
2.54745	49.83
2.56412	49.81
2.58078	49.82
2.59745	49.81
2.61412	49.82
2.63078	49.83
2.64745	49.83
2.66412	49.86
2.68078	49.85
2.69745	49.84
2.71412	49.86
2.73078	49.87
2.74745	49.87
2.76412	49.86
2.78078	49.85
2.79745	49.86
2.81412	49.90
2.83078	49.93
2.84745	49.95
2.86412	49.96
2.88078	49.96
2.89745	49.97
2.91412	49.97
2.93078	49.97
2.94745	49.96
2.96412	49.95
2.98078	49.96
2.99745	49.97
3.01412	49.98
3.03078	50.00
3.04745	50.00
3.06412	50.00
3.08078	50.00
3.09745	50.01
3.11412	50.03
3.13078	50.03
3.14745	50.05
3.16412	50.06
3.18078	50.07
3.19745	50.08
3.21412	50.07
3.23078	50.07
3.24745	50.07
3.26412	50.08
3.28078	50.09
3.29745	50.08
3.31412	50.09
3.33078	50.10
3.34745	50.11
3.36412	50.12
3.38078	50.11
3.39745	50.10
3.41412	50.09
3.43078	50.05
3.44745	50.04
3.46412	50.02
3.48078	50.02
3.49745	50.03
3.51412	50.02
3.53078	50.02
3.54745	50.01
3.56412	50.01
3.58078	50.00
3.59745	50.01
3.61412	50.01
3.63078	49.99
3.64745	49.99
3.66412	50.00
3.68078	50.01
3.69745	50.02
3.71412	50.03
3.73078	50.04
3.74745	50.03
3.76412	50.05
3.78078	50.06
3.79745	50.04
3.81412	50.03
3.83078	50.03
3.84745	50.04
3.86412	50.05
3.88078	50.05
3.89745	50.05
3.91412	50.06
3.93078	50.06
3.94745	50.07
3.96412	50.07
3.98078	50.07

[Status Trace (Injection Unit Temperature)]
Interval(msec)	1000
# of Points	239
Start Time(min)	0.014
End Time(min)	3.981
Intensity Units	
Intensity Multiplier	1
R.Time (min)	Intensity
0.01412	99.98
0.03078	99.98
0.04745	99.98
0.06412	99.98
0.08078	99.98
0.09745	99.98
0.11412	99.98
0.13078	99.98
0.14745	99.98
0.16412	99.98
0.18078	99.98
0.19745	99.98
0.21412	99.98
0.23078	99.98
0.24745	99.99
0.26412	99.98
0.28078	99.98
0.29745	99.98
0.31412	99.98
0.33078	99.98
0.34745	99.98
0.36412	99.98
0.38078	99.98
0.39745	99.98
0.41412	99.98
0.43078	99.98
0.44745	99.98
0.46412	99.98
0.48078	99.98
0.49745	99.98
0.51412	99.98
0.53078	99.98
0.54745	99.98
0.56412	99.98
0.58078	99.97
0.59745	99.98
0.61412	99.98
0.63078	99.98
0.64745	99.98
0.66412	99.98
0.68078	99.98
0.69745	99.98
0.71412	99.98
0.73078	99.98
0.74745	99.98
0.76412	99.98
0.78078	99.98
0.79745	99.98
0.81412	99.98
0.83078	99.97
0.84745	99.98
0.86412	99.98
0.88078	99.98
0.89745	99.98
0.91412	99.98
0.93078	99.98
0.94745	99.98
0.96412	99.98
0.98078	99.98
0.99745	99.98
1.01412	99.98
1.03078	99.98
1.04745	99.98
1.06412	99.98
1.08078	99.98
1.09745	99.98
1.11412	99.98
1.13078	99.98
1.14745	99.98
1.16412	99.98
1.18078	99.98
1.19745	99.98
1.21412	99.98
1.23078	99.98
1.24745	99.98
1.26412	99.97
1.28078	99.98
1.29745	99.98
1.31412	99.98
1.33078	99.98
1.34745	99.98
1.36412	99.98
1.38078	99.98
1.39745	99.98
1.41412	99.98
1.43078	99.99
1.44745	99.98
1.46412	99.99
1.48078	99.98
1.49745	99.99
1.51412	99.98
1.53078	99.99
1.54745	99.98
1.56412	99.98
1.58078	99.99
1.59745	99.99
1.61412	99.98
1.63078	99.99
1.64745	99.98
1.66412	99.98
1.68078	99.98
1.69745	99.98
1.71412	99.99
1.73078	99.98
1.74745	99.98
1.76412	99.98
1.78078	99.98
1.79745	99.98
1.81412	99.98
1.83078	99.98
1.84745	99.98
1.86412	99.98
1.88078	99.98
1.89745	99.98
1.91412	99.97
1.93078	99.98
1.94745	99.97
1.96412	99.97
1.98078	99.97
1.99745	99.98
2.01412	99.97
2.03078	99.97
2.04745	99.98
2.06412	99.97
2.08078	99.97
2.09745	99.97
2.11412	99.97
2.13078	99.97
2.14745	99.97
2.16412	99.97
2.18078	99.97
2.19745	99.97
2.21412	99.97
2.23078	99.97
2.24745	99.96
2.26412	99.96
2.28078	99.97
2.29745	99.97
2.31412	99.97
2.33078	99.97
2.34745	99.97
2.36412	99.96
2.38078	99.97
2.39745	99.97
2.41412	99.97
2.43078	99.97
2.44745	99.96
2.46412	99.97
2.48078	99.97
2.49745	99.97
2.51412	99.97
2.53078	99.97
2.54745	99.97
2.56412	99.97
2.58078	99.97
2.59745	99.98
2.61412	99.98
2.63078	99.97
2.64745	99.98
2.66412	99.98
2.68078	99.98
2.69745	99.98
2.71412	99.98
2.73078	99.98
2.74745	99.99
2.76412	99.99
2.78078	99.99
2.79745	99.99
2.81412	99.99
2.83078	100.00
2.84745	100.00
2.86412	100.00
2.88078	100.00
2.89745	100.00
2.91412	100.00
2.93078	100.00
2.94745	100.00
2.96412	100.01
2.98078	100.00
2.99745	100.01
3.01412	100.01
3.03078	100.01
3.04745	100.01
3.06412	100.01
3.08078	100.01
3.09745	100.02
3.11412	100.01
3.13078	100.01
3.14745	100.01
3.16412	100.02
3.18078	100.02
3.19745	100.02
3.21412	100.02
3.23078	100.02
3.24745	100.03
3.26412	100.02
3.28078	100.02
3.29745	100.02
3.31412	100.02
3.33078	100.03
3.34745	100.03
3.36412	100.02
3.38078	100.03
3.39745	100.02
3.41412	100.03
3.43078	100.03
3.44745	100.03
3.46412	100.03
3.48078	100.03
3.49745	100.03
3.51412	100.03
3.53078	100.04
3.54745	100.03
3.56412	100.03
3.58078	100.04
3.59745	100.03
3.61412	100.04
3.63078	100.03
3.64745	100.04
3.66412	100.03
3.68078	100.04
3.69745	100.04
3.71412	100.04
3.73078	100.04
3.74745	100.04
3.76412	100.04
3.78078	100.03
3.79745	100.04
3.81412	100.04
3.83078	100.04
3.84745	100.04
3.86412	100.05
3.88078	100.04
3.89745	100.05
3.91412	100.04
3.93078	100.04
3.94745	100.05
3.96412	100.04
3.98078	100.04

[Status Trace (Carrier Gas Pressure)]
Interval(msec)	1000
# of Points	239
Start Time(min)	0.014
End Time(min)	3.981
Intensity Units	
Intensity Multiplier	1
R.Time (min)	Intensity
0.01412	57.61
0.03078	55.49
0.04745	57.99
0.06412	59.82
0.08078	58.70
0.09745	57.98
0.11412	58.00
0.13078	58.01
0.14745	58.01
0.16412	58.00
0.18078	58.00
0.19745	58.00
0.21412	58.00
0.23078	58.00
0.24745	58.00
0.26412	58.00
0.28078	58.00
0.29745	58.00
0.31412	58.00
0.33078	58.00
0.34745	58.00
0.36412	58.00
0.38078	58.00
0.39745	58.00
0.41412	58.00
0.43078	58.00
0.44745	58.00
0.46412	58.00
0.48078	58.00
0.49745	58.00
0.51412	58.00
0.53078	58.00
0.54745	58.00
0.56412	58.00
0.58078	58.00
0.59745	58.00
0.61412	58.00
0.63078	58.00
0.64745	58.00
0.66412	58.00
0.68078	58.00
0.69745	58.00
0.71412	58.00
0.73078	58.00
0.74745	58.00
0.76412	58.00
0.78078	58.00
0.79745	58.00
0.81412	58.00
0.83078	58.00
0.84745	58.00
0.86412	58.00
0.88078	58.00
0.89745	58.00
0.91412	58.00
0.93078	58.00
0.94745	58.00
0.96412	58.00
0.98078	58.00
0.99745	58.00
1.01412	58.00
1.03078	58.00
1.04745	58.00
1.06412	58.00
1.08078	58.00
1.09745	58.00
1.11412	58.00
1.13078	58.00
1.14745	58.00
1.16412	58.00
1.18078	58.00
1.19745	58.00
1.21412	58.00
1.23078	58.00
1.24745	58.00
1.26412	58.00
1.28078	58.00
1.29745	58.00
1.31412	58.00
1.33078	58.00
1.34745	58.00
1.36412	58.00
1.38078	58.00
1.39745	58.00
1.41412	58.00
1.43078	58.00
1.44745	58.00
1.46412	58.00
1.48078	58.00
1.49745	58.00
1.51412	58.00
1.53078	58.00
1.54745	58.00
1.56412	58.00
1.58078	58.00
1.59745	58.00
1.61412	58.00
1.63078	58.00
1.64745	58.00
1.66412	58.00
1.68078	58.01
1.69745	58.00
1.71412	58.00
1.73078	58.00
1.74745	58.00
1.76412	58.00
1.78078	58.00
1.79745	58.00
1.81412	58.00
1.83078	58.00
1.84745	58.00
1.86412	58.00
1.88078	58.00
1.89745	58.00
1.91412	58.00
1.93078	58.00
1.94745	58.00
1.96412	58.00
1.98078	58.00
1.99745	58.00
2.01412	58.00
2.03078	58.00
2.04745	58.00
2.06412	58.00
2.08078	58.00
2.09745	58.00
2.11412	58.00
2.13078	58.00
2.14745	58.00
2.16412	58.00
2.18078	58.00
2.19745	58.00
2.21412	58.00
2.23078	58.00
2.24745	58.00
2.26412	58.00
2.28078	58.00
2.29745	58.00
2.31412	58.00
2.33078	58.00
2.34745	58.00
2.36412	58.00
2.38078	57.99
2.39745	57.99
2.41412	58.00
2.43078	58.00
2.44745	58.00
2.46412	58.00
2.48078	58.00
2.49745	58.00
2.51412	57.99
2.53078	57.99
2.54745	58.00
2.56412	58.00
2.58078	58.00
2.59745	58.00
2.61412	58.00
2.63078	58.00
2.64745	58.00
2.66412	58.00
2.68078	58.00
2.69745	58.00
2.71412	58.00
2.73078	58.00
2.74745	58.00
2.76412	58.00
2.78078	58.00
2.79745	58.00
2.81412	58.00
2.83078	58.00
2.84745	58.00
2.86412	58.00
2.88078	58.00
2.89745	58.00
2.91412	58.00
2.93078	58.00
2.94745	58.00
2.96412	58.00
2.98078	58.00
2.99745	58.00
3.01412	58.00
3.03078	58.00
3.04745	58.00
3.06412	58.00
3.08078	58.00
3.09745	58.00
3.11412	58.00
3.13078	58.00
3.14745	58.00
3.16412	58.00
3.18078	58.00
3.19745	58.00
3.21412	58.00
3.23078	58.00
3.24745	58.00
3.26412	58.00
3.28078	58.00
3.29745	58.00
3.31412	58.00
3.33078	58.00
3.34745	58.00
3.36412	58.00
3.38078	58.00
3.39745	58.00
3.41412	58.00
3.43078	58.00
3.44745	58.00
3.46412	58.00
3.48078	58.00
3.49745	58.00
3.51412	58.00
3.53078	58.00
3.54745	58.00
3.56412	58.00
3.58078	58.00
3.59745	58.00
3.61412	58.00
3.63078	58.00
3.64745	58.00
3.66412	58.00
3.68078	58.00
3.69745	58.00
3.71412	58.00
3.73078	58.00
3.74745	58.00
3.76412	58.00
3.78078	58.00
3.79745	58.00
3.81412	58.00
3.83078	58.00
3.84745	58.00
3.86412	58.00
3.88078	58.00
3.89745	58.00
3.91412	58.00
3.93078	58.00
3.94745	58.00
3.96412	58.00
3.98078	58.00

[Status Trace (Carrier Gas Flow)]
Interval(msec)	1000
# of Points	239
Start Time(min)	0.014
End Time(min)	3.981
Intensity Units	
Intensity Multiplier	1
R.Time (min)	Intensity
0.01412	34.23
0.03078	34.54
0.04745	34.54
0.06412	34.52
0.08078	34.51
0.09745	34.52
0.11412	34.52
0.13078	34.52
0.14745	34.51
0.16412	34.51
0.18078	34.52
0.19745	34.52
0.21412	34.52
0.23078	34.52
0.24745	34.52
0.26412	34.52
0.28078	34.52
0.29745	34.52
0.31412	34.52
0.33078	34.52
0.34745	34.52
0.36412	34.52
0.38078	34.51
0.39745	34.52
0.41412	34.52
0.43078	34.51
0.44745	34.52
0.46412	34.52
0.48078	34.52
0.49745	34.52
0.51412	34.52
0.53078	34.52
0.54745	34.52
0.56412	34.52
0.58078	34.52
0.59745	34.52
0.61412	34.52
0.63078	34.52
0.64745	34.52
0.66412	34.52
0.68078	34.52
0.69745	34.52
0.71412	34.52
0.73078	34.52
0.74745	34.51
0.76412	34.52
0.78078	34.52
0.79745	34.52
0.81412	34.52
0.83078	34.52
0.84745	34.52
0.86412	34.52
0.88078	34.52
0.89745	34.52
0.91412	34.52
0.93078	34.53
0.94745	34.52
0.96412	34.51
0.98078	34.52
0.99745	34.52
1.01412	34.53
1.03078	34.52
1.04745	34.52
1.06412	34.52
1.08078	34.52
1.09745	34.52
1.11412	34.52
1.13078	34.52
1.14745	34.52
1.16412	34.52
1.18078	34.52
1.19745	34.51
1.21412	34.52
1.23078	34.52
1.24745	34.52
1.26412	34.52
1.28078	34.51
1.29745	34.52
1.31412	34.52
1.33078	34.52
1.34745	34.51
1.36412	34.52
1.38078	34.52
1.39745	34.52
1.41412	34.51
1.43078	34.52
1.44745	34.52
1.46412	34.52
1.48078	34.52
1.49745	34.52
1.51412	34.52
1.53078	34.52
1.54745	34.52
1.56412	34.52
1.58078	34.52
1.59745	34.52
1.61412	34.52
1.63078	34.52
1.64745	34.51
1.66412	34.52
1.68078	34.52
1.69745	34.52
1.71412	34.52
1.73078	34.52
1.74745	34.52
1.76412	34.52
1.78078	34.52
1.79745	34.52
1.81412	34.52
1.83078	34.52
1.84745	34.52
1.86412	34.51
1.88078	34.51
1.89745	34.52
1.91412	34.52
1.93078	34.52
1.94745	34.52
1.96412	34.52
1.98078	34.52
1.99745	34.52
2.01412	34.51
2.03078	34.52
2.04745	34.52
2.06412	34.52
2.08078	34.52
2.09745	34.52
2.11412	34.51
2.13078	34.52
2.14745	34.52
2.16412	34.52
2.18078	34.52
2.19745	34.52
2.21412	34.52
2.23078	34.52
2.24745	34.52
2.26412	34.52
2.28078	34.52
2.29745	34.52
2.31412	34.52
2.33078	34.52
2.34745	34.51
2.36412	34.52
2.38078	34.52
2.39745	34.52
2.41412	34.52
2.43078	34.52
2.44745	34.52
2.46412	34.52
2.48078	34.52
2.49745	34.52
2.51412	34.52
2.53078	34.52
2.54745	34.51
2.56412	34.52
2.58078	34.52
2.59745	34.52
2.61412	34.52
2.63078	34.52
2.64745	34.52
2.66412	34.52
2.68078	34.52
2.69745	34.52
2.71412	34.52
2.73078	34.52
2.74745	34.52
2.76412	34.52
2.78078	34.52
2.79745	34.52
2.81412	34.52
2.83078	34.52
2.84745	34.51
2.86412	34.52
2.88078	34.52
2.89745	34.52
2.91412	34.52
2.93078	34.52
2.94745	34.52
2.96412	34.52
2.98078	34.51
2.99745	34.52
3.01412	34.51
3.03078	34.52
3.04745	34.52
3.06412	34.52
3.08078	34.52
3.09745	34.52
3.11412	34.52
3.13078	34.52
3.14745	34.52
3.16412	34.52
3.18078	34.52
3.19745	34.52
3.21412	34.52
3.23078	34.52
3.24745	34.52
3.26412	34.52
3.28078	34.52
3.29745	34.52
3.31412	34.52
3.33078	34.52
3.34745	34.52
3.36412	34.52
3.38078	34.52
3.39745	34.52
3.41412	34.52
3.43078	34.52
3.44745	34.52
3.46412	34.52
3.48078	34.52
3.49745	34.52
3.51412	34.52
3.53078	34.52
3.54745	34.52
3.56412	34.51
3.58078	34.52
3.59745	34.51
3.61412	34.51
3.63078	34.52
3.64745	34.52
3.66412	34.52
3.68078	34.52
3.69745	34.52
3.71412	34.52
3.73078	34.52
3.74745	34.51
3.76412	34.52
3.78078	34.52
3.79745	34.52
3.81412	34.52
3.83078	34.52
3.84745	34.52
3.86412	34.51
3.88078	34.52
3.89745	34.52
3.91412	34.52
3.93078	34.52
3.94745	34.52
3.96412	34.52
3.98078	34.51

[Status Trace (Column Flow)]
Interval(msec)	1000
# of Points	239
Start Time(min)	0.014
End Time(min)	3.981
Intensity Units	
Intensity Multiplier	1
R.Time (min)	Intensity
0.01412	5.52
0.03078	5.27
0.04745	5.56
0.06412	5.78
0.08078	5.65
0.09745	5.56
0.11412	5.56
0.13078	5.57
0.14745	5.57
0.16412	5.57
0.18078	5.57
0.19745	5.57
0.21412	5.57
0.23078	5.57
0.24745	5.57
0.26412	5.57
0.28078	5.57
0.29745	5.57
0.31412	5.57
0.33078	5.57
0.34745	5.57
0.36412	5.57
0.38078	5.57
0.39745	5.57
0.41412	5.57
0.43078	5.57
0.44745	5.57
0.46412	5.57
0.48078	5.57
0.49745	5.57
0.51412	5.57
0.53078	5.57
0.54745	5.57
0.56412	5.57
0.58078	5.57
0.59745	5.57
0.61412	5.57
0.63078	5.57
0.64745	5.57
0.66412	5.57
0.68078	5.57
0.69745	5.57
0.71412	5.57
0.73078	5.57
0.74745	5.57
0.76412	5.57
0.78078	5.57
0.79745	5.57
0.81412	5.57
0.83078	5.57
0.84745	5.57
0.86412	5.57
0.88078	5.57
0.89745	5.57
0.91412	5.57
0.93078	5.57
0.94745	5.57
0.96412	5.57
0.98078	5.57
0.99745	5.57
1.01412	5.57
1.03078	5.57
1.04745	5.57
1.06412	5.57
1.08078	5.57
1.09745	5.57
1.11412	5.57
1.13078	5.57
1.14745	5.57
1.16412	5.57
1.18078	5.57
1.19745	5.57
1.21412	5.57
1.23078	5.57
1.24745	5.57
1.26412	5.57
1.28078	5.57
1.29745	5.57
1.31412	5.57
1.33078	5.57
1.34745	5.57
1.36412	5.57
1.38078	5.57
1.39745	5.57
1.41412	5.57
1.43078	5.57
1.44745	5.57
1.46412	5.57
1.48078	5.57
1.49745	5.57
1.51412	5.57
1.53078	5.57
1.54745	5.57
1.56412	5.57
1.58078	5.57
1.59745	5.57
1.61412	5.56
1.63078	5.56
1.64745	5.55
1.66412	5.55
1.68078	5.53
1.69745	5.52
1.71412	5.51
1.73078	5.50
1.74745	5.49
1.76412	5.48
1.78078	5.47
1.79745	5.46
1.81412	5.45
1.83078	5.44
1.84745	5.43
1.86412	5.42
1.88078	5.41
1.89745	5.40
1.91412	5.39
1.93078	5.38
1.94745	5.37
1.96412	5.36
1.98078	5.35
1.99745	5.34
2.01412	5.33
2.03078	5.32
2.04745	5.31
2.06412	5.30
2.08078	5.29
2.09745	5.28
2.11412	5.27
2.13078	5.26
2.14745	5.25
2.16412	5.24
2.18078	5.23
2.19745	5.22
2.21412	5.22
2.23078	5.21
2.24745	5.20
2.26412	5.19
2.28078	5.18
2.29745	5.17
2.31412	5.16
2.33078	5.15
2.34745	5.14
2.36412	5.13
2.38078	5.13
2.39745	5.13
2.41412	5.13
2.43078	5.13
2.44745	5.13
2.46412	5.13
2.48078	5.13
2.49745	5.13
2.51412	5.12
2.53078	5.12
2.54745	5.12
2.56412	5.12
2.58078	5.12
2.59745	5.12
2.61412	5.12
2.63078	5.12
2.64745	5.12
2.66412	5.12
2.68078	5.12
2.69745	5.12
2.71412	5.12
2.73078	5.12
2.74745	5.12
2.76412	5.12
2.78078	5.12
2.79745	5.12
2.81412	5.12
2.83078	5.12
2.84745	5.12
2.86412	5.12
2.88078	5.12
2.89745	5.12
2.91412	5.12
2.93078	5.12
2.94745	5.12
2.96412	5.12
2.98078	5.12
2.99745	5.12
3.01412	5.12
3.03078	5.12
3.04745	5.12
3.06412	5.12
3.08078	5.12
3.09745	5.12
3.11412	5.12
3.13078	5.12
3.14745	5.12
3.16412	5.12
3.18078	5.12
3.19745	5.12
3.21412	5.12
3.23078	5.12
3.24745	5.12
3.26412	5.12
3.28078	5.12
3.29745	5.12
3.31412	5.12
3.33078	5.12
3.34745	5.12
3.36412	5.12
3.38078	5.12
3.39745	5.12
3.41412	5.12
3.43078	5.12
3.44745	5.12
3.46412	5.12
3.48078	5.12
3.49745	5.12
3.51412	5.12
3.53078	5.12
3.54745	5.12
3.56412	5.12
3.58078	5.12
3.59745	5.12
3.61412	5.12
3.63078	5.12
3.64745	5.12
3.66412	5.12
3.68078	5.12
3.69745	5.12
3.71412	5.12
3.73078	5.12
3.74745	5.12
3.76412	5.12
3.78078	5.12
3.79745	5.12
3.81412	5.12
3.83078	5.12
3.84745	5.12
3.86412	5.12
3.88078	5.12
3.89745	5.12
3.91412	5.12
3.93078	5.12
3.94745	5.12
3.96412	5.12
3.98078	5.12

[Status Trace (Linear Velocity)]
Interval(msec)	1000
# of Points	239
Start Time(min)	0.014
End Time(min)	3.981
Intensity Units	
Intensity Multiplier	1
R.Time (min)	Intensity
0.01412	38.77
0.03078	37.37
0.04745	39.01
0.06412	40.21
0.08078	39.48
0.09745	39.01
0.11412	39.02
0.13078	39.03
0.14745	39.03
0.16412	39.02
0.18078	39.02
0.19745	39.02
0.21412	39.02
0.23078	39.02
0.24745	39.02
0.26412	39.03
0.28078	39.03
0.29745	39.03
0.31412	39.03
0.33078	39.03
0.34745	39.03
0.36412	39.02
0.38078	39.02
0.39745	39.02
0.41412	39.03
0.43078	39.03
0.44745	39.03
0.46412	39.03
0.48078	39.03
0.49745	39.03
0.51412	39.03
0.53078	39.03
0.54745	39.03
0.56412	39.03
0.58078	39.03
0.59745	39.03
0.61412	39.03
0.63078	39.03
0.64745	39.03
0.66412	39.03
0.68078	39.03
0.69745	39.03
0.71412	39.03
0.73078	39.03
0.74745	39.03
0.76412	39.03
0.78078	39.03
0.79745	39.03
0.81412	39.03
0.83078	39.03
0.84745	39.03
0.86412	39.03
0.88078	39.03
0.89745	39.03
0.91412	39.03
0.93078	39.03
0.94745	39.03
0.96412	39.03
0.98078	39.03
0.99745	39.03
1.01412	39.03
1.03078	39.03
1.04745	39.03
1.06412	39.03
1.08078	39.03
1.09745	39.03
1.11412	39.03
1.13078	39.03
1.14745	39.03
1.16412	39.03
1.18078	39.03
1.19745	39.03
1.21412	39.03
1.23078	39.02
1.24745	39.03
1.26412	39.03
1.28078	39.02
1.29745	39.02
1.31412	39.02
1.33078	39.03
1.34745	39.03
1.36412	39.03
1.38078	39.03
1.39745	39.03
1.41412	39.03
1.43078	39.03
1.44745	39.03
1.46412	39.03
1.48078	39.03
1.49745	39.03
1.51412	39.03
1.53078	39.03
1.54745	39.03
1.56412	39.03
1.58078	39.03
1.59745	39.02
1.61412	39.02
1.63078	39.01
1.64745	38.99
1.66412	38.96
1.68078	38.93
1.69745	38.89
1.71412	38.86
1.73078	38.82
1.74745	38.79
1.76412	38.77
1.78078	38.73
1.79745	38.70
1.81412	38.67
1.83078	38.63
1.84745	38.60
1.86412	38.57
1.88078	38.54
1.89745	38.51
1.91412	38.48
1.93078	38.45
1.94745	38.42
1.96412	38.39
1.98078	38.36
1.99745	38.33
2.01412	38.30
2.03078	38.27
2.04745	38.24
2.06412	38.21
2.08078	38.18
2.09745	38.15
2.11412	38.12
2.13078	38.09
2.14745	38.06
2.16412	38.03
2.18078	38.00
2.19745	37.97
2.21412	37.94
2.23078	37.91
2.24745	37.88
2.26412	37.86
2.28078	37.83
2.29745	37.80
2.31412	37.77
2.33078	37.74
2.34745	37.71
2.36412	37.68
2.38078	37.66
2.39745	37.66
2.41412	37.66
2.43078	37.66
2.44745	37.66
2.46412	37.66
2.48078	37.66
2.49745	37.66
2.51412	37.66
2.53078	37.65
2.54745	37.66
2.56412	37.66
2.58078	37.66
2.59745	37.66
2.61412	37.66
2.63078	37.66
2.64745	37.66
2.66412	37.66
2.68078	37.66
2.69745	37.66
2.71412	37.66
2.73078	37.65
2.74745	37.65
2.76412	37.65
2.78078	37.66
2.79745	37.66
2.81412	37.65
2.83078	37.65
2.84745	37.65
2.86412	37.65
2.88078	37.65
2.89745	37.65
2.91412	37.65
2.93078	37.65
2.94745	37.65
2.96412	37.65
2.98078	37.65
2.99745	37.65
3.01412	37.64
3.03078	37.64
3.04745	37.64
3.06412	37.64
3.08078	37.64
3.09745	37.64
3.11412	37.64
3.13078	37.64
3.14745	37.64
3.16412	37.64
3.18078	37.64
3.19745	37.64
3.21412	37.64
3.23078	37.64
3.24745	37.64
3.26412	37.64
3.28078	37.63
3.29745	37.64
3.31412	37.64
3.33078	37.63
3.34745	37.63
3.36412	37.63
3.38078	37.63
3.39745	37.63
3.41412	37.63
3.43078	37.64
3.44745	37.64
3.46412	37.64
3.48078	37.64
3.49745	37.64
3.51412	37.64
3.53078	37.64
3.54745	37.64
3.56412	37.64
3.58078	37.64
3.59745	37.64
3.61412	37.64
3.63078	37.64
3.64745	37.64
3.66412	37.64
3.68078	37.64
3.69745	37.64
3.71412	37.64
3.73078	37.64
3.74745	37.64
3.76412	37.64
3.78078	37.64
3.79745	37.64
3.81412	37.64
3.83078	37.64
3.84745	37.64
3.86412	37.64
3.88078	37.64
3.89745	37.64
3.91412	37.64
3.93078	37.64
3.94745	37.64
3.96412	37.64
3.98078	37.64

