[Header]
Application Name	LabSolutions
Version	5.110
Data File Name	C:\Users\User\Desktop\GC Analyses\Jack\Nachusa Grasslands Sampling\T1 Timepoint July 12th\T1_07122022_010.gcd
Output Date	3/14/2023
Output Time	3:40:57 PM

[File Information]
Type	Data File
Generated	3/8/2023 2:17:03 PM
Generated by	System Administrator
Modified	3/8/2023 2:23:33 PM
Modified by	System Administrator

[Sample Information]
Operator Name	System Administrator
Acquired	3/8/2023 2:19:32 PM
Sample Type	0:Unknown
Level	0
Sample Name	010
Sample ID	010
ISTD Amount1	1
ISTD Amount2	1
ISTD Amount3	1
ISTD Amount4	1
ISTD Amount5	1
ISTD Amount6	1
ISTD Amount7	1
ISTD Amount8	1
ISTD Amount9	1
ISTD Amount10	1
ISTD Amount11	1
ISTD Amount12	1
ISTD Amount13	1
ISTD Amount14	1
ISTD Amount15	1
ISTD Amount16	1
ISTD Amount17	1
ISTD Amount18	1
ISTD Amount19	1
ISTD Amount20	1
ISTD Amount21	1
ISTD Amount22	1
ISTD Amount23	1
ISTD Amount24	1
ISTD Amount25	1
ISTD Amount26	1
ISTD Amount27	1
ISTD Amount28	1
ISTD Amount29	1
ISTD Amount30	1
ISTD Amount31	1
ISTD Amount32	1
Sample Amount	1
Dilution Factor	1
Vial#	9
Injection Volume	1
Injection Count	1
Bar Code	

[Original Files]
Data File	C:\Users\User\Desktop\GC Analyses\Jack\Nachusa Grasslands Sampling\T1 Timepoint July 12th\T1_07122022_010.gcd
Method File	C:\LabSolutions\Data\GHG_4min_2022\ghg3_togas_w_acet_4 min_new_int.gcm
Batch File	C:\LabSolutions\Data\AutoSamplerTesting\T1_07122022.gcb
Report Format File	c:\LabSolutions\System\DEFAULT.lsr

[File Description]


[Configuration]
Instrument Name	C0B7VH3-Instrument1
Instrument #	1
Line #	1
# of Detectors	3
Detector ID	DET#1	DET#2	DET#3
Detector Name	FID	PTCD	ECD
# of Channels	1	1	1

[Peak Table(Ch1)]
# of Peaks	3
Peak#	R.Time	I.Time	F.Time	Area	Height	A/H	Conc.	Mark	ID#	Name	k'	Plate #	Plate Ht.	Tailing	Resolution	Sep.Factor	Area Ratio	Height Ratio	Conc. %	Norm Conc.
1	1.476	1.439	1.538	26515	12446	2.130	187.197	   	1	CO	0.000	9049	16.576	1.342	0.000	0.000	0	0	31.561	31.561
2	1.567	1.538	1.633	4806	2274	2.113	92.924	 V 	2	CH4	0.062	10341	14.505	0.000	1.482	0.000	0	0	15.666	15.666
3	2.000	1.945	2.389	1247210	588362	2.120	313.016	   	3	CO2	0.355	17437	8.602	1.172	7.079	5.720	0	0	52.773	52.773

[Peak Table(Ch2)]
# of Peaks	0

[Peak Table(Ch3)]
# of Peaks	5
Peak#	R.Time	I.Time	F.Time	Area	Height	A/H	Conc.	Mark	ID#	Name	k'	Plate #	Plate Ht.	Tailing	Resolution	Sep.Factor	Area Ratio	Height Ratio	Conc. %	Norm Conc.
1	2.462	2.253	2.521	1642	400	4.107	0.000	   			0.000	7005	21.414	0.000	0.000	0.000	0	0	0.000	0.000
2	2.543	2.521	2.634	1088	242	4.498	0.000	 V 			0.033	2487	60.307	0.000	0.502	0.000	0	0	0.000	0.000
3	2.689	2.634	2.810	867	104	8.353	0.000	 V 			0.092	36	4171.678	0.000	0.147	2.818	0	0	0.000	0.000
4	2.873	2.810	3.148	19563	5000	3.912	0.500	 V 	1	N2O	0.167	13190	11.372	1.680	0.194	1.806	0	0	100.000	100.000
5	3.452	3.338	3.965	8633	469	18.397	0.000	   	2	SF6	0.402	713	210.286	2.660	1.878	2.411	0	0	0.000	0.000

[Compound Results(Ch1)]
# of IDs	6
ID#	Name	R.Time	Area	Height	Conc.	Curve	3rd	2nd	1st	Constant	Area Ratio	Height Ratio	Conc. %	Norm Conc.
1	CO	1.476	26515	12446	187.197	Linear	0.000000e+00	0.000000e+00	1.416423e+002	0.000000e+00	0	0	31.561	31.561
2	CH4	1.567	4806	2274	92.924	Linear	0.000000e+00	0.000000e+00	5.171738e+001	0.000000e+00	0	0	15.666	15.666
3	CO2	2.000	1247210	588362	313.016	Linear	0.000000e+00	0.000000e+00	3.984494e+003	0.000000e+00	0	0	52.773	52.773
4	Ethylene	0.000	0	0	0.000	Linear	0.000000e+00	0.000000e+00	0.000000e+00	0.000000e+00	0	0	0.000	0.000
5	Acetylene	0.000	0	0	0.000	Linear	0.000000e+00	0.000000e+00	0.000000e+00	0.000000e+00	0	0	0.000	0.000
6	Ethane	0.000	0	0	0.000	Linear	0.000000e+00	0.000000e+00	0.000000e+00	0.000000e+00	0	0	0.000	0.000

[Compound Results(Ch2)]
# of IDs	5
ID#	Name	R.Time	Area	Height	Conc.	Curve	3rd	2nd	1st	Constant	Area Ratio	Height Ratio	Conc. %	Norm Conc.
1	Hydrogen	0.000	0	0	0.000	Linear	0.000000e+00	0.000000e+00	0.000000e+00	0.000000e+00	0	0	0.000	0.000
2	Oxygen	0.000	0	0	0.000	Linear	0.000000e+00	0.000000e+00	0.000000e+00	0.000000e+00	0	0	0.000	0.000
3	Nitrogen	0.000	0	0	0.000	Linear	0.000000e+00	0.000000e+00	0.000000e+00	0.000000e+00	0	0	0.000	0.000
4	Methane	0.000	0	0	0.000	Linear	0.000000e+00	0.000000e+00	0.000000e+00	0.000000e+00	0	0	0.000	0.000
5	Carbon Monoxide	0.000	0	0	0.000	Linear	0.000000e+00	0.000000e+00	0.000000e+00	0.000000e+00	0	0	0.000	0.000

[Compound Results(Ch3)]
# of IDs	2
ID#	Name	R.Time	Area	Height	Conc.	Curve	3rd	2nd	1st	Constant	Area Ratio	Height Ratio	Conc. %	Norm Conc.
1	N2O	2.873	19563	5000	0.500	Linear	0.000000e+00	0.000000e+00	3.915173e+004	0.000000e+00	0	0	100.000	100.000
2	SF6	3.452	8633	469	0.000	Linear	0.000000e+00	0.000000e+00	0.000000e+00	0.000000e+00	0	0	0.000	0.000

[Group Results(Ch1)]
# of Groups	0

[Group Results(Ch2)]
# of Groups	0

[Group Results(Ch3)]
# of Groups	0

[Chromatogram (Ch1)]
Interval(msec)	220
# of Points	1091
Start Time(min)	0.002
End Time(min)	3.998
R.Time (min)	Intensity
0.00167	-7
0.00533	-13
0.00900	-20
0.01267	-27
0.01633	-32
0.02000	-33
0.02367	-27
0.02733	-15
0.03100	-4
0.03467	1
0.03833	3
0.04200	3
0.04567	4
0.04933	2
0.05300	-2
0.05667	-5
0.06033	-8
0.06400	-13
0.06767	-16
0.07133	-15
0.07500	-14
0.07867	-13
0.08233	-10
0.08600	-5
0.08967	-4
0.09333	-8
0.09700	-15
0.10067	-22
0.10433	-24
0.10800	-24
0.11167	-19
0.11533	-16
0.11900	-16
0.12267	-14
0.12633	-8
0.13000	-3
0.13367	1
0.13733	1
0.14100	0
0.14467	-1
0.14833	-1
0.15200	-1
0.15567	-0
0.15933	-1
0.16300	-0
0.16667	4
0.17033	11
0.17400	16
0.17767	20
0.18133	21
0.18500	19
0.18867	18
0.19233	16
0.19600	10
0.19967	4
0.20333	1
0.20700	-1
0.21067	-1
0.21433	1
0.21800	2
0.22167	1
0.22533	1
0.22900	2
0.23267	5
0.23633	7
0.24000	7
0.24367	6
0.24733	5
0.25100	3
0.25467	5
0.25833	6
0.26200	10
0.26567	16
0.26933	17
0.27300	10
0.27667	-3
0.28033	-15
0.28400	-21
0.28767	-18
0.29133	-15
0.29500	-8
0.29867	-4
0.30233	-1
0.30600	2
0.30967	-0
0.31333	-6
0.31700	-10
0.32067	-12
0.32433	-13
0.32800	-12
0.33167	-10
0.33533	-10
0.33900	-9
0.34267	-3
0.34633	8
0.35000	18
0.35367	24
0.35733	25
0.36100	23
0.36467	24
0.36833	28
0.37200	30
0.37567	27
0.37933	23
0.38300	22
0.38667	23
0.39033	26
0.39400	31
0.39767	42
0.40133	54
0.40500	62
0.40867	69
0.41233	74
0.41600	81
0.41967	83
0.42333	83
0.42700	81
0.43067	80
0.43433	82
0.43800	87
0.44167	95
0.44533	104
0.44900	109
0.45267	110
0.45633	104
0.46000	94
0.46367	91
0.46733	93
0.47100	92
0.47467	86
0.47833	75
0.48200	62
0.48567	52
0.48933	46
0.49300	43
0.49667	39
0.50033	37
0.50400	35
0.50767	35
0.51133	39
0.51500	42
0.51867	45
0.52233	49
0.52600	47
0.52967	37
0.53333	23
0.53700	10
0.54067	0
0.54433	-12
0.54800	-24
0.55167	-33
0.55533	-35
0.55900	-29
0.56267	-23
0.56633	-22
0.57000	-26
0.57367	-28
0.57733	-27
0.58100	-25
0.58467	-22
0.58833	-22
0.59200	-23
0.59567	-24
0.59933	-22
0.60300	-21
0.60667	-17
0.61033	-14
0.61400	-14
0.61767	-21
0.62133	-28
0.62500	-34
0.62867	-37
0.63233	-41
0.63600	-42
0.63967	-38
0.64333	-33
0.64700	-31
0.65067	-29
0.65433	-28
0.65800	-32
0.66167	-37
0.66533	-43
0.66900	-52
0.67267	-55
0.67633	-49
0.68000	-37
0.68367	-25
0.68733	-13
0.69100	-4
0.69467	-0
0.69833	-6
0.70200	-21
0.70567	-37
0.70933	-47
0.71300	-54
0.71667	-54
0.72033	-50
0.72400	-46
0.72767	-40
0.73133	-34
0.73500	-32
0.73867	-33
0.74233	-32
0.74600	-36
0.74967	-41
0.75333	-42
0.75700	-38
0.76067	-36
0.76433	-31
0.76800	-21
0.77167	-15
0.77533	-12
0.77900	-14
0.78267	-18
0.78633	-19
0.79000	-24
0.79367	-31
0.79733	-41
0.80100	-50
0.80467	-55
0.80833	-54
0.81200	-47
0.81567	-46
0.81933	-48
0.82300	-48
0.82667	-46
0.83033	-42
0.83400	-40
0.83767	-39
0.84133	-38
0.84500	-35
0.84867	-28
0.85233	-22
0.85600	-18
0.85967	-18
0.86333	-19
0.86700	-20
0.87067	-23
0.87433	-24
0.87800	-26
0.88167	-34
0.88533	-42
0.88900	-48
0.89267	-48
0.89633	-44
0.90000	-37
0.90367	-27
0.90733	-21
0.91100	-21
0.91467	-27
0.91833	-35
0.92200	-40
0.92567	-43
0.92933	-49
0.93300	-55
0.93667	-62
0.94033	-66
0.94400	-66
0.94767	-62
0.95133	-58
0.95500	-55
0.95867	-51
0.96233	-47
0.96600	-46
0.96967	-47
0.97333	-47
0.97700	-44
0.98067	-45
0.98433	-48
0.98800	-52
0.99167	-51
0.99533	-42
0.99900	-28
1.00267	-14
1.00633	-7
1.01000	-17
1.01367	-34
1.01733	-46
1.02100	-55
1.02467	-60
1.02833	-61
1.03200	-63
1.03567	-66
1.03933	-70
1.04300	-73
1.04667	-75
1.05033	-75
1.05400	-70
1.05767	-64
1.06133	-54
1.06500	-47
1.06867	-41
1.07233	-35
1.07600	-29
1.07967	-24
1.08333	-18
1.08700	-21
1.09067	-29
1.09433	-41
1.09800	-53
1.10167	-58
1.10533	-55
1.10900	-49
1.11267	-44
1.11633	-42
1.12000	-49
1.12367	-57
1.12733	-64
1.13100	-72
1.13467	-76
1.13833	-80
1.14200	-82
1.14567	-80
1.14933	-76
1.15300	-72
1.15667	-71
1.16033	-69
1.16400	-67
1.16767	-66
1.17133	-62
1.17500	-57
1.17867	-56
1.18233	-59
1.18600	-64
1.18967	-67
1.19333	-65
1.19700	-61
1.20067	-57
1.20433	-53
1.20800	-53
1.21167	-56
1.21533	-59
1.21900	-62
1.22267	-67
1.22633	-69
1.23000	-69
1.23367	-69
1.23733	-67
1.24100	-62
1.24467	-56
1.24833	-54
1.25200	-58
1.25567	-62
1.25933	-61
1.26300	-53
1.26667	-40
1.27033	-34
1.27400	-40
1.27767	-49
1.28133	-59
1.28500	-67
1.28867	-72
1.29233	-74
1.29600	-74
1.29967	-71
1.30333	-67
1.30700	-62
1.31067	-59
1.31433	-59
1.31800	-59
1.32167	-62
1.32533	-66
1.32900	-70
1.33267	-73
1.33633	-77
1.34000	-82
1.34367	-88
1.34733	-92
1.35100	-90
1.35467	-86
1.35833	-84
1.36200	-87
1.36567	-91
1.36933	-95
1.37300	-98
1.37667	-99
1.38033	-95
1.38400	-88
1.38767	-78
1.39133	-70
1.39500	-65
1.39867	-66
1.40233	-64
1.40600	-58
1.40967	-51
1.41333	-47
1.41700	-46
1.42067	-50
1.42433	-54
1.42800	-57
1.43167	-59
1.43533	-59
1.43900	-43
1.44267	31
1.44633	237
1.45000	736
1.45367	1885
1.45733	3829
1.46100	6213
1.46467	8519
1.46833	10412
1.47200	11742
1.47567	12402
1.47933	12279
1.48300	11352
1.48667	9793
1.49033	7929
1.49400	6098
1.49767	4521
1.50133	3276
1.50500	2344
1.50867	1670
1.51233	1195
1.51600	863
1.51967	629
1.52333	466
1.52700	353
1.53067	274
1.53433	222
1.53800	198
1.54167	231
1.54533	380
1.54900	674
1.55267	1070
1.55633	1480
1.56000	1833
1.56367	2089
1.56733	2231
1.57100	2228
1.57467	2063
1.57833	1765
1.58200	1397
1.58567	1039
1.58933	737
1.59300	507
1.59667	343
1.60033	232
1.60400	158
1.60767	106
1.61133	69
1.61500	40
1.61867	17
1.62233	-3
1.62600	-20
1.62967	-34
1.63333	-44
1.63700	-48
1.64067	-44
1.64433	-37
1.64800	-33
1.65167	-30
1.65533	-26
1.65900	-22
1.66267	-21
1.66633	-28
1.67000	-39
1.67367	-49
1.67733	-58
1.68100	-63
1.68467	-62
1.68833	-59
1.69200	-55
1.69567	-55
1.69933	-53
1.70300	-49
1.70667	-42
1.71033	-37
1.71400	-37
1.71767	-35
1.72133	-29
1.72500	-24
1.72867	-22
1.73233	-27
1.73600	-37
1.73967	-48
1.74333	-59
1.74700	-64
1.75067	-66
1.75433	-69
1.75800	-70
1.76167	-67
1.76533	-60
1.76900	-55
1.77267	-51
1.77633	-46
1.78000	-40
1.78367	-35
1.78733	-31
1.79100	-28
1.79467	-27
1.79833	-26
1.80200	-22
1.80567	-23
1.80933	-26
1.81300	-30
1.81667	-31
1.82033	-24
1.82400	-19
1.82767	-23
1.83133	-35
1.83500	-48
1.83867	-56
1.84233	-55
1.84600	-52
1.84967	-52
1.85333	-52
1.85700	-52
1.86067	-51
1.86433	-50
1.86800	-50
1.87167	-49
1.87533	-43
1.87900	-35
1.88267	-28
1.88633	-30
1.89000	-34
1.89367	-39
1.89733	-41
1.90100	-39
1.90467	-39
1.90833	-42
1.91200	-45
1.91567	-47
1.91933	-49
1.92300	-51
1.92667	-51
1.93033	-48
1.93400	-44
1.93767	-44
1.94133	-43
1.94500	-37
1.94867	-27
1.95233	-8
1.95600	77
1.95967	547
1.96333	2719
1.96700	10457
1.97067	31598
1.97433	76593
1.97800	151923
1.98167	253149
1.98533	364963
1.98900	468120
1.99267	546406
1.99633	588351
2.00000	588375
2.00367	548208
2.00733	477283
2.01100	390392
2.01467	302570
2.01833	224602
2.02200	161572
2.02567	113950
2.02933	79640
2.03300	55706
2.03667	39343
2.04033	28276
2.04400	20812
2.04767	15752
2.05133	12284
2.05500	9870
2.05867	8154
2.06233	6907
2.06600	5979
2.06967	5270
2.07333	4710
2.07700	4259
2.08067	3885
2.08433	3573
2.08800	3308
2.09167	3079
2.09533	2880
2.09900	2705
2.10267	2549
2.10633	2409
2.11000	2283
2.11367	2167
2.11733	2062
2.12100	1965
2.12467	1873
2.12833	1786
2.13200	1707
2.13567	1636
2.13933	1574
2.14300	1511
2.14667	1450
2.15033	1397
2.15400	1352
2.15767	1309
2.16133	1269
2.16500	1228
2.16867	1188
2.17233	1153
2.17600	1119
2.17967	1084
2.18333	1049
2.18700	1020
2.19067	993
2.19433	964
2.19800	935
2.20167	905
2.20533	880
2.20900	862
2.21267	853
2.21633	849
2.22000	841
2.22367	830
2.22733	815
2.23100	794
2.23467	766
2.23833	735
2.24200	704
2.24567	674
2.24933	652
2.25300	637
2.25667	628
2.26033	619
2.26400	612
2.26767	608
2.27133	606
2.27500	604
2.27867	600
2.28233	590
2.28600	578
2.28967	564
2.29333	548
2.29700	533
2.30067	519
2.30433	506
2.30800	499
2.31167	498
2.31533	504
2.31900	514
2.32267	524
2.32633	522
2.33000	508
2.33367	487
2.33733	466
2.34100	454
2.34467	446
2.34833	440
2.35200	431
2.35567	424
2.35933	423
2.36300	422
2.36667	419
2.37033	409
2.37400	397
2.37767	389
2.38133	384
2.38500	377
2.38867	370
2.39233	368
2.39600	371
2.39967	375
2.40333	380
2.40700	386
2.41067	390
2.41433	391
2.41800	388
2.42167	381
2.42533	374
2.42900	366
2.43267	358
2.43633	351
2.44000	347
2.44367	345
2.44733	345
2.45100	349
2.45467	354
2.45833	359
2.46200	358
2.46567	353
2.46933	349
2.47300	347
2.47667	345
2.48033	346
2.48400	350
2.48767	352
2.49133	351
2.49500	348
2.49867	345
2.50233	343
2.50600	340
2.50967	334
2.51333	331
2.51700	333
2.52067	341
2.52433	351
2.52800	356
2.53167	356
2.53533	353
2.53900	349
2.54267	342
2.54633	334
2.55000	326
2.55367	319
2.55733	312
2.56100	303
2.56467	298
2.56833	293
2.57200	292
2.57567	295
2.57933	302
2.58300	310
2.58667	319
2.59033	325
2.59400	330
2.59767	334
2.60133	335
2.60500	328
2.60867	318
2.61233	305
2.61600	294
2.61967	288
2.62333	287
2.62700	290
2.63067	296
2.63433	298
2.63800	297
2.64167	294
2.64533	292
2.64900	297
2.65267	308
2.65633	317
2.66000	318
2.66367	314
2.66733	313
2.67100	319
2.67467	324
2.67833	330
2.68200	333
2.68567	335
2.68933	339
2.69300	339
2.69667	333
2.70033	323
2.70400	317
2.70767	317
2.71133	323
2.71500	333
2.71867	342
2.72233	347
2.72600	344
2.72967	339
2.73333	337
2.73700	336
2.74067	332
2.74433	328
2.74800	328
2.75167	334
2.75533	340
2.75900	340
2.76267	335
2.76633	330
2.77000	327
2.77367	325
2.77733	322
2.78100	318
2.78467	312
2.78833	308
2.79200	307
2.79567	309
2.79933	319
2.80300	337
2.80667	357
2.81033	371
2.81400	369
2.81767	356
2.82133	340
2.82500	324
2.82867	313
2.83233	310
2.83600	308
2.83967	309
2.84333	317
2.84700	326
2.85067	328
2.85433	325
2.85800	326
2.86167	329
2.86533	332
2.86900	337
2.87267	340
2.87633	337
2.88000	330
2.88367	322
2.88733	318
2.89100	315
2.89467	313
2.89833	310
2.90200	307
2.90567	309
2.90933	318
2.91300	328
2.91667	338
2.92033	348
2.92400	354
2.92767	362
2.93133	368
2.93500	368
2.93867	364
2.94233	361
2.94600	357
2.94967	348
2.95333	335
2.95700	323
2.96067	316
2.96433	318
2.96800	324
2.97167	328
2.97533	332
2.97900	342
2.98267	351
2.98633	361
2.99000	372
2.99367	377
2.99733	380
3.00100	385
3.00467	387
3.00833	383
3.01200	376
3.01567	370
3.01933	365
3.02300	363
3.02667	366
3.03033	369
3.03400	371
3.03767	371
3.04133	369
3.04500	362
3.04867	354
3.05233	351
3.05600	351
3.05967	348
3.06333	344
3.06700	342
3.07067	342
3.07433	345
3.07800	350
3.08167	356
3.08533	359
3.08900	357
3.09267	355
3.09633	357
3.10000	361
3.10367	365
3.10733	370
3.11100	374
3.11467	379
3.11833	386
3.12200	391
3.12567	394
3.12933	391
3.13300	383
3.13667	369
3.14033	354
3.14400	341
3.14767	332
3.15133	328
3.15500	328
3.15867	329
3.16233	331
3.16600	335
3.16967	343
3.17333	352
3.17700	360
3.18067	366
3.18433	363
3.18800	359
3.19167	355
3.19533	347
3.19900	336
3.20267	327
3.20633	323
3.21000	325
3.21367	331
3.21733	342
3.22100	351
3.22467	357
3.22833	363
3.23200	367
3.23567	367
3.23933	364
3.24300	359
3.24667	354
3.25033	346
3.25400	340
3.25767	338
3.26133	340
3.26500	346
3.26867	352
3.27233	356
3.27600	359
3.27967	358
3.28333	354
3.28700	351
3.29067	347
3.29433	345
3.29800	342
3.30167	339
3.30533	339
3.30900	345
3.31267	349
3.31633	347
3.32000	342
3.32367	334
3.32733	330
3.33100	332
3.33467	335
3.33833	336
3.34200	338
3.34567	336
3.34933	328
3.35300	318
3.35667	308
3.36033	302
3.36400	301
3.36767	303
3.37133	304
3.37500	308
3.37867	313
3.38233	319
3.38600	329
3.38967	339
3.39333	347
3.39700	348
3.40067	343
3.40433	333
3.40800	324
3.41167	317
3.41533	317
3.41900	320
3.42267	325
3.42633	332
3.43000	341
3.43367	345
3.43733	345
3.44100	340
3.44467	333
3.44833	327
3.45200	322
3.45567	321
3.45933	327
3.46300	336
3.46667	339
3.47033	338
3.47400	335
3.47767	330
3.48133	322
3.48500	315
3.48867	313
3.49233	317
3.49600	325
3.49967	330
3.50333	331
3.50700	326
3.51067	319
3.51433	312
3.51800	303
3.52167	299
3.52533	303
3.52900	311
3.53267	319
3.53633	325
3.54000	324
3.54367	322
3.54733	323
3.55100	322
3.55467	322
3.55833	325
3.56200	327
3.56567	329
3.56933	329
3.57300	327
3.57667	324
3.58033	321
3.58400	319
3.58767	320
3.59133	324
3.59500	324
3.59867	320
3.60233	311
3.60600	303
3.60967	295
3.61333	287
3.61700	280
3.62067	278
3.62433	282
3.62800	290
3.63167	300
3.63533	310
3.63900	316
3.64267	319
3.64633	317
3.65000	312
3.65367	306
3.65733	298
3.66100	294
3.66467	294
3.66833	294
3.67200	295
3.67567	294
3.67933	293
3.68300	293
3.68667	292
3.69033	291
3.69400	291
3.69767	290
3.70133	289
3.70500	291
3.70867	299
3.71233	304
3.71600	302
3.71967	296
3.72333	289
3.72700	285
3.73067	286
3.73433	284
3.73800	285
3.74167	291
3.74533	296
3.74900	299
3.75267	298
3.75633	292
3.76000	284
3.76367	277
3.76733	276
3.77100	277
3.77467	278
3.77833	275
3.78200	272
3.78567	271
3.78933	272
3.79300	271
3.79667	273
3.80033	275
3.80400	269
3.80767	259
3.81133	249
3.81500	245
3.81867	246
3.82233	251
3.82600	255
3.82967	256
3.83333	261
3.83700	268
3.84067	272
3.84433	272
3.84800	268
3.85167	262
3.85533	255
3.85900	252
3.86267	256
3.86633	262
3.87000	266
3.87367	264
3.87733	260
3.88100	258
3.88467	260
3.88833	262
3.89200	265
3.89567	271
3.89933	277
3.90300	277
3.90667	272
3.91033	263
3.91400	254
3.91767	250
3.92133	252
3.92500	256
3.92867	256
3.93233	254
3.93600	252
3.93967	247
3.94333	243
3.94700	243
3.95067	248
3.95433	253
3.95800	255
3.96167	257
3.96533	262
3.96900	267
3.97267	270
3.97633	269
3.98000	265
3.98367	262
3.98733	262
3.99100	263
3.99467	261
3.99833	260

[Chromatogram (Ch2)]
Interval(msec)	220
# of Points	1091
Start Time(min)	0.002
End Time(min)	3.998
R.Time (min)	Intensity
0.00167	-0
0.00533	-0
0.00900	-0
0.01267	-0
0.01633	-0
0.02000	-0
0.02367	-0
0.02733	-0
0.03100	0
0.03467	0
0.03833	0
0.04200	0
0.04567	-0
0.04933	-0
0.05300	-0
0.05667	-1
0.06033	-1
0.06400	-1
0.06767	-1
0.07133	-1
0.07500	-2
0.07867	-2
0.08233	-2
0.08600	-2
0.08967	-3
0.09333	-3
0.09700	-3
0.10067	-3
0.10433	-3
0.10800	-3
0.11167	-3
0.11533	-3
0.11900	-3
0.12267	-3
0.12633	-3
0.13000	-2
0.13367	-2
0.13733	-2
0.14100	-2
0.14467	-2
0.14833	-2
0.15200	-2
0.15567	-3
0.15933	-3
0.16300	-3
0.16667	-3
0.17033	-4
0.17400	-4
0.17767	-4
0.18133	-4
0.18500	-4
0.18867	-4
0.19233	-4
0.19600	-4
0.19967	-4
0.20333	-4
0.20700	-4
0.21067	-4
0.21433	-4
0.21800	-4
0.22167	-3
0.22533	-3
0.22900	-3
0.23267	-2
0.23633	-2
0.24000	-2
0.24367	-1
0.24733	-1
0.25100	-1
0.25467	-0
0.25833	-0
0.26200	-0
0.26567	-1
0.26933	-1
0.27300	-1
0.27667	-1
0.28033	-2
0.28400	-2
0.28767	-2
0.29133	-2
0.29500	-2
0.29867	-2
0.30233	-2
0.30600	-2
0.30967	-2
0.31333	-3
0.31700	-3
0.32067	-3
0.32433	-3
0.32800	-3
0.33167	-4
0.33533	-4
0.33900	-4
0.34267	-4
0.34633	-4
0.35000	-4
0.35367	-5
0.35733	-5
0.36100	-5
0.36467	-5
0.36833	-5
0.37200	-5
0.37567	-4
0.37933	-4
0.38300	-4
0.38667	-4
0.39033	-4
0.39400	-4
0.39767	-4
0.40133	-4
0.40500	-5
0.40867	-5
0.41233	-5
0.41600	-4
0.41967	-4
0.42333	-4
0.42700	-4
0.43067	-3
0.43433	-3
0.43800	-3
0.44167	-3
0.44533	-3
0.44900	-3
0.45267	-2
0.45633	-2
0.46000	-2
0.46367	-2
0.46733	-2
0.47100	-2
0.47467	-2
0.47833	-2
0.48200	-1
0.48567	-1
0.48933	-1
0.49300	-1
0.49667	-1
0.50033	-1
0.50400	-1
0.50767	-1
0.51133	-1
0.51500	-2
0.51867	-2
0.52233	-3
0.52600	-3
0.52967	-3
0.53333	-3
0.53700	-4
0.54067	-4
0.54433	-4
0.54800	-4
0.55167	-5
0.55533	-5
0.55900	-5
0.56267	-5
0.56633	-5
0.57000	-5
0.57367	-5
0.57733	-5
0.58100	-5
0.58467	-5
0.58833	-6
0.59200	-6
0.59567	-6
0.59933	-7
0.60300	-7
0.60667	-7
0.61033	-7
0.61400	-7
0.61767	-7
0.62133	-7
0.62500	-7
0.62867	-7
0.63233	-7
0.63600	-7
0.63967	-7
0.64333	-7
0.64700	-6
0.65067	-6
0.65433	-5
0.65800	-5
0.66167	-5
0.66533	-5
0.66900	-5
0.67267	-5
0.67633	-5
0.68000	-5
0.68367	-5
0.68733	-5
0.69100	-4
0.69467	-4
0.69833	-4
0.70200	-3
0.70567	-3
0.70933	-3
0.71300	-3
0.71667	-4
0.72033	-4
0.72400	-5
0.72767	-5
0.73133	-5
0.73500	-5
0.73867	-5
0.74233	-6
0.74600	-6
0.74967	-6
0.75333	-6
0.75700	-6
0.76067	-6
0.76433	-5
0.76800	-5
0.77167	-5
0.77533	-5
0.77900	-5
0.78267	-5
0.78633	-5
0.79000	-5
0.79367	-5
0.79733	-5
0.80100	-6
0.80467	-6
0.80833	-6
0.81200	-6
0.81567	-6
0.81933	-6
0.82300	-6
0.82667	-6
0.83033	-6
0.83400	-6
0.83767	-6
0.84133	-6
0.84500	-6
0.84867	-6
0.85233	-6
0.85600	-6
0.85967	-6
0.86333	-7
0.86700	-7
0.87067	-7
0.87433	-6
0.87800	-6
0.88167	-5
0.88533	-5
0.88900	-4
0.89267	-4
0.89633	-3
0.90000	-3
0.90367	-3
0.90733	-3
0.91100	-3
0.91467	-3
0.91833	-3
0.92200	-3
0.92567	-3
0.92933	-3
0.93300	-3
0.93667	-3
0.94033	-2
0.94400	-2
0.94767	-2
0.95133	-3
0.95500	-3
0.95867	-3
0.96233	-3
0.96600	-4
0.96967	-4
0.97333	-4
0.97700	-4
0.98067	-4
0.98433	-4
0.98800	-4
0.99167	-4
0.99533	-5
0.99900	-5
1.00267	-5
1.00633	-5
1.01000	-5
1.01367	-5
1.01733	-5
1.02100	-4
1.02467	-4
1.02833	-4
1.03200	-4
1.03567	-4
1.03933	-4
1.04300	-4
1.04667	-4
1.05033	-4
1.05400	-4
1.05767	-5
1.06133	-5
1.06500	-4
1.06867	-4
1.07233	-4
1.07600	-4
1.07967	-4
1.08333	-5
1.08700	-5
1.09067	-5
1.09433	-5
1.09800	-5
1.10167	-4
1.10533	-4
1.10900	-4
1.11267	-4
1.11633	-4
1.12000	-4
1.12367	-5
1.12733	-5
1.13100	-5
1.13467	-5
1.13833	-6
1.14200	-6
1.14567	-6
1.14933	-6
1.15300	-5
1.15667	-5
1.16033	-5
1.16400	-5
1.16767	-5
1.17133	-5
1.17500	-5
1.17867	-5
1.18233	-5
1.18600	-5
1.18967	-4
1.19333	-4
1.19700	-4
1.20067	-4
1.20433	-4
1.20800	-4
1.21167	-4
1.21533	-3
1.21900	-3
1.22267	-3
1.22633	-3
1.23000	-3
1.23367	-2
1.23733	-2
1.24100	-2
1.24467	-2
1.24833	-2
1.25200	-2
1.25567	-2
1.25933	-3
1.26300	-3
1.26667	-4
1.27033	-4
1.27400	-5
1.27767	-6
1.28133	-6
1.28500	-7
1.28867	-7
1.29233	-8
1.29600	-8
1.29967	-8
1.30333	-8
1.30700	-8
1.31067	-8
1.31433	-8
1.31800	-8
1.32167	-8
1.32533	-7
1.32900	-7
1.33267	-7
1.33633	-6
1.34000	-6
1.34367	-6
1.34733	-6
1.35100	-6
1.35467	-6
1.35833	-5
1.36200	-5
1.36567	-5
1.36933	-4
1.37300	-3
1.37667	-3
1.38033	-3
1.38400	-3
1.38767	-3
1.39133	-3
1.39500	-3
1.39867	-3
1.40233	-2
1.40600	-2
1.40967	-2
1.41333	-2
1.41700	-2
1.42067	-2
1.42433	-2
1.42800	-3
1.43167	-3
1.43533	-3
1.43900	-4
1.44267	-4
1.44633	-5
1.45000	-5
1.45367	-5
1.45733	-4
1.46100	-4
1.46467	-4
1.46833	-4
1.47200	-4
1.47567	-4
1.47933	-4
1.48300	-4
1.48667	-4
1.49033	-4
1.49400	-5
1.49767	-5
1.50133	-5
1.50500	-5
1.50867	-5
1.51233	-5
1.51600	-5
1.51967	-5
1.52333	-5
1.52700	-5
1.53067	-6
1.53433	-6
1.53800	-6
1.54167	-6
1.54533	-7
1.54900	-7
1.55267	-8
1.55633	-8
1.56000	-8
1.56367	-9
1.56733	-9
1.57100	-9
1.57467	-8
1.57833	-8
1.58200	-8
1.58567	-8
1.58933	-8
1.59300	-8
1.59667	-9
1.60033	-9
1.60400	-10
1.60767	-12
1.61133	-14
1.61500	-16
1.61867	-19
1.62233	-22
1.62600	-26
1.62967	-29
1.63333	-33
1.63700	-37
1.64067	-40
1.64433	-44
1.64800	-47
1.65167	-50
1.65533	-53
1.65900	-56
1.66267	-59
1.66633	-62
1.67000	-66
1.67367	-69
1.67733	-74
1.68100	-78
1.68467	-83
1.68833	-88
1.69200	-93
1.69567	-97
1.69933	-101
1.70300	-104
1.70667	-106
1.71033	-108
1.71400	-109
1.71767	-110
1.72133	-111
1.72500	-111
1.72867	-111
1.73233	-111
1.73600	-111
1.73967	-111
1.74333	-112
1.74700	-113
1.75067	-114
1.75433	-115
1.75800	-117
1.76167	-118
1.76533	-120
1.76900	-120
1.77267	-121
1.77633	-121
1.78000	-122
1.78367	-121
1.78733	-121
1.79100	-120
1.79467	-120
1.79833	-118
1.80200	-117
1.80567	-116
1.80933	-115
1.81300	-115
1.81667	-115
1.82033	-116
1.82400	-117
1.82767	-118
1.83133	-119
1.83500	-119
1.83867	-120
1.84233	-120
1.84600	-120
1.84967	-121
1.85333	-121
1.85700	-121
1.86067	-121
1.86433	-120
1.86800	-120
1.87167	-119
1.87533	-119
1.87900	-119
1.88267	-119
1.88633	-119
1.89000	-120
1.89367	-119
1.89733	-119
1.90100	-119
1.90467	-119
1.90833	-119
1.91200	-119
1.91567	-119
1.91933	-118
1.92300	-117
1.92667	-117
1.93033	-116
1.93400	-115
1.93767	-115
1.94133	-115
1.94500	-115
1.94867	-116
1.95233	-116
1.95600	-116
1.95967	-117
1.96333	-117
1.96700	-117
1.97067	-117
1.97433	-117
1.97800	-116
1.98167	-116
1.98533	-116
1.98900	-116
1.99267	-116
1.99633	-115
2.00000	-115
2.00367	-114
2.00733	-114
2.01100	-113
2.01467	-112
2.01833	-112
2.02200	-111
2.02567	-111
2.02933	-111
2.03300	-111
2.03667	-111
2.04033	-110
2.04400	-110
2.04767	-110
2.05133	-109
2.05500	-108
2.05867	-108
2.06233	-107
2.06600	-106
2.06967	-106
2.07333	-105
2.07700	-105
2.08067	-105
2.08433	-105
2.08800	-105
2.09167	-105
2.09533	-104
2.09900	-104
2.10267	-104
2.10633	-103
2.11000	-103
2.11367	-103
2.11733	-104
2.12100	-104
2.12467	-104
2.12833	-104
2.13200	-104
2.13567	-103
2.13933	-103
2.14300	-103
2.14667	-102
2.15033	-102
2.15400	-102
2.15767	-102
2.16133	-101
2.16500	-101
2.16867	-100
2.17233	-99
2.17600	-98
2.17967	-97
2.18333	-97
2.18700	-96
2.19067	-96
2.19433	-95
2.19800	-95
2.20167	-95
2.20533	-96
2.20900	-96
2.21267	-96
2.21633	-96
2.22000	-96
2.22367	-96
2.22733	-96
2.23100	-96
2.23467	-95
2.23833	-95
2.24200	-94
2.24567	-94
2.24933	-93
2.25300	-93
2.25667	-93
2.26033	-93
2.26400	-93
2.26767	-93
2.27133	-92
2.27500	-92
2.27867	-92
2.28233	-91
2.28600	-90
2.28967	-89
2.29333	-89
2.29700	-88
2.30067	-88
2.30433	-88
2.30800	-88
2.31167	-88
2.31533	-88
2.31900	-88
2.32267	-88
2.32633	-88
2.33000	-87
2.33367	-86
2.33733	-85
2.34100	-84
2.34467	-82
2.34833	-81
2.35200	-79
2.35567	-78
2.35933	-77
2.36300	-77
2.36667	-76
2.37033	-75
2.37400	-73
2.37767	-70
2.38133	-67
2.38500	-64
2.38867	-61
2.39233	-57
2.39600	-53
2.39967	-50
2.40333	-46
2.40700	-42
2.41067	-38
2.41433	-34
2.41800	-31
2.42167	-28
2.42533	-25
2.42900	-23
2.43267	-21
2.43633	-20
2.44000	-18
2.44367	-17
2.44733	-16
2.45100	-14
2.45467	-12
2.45833	-11
2.46200	-9
2.46567	-7
2.46933	-6
2.47300	-4
2.47667	-3
2.48033	-2
2.48400	-0
2.48767	1
2.49133	2
2.49500	3
2.49867	4
2.50233	5
2.50600	5
2.50967	6
2.51333	6
2.51700	7
2.52067	7
2.52433	8
2.52800	8
2.53167	9
2.53533	9
2.53900	10
2.54267	10
2.54633	11
2.55000	11
2.55367	11
2.55733	11
2.56100	11
2.56467	11
2.56833	11
2.57200	12
2.57567	12
2.57933	12
2.58300	12
2.58667	13
2.59033	13
2.59400	13
2.59767	12
2.60133	12
2.60500	12
2.60867	12
2.61233	12
2.61600	12
2.61967	13
2.62333	13
2.62700	14
2.63067	14
2.63433	15
2.63800	15
2.64167	15
2.64533	16
2.64900	16
2.65267	16
2.65633	16
2.66000	16
2.66367	16
2.66733	16
2.67100	16
2.67467	16
2.67833	16
2.68200	17
2.68567	17
2.68933	18
2.69300	19
2.69667	19
2.70033	20
2.70400	20
2.70767	20
2.71133	21
2.71500	21
2.71867	21
2.72233	21
2.72600	21
2.72967	21
2.73333	21
2.73700	20
2.74067	20
2.74433	19
2.74800	19
2.75167	19
2.75533	18
2.75900	19
2.76267	19
2.76633	19
2.77000	20
2.77367	20
2.77733	20
2.78100	21
2.78467	22
2.78833	22
2.79200	22
2.79567	22
2.79933	23
2.80300	23
2.80667	23
2.81033	23
2.81400	23
2.81767	23
2.82133	24
2.82500	24
2.82867	24
2.83233	24
2.83600	23
2.83967	21
2.84333	18
2.84700	14
2.85067	7
2.85433	-4
2.85800	-17
2.86167	-35
2.86533	-57
2.86900	-83
2.87267	-113
2.87633	-148
2.88000	-186
2.88367	-228
2.88733	-273
2.89100	-320
2.89467	-370
2.89833	-422
2.90200	-475
2.90567	-529
2.90933	-583
2.91300	-638
2.91667	-692
2.92033	-745
2.92400	-797
2.92767	-848
2.93133	-902
2.93500	-959
2.93867	-1019
2.94233	-1072
2.94600	-1107
2.94967	-1117
2.95333	-1101
2.95700	-1062
2.96067	-1004
2.96433	-933
2.96800	-854
2.97167	-772
2.97533	-691
2.97900	-613
2.98267	-540
2.98633	-473
2.99000	-411
2.99367	-356
2.99733	-307
3.00100	-263
3.00467	-225
3.00833	-192
3.01200	-163
3.01567	-139
3.01933	-117
3.02300	-99
3.02667	-83
3.03033	-70
3.03400	-58
3.03767	-48
3.04133	-40
3.04500	-32
3.04867	-26
3.05233	-20
3.05600	-16
3.05967	-12
3.06333	-9
3.06700	-6
3.07067	-4
3.07433	-2
3.07800	-0
3.08167	1
3.08533	3
3.08900	4
3.09267	5
3.09633	6
3.10000	7
3.10367	7
3.10733	8
3.11100	9
3.11467	10
3.11833	10
3.12200	11
3.12567	12
3.12933	12
3.13300	13
3.13667	13
3.14033	13
3.14400	13
3.14767	14
3.15133	14
3.15500	14
3.15867	14
3.16233	14
3.16600	14
3.16967	15
3.17333	15
3.17700	15
3.18067	16
3.18433	16
3.18800	17
3.19167	17
3.19533	17
3.19900	18
3.20267	18
3.20633	18
3.21000	18
3.21367	18
3.21733	17
3.22100	17
3.22467	17
3.22833	17
3.23200	17
3.23567	18
3.23933	18
3.24300	18
3.24667	18
3.25033	18
3.25400	18
3.25767	19
3.26133	19
3.26500	19
3.26867	20
3.27233	20
3.27600	20
3.27967	20
3.28333	20
3.28700	20
3.29067	20
3.29433	20
3.29800	20
3.30167	20
3.30533	20
3.30900	20
3.31267	20
3.31633	20
3.32000	20
3.32367	20
3.32733	20
3.33100	20
3.33467	20
3.33833	20
3.34200	21
3.34567	21
3.34933	21
3.35300	21
3.35667	21
3.36033	21
3.36400	20
3.36767	20
3.37133	20
3.37500	20
3.37867	21
3.38233	21
3.38600	21
3.38967	21
3.39333	22
3.39700	22
3.40067	22
3.40433	23
3.40800	23
3.41167	23
3.41533	23
3.41900	23
3.42267	24
3.42633	24
3.43000	24
3.43367	25
3.43733	25
3.44100	25
3.44467	25
3.44833	25
3.45200	25
3.45567	25
3.45933	26
3.46300	26
3.46667	26
3.47033	26
3.47400	26
3.47767	26
3.48133	26
3.48500	26
3.48867	26
3.49233	26
3.49600	26
3.49967	26
3.50333	26
3.50700	25
3.51067	25
3.51433	25
3.51800	25
3.52167	25
3.52533	26
3.52900	26
3.53267	26
3.53633	26
3.54000	26
3.54367	26
3.54733	25
3.55100	25
3.55467	25
3.55833	25
3.56200	25
3.56567	25
3.56933	24
3.57300	24
3.57667	23
3.58033	23
3.58400	22
3.58767	22
3.59133	21
3.59500	21
3.59867	21
3.60233	21
3.60600	21
3.60967	21
3.61333	21
3.61700	21
3.62067	21
3.62433	21
3.62800	21
3.63167	21
3.63533	21
3.63900	21
3.64267	21
3.64633	21
3.65000	21
3.65367	21
3.65733	21
3.66100	21
3.66467	21
3.66833	21
3.67200	21
3.67567	21
3.67933	21
3.68300	21
3.68667	22
3.69033	22
3.69400	22
3.69767	22
3.70133	22
3.70500	22
3.70867	22
3.71233	22
3.71600	22
3.71967	22
3.72333	22
3.72700	22
3.73067	22
3.73433	22
3.73800	22
3.74167	22
3.74533	22
3.74900	22
3.75267	22
3.75633	22
3.76000	22
3.76367	22
3.76733	22
3.77100	22
3.77467	22
3.77833	22
3.78200	23
3.78567	23
3.78933	23
3.79300	23
3.79667	23
3.80033	23
3.80400	23
3.80767	23
3.81133	23
3.81500	23
3.81867	23
3.82233	23
3.82600	23
3.82967	23
3.83333	23
3.83700	23
3.84067	23
3.84433	23
3.84800	23
3.85167	23
3.85533	23
3.85900	23
3.86267	23
3.86633	24
3.87000	24
3.87367	24
3.87733	24
3.88100	23
3.88467	23
3.88833	23
3.89200	23
3.89567	23
3.89933	23
3.90300	23
3.90667	23
3.91033	22
3.91400	22
3.91767	22
3.92133	22
3.92500	22
3.92867	22
3.93233	22
3.93600	22
3.93967	22
3.94333	22
3.94700	22
3.95067	22
3.95433	22
3.95800	22
3.96167	22
3.96533	21
3.96900	21
3.97267	21
3.97633	21
3.98000	22
3.98367	22
3.98733	22
3.99100	22
3.99467	22
3.99833	22

[Chromatogram (Ch3)]
Interval(msec)	220
# of Points	1091
Start Time(min)	0.002
End Time(min)	3.998
R.Time (min)	Intensity
0.00167	-1
0.00533	-2
0.00900	-3
0.01267	-5
0.01633	-6
0.02000	-6
0.02367	-7
0.02733	-7
0.03100	-6
0.03467	-6
0.03833	-8
0.04200	-10
0.04567	-9
0.04933	-9
0.05300	-11
0.05667	-10
0.06033	-6
0.06400	-8
0.06767	-12
0.07133	-12
0.07500	-11
0.07867	-10
0.08233	-9
0.08600	-6
0.08967	-5
0.09333	-4
0.09700	-3
0.10067	-2
0.10433	-1
0.10800	-1
0.11167	1
0.11533	3
0.11900	2
0.12267	-1
0.12633	-2
0.13000	-4
0.13367	-5
0.13733	-5
0.14100	-4
0.14467	-2
0.14833	-2
0.15200	-4
0.15567	-4
0.15933	-4
0.16300	-3
0.16667	-3
0.17033	-3
0.17400	-3
0.17767	-3
0.18133	-4
0.18500	-5
0.18867	-6
0.19233	-6
0.19600	-8
0.19967	-9
0.20333	-9
0.20700	-8
0.21067	-8
0.21433	-7
0.21800	-7
0.22167	-9
0.22533	-10
0.22900	-10
0.23267	-8
0.23633	-5
0.24000	-4
0.24367	-4
0.24733	-5
0.25100	-8
0.25467	-9
0.25833	-7
0.26200	-5
0.26567	-6
0.26933	-8
0.27300	-8
0.27667	-6
0.28033	-8
0.28400	-13
0.28767	-14
0.29133	-14
0.29500	-11
0.29867	-8
0.30233	-7
0.30600	-6
0.30967	-7
0.31333	-8
0.31700	-5
0.32067	-4
0.32433	-5
0.32800	-6
0.33167	-7
0.33533	-8
0.33900	-8
0.34267	-10
0.34633	-12
0.35000	-11
0.35367	-10
0.35733	-9
0.36100	-7
0.36467	-7
0.36833	-7
0.37200	-8
0.37567	-9
0.37933	-9
0.38300	-8
0.38667	-9
0.39033	-10
0.39400	-10
0.39767	-8
0.40133	-9
0.40500	-9
0.40867	-10
0.41233	-10
0.41600	-9
0.41967	-9
0.42333	-9
0.42700	-8
0.43067	-7
0.43433	-6
0.43800	-8
0.44167	-9
0.44533	-10
0.44900	-9
0.45267	-9
0.45633	-9
0.46000	-10
0.46367	-9
0.46733	-10
0.47100	-11
0.47467	-12
0.47833	-13
0.48200	-12
0.48567	-11
0.48933	-9
0.49300	-7
0.49667	-6
0.50033	-7
0.50400	-6
0.50767	-6
0.51133	-7
0.51500	-8
0.51867	-9
0.52233	-7
0.52600	-5
0.52967	-5
0.53333	-5
0.53700	-6
0.54067	-7
0.54433	-8
0.54800	-9
0.55167	-8
0.55533	-8
0.55900	-7
0.56267	-6
0.56633	-6
0.57000	-6
0.57367	-7
0.57733	-8
0.58100	-8
0.58467	-9
0.58833	-10
0.59200	-8
0.59567	-6
0.59933	-5
0.60300	-6
0.60667	-8
0.61033	-9
0.61400	-7
0.61767	-4
0.62133	-4
0.62500	-7
0.62867	-11
0.63233	-13
0.63600	-13
0.63967	-12
0.64333	-12
0.64700	-12
0.65067	-11
0.65433	-9
0.65800	-7
0.66167	-6
0.66533	-7
0.66900	-8
0.67267	-7
0.67633	-6
0.68000	-5
0.68367	-2
0.68733	1
0.69100	1
0.69467	-1
0.69833	-2
0.70200	-0
0.70567	-1
0.70933	-3
0.71300	-4
0.71667	-5
0.72033	-6
0.72400	-5
0.72767	-3
0.73133	-3
0.73500	-2
0.73867	-2
0.74233	-3
0.74600	-3
0.74967	-2
0.75333	-2
0.75700	-2
0.76067	-5
0.76433	-7
0.76800	-6
0.77167	-5
0.77533	-4
0.77900	-5
0.78267	-4
0.78633	-4
0.79000	-3
0.79367	-2
0.79733	-2
0.80100	-2
0.80467	-2
0.80833	-2
0.81200	-2
0.81567	-3
0.81933	-3
0.82300	-5
0.82667	-6
0.83033	-6
0.83400	-6
0.83767	-6
0.84133	-4
0.84500	-3
0.84867	-3
0.85233	-4
0.85600	-4
0.85967	-3
0.86333	0
0.86700	1
0.87067	1
0.87433	0
0.87800	0
0.88167	-0
0.88533	2
0.88900	2
0.89267	2
0.89633	2
0.90000	2
0.90367	1
0.90733	-2
0.91100	-2
0.91467	-2
0.91833	-1
0.92200	1
0.92567	-1
0.92933	-3
0.93300	-3
0.93667	-3
0.94033	-5
0.94400	-7
0.94767	-7
0.95133	-6
0.95500	-5
0.95867	-2
0.96233	-1
0.96600	-1
0.96967	-2
0.97333	-1
0.97700	0
0.98067	2
0.98433	2
0.98800	0
0.99167	-0
0.99533	-2
0.99900	-1
1.00267	-0
1.00633	0
1.01000	1
1.01367	1
1.01733	1
1.02100	-1
1.02467	-2
1.02833	-1
1.03200	-2
1.03567	0
1.03933	3
1.04300	2
1.04667	2
1.05033	1
1.05400	-0
1.05767	0
1.06133	2
1.06500	2
1.06867	-1
1.07233	-3
1.07600	-2
1.07967	-2
1.08333	-1
1.08700	-2
1.09067	-3
1.09433	-2
1.09800	0
1.10167	0
1.10533	-1
1.10900	-1
1.11267	-3
1.11633	-2
1.12000	-2
1.12367	-3
1.12733	-1
1.13100	1
1.13467	2
1.13833	1
1.14200	2
1.14567	3
1.14933	3
1.15300	4
1.15667	4
1.16033	6
1.16400	8
1.16767	9
1.17133	9
1.17500	7
1.17867	4
1.18233	5
1.18600	9
1.18967	10
1.19333	8
1.19700	4
1.20067	2
1.20433	2
1.20800	2
1.21167	5
1.21533	5
1.21900	3
1.22267	-1
1.22633	-2
1.23000	-2
1.23367	0
1.23733	1
1.24100	2
1.24467	4
1.24833	6
1.25200	9
1.25567	11
1.25933	10
1.26300	7
1.26667	6
1.27033	6
1.27400	4
1.27767	2
1.28133	2
1.28500	3
1.28867	7
1.29233	7
1.29600	6
1.29967	5
1.30333	4
1.30700	2
1.31067	-0
1.31433	-1
1.31800	-2
1.32167	-2
1.32533	0
1.32900	3
1.33267	5
1.33633	4
1.34000	5
1.34367	7
1.34733	8
1.35100	8
1.35467	7
1.35833	7
1.36200	6
1.36567	6
1.36933	6
1.37300	6
1.37667	6
1.38033	6
1.38400	5
1.38767	4
1.39133	5
1.39500	6
1.39867	8
1.40233	10
1.40600	9
1.40967	8
1.41333	6
1.41700	4
1.42067	4
1.42433	4
1.42800	3
1.43167	3
1.43533	4
1.43900	3
1.44267	3
1.44633	5
1.45000	7
1.45367	9
1.45733	8
1.46100	6
1.46467	6
1.46833	7
1.47200	8
1.47567	9
1.47933	7
1.48300	7
1.48667	7
1.49033	7
1.49400	6
1.49767	7
1.50133	8
1.50500	7
1.50867	6
1.51233	6
1.51600	7
1.51967	6
1.52333	5
1.52700	7
1.53067	6
1.53433	3
1.53800	1
1.54167	2
1.54533	2
1.54900	2
1.55267	2
1.55633	2
1.56000	4
1.56367	7
1.56733	8
1.57100	9
1.57467	10
1.57833	10
1.58200	9
1.58567	8
1.58933	7
1.59300	4
1.59667	1
1.60033	2
1.60400	5
1.60767	5
1.61133	7
1.61500	9
1.61867	10
1.62233	11
1.62600	12
1.62967	12
1.63333	12
1.63700	13
1.64067	14
1.64433	14
1.64800	14
1.65167	14
1.65533	13
1.65900	12
1.66267	11
1.66633	11
1.67000	13
1.67367	13
1.67733	14
1.68100	15
1.68467	16
1.68833	16
1.69200	15
1.69567	16
1.69933	16
1.70300	17
1.70667	19
1.71033	19
1.71400	21
1.71767	20
1.72133	19
1.72500	18
1.72867	18
1.73233	17
1.73600	17
1.73967	18
1.74333	19
1.74700	21
1.75067	22
1.75433	22
1.75800	23
1.76167	25
1.76533	25
1.76900	26
1.77267	25
1.77633	24
1.78000	24
1.78367	23
1.78733	23
1.79100	23
1.79467	24
1.79833	25
1.80200	25
1.80567	25
1.80933	24
1.81300	23
1.81667	25
1.82033	27
1.82400	28
1.82767	29
1.83133	30
1.83500	30
1.83867	32
1.84233	35
1.84600	34
1.84967	33
1.85333	33
1.85700	33
1.86067	34
1.86433	35
1.86800	35
1.87167	34
1.87533	33
1.87900	32
1.88267	34
1.88633	37
1.89000	38
1.89367	37
1.89733	36
1.90100	37
1.90467	36
1.90833	36
1.91200	38
1.91567	39
1.91933	41
1.92300	41
1.92667	42
1.93033	42
1.93400	41
1.93767	40
1.94133	38
1.94500	38
1.94867	36
1.95233	37
1.95600	39
1.95967	41
1.96333	42
1.96700	43
1.97067	45
1.97433	47
1.97800	48
1.98167	48
1.98533	47
1.98900	48
1.99267	49
1.99633	50
2.00000	52
2.00367	53
2.00733	51
2.01100	48
2.01467	49
2.01833	51
2.02200	53
2.02567	55
2.02933	57
2.03300	57
2.03667	56
2.04033	54
2.04400	54
2.04767	56
2.05133	57
2.05500	58
2.05867	61
2.06233	64
2.06600	63
2.06967	62
2.07333	62
2.07700	64
2.08067	67
2.08433	69
2.08800	68
2.09167	67
2.09533	65
2.09900	65
2.10267	66
2.10633	68
2.11000	67
2.11367	69
2.11733	70
2.12100	68
2.12467	67
2.12833	68
2.13200	70
2.13567	74
2.13933	74
2.14300	76
2.14667	79
2.15033	79
2.15400	80
2.15767	82
2.16133	85
2.16500	86
2.16867	87
2.17233	89
2.17600	90
2.17967	90
2.18333	89
2.18700	90
2.19067	92
2.19433	92
2.19800	93
2.20167	95
2.20533	97
2.20900	100
2.21267	101
2.21633	101
2.22000	100
2.22367	100
2.22733	101
2.23100	104
2.23467	106
2.23833	106
2.24200	104
2.24567	104
2.24933	104
2.25300	104
2.25667	106
2.26033	107
2.26400	108
2.26767	108
2.27133	110
2.27500	112
2.27867	113
2.28233	113
2.28600	114
2.28967	117
2.29333	119
2.29700	121
2.30067	124
2.30433	126
2.30800	127
2.31167	129
2.31533	129
2.31900	130
2.32267	132
2.32633	134
2.33000	137
2.33367	139
2.33733	140
2.34100	141
2.34467	143
2.34833	143
2.35200	143
2.35567	143
2.35933	145
2.36300	147
2.36667	148
2.37033	149
2.37400	151
2.37767	155
2.38133	158
2.38500	159
2.38867	160
2.39233	162
2.39600	166
2.39967	170
2.40333	173
2.40700	174
2.41067	173
2.41433	172
2.41800	175
2.42167	179
2.42533	182
2.42900	183
2.43267	182
2.43633	183
2.44000	185
2.44367	216
2.44733	297
2.45100	388
2.45467	464
2.45833	516
2.46200	532
2.46567	525
2.46933	507
2.47300	491
2.47667	481
2.48033	476
2.48400	470
2.48767	458
2.49133	438
2.49500	415
2.49867	395
2.50233	376
2.50600	360
2.50967	352
2.51333	346
2.51700	343
2.52067	344
2.52433	349
2.52800	357
2.53167	368
2.53533	376
2.53900	382
2.54267	386
2.54633	386
2.55000	386
2.55367	380
2.55733	369
2.56100	356
2.56467	343
2.56833	332
2.57200	323
2.57567	317
2.57933	314
2.58300	311
2.58667	307
2.59033	305
2.59400	301
2.59767	296
2.60133	289
2.60500	277
2.60867	263
2.61233	246
2.61600	227
2.61967	207
2.62333	190
2.62700	177
2.63067	170
2.63433	166
2.63800	167
2.64167	171
2.64533	177
2.64900	181
2.65267	190
2.65633	203
2.66000	212
2.66367	222
2.66733	232
2.67100	242
2.67467	250
2.67833	256
2.68200	261
2.68567	265
2.68933	267
2.69300	267
2.69667	266
2.70033	265
2.70400	266
2.70767	265
2.71133	262
2.71500	260
2.71867	260
2.72233	258
2.72600	258
2.72967	258
2.73333	262
2.73700	264
2.74067	264
2.74433	264
2.74800	263
2.75167	263
2.75533	263
2.75900	264
2.76267	267
2.76633	268
2.77000	268
2.77367	268
2.77733	268
2.78100	267
2.78467	268
2.78833	269
2.79200	271
2.79567	269
2.79933	271
2.80300	272
2.80667	271
2.81033	270
2.81400	271
2.81767	277
2.82133	296
2.82500	336
2.82867	411
2.83233	545
2.83600	764
2.83967	1085
2.84333	1514
2.84700	2040
2.85067	2631
2.85433	3248
2.85800	3843
2.86167	4369
2.86533	4786
2.86900	5062
2.87267	5189
2.87633	5174
2.88000	5035
2.88367	4798
2.88733	4492
2.89100	4147
2.89467	3787
2.89833	3427
2.90200	3079
2.90567	2754
2.90933	2456
2.91300	2188
2.91667	1945
2.92033	1728
2.92400	1537
2.92767	1371
2.93133	1226
2.93500	1099
2.93867	988
2.94233	894
2.94600	811
2.94967	739
2.95333	675
2.95700	621
2.96067	575
2.96433	537
2.96800	505
2.97167	476
2.97533	451
2.97900	430
2.98267	411
2.98633	395
2.99000	381
2.99367	371
2.99733	361
3.00100	351
3.00467	342
3.00833	332
3.01200	324
3.01567	314
3.01933	306
3.02300	302
3.02667	301
3.03033	300
3.03400	298
3.03767	296
3.04133	291
3.04500	287
3.04867	282
3.05233	278
3.05600	274
3.05967	269
3.06333	264
3.06700	262
3.07067	260
3.07433	260
3.07800	258
3.08167	256
3.08533	255
3.08900	253
3.09267	251
3.09633	250
3.10000	248
3.10367	246
3.10733	244
3.11100	242
3.11467	240
3.11833	238
3.12200	236
3.12567	236
3.12933	234
3.13300	232
3.13667	230
3.14033	228
3.14400	227
3.14767	226
3.15133	224
3.15500	224
3.15867	223
3.16233	225
3.16600	228
3.16967	228
3.17333	229
3.17700	230
3.18067	231
3.18433	231
3.18800	232
3.19167	231
3.19533	231
3.19900	231
3.20267	231
3.20633	232
3.21000	231
3.21367	229
3.21733	229
3.22100	231
3.22467	231
3.22833	230
3.23200	229
3.23567	229
3.23933	228
3.24300	230
3.24667	231
3.25033	232
3.25400	232
3.25767	233
3.26133	234
3.26500	233
3.26867	233
3.27233	235
3.27600	237
3.27967	239
3.28333	241
3.28700	242
3.29067	240
3.29433	237
3.29800	234
3.30167	232
3.30533	231
3.30900	230
3.31267	224
3.31633	210
3.32000	194
3.32367	182
3.32733	173
3.33100	170
3.33467	171
3.33833	178
3.34200	191
3.34567	209
3.34933	237
3.35300	269
3.35667	304
3.36033	342
3.36400	380
3.36767	417
3.37133	452
3.37500	483
3.37867	508
3.38233	532
3.38600	553
3.38967	573
3.39333	594
3.39700	611
3.40067	624
3.40433	636
3.40800	647
3.41167	657
3.41533	666
3.41900	673
3.42267	677
3.42633	683
3.43000	688
3.43367	691
3.43733	695
3.44100	698
3.44467	702
3.44833	703
3.45200	706
3.45567	707
3.45933	706
3.46300	703
3.46667	702
3.47033	699
3.47400	697
3.47767	694
3.48133	692
3.48500	692
3.48867	690
3.49233	687
3.49600	682
3.49967	678
3.50333	677
3.50700	676
3.51067	673
3.51433	670
3.51800	667
3.52167	664
3.52533	661
3.52900	658
3.53267	656
3.53633	654
3.54000	652
3.54367	651
3.54733	650
3.55100	646
3.55467	642
3.55833	641
3.56200	637
3.56567	634
3.56933	633
3.57300	632
3.57667	632
3.58033	633
3.58400	632
3.58767	629
3.59133	628
3.59500	625
3.59867	622
3.60233	620
3.60600	617
3.60967	615
3.61333	612
3.61700	611
3.62067	610
3.62433	610
3.62800	610
3.63167	609
3.63533	609
3.63900	608
3.64267	606
3.64633	603
3.65000	600
3.65367	596
3.65733	591
3.66100	586
3.66467	582
3.66833	579
3.67200	579
3.67567	579
3.67933	577
3.68300	576
3.68667	576
3.69033	573
3.69400	570
3.69767	566
3.70133	564
3.70500	562
3.70867	563
3.71233	561
3.71600	557
3.71967	556
3.72333	556
3.72700	558
3.73067	559
3.73433	559
3.73800	557
3.74167	554
3.74533	552
3.74900	548
3.75267	545
3.75633	543
3.76000	543
3.76367	541
3.76733	540
3.77100	539
3.77467	539
3.77833	537
3.78200	535
3.78567	534
3.78933	533
3.79300	534
3.79667	533
3.80033	532
3.80400	532
3.80767	530
3.81133	529
3.81500	527
3.81867	526
3.82233	523
3.82600	522
3.82967	521
3.83333	518
3.83700	519
3.84067	519
3.84433	517
3.84800	515
3.85167	514
3.85533	515
3.85900	515
3.86267	514
3.86633	514
3.87000	514
3.87367	513
3.87733	511
3.88100	511
3.88467	509
3.88833	505
3.89200	504
3.89567	504
3.89933	504
3.90300	504
3.90667	503
3.91033	503
3.91400	501
3.91767	502
3.92133	505
3.92500	506
3.92867	505
3.93233	503
3.93600	501
3.93967	500
3.94333	500
3.94700	502
3.95067	502
3.95433	502
3.95800	501
3.96167	502
3.96533	504
3.96900	503
3.97267	502
3.97633	501
3.98000	500
3.98367	499
3.98733	498
3.99100	498
3.99467	497
3.99833	494

[Status Trace (Column Oven Temperature)]
Interval(msec)	1000
# of Points	240
Start Time(min)	0.006
End Time(min)	3.989
Intensity Units	
Intensity Multiplier	1
R.Time (min)	Intensity
0.00612	34.99
0.02278	34.99
0.03945	34.99
0.05612	34.99
0.07278	34.98
0.08945	34.99
0.10612	35.00
0.12278	34.99
0.13945	34.99
0.15612	35.00
0.17278	35.01
0.18945	35.01
0.20612	35.01
0.22278	35.00
0.23945	34.98
0.25612	34.98
0.27278	34.97
0.28945	34.97
0.30612	34.97
0.32278	34.98
0.33945	34.99
0.35612	34.98
0.37278	34.98
0.38945	34.99
0.40612	34.99
0.42278	34.99
0.43945	35.00
0.45612	34.99
0.47278	34.98
0.48945	34.97
0.50612	34.96
0.52278	34.96
0.53945	34.96
0.55612	34.98
0.57278	34.98
0.58945	34.98
0.60612	34.99
0.62278	35.00
0.63945	35.00
0.65612	35.01
0.67278	35.00
0.68945	35.00
0.70612	35.00
0.72278	35.01
0.73945	35.00
0.75612	35.00
0.77278	35.00
0.78945	35.00
0.80612	34.99
0.82278	35.02
0.83945	35.02
0.85612	35.03
0.87278	35.03
0.88945	35.02
0.90612	35.02
0.92278	35.00
0.93945	35.00
0.95612	35.00
0.97278	35.00
0.98945	34.99
1.00612	34.99
1.02278	34.99
1.03945	35.00
1.05612	35.00
1.07278	35.00
1.08945	35.00
1.10612	35.00
1.12278	35.00
1.13945	35.01
1.15612	35.00
1.17278	35.00
1.18945	34.99
1.20612	34.99
1.22278	34.97
1.23945	34.96
1.25612	34.98
1.27278	34.98
1.28945	35.00
1.30612	35.00
1.32278	35.01
1.33945	35.00
1.35612	34.99
1.37278	34.99
1.38945	34.98
1.40612	34.97
1.42278	34.97
1.43945	34.97
1.45612	34.97
1.47278	34.96
1.48945	34.96
1.50612	34.96
1.52278	34.96
1.53945	34.97
1.55612	34.98
1.57278	34.98
1.58945	35.00
1.60612	35.06
1.62278	35.20
1.63945	35.39
1.65612	35.62
1.67278	35.93
1.68945	36.30
1.70612	36.66
1.72278	36.98
1.73945	37.30
1.75612	37.66
1.77278	38.00
1.78945	38.31
1.80612	38.61
1.82278	38.95
1.83945	39.29
1.85612	39.61
1.87278	39.93
1.88945	40.25
1.90612	40.60
1.92278	40.91
1.93945	41.24
1.95612	41.59
1.97278	41.91
1.98945	42.25
2.00612	42.56
2.02278	42.88
2.03945	43.22
2.05612	43.53
2.07278	43.86
2.08945	44.19
2.10612	44.51
2.12278	44.84
2.13945	45.16
2.15612	45.51
2.17278	45.82
2.18945	46.15
2.20612	46.49
2.22278	46.82
2.23945	47.14
2.25612	47.46
2.27278	47.79
2.28945	48.11
2.30612	48.47
2.32278	48.81
2.33945	49.11
2.35612	49.39
2.37278	49.61
2.38945	49.73
2.40612	49.73
2.42278	49.71
2.43945	49.74
2.45612	49.74
2.47278	49.75
2.48945	49.75
2.50612	49.76
2.52278	49.77
2.53945	49.78
2.55612	49.81
2.57278	49.81
2.58945	49.82
2.60612	49.84
2.62278	49.84
2.63945	49.83
2.65612	49.85
2.67278	49.87
2.68945	49.85
2.70612	49.85
2.72278	49.85
2.73945	49.88
2.75612	49.90
2.77278	49.89
2.78945	49.87
2.80612	49.87
2.82278	49.88
2.83945	49.89
2.85612	49.90
2.87278	49.91
2.88945	49.92
2.90612	49.94
2.92278	49.95
2.93945	49.95
2.95612	49.97
2.97278	49.98
2.98945	49.98
3.00612	49.99
3.02278	49.99
3.03945	50.00
3.05612	50.01
3.07278	50.02
3.08945	50.03
3.10612	50.04
3.12278	50.04
3.13945	50.05
3.15612	50.06
3.17278	50.07
3.18945	50.07
3.20612	50.07
3.22278	50.08
3.23945	50.08
3.25612	50.09
3.27278	50.09
3.28945	50.09
3.30612	50.09
3.32278	50.10
3.33945	50.10
3.35612	50.11
3.37278	50.11
3.38945	50.11
3.40612	50.10
3.42278	50.08
3.43945	50.06
3.45612	50.05
3.47278	50.03
3.48945	50.01
3.50612	50.01
3.52278	49.99
3.53945	49.98
3.55612	49.98
3.57278	49.99
3.58945	50.00
3.60612	50.02
3.62278	50.02
3.63945	50.04
3.65612	50.04
3.67278	50.05
3.68945	50.05
3.70612	50.05
3.72278	50.06
3.73945	50.06
3.75612	50.07
3.77278	50.06
3.78945	50.06
3.80612	50.06
3.82278	50.05
3.83945	50.05
3.85612	50.05
3.87278	50.04
3.88945	50.05
3.90612	50.06
3.92278	50.06
3.93945	50.07
3.95612	50.07
3.97278	50.07
3.98945	50.08

[Status Trace (Injection Unit Temperature)]
Interval(msec)	1000
# of Points	240
Start Time(min)	0.006
End Time(min)	3.989
Intensity Units	
Intensity Multiplier	1
R.Time (min)	Intensity
0.00612	99.97
0.02278	99.98
0.03945	99.98
0.05612	99.98
0.07278	99.98
0.08945	99.98
0.10612	99.98
0.12278	99.98
0.13945	99.98
0.15612	99.98
0.17278	99.98
0.18945	99.97
0.20612	99.98
0.22278	99.98
0.23945	99.98
0.25612	99.98
0.27278	99.98
0.28945	99.98
0.30612	99.98
0.32278	99.98
0.33945	99.97
0.35612	99.98
0.37278	99.98
0.38945	99.98
0.40612	99.98
0.42278	99.98
0.43945	99.98
0.45612	99.98
0.47278	99.98
0.48945	99.98
0.50612	99.98
0.52278	99.98
0.53945	99.98
0.55612	99.98
0.57278	99.98
0.58945	99.98
0.60612	99.98
0.62278	99.98
0.63945	99.98
0.65612	99.98
0.67278	99.98
0.68945	99.98
0.70612	99.97
0.72278	99.98
0.73945	99.98
0.75612	99.98
0.77278	99.98
0.78945	99.98
0.80612	99.98
0.82278	99.98
0.83945	99.98
0.85612	99.98
0.87278	99.98
0.88945	99.98
0.90612	99.98
0.92278	99.98
0.93945	99.98
0.95612	99.98
0.97278	99.98
0.98945	99.98
1.00612	99.98
1.02278	99.99
1.03945	99.98
1.05612	99.98
1.07278	99.99
1.08945	99.98
1.10612	99.98
1.12278	99.97
1.13945	99.98
1.15612	99.98
1.17278	99.98
1.18945	99.97
1.20612	99.98
1.22278	99.98
1.23945	99.98
1.25612	99.98
1.27278	99.98
1.28945	99.98
1.30612	99.98
1.32278	99.98
1.33945	99.98
1.35612	99.98
1.37278	99.98
1.38945	99.98
1.40612	99.97
1.42278	99.98
1.43945	99.98
1.45612	99.98
1.47278	99.98
1.48945	99.98
1.50612	99.98
1.52278	99.98
1.53945	99.98
1.55612	99.98
1.57278	99.99
1.58945	99.98
1.60612	99.98
1.62278	99.98
1.63945	99.99
1.65612	99.99
1.67278	99.98
1.68945	99.99
1.70612	99.99
1.72278	99.99
1.73945	99.99
1.75612	99.99
1.77278	99.99
1.78945	99.99
1.80612	99.98
1.82278	99.99
1.83945	99.98
1.85612	99.99
1.87278	99.98
1.88945	99.98
1.90612	99.98
1.92278	99.98
1.93945	99.98
1.95612	99.97
1.97278	99.97
1.98945	99.98
2.00612	99.97
2.02278	99.97
2.03945	99.98
2.05612	99.97
2.07278	99.97
2.08945	99.97
2.10612	99.97
2.12278	99.96
2.13945	99.97
2.15612	99.97
2.17278	99.97
2.18945	99.97
2.20612	99.96
2.22278	99.97
2.23945	99.97
2.25612	99.97
2.27278	99.96
2.28945	99.96
2.30612	99.96
2.32278	99.96
2.33945	99.97
2.35612	99.96
2.37278	99.97
2.38945	99.96
2.40612	99.97
2.42278	99.97
2.43945	99.97
2.45612	99.97
2.47278	99.97
2.48945	99.97
2.50612	99.96
2.52278	99.97
2.53945	99.97
2.55612	99.97
2.57278	99.97
2.58945	99.98
2.60612	99.97
2.62278	99.97
2.63945	99.97
2.65612	99.98
2.67278	99.98
2.68945	99.98
2.70612	99.98
2.72278	99.98
2.73945	99.98
2.75612	99.98
2.77278	99.99
2.78945	99.99
2.80612	99.99
2.82278	99.99
2.83945	99.99
2.85612	99.99
2.87278	99.99
2.88945	100.00
2.90612	100.00
2.92278	99.99
2.93945	100.00
2.95612	100.01
2.97278	100.01
2.98945	100.01
3.00612	100.01
3.02278	100.01
3.03945	100.01
3.05612	100.01
3.07278	100.01
3.08945	100.01
3.10612	100.01
3.12278	100.02
3.13945	100.02
3.15612	100.02
3.17278	100.02
3.18945	100.03
3.20612	100.02
3.22278	100.02
3.23945	100.03
3.25612	100.02
3.27278	100.03
3.28945	100.03
3.30612	100.03
3.32278	100.03
3.33945	100.03
3.35612	100.04
3.37278	100.04
3.38945	100.03
3.40612	100.04
3.42278	100.04
3.43945	100.04
3.45612	100.04
3.47278	100.04
3.48945	100.04
3.50612	100.04
3.52278	100.04
3.53945	100.04
3.55612	100.04
3.57278	100.04
3.58945	100.04
3.60612	100.04
3.62278	100.05
3.63945	100.04
3.65612	100.05
3.67278	100.05
3.68945	100.05
3.70612	100.05
3.72278	100.05
3.73945	100.05
3.75612	100.05
3.77278	100.05
3.78945	100.05
3.80612	100.05
3.82278	100.05
3.83945	100.05
3.85612	100.05
3.87278	100.05
3.88945	100.05
3.90612	100.05
3.92278	100.05
3.93945	100.05
3.95612	100.05
3.97278	100.05
3.98945	100.05

[Status Trace (Carrier Gas Pressure)]
Interval(msec)	1000
# of Points	240
Start Time(min)	0.006
End Time(min)	3.989
Intensity Units	
Intensity Multiplier	1
R.Time (min)	Intensity
0.00612	58.00
0.02278	55.64
0.03945	56.91
0.05612	58.99
0.07278	59.62
0.08945	58.11
0.10612	57.98
0.12278	58.01
0.13945	58.01
0.15612	58.01
0.17278	58.00
0.18945	58.00
0.20612	58.00
0.22278	58.00
0.23945	58.00
0.25612	58.00
0.27278	58.00
0.28945	58.00
0.30612	58.00
0.32278	58.00
0.33945	58.00
0.35612	58.00
0.37278	58.00
0.38945	58.00
0.40612	58.00
0.42278	58.00
0.43945	58.00
0.45612	58.00
0.47278	58.00
0.48945	58.00
0.50612	58.00
0.52278	58.00
0.53945	58.00
0.55612	58.00
0.57278	58.00
0.58945	58.00
0.60612	58.00
0.62278	58.00
0.63945	58.00
0.65612	58.00
0.67278	58.00
0.68945	58.00
0.70612	58.00
0.72278	58.00
0.73945	58.00
0.75612	58.00
0.77278	58.00
0.78945	58.00
0.80612	58.00
0.82278	58.00
0.83945	58.00
0.85612	58.00
0.87278	58.00
0.88945	58.00
0.90612	58.00
0.92278	58.00
0.93945	58.00
0.95612	58.00
0.97278	58.00
0.98945	58.00
1.00612	58.00
1.02278	58.00
1.03945	58.00
1.05612	58.00
1.07278	58.00
1.08945	58.00
1.10612	58.00
1.12278	58.00
1.13945	58.00
1.15612	58.00
1.17278	58.00
1.18945	58.00
1.20612	58.00
1.22278	58.00
1.23945	58.00
1.25612	58.00
1.27278	58.00
1.28945	58.00
1.30612	58.00
1.32278	58.00
1.33945	58.00
1.35612	58.00
1.37278	58.00
1.38945	58.00
1.40612	58.00
1.42278	58.00
1.43945	58.00
1.45612	58.00
1.47278	58.00
1.48945	58.00
1.50612	58.00
1.52278	58.00
1.53945	58.00
1.55612	58.00
1.57278	58.00
1.58945	58.00
1.60612	58.00
1.62278	58.01
1.63945	58.00
1.65612	58.00
1.67278	58.01
1.68945	58.01
1.70612	58.00
1.72278	58.00
1.73945	58.00
1.75612	58.00
1.77278	58.00
1.78945	58.00
1.80612	58.00
1.82278	58.00
1.83945	58.00
1.85612	58.00
1.87278	58.00
1.88945	58.00
1.90612	58.00
1.92278	58.00
1.93945	58.00
1.95612	58.00
1.97278	58.00
1.98945	58.00
2.00612	58.00
2.02278	58.00
2.03945	58.00
2.05612	58.00
2.07278	58.00
2.08945	58.00
2.10612	58.00
2.12278	58.00
2.13945	58.00
2.15612	58.00
2.17278	58.00
2.18945	58.00
2.20612	58.00
2.22278	58.00
2.23945	58.00
2.25612	58.00
2.27278	58.00
2.28945	58.00
2.30612	58.00
2.32278	58.00
2.33945	58.00
2.35612	58.00
2.37278	58.00
2.38945	57.99
2.40612	57.99
2.42278	58.00
2.43945	58.00
2.45612	58.00
2.47278	58.00
2.48945	58.00
2.50612	57.99
2.52278	57.99
2.53945	58.00
2.55612	58.00
2.57278	58.00
2.58945	58.00
2.60612	58.00
2.62278	58.00
2.63945	58.00
2.65612	58.00
2.67278	58.00
2.68945	58.00
2.70612	58.00
2.72278	58.00
2.73945	58.00
2.75612	58.00
2.77278	58.00
2.78945	58.00
2.80612	58.00
2.82278	58.00
2.83945	58.00
2.85612	58.00
2.87278	58.00
2.88945	58.00
2.90612	58.00
2.92278	58.00
2.93945	58.00
2.95612	58.00
2.97278	58.00
2.98945	58.00
3.00612	58.00
3.02278	58.00
3.03945	58.00
3.05612	58.00
3.07278	58.00
3.08945	58.00
3.10612	58.00
3.12278	58.00
3.13945	58.00
3.15612	58.00
3.17278	58.00
3.18945	58.00
3.20612	58.00
3.22278	58.00
3.23945	58.00
3.25612	58.00
3.27278	58.00
3.28945	58.00
3.30612	58.00
3.32278	58.00
3.33945	58.00
3.35612	58.00
3.37278	58.00
3.38945	58.00
3.40612	58.00
3.42278	58.00
3.43945	58.00
3.45612	58.00
3.47278	58.00
3.48945	58.00
3.50612	58.00
3.52278	58.00
3.53945	58.00
3.55612	58.00
3.57278	58.00
3.58945	58.00
3.60612	58.00
3.62278	58.00
3.63945	58.00
3.65612	58.00
3.67278	58.00
3.68945	58.00
3.70612	58.00
3.72278	58.00
3.73945	58.00
3.75612	58.00
3.77278	58.00
3.78945	58.00
3.80612	58.00
3.82278	58.00
3.83945	58.00
3.85612	58.00
3.87278	58.00
3.88945	58.00
3.90612	58.00
3.92278	58.00
3.93945	58.00
3.95612	58.00
3.97278	58.00
3.98945	58.00

[Status Trace (Carrier Gas Flow)]
Interval(msec)	1000
# of Points	240
Start Time(min)	0.006
End Time(min)	3.989
Intensity Units	
Intensity Multiplier	1
R.Time (min)	Intensity
0.00612	34.51
0.02278	34.54
0.03945	34.54
0.05612	34.55
0.07278	34.50
0.08945	34.52
0.10612	34.52
0.12278	34.52
0.13945	34.52
0.15612	34.52
0.17278	34.52
0.18945	34.52
0.20612	34.52
0.22278	34.52
0.23945	34.51
0.25612	34.52
0.27278	34.52
0.28945	34.52
0.30612	34.51
0.32278	34.52
0.33945	34.52
0.35612	34.52
0.37278	34.52
0.38945	34.52
0.40612	34.52
0.42278	34.52
0.43945	34.52
0.45612	34.52
0.47278	34.51
0.48945	34.52
0.50612	34.52
0.52278	34.52
0.53945	34.52
0.55612	34.52
0.57278	34.52
0.58945	34.52
0.60612	34.52
0.62278	34.52
0.63945	34.52
0.65612	34.52
0.67278	34.51
0.68945	34.51
0.70612	34.52
0.72278	34.52
0.73945	34.52
0.75612	34.52
0.77278	34.53
0.78945	34.52
0.80612	34.52
0.82278	34.52
0.83945	34.51
0.85612	34.52
0.87278	34.52
0.88945	34.52
0.90612	34.52
0.92278	34.52
0.93945	34.52
0.95612	34.52
0.97278	34.52
0.98945	34.52
1.00612	34.52
1.02278	34.52
1.03945	34.52
1.05612	34.51
1.07278	34.51
1.08945	34.52
1.10612	34.52
1.12278	34.51
1.13945	34.52
1.15612	34.52
1.17278	34.52
1.18945	34.53
1.20612	34.53
1.22278	34.52
1.23945	34.51
1.25612	34.52
1.27278	34.52
1.28945	34.52
1.30612	34.52
1.32278	34.52
1.33945	34.52
1.35612	34.53
1.37278	34.52
1.38945	34.52
1.40612	34.52
1.42278	34.52
1.43945	34.52
1.45612	34.52
1.47278	34.52
1.48945	34.52
1.50612	34.52
1.52278	34.52
1.53945	34.52
1.55612	34.52
1.57278	34.52
1.58945	34.51
1.60612	34.52
1.62278	34.51
1.63945	34.52
1.65612	34.52
1.67278	34.52
1.68945	34.52
1.70612	34.52
1.72278	34.52
1.73945	34.52
1.75612	34.52
1.77278	34.51
1.78945	34.52
1.80612	34.52
1.82278	34.52
1.83945	34.52
1.85612	34.52
1.87278	34.52
1.88945	34.52
1.90612	34.52
1.92278	34.52
1.93945	34.52
1.95612	34.52
1.97278	34.52
1.98945	34.52
2.00612	34.52
2.02278	34.52
2.03945	34.52
2.05612	34.52
2.07278	34.52
2.08945	34.52
2.10612	34.52
2.12278	34.52
2.13945	34.52
2.15612	34.52
2.17278	34.52
2.18945	34.52
2.20612	34.52
2.22278	34.52
2.23945	34.52
2.25612	34.52
2.27278	34.52
2.28945	34.52
2.30612	34.52
2.32278	34.52
2.33945	34.52
2.35612	34.52
2.37278	34.52
2.38945	34.52
2.40612	34.52
2.42278	34.53
2.43945	34.52
2.45612	34.52
2.47278	34.52
2.48945	34.52
2.50612	34.50
2.52278	34.52
2.53945	34.52
2.55612	34.52
2.57278	34.53
2.58945	34.52
2.60612	34.53
2.62278	34.52
2.63945	34.52
2.65612	34.51
2.67278	34.52
2.68945	34.52
2.70612	34.52
2.72278	34.52
2.73945	34.52
2.75612	34.51
2.77278	34.52
2.78945	34.52
2.80612	34.52
2.82278	34.52
2.83945	34.52
2.85612	34.52
2.87278	34.51
2.88945	34.52
2.90612	34.51
2.92278	34.52
2.93945	34.52
2.95612	34.51
2.97278	34.52
2.98945	34.52
3.00612	34.52
3.02278	34.52
3.03945	34.52
3.05612	34.52
3.07278	34.52
3.08945	34.52
3.10612	34.52
3.12278	34.52
3.13945	34.52
3.15612	34.52
3.17278	34.52
3.18945	34.52
3.20612	34.51
3.22278	34.52
3.23945	34.52
3.25612	34.52
3.27278	34.51
3.28945	34.53
3.30612	34.52
3.32278	34.52
3.33945	34.51
3.35612	34.52
3.37278	34.52
3.38945	34.52
3.40612	34.52
3.42278	34.52
3.43945	34.52
3.45612	34.52
3.47278	34.52
3.48945	34.52
3.50612	34.52
3.52278	34.52
3.53945	34.52
3.55612	34.52
3.57278	34.52
3.58945	34.52
3.60612	34.52
3.62278	34.51
3.63945	34.52
3.65612	34.52
3.67278	34.52
3.68945	34.51
3.70612	34.52
3.72278	34.52
3.73945	34.52
3.75612	34.51
3.77278	34.52
3.78945	34.52
3.80612	34.51
3.82278	34.52
3.83945	34.52
3.85612	34.52
3.87278	34.52
3.88945	34.52
3.90612	34.52
3.92278	34.52
3.93945	34.52
3.95612	34.52
3.97278	34.52
3.98945	34.51

[Status Trace (Column Flow)]
Interval(msec)	1000
# of Points	240
Start Time(min)	0.006
End Time(min)	3.989
Intensity Units	
Intensity Multiplier	1
R.Time (min)	Intensity
0.00612	5.57
0.02278	5.30
0.03945	5.45
0.05612	5.69
0.07278	5.77
0.08945	5.59
0.10612	5.57
0.12278	5.58
0.13945	5.58
0.15612	5.57
0.17278	5.57
0.18945	5.57
0.20612	5.57
0.22278	5.57
0.23945	5.57
0.25612	5.57
0.27278	5.57
0.28945	5.57
0.30612	5.57
0.32278	5.57
0.33945	5.57
0.35612	5.57
0.37278	5.57
0.38945	5.57
0.40612	5.57
0.42278	5.57
0.43945	5.57
0.45612	5.57
0.47278	5.57
0.48945	5.57
0.50612	5.58
0.52278	5.57
0.53945	5.58
0.55612	5.57
0.57278	5.57
0.58945	5.57
0.60612	5.57
0.62278	5.57
0.63945	5.57
0.65612	5.57
0.67278	5.57
0.68945	5.57
0.70612	5.57
0.72278	5.57
0.73945	5.57
0.75612	5.57
0.77278	5.57
0.78945	5.57
0.80612	5.57
0.82278	5.57
0.83945	5.57
0.85612	5.57
0.87278	5.57
0.88945	5.57
0.90612	5.57
0.92278	5.57
0.93945	5.57
0.95612	5.57
0.97278	5.57
0.98945	5.57
1.00612	5.57
1.02278	5.57
1.03945	5.57
1.05612	5.57
1.07278	5.57
1.08945	5.57
1.10612	5.57
1.12278	5.57
1.13945	5.57
1.15612	5.57
1.17278	5.57
1.18945	5.57
1.20612	5.57
1.22278	5.57
1.23945	5.57
1.25612	5.57
1.27278	5.57
1.28945	5.57
1.30612	5.57
1.32278	5.57
1.33945	5.57
1.35612	5.57
1.37278	5.57
1.38945	5.57
1.40612	5.57
1.42278	5.57
1.43945	5.57
1.45612	5.57
1.47278	5.57
1.48945	5.57
1.50612	5.57
1.52278	5.57
1.53945	5.57
1.55612	5.57
1.57278	5.57
1.58945	5.57
1.60612	5.57
1.62278	5.57
1.63945	5.56
1.65612	5.55
1.67278	5.54
1.68945	5.53
1.70612	5.52
1.72278	5.51
1.73945	5.50
1.75612	5.49
1.77278	5.48
1.78945	5.47
1.80612	5.46
1.82278	5.45
1.83945	5.44
1.85612	5.43
1.87278	5.42
1.88945	5.41
1.90612	5.40
1.92278	5.39
1.93945	5.38
1.95612	5.37
1.97278	5.36
1.98945	5.35
2.00612	5.34
2.02278	5.33
2.03945	5.32
2.05612	5.31
2.07278	5.30
2.08945	5.29
2.10612	5.28
2.12278	5.27
2.13945	5.26
2.15612	5.26
2.17278	5.24
2.18945	5.24
2.20612	5.23
2.22278	5.22
2.23945	5.21
2.25612	5.20
2.27278	5.19
2.28945	5.18
2.30612	5.17
2.32278	5.16
2.33945	5.15
2.35612	5.14
2.37278	5.14
2.38945	5.13
2.40612	5.13
2.42278	5.13
2.43945	5.13
2.45612	5.13
2.47278	5.13
2.48945	5.13
2.50612	5.13
2.52278	5.13
2.53945	5.13
2.55612	5.13
2.57278	5.13
2.58945	5.13
2.60612	5.13
2.62278	5.13
2.63945	5.13
2.65612	5.13
2.67278	5.13
2.68945	5.13
2.70612	5.13
2.72278	5.13
2.73945	5.13
2.75612	5.13
2.77278	5.13
2.78945	5.13
2.80612	5.13
2.82278	5.13
2.83945	5.13
2.85612	5.13
2.87278	5.13
2.88945	5.13
2.90612	5.13
2.92278	5.13
2.93945	5.13
2.95612	5.13
2.97278	5.13
2.98945	5.13
3.00612	5.13
3.02278	5.13
3.03945	5.13
3.05612	5.13
3.07278	5.13
3.08945	5.13
3.10612	5.13
3.12278	5.12
3.13945	5.12
3.15612	5.12
3.17278	5.12
3.18945	5.12
3.20612	5.12
3.22278	5.12
3.23945	5.12
3.25612	5.12
3.27278	5.12
3.28945	5.12
3.30612	5.12
3.32278	5.12
3.33945	5.12
3.35612	5.12
3.37278	5.12
3.38945	5.12
3.40612	5.12
3.42278	5.12
3.43945	5.12
3.45612	5.12
3.47278	5.13
3.48945	5.13
3.50612	5.13
3.52278	5.13
3.53945	5.13
3.55612	5.13
3.57278	5.13
3.58945	5.13
3.60612	5.13
3.62278	5.13
3.63945	5.12
3.65612	5.12
3.67278	5.12
3.68945	5.12
3.70612	5.12
3.72278	5.12
3.73945	5.12
3.75612	5.12
3.77278	5.12
3.78945	5.12
3.80612	5.12
3.82278	5.12
3.83945	5.12
3.85612	5.12
3.87278	5.12
3.88945	5.12
3.90612	5.12
3.92278	5.12
3.93945	5.12
3.95612	5.12
3.97278	5.12
3.98945	5.12

[Status Trace (Linear Velocity)]
Interval(msec)	1000
# of Points	240
Start Time(min)	0.006
End Time(min)	3.989
Intensity Units	
Intensity Multiplier	1
R.Time (min)	Intensity
0.00612	39.03
0.02278	37.48
0.03945	38.32
0.05612	39.68
0.07278	40.09
0.08945	39.10
0.10612	39.01
0.12278	39.04
0.13945	39.04
0.15612	39.03
0.17278	39.03
0.18945	39.03
0.20612	39.03
0.22278	39.03
0.23945	39.03
0.25612	39.03
0.27278	39.03
0.28945	39.03
0.30612	39.03
0.32278	39.03
0.33945	39.03
0.35612	39.03
0.37278	39.03
0.38945	39.03
0.40612	39.03
0.42278	39.03
0.43945	39.03
0.45612	39.03
0.47278	39.03
0.48945	39.03
0.50612	39.03
0.52278	39.03
0.53945	39.03
0.55612	39.03
0.57278	39.03
0.58945	39.03
0.60612	39.03
0.62278	39.03
0.63945	39.03
0.65612	39.03
0.67278	39.03
0.68945	39.03
0.70612	39.03
0.72278	39.03
0.73945	39.03
0.75612	39.03
0.77278	39.03
0.78945	39.03
0.80612	39.03
0.82278	39.03
0.83945	39.03
0.85612	39.03
0.87278	39.03
0.88945	39.03
0.90612	39.03
0.92278	39.03
0.93945	39.03
0.95612	39.03
0.97278	39.03
0.98945	39.03
1.00612	39.03
1.02278	39.03
1.03945	39.03
1.05612	39.03
1.07278	39.03
1.08945	39.03
1.10612	39.03
1.12278	39.03
1.13945	39.03
1.15612	39.03
1.17278	39.03
1.18945	39.03
1.20612	39.03
1.22278	39.03
1.23945	39.03
1.25612	39.03
1.27278	39.03
1.28945	39.03
1.30612	39.03
1.32278	39.03
1.33945	39.03
1.35612	39.03
1.37278	39.03
1.38945	39.03
1.40612	39.03
1.42278	39.03
1.43945	39.03
1.45612	39.03
1.47278	39.03
1.48945	39.03
1.50612	39.03
1.52278	39.03
1.53945	39.03
1.55612	39.03
1.57278	39.03
1.58945	39.03
1.60612	39.03
1.62278	39.01
1.63945	38.99
1.65612	38.97
1.67278	38.94
1.68945	38.91
1.70612	38.87
1.72278	38.84
1.73945	38.81
1.75612	38.78
1.77278	38.74
1.78945	38.71
1.80612	38.69
1.82278	38.65
1.83945	38.62
1.85612	38.59
1.87278	38.56
1.88945	38.53
1.90612	38.50
1.92278	38.47
1.93945	38.44
1.95612	38.41
1.97278	38.38
1.98945	38.34
2.00612	38.32
2.02278	38.29
2.03945	38.26
2.05612	38.23
2.07278	38.20
2.08945	38.17
2.10612	38.14
2.12278	38.11
2.13945	38.08
2.15612	38.05
2.17278	38.02
2.18945	37.99
2.20612	37.96
2.22278	37.93
2.23945	37.90
2.25612	37.87
2.27278	37.84
2.28945	37.81
2.30612	37.78
2.32278	37.75
2.33945	37.72
2.35612	37.70
2.37278	37.68
2.38945	37.66
2.40612	37.66
2.42278	37.67
2.43945	37.67
2.45612	37.67
2.47278	37.67
2.48945	37.67
2.50612	37.66
2.52278	37.66
2.53945	37.66
2.55612	37.66
2.57278	37.66
2.58945	37.66
2.60612	37.66
2.62278	37.66
2.63945	37.66
2.65612	37.66
2.67278	37.66
2.68945	37.66
2.70612	37.66
2.72278	37.66
2.73945	37.66
2.75612	37.65
2.77278	37.65
2.78945	37.66
2.80612	37.66
2.82278	37.66
2.83945	37.65
2.85612	37.65
2.87278	37.65
2.88945	37.65
2.90612	37.65
2.92278	37.65
2.93945	37.65
2.95612	37.65
2.97278	37.65
2.98945	37.65
3.00612	37.65
3.02278	37.64
3.03945	37.64
3.05612	37.64
3.07278	37.64
3.08945	37.64
3.10612	37.64
3.12278	37.64
3.13945	37.64
3.15612	37.64
3.17278	37.64
3.18945	37.64
3.20612	37.64
3.22278	37.64
3.23945	37.64
3.25612	37.64
3.27278	37.64
3.28945	37.64
3.30612	37.64
3.32278	37.64
3.33945	37.64
3.35612	37.64
3.37278	37.63
3.38945	37.63
3.40612	37.63
3.42278	37.64
3.43945	37.64
3.45612	37.64
3.47278	37.64
3.48945	37.64
3.50612	37.64
3.52278	37.64
3.53945	37.65
3.55612	37.65
3.57278	37.65
3.58945	37.64
3.60612	37.64
3.62278	37.64
3.63945	37.64
3.65612	37.64
3.67278	37.64
3.68945	37.64
3.70612	37.64
3.72278	37.64
3.73945	37.64
3.75612	37.64
3.77278	37.64
3.78945	37.64
3.80612	37.64
3.82278	37.64
3.83945	37.64
3.85612	37.64
3.87278	37.64
3.88945	37.64
3.90612	37.64
3.92278	37.64
3.93945	37.64
3.95612	37.64
3.97278	37.64
3.98945	37.64

