[Header]
Application Name	LabSolutions
Version	5.110
Data File Name	C:\Users\User\Desktop\GC Analyses\Jack\Nachusa Grasslands Sampling\T1 Timepoint July 12th\T1_07122022_057.gcd
Output Date	3/14/2023
Output Time	3:41:00 PM

[File Information]
Type	Data File
Generated	3/8/2023 7:33:44 PM
Generated by	System Administrator
Modified	3/8/2023 7:40:25 PM
Modified by	System Administrator

[Sample Information]
Operator Name	System Administrator
Acquired	3/8/2023 7:36:25 PM
Sample Type	0:Unknown
Level	0
Sample Name	057
Sample ID	057
ISTD Amount1	1
ISTD Amount2	1
ISTD Amount3	1
ISTD Amount4	1
ISTD Amount5	1
ISTD Amount6	1
ISTD Amount7	1
ISTD Amount8	1
ISTD Amount9	1
ISTD Amount10	1
ISTD Amount11	1
ISTD Amount12	1
ISTD Amount13	1
ISTD Amount14	1
ISTD Amount15	1
ISTD Amount16	1
ISTD Amount17	1
ISTD Amount18	1
ISTD Amount19	1
ISTD Amount20	1
ISTD Amount21	1
ISTD Amount22	1
ISTD Amount23	1
ISTD Amount24	1
ISTD Amount25	1
ISTD Amount26	1
ISTD Amount27	1
ISTD Amount28	1
ISTD Amount29	1
ISTD Amount30	1
ISTD Amount31	1
ISTD Amount32	1
Sample Amount	1
Dilution Factor	1
Vial#	56
Injection Volume	1
Injection Count	1
Bar Code	

[Original Files]
Data File	C:\Users\User\Desktop\GC Analyses\Jack\Nachusa Grasslands Sampling\T1 Timepoint July 12th\T1_07122022_057.gcd
Method File	C:\LabSolutions\Data\GHG_4min_2022\ghg3_togas_w_acet_4 min_new_int.gcm
Batch File	C:\LabSolutions\Data\AutoSamplerTesting\T1_07122022.gcb
Report Format File	c:\LabSolutions\System\DEFAULT.lsr

[File Description]


[Configuration]
Instrument Name	C0B7VH3-Instrument1
Instrument #	1
Line #	1
# of Detectors	3
Detector ID	DET#1	DET#2	DET#3
Detector Name	FID	PTCD	ECD
# of Channels	1	1	1

[Peak Table(Ch1)]
# of Peaks	3
Peak#	R.Time	I.Time	F.Time	Area	Height	A/H	Conc.	Mark	ID#	Name	k'	Plate #	Plate Ht.	Tailing	Resolution	Sep.Factor	Area Ratio	Height Ratio	Conc. %	Norm Conc.
1	1.476	1.439	1.538	24036	11220	2.142	169.692	   	1	CO	0.000	8982	16.701	1.332	0.000	0.000	0	0	22.975	22.975
2	1.567	1.538	1.630	4753	2301	2.066	91.909	 V 	2	CH4	0.062	10574	14.185	0.000	1.487	0.000	0	0	12.444	12.444
3	1.996	1.952	2.411	1900607	899810	2.112	477.001	   	3	CO2	0.353	17326	8.658	1.319	7.054	5.680	0	0	64.582	64.582

[Peak Table(Ch2)]
# of Peaks	0

[Peak Table(Ch3)]
# of Peaks	5
Peak#	R.Time	I.Time	F.Time	Area	Height	A/H	Conc.	Mark	ID#	Name	k'	Plate #	Plate Ht.	Tailing	Resolution	Sep.Factor	Area Ratio	Height Ratio	Conc. %	Norm Conc.
1	2.462	2.088	2.513	3211	561	5.723	0.000	   			0.000	6247	24.012	0.000	0.000	0.000	0	0	0.000	0.000
2	2.539	2.513	2.638	1774	358	4.954	0.000	 V 			0.031	1924	77.983	0.000	0.432	0.000	0	0	0.000	0.000
3	2.686	2.638	2.726	650	144	4.524	0.000	 V 			0.091	1180	127.161	0.000	0.539	2.905	0	0	0.000	0.000
4	2.873	2.726	3.177	21673	4898	4.425	0.554	 V 	1	N2O	0.167	12774	11.742	1.892	0.902	1.836	0	0	100.000	100.000
5	3.327	3.184	3.995	14839	566	26.227	0.000	   	2	SF6	0.351	416	360.492	2.810	1.206	2.107	0	0	0.000	0.000

[Compound Results(Ch1)]
# of IDs	6
ID#	Name	R.Time	Area	Height	Conc.	Curve	3rd	2nd	1st	Constant	Area Ratio	Height Ratio	Conc. %	Norm Conc.
1	CO	1.476	24036	11220	169.692	Linear	0.000000e+00	0.000000e+00	1.416423e+002	0.000000e+00	0	0	22.975	22.975
2	CH4	1.567	4753	2301	91.909	Linear	0.000000e+00	0.000000e+00	5.171738e+001	0.000000e+00	0	0	12.444	12.444
3	CO2	1.996	1900607	899810	477.001	Linear	0.000000e+00	0.000000e+00	3.984494e+003	0.000000e+00	0	0	64.582	64.582
4	Ethylene	0.000	0	0	0.000	Linear	0.000000e+00	0.000000e+00	0.000000e+00	0.000000e+00	0	0	0.000	0.000
5	Acetylene	0.000	0	0	0.000	Linear	0.000000e+00	0.000000e+00	0.000000e+00	0.000000e+00	0	0	0.000	0.000
6	Ethane	0.000	0	0	0.000	Linear	0.000000e+00	0.000000e+00	0.000000e+00	0.000000e+00	0	0	0.000	0.000

[Compound Results(Ch2)]
# of IDs	5
ID#	Name	R.Time	Area	Height	Conc.	Curve	3rd	2nd	1st	Constant	Area Ratio	Height Ratio	Conc. %	Norm Conc.
1	Hydrogen	0.000	0	0	0.000	Linear	0.000000e+00	0.000000e+00	0.000000e+00	0.000000e+00	0	0	0.000	0.000
2	Oxygen	0.000	0	0	0.000	Linear	0.000000e+00	0.000000e+00	0.000000e+00	0.000000e+00	0	0	0.000	0.000
3	Nitrogen	0.000	0	0	0.000	Linear	0.000000e+00	0.000000e+00	0.000000e+00	0.000000e+00	0	0	0.000	0.000
4	Methane	0.000	0	0	0.000	Linear	0.000000e+00	0.000000e+00	0.000000e+00	0.000000e+00	0	0	0.000	0.000
5	Carbon Monoxide	0.000	0	0	0.000	Linear	0.000000e+00	0.000000e+00	0.000000e+00	0.000000e+00	0	0	0.000	0.000

[Compound Results(Ch3)]
# of IDs	2
ID#	Name	R.Time	Area	Height	Conc.	Curve	3rd	2nd	1st	Constant	Area Ratio	Height Ratio	Conc. %	Norm Conc.
1	N2O	2.873	21673	4898	0.554	Linear	0.000000e+00	0.000000e+00	3.915173e+004	0.000000e+00	0	0	100.000	100.000
2	SF6	3.327	14839	566	0.000	Linear	0.000000e+00	0.000000e+00	0.000000e+00	0.000000e+00	0	0	0.000	0.000

[Group Results(Ch1)]
# of Groups	0

[Group Results(Ch2)]
# of Groups	0

[Group Results(Ch3)]
# of Groups	0

[Chromatogram (Ch1)]
Interval(msec)	220
# of Points	1091
Start Time(min)	0.002
End Time(min)	3.998
R.Time (min)	Intensity
0.00167	0
0.00533	5
0.00900	5
0.01267	3
0.01633	0
0.02000	-4
0.02367	-10
0.02733	-17
0.03100	-22
0.03467	-26
0.03833	-26
0.04200	-23
0.04567	-19
0.04933	-15
0.05300	-11
0.05667	-6
0.06033	-4
0.06400	-3
0.06767	-1
0.07133	-1
0.07500	-1
0.07867	1
0.08233	3
0.08600	2
0.08967	0
0.09333	-2
0.09700	-6
0.10067	-10
0.10433	-7
0.10800	1
0.11167	7
0.11533	10
0.11900	10
0.12267	6
0.12633	0
0.13000	-5
0.13367	-6
0.13733	-2
0.14100	2
0.14467	2
0.14833	1
0.15200	2
0.15567	5
0.15933	8
0.16300	9
0.16667	11
0.17033	9
0.17400	9
0.17767	15
0.18133	23
0.18500	30
0.18867	34
0.19233	37
0.19600	39
0.19967	40
0.20333	42
0.20700	45
0.21067	47
0.21433	50
0.21800	60
0.22167	71
0.22533	79
0.22900	82
0.23267	84
0.23633	89
0.24000	97
0.24367	103
0.24733	107
0.25100	105
0.25467	102
0.25833	98
0.26200	96
0.26567	94
0.26933	93
0.27300	92
0.27667	89
0.28033	86
0.28400	85
0.28767	87
0.29133	90
0.29500	95
0.29867	98
0.30233	97
0.30600	95
0.30967	94
0.31333	91
0.31700	91
0.32067	92
0.32433	96
0.32800	99
0.33167	96
0.33533	92
0.33900	86
0.34267	76
0.34633	66
0.35000	53
0.35367	38
0.35733	28
0.36100	20
0.36467	13
0.36833	9
0.37200	10
0.37567	15
0.37933	20
0.38300	28
0.38667	32
0.39033	33
0.39400	34
0.39767	39
0.40133	43
0.40500	41
0.40867	38
0.41233	36
0.41600	36
0.41967	34
0.42333	31
0.42700	28
0.43067	26
0.43433	25
0.43800	25
0.44167	23
0.44533	24
0.44900	24
0.45267	17
0.45633	9
0.46000	5
0.46367	7
0.46733	13
0.47100	20
0.47467	23
0.47833	25
0.48200	31
0.48567	36
0.48933	36
0.49300	33
0.49667	30
0.50033	25
0.50400	18
0.50767	10
0.51133	4
0.51500	3
0.51867	4
0.52233	11
0.52600	22
0.52967	32
0.53333	33
0.53700	27
0.54067	19
0.54433	15
0.54800	15
0.55167	16
0.55533	18
0.55900	21
0.56267	20
0.56633	16
0.57000	11
0.57367	9
0.57733	12
0.58100	14
0.58467	13
0.58833	13
0.59200	18
0.59567	23
0.59933	25
0.60300	23
0.60667	21
0.61033	21
0.61400	19
0.61767	13
0.62133	7
0.62500	2
0.62867	0
0.63233	1
0.63600	4
0.63967	9
0.64333	16
0.64700	23
0.65067	26
0.65433	23
0.65800	21
0.66167	24
0.66533	23
0.66900	16
0.67267	6
0.67633	-5
0.68000	-12
0.68367	-13
0.68733	-7
0.69100	1
0.69467	5
0.69833	9
0.70200	14
0.70567	20
0.70933	21
0.71300	19
0.71667	15
0.72033	7
0.72400	-1
0.72767	-7
0.73133	-4
0.73500	0
0.73867	8
0.74233	14
0.74600	17
0.74967	16
0.75333	13
0.75700	9
0.76067	4
0.76433	-4
0.76800	-10
0.77167	-11
0.77533	-5
0.77900	5
0.78267	11
0.78633	10
0.79000	7
0.79367	6
0.79733	5
0.80100	7
0.80467	11
0.80833	14
0.81200	15
0.81567	11
0.81933	8
0.82300	13
0.82667	19
0.83033	20
0.83400	17
0.83767	14
0.84133	13
0.84500	15
0.84867	16
0.85233	14
0.85600	11
0.85967	7
0.86333	5
0.86700	3
0.87067	4
0.87433	6
0.87800	9
0.88167	15
0.88533	19
0.88900	19
0.89267	20
0.89633	25
0.90000	32
0.90367	39
0.90733	37
0.91100	26
0.91467	8
0.91833	-8
0.92200	-19
0.92567	-24
0.92933	-24
0.93300	-23
0.93667	-18
0.94033	-10
0.94400	-3
0.94767	-1
0.95133	-1
0.95500	1
0.95867	3
0.96233	1
0.96600	2
0.96967	7
0.97333	10
0.97700	10
0.98067	10
0.98433	9
0.98800	7
0.99167	6
0.99533	4
0.99900	-1
1.00267	-8
1.00633	-15
1.01000	-18
1.01367	-18
1.01733	-13
1.02100	-7
1.02467	-1
1.02833	2
1.03200	3
1.03567	-2
1.03933	-8
1.04300	-13
1.04667	-18
1.05033	-20
1.05400	-20
1.05767	-18
1.06133	-12
1.06500	-7
1.06867	-6
1.07233	-9
1.07600	-12
1.07967	-10
1.08333	-7
1.08700	-4
1.09067	-2
1.09433	-3
1.09800	-7
1.10167	-9
1.10533	-9
1.10900	-8
1.11267	-9
1.11633	-15
1.12000	-18
1.12367	-18
1.12733	-17
1.13100	-16
1.13467	-15
1.13833	-16
1.14200	-16
1.14567	-14
1.14933	-10
1.15300	-6
1.15667	-6
1.16033	-5
1.16400	-1
1.16767	1
1.17133	-0
1.17500	0
1.17867	3
1.18233	5
1.18600	6
1.18967	5
1.19333	0
1.19700	-5
1.20067	-11
1.20433	-14
1.20800	-17
1.21167	-22
1.21533	-26
1.21900	-27
1.22267	-31
1.22633	-38
1.23000	-43
1.23367	-43
1.23733	-40
1.24100	-32
1.24467	-20
1.24833	-11
1.25200	-5
1.25567	-2
1.25933	1
1.26300	2
1.26667	2
1.27033	5
1.27400	11
1.27767	18
1.28133	23
1.28500	26
1.28867	27
1.29233	25
1.29600	21
1.29967	17
1.30333	19
1.30700	21
1.31067	23
1.31433	24
1.31800	27
1.32167	29
1.32533	30
1.32900	24
1.33267	14
1.33633	7
1.34000	2
1.34367	1
1.34733	5
1.35100	13
1.35467	19
1.35833	15
1.36200	8
1.36567	3
1.36933	-1
1.37300	-4
1.37667	-2
1.38033	6
1.38400	16
1.38767	21
1.39133	17
1.39500	7
1.39867	3
1.40233	5
1.40600	7
1.40967	8
1.41333	10
1.41700	14
1.42067	15
1.42433	12
1.42800	10
1.43167	11
1.43533	12
1.43900	29
1.44267	116
1.44633	337
1.45000	815
1.45367	1861
1.45733	3604
1.46100	5732
1.46467	7789
1.46833	9483
1.47200	10671
1.47567	11256
1.47933	11141
1.48300	10309
1.48667	8909
1.49033	7232
1.49400	5581
1.49767	4156
1.50133	3033
1.50500	2198
1.50867	1596
1.51233	1168
1.51600	869
1.51967	664
1.52333	525
1.52700	425
1.53067	351
1.53433	297
1.53800	270
1.54167	302
1.54533	454
1.54900	755
1.55267	1160
1.55633	1580
1.56000	1941
1.56367	2207
1.56733	2351
1.57100	2347
1.57467	2174
1.57833	1863
1.58200	1489
1.58567	1127
1.58933	824
1.59300	595
1.59667	429
1.60033	312
1.60400	230
1.60767	173
1.61133	135
1.61500	106
1.61867	84
1.62233	71
1.62600	65
1.62967	61
1.63333	58
1.63700	55
1.64067	53
1.64433	52
1.64800	49
1.65167	42
1.65533	38
1.65900	37
1.66267	30
1.66633	24
1.67000	24
1.67367	28
1.67733	36
1.68100	41
1.68467	40
1.68833	36
1.69200	33
1.69567	31
1.69933	30
1.70300	30
1.70667	29
1.71033	23
1.71400	15
1.71767	9
1.72133	12
1.72500	21
1.72867	26
1.73233	27
1.73600	27
1.73967	30
1.74333	33
1.74700	34
1.75067	33
1.75433	31
1.75800	26
1.76167	22
1.76533	23
1.76900	26
1.77267	27
1.77633	27
1.78000	27
1.78367	24
1.78733	21
1.79100	22
1.79467	26
1.79833	32
1.80200	39
1.80567	37
1.80933	33
1.81300	27
1.81667	20
1.82033	19
1.82400	21
1.82767	23
1.83133	26
1.83500	27
1.83867	25
1.84233	24
1.84600	26
1.84967	29
1.85333	34
1.85700	39
1.86067	45
1.86433	49
1.86800	48
1.87167	43
1.87533	40
1.87900	40
1.88267	41
1.88633	39
1.89000	37
1.89367	32
1.89733	29
1.90100	28
1.90467	29
1.90833	29
1.91200	30
1.91567	37
1.91933	46
1.92300	53
1.92667	54
1.93033	49
1.93400	44
1.93767	38
1.94133	33
1.94500	29
1.94867	28
1.95233	45
1.95600	178
1.95967	965
1.96333	4612
1.96700	17477
1.97067	52213
1.97433	125198
1.97800	245662
1.98167	404572
1.98533	576481
1.98900	731276
1.99267	844354
1.99633	899913
2.00000	891352
2.00367	823413
2.00733	711933
2.01100	579330
2.01467	447390
2.01833	331349
2.02200	238065
2.02567	167830
2.02933	117335
2.03300	82148
2.03667	58102
2.04033	41837
2.04400	30862
2.04767	23424
2.05133	18331
2.05500	14786
2.05867	12266
2.06233	10428
2.06600	9047
2.06967	7983
2.07333	7148
2.07700	6480
2.08067	5932
2.08433	5474
2.08800	5085
2.09167	4749
2.09533	4451
2.09900	4183
2.10267	3943
2.10633	3730
2.11000	3546
2.11367	3378
2.11733	3215
2.12100	3060
2.12467	2919
2.12833	2795
2.13200	2687
2.13567	2591
2.13933	2500
2.14300	2415
2.14667	2333
2.15033	2254
2.15400	2174
2.15767	2097
2.16133	2025
2.16500	1960
2.16867	1897
2.17233	1836
2.17600	1778
2.17967	1726
2.18333	1679
2.18700	1641
2.19067	1608
2.19433	1576
2.19800	1543
2.20167	1506
2.20533	1474
2.20900	1450
2.21267	1425
2.21633	1391
2.22000	1350
2.22367	1308
2.22733	1267
2.23100	1232
2.23467	1203
2.23833	1177
2.24200	1156
2.24567	1139
2.24933	1127
2.25300	1117
2.25667	1101
2.26033	1079
2.26400	1054
2.26767	1029
2.27133	1004
2.27500	979
2.27867	960
2.28233	946
2.28600	935
2.28967	925
2.29333	912
2.29700	898
2.30067	883
2.30433	870
2.30800	862
2.31167	856
2.31533	851
2.31900	845
2.32267	838
2.32633	825
2.33000	804
2.33367	778
2.33733	754
2.34100	737
2.34467	725
2.34833	718
2.35200	714
2.35567	708
2.35933	701
2.36300	694
2.36667	686
2.37033	676
2.37400	667
2.37767	661
2.38133	658
2.38500	657
2.38867	659
2.39233	666
2.39600	670
2.39967	665
2.40333	657
2.40700	649
2.41067	643
2.41433	639
2.41800	637
2.42167	638
2.42533	637
2.42900	632
2.43267	622
2.43633	610
2.44000	597
2.44367	589
2.44733	590
2.45100	589
2.45467	580
2.45833	566
2.46200	552
2.46567	543
2.46933	537
2.47300	529
2.47667	518
2.48033	506
2.48400	497
2.48767	487
2.49133	480
2.49500	478
2.49867	478
2.50233	481
2.50600	482
2.50967	483
2.51333	486
2.51700	487
2.52067	487
2.52433	484
2.52800	481
2.53167	481
2.53533	482
2.53900	487
2.54267	492
2.54633	495
2.55000	498
2.55367	502
2.55733	506
2.56100	502
2.56467	491
2.56833	475
2.57200	462
2.57567	452
2.57933	443
2.58300	434
2.58667	429
2.59033	422
2.59400	415
2.59767	414
2.60133	419
2.60500	428
2.60867	438
2.61233	447
2.61600	453
2.61967	454
2.62333	453
2.62700	451
2.63067	446
2.63433	440
2.63800	433
2.64167	426
2.64533	418
2.64900	414
2.65267	415
2.65633	417
2.66000	420
2.66367	421
2.66733	420
2.67100	418
2.67467	413
2.67833	410
2.68200	409
2.68567	407
2.68933	405
2.69300	404
2.69667	400
2.70033	394
2.70400	391
2.70767	390
2.71133	394
2.71500	399
2.71867	401
2.72233	402
2.72600	404
2.72967	408
2.73333	413
2.73700	417
2.74067	417
2.74433	417
2.74800	418
2.75167	412
2.75533	400
2.75900	391
2.76267	389
2.76633	389
2.77000	391
2.77367	390
2.77733	386
2.78100	385
2.78467	382
2.78833	382
2.79200	385
2.79567	390
2.79933	392
2.80300	395
2.80667	396
2.81033	401
2.81400	411
2.81767	415
2.82133	412
2.82500	402
2.82867	390
2.83233	379
2.83600	368
2.83967	360
2.84333	356
2.84700	355
2.85067	355
2.85433	357
2.85800	359
2.86167	363
2.86533	369
2.86900	375
2.87267	376
2.87633	369
2.88000	364
2.88367	365
2.88733	369
2.89100	373
2.89467	376
2.89833	379
2.90200	382
2.90567	385
2.90933	387
2.91300	387
2.91667	382
2.92033	375
2.92400	369
2.92767	370
2.93133	377
2.93500	384
2.93867	384
2.94233	378
2.94600	370
2.94967	366
2.95333	366
2.95700	364
2.96067	361
2.96433	356
2.96800	354
2.97167	351
2.97533	348
2.97900	346
2.98267	345
2.98633	343
2.99000	346
2.99367	353
2.99733	360
3.00100	365
3.00467	365
3.00833	364
3.01200	366
3.01567	369
3.01933	372
3.02300	374
3.02667	376
3.03033	377
3.03400	374
3.03767	371
3.04133	367
3.04500	360
3.04867	352
3.05233	348
3.05600	346
3.05967	343
3.06333	340
3.06700	338
3.07067	343
3.07433	348
3.07800	352
3.08167	350
3.08533	348
3.08900	347
3.09267	347
3.09633	348
3.10000	352
3.10367	358
3.10733	363
3.11100	365
3.11467	361
3.11833	352
3.12200	343
3.12567	337
3.12933	334
3.13300	335
3.13667	335
3.14033	338
3.14400	346
3.14767	354
3.15133	360
3.15500	363
3.15867	364
3.16233	357
3.16600	349
3.16967	345
3.17333	345
3.17700	342
3.18067	340
3.18433	337
3.18800	334
3.19167	328
3.19533	324
3.19900	322
3.20267	322
3.20633	325
3.21000	328
3.21367	330
3.21733	328
3.22100	327
3.22467	330
3.22833	332
3.23200	333
3.23567	334
3.23933	332
3.24300	326
3.24667	320
3.25033	317
3.25400	317
3.25767	320
3.26133	325
3.26500	327
3.26867	326
3.27233	327
3.27600	327
3.27967	327
3.28333	328
3.28700	327
3.29067	324
3.29433	321
3.29800	316
3.30167	310
3.30533	307
3.30900	307
3.31267	309
3.31633	313
3.32000	318
3.32367	320
3.32733	317
3.33100	311
3.33467	303
3.33833	292
3.34200	281
3.34567	274
3.34933	275
3.35300	285
3.35667	300
3.36033	313
3.36400	319
3.36767	318
3.37133	310
3.37500	298
3.37867	286
3.38233	274
3.38600	265
3.38967	264
3.39333	270
3.39700	279
3.40067	287
3.40433	290
3.40800	292
3.41167	295
3.41533	294
3.41900	290
3.42267	286
3.42633	280
3.43000	281
3.43367	291
3.43733	304
3.44100	311
3.44467	309
3.44833	301
3.45200	291
3.45567	284
3.45933	280
3.46300	278
3.46667	274
3.47033	271
3.47400	268
3.47767	267
3.48133	270
3.48500	276
3.48867	283
3.49233	285
3.49600	281
3.49967	275
3.50333	272
3.50700	269
3.51067	270
3.51433	276
3.51800	280
3.52167	282
3.52533	282
3.52900	281
3.53267	280
3.53633	279
3.54000	278
3.54367	279
3.54733	282
3.55100	282
3.55467	281
3.55833	280
3.56200	275
3.56567	264
3.56933	255
3.57300	253
3.57667	253
3.58033	252
3.58400	248
3.58767	240
3.59133	235
3.59500	235
3.59867	238
3.60233	242
3.60600	244
3.60967	243
3.61333	242
3.61700	241
3.62067	243
3.62433	245
3.62800	242
3.63167	239
3.63533	239
3.63900	244
3.64267	254
3.64633	261
3.65000	264
3.65367	263
3.65733	262
3.66100	260
3.66467	256
3.66833	249
3.67200	245
3.67567	247
3.67933	246
3.68300	240
3.68667	231
3.69033	224
3.69400	221
3.69767	223
3.70133	229
3.70500	234
3.70867	236
3.71233	238
3.71600	238
3.71967	234
3.72333	232
3.72700	232
3.73067	236
3.73433	240
3.73800	238
3.74167	232
3.74533	229
3.74900	230
3.75267	228
3.75633	225
3.76000	223
3.76367	221
3.76733	221
3.77100	227
3.77467	234
3.77833	237
3.78200	239
3.78567	236
3.78933	229
3.79300	224
3.79667	220
3.80033	215
3.80400	213
3.80767	217
3.81133	217
3.81500	216
3.81867	216
3.82233	213
3.82600	210
3.82967	206
3.83333	201
3.83700	196
3.84067	193
3.84433	194
3.84800	200
3.85167	212
3.85533	224
3.85900	230
3.86267	227
3.86633	217
3.87000	208
3.87367	202
3.87733	199
3.88100	198
3.88467	199
3.88833	203
3.89200	207
3.89567	208
3.89933	204
3.90300	198
3.90667	193
3.91033	191
3.91400	188
3.91767	187
3.92133	191
3.92500	198
3.92867	205
3.93233	211
3.93600	210
3.93967	200
3.94333	187
3.94700	178
3.95067	175
3.95433	178
3.95800	179
3.96167	178
3.96533	175
3.96900	177
3.97267	182
3.97633	188
3.98000	192
3.98367	194
3.98733	193
3.99100	192
3.99467	187
3.99833	182

[Chromatogram (Ch2)]
Interval(msec)	220
# of Points	1091
Start Time(min)	0.002
End Time(min)	3.998
R.Time (min)	Intensity
0.00167	-0
0.00533	-0
0.00900	-0
0.01267	-0
0.01633	0
0.02000	0
0.02367	1
0.02733	1
0.03100	1
0.03467	1
0.03833	1
0.04200	1
0.04567	1
0.04933	1
0.05300	1
0.05667	1
0.06033	1
0.06400	1
0.06767	1
0.07133	1
0.07500	1
0.07867	1
0.08233	1
0.08600	1
0.08967	1
0.09333	2
0.09700	2
0.10067	2
0.10433	2
0.10800	2
0.11167	2
0.11533	1
0.11900	1
0.12267	1
0.12633	1
0.13000	1
0.13367	1
0.13733	0
0.14100	0
0.14467	0
0.14833	0
0.15200	0
0.15567	0
0.15933	0
0.16300	0
0.16667	0
0.17033	-0
0.17400	-0
0.17767	-0
0.18133	-0
0.18500	-0
0.18867	-0
0.19233	0
0.19600	1
0.19967	1
0.20333	1
0.20700	1
0.21067	2
0.21433	2
0.21800	2
0.22167	3
0.22533	3
0.22900	3
0.23267	3
0.23633	4
0.24000	4
0.24367	4
0.24733	4
0.25100	4
0.25467	3
0.25833	3
0.26200	3
0.26567	2
0.26933	2
0.27300	2
0.27667	2
0.28033	2
0.28400	2
0.28767	2
0.29133	2
0.29500	2
0.29867	1
0.30233	1
0.30600	1
0.30967	1
0.31333	0
0.31700	-0
0.32067	-1
0.32433	-1
0.32800	-1
0.33167	-2
0.33533	-2
0.33900	-2
0.34267	-2
0.34633	-2
0.35000	-2
0.35367	-1
0.35733	-1
0.36100	-1
0.36467	-1
0.36833	-1
0.37200	-1
0.37567	-1
0.37933	-0
0.38300	-0
0.38667	-0
0.39033	-1
0.39400	-1
0.39767	-1
0.40133	-1
0.40500	-1
0.40867	-1
0.41233	-1
0.41600	-2
0.41967	-2
0.42333	-2
0.42700	-2
0.43067	-2
0.43433	-2
0.43800	-2
0.44167	-2
0.44533	-2
0.44900	-1
0.45267	-1
0.45633	0
0.46000	1
0.46367	1
0.46733	2
0.47100	2
0.47467	3
0.47833	3
0.48200	3
0.48567	3
0.48933	3
0.49300	3
0.49667	2
0.50033	2
0.50400	2
0.50767	1
0.51133	1
0.51500	1
0.51867	1
0.52233	1
0.52600	1
0.52967	0
0.53333	0
0.53700	0
0.54067	0
0.54433	1
0.54800	0
0.55167	0
0.55533	0
0.55900	-0
0.56267	-0
0.56633	-0
0.57000	-1
0.57367	-1
0.57733	-0
0.58100	-0
0.58467	-0
0.58833	0
0.59200	0
0.59567	0
0.59933	0
0.60300	0
0.60667	1
0.61033	1
0.61400	1
0.61767	1
0.62133	0
0.62500	0
0.62867	0
0.63233	-0
0.63600	-0
0.63967	0
0.64333	0
0.64700	-0
0.65067	-0
0.65433	-1
0.65800	-1
0.66167	-1
0.66533	-1
0.66900	-2
0.67267	-2
0.67633	-2
0.68000	-2
0.68367	-2
0.68733	-3
0.69100	-2
0.69467	-2
0.69833	-2
0.70200	-2
0.70567	-2
0.70933	-2
0.71300	-2
0.71667	-2
0.72033	-1
0.72400	-1
0.72767	-1
0.73133	-0
0.73500	-0
0.73867	-0
0.74233	-0
0.74600	-0
0.74967	-0
0.75333	-1
0.75700	-1
0.76067	-1
0.76433	-1
0.76800	-0
0.77167	-0
0.77533	0
0.77900	0
0.78267	1
0.78633	1
0.79000	1
0.79367	2
0.79733	2
0.80100	3
0.80467	3
0.80833	4
0.81200	4
0.81567	4
0.81933	4
0.82300	4
0.82667	4
0.83033	4
0.83400	4
0.83767	4
0.84133	3
0.84500	3
0.84867	2
0.85233	1
0.85600	1
0.85967	1
0.86333	1
0.86700	1
0.87067	1
0.87433	0
0.87800	0
0.88167	0
0.88533	0
0.88900	-0
0.89267	-0
0.89633	-1
0.90000	-1
0.90367	-1
0.90733	-1
0.91100	-1
0.91467	-1
0.91833	-1
0.92200	-1
0.92567	-1
0.92933	-1
0.93300	-2
0.93667	-1
0.94033	-1
0.94400	-1
0.94767	-2
0.95133	-2
0.95500	-2
0.95867	-2
0.96233	-2
0.96600	-2
0.96967	-2
0.97333	-2
0.97700	-1
0.98067	-1
0.98433	-1
0.98800	-1
0.99167	-0
0.99533	-0
0.99900	0
1.00267	1
1.00633	1
1.01000	1
1.01367	1
1.01733	1
1.02100	1
1.02467	1
1.02833	1
1.03200	1
1.03567	1
1.03933	1
1.04300	1
1.04667	0
1.05033	0
1.05400	0
1.05767	0
1.06133	0
1.06500	0
1.06867	-0
1.07233	-0
1.07600	-0
1.07967	-0
1.08333	-1
1.08700	-1
1.09067	-1
1.09433	-1
1.09800	-2
1.10167	-2
1.10533	-2
1.10900	-2
1.11267	-2
1.11633	-2
1.12000	-2
1.12367	-2
1.12733	-2
1.13100	-2
1.13467	-2
1.13833	-2
1.14200	-1
1.14567	-1
1.14933	-1
1.15300	-0
1.15667	0
1.16033	1
1.16400	1
1.16767	1
1.17133	2
1.17500	2
1.17867	2
1.18233	2
1.18600	2
1.18967	2
1.19333	2
1.19700	1
1.20067	1
1.20433	-0
1.20800	-1
1.21167	-1
1.21533	-2
1.21900	-2
1.22267	-2
1.22633	-2
1.23000	-2
1.23367	-3
1.23733	-3
1.24100	-3
1.24467	-4
1.24833	-4
1.25200	-4
1.25567	-4
1.25933	-3
1.26300	-3
1.26667	-3
1.27033	-3
1.27400	-3
1.27767	-3
1.28133	-2
1.28500	-2
1.28867	-2
1.29233	-1
1.29600	-1
1.29967	-1
1.30333	-1
1.30700	-1
1.31067	-1
1.31433	-1
1.31800	-1
1.32167	-1
1.32533	-1
1.32900	-1
1.33267	-1
1.33633	-1
1.34000	-1
1.34367	-1
1.34733	-1
1.35100	-1
1.35467	-0
1.35833	-0
1.36200	-0
1.36567	0
1.36933	-0
1.37300	-0
1.37667	-0
1.38033	-1
1.38400	-1
1.38767	-1
1.39133	-2
1.39500	-2
1.39867	-2
1.40233	-2
1.40600	-2
1.40967	-2
1.41333	-2
1.41700	-2
1.42067	-2
1.42433	-2
1.42800	-2
1.43167	-1
1.43533	-1
1.43900	-1
1.44267	-1
1.44633	-1
1.45000	-1
1.45367	-1
1.45733	-1
1.46100	-1
1.46467	-1
1.46833	-1
1.47200	-1
1.47567	-2
1.47933	-2
1.48300	-2
1.48667	-3
1.49033	-3
1.49400	-3
1.49767	-4
1.50133	-4
1.50500	-4
1.50867	-4
1.51233	-4
1.51600	-3
1.51967	-3
1.52333	-3
1.52700	-3
1.53067	-3
1.53433	-3
1.53800	-2
1.54167	-2
1.54533	-2
1.54900	-2
1.55267	-2
1.55633	-2
1.56000	-2
1.56367	-2
1.56733	-2
1.57100	-2
1.57467	-2
1.57833	-2
1.58200	-3
1.58567	-3
1.58933	-3
1.59300	-4
1.59667	-4
1.60033	-5
1.60400	-6
1.60767	-7
1.61133	-9
1.61500	-10
1.61867	-12
1.62233	-15
1.62600	-18
1.62967	-20
1.63333	-24
1.63700	-27
1.64067	-31
1.64433	-34
1.64800	-38
1.65167	-42
1.65533	-45
1.65900	-49
1.66267	-53
1.66633	-58
1.67000	-63
1.67367	-67
1.67733	-73
1.68100	-78
1.68467	-83
1.68833	-88
1.69200	-92
1.69567	-96
1.69933	-99
1.70300	-102
1.70667	-104
1.71033	-106
1.71400	-107
1.71767	-108
1.72133	-109
1.72500	-110
1.72867	-110
1.73233	-110
1.73600	-109
1.73967	-108
1.74333	-108
1.74700	-108
1.75067	-108
1.75433	-108
1.75800	-109
1.76167	-111
1.76533	-112
1.76900	-113
1.77267	-114
1.77633	-115
1.78000	-115
1.78367	-115
1.78733	-115
1.79100	-114
1.79467	-114
1.79833	-113
1.80200	-113
1.80567	-113
1.80933	-113
1.81300	-114
1.81667	-114
1.82033	-115
1.82400	-115
1.82767	-115
1.83133	-116
1.83500	-116
1.83867	-116
1.84233	-116
1.84600	-116
1.84967	-115
1.85333	-115
1.85700	-115
1.86067	-115
1.86433	-115
1.86800	-115
1.87167	-115
1.87533	-115
1.87900	-114
1.88267	-114
1.88633	-114
1.89000	-114
1.89367	-115
1.89733	-115
1.90100	-116
1.90467	-116
1.90833	-117
1.91200	-117
1.91567	-117
1.91933	-117
1.92300	-117
1.92667	-117
1.93033	-116
1.93400	-116
1.93767	-115
1.94133	-114
1.94500	-113
1.94867	-113
1.95233	-112
1.95600	-112
1.95967	-113
1.96333	-113
1.96700	-113
1.97067	-113
1.97433	-113
1.97800	-112
1.98167	-112
1.98533	-111
1.98900	-111
1.99267	-110
1.99633	-110
2.00000	-110
2.00367	-110
2.00733	-110
2.01100	-110
2.01467	-110
2.01833	-110
2.02200	-110
2.02567	-109
2.02933	-108
2.03300	-107
2.03667	-107
2.04033	-107
2.04400	-107
2.04767	-107
2.05133	-106
2.05500	-106
2.05867	-106
2.06233	-106
2.06600	-105
2.06967	-105
2.07333	-104
2.07700	-104
2.08067	-104
2.08433	-103
2.08800	-102
2.09167	-102
2.09533	-101
2.09900	-101
2.10267	-101
2.10633	-100
2.11000	-101
2.11367	-101
2.11733	-101
2.12100	-101
2.12467	-101
2.12833	-101
2.13200	-100
2.13567	-100
2.13933	-100
2.14300	-99
2.14667	-99
2.15033	-99
2.15400	-99
2.15767	-99
2.16133	-99
2.16500	-98
2.16867	-98
2.17233	-97
2.17600	-97
2.17967	-96
2.18333	-95
2.18700	-95
2.19067	-95
2.19433	-95
2.19800	-95
2.20167	-94
2.20533	-94
2.20900	-93
2.21267	-93
2.21633	-92
2.22000	-92
2.22367	-92
2.22733	-92
2.23100	-91
2.23467	-91
2.23833	-91
2.24200	-91
2.24567	-91
2.24933	-90
2.25300	-90
2.25667	-90
2.26033	-89
2.26400	-89
2.26767	-89
2.27133	-88
2.27500	-87
2.27867	-86
2.28233	-86
2.28600	-86
2.28967	-85
2.29333	-85
2.29700	-84
2.30067	-84
2.30433	-84
2.30800	-83
2.31167	-83
2.31533	-83
2.31900	-83
2.32267	-82
2.32633	-82
2.33000	-82
2.33367	-81
2.33733	-80
2.34100	-79
2.34467	-79
2.34833	-78
2.35200	-77
2.35567	-76
2.35933	-76
2.36300	-74
2.36667	-73
2.37033	-71
2.37400	-68
2.37767	-65
2.38133	-62
2.38500	-58
2.38867	-54
2.39233	-50
2.39600	-46
2.39967	-41
2.40333	-37
2.40700	-33
2.41067	-29
2.41433	-25
2.41800	-23
2.42167	-21
2.42533	-19
2.42900	-17
2.43267	-16
2.43633	-15
2.44000	-14
2.44367	-13
2.44733	-12
2.45100	-11
2.45467	-9
2.45833	-8
2.46200	-6
2.46567	-4
2.46933	-3
2.47300	-2
2.47667	-1
2.48033	-0
2.48400	0
2.48767	1
2.49133	1
2.49500	2
2.49867	3
2.50233	4
2.50600	5
2.50967	6
2.51333	7
2.51700	8
2.52067	8
2.52433	8
2.52800	9
2.53167	9
2.53533	10
2.53900	10
2.54267	11
2.54633	12
2.55000	13
2.55367	14
2.55733	14
2.56100	15
2.56467	15
2.56833	15
2.57200	15
2.57567	16
2.57933	16
2.58300	16
2.58667	16
2.59033	15
2.59400	15
2.59767	15
2.60133	15
2.60500	15
2.60867	15
2.61233	15
2.61600	15
2.61967	16
2.62333	16
2.62700	16
2.63067	17
2.63433	17
2.63800	17
2.64167	17
2.64533	18
2.64900	18
2.65267	18
2.65633	18
2.66000	18
2.66367	18
2.66733	18
2.67100	18
2.67467	18
2.67833	19
2.68200	19
2.68567	19
2.68933	20
2.69300	20
2.69667	20
2.70033	21
2.70400	21
2.70767	22
2.71133	23
2.71500	23
2.71867	24
2.72233	25
2.72600	25
2.72967	25
2.73333	26
2.73700	26
2.74067	25
2.74433	25
2.74800	25
2.75167	24
2.75533	24
2.75900	23
2.76267	23
2.76633	23
2.77000	23
2.77367	23
2.77733	23
2.78100	24
2.78467	24
2.78833	24
2.79200	24
2.79567	24
2.79933	25
2.80300	25
2.80667	25
2.81033	25
2.81400	25
2.81767	26
2.82133	26
2.82500	26
2.82867	26
2.83233	26
2.83600	25
2.83967	24
2.84333	21
2.84700	16
2.85067	9
2.85433	-1
2.85800	-14
2.86167	-32
2.86533	-53
2.86900	-79
2.87267	-109
2.87633	-144
2.88000	-182
2.88367	-224
2.88733	-269
2.89100	-316
2.89467	-366
2.89833	-418
2.90200	-471
2.90567	-525
2.90933	-579
2.91300	-633
2.91667	-687
2.92033	-740
2.92400	-791
2.92767	-842
2.93133	-895
2.93500	-952
2.93867	-1011
2.94233	-1063
2.94600	-1097
2.94967	-1106
2.95333	-1089
2.95700	-1048
2.96067	-990
2.96433	-919
2.96800	-841
2.97167	-760
2.97533	-680
2.97900	-603
2.98267	-532
2.98633	-465
2.99000	-405
2.99367	-351
2.99733	-303
3.00100	-260
3.00467	-222
3.00833	-190
3.01200	-161
3.01567	-137
3.01933	-115
3.02300	-97
3.02667	-81
3.03033	-68
3.03400	-56
3.03767	-46
3.04133	-37
3.04500	-30
3.04867	-24
3.05233	-18
3.05600	-14
3.05967	-10
3.06333	-6
3.06700	-3
3.07067	-1
3.07433	1
3.07800	3
3.08167	5
3.08533	6
3.08900	7
3.09267	8
3.09633	9
3.10000	9
3.10367	10
3.10733	11
3.11100	12
3.11467	12
3.11833	13
3.12200	13
3.12567	14
3.12933	14
3.13300	15
3.13667	15
3.14033	15
3.14400	15
3.14767	16
3.15133	16
3.15500	16
3.15867	17
3.16233	17
3.16600	17
3.16967	18
3.17333	18
3.17700	19
3.18067	19
3.18433	19
3.18800	19
3.19167	19
3.19533	20
3.19900	20
3.20267	20
3.20633	20
3.21000	21
3.21367	21
3.21733	22
3.22100	22
3.22467	23
3.22833	23
3.23200	24
3.23567	24
3.23933	24
3.24300	25
3.24667	25
3.25033	26
3.25400	26
3.25767	26
3.26133	26
3.26500	26
3.26867	26
3.27233	26
3.27600	26
3.27967	26
3.28333	26
3.28700	26
3.29067	26
3.29433	25
3.29800	25
3.30167	25
3.30533	25
3.30900	24
3.31267	24
3.31633	24
3.32000	24
3.32367	24
3.32733	24
3.33100	24
3.33467	24
3.33833	24
3.34200	25
3.34567	25
3.34933	25
3.35300	25
3.35667	26
3.36033	26
3.36400	26
3.36767	26
3.37133	26
3.37500	26
3.37867	27
3.38233	27
3.38600	27
3.38967	27
3.39333	27
3.39700	28
3.40067	28
3.40433	28
3.40800	27
3.41167	27
3.41533	27
3.41900	27
3.42267	26
3.42633	26
3.43000	26
3.43367	26
3.43733	26
3.44100	26
3.44467	26
3.44833	26
3.45200	26
3.45567	26
3.45933	26
3.46300	26
3.46667	25
3.47033	25
3.47400	25
3.47767	25
3.48133	25
3.48500	25
3.48867	25
3.49233	25
3.49600	25
3.49967	25
3.50333	25
3.50700	25
3.51067	25
3.51433	25
3.51800	25
3.52167	25
3.52533	25
3.52900	25
3.53267	25
3.53633	25
3.54000	26
3.54367	26
3.54733	26
3.55100	26
3.55467	25
3.55833	25
3.56200	25
3.56567	25
3.56933	25
3.57300	25
3.57667	25
3.58033	25
3.58400	24
3.58767	24
3.59133	24
3.59500	24
3.59867	24
3.60233	24
3.60600	25
3.60967	25
3.61333	25
3.61700	25
3.62067	25
3.62433	25
3.62800	25
3.63167	25
3.63533	25
3.63900	25
3.64267	25
3.64633	26
3.65000	26
3.65367	26
3.65733	27
3.66100	27
3.66467	27
3.66833	27
3.67200	27
3.67567	27
3.67933	27
3.68300	27
3.68667	27
3.69033	27
3.69400	27
3.69767	27
3.70133	27
3.70500	27
3.70867	27
3.71233	27
3.71600	27
3.71967	27
3.72333	27
3.72700	27
3.73067	27
3.73433	27
3.73800	27
3.74167	27
3.74533	27
3.74900	28
3.75267	28
3.75633	28
3.76000	27
3.76367	27
3.76733	28
3.77100	28
3.77467	28
3.77833	27
3.78200	27
3.78567	27
3.78933	27
3.79300	27
3.79667	27
3.80033	27
3.80400	27
3.80767	27
3.81133	26
3.81500	26
3.81867	26
3.82233	25
3.82600	25
3.82967	24
3.83333	24
3.83700	24
3.84067	24
3.84433	24
3.84800	24
3.85167	23
3.85533	23
3.85900	23
3.86267	24
3.86633	24
3.87000	24
3.87367	24
3.87733	25
3.88100	25
3.88467	25
3.88833	25
3.89200	25
3.89567	25
3.89933	25
3.90300	25
3.90667	25
3.91033	25
3.91400	25
3.91767	25
3.92133	26
3.92500	26
3.92867	26
3.93233	26
3.93600	26
3.93967	26
3.94333	26
3.94700	26
3.95067	26
3.95433	26
3.95800	26
3.96167	26
3.96533	26
3.96900	26
3.97267	26
3.97633	26
3.98000	26
3.98367	26
3.98733	26
3.99100	26
3.99467	26
3.99833	27

[Chromatogram (Ch3)]
Interval(msec)	220
# of Points	1091
Start Time(min)	0.002
End Time(min)	3.998
R.Time (min)	Intensity
0.00167	-1
0.00533	-2
0.00900	-2
0.01267	-3
0.01633	-3
0.02000	-3
0.02367	-3
0.02733	-2
0.03100	-3
0.03467	-2
0.03833	-2
0.04200	-2
0.04567	-0
0.04933	2
0.05300	1
0.05667	-0
0.06033	-1
0.06400	-3
0.06767	-3
0.07133	-2
0.07500	-1
0.07867	-2
0.08233	-1
0.08600	-1
0.08967	-1
0.09333	-2
0.09700	-2
0.10067	-4
0.10433	-6
0.10800	-7
0.11167	-6
0.11533	-3
0.11900	-0
0.12267	3
0.12633	4
0.13000	2
0.13367	2
0.13733	1
0.14100	-1
0.14467	-1
0.14833	-3
0.15200	-5
0.15567	-5
0.15933	-4
0.16300	-5
0.16667	-3
0.17033	-2
0.17400	-0
0.17767	-0
0.18133	-1
0.18500	-3
0.18867	-4
0.19233	-7
0.19600	-7
0.19967	-5
0.20333	-3
0.20700	-3
0.21067	-3
0.21433	-2
0.21800	-2
0.22167	-3
0.22533	-4
0.22900	-4
0.23267	-5
0.23633	-6
0.24000	-5
0.24367	-4
0.24733	-4
0.25100	-5
0.25467	-4
0.25833	-2
0.26200	-1
0.26567	-1
0.26933	-2
0.27300	-4
0.27667	-5
0.28033	-6
0.28400	-7
0.28767	-8
0.29133	-8
0.29500	-7
0.29867	-7
0.30233	-6
0.30600	-5
0.30967	-3
0.31333	-3
0.31700	-3
0.32067	-3
0.32433	-3
0.32800	-3
0.33167	-3
0.33533	-2
0.33900	-1
0.34267	-1
0.34633	0
0.35000	1
0.35367	2
0.35733	1
0.36100	-0
0.36467	-2
0.36833	-2
0.37200	-0
0.37567	1
0.37933	1
0.38300	1
0.38667	2
0.39033	2
0.39400	1
0.39767	1
0.40133	1
0.40500	2
0.40867	2
0.41233	0
0.41600	-0
0.41967	2
0.42333	3
0.42700	2
0.43067	2
0.43433	1
0.43800	2
0.44167	4
0.44533	5
0.44900	3
0.45267	3
0.45633	3
0.46000	1
0.46367	1
0.46733	-1
0.47100	-2
0.47467	-3
0.47833	-2
0.48200	-3
0.48567	-4
0.48933	-3
0.49300	-1
0.49667	-1
0.50033	-1
0.50400	-1
0.50767	-1
0.51133	-2
0.51500	-2
0.51867	-3
0.52233	-3
0.52600	-2
0.52967	-2
0.53333	-0
0.53700	2
0.54067	3
0.54433	2
0.54800	3
0.55167	2
0.55533	2
0.55900	2
0.56267	3
0.56633	5
0.57000	8
0.57367	8
0.57733	8
0.58100	8
0.58467	6
0.58833	5
0.59200	4
0.59567	3
0.59933	3
0.60300	3
0.60667	3
0.61033	4
0.61400	5
0.61767	6
0.62133	5
0.62500	4
0.62867	6
0.63233	10
0.63600	11
0.63967	11
0.64333	10
0.64700	10
0.65067	8
0.65433	5
0.65800	5
0.66167	6
0.66533	5
0.66900	4
0.67267	3
0.67633	5
0.68000	8
0.68367	9
0.68733	10
0.69100	11
0.69467	9
0.69833	7
0.70200	6
0.70567	6
0.70933	5
0.71300	8
0.71667	11
0.72033	10
0.72400	10
0.72767	9
0.73133	8
0.73500	9
0.73867	12
0.74233	14
0.74600	15
0.74967	15
0.75333	16
0.75700	15
0.76067	14
0.76433	15
0.76800	15
0.77167	13
0.77533	14
0.77900	13
0.78267	12
0.78633	11
0.79000	8
0.79367	6
0.79733	4
0.80100	5
0.80467	7
0.80833	7
0.81200	6
0.81567	5
0.81933	5
0.82300	4
0.82667	6
0.83033	9
0.83400	9
0.83767	8
0.84133	9
0.84500	11
0.84867	12
0.85233	12
0.85600	11
0.85967	11
0.86333	10
0.86700	10
0.87067	10
0.87433	11
0.87800	13
0.88167	13
0.88533	13
0.88900	15
0.89267	17
0.89633	18
0.90000	18
0.90367	17
0.90733	16
0.91100	15
0.91467	15
0.91833	16
0.92200	16
0.92567	17
0.92933	17
0.93300	16
0.93667	16
0.94033	14
0.94400	11
0.94767	10
0.95133	10
0.95500	10
0.95867	13
0.96233	15
0.96600	14
0.96967	14
0.97333	15
0.97700	16
0.98067	17
0.98433	18
0.98800	20
0.99167	20
0.99533	19
0.99900	18
1.00267	20
1.00633	21
1.01000	22
1.01367	21
1.01733	21
1.02100	21
1.02467	19
1.02833	17
1.03200	16
1.03567	16
1.03933	19
1.04300	20
1.04667	18
1.05033	16
1.05400	15
1.05767	16
1.06133	18
1.06500	17
1.06867	16
1.07233	14
1.07600	14
1.07967	15
1.08333	17
1.08700	20
1.09067	23
1.09433	22
1.09800	19
1.10167	18
1.10533	19
1.10900	20
1.11267	22
1.11633	21
1.12000	18
1.12367	18
1.12733	19
1.13100	18
1.13467	16
1.13833	17
1.14200	18
1.14567	20
1.14933	22
1.15300	23
1.15667	22
1.16033	20
1.16400	20
1.16767	20
1.17133	19
1.17500	18
1.17867	15
1.18233	15
1.18600	16
1.18967	17
1.19333	19
1.19700	18
1.20067	19
1.20433	20
1.20800	20
1.21167	20
1.21533	18
1.21900	17
1.22267	17
1.22633	18
1.23000	18
1.23367	20
1.23733	19
1.24100	17
1.24467	15
1.24833	15
1.25200	18
1.25567	17
1.25933	18
1.26300	20
1.26667	22
1.27033	21
1.27400	20
1.27767	19
1.28133	20
1.28500	20
1.28867	21
1.29233	22
1.29600	22
1.29967	21
1.30333	21
1.30700	22
1.31067	22
1.31433	22
1.31800	21
1.32167	20
1.32533	20
1.32900	19
1.33267	17
1.33633	16
1.34000	17
1.34367	18
1.34733	19
1.35100	22
1.35467	22
1.35833	24
1.36200	27
1.36567	27
1.36933	27
1.37300	25
1.37667	23
1.38033	23
1.38400	25
1.38767	27
1.39133	27
1.39500	25
1.39867	23
1.40233	21
1.40600	20
1.40967	20
1.41333	21
1.41700	21
1.42067	23
1.42433	24
1.42800	25
1.43167	27
1.43533	26
1.43900	23
1.44267	22
1.44633	20
1.45000	22
1.45367	24
1.45733	25
1.46100	25
1.46467	24
1.46833	24
1.47200	22
1.47567	21
1.47933	22
1.48300	25
1.48667	26
1.49033	23
1.49400	22
1.49767	21
1.50133	20
1.50500	22
1.50867	25
1.51233	28
1.51600	31
1.51967	30
1.52333	29
1.52700	27
1.53067	27
1.53433	27
1.53800	27
1.54167	28
1.54533	29
1.54900	29
1.55267	28
1.55633	28
1.56000	27
1.56367	25
1.56733	25
1.57100	25
1.57467	25
1.57833	25
1.58200	24
1.58567	25
1.58933	28
1.59300	30
1.59667	29
1.60033	28
1.60400	29
1.60767	28
1.61133	28
1.61500	29
1.61867	30
1.62233	32
1.62600	33
1.62967	32
1.63333	30
1.63700	30
1.64067	32
1.64433	33
1.64800	32
1.65167	32
1.65533	32
1.65900	34
1.66267	37
1.66633	39
1.67000	40
1.67367	40
1.67733	38
1.68100	36
1.68467	35
1.68833	36
1.69200	39
1.69567	42
1.69933	44
1.70300	46
1.70667	46
1.71033	46
1.71400	46
1.71767	45
1.72133	45
1.72500	45
1.72867	48
1.73233	51
1.73600	52
1.73967	53
1.74333	53
1.74700	52
1.75067	51
1.75433	52
1.75800	52
1.76167	54
1.76533	55
1.76900	55
1.77267	56
1.77633	56
1.78000	55
1.78367	53
1.78733	53
1.79100	54
1.79467	55
1.79833	55
1.80200	56
1.80567	58
1.80933	58
1.81300	60
1.81667	60
1.82033	60
1.82400	60
1.82767	61
1.83133	62
1.83500	62
1.83867	62
1.84233	62
1.84600	62
1.84967	61
1.85333	58
1.85700	57
1.86067	58
1.86433	60
1.86800	60
1.87167	62
1.87533	67
1.87900	70
1.88267	72
1.88633	71
1.89000	72
1.89367	73
1.89733	73
1.90100	73
1.90467	74
1.90833	73
1.91200	73
1.91567	75
1.91933	78
1.92300	79
1.92667	80
1.93033	80
1.93400	78
1.93767	75
1.94133	73
1.94500	75
1.94867	78
1.95233	80
1.95600	80
1.95967	80
1.96333	79
1.96700	79
1.97067	82
1.97433	84
1.97800	84
1.98167	84
1.98533	84
1.98900	84
1.99267	82
1.99633	81
2.00000	81
2.00367	81
2.00733	83
2.01100	87
2.01467	89
2.01833	91
2.02200	93
2.02567	96
2.02933	97
2.03300	99
2.03667	100
2.04033	102
2.04400	102
2.04767	102
2.05133	102
2.05500	103
2.05867	103
2.06233	104
2.06600	107
2.06967	110
2.07333	109
2.07700	106
2.08067	106
2.08433	106
2.08800	109
2.09167	112
2.09533	115
2.09900	116
2.10267	117
2.10633	118
2.11000	119
2.11367	118
2.11733	119
2.12100	120
2.12467	121
2.12833	122
2.13200	121
2.13567	120
2.13933	121
2.14300	124
2.14667	127
2.15033	129
2.15400	130
2.15767	131
2.16133	131
2.16500	132
2.16867	134
2.17233	137
2.17600	140
2.17967	140
2.18333	140
2.18700	140
2.19067	142
2.19433	145
2.19800	145
2.20167	144
2.20533	146
2.20900	149
2.21267	151
2.21633	151
2.22000	153
2.22367	154
2.22733	156
2.23100	160
2.23467	160
2.23833	162
2.24200	165
2.24567	166
2.24933	164
2.25300	163
2.25667	165
2.26033	168
2.26400	170
2.26767	172
2.27133	173
2.27500	175
2.27867	176
2.28233	178
2.28600	180
2.28967	183
2.29333	184
2.29700	185
2.30067	186
2.30433	188
2.30800	190
2.31167	192
2.31533	196
2.31900	197
2.32267	196
2.32633	196
2.33000	197
2.33367	200
2.33733	205
2.34100	208
2.34467	210
2.34833	214
2.35200	215
2.35567	215
2.35933	216
2.36300	218
2.36667	220
2.37033	222
2.37400	223
2.37767	221
2.38133	221
2.38500	220
2.38867	220
2.39233	221
2.39600	223
2.39967	228
2.40333	235
2.40700	241
2.41067	244
2.41433	245
2.41800	246
2.42167	246
2.42533	249
2.42900	253
2.43267	257
2.43633	258
2.44000	262
2.44367	297
2.44733	396
2.45100	506
2.45467	598
2.45833	656
2.46200	667
2.46567	647
2.46933	618
2.47300	594
2.47667	580
2.48033	572
2.48400	560
2.48767	538
2.49133	508
2.49500	477
2.49867	450
2.50233	431
2.50600	416
2.50967	407
2.51333	405
2.51700	406
2.52067	409
2.52433	419
2.52800	434
2.53167	447
2.53533	458
2.53900	464
2.54267	460
2.54633	450
2.55000	434
2.55367	416
2.55733	398
2.56100	382
2.56467	366
2.56833	355
2.57200	347
2.57567	341
2.57933	338
2.58300	336
2.58667	334
2.59033	330
2.59400	325
2.59767	319
2.60133	310
2.60500	296
2.60867	278
2.61233	260
2.61600	240
2.61967	221
2.62333	207
2.62700	197
2.63067	188
2.63433	182
2.63800	181
2.64167	183
2.64533	189
2.64900	197
2.65267	206
2.65633	216
2.66000	225
2.66367	233
2.66733	238
2.67100	243
2.67467	246
2.67833	247
2.68200	248
2.68567	248
2.68933	247
2.69300	244
2.69667	238
2.70033	232
2.70400	233
2.70767	233
2.71133	233
2.71500	230
2.71867	227
2.72233	225
2.72600	224
2.72967	224
2.73333	226
2.73700	228
2.74067	231
2.74433	232
2.74800	234
2.75167	234
2.75533	233
2.75900	232
2.76267	234
2.76633	238
2.77000	241
2.77367	243
2.77733	243
2.78100	243
2.78467	242
2.78833	240
2.79200	240
2.79567	241
2.79933	242
2.80300	243
2.80667	246
2.81033	249
2.81400	252
2.81767	258
2.82133	275
2.82500	313
2.82867	385
2.83233	513
2.83600	719
2.83967	1021
2.84333	1428
2.84700	1929
2.85067	2498
2.85433	3099
2.85800	3680
2.86167	4194
2.86533	4600
2.86900	4871
2.87267	5001
2.87633	4991
2.88000	4861
2.88367	4636
2.88733	4348
2.89100	4020
2.89467	3674
2.89833	3328
2.90200	2990
2.90567	2678
2.90933	2391
2.91300	2132
2.91667	1899
2.92033	1692
2.92400	1509
2.92767	1348
2.93133	1206
2.93500	1084
2.93867	979
2.94233	887
2.94600	807
2.94967	736
2.95333	679
2.95700	628
2.96067	582
2.96433	543
2.96800	507
2.97167	478
2.97533	453
2.97900	430
2.98267	411
2.98633	394
2.99000	380
2.99367	368
2.99733	358
3.00100	345
3.00467	332
3.00833	323
3.01200	315
3.01567	307
3.01933	301
3.02300	298
3.02667	294
3.03033	289
3.03400	285
3.03767	280
3.04133	276
3.04500	271
3.04867	267
3.05233	263
3.05600	261
3.05967	257
3.06333	254
3.06700	252
3.07067	251
3.07433	249
3.07800	246
3.08167	244
3.08533	241
3.08900	238
3.09267	236
3.09633	235
3.10000	234
3.10367	234
3.10733	233
3.11100	232
3.11467	231
3.11833	232
3.12200	231
3.12567	231
3.12933	231
3.13300	232
3.13667	233
3.14033	233
3.14400	233
3.14767	232
3.15133	232
3.15500	234
3.15867	233
3.16233	221
3.16600	186
3.16967	148
3.17333	118
3.17700	101
3.18067	95
3.18433	103
3.18800	128
3.19167	166
3.19533	212
3.19900	259
3.20267	307
3.20633	354
3.21000	401
3.21367	444
3.21733	480
3.22100	509
3.22467	536
3.22833	560
3.23200	582
3.23567	600
3.23933	615
3.24300	629
3.24667	641
3.25033	654
3.25400	666
3.25767	672
3.26133	677
3.26500	683
3.26867	689
3.27233	694
3.27600	699
3.27967	706
3.28333	711
3.28700	717
3.29067	722
3.29433	726
3.29800	728
3.30167	732
3.30533	736
3.30900	740
3.31267	741
3.31633	743
3.32000	746
3.32367	751
3.32733	754
3.33100	755
3.33467	754
3.33833	753
3.34200	754
3.34567	760
3.34933	762
3.35300	763
3.35667	762
3.36033	761
3.36400	760
3.36767	756
3.37133	754
3.37500	754
3.37867	754
3.38233	752
3.38600	750
3.38967	750
3.39333	748
3.39700	745
3.40067	741
3.40433	737
3.40800	736
3.41167	735
3.41533	734
3.41900	732
3.42267	731
3.42633	732
3.43000	733
3.43367	731
3.43733	730
3.44100	731
3.44467	731
3.44833	731
3.45200	729
3.45567	725
3.45933	722
3.46300	721
3.46667	720
3.47033	717
3.47400	715
3.47767	714
3.48133	713
3.48500	711
3.48867	707
3.49233	705
3.49600	704
3.49967	702
3.50333	701
3.50700	699
3.51067	696
3.51433	694
3.51800	694
3.52167	691
3.52533	688
3.52900	688
3.53267	690
3.53633	690
3.54000	688
3.54367	686
3.54733	681
3.55100	680
3.55467	678
3.55833	676
3.56200	672
3.56567	669
3.56933	668
3.57300	666
3.57667	663
3.58033	661
3.58400	661
3.58767	661
3.59133	663
3.59500	664
3.59867	663
3.60233	662
3.60600	661
3.60967	658
3.61333	657
3.61700	655
3.62067	653
3.62433	652
3.62800	652
3.63167	649
3.63533	648
3.63900	650
3.64267	651
3.64633	650
3.65000	647
3.65367	645
3.65733	644
3.66100	644
3.66467	644
3.66833	644
3.67200	644
3.67567	642
3.67933	641
3.68300	641
3.68667	640
3.69033	638
3.69400	635
3.69767	632
3.70133	631
3.70500	630
3.70867	631
3.71233	633
3.71600	634
3.71967	635
3.72333	634
3.72700	634
3.73067	634
3.73433	634
3.73800	632
3.74167	629
3.74533	628
3.74900	629
3.75267	629
3.75633	627
3.76000	627
3.76367	629
3.76733	631
3.77100	630
3.77467	628
3.77833	626
3.78200	626
3.78567	628
3.78933	630
3.79300	628
3.79667	626
3.80033	627
3.80400	626
3.80767	625
3.81133	626
3.81500	625
3.81867	625
3.82233	628
3.82600	630
3.82967	631
3.83333	630
3.83700	629
3.84067	626
3.84433	624
3.84800	623
3.85167	623
3.85533	623
3.85900	623
3.86267	621
3.86633	621
3.87000	622
3.87367	625
3.87733	626
3.88100	625
3.88467	623
3.88833	619
3.89200	619
3.89567	619
3.89933	615
3.90300	612
3.90667	610
3.91033	606
3.91400	605
3.91767	606
3.92133	605
3.92500	604
3.92867	602
3.93233	602
3.93600	602
3.93967	600
3.94333	597
3.94700	596
3.95067	596
3.95433	595
3.95800	594
3.96167	594
3.96533	595
3.96900	596
3.97267	597
3.97633	596
3.98000	591
3.98367	588
3.98733	588
3.99100	586
3.99467	583
3.99833	579

[Status Trace (Column Oven Temperature)]
Interval(msec)	1000
# of Points	240
Start Time(min)	0.011
End Time(min)	3.994
Intensity Units	
Intensity Multiplier	1
R.Time (min)	Intensity
0.01068	35.04
0.02735	35.04
0.04402	35.04
0.06068	35.05
0.07735	35.04
0.09402	35.04
0.11068	35.04
0.12735	35.04
0.14402	35.05
0.16068	35.05
0.17735	35.05
0.19402	35.04
0.21068	35.04
0.22735	35.02
0.24402	35.02
0.26068	35.01
0.27735	35.01
0.29402	35.00
0.31068	35.01
0.32735	35.02
0.34402	35.02
0.36068	35.03
0.37735	35.03
0.39402	35.03
0.41068	35.04
0.42735	35.05
0.44402	35.04
0.46068	35.03
0.47735	35.02
0.49402	35.01
0.51068	35.00
0.52735	34.99
0.54402	35.00
0.56068	35.00
0.57735	35.00
0.59402	35.00
0.61068	35.00
0.62735	35.00
0.64402	35.00
0.66068	35.01
0.67735	35.02
0.69402	35.03
0.71068	35.04
0.72735	35.04
0.74402	35.03
0.76068	35.03
0.77735	35.02
0.79402	35.01
0.81068	34.98
0.82735	34.98
0.84402	34.99
0.86068	34.99
0.87735	34.99
0.89402	34.99
0.91068	34.99
0.92735	34.99
0.94402	34.99
0.96068	35.00
0.97735	35.00
0.99402	34.99
1.01068	34.98
1.02735	34.98
1.04402	34.99
1.06068	34.99
1.07735	34.99
1.09402	35.00
1.11068	35.01
1.12735	35.01
1.14402	35.00
1.16068	34.99
1.17735	34.99
1.19402	34.99
1.21068	34.99
1.22735	35.00
1.24402	35.01
1.26068	35.01
1.27735	35.01
1.29402	35.00
1.31068	35.00
1.32735	34.99
1.34402	34.99
1.36068	34.98
1.37735	34.98
1.39402	34.98
1.41068	34.98
1.42735	34.99
1.44402	34.98
1.46068	34.98
1.47735	34.99
1.49402	34.99
1.51068	34.99
1.52735	34.99
1.54402	34.99
1.56068	34.99
1.57735	35.00
1.59402	35.01
1.61068	35.08
1.62735	35.22
1.64402	35.42
1.66068	35.67
1.67735	36.03
1.69402	36.41
1.71068	36.76
1.72735	37.08
1.74402	37.39
1.76068	37.75
1.77735	38.08
1.79402	38.37
1.81068	38.72
1.82735	39.04
1.84402	39.37
1.86068	39.71
1.87735	40.03
1.89402	40.37
1.91068	40.71
1.92735	41.03
1.94402	41.35
1.96068	41.69
1.97735	42.02
1.99402	42.34
2.01068	42.68
2.02735	42.99
2.04402	43.32
2.06068	43.65
2.07735	43.99
2.09402	44.31
2.11068	44.63
2.12735	44.96
2.14402	45.29
2.16068	45.62
2.17735	45.94
2.19402	46.28
2.21068	46.61
2.22735	46.93
2.24402	47.26
2.26068	47.59
2.27735	47.91
2.29402	48.23
2.31068	48.57
2.32735	48.89
2.34402	49.19
2.36068	49.47
2.37735	49.63
2.39402	49.68
2.41068	49.67
2.42735	49.67
2.44402	49.69
2.46068	49.68
2.47735	49.71
2.49402	49.73
2.51068	49.74
2.52735	49.77
2.54402	49.78
2.56068	49.79
2.57735	49.79
2.59402	49.81
2.61068	49.81
2.62735	49.82
2.64402	49.82
2.66068	49.85
2.67735	49.86
2.69402	49.87
2.71068	49.85
2.72735	49.85
2.74402	49.86
2.76068	49.88
2.77735	49.88
2.79402	49.87
2.81068	49.87
2.82735	49.87
2.84402	49.88
2.86068	49.89
2.87735	49.89
2.89402	49.90
2.91068	49.91
2.92735	49.92
2.94402	49.93
2.96068	49.95
2.97735	49.98
2.99402	50.01
3.01068	50.03
3.02735	50.04
3.04402	50.05
3.06068	50.05
3.07735	50.06
3.09402	50.07
3.11068	50.07
3.12735	50.08
3.14402	50.10
3.16068	50.10
3.17735	50.10
3.19402	50.10
3.21068	50.09
3.22735	50.09
3.24402	50.07
3.26068	50.07
3.27735	50.06
3.29402	50.06
3.31068	50.07
3.32735	50.07
3.34402	50.08
3.36068	50.08
3.37735	50.06
3.39402	50.06
3.41068	50.06
3.42735	50.05
3.44402	50.05
3.46068	50.06
3.47735	50.07
3.49402	50.06
3.51068	50.07
3.52735	50.07
3.54402	50.07
3.56068	50.08
3.57735	50.09
3.59402	50.09
3.61068	50.10
3.62735	50.10
3.64402	50.09
3.66068	50.09
3.67735	50.08
3.69402	50.08
3.71068	50.07
3.72735	50.07
3.74402	50.06
3.76068	50.04
3.77735	50.04
3.79402	50.03
3.81068	50.05
3.82735	50.06
3.84402	50.07
3.86068	50.07
3.87735	50.08
3.89402	50.08
3.91068	50.08
3.92735	50.07
3.94402	50.07
3.96068	50.06
3.97735	50.06
3.99402	50.06

[Status Trace (Injection Unit Temperature)]
Interval(msec)	1000
# of Points	240
Start Time(min)	0.011
End Time(min)	3.994
Intensity Units	
Intensity Multiplier	1
R.Time (min)	Intensity
0.01068	99.98
0.02735	99.98
0.04402	99.98
0.06068	99.98
0.07735	99.98
0.09402	99.98
0.11068	99.98
0.12735	99.98
0.14402	99.98
0.16068	99.98
0.17735	99.98
0.19402	99.98
0.21068	99.99
0.22735	99.98
0.24402	99.99
0.26068	99.98
0.27735	99.98
0.29402	99.99
0.31068	99.99
0.32735	99.99
0.34402	99.99
0.36068	99.99
0.37735	99.99
0.39402	99.98
0.41068	99.99
0.42735	99.98
0.44402	99.98
0.46068	99.98
0.47735	99.98
0.49402	99.99
0.51068	99.99
0.52735	99.98
0.54402	99.98
0.56068	99.99
0.57735	99.98
0.59402	99.98
0.61068	99.99
0.62735	99.99
0.64402	99.98
0.66068	99.98
0.67735	99.98
0.69402	99.99
0.71068	99.98
0.72735	99.98
0.74402	99.98
0.76068	99.98
0.77735	99.98
0.79402	99.98
0.81068	99.98
0.82735	99.98
0.84402	99.98
0.86068	99.98
0.87735	99.98
0.89402	99.98
0.91068	99.98
0.92735	99.98
0.94402	99.98
0.96068	99.98
0.97735	99.98
0.99402	99.98
1.01068	99.98
1.02735	99.98
1.04402	99.98
1.06068	99.98
1.07735	99.98
1.09402	99.99
1.11068	99.98
1.12735	99.98
1.14402	99.98
1.16068	99.98
1.17735	99.99
1.19402	99.99
1.21068	99.99
1.22735	99.98
1.24402	99.99
1.26068	99.99
1.27735	99.98
1.29402	99.99
1.31068	99.99
1.32735	99.99
1.34402	99.99
1.36068	99.98
1.37735	99.99
1.39402	99.99
1.41068	99.99
1.42735	99.99
1.44402	99.98
1.46068	99.99
1.47735	99.99
1.49402	99.99
1.51068	99.99
1.52735	99.98
1.54402	99.99
1.56068	99.99
1.57735	99.99
1.59402	99.98
1.61068	99.99
1.62735	99.99
1.64402	99.99
1.66068	99.99
1.67735	99.99
1.69402	99.99
1.71068	99.99
1.72735	99.99
1.74402	99.99
1.76068	99.99
1.77735	99.99
1.79402	99.99
1.81068	99.98
1.82735	99.99
1.84402	99.99
1.86068	99.99
1.87735	99.98
1.89402	99.99
1.91068	99.99
1.92735	99.98
1.94402	99.98
1.96068	99.98
1.97735	99.98
1.99402	99.98
2.01068	99.98
2.02735	99.98
2.04402	99.98
2.06068	99.98
2.07735	99.98
2.09402	99.97
2.11068	99.97
2.12735	99.98
2.14402	99.98
2.16068	99.97
2.17735	99.97
2.19402	99.97
2.21068	99.97
2.22735	99.97
2.24402	99.97
2.26068	99.97
2.27735	99.97
2.29402	99.97
2.31068	99.97
2.32735	99.97
2.34402	99.97
2.36068	99.97
2.37735	99.98
2.39402	99.97
2.41068	99.97
2.42735	99.97
2.44402	99.97
2.46068	99.97
2.47735	99.97
2.49402	99.97
2.51068	99.98
2.52735	99.98
2.54402	99.98
2.56068	99.98
2.57735	99.98
2.59402	99.98
2.61068	99.98
2.62735	99.98
2.64402	99.99
2.66068	99.99
2.67735	99.99
2.69402	99.99
2.71068	99.98
2.72735	99.99
2.74402	99.99
2.76068	99.99
2.77735	100.00
2.79402	100.00
2.81068	100.00
2.82735	100.00
2.84402	99.99
2.86068	100.00
2.87735	100.00
2.89402	100.00
2.91068	100.01
2.92735	100.01
2.94402	100.01
2.96068	100.01
2.97735	100.01
2.99402	100.01
3.01068	100.01
3.02735	100.01
3.04402	100.02
3.06068	100.01
3.07735	100.02
3.09402	100.02
3.11068	100.01
3.12735	100.02
3.14402	100.02
3.16068	100.02
3.17735	100.02
3.19402	100.02
3.21068	100.02
3.22735	100.02
3.24402	100.02
3.26068	100.02
3.27735	100.03
3.29402	100.03
3.31068	100.03
3.32735	100.03
3.34402	100.03
3.36068	100.03
3.37735	100.03
3.39402	100.03
3.41068	100.04
3.42735	100.03
3.44402	100.03
3.46068	100.04
3.47735	100.03
3.49402	100.03
3.51068	100.04
3.52735	100.04
3.54402	100.04
3.56068	100.04
3.57735	100.04
3.59402	100.04
3.61068	100.04
3.62735	100.03
3.64402	100.04
3.66068	100.04
3.67735	100.04
3.69402	100.04
3.71068	100.04
3.72735	100.05
3.74402	100.05
3.76068	100.05
3.77735	100.04
3.79402	100.05
3.81068	100.04
3.82735	100.05
3.84402	100.05
3.86068	100.05
3.87735	100.05
3.89402	100.05
3.91068	100.04
3.92735	100.05
3.94402	100.05
3.96068	100.05
3.97735	100.04
3.99402	100.04

[Status Trace (Carrier Gas Pressure)]
Interval(msec)	1000
# of Points	240
Start Time(min)	0.011
End Time(min)	3.994
Intensity Units	
Intensity Multiplier	1
R.Time (min)	Intensity
0.01068	58.00
0.02735	55.10
0.04402	57.50
0.06068	59.60
0.07735	59.12
0.09402	58.01
0.11068	57.99
0.12735	58.01
0.14402	58.01
0.16068	58.00
0.17735	58.00
0.19402	58.00
0.21068	58.00
0.22735	58.00
0.24402	58.00
0.26068	58.00
0.27735	58.00
0.29402	58.00
0.31068	58.00
0.32735	58.00
0.34402	58.00
0.36068	58.00
0.37735	58.00
0.39402	58.00
0.41068	58.00
0.42735	58.00
0.44402	58.00
0.46068	58.00
0.47735	58.00
0.49402	58.00
0.51068	58.00
0.52735	58.00
0.54402	58.00
0.56068	58.00
0.57735	58.00
0.59402	58.00
0.61068	58.00
0.62735	58.00
0.64402	58.00
0.66068	58.00
0.67735	58.00
0.69402	58.00
0.71068	58.00
0.72735	58.00
0.74402	58.00
0.76068	58.00
0.77735	58.00
0.79402	58.00
0.81068	58.00
0.82735	58.00
0.84402	58.00
0.86068	58.00
0.87735	58.00
0.89402	58.00
0.91068	58.00
0.92735	58.00
0.94402	58.00
0.96068	58.00
0.97735	58.00
0.99402	58.00
1.01068	58.00
1.02735	58.00
1.04402	58.00
1.06068	58.00
1.07735	58.00
1.09402	58.00
1.11068	58.00
1.12735	58.00
1.14402	58.00
1.16068	58.00
1.17735	58.00
1.19402	58.00
1.21068	58.00
1.22735	58.00
1.24402	58.00
1.26068	58.00
1.27735	58.00
1.29402	58.00
1.31068	58.00
1.32735	58.00
1.34402	58.00
1.36068	58.00
1.37735	58.00
1.39402	58.00
1.41068	58.00
1.42735	58.00
1.44402	58.00
1.46068	58.00
1.47735	58.00
1.49402	58.00
1.51068	58.00
1.52735	58.00
1.54402	58.00
1.56068	58.00
1.57735	58.00
1.59402	58.00
1.61068	58.00
1.62735	58.00
1.64402	58.00
1.66068	58.00
1.67735	58.01
1.69402	58.00
1.71068	58.00
1.72735	58.00
1.74402	58.00
1.76068	58.00
1.77735	58.00
1.79402	58.00
1.81068	58.00
1.82735	58.00
1.84402	58.00
1.86068	58.00
1.87735	58.00
1.89402	58.00
1.91068	58.00
1.92735	58.00
1.94402	58.00
1.96068	58.00
1.97735	58.00
1.99402	58.00
2.01068	58.00
2.02735	58.00
2.04402	58.00
2.06068	58.00
2.07735	58.00
2.09402	58.00
2.11068	58.00
2.12735	58.00
2.14402	58.00
2.16068	58.00
2.17735	58.00
2.19402	58.00
2.21068	58.00
2.22735	58.00
2.24402	58.00
2.26068	58.00
2.27735	58.00
2.29402	58.00
2.31068	58.00
2.32735	58.00
2.34402	58.00
2.36068	58.00
2.37735	58.00
2.39402	57.99
2.41068	57.99
2.42735	58.00
2.44402	58.00
2.46068	58.00
2.47735	58.00
2.49402	58.00
2.51068	57.99
2.52735	57.99
2.54402	58.00
2.56068	58.00
2.57735	58.00
2.59402	58.00
2.61068	58.00
2.62735	58.00
2.64402	58.00
2.66068	58.00
2.67735	58.00
2.69402	58.00
2.71068	58.00
2.72735	58.00
2.74402	58.00
2.76068	58.00
2.77735	58.00
2.79402	58.00
2.81068	58.00
2.82735	58.00
2.84402	58.00
2.86068	58.00
2.87735	58.00
2.89402	58.00
2.91068	58.00
2.92735	58.00
2.94402	58.00
2.96068	58.00
2.97735	58.00
2.99402	58.00
3.01068	58.00
3.02735	58.00
3.04402	58.00
3.06068	58.00
3.07735	58.00
3.09402	58.00
3.11068	58.00
3.12735	58.00
3.14402	58.00
3.16068	58.00
3.17735	58.00
3.19402	58.00
3.21068	58.00
3.22735	58.00
3.24402	58.00
3.26068	58.00
3.27735	58.00
3.29402	58.00
3.31068	58.00
3.32735	58.00
3.34402	58.00
3.36068	58.00
3.37735	58.00
3.39402	58.00
3.41068	58.00
3.42735	58.00
3.44402	58.00
3.46068	58.00
3.47735	58.00
3.49402	58.00
3.51068	58.00
3.52735	58.00
3.54402	58.00
3.56068	58.00
3.57735	58.00
3.59402	58.00
3.61068	58.00
3.62735	58.00
3.64402	58.00
3.66068	58.00
3.67735	58.00
3.69402	58.00
3.71068	58.00
3.72735	58.00
3.74402	58.00
3.76068	58.00
3.77735	58.00
3.79402	58.00
3.81068	58.00
3.82735	58.00
3.84402	58.00
3.86068	58.00
3.87735	58.00
3.89402	58.00
3.91068	58.00
3.92735	58.00
3.94402	58.00
3.96068	58.00
3.97735	58.00
3.99402	58.00

[Status Trace (Carrier Gas Flow)]
Interval(msec)	1000
# of Points	240
Start Time(min)	0.011
End Time(min)	3.994
Intensity Units	
Intensity Multiplier	1
R.Time (min)	Intensity
0.01068	34.52
0.02735	34.54
0.04402	34.55
0.06068	34.54
0.07735	34.50
0.09402	34.52
0.11068	34.51
0.12735	34.52
0.14402	34.52
0.16068	34.52
0.17735	34.52
0.19402	34.52
0.21068	34.52
0.22735	34.52
0.24402	34.52
0.26068	34.52
0.27735	34.52
0.29402	34.52
0.31068	34.52
0.32735	34.52
0.34402	34.52
0.36068	34.52
0.37735	34.52
0.39402	34.52
0.41068	34.52
0.42735	34.52
0.44402	34.52
0.46068	34.51
0.47735	34.52
0.49402	34.52
0.51068	34.52
0.52735	34.52
0.54402	34.51
0.56068	34.52
0.57735	34.52
0.59402	34.52
0.61068	34.52
0.62735	34.51
0.64402	34.52
0.66068	34.52
0.67735	34.52
0.69402	34.52
0.71068	34.52
0.72735	34.52
0.74402	34.52
0.76068	34.52
0.77735	34.52
0.79402	34.52
0.81068	34.52
0.82735	34.52
0.84402	34.52
0.86068	34.52
0.87735	34.52
0.89402	34.52
0.91068	34.52
0.92735	34.52
0.94402	34.51
0.96068	34.52
0.97735	34.52
0.99402	34.53
1.01068	34.52
1.02735	34.52
1.04402	34.52
1.06068	34.52
1.07735	34.51
1.09402	34.52
1.11068	34.52
1.12735	34.52
1.14402	34.53
1.16068	34.52
1.17735	34.52
1.19402	34.52
1.21068	34.52
1.22735	34.52
1.24402	34.52
1.26068	34.52
1.27735	34.52
1.29402	34.52
1.31068	34.51
1.32735	34.52
1.34402	34.52
1.36068	34.52
1.37735	34.52
1.39402	34.52
1.41068	34.52
1.42735	34.52
1.44402	34.52
1.46068	34.52
1.47735	34.52
1.49402	34.52
1.51068	34.52
1.52735	34.52
1.54402	34.52
1.56068	34.53
1.57735	34.51
1.59402	34.52
1.61068	34.52
1.62735	34.52
1.64402	34.52
1.66068	34.52
1.67735	34.52
1.69402	34.52
1.71068	34.52
1.72735	34.52
1.74402	34.52
1.76068	34.52
1.77735	34.52
1.79402	34.52
1.81068	34.51
1.82735	34.52
1.84402	34.52
1.86068	34.52
1.87735	34.52
1.89402	34.52
1.91068	34.52
1.92735	34.52
1.94402	34.51
1.96068	34.52
1.97735	34.52
1.99402	34.52
2.01068	34.52
2.02735	34.52
2.04402	34.52
2.06068	34.52
2.07735	34.52
2.09402	34.51
2.11068	34.52
2.12735	34.52
2.14402	34.52
2.16068	34.52
2.17735	34.52
2.19402	34.52
2.21068	34.52
2.22735	34.52
2.24402	34.52
2.26068	34.52
2.27735	34.52
2.29402	34.52
2.31068	34.51
2.32735	34.52
2.34402	34.52
2.36068	34.52
2.37735	34.51
2.39402	34.51
2.41068	34.52
2.42735	34.52
2.44402	34.52
2.46068	34.52
2.47735	34.51
2.49402	34.52
2.51068	34.52
2.52735	34.52
2.54402	34.52
2.56068	34.52
2.57735	34.52
2.59402	34.51
2.61068	34.52
2.62735	34.52
2.64402	34.52
2.66068	34.52
2.67735	34.51
2.69402	34.52
2.71068	34.52
2.72735	34.52
2.74402	34.52
2.76068	34.52
2.77735	34.52
2.79402	34.52
2.81068	34.51
2.82735	34.52
2.84402	34.52
2.86068	34.52
2.87735	34.51
2.89402	34.52
2.91068	34.52
2.92735	34.52
2.94402	34.52
2.96068	34.51
2.97735	34.52
2.99402	34.52
3.01068	34.51
3.02735	34.52
3.04402	34.52
3.06068	34.52
3.07735	34.52
3.09402	34.52
3.11068	34.52
3.12735	34.52
3.14402	34.52
3.16068	34.51
3.17735	34.52
3.19402	34.52
3.21068	34.52
3.22735	34.52
3.24402	34.52
3.26068	34.52
3.27735	34.52
3.29402	34.52
3.31068	34.51
3.32735	34.52
3.34402	34.52
3.36068	34.52
3.37735	34.52
3.39402	34.52
3.41068	34.52
3.42735	34.52
3.44402	34.52
3.46068	34.52
3.47735	34.52
3.49402	34.52
3.51068	34.52
3.52735	34.51
3.54402	34.52
3.56068	34.52
3.57735	34.52
3.59402	34.52
3.61068	34.52
3.62735	34.52
3.64402	34.52
3.66068	34.52
3.67735	34.52
3.69402	34.52
3.71068	34.52
3.72735	34.52
3.74402	34.52
3.76068	34.52
3.77735	34.52
3.79402	34.52
3.81068	34.52
3.82735	34.52
3.84402	34.52
3.86068	34.51
3.87735	34.52
3.89402	34.52
3.91068	34.52
3.92735	34.52
3.94402	34.52
3.96068	34.51
3.97735	34.52
3.99402	34.53

[Status Trace (Column Flow)]
Interval(msec)	1000
# of Points	240
Start Time(min)	0.011
End Time(min)	3.994
Intensity Units	
Intensity Multiplier	1
R.Time (min)	Intensity
0.01068	5.56
0.02735	5.23
0.04402	5.51
0.06068	5.75
0.07735	5.70
0.09402	5.57
0.11068	5.56
0.12735	5.57
0.14402	5.56
0.16068	5.56
0.17735	5.56
0.19402	5.56
0.21068	5.56
0.22735	5.56
0.24402	5.56
0.26068	5.56
0.27735	5.56
0.29402	5.57
0.31068	5.56
0.32735	5.56
0.34402	5.56
0.36068	5.56
0.37735	5.56
0.39402	5.56
0.41068	5.56
0.42735	5.56
0.44402	5.56
0.46068	5.56
0.47735	5.56
0.49402	5.56
0.51068	5.57
0.52735	5.57
0.54402	5.57
0.56068	5.57
0.57735	5.56
0.59402	5.56
0.61068	5.57
0.62735	5.57
0.64402	5.56
0.66068	5.56
0.67735	5.56
0.69402	5.56
0.71068	5.56
0.72735	5.56
0.74402	5.56
0.76068	5.56
0.77735	5.56
0.79402	5.56
0.81068	5.57
0.82735	5.57
0.84402	5.57
0.86068	5.57
0.87735	5.57
0.89402	5.57
0.91068	5.57
0.92735	5.57
0.94402	5.57
0.96068	5.57
0.97735	5.56
0.99402	5.57
1.01068	5.57
1.02735	5.57
1.04402	5.57
1.06068	5.57
1.07735	5.57
1.09402	5.56
1.11068	5.56
1.12735	5.56
1.14402	5.56
1.16068	5.56
1.17735	5.57
1.19402	5.57
1.21068	5.57
1.22735	5.56
1.24402	5.56
1.26068	5.56
1.27735	5.56
1.29402	5.56
1.31068	5.56
1.32735	5.57
1.34402	5.57
1.36068	5.57
1.37735	5.57
1.39402	5.57
1.41068	5.57
1.42735	5.57
1.44402	5.57
1.46068	5.57
1.47735	5.57
1.49402	5.57
1.51068	5.56
1.52735	5.56
1.54402	5.57
1.56068	5.57
1.57735	5.56
1.59402	5.56
1.61068	5.56
1.62735	5.56
1.64402	5.55
1.66068	5.54
1.67735	5.53
1.69402	5.52
1.71068	5.51
1.72735	5.50
1.74402	5.49
1.76068	5.48
1.77735	5.47
1.79402	5.46
1.81068	5.45
1.82735	5.44
1.84402	5.43
1.86068	5.42
1.87735	5.41
1.89402	5.40
1.91068	5.39
1.92735	5.38
1.94402	5.37
1.96068	5.36
1.97735	5.35
1.99402	5.34
2.01068	5.33
2.02735	5.32
2.04402	5.31
2.06068	5.30
2.07735	5.29
2.09402	5.28
2.11068	5.27
2.12735	5.26
2.14402	5.25
2.16068	5.24
2.17735	5.23
2.19402	5.22
2.21068	5.21
2.22735	5.21
2.24402	5.19
2.26068	5.19
2.27735	5.18
2.29402	5.17
2.31068	5.16
2.32735	5.15
2.34402	5.14
2.36068	5.13
2.37735	5.13
2.39402	5.13
2.41068	5.13
2.42735	5.13
2.44402	5.13
2.46068	5.13
2.47735	5.13
2.49402	5.13
2.51068	5.12
2.52735	5.12
2.54402	5.12
2.56068	5.12
2.57735	5.12
2.59402	5.12
2.61068	5.12
2.62735	5.12
2.64402	5.12
2.66068	5.12
2.67735	5.12
2.69402	5.12
2.71068	5.12
2.72735	5.12
2.74402	5.12
2.76068	5.12
2.77735	5.12
2.79402	5.12
2.81068	5.12
2.82735	5.12
2.84402	5.12
2.86068	5.12
2.87735	5.12
2.89402	5.12
2.91068	5.12
2.92735	5.12
2.94402	5.12
2.96068	5.12
2.97735	5.12
2.99402	5.12
3.01068	5.12
3.02735	5.12
3.04402	5.12
3.06068	5.12
3.07735	5.12
3.09402	5.12
3.11068	5.12
3.12735	5.12
3.14402	5.12
3.16068	5.12
3.17735	5.12
3.19402	5.12
3.21068	5.12
3.22735	5.12
3.24402	5.12
3.26068	5.12
3.27735	5.12
3.29402	5.12
3.31068	5.12
3.32735	5.12
3.34402	5.12
3.36068	5.12
3.37735	5.12
3.39402	5.12
3.41068	5.12
3.42735	5.12
3.44402	5.12
3.46068	5.12
3.47735	5.12
3.49402	5.12
3.51068	5.12
3.52735	5.12
3.54402	5.12
3.56068	5.12
3.57735	5.12
3.59402	5.12
3.61068	5.11
3.62735	5.11
3.64402	5.11
3.66068	5.12
3.67735	5.12
3.69402	5.12
3.71068	5.12
3.72735	5.12
3.74402	5.12
3.76068	5.12
3.77735	5.12
3.79402	5.12
3.81068	5.12
3.82735	5.12
3.84402	5.12
3.86068	5.12
3.87735	5.12
3.89402	5.12
3.91068	5.12
3.92735	5.12
3.94402	5.12
3.96068	5.12
3.97735	5.12
3.99402	5.12

[Status Trace (Linear Velocity)]
Interval(msec)	1000
# of Points	240
Start Time(min)	0.011
End Time(min)	3.994
Intensity Units	
Intensity Multiplier	1
R.Time (min)	Intensity
0.01068	39.02
0.02735	37.12
0.04402	38.69
0.06068	40.07
0.07735	39.76
0.09402	39.03
0.11068	39.02
0.12735	39.03
0.14402	39.03
0.16068	39.02
0.17735	39.02
0.19402	39.02
0.21068	39.02
0.22735	39.03
0.24402	39.03
0.26068	39.03
0.27735	39.03
0.29402	39.03
0.31068	39.03
0.32735	39.03
0.34402	39.02
0.36068	39.02
0.37735	39.02
0.39402	39.02
0.41068	39.02
0.42735	39.02
0.44402	39.02
0.46068	39.02
0.47735	39.03
0.49402	39.03
0.51068	39.03
0.52735	39.03
0.54402	39.03
0.56068	39.03
0.57735	39.03
0.59402	39.03
0.61068	39.03
0.62735	39.03
0.64402	39.03
0.66068	39.03
0.67735	39.02
0.69402	39.02
0.71068	39.02
0.72735	39.02
0.74402	39.02
0.76068	39.02
0.77735	39.02
0.79402	39.02
0.81068	39.03
0.82735	39.03
0.84402	39.03
0.86068	39.03
0.87735	39.03
0.89402	39.03
0.91068	39.03
0.92735	39.03
0.94402	39.03
0.96068	39.03
0.97735	39.03
0.99402	39.03
1.01068	39.03
1.02735	39.03
1.04402	39.03
1.06068	39.03
1.07735	39.03
1.09402	39.03
1.11068	39.03
1.12735	39.03
1.14402	39.03
1.16068	39.03
1.17735	39.03
1.19402	39.03
1.21068	39.03
1.22735	39.03
1.24402	39.03
1.26068	39.03
1.27735	39.03
1.29402	39.03
1.31068	39.03
1.32735	39.03
1.34402	39.03
1.36068	39.03
1.37735	39.03
1.39402	39.03
1.41068	39.03
1.42735	39.03
1.44402	39.03
1.46068	39.03
1.47735	39.03
1.49402	39.03
1.51068	39.03
1.52735	39.03
1.54402	39.03
1.56068	39.03
1.57735	39.03
1.59402	39.03
1.61068	39.02
1.62735	39.01
1.64402	38.99
1.66068	38.96
1.67735	38.94
1.69402	38.89
1.71068	38.86
1.72735	38.83
1.74402	38.80
1.76068	38.77
1.77735	38.74
1.79402	38.70
1.81068	38.67
1.82735	38.65
1.84402	38.61
1.86068	38.58
1.87735	38.55
1.89402	38.52
1.91068	38.49
1.92735	38.46
1.94402	38.43
1.96068	38.40
1.97735	38.37
1.99402	38.33
2.01068	38.30
2.02735	38.28
2.04402	38.24
2.06068	38.21
2.07735	38.19
2.09402	38.15
2.11068	38.12
2.12735	38.10
2.14402	38.06
2.16068	38.03
2.17735	38.01
2.19402	37.97
2.21068	37.94
2.22735	37.92
2.24402	37.89
2.26068	37.86
2.27735	37.83
2.29402	37.80
2.31068	37.77
2.32735	37.74
2.34402	37.71
2.36068	37.69
2.37735	37.67
2.39402	37.66
2.41068	37.67
2.42735	37.67
2.44402	37.67
2.46068	37.67
2.47735	37.67
2.49402	37.67
2.51068	37.66
2.52735	37.65
2.54402	37.66
2.56068	37.66
2.57735	37.66
2.59402	37.66
2.61068	37.66
2.62735	37.66
2.64402	37.66
2.66068	37.66
2.67735	37.65
2.69402	37.65
2.71068	37.66
2.72735	37.66
2.74402	37.66
2.76068	37.65
2.77735	37.65
2.79402	37.65
2.81068	37.65
2.82735	37.65
2.84402	37.65
2.86068	37.65
2.87735	37.65
2.89402	37.65
2.91068	37.65
2.92735	37.65
2.94402	37.65
2.96068	37.65
2.97735	37.64
2.99402	37.64
3.01068	37.64
3.02735	37.64
3.04402	37.64
3.06068	37.64
3.07735	37.64
3.09402	37.64
3.11068	37.64
3.12735	37.64
3.14402	37.63
3.16068	37.63
3.17735	37.63
3.19402	37.63
3.21068	37.63
3.22735	37.63
3.24402	37.64
3.26068	37.64
3.27735	37.64
3.29402	37.64
3.31068	37.64
3.32735	37.64
3.34402	37.63
3.36068	37.64
3.37735	37.64
3.39402	37.64
3.41068	37.64
3.42735	37.64
3.44402	37.64
3.46068	37.64
3.47735	37.64
3.49402	37.64
3.51068	37.64
3.52735	37.64
3.54402	37.64
3.56068	37.64
3.57735	37.63
3.59402	37.63
3.61068	37.63
3.62735	37.63
3.64402	37.63
3.66068	37.63
3.67735	37.64
3.69402	37.64
3.71068	37.64
3.72735	37.64
3.74402	37.64
3.76068	37.64
3.77735	37.64
3.79402	37.64
3.81068	37.64
3.82735	37.64
3.84402	37.64
3.86068	37.64
3.87735	37.64
3.89402	37.63
3.91068	37.64
3.92735	37.64
3.94402	37.64
3.96068	37.64
3.97735	37.64
3.99402	37.64

