[Header]
Application Name	LabSolutions
Version	5.110
Data File Name	C:\Users\User\Desktop\GC Analyses\Jack\Nachusa Grasslands Sampling\T2 Timepoint July 12th\T2_07122022_071.gcd
Output Date	3/14/2023
Output Time	3:42:34 PM

[File Information]
Type	Data File
Generated	3/10/2023 8:21:26 PM
Generated by	System Administrator
Modified	3/10/2023 8:28:03 PM
Modified by	System Administrator

[Sample Information]
Operator Name	System Administrator
Acquired	3/10/2023 8:24:02 PM
Sample Type	0:Unknown
Level	0
Sample Name	071
Sample ID	071
ISTD Amount1	1
ISTD Amount2	1
ISTD Amount3	1
ISTD Amount4	1
ISTD Amount5	1
ISTD Amount6	1
ISTD Amount7	1
ISTD Amount8	1
ISTD Amount9	1
ISTD Amount10	1
ISTD Amount11	1
ISTD Amount12	1
ISTD Amount13	1
ISTD Amount14	1
ISTD Amount15	1
ISTD Amount16	1
ISTD Amount17	1
ISTD Amount18	1
ISTD Amount19	1
ISTD Amount20	1
ISTD Amount21	1
ISTD Amount22	1
ISTD Amount23	1
ISTD Amount24	1
ISTD Amount25	1
ISTD Amount26	1
ISTD Amount27	1
ISTD Amount28	1
ISTD Amount29	1
ISTD Amount30	1
ISTD Amount31	1
ISTD Amount32	1
Sample Amount	1
Dilution Factor	1
Vial#	70
Injection Volume	1
Injection Count	1
Bar Code	

[Original Files]
Data File	C:\Users\User\Desktop\GC Analyses\Jack\Nachusa Grasslands Sampling\T1 Timepoint July 12th\T2_07122022_071.gcd
Method File	C:\LabSolutions\Data\GHG_4min_2022\ghg3_togas_w_acet_4 min_new_int.gcm
Batch File	C:\LabSolutions\Data\AutoSamplerTesting\T2_07122022.gcb
Report Format File	c:\LabSolutions\System\DEFAULT.lsr

[File Description]


[Configuration]
Instrument Name	C0B7VH3-Instrument1
Instrument #	1
Line #	1
# of Detectors	3
Detector ID	DET#1	DET#2	DET#3
Detector Name	FID	PTCD	ECD
# of Channels	1	1	1

[Peak Table(Ch1)]
# of Peaks	3
Peak#	R.Time	I.Time	F.Time	Area	Height	A/H	Conc.	Mark	ID#	Name	k'	Plate #	Plate Ht.	Tailing	Resolution	Sep.Factor	Area Ratio	Height Ratio	Conc. %	Norm Conc.
1	1.483	1.439	1.531	2309	684	3.374	16.302	   	1	CO	0.000	4876	30.762	0.000	0.000	0.000	0	0	1.731	1.731
2	1.567	1.531	1.663	20772	10458	1.986	401.641	 V 	2	CH4	0.057	11240	13.345	1.225	1.171	0.000	0	0	42.641	42.641
3	1.996	1.949	2.561	2087735	992069	2.104	523.965	   	3	CO2	0.346	17566	8.539	1.256	7.187	6.087	0	0	55.628	55.628

[Peak Table(Ch2)]
# of Peaks	0

[Peak Table(Ch3)]
# of Peaks	5
Peak#	R.Time	I.Time	F.Time	Area	Height	A/H	Conc.	Mark	ID#	Name	k'	Plate #	Plate Ht.	Tailing	Resolution	Sep.Factor	Area Ratio	Height Ratio	Conc. %	Norm Conc.
1	2.462	2.282	2.513	2464	727	3.387	0.000	   			0.000	10230	14.663	0.000	0.000	0.000	0	0	0.000	0.000
2	2.532	2.513	2.700	1531	342	4.481	0.000	 V 			0.028	6544	22.922	0.000	0.626	0.000	0	0	0.000	0.000
3	2.876	2.803	3.133	61736	15846	3.896	1.577	S  	1	N2O	0.168	12620	11.886	1.616	3.029	5.947	0	0	100.000	100.000
4	3.122	3.104	3.133	58	61	0.945	0.000	T  	2	SF6	0.268	160892	0.932	0.801	3.679	1.593	0	0	0.000	0.000
5	3.346	3.137	3.995	17737	577	30.717	0.000	   	2	SF6	0.359	207	723.117	2.031	0.466	1.339	0	0	0.000	0.000

[Compound Results(Ch1)]
# of IDs	6
ID#	Name	R.Time	Area	Height	Conc.	Curve	3rd	2nd	1st	Constant	Area Ratio	Height Ratio	Conc. %	Norm Conc.
1	CO	1.483	2309	684	16.302	Linear	0.000000e+00	0.000000e+00	1.416423e+002	0.000000e+00	0	0	1.731	1.731
2	CH4	1.567	20772	10458	401.641	Linear	0.000000e+00	0.000000e+00	5.171738e+001	0.000000e+00	0	0	42.641	42.641
3	CO2	1.996	2087735	992069	523.965	Linear	0.000000e+00	0.000000e+00	3.984494e+003	0.000000e+00	0	0	55.628	55.628
4	Ethylene	0.000	0	0	0.000	Linear	0.000000e+00	0.000000e+00	0.000000e+00	0.000000e+00	0	0	0.000	0.000
5	Acetylene	0.000	0	0	0.000	Linear	0.000000e+00	0.000000e+00	0.000000e+00	0.000000e+00	0	0	0.000	0.000
6	Ethane	0.000	0	0	0.000	Linear	0.000000e+00	0.000000e+00	0.000000e+00	0.000000e+00	0	0	0.000	0.000

[Compound Results(Ch2)]
# of IDs	5
ID#	Name	R.Time	Area	Height	Conc.	Curve	3rd	2nd	1st	Constant	Area Ratio	Height Ratio	Conc. %	Norm Conc.
1	Hydrogen	0.000	0	0	0.000	Linear	0.000000e+00	0.000000e+00	0.000000e+00	0.000000e+00	0	0	0.000	0.000
2	Oxygen	0.000	0	0	0.000	Linear	0.000000e+00	0.000000e+00	0.000000e+00	0.000000e+00	0	0	0.000	0.000
3	Nitrogen	0.000	0	0	0.000	Linear	0.000000e+00	0.000000e+00	0.000000e+00	0.000000e+00	0	0	0.000	0.000
4	Methane	0.000	0	0	0.000	Linear	0.000000e+00	0.000000e+00	0.000000e+00	0.000000e+00	0	0	0.000	0.000
5	Carbon Monoxide	0.000	0	0	0.000	Linear	0.000000e+00	0.000000e+00	0.000000e+00	0.000000e+00	0	0	0.000	0.000

[Compound Results(Ch3)]
# of IDs	2
ID#	Name	R.Time	Area	Height	Conc.	Curve	3rd	2nd	1st	Constant	Area Ratio	Height Ratio	Conc. %	Norm Conc.
1	N2O	2.876	61736	15846	1.577	Linear	0.000000e+00	0.000000e+00	3.915173e+004	0.000000e+00	0	0	100.000	100.000
2	SF6	3.346	17795	639	0.000	Linear	0.000000e+00	0.000000e+00	0.000000e+00	0.000000e+00	0	0	0.000	0.000

[Group Results(Ch1)]
# of Groups	0

[Group Results(Ch2)]
# of Groups	0

[Group Results(Ch3)]
# of Groups	0

[Chromatogram (Ch1)]
Interval(msec)	220
# of Points	1091
Start Time(min)	0.002
End Time(min)	3.998
R.Time (min)	Intensity
0.00167	40
0.00533	45
0.00900	44
0.01267	40
0.01633	37
0.02000	35
0.02367	28
0.02733	18
0.03100	8
0.03467	2
0.03833	-0
0.04200	-1
0.04567	-5
0.04933	-10
0.05300	-12
0.05667	-9
0.06033	-4
0.06400	-1
0.06767	-3
0.07133	-7
0.07500	-12
0.07867	-14
0.08233	-11
0.08600	-2
0.08967	11
0.09333	21
0.09700	20
0.10067	14
0.10433	11
0.10800	11
0.11167	10
0.11533	11
0.11900	14
0.12267	12
0.12633	4
0.13000	-4
0.13367	-3
0.13733	3
0.14100	9
0.14467	14
0.14833	19
0.15200	19
0.15567	20
0.15933	24
0.16300	33
0.16667	40
0.17033	42
0.17400	42
0.17767	37
0.18133	28
0.18500	23
0.18867	25
0.19233	31
0.19600	34
0.19967	33
0.20333	27
0.20700	20
0.21067	15
0.21433	10
0.21800	7
0.22167	2
0.22533	-1
0.22900	-4
0.23267	-4
0.23633	-2
0.24000	-2
0.24367	-1
0.24733	5
0.25100	13
0.25467	20
0.25833	23
0.26200	24
0.26567	21
0.26933	18
0.27300	19
0.27667	22
0.28033	25
0.28400	27
0.28767	28
0.29133	31
0.29500	41
0.29867	55
0.30233	65
0.30600	70
0.30967	68
0.31333	60
0.31700	50
0.32067	45
0.32433	46
0.32800	48
0.33167	53
0.33533	58
0.33900	63
0.34267	71
0.34633	80
0.35000	88
0.35367	92
0.35733	88
0.36100	81
0.36467	78
0.36833	80
0.37200	85
0.37567	88
0.37933	87
0.38300	86
0.38667	84
0.39033	80
0.39400	75
0.39767	68
0.40133	61
0.40500	58
0.40867	64
0.41233	69
0.41600	73
0.41967	71
0.42333	65
0.42700	57
0.43067	49
0.43433	43
0.43800	40
0.44167	33
0.44533	22
0.44900	13
0.45267	7
0.45633	9
0.46000	14
0.46367	17
0.46733	17
0.47100	16
0.47467	16
0.47833	16
0.48200	19
0.48567	21
0.48933	21
0.49300	21
0.49667	22
0.50033	23
0.50400	25
0.50767	26
0.51133	23
0.51500	20
0.51867	22
0.52233	23
0.52600	20
0.52967	17
0.53333	17
0.53700	23
0.54067	34
0.54433	41
0.54800	43
0.55167	39
0.55533	31
0.55900	22
0.56267	18
0.56633	18
0.57000	19
0.57367	15
0.57733	5
0.58100	-5
0.58467	-9
0.58833	-8
0.59200	-4
0.59567	1
0.59933	3
0.60300	4
0.60667	9
0.61033	14
0.61400	18
0.61767	18
0.62133	20
0.62500	23
0.62867	27
0.63233	25
0.63600	17
0.63967	11
0.64333	10
0.64700	9
0.65067	8
0.65433	4
0.65800	-4
0.66167	-13
0.66533	-17
0.66900	-14
0.67267	-5
0.67633	2
0.68000	3
0.68367	1
0.68733	2
0.69100	6
0.69467	8
0.69833	7
0.70200	7
0.70567	12
0.70933	16
0.71300	18
0.71667	17
0.72033	14
0.72400	9
0.72767	6
0.73133	5
0.73500	2
0.73867	-1
0.74233	1
0.74600	5
0.74967	10
0.75333	15
0.75700	17
0.76067	20
0.76433	24
0.76800	29
0.77167	32
0.77533	31
0.77900	27
0.78267	24
0.78633	18
0.79000	16
0.79367	18
0.79733	22
0.80100	25
0.80467	25
0.80833	26
0.81200	30
0.81567	32
0.81933	35
0.82300	34
0.82667	30
0.83033	24
0.83400	21
0.83767	19
0.84133	19
0.84500	19
0.84867	13
0.85233	4
0.85600	-4
0.85967	-9
0.86333	-11
0.86700	-8
0.87067	-3
0.87433	2
0.87800	5
0.88167	6
0.88533	6
0.88900	5
0.89267	7
0.89633	14
0.90000	20
0.90367	21
0.90733	20
0.91100	21
0.91467	23
0.91833	25
0.92200	25
0.92567	18
0.92933	9
0.93300	-1
0.93667	-6
0.94033	-2
0.94400	4
0.94767	5
0.95133	7
0.95500	6
0.95867	-1
0.96233	-11
0.96600	-18
0.96967	-22
0.97333	-23
0.97700	-25
0.98067	-26
0.98433	-27
0.98800	-25
0.99167	-20
0.99533	-16
0.99900	-13
1.00267	-11
1.00633	-9
1.01000	-1
1.01367	11
1.01733	20
1.02100	21
1.02467	19
1.02833	12
1.03200	-0
1.03567	-15
1.03933	-28
1.04300	-35
1.04667	-36
1.05033	-31
1.05400	-23
1.05767	-12
1.06133	0
1.06500	13
1.06867	21
1.07233	23
1.07600	13
1.07967	1
1.08333	-4
1.08700	-1
1.09067	5
1.09433	10
1.09800	9
1.10167	6
1.10533	4
1.10900	5
1.11267	2
1.11633	-1
1.12000	-1
1.12367	2
1.12733	3
1.13100	1
1.13467	-3
1.13833	-6
1.14200	-5
1.14567	0
1.14933	4
1.15300	2
1.15667	1
1.16033	5
1.16400	10
1.16767	11
1.17133	10
1.17500	12
1.17867	11
1.18233	13
1.18600	22
1.18967	34
1.19333	42
1.19700	43
1.20067	38
1.20433	30
1.20800	25
1.21167	23
1.21533	15
1.21900	7
1.22267	3
1.22633	3
1.23000	3
1.23367	6
1.23733	10
1.24100	14
1.24467	14
1.24833	15
1.25200	17
1.25567	21
1.25933	30
1.26300	42
1.26667	50
1.27033	53
1.27400	54
1.27767	54
1.28133	49
1.28500	42
1.28867	38
1.29233	38
1.29600	41
1.29967	47
1.30333	50
1.30700	49
1.31067	46
1.31433	45
1.31800	41
1.32167	31
1.32533	21
1.32900	17
1.33267	18
1.33633	24
1.34000	30
1.34367	36
1.34733	44
1.35100	50
1.35467	49
1.35833	45
1.36200	45
1.36567	47
1.36933	52
1.37300	57
1.37667	58
1.38033	58
1.38400	58
1.38767	57
1.39133	52
1.39500	49
1.39867	49
1.40233	46
1.40600	40
1.40967	32
1.41333	27
1.41700	22
1.42067	19
1.42433	16
1.42800	13
1.43167	13
1.43533	21
1.43900	49
1.44267	142
1.44633	300
1.45000	457
1.45367	570
1.45733	635
1.46100	660
1.46467	665
1.46833	667
1.47200	676
1.47567	698
1.47933	725
1.48300	733
1.48667	710
1.49033	658
1.49400	586
1.49767	510
1.50133	438
1.50500	373
1.50867	320
1.51233	276
1.51600	241
1.51967	214
1.52333	191
1.52700	170
1.53067	156
1.53433	162
1.53800	261
1.54167	660
1.54533	1656
1.54900	3322
1.55267	5352
1.55633	7309
1.56000	8911
1.56367	10017
1.56733	10506
1.57100	10245
1.57467	9224
1.57833	7670
1.58200	5948
1.58567	4372
1.58933	3092
1.59300	2133
1.59667	1450
1.60033	980
1.60400	667
1.60767	465
1.61133	331
1.61500	240
1.61867	180
1.62233	142
1.62600	114
1.62967	93
1.63333	85
1.63700	83
1.64067	81
1.64433	73
1.64800	64
1.65167	58
1.65533	54
1.65900	51
1.66267	48
1.66633	45
1.67000	43
1.67367	44
1.67733	46
1.68100	45
1.68467	43
1.68833	42
1.69200	39
1.69567	35
1.69933	30
1.70300	28
1.70667	28
1.71033	28
1.71400	31
1.71767	33
1.72133	34
1.72500	36
1.72867	40
1.73233	45
1.73600	51
1.73967	58
1.74333	65
1.74700	69
1.75067	66
1.75433	61
1.75800	51
1.76167	38
1.76533	30
1.76900	27
1.77267	29
1.77633	33
1.78000	38
1.78367	44
1.78733	45
1.79100	42
1.79467	41
1.79833	41
1.80200	41
1.80567	45
1.80933	47
1.81300	47
1.81667	46
1.82033	49
1.82400	54
1.82767	58
1.83133	62
1.83500	66
1.83867	73
1.84233	77
1.84600	77
1.84967	69
1.85333	61
1.85700	57
1.86067	56
1.86433	55
1.86800	49
1.87167	38
1.87533	29
1.87900	25
1.88267	21
1.88633	15
1.89000	11
1.89367	13
1.89733	20
1.90100	28
1.90467	35
1.90833	42
1.91200	53
1.91567	61
1.91933	67
1.92300	76
1.92667	84
1.93033	85
1.93400	81
1.93767	73
1.94133	69
1.94500	65
1.94867	66
1.95233	103
1.95600	356
1.95967	1757
1.96333	7800
1.96700	27656
1.97067	77855
1.97433	176013
1.97800	326370
1.98167	511211
1.98533	698103
1.98900	854673
1.99267	957270
1.99633	992173
2.00000	957308
2.00367	862798
2.00733	729300
2.01100	581919
2.01467	442304
2.01833	323740
2.02200	230799
2.02567	162045
2.02933	113207
2.03300	79437
2.03667	56464
2.04033	40946
2.04400	30464
2.04767	23335
2.05133	18426
2.05500	14989
2.05867	12527
2.06233	10717
2.06600	9355
2.06967	8298
2.07333	7459
2.07700	6777
2.08067	6214
2.08433	5744
2.08800	5346
2.09167	5000
2.09533	4697
2.09900	4426
2.10267	4188
2.10633	3981
2.11000	3792
2.11367	3616
2.11733	3454
2.12100	3308
2.12467	3175
2.12833	3044
2.13200	2915
2.13567	2796
2.13933	2686
2.14300	2587
2.14667	2498
2.15033	2411
2.15400	2332
2.15767	2264
2.16133	2203
2.16500	2142
2.16867	2083
2.17233	2025
2.17600	1968
2.17967	1909
2.18333	1851
2.18700	1803
2.19067	1757
2.19433	1712
2.19800	1670
2.20167	1632
2.20533	1594
2.20900	1556
2.21267	1523
2.21633	1497
2.22000	1471
2.22367	1444
2.22733	1413
2.23100	1385
2.23467	1360
2.23833	1340
2.24200	1322
2.24567	1302
2.24933	1279
2.25300	1254
2.25667	1225
2.26033	1198
2.26400	1173
2.26767	1152
2.27133	1132
2.27500	1110
2.27867	1085
2.28233	1061
2.28600	1042
2.28967	1024
2.29333	1003
2.29700	986
2.30067	972
2.30433	966
2.30800	962
2.31167	953
2.31533	940
2.31900	927
2.32267	914
2.32633	901
2.33000	886
2.33367	875
2.33733	870
2.34100	868
2.34467	865
2.34833	858
2.35200	850
2.35567	843
2.35933	837
2.36300	829
2.36667	819
2.37033	807
2.37400	800
2.37767	797
2.38133	791
2.38500	778
2.38867	763
2.39233	753
2.39600	744
2.39967	737
2.40333	732
2.40700	732
2.41067	735
2.41433	735
2.41800	733
2.42167	728
2.42533	717
2.42900	712
2.43267	711
2.43633	706
2.44000	694
2.44367	679
2.44733	665
2.45100	652
2.45467	640
2.45833	634
2.46200	633
2.46567	630
2.46933	625
2.47300	619
2.47667	615
2.48033	615
2.48400	617
2.48767	620
2.49133	617
2.49500	606
2.49867	594
2.50233	587
2.50600	586
2.50967	586
2.51333	588
2.51700	587
2.52067	583
2.52433	576
2.52800	569
2.53167	565
2.53533	562
2.53900	563
2.54267	564
2.54633	565
2.55000	567
2.55367	565
2.55733	559
2.56100	554
2.56467	550
2.56833	552
2.57200	556
2.57567	560
2.57933	563
2.58300	560
2.58667	552
2.59033	543
2.59400	540
2.59767	540
2.60133	539
2.60500	529
2.60867	512
2.61233	500
2.61600	496
2.61967	504
2.62333	518
2.62700	527
2.63067	530
2.63433	530
2.63800	529
2.64167	524
2.64533	514
2.64900	506
2.65267	499
2.65633	499
2.66000	504
2.66367	507
2.66733	509
2.67100	510
2.67467	507
2.67833	500
2.68200	493
2.68567	489
2.68933	487
2.69300	486
2.69667	487
2.70033	490
2.70400	493
2.70767	492
2.71133	485
2.71500	479
2.71867	475
2.72233	473
2.72600	470
2.72967	467
2.73333	466
2.73700	468
2.74067	473
2.74433	479
2.74800	485
2.75167	488
2.75533	487
2.75900	483
2.76267	476
2.76633	472
2.77000	472
2.77367	476
2.77733	480
2.78100	482
2.78467	477
2.78833	473
2.79200	472
2.79567	474
2.79933	480
2.80300	485
2.80667	486
2.81033	484
2.81400	479
2.81767	474
2.82133	471
2.82500	469
2.82867	467
2.83233	464
2.83600	464
2.83967	463
2.84333	457
2.84700	451
2.85067	447
2.85433	445
2.85800	444
2.86167	445
2.86533	446
2.86900	452
2.87267	461
2.87633	471
2.88000	479
2.88367	484
2.88733	485
2.89100	479
2.89467	469
2.89833	459
2.90200	452
2.90567	446
2.90933	437
2.91300	432
2.91667	428
2.92033	430
2.92400	435
2.92767	439
2.93133	441
2.93500	443
2.93867	445
2.94233	449
2.94600	453
2.94967	454
2.95333	455
2.95700	456
2.96067	459
2.96433	456
2.96800	444
2.97167	437
2.97533	433
2.97900	433
2.98267	434
2.98633	434
2.99000	440
2.99367	441
2.99733	438
3.00100	437
3.00467	437
3.00833	440
3.01200	440
3.01567	437
3.01933	433
3.02300	431
3.02667	432
3.03033	435
3.03400	434
3.03767	430
3.04133	422
3.04500	417
3.04867	417
3.05233	421
3.05600	426
3.05967	429
3.06333	429
3.06700	426
3.07067	421
3.07433	415
3.07800	412
3.08167	415
3.08533	416
3.08900	418
3.09267	418
3.09633	415
3.10000	415
3.10367	414
3.10733	411
3.11100	407
3.11467	405
3.11833	401
3.12200	396
3.12567	390
3.12933	386
3.13300	386
3.13667	390
3.14033	390
3.14400	389
3.14767	391
3.15133	391
3.15500	389
3.15867	388
3.16233	391
3.16600	393
3.16967	389
3.17333	382
3.17700	376
3.18067	373
3.18433	373
3.18800	375
3.19167	377
3.19533	378
3.19900	380
3.20267	384
3.20633	382
3.21000	378
3.21367	376
3.21733	374
3.22100	369
3.22467	364
3.22833	362
3.23200	359
3.23567	352
3.23933	346
3.24300	342
3.24667	341
3.25033	342
3.25400	346
3.25767	348
3.26133	351
3.26500	354
3.26867	357
3.27233	358
3.27600	358
3.27967	363
3.28333	367
3.28700	366
3.29067	365
3.29433	365
3.29800	367
3.30167	370
3.30533	371
3.30900	371
3.31267	373
3.31633	377
3.32000	382
3.32367	386
3.32733	380
3.33100	367
3.33467	357
3.33833	351
3.34200	346
3.34567	344
3.34933	346
3.35300	347
3.35667	346
3.36033	344
3.36400	339
3.36767	332
3.37133	328
3.37500	325
3.37867	325
3.38233	322
3.38600	319
3.38967	320
3.39333	328
3.39700	334
3.40067	335
3.40433	335
3.40800	334
3.41167	334
3.41533	335
3.41900	334
3.42267	332
3.42633	339
3.43000	351
3.43367	361
3.43733	362
3.44100	355
3.44467	344
3.44833	331
3.45200	324
3.45567	320
3.45933	317
3.46300	315
3.46667	311
3.47033	310
3.47400	317
3.47767	327
3.48133	335
3.48500	338
3.48867	338
3.49233	335
3.49600	328
3.49967	320
3.50333	310
3.50700	301
3.51067	294
3.51433	289
3.51800	285
3.52167	285
3.52533	286
3.52900	289
3.53267	294
3.53633	298
3.54000	299
3.54367	295
3.54733	294
3.55100	299
3.55467	308
3.55833	316
3.56200	321
3.56567	324
3.56933	323
3.57300	318
3.57667	312
3.58033	307
3.58400	305
3.58767	301
3.59133	301
3.59500	303
3.59867	305
3.60233	305
3.60600	302
3.60967	297
3.61333	292
3.61700	288
3.62067	284
3.62433	278
3.62800	274
3.63167	272
3.63533	273
3.63900	273
3.64267	274
3.64633	277
3.65000	280
3.65367	281
3.65733	281
3.66100	283
3.66467	280
3.66833	276
3.67200	277
3.67567	281
3.67933	287
3.68300	294
3.68667	294
3.69033	291
3.69400	289
3.69767	282
3.70133	272
3.70500	265
3.70867	266
3.71233	270
3.71600	269
3.71967	268
3.72333	267
3.72700	267
3.73067	271
3.73433	275
3.73800	273
3.74167	271
3.74533	271
3.74900	275
3.75267	280
3.75633	282
3.76000	279
3.76367	277
3.76733	275
3.77100	270
3.77467	264
3.77833	265
3.78200	273
3.78567	280
3.78933	280
3.79300	274
3.79667	270
3.80033	269
3.80400	265
3.80767	264
3.81133	264
3.81500	263
3.81867	260
3.82233	258
3.82600	255
3.82967	251
3.83333	251
3.83700	252
3.84067	252
3.84433	253
3.84800	256
3.85167	258
3.85533	250
3.85900	242
3.86267	236
3.86633	235
3.87000	239
3.87367	242
3.87733	240
3.88100	233
3.88467	227
3.88833	224
3.89200	223
3.89567	223
3.89933	226
3.90300	233
3.90667	243
3.91033	249
3.91400	254
3.91767	257
3.92133	252
3.92500	240
3.92867	228
3.93233	225
3.93600	229
3.93967	227
3.94333	223
3.94700	223
3.95067	228
3.95433	231
3.95800	232
3.96167	232
3.96533	231
3.96900	231
3.97267	235
3.97633	238
3.98000	241
3.98367	244
3.98733	243
3.99100	239
3.99467	230
3.99833	222

[Chromatogram (Ch2)]
Interval(msec)	220
# of Points	1091
Start Time(min)	0.002
End Time(min)	3.998
R.Time (min)	Intensity
0.00167	-0
0.00533	-0
0.00900	0
0.01267	0
0.01633	1
0.02000	1
0.02367	1
0.02733	1
0.03100	1
0.03467	1
0.03833	1
0.04200	2
0.04567	2
0.04933	2
0.05300	2
0.05667	2
0.06033	1
0.06400	1
0.06767	1
0.07133	0
0.07500	0
0.07867	0
0.08233	0
0.08600	1
0.08967	1
0.09333	1
0.09700	1
0.10067	1
0.10433	1
0.10800	1
0.11167	1
0.11533	0
0.11900	1
0.12267	1
0.12633	1
0.13000	1
0.13367	0
0.13733	-0
0.14100	-0
0.14467	-1
0.14833	-1
0.15200	-2
0.15567	-2
0.15933	-2
0.16300	-2
0.16667	-2
0.17033	-2
0.17400	-2
0.17767	-2
0.18133	-2
0.18500	-2
0.18867	-2
0.19233	-2
0.19600	-2
0.19967	-2
0.20333	-2
0.20700	-2
0.21067	-2
0.21433	-1
0.21800	-1
0.22167	-1
0.22533	-1
0.22900	-1
0.23267	-0
0.23633	-0
0.24000	0
0.24367	0
0.24733	0
0.25100	0
0.25467	1
0.25833	1
0.26200	1
0.26567	1
0.26933	2
0.27300	2
0.27667	2
0.28033	3
0.28400	3
0.28767	3
0.29133	3
0.29500	3
0.29867	2
0.30233	2
0.30600	2
0.30967	2
0.31333	2
0.31700	2
0.32067	2
0.32433	2
0.32800	2
0.33167	2
0.33533	2
0.33900	2
0.34267	2
0.34633	2
0.35000	2
0.35367	2
0.35733	2
0.36100	2
0.36467	1
0.36833	1
0.37200	0
0.37567	-0
0.37933	-1
0.38300	-1
0.38667	-2
0.39033	-2
0.39400	-3
0.39767	-3
0.40133	-3
0.40500	-3
0.40867	-3
0.41233	-3
0.41600	-3
0.41967	-3
0.42333	-3
0.42700	-3
0.43067	-3
0.43433	-3
0.43800	-3
0.44167	-3
0.44533	-3
0.44900	-2
0.45267	-2
0.45633	-2
0.46000	-1
0.46367	-1
0.46733	-0
0.47100	-0
0.47467	-0
0.47833	0
0.48200	0
0.48567	1
0.48933	1
0.49300	1
0.49667	1
0.50033	1
0.50400	1
0.50767	0
0.51133	0
0.51500	-0
0.51867	-0
0.52233	-0
0.52600	-0
0.52967	-0
0.53333	-0
0.53700	0
0.54067	1
0.54433	1
0.54800	1
0.55167	1
0.55533	1
0.55900	1
0.56267	1
0.56633	1
0.57000	1
0.57367	1
0.57733	1
0.58100	1
0.58467	0
0.58833	0
0.59200	0
0.59567	0
0.59933	0
0.60300	0
0.60667	-0
0.61033	-0
0.61400	-1
0.61767	-1
0.62133	-1
0.62500	-1
0.62867	-1
0.63233	-1
0.63600	-1
0.63967	-1
0.64333	-0
0.64700	-0
0.65067	0
0.65433	1
0.65800	1
0.66167	2
0.66533	2
0.66900	2
0.67267	2
0.67633	2
0.68000	2
0.68367	2
0.68733	2
0.69100	2
0.69467	2
0.69833	2
0.70200	2
0.70567	2
0.70933	2
0.71300	2
0.71667	2
0.72033	2
0.72400	1
0.72767	1
0.73133	1
0.73500	1
0.73867	0
0.74233	0
0.74600	-0
0.74967	-1
0.75333	-1
0.75700	-1
0.76067	-1
0.76433	-1
0.76800	-0
0.77167	0
0.77533	0
0.77900	1
0.78267	1
0.78633	1
0.79000	1
0.79367	1
0.79733	1
0.80100	1
0.80467	1
0.80833	-0
0.81200	-1
0.81567	-1
0.81933	-2
0.82300	-2
0.82667	-2
0.83033	-3
0.83400	-3
0.83767	-2
0.84133	-2
0.84500	-2
0.84867	-1
0.85233	-1
0.85600	-1
0.85967	-0
0.86333	-0
0.86700	-0
0.87067	0
0.87433	0
0.87800	0
0.88167	1
0.88533	1
0.88900	1
0.89267	1
0.89633	1
0.90000	1
0.90367	1
0.90733	1
0.91100	1
0.91467	2
0.91833	2
0.92200	2
0.92567	2
0.92933	1
0.93300	1
0.93667	0
0.94033	-1
0.94400	-1
0.94767	-1
0.95133	-2
0.95500	-2
0.95867	-2
0.96233	-2
0.96600	-2
0.96967	-2
0.97333	-2
0.97700	-2
0.98067	-2
0.98433	-2
0.98800	-2
0.99167	-2
0.99533	-3
0.99900	-3
1.00267	-3
1.00633	-3
1.01000	-2
1.01367	-2
1.01733	-2
1.02100	-2
1.02467	-2
1.02833	-3
1.03200	-3
1.03567	-3
1.03933	-3
1.04300	-3
1.04667	-3
1.05033	-3
1.05400	-3
1.05767	-3
1.06133	-2
1.06500	-2
1.06867	-1
1.07233	-1
1.07600	-0
1.07967	-0
1.08333	0
1.08700	1
1.09067	1
1.09433	1
1.09800	1
1.10167	1
1.10533	1
1.10900	1
1.11267	1
1.11633	1
1.12000	1
1.12367	1
1.12733	1
1.13100	1
1.13467	0
1.13833	0
1.14200	0
1.14567	0
1.14933	0
1.15300	1
1.15667	1
1.16033	0
1.16400	-0
1.16767	-1
1.17133	-1
1.17500	-1
1.17867	-1
1.18233	-1
1.18600	-1
1.18967	-1
1.19333	-1
1.19700	-1
1.20067	-1
1.20433	-1
1.20800	-1
1.21167	-0
1.21533	-0
1.21900	-0
1.22267	-0
1.22633	-0
1.23000	-0
1.23367	0
1.23733	0
1.24100	0
1.24467	0
1.24833	0
1.25200	0
1.25567	0
1.25933	-0
1.26300	-0
1.26667	-0
1.27033	-0
1.27400	0
1.27767	0
1.28133	0
1.28500	0
1.28867	0
1.29233	0
1.29600	0
1.29967	-0
1.30333	-0
1.30700	-0
1.31067	-0
1.31433	0
1.31800	0
1.32167	0
1.32533	1
1.32900	1
1.33267	1
1.33633	1
1.34000	1
1.34367	1
1.34733	1
1.35100	1
1.35467	0
1.35833	0
1.36200	-0
1.36567	-0
1.36933	-1
1.37300	-1
1.37667	-1
1.38033	-1
1.38400	-1
1.38767	-1
1.39133	-1
1.39500	-1
1.39867	-1
1.40233	-1
1.40600	-0
1.40967	-0
1.41333	-0
1.41700	-1
1.42067	-1
1.42433	-1
1.42800	-1
1.43167	-1
1.43533	-1
1.43900	-1
1.44267	-1
1.44633	-1
1.45000	-1
1.45367	-1
1.45733	-2
1.46100	-2
1.46467	-2
1.46833	-3
1.47200	-3
1.47567	-3
1.47933	-3
1.48300	-4
1.48667	-4
1.49033	-4
1.49400	-4
1.49767	-4
1.50133	-4
1.50500	-3
1.50867	-3
1.51233	-3
1.51600	-3
1.51967	-3
1.52333	-3
1.52700	-2
1.53067	-2
1.53433	-2
1.53800	-1
1.54167	-1
1.54533	-1
1.54900	-1
1.55267	-1
1.55633	-1
1.56000	-1
1.56367	-1
1.56733	-1
1.57100	-1
1.57467	-1
1.57833	-1
1.58200	-1
1.58567	-1
1.58933	-1
1.59300	-1
1.59667	-2
1.60033	-2
1.60400	-4
1.60767	-5
1.61133	-7
1.61500	-8
1.61867	-10
1.62233	-13
1.62600	-16
1.62967	-19
1.63333	-22
1.63700	-25
1.64067	-29
1.64433	-33
1.64800	-37
1.65167	-41
1.65533	-45
1.65900	-49
1.66267	-53
1.66633	-57
1.67000	-61
1.67367	-66
1.67733	-71
1.68100	-75
1.68467	-80
1.68833	-84
1.69200	-87
1.69567	-90
1.69933	-93
1.70300	-96
1.70667	-98
1.71033	-100
1.71400	-102
1.71767	-103
1.72133	-104
1.72500	-105
1.72867	-106
1.73233	-107
1.73600	-108
1.73967	-109
1.74333	-110
1.74700	-110
1.75067	-111
1.75433	-111
1.75800	-112
1.76167	-112
1.76533	-112
1.76900	-112
1.77267	-111
1.77633	-111
1.78000	-110
1.78367	-110
1.78733	-110
1.79100	-110
1.79467	-110
1.79833	-110
1.80200	-111
1.80567	-112
1.80933	-112
1.81300	-113
1.81667	-113
1.82033	-113
1.82400	-113
1.82767	-113
1.83133	-113
1.83500	-114
1.83867	-114
1.84233	-114
1.84600	-115
1.84967	-115
1.85333	-115
1.85700	-115
1.86067	-115
1.86433	-114
1.86800	-114
1.87167	-114
1.87533	-114
1.87900	-113
1.88267	-113
1.88633	-112
1.89000	-112
1.89367	-111
1.89733	-111
1.90100	-111
1.90467	-111
1.90833	-111
1.91200	-110
1.91567	-110
1.91933	-110
1.92300	-110
1.92667	-110
1.93033	-110
1.93400	-110
1.93767	-110
1.94133	-110
1.94500	-109
1.94867	-109
1.95233	-110
1.95600	-110
1.95967	-110
1.96333	-109
1.96700	-109
1.97067	-108
1.97433	-107
1.97800	-106
1.98167	-106
1.98533	-105
1.98900	-104
1.99267	-104
1.99633	-104
2.00000	-104
2.00367	-104
2.00733	-104
2.01100	-104
2.01467	-104
2.01833	-104
2.02200	-104
2.02567	-103
2.02933	-103
2.03300	-102
2.03667	-102
2.04033	-102
2.04400	-102
2.04767	-102
2.05133	-102
2.05500	-102
2.05867	-102
2.06233	-101
2.06600	-101
2.06967	-101
2.07333	-100
2.07700	-100
2.08067	-100
2.08433	-100
2.08800	-100
2.09167	-99
2.09533	-99
2.09900	-98
2.10267	-98
2.10633	-97
2.11000	-97
2.11367	-96
2.11733	-96
2.12100	-95
2.12467	-95
2.12833	-94
2.13200	-94
2.13567	-93
2.13933	-93
2.14300	-93
2.14667	-93
2.15033	-93
2.15400	-94
2.15767	-94
2.16133	-94
2.16500	-93
2.16867	-93
2.17233	-92
2.17600	-91
2.17967	-91
2.18333	-90
2.18700	-89
2.19067	-89
2.19433	-89
2.19800	-89
2.20167	-89
2.20533	-89
2.20900	-89
2.21267	-89
2.21633	-89
2.22000	-88
2.22367	-87
2.22733	-87
2.23100	-86
2.23467	-85
2.23833	-85
2.24200	-84
2.24567	-84
2.24933	-84
2.25300	-83
2.25667	-83
2.26033	-83
2.26400	-83
2.26767	-83
2.27133	-83
2.27500	-83
2.27867	-83
2.28233	-83
2.28600	-83
2.28967	-84
2.29333	-84
2.29700	-84
2.30067	-83
2.30433	-83
2.30800	-82
2.31167	-81
2.31533	-81
2.31900	-80
2.32267	-79
2.32633	-78
2.33000	-78
2.33367	-77
2.33733	-77
2.34100	-77
2.34467	-77
2.34833	-77
2.35200	-76
2.35567	-75
2.35933	-74
2.36300	-72
2.36667	-70
2.37033	-67
2.37400	-64
2.37767	-60
2.38133	-56
2.38500	-52
2.38867	-48
2.39233	-44
2.39600	-39
2.39967	-35
2.40333	-31
2.40700	-27
2.41067	-23
2.41433	-20
2.41800	-17
2.42167	-14
2.42533	-13
2.42900	-11
2.43267	-10
2.43633	-10
2.44000	-9
2.44367	-8
2.44733	-8
2.45100	-7
2.45467	-6
2.45833	-5
2.46200	-4
2.46567	-3
2.46933	-2
2.47300	-1
2.47667	0
2.48033	1
2.48400	3
2.48767	4
2.49133	5
2.49500	6
2.49867	7
2.50233	8
2.50600	9
2.50967	9
2.51333	10
2.51700	10
2.52067	10
2.52433	11
2.52800	11
2.53167	12
2.53533	12
2.53900	13
2.54267	13
2.54633	14
2.55000	14
2.55367	14
2.55733	15
2.56100	15
2.56467	15
2.56833	16
2.57200	16
2.57567	16
2.57933	16
2.58300	17
2.58667	17
2.59033	17
2.59400	18
2.59767	18
2.60133	18
2.60500	19
2.60867	19
2.61233	19
2.61600	19
2.61967	19
2.62333	19
2.62700	19
2.63067	19
2.63433	19
2.63800	19
2.64167	19
2.64533	20
2.64900	20
2.65267	21
2.65633	22
2.66000	22
2.66367	23
2.66733	23
2.67100	23
2.67467	23
2.67833	23
2.68200	24
2.68567	24
2.68933	24
2.69300	24
2.69667	24
2.70033	24
2.70400	24
2.70767	24
2.71133	24
2.71500	24
2.71867	24
2.72233	24
2.72600	24
2.72967	24
2.73333	25
2.73700	25
2.74067	25
2.74433	26
2.74800	27
2.75167	27
2.75533	27
2.75900	28
2.76267	28
2.76633	28
2.77000	28
2.77367	28
2.77733	28
2.78100	27
2.78467	27
2.78833	27
2.79200	27
2.79567	26
2.79933	26
2.80300	26
2.80667	26
2.81033	26
2.81400	27
2.81767	27
2.82133	27
2.82500	27
2.82867	28
2.83233	28
2.83600	28
2.83967	27
2.84333	24
2.84700	20
2.85067	13
2.85433	3
2.85800	-11
2.86167	-30
2.86533	-54
2.86900	-83
2.87267	-118
2.87633	-158
2.88000	-204
2.88367	-255
2.88733	-311
2.89100	-372
2.89467	-438
2.89833	-507
2.90200	-581
2.90567	-657
2.90933	-737
2.91300	-819
2.91667	-905
2.92033	-992
2.92400	-1082
2.92767	-1173
2.93133	-1267
2.93500	-1361
2.93867	-1450
2.94233	-1520
2.94600	-1559
2.94967	-1562
2.95333	-1528
2.95700	-1463
2.96067	-1376
2.96433	-1272
2.96800	-1161
2.97167	-1047
2.97533	-935
2.97900	-828
2.98267	-729
2.98633	-637
2.99000	-554
2.99367	-480
2.99733	-414
3.00100	-356
3.00467	-305
3.00833	-261
3.01200	-223
3.01567	-190
3.01933	-161
3.02300	-136
3.02667	-115
3.03033	-97
3.03400	-82
3.03767	-68
3.04133	-57
3.04500	-47
3.04867	-39
3.05233	-32
3.05600	-26
3.05967	-21
3.06333	-16
3.06700	-12
3.07067	-8
3.07433	-5
3.07800	-2
3.08167	0
3.08533	2
3.08900	4
3.09267	6
3.09633	7
3.10000	8
3.10367	8
3.10733	9
3.11100	10
3.11467	11
3.11833	11
3.12200	12
3.12567	13
3.12933	13
3.13300	13
3.13667	14
3.14033	14
3.14400	14
3.14767	14
3.15133	15
3.15500	15
3.15867	15
3.16233	16
3.16600	16
3.16967	16
3.17333	16
3.17700	16
3.18067	16
3.18433	16
3.18800	17
3.19167	17
3.19533	17
3.19900	17
3.20267	18
3.20633	18
3.21000	19
3.21367	19
3.21733	19
3.22100	20
3.22467	20
3.22833	20
3.23200	21
3.23567	21
3.23933	21
3.24300	21
3.24667	21
3.25033	22
3.25400	22
3.25767	22
3.26133	22
3.26500	23
3.26867	23
3.27233	23
3.27600	23
3.27967	23
3.28333	23
3.28700	23
3.29067	24
3.29433	24
3.29800	24
3.30167	24
3.30533	24
3.30900	24
3.31267	24
3.31633	24
3.32000	24
3.32367	24
3.32733	24
3.33100	25
3.33467	25
3.33833	25
3.34200	25
3.34567	26
3.34933	26
3.35300	27
3.35667	27
3.36033	27
3.36400	28
3.36767	28
3.37133	28
3.37500	29
3.37867	29
3.38233	30
3.38600	30
3.38967	30
3.39333	30
3.39700	31
3.40067	31
3.40433	31
3.40800	31
3.41167	31
3.41533	32
3.41900	32
3.42267	32
3.42633	32
3.43000	32
3.43367	32
3.43733	31
3.44100	31
3.44467	31
3.44833	31
3.45200	31
3.45567	31
3.45933	31
3.46300	32
3.46667	31
3.47033	31
3.47400	31
3.47767	31
3.48133	31
3.48500	31
3.48867	30
3.49233	30
3.49600	29
3.49967	29
3.50333	28
3.50700	28
3.51067	28
3.51433	28
3.51800	28
3.52167	27
3.52533	27
3.52900	27
3.53267	27
3.53633	27
3.54000	27
3.54367	27
3.54733	28
3.55100	28
3.55467	28
3.55833	28
3.56200	28
3.56567	28
3.56933	28
3.57300	28
3.57667	28
3.58033	27
3.58400	27
3.58767	27
3.59133	27
3.59500	27
3.59867	27
3.60233	28
3.60600	28
3.60967	28
3.61333	28
3.61700	28
3.62067	28
3.62433	28
3.62800	29
3.63167	29
3.63533	29
3.63900	29
3.64267	29
3.64633	29
3.65000	29
3.65367	29
3.65733	29
3.66100	29
3.66467	29
3.66833	29
3.67200	29
3.67567	29
3.67933	29
3.68300	29
3.68667	28
3.69033	28
3.69400	28
3.69767	27
3.70133	27
3.70500	27
3.70867	26
3.71233	26
3.71600	26
3.71967	25
3.72333	25
3.72700	25
3.73067	25
3.73433	25
3.73800	25
3.74167	25
3.74533	26
3.74900	26
3.75267	26
3.75633	25
3.76000	25
3.76367	25
3.76733	25
3.77100	25
3.77467	25
3.77833	26
3.78200	26
3.78567	26
3.78933	26
3.79300	26
3.79667	26
3.80033	26
3.80400	26
3.80767	26
3.81133	26
3.81500	26
3.81867	26
3.82233	26
3.82600	26
3.82967	26
3.83333	26
3.83700	26
3.84067	26
3.84433	26
3.84800	26
3.85167	26
3.85533	27
3.85900	27
3.86267	27
3.86633	27
3.87000	27
3.87367	27
3.87733	28
3.88100	28
3.88467	28
3.88833	28
3.89200	28
3.89567	28
3.89933	28
3.90300	28
3.90667	28
3.91033	28
3.91400	28
3.91767	28
3.92133	28
3.92500	28
3.92867	28
3.93233	28
3.93600	28
3.93967	28
3.94333	28
3.94700	28
3.95067	28
3.95433	28
3.95800	28
3.96167	29
3.96533	29
3.96900	29
3.97267	29
3.97633	29
3.98000	29
3.98367	29
3.98733	29
3.99100	29
3.99467	28
3.99833	28

[Chromatogram (Ch3)]
Interval(msec)	220
# of Points	1091
Start Time(min)	0.002
End Time(min)	3.998
R.Time (min)	Intensity
0.00167	-0
0.00533	-2
0.00900	-5
0.01267	-4
0.01633	-2
0.02000	-2
0.02367	-3
0.02733	-3
0.03100	-4
0.03467	-5
0.03833	-5
0.04200	-3
0.04567	-1
0.04933	-2
0.05300	-4
0.05667	-5
0.06033	-5
0.06400	-5
0.06767	-4
0.07133	-3
0.07500	-1
0.07867	-0
0.08233	1
0.08600	1
0.08967	-0
0.09333	-1
0.09700	-1
0.10067	-3
0.10433	-4
0.10800	-6
0.11167	-5
0.11533	-3
0.11900	-5
0.12267	-5
0.12633	-4
0.13000	-2
0.13367	-1
0.13733	0
0.14100	1
0.14467	2
0.14833	2
0.15200	2
0.15567	0
0.15933	-1
0.16300	-1
0.16667	-0
0.17033	-4
0.17400	-8
0.17767	-10
0.18133	-10
0.18500	-8
0.18867	-6
0.19233	-6
0.19600	-5
0.19967	-4
0.20333	-3
0.20700	-4
0.21067	-4
0.21433	-1
0.21800	0
0.22167	0
0.22533	0
0.22900	-0
0.23267	-2
0.23633	-3
0.24000	-4
0.24367	-4
0.24733	-3
0.25100	-3
0.25467	-2
0.25833	-4
0.26200	-3
0.26567	-1
0.26933	-0
0.27300	0
0.27667	0
0.28033	-2
0.28400	-3
0.28767	-3
0.29133	-2
0.29500	-1
0.29867	-1
0.30233	-2
0.30600	-3
0.30967	-3
0.31333	-3
0.31700	-0
0.32067	-0
0.32433	-4
0.32800	-7
0.33167	-9
0.33533	-9
0.33900	-7
0.34267	-5
0.34633	-5
0.35000	-4
0.35367	-2
0.35733	-2
0.36100	-3
0.36467	-2
0.36833	-1
0.37200	-3
0.37567	-2
0.37933	-2
0.38300	-2
0.38667	-2
0.39033	-1
0.39400	-1
0.39767	-2
0.40133	-2
0.40500	-2
0.40867	-3
0.41233	-4
0.41600	-5
0.41967	-4
0.42333	-2
0.42700	-2
0.43067	-3
0.43433	-2
0.43800	-0
0.44167	1
0.44533	1
0.44900	0
0.45267	-1
0.45633	-1
0.46000	-3
0.46367	-3
0.46733	-2
0.47100	-2
0.47467	-1
0.47833	1
0.48200	2
0.48567	2
0.48933	2
0.49300	1
0.49667	1
0.50033	-2
0.50400	-6
0.50767	-8
0.51133	-9
0.51500	-8
0.51867	-4
0.52233	-2
0.52600	-1
0.52967	-0
0.53333	-1
0.53700	-2
0.54067	-5
0.54433	-7
0.54800	-6
0.55167	-7
0.55533	-8
0.55900	-7
0.56267	-6
0.56633	-6
0.57000	-6
0.57367	-4
0.57733	-4
0.58100	-6
0.58467	-4
0.58833	-2
0.59200	-0
0.59567	1
0.59933	0
0.60300	-1
0.60667	-2
0.61033	-1
0.61400	0
0.61767	0
0.62133	-1
0.62500	-1
0.62867	1
0.63233	4
0.63600	4
0.63967	3
0.64333	1
0.64700	-1
0.65067	-2
0.65433	0
0.65800	2
0.66167	3
0.66533	3
0.66900	1
0.67267	-1
0.67633	-1
0.68000	-0
0.68367	0
0.68733	1
0.69100	1
0.69467	-1
0.69833	-3
0.70200	-4
0.70567	-1
0.70933	2
0.71300	5
0.71667	5
0.72033	2
0.72400	-1
0.72767	-0
0.73133	0
0.73500	0
0.73867	0
0.74233	2
0.74600	3
0.74967	3
0.75333	3
0.75700	3
0.76067	2
0.76433	1
0.76800	1
0.77167	1
0.77533	3
0.77900	5
0.78267	4
0.78633	3
0.79000	2
0.79367	0
0.79733	1
0.80100	2
0.80467	2
0.80833	2
0.81200	1
0.81567	0
0.81933	1
0.82300	5
0.82667	6
0.83033	5
0.83400	4
0.83767	4
0.84133	5
0.84500	6
0.84867	6
0.85233	2
0.85600	2
0.85967	7
0.86333	8
0.86700	5
0.87067	3
0.87433	-0
0.87800	-2
0.88167	-2
0.88533	-2
0.88900	-1
0.89267	1
0.89633	2
0.90000	4
0.90367	5
0.90733	5
0.91100	4
0.91467	2
0.91833	2
0.92200	4
0.92567	5
0.92933	5
0.93300	5
0.93667	6
0.94033	6
0.94400	7
0.94767	7
0.95133	7
0.95500	6
0.95867	5
0.96233	4
0.96600	3
0.96967	1
0.97333	-1
0.97700	-2
0.98067	-2
0.98433	-0
0.98800	3
0.99167	6
0.99533	8
0.99900	10
1.00267	8
1.00633	4
1.01000	0
1.01367	0
1.01733	1
1.02100	3
1.02467	5
1.02833	4
1.03200	3
1.03567	4
1.03933	4
1.04300	3
1.04667	3
1.05033	5
1.05400	4
1.05767	3
1.06133	3
1.06500	2
1.06867	2
1.07233	4
1.07600	5
1.07967	6
1.08333	8
1.08700	8
1.09067	8
1.09433	10
1.09800	12
1.10167	14
1.10533	13
1.10900	11
1.11267	9
1.11633	8
1.12000	9
1.12367	10
1.12733	11
1.13100	9
1.13467	7
1.13833	7
1.14200	8
1.14567	8
1.14933	7
1.15300	7
1.15667	6
1.16033	5
1.16400	5
1.16767	8
1.17133	10
1.17500	9
1.17867	7
1.18233	5
1.18600	6
1.18967	8
1.19333	10
1.19700	10
1.20067	9
1.20433	10
1.20800	11
1.21167	11
1.21533	12
1.21900	10
1.22267	9
1.22633	9
1.23000	10
1.23367	12
1.23733	11
1.24100	8
1.24467	7
1.24833	7
1.25200	6
1.25567	8
1.25933	10
1.26300	9
1.26667	7
1.27033	7
1.27400	9
1.27767	11
1.28133	11
1.28500	11
1.28867	11
1.29233	11
1.29600	11
1.29967	11
1.30333	10
1.30700	11
1.31067	10
1.31433	11
1.31800	12
1.32167	13
1.32533	12
1.32900	11
1.33267	10
1.33633	11
1.34000	10
1.34367	8
1.34733	9
1.35100	9
1.35467	10
1.35833	11
1.36200	10
1.36567	10
1.36933	12
1.37300	11
1.37667	8
1.38033	4
1.38400	2
1.38767	5
1.39133	8
1.39500	10
1.39867	9
1.40233	9
1.40600	8
1.40967	6
1.41333	5
1.41700	5
1.42067	6
1.42433	10
1.42800	12
1.43167	12
1.43533	12
1.43900	13
1.44267	15
1.44633	16
1.45000	16
1.45367	16
1.45733	17
1.46100	15
1.46467	14
1.46833	16
1.47200	17
1.47567	18
1.47933	17
1.48300	16
1.48667	16
1.49033	16
1.49400	16
1.49767	15
1.50133	13
1.50500	12
1.50867	12
1.51233	14
1.51600	16
1.51967	16
1.52333	16
1.52700	17
1.53067	19
1.53433	18
1.53800	19
1.54167	19
1.54533	19
1.54900	18
1.55267	16
1.55633	14
1.56000	15
1.56367	16
1.56733	18
1.57100	20
1.57467	21
1.57833	19
1.58200	17
1.58567	15
1.58933	11
1.59300	11
1.59667	11
1.60033	11
1.60400	14
1.60767	18
1.61133	20
1.61500	19
1.61867	19
1.62233	18
1.62600	20
1.62967	21
1.63333	22
1.63700	22
1.64067	20
1.64433	17
1.64800	17
1.65167	18
1.65533	21
1.65900	22
1.66267	23
1.66633	24
1.67000	25
1.67367	25
1.67733	26
1.68100	24
1.68467	24
1.68833	25
1.69200	27
1.69567	29
1.69933	30
1.70300	30
1.70667	31
1.71033	29
1.71400	27
1.71767	28
1.72133	29
1.72500	31
1.72867	33
1.73233	35
1.73600	36
1.73967	35
1.74333	33
1.74700	33
1.75067	34
1.75433	33
1.75800	33
1.76167	32
1.76533	32
1.76900	33
1.77267	33
1.77633	34
1.78000	35
1.78367	37
1.78733	39
1.79100	41
1.79467	42
1.79833	41
1.80200	39
1.80567	39
1.80933	39
1.81300	39
1.81667	39
1.82033	39
1.82400	39
1.82767	41
1.83133	44
1.83500	46
1.83867	46
1.84233	46
1.84600	45
1.84967	43
1.85333	43
1.85700	42
1.86067	42
1.86433	43
1.86800	45
1.87167	46
1.87533	48
1.87900	50
1.88267	54
1.88633	55
1.89000	55
1.89367	54
1.89733	52
1.90100	51
1.90467	52
1.90833	53
1.91200	55
1.91567	55
1.91933	56
1.92300	55
1.92667	55
1.93033	58
1.93400	59
1.93767	58
1.94133	59
1.94500	59
1.94867	59
1.95233	61
1.95600	62
1.95967	63
1.96333	65
1.96700	68
1.97067	72
1.97433	72
1.97800	71
1.98167	69
1.98533	70
1.98900	73
1.99267	77
1.99633	79
2.00000	81
2.00367	81
2.00733	78
2.01100	76
2.01467	74
2.01833	74
2.02200	77
2.02567	81
2.02933	83
2.03300	84
2.03667	86
2.04033	85
2.04400	85
2.04767	87
2.05133	89
2.05500	91
2.05867	94
2.06233	96
2.06600	96
2.06967	96
2.07333	94
2.07700	92
2.08067	93
2.08433	95
2.08800	98
2.09167	100
2.09533	104
2.09900	106
2.10267	107
2.10633	109
2.11000	110
2.11367	111
2.11733	110
2.12100	111
2.12467	112
2.12833	114
2.13200	114
2.13567	114
2.13933	114
2.14300	116
2.14667	118
2.15033	119
2.15400	122
2.15767	126
2.16133	129
2.16500	134
2.16867	137
2.17233	137
2.17600	136
2.17967	137
2.18333	139
2.18700	141
2.19067	142
2.19433	141
2.19800	141
2.20167	142
2.20533	144
2.20900	147
2.21267	150
2.21633	151
2.22000	153
2.22367	153
2.22733	156
2.23100	158
2.23467	161
2.23833	162
2.24200	164
2.24567	168
2.24933	171
2.25300	173
2.25667	172
2.26033	174
2.26400	176
2.26767	177
2.27133	178
2.27500	180
2.27867	182
2.28233	184
2.28600	185
2.28967	187
2.29333	189
2.29700	192
2.30067	193
2.30433	194
2.30800	194
2.31167	195
2.31533	196
2.31900	198
2.32267	200
2.32633	203
2.33000	208
2.33367	210
2.33733	213
2.34100	215
2.34467	217
2.34833	219
2.35200	223
2.35567	224
2.35933	223
2.36300	221
2.36667	219
2.37033	219
2.37400	219
2.37767	222
2.38133	228
2.38500	231
2.38867	231
2.39233	229
2.39600	232
2.39967	238
2.40333	245
2.40700	251
2.41067	257
2.41433	259
2.41800	261
2.42167	264
2.42533	267
2.42900	269
2.43267	270
2.43633	271
2.44000	277
2.44367	336
2.44733	491
2.45100	660
2.45467	802
2.45833	883
2.46200	887
2.46567	841
2.46933	779
2.47300	727
2.47667	697
2.48033	674
2.48400	647
2.48767	609
2.49133	562
2.49500	512
2.49867	470
2.50233	441
2.50600	423
2.50967	412
2.51333	412
2.51700	422
2.52067	440
2.52433	461
2.52800	480
2.53167	492
2.53533	491
2.53900	478
2.54267	454
2.54633	426
2.55000	395
2.55367	366
2.55733	342
2.56100	322
2.56467	306
2.56833	291
2.57200	281
2.57567	274
2.57933	269
2.58300	268
2.58667	269
2.59033	270
2.59400	271
2.59767	270
2.60133	267
2.60500	264
2.60867	256
2.61233	246
2.61600	236
2.61967	227
2.62333	218
2.62700	214
2.63067	213
2.63433	214
2.63800	217
2.64167	218
2.64533	217
2.64900	217
2.65267	217
2.65633	213
2.66000	210
2.66367	205
2.66733	195
2.67100	185
2.67467	175
2.67833	166
2.68200	158
2.68567	149
2.68933	139
2.69300	133
2.69667	131
2.70033	127
2.70400	125
2.70767	123
2.71133	122
2.71500	122
2.71867	122
2.72233	123
2.72600	123
2.72967	125
2.73333	130
2.73700	133
2.74067	135
2.74433	138
2.74800	141
2.75167	143
2.75533	145
2.75900	146
2.76267	146
2.76633	145
2.77000	145
2.77367	144
2.77733	144
2.78100	145
2.78467	148
2.78833	150
2.79200	152
2.79567	154
2.79933	157
2.80300	159
2.80667	163
2.81033	168
2.81400	177
2.81767	197
2.82133	238
2.82500	328
2.82867	518
2.83233	870
2.83600	1455
2.83967	2330
2.84333	3526
2.84700	5032
2.85067	6797
2.85433	8708
2.85800	10624
2.86167	12406
2.86533	13913
2.86900	15045
2.87267	15738
2.87633	15976
2.88000	15792
2.88367	15259
2.88733	14468
2.89100	13499
2.89467	12429
2.89833	11322
2.90200	10221
2.90567	9165
2.90933	8173
2.91300	7258
2.91667	6422
2.92033	5666
2.92400	4986
2.92767	4380
2.93133	3847
2.93500	3378
2.93867	2963
2.94233	2598
2.94600	2277
2.94967	1995
2.95333	1751
2.95700	1541
2.96067	1360
2.96433	1200
2.96800	1059
2.97167	937
2.97533	832
2.97900	741
2.98267	663
2.98633	594
2.99000	533
2.99367	481
2.99733	436
3.00100	395
3.00467	359
3.00833	329
3.01200	304
3.01567	282
3.01933	262
3.02300	244
3.02667	229
3.03033	216
3.03400	206
3.03767	197
3.04133	190
3.04500	185
3.04867	180
3.05233	172
3.05600	166
3.05967	163
3.06333	163
3.06700	159
3.07067	155
3.07433	150
3.07800	146
3.08167	143
3.08533	142
3.08900	142
3.09267	140
3.09633	139
3.10000	139
3.10367	138
3.10733	136
3.11100	137
3.11467	136
3.11833	134
3.12200	129
3.12567	103
3.12933	61
3.13300	25
3.13667	17
3.14033	36
3.14400	70
3.14767	113
3.15133	164
3.15500	216
3.15867	266
3.16233	311
3.16600	350
3.16967	386
3.17333	419
3.17700	449
3.18067	475
3.18433	498
3.18800	518
3.19167	536
3.19533	552
3.19900	564
3.20267	573
3.20633	581
3.21000	587
3.21367	592
3.21733	597
3.22100	600
3.22467	604
3.22833	610
3.23200	613
3.23567	614
3.23933	619
3.24300	624
3.24667	626
3.25033	629
3.25400	631
3.25767	632
3.26133	634
3.26500	637
3.26867	642
3.27233	647
3.27600	651
3.27967	657
3.28333	663
3.28700	668
3.29067	671
3.29433	675
3.29800	680
3.30167	684
3.30533	689
3.30900	693
3.31267	695
3.31633	697
3.32000	697
3.32367	699
3.32733	704
3.33100	710
3.33467	715
3.33833	720
3.34200	725
3.34567	729
3.34933	730
3.35300	731
3.35667	734
3.36033	737
3.36400	740
3.36767	742
3.37133	744
3.37500	746
3.37867	748
3.38233	748
3.38600	750
3.38967	752
3.39333	753
3.39700	752
3.40067	752
3.40433	751
3.40800	749
3.41167	747
3.41533	744
3.41900	742
3.42267	741
3.42633	740
3.43000	738
3.43367	736
3.43733	734
3.44100	734
3.44467	732
3.44833	728
3.45200	722
3.45567	719
3.45933	714
3.46300	710
3.46667	707
3.47033	704
3.47400	702
3.47767	700
3.48133	697
3.48500	695
3.48867	693
3.49233	689
3.49600	684
3.49967	680
3.50333	679
3.50700	679
3.51067	679
3.51433	676
3.51800	674
3.52167	675
3.52533	675
3.52900	676
3.53267	676
3.53633	675
3.54000	673
3.54367	671
3.54733	669
3.55100	667
3.55467	666
3.55833	668
3.56200	669
3.56567	670
3.56933	669
3.57300	667
3.57667	668
3.58033	668
3.58400	666
3.58767	666
3.59133	668
3.59500	668
3.59867	666
3.60233	665
3.60600	665
3.60967	664
3.61333	664
3.61700	664
3.62067	666
3.62433	668
3.62800	669
3.63167	669
3.63533	669
3.63900	668
3.64267	665
3.64633	662
3.65000	661
3.65367	661
3.65733	661
3.66100	659
3.66467	660
3.66833	661
3.67200	660
3.67567	657
3.67933	657
3.68300	658
3.68667	660
3.69033	660
3.69400	660
3.69767	660
3.70133	660
3.70500	660
3.70867	661
3.71233	662
3.71600	661
3.71967	660
3.72333	661
3.72700	663
3.73067	661
3.73433	661
3.73800	659
3.74167	658
3.74533	657
3.74900	657
3.75267	658
3.75633	660
3.76000	661
3.76367	659
3.76733	656
3.77100	655
3.77467	655
3.77833	654
3.78200	653
3.78567	652
3.78933	652
3.79300	653
3.79667	654
3.80033	653
3.80400	650
3.80767	647
3.81133	645
3.81500	645
3.81867	644
3.82233	642
3.82600	639
3.82967	637
3.83333	634
3.83700	632
3.84067	633
3.84433	633
3.84800	632
3.85167	629
3.85533	625
3.85900	622
3.86267	619
3.86633	618
3.87000	615
3.87367	614
3.87733	614
3.88100	615
3.88467	612
3.88833	610
3.89200	610
3.89567	611
3.89933	611
3.90300	611
3.90667	610
3.91033	608
3.91400	605
3.91767	603
3.92133	601
3.92500	598
3.92867	597
3.93233	596
3.93600	594
3.93967	593
3.94333	591
3.94700	589
3.95067	588
3.95433	587
3.95800	584
3.96167	583
3.96533	583
3.96900	581
3.97267	578
3.97633	575
3.98000	573
3.98367	571
3.98733	570
3.99100	568
3.99467	567
3.99833	566

[Status Trace (Column Oven Temperature)]
Interval(msec)	1000
# of Points	240
Start Time(min)	0.002
End Time(min)	3.985
Intensity Units	
Intensity Multiplier	1
R.Time (min)	Intensity
0.00162	35.05
0.01828	35.04
0.03495	35.03
0.05162	35.02
0.06828	35.02
0.08495	35.02
0.10162	35.02
0.11828	35.02
0.13495	35.03
0.15162	35.03
0.16828	35.03
0.18495	35.04
0.20162	35.05
0.21828	35.04
0.23495	35.04
0.25162	35.03
0.26828	35.01
0.28495	35.00
0.30162	35.01
0.31828	35.01
0.33495	35.00
0.35162	34.99
0.36828	35.00
0.38495	35.01
0.40162	35.02
0.41828	35.03
0.43495	35.04
0.45162	35.04
0.46828	35.03
0.48495	35.02
0.50162	35.02
0.51828	35.02
0.53495	35.02
0.55162	35.02
0.56828	35.02
0.58495	35.02
0.60162	35.03
0.61828	35.03
0.63495	35.03
0.65162	35.02
0.66828	35.02
0.68495	35.01
0.70162	35.01
0.71828	35.01
0.73495	35.02
0.75162	35.01
0.76828	35.00
0.78495	34.99
0.80162	35.00
0.81828	35.01
0.83495	35.02
0.85162	35.01
0.86828	35.01
0.88495	34.99
0.90162	34.98
0.91828	34.98
0.93495	34.98
0.95162	34.99
0.96828	35.00
0.98495	35.01
1.00162	35.01
1.01828	35.02
1.03495	35.04
1.05162	35.04
1.06828	35.03
1.08495	35.01
1.10162	35.01
1.11828	35.02
1.13495	35.02
1.15162	35.01
1.16828	35.00
1.18495	35.00
1.20162	35.00
1.21828	34.99
1.23495	35.00
1.25162	35.00
1.26828	35.00
1.28495	34.99
1.30162	34.99
1.31828	34.98
1.33495	34.98
1.35162	34.99
1.36828	34.99
1.38495	34.99
1.40162	34.98
1.41828	34.98
1.43495	34.98
1.45162	34.99
1.46828	35.00
1.48495	35.01
1.50162	35.01
1.51828	35.01
1.53495	35.00
1.55162	35.00
1.56828	35.00
1.58495	35.00
1.60162	35.03
1.61828	35.12
1.63495	35.29
1.65162	35.51
1.66828	35.83
1.68495	36.19
1.70162	36.55
1.71828	36.89
1.73495	37.23
1.75162	37.56
1.76828	37.88
1.78495	38.20
1.80162	38.53
1.81828	38.88
1.83495	39.22
1.85162	39.55
1.86828	39.89
1.88495	40.19
1.90162	40.52
1.91828	40.85
1.93495	41.17
1.95162	41.53
1.96828	41.85
1.98495	42.16
2.00162	42.50
2.01828	42.81
2.03495	43.13
2.05162	43.46
2.06828	43.78
2.08495	44.13
2.10162	44.46
2.11828	44.75
2.13495	45.08
2.15162	45.41
2.16828	45.74
2.18495	46.07
2.20162	46.40
2.21828	46.73
2.23495	47.06
2.25162	47.38
2.26828	47.70
2.28495	48.05
2.30162	48.37
2.31828	48.70
2.33495	49.03
2.35162	49.35
2.36828	49.57
2.38495	49.65
2.40162	49.65
2.41828	49.65
2.43495	49.66
2.45162	49.66
2.46828	49.68
2.48495	49.68
2.50162	49.70
2.51828	49.72
2.53495	49.72
2.55162	49.74
2.56828	49.75
2.58495	49.77
2.60162	49.78
2.61828	49.79
2.63495	49.82
2.65162	49.81
2.66828	49.83
2.68495	49.83
2.70162	49.84
2.71828	49.85
2.73495	49.85
2.75162	49.84
2.76828	49.84
2.78495	49.87
2.80162	49.87
2.81828	49.87
2.83495	49.86
2.85162	49.86
2.86828	49.87
2.88495	49.87
2.90162	49.87
2.91828	49.88
2.93495	49.89
2.95162	49.91
2.96828	49.94
2.98495	49.96
3.00162	49.96
3.01828	49.97
3.03495	49.99
3.05162	49.98
3.06828	49.98
3.08495	49.99
3.10162	50.00
3.11828	50.00
3.13495	50.01
3.15162	50.02
3.16828	50.05
3.18495	50.05
3.20162	50.06
3.21828	50.07
3.23495	50.08
3.25162	50.08
3.26828	50.09
3.28495	50.10
3.30162	50.11
3.31828	50.11
3.33495	50.12
3.35162	50.11
3.36828	50.10
3.38495	50.08
3.40162	50.06
3.41828	50.04
3.43495	50.02
3.45162	50.00
3.46828	49.98
3.48495	49.99
3.50162	50.00
3.51828	50.01
3.53495	50.01
3.55162	50.00
3.56828	50.00
3.58495	50.01
3.60162	50.00
3.61828	50.00
3.63495	49.99
3.65162	49.98
3.66828	49.98
3.68495	49.98
3.70162	50.00
3.71828	50.02
3.73495	50.04
3.75162	50.05
3.76828	50.05
3.78495	50.05
3.80162	50.06
3.81828	50.06
3.83495	50.07
3.85162	50.07
3.86828	50.05
3.88495	50.05
3.90162	50.05
3.91828	50.04
3.93495	50.04
3.95162	50.02
3.96828	50.02
3.98495	50.02

[Status Trace (Injection Unit Temperature)]
Interval(msec)	1000
# of Points	240
Start Time(min)	0.002
End Time(min)	3.985
Intensity Units	
Intensity Multiplier	1
R.Time (min)	Intensity
0.00162	99.97
0.01828	99.98
0.03495	99.98
0.05162	99.98
0.06828	99.98
0.08495	99.98
0.10162	99.97
0.11828	99.98
0.13495	99.98
0.15162	99.98
0.16828	99.98
0.18495	99.98
0.20162	99.98
0.21828	99.98
0.23495	99.98
0.25162	99.98
0.26828	99.98
0.28495	99.98
0.30162	99.98
0.31828	99.98
0.33495	99.98
0.35162	99.98
0.36828	99.98
0.38495	99.98
0.40162	99.98
0.41828	99.98
0.43495	99.99
0.45162	99.98
0.46828	99.97
0.48495	99.98
0.50162	99.99
0.51828	99.98
0.53495	99.99
0.55162	99.99
0.56828	99.98
0.58495	99.98
0.60162	99.98
0.61828	99.98
0.63495	99.99
0.65162	99.99
0.66828	99.98
0.68495	99.98
0.70162	99.99
0.71828	99.98
0.73495	99.98
0.75162	99.97
0.76828	99.98
0.78495	99.98
0.80162	99.98
0.81828	99.99
0.83495	99.98
0.85162	99.98
0.86828	99.98
0.88495	99.98
0.90162	99.98
0.91828	99.98
0.93495	99.98
0.95162	99.98
0.96828	99.98
0.98495	99.99
1.00162	99.98
1.01828	99.98
1.03495	99.99
1.05162	99.98
1.06828	99.98
1.08495	99.98
1.10162	99.98
1.11828	99.99
1.13495	99.98
1.15162	99.98
1.16828	99.97
1.18495	99.98
1.20162	99.98
1.21828	99.98
1.23495	99.98
1.25162	99.97
1.26828	99.98
1.28495	99.98
1.30162	99.98
1.31828	99.98
1.33495	99.98
1.35162	99.98
1.36828	99.98
1.38495	99.98
1.40162	99.98
1.41828	99.98
1.43495	99.98
1.45162	99.98
1.46828	99.98
1.48495	99.98
1.50162	99.98
1.51828	99.98
1.53495	99.98
1.55162	99.98
1.56828	99.98
1.58495	99.98
1.60162	99.98
1.61828	99.98
1.63495	99.98
1.65162	99.98
1.66828	99.98
1.68495	99.98
1.70162	99.98
1.71828	99.98
1.73495	99.98
1.75162	99.98
1.76828	99.98
1.78495	99.99
1.80162	99.98
1.81828	99.98
1.83495	99.98
1.85162	99.98
1.86828	99.98
1.88495	99.98
1.90162	99.98
1.91828	99.98
1.93495	99.98
1.95162	99.98
1.96828	99.97
1.98495	99.97
2.00162	99.97
2.01828	99.97
2.03495	99.97
2.05162	99.97
2.06828	99.97
2.08495	99.97
2.10162	99.97
2.11828	99.97
2.13495	99.97
2.15162	99.97
2.16828	99.97
2.18495	99.97
2.20162	99.97
2.21828	99.97
2.23495	99.97
2.25162	99.97
2.26828	99.97
2.28495	99.97
2.30162	99.97
2.31828	99.97
2.33495	99.97
2.35162	99.97
2.36828	99.97
2.38495	99.97
2.40162	99.96
2.41828	99.97
2.43495	99.97
2.45162	99.97
2.46828	99.97
2.48495	99.97
2.50162	99.97
2.51828	99.97
2.53495	99.97
2.55162	99.98
2.56828	99.97
2.58495	99.98
2.60162	99.98
2.61828	99.98
2.63495	99.99
2.65162	99.99
2.66828	99.99
2.68495	99.99
2.70162	99.99
2.71828	99.99
2.73495	99.99
2.75162	99.99
2.76828	99.99
2.78495	100.00
2.80162	100.00
2.81828	100.00
2.83495	100.00
2.85162	100.00
2.86828	100.01
2.88495	100.01
2.90162	100.01
2.91828	100.01
2.93495	100.01
2.95162	100.01
2.96828	100.02
2.98495	100.01
3.00162	100.01
3.01828	100.01
3.03495	100.02
3.05162	100.02
3.06828	100.02
3.08495	100.02
3.10162	100.02
3.11828	100.02
3.13495	100.02
3.15162	100.03
3.16828	100.03
3.18495	100.03
3.20162	100.03
3.21828	100.03
3.23495	100.03
3.25162	100.03
3.26828	100.03
3.28495	100.03
3.30162	100.03
3.31828	100.03
3.33495	100.03
3.35162	100.03
3.36828	100.04
3.38495	100.03
3.40162	100.04
3.41828	100.03
3.43495	100.03
3.45162	100.04
3.46828	100.04
3.48495	100.04
3.50162	100.04
3.51828	100.04
3.53495	100.04
3.55162	100.04
3.56828	100.04
3.58495	100.04
3.60162	100.04
3.61828	100.04
3.63495	100.04
3.65162	100.04
3.66828	100.04
3.68495	100.04
3.70162	100.05
3.71828	100.05
3.73495	100.04
3.75162	100.04
3.76828	100.04
3.78495	100.05
3.80162	100.04
3.81828	100.04
3.83495	100.04
3.85162	100.04
3.86828	100.05
3.88495	100.05
3.90162	100.04
3.91828	100.05
3.93495	100.04
3.95162	100.05
3.96828	100.04
3.98495	100.05

[Status Trace (Carrier Gas Pressure)]
Interval(msec)	1000
# of Points	240
Start Time(min)	0.002
End Time(min)	3.985
Intensity Units	
Intensity Multiplier	1
R.Time (min)	Intensity
0.00162	58.00
0.01828	56.35
0.03495	56.16
0.05162	58.48
0.06828	59.88
0.08495	58.36
0.10162	57.97
0.11828	58.00
0.13495	58.01
0.15162	58.01
0.16828	58.00
0.18495	58.00
0.20162	58.00
0.21828	58.00
0.23495	58.00
0.25162	58.00
0.26828	58.00
0.28495	58.00
0.30162	58.00
0.31828	58.00
0.33495	58.00
0.35162	58.00
0.36828	58.00
0.38495	58.00
0.40162	58.00
0.41828	58.00
0.43495	58.00
0.45162	58.00
0.46828	58.00
0.48495	58.00
0.50162	58.00
0.51828	58.00
0.53495	58.00
0.55162	58.00
0.56828	58.00
0.58495	58.00
0.60162	58.00
0.61828	58.00
0.63495	58.00
0.65162	58.00
0.66828	58.00
0.68495	58.00
0.70162	58.00
0.71828	58.00
0.73495	58.00
0.75162	58.00
0.76828	58.00
0.78495	58.00
0.80162	58.00
0.81828	58.00
0.83495	58.00
0.85162	58.00
0.86828	58.00
0.88495	58.00
0.90162	58.00
0.91828	58.00
0.93495	58.00
0.95162	58.00
0.96828	58.00
0.98495	58.00
1.00162	58.00
1.01828	58.00
1.03495	58.00
1.05162	58.00
1.06828	58.00
1.08495	58.00
1.10162	58.00
1.11828	58.00
1.13495	58.00
1.15162	58.00
1.16828	58.00
1.18495	58.00
1.20162	58.00
1.21828	58.00
1.23495	58.00
1.25162	58.00
1.26828	58.00
1.28495	58.00
1.30162	58.00
1.31828	58.00
1.33495	58.00
1.35162	58.00
1.36828	58.00
1.38495	58.00
1.40162	58.00
1.41828	58.00
1.43495	58.00
1.45162	58.00
1.46828	58.00
1.48495	58.00
1.50162	58.00
1.51828	58.00
1.53495	58.00
1.55162	58.00
1.56828	58.00
1.58495	58.00
1.60162	58.00
1.61828	58.00
1.63495	58.00
1.65162	58.00
1.66828	58.01
1.68495	58.01
1.70162	58.00
1.71828	58.00
1.73495	58.00
1.75162	58.00
1.76828	58.00
1.78495	58.00
1.80162	58.00
1.81828	58.00
1.83495	58.00
1.85162	58.00
1.86828	58.00
1.88495	58.00
1.90162	58.00
1.91828	58.00
1.93495	58.00
1.95162	58.00
1.96828	58.00
1.98495	58.00
2.00162	58.00
2.01828	58.00
2.03495	58.00
2.05162	58.00
2.06828	58.00
2.08495	58.00
2.10162	58.00
2.11828	58.00
2.13495	58.00
2.15162	58.00
2.16828	58.00
2.18495	58.00
2.20162	58.00
2.21828	58.00
2.23495	58.00
2.25162	58.00
2.26828	58.00
2.28495	58.00
2.30162	58.00
2.31828	58.00
2.33495	58.00
2.35162	58.00
2.36828	58.00
2.38495	57.99
2.40162	57.99
2.41828	58.00
2.43495	58.00
2.45162	58.00
2.46828	58.00
2.48495	58.00
2.50162	58.00
2.51828	58.01
2.53495	57.99
2.55162	58.00
2.56828	58.00
2.58495	58.00
2.60162	58.00
2.61828	58.00
2.63495	58.00
2.65162	58.00
2.66828	58.00
2.68495	58.00
2.70162	58.00
2.71828	58.00
2.73495	58.00
2.75162	58.00
2.76828	58.00
2.78495	58.00
2.80162	58.00
2.81828	58.00
2.83495	58.00
2.85162	58.00
2.86828	58.00
2.88495	58.00
2.90162	58.00
2.91828	58.00
2.93495	58.00
2.95162	58.00
2.96828	58.00
2.98495	58.00
3.00162	58.00
3.01828	58.00
3.03495	58.00
3.05162	58.00
3.06828	58.00
3.08495	58.00
3.10162	58.00
3.11828	58.00
3.13495	58.00
3.15162	58.00
3.16828	58.00
3.18495	58.00
3.20162	58.00
3.21828	58.00
3.23495	58.00
3.25162	58.00
3.26828	58.00
3.28495	58.00
3.30162	58.00
3.31828	58.00
3.33495	58.00
3.35162	58.00
3.36828	58.00
3.38495	58.00
3.40162	58.00
3.41828	58.00
3.43495	58.00
3.45162	58.00
3.46828	58.00
3.48495	58.00
3.50162	58.00
3.51828	58.00
3.53495	58.00
3.55162	58.00
3.56828	58.00
3.58495	58.00
3.60162	58.00
3.61828	58.00
3.63495	58.00
3.65162	58.00
3.66828	58.00
3.68495	58.00
3.70162	58.00
3.71828	58.00
3.73495	58.00
3.75162	58.00
3.76828	58.00
3.78495	58.00
3.80162	58.00
3.81828	58.00
3.83495	58.00
3.85162	58.00
3.86828	58.00
3.88495	58.00
3.90162	58.00
3.91828	58.00
3.93495	58.00
3.95162	58.00
3.96828	58.00
3.98495	58.00

[Status Trace (Carrier Gas Flow)]
Interval(msec)	1000
# of Points	240
Start Time(min)	0.002
End Time(min)	3.985
Intensity Units	
Intensity Multiplier	1
R.Time (min)	Intensity
0.00162	34.51
0.01828	34.51
0.03495	34.54
0.05162	34.55
0.06828	34.49
0.08495	34.51
0.10162	34.52
0.11828	34.52
0.13495	34.52
0.15162	34.52
0.16828	34.52
0.18495	34.52
0.20162	34.52
0.21828	34.52
0.23495	34.52
0.25162	34.52
0.26828	34.52
0.28495	34.52
0.30162	34.52
0.31828	34.52
0.33495	34.52
0.35162	34.52
0.36828	34.52
0.38495	34.52
0.40162	34.52
0.41828	34.53
0.43495	34.52
0.45162	34.52
0.46828	34.52
0.48495	34.52
0.50162	34.51
0.51828	34.52
0.53495	34.52
0.55162	34.52
0.56828	34.52
0.58495	34.52
0.60162	34.52
0.61828	34.52
0.63495	34.52
0.65162	34.52
0.66828	34.52
0.68495	34.52
0.70162	34.52
0.71828	34.52
0.73495	34.52
0.75162	34.52
0.76828	34.52
0.78495	34.52
0.80162	34.52
0.81828	34.52
0.83495	34.52
0.85162	34.51
0.86828	34.52
0.88495	34.52
0.90162	34.52
0.91828	34.52
0.93495	34.52
0.95162	34.52
0.96828	34.52
0.98495	34.52
1.00162	34.52
1.01828	34.52
1.03495	34.51
1.05162	34.51
1.06828	34.52
1.08495	34.51
1.10162	34.52
1.11828	34.52
1.13495	34.52
1.15162	34.52
1.16828	34.52
1.18495	34.52
1.20162	34.53
1.21828	34.52
1.23495	34.52
1.25162	34.51
1.26828	34.52
1.28495	34.53
1.30162	34.52
1.31828	34.52
1.33495	34.52
1.35162	34.52
1.36828	34.52
1.38495	34.52
1.40162	34.52
1.41828	34.52
1.43495	34.52
1.45162	34.52
1.46828	34.52
1.48495	34.52
1.50162	34.52
1.51828	34.52
1.53495	34.52
1.55162	34.52
1.56828	34.52
1.58495	34.52
1.60162	34.52
1.61828	34.52
1.63495	34.52
1.65162	34.52
1.66828	34.51
1.68495	34.52
1.70162	34.52
1.71828	34.52
1.73495	34.52
1.75162	34.52
1.76828	34.52
1.78495	34.52
1.80162	34.52
1.81828	34.52
1.83495	34.52
1.85162	34.52
1.86828	34.52
1.88495	34.52
1.90162	34.52
1.91828	34.52
1.93495	34.52
1.95162	34.52
1.96828	34.52
1.98495	34.52
2.00162	34.52
2.01828	34.52
2.03495	34.52
2.05162	34.52
2.06828	34.52
2.08495	34.52
2.10162	34.52
2.11828	34.52
2.13495	34.52
2.15162	34.52
2.16828	34.51
2.18495	34.52
2.20162	34.52
2.21828	34.52
2.23495	34.52
2.25162	34.51
2.26828	34.52
2.28495	34.52
2.30162	34.52
2.31828	34.51
2.33495	34.52
2.35162	34.52
2.36828	34.51
2.38495	34.55
2.40162	34.52
2.41828	34.52
2.43495	34.51
2.45162	34.52
2.46828	34.52
2.48495	34.52
2.50162	34.52
2.51828	34.52
2.53495	34.52
2.55162	34.51
2.56828	34.52
2.58495	34.52
2.60162	34.52
2.61828	34.52
2.63495	34.51
2.65162	34.52
2.66828	34.52
2.68495	34.52
2.70162	34.52
2.71828	34.52
2.73495	34.52
2.75162	34.52
2.76828	34.52
2.78495	34.52
2.80162	34.52
2.81828	34.52
2.83495	34.51
2.85162	34.52
2.86828	34.52
2.88495	34.52
2.90162	34.52
2.91828	34.52
2.93495	34.52
2.95162	34.52
2.96828	34.52
2.98495	34.52
3.00162	34.52
3.01828	34.52
3.03495	34.52
3.05162	34.52
3.06828	34.52
3.08495	34.52
3.10162	34.52
3.11828	34.52
3.13495	34.52
3.15162	34.52
3.16828	34.52
3.18495	34.52
3.20162	34.52
3.21828	34.52
3.23495	34.51
3.25162	34.52
3.26828	34.52
3.28495	34.52
3.30162	34.52
3.31828	34.52
3.33495	34.52
3.35162	34.52
3.36828	34.51
3.38495	34.52
3.40162	34.52
3.41828	34.52
3.43495	34.52
3.45162	34.52
3.46828	34.52
3.48495	34.52
3.50162	34.51
3.51828	34.52
3.53495	34.52
3.55162	34.52
3.56828	34.52
3.58495	34.52
3.60162	34.52
3.61828	34.52
3.63495	34.52
3.65162	34.52
3.66828	34.52
3.68495	34.52
3.70162	34.52
3.71828	34.52
3.73495	34.52
3.75162	34.52
3.76828	34.52
3.78495	34.52
3.80162	34.52
3.81828	34.52
3.83495	34.52
3.85162	34.52
3.86828	34.52
3.88495	34.51
3.90162	34.52
3.91828	34.52
3.93495	34.52
3.95162	34.52
3.96828	34.52
3.98495	34.52

[Status Trace (Column Flow)]
Interval(msec)	1000
# of Points	240
Start Time(min)	0.002
End Time(min)	3.985
Intensity Units	
Intensity Multiplier	1
R.Time (min)	Intensity
0.00162	5.52
0.01828	5.33
0.03495	5.31
0.05162	5.58
0.06828	5.74
0.08495	5.56
0.10162	5.52
0.11828	5.52
0.13495	5.52
0.15162	5.52
0.16828	5.52
0.18495	5.52
0.20162	5.52
0.21828	5.52
0.23495	5.52
0.25162	5.52
0.26828	5.52
0.28495	5.52
0.30162	5.52
0.31828	5.52
0.33495	5.52
0.35162	5.52
0.36828	5.52
0.38495	5.52
0.40162	5.52
0.41828	5.52
0.43495	5.52
0.45162	5.52
0.46828	5.52
0.48495	5.52
0.50162	5.52
0.51828	5.52
0.53495	5.52
0.55162	5.52
0.56828	5.52
0.58495	5.52
0.60162	5.52
0.61828	5.52
0.63495	5.52
0.65162	5.52
0.66828	5.52
0.68495	5.52
0.70162	5.52
0.71828	5.52
0.73495	5.52
0.75162	5.52
0.76828	5.52
0.78495	5.52
0.80162	5.52
0.81828	5.52
0.83495	5.52
0.85162	5.52
0.86828	5.52
0.88495	5.52
0.90162	5.52
0.91828	5.52
0.93495	5.52
0.95162	5.52
0.96828	5.52
0.98495	5.52
1.00162	5.52
1.01828	5.52
1.03495	5.52
1.05162	5.52
1.06828	5.52
1.08495	5.52
1.10162	5.52
1.11828	5.52
1.13495	5.52
1.15162	5.52
1.16828	5.52
1.18495	5.52
1.20162	5.52
1.21828	5.52
1.23495	5.52
1.25162	5.52
1.26828	5.52
1.28495	5.52
1.30162	5.52
1.31828	5.52
1.33495	5.52
1.35162	5.52
1.36828	5.52
1.38495	5.52
1.40162	5.52
1.41828	5.52
1.43495	5.52
1.45162	5.52
1.46828	5.52
1.48495	5.52
1.50162	5.52
1.51828	5.52
1.53495	5.52
1.55162	5.52
1.56828	5.52
1.58495	5.52
1.60162	5.52
1.61828	5.52
1.63495	5.51
1.65162	5.51
1.66828	5.50
1.68495	5.49
1.70162	5.47
1.71828	5.46
1.73495	5.45
1.75162	5.44
1.76828	5.43
1.78495	5.42
1.80162	5.41
1.81828	5.40
1.83495	5.39
1.85162	5.38
1.86828	5.37
1.88495	5.36
1.90162	5.35
1.91828	5.34
1.93495	5.33
1.95162	5.32
1.96828	5.31
1.98495	5.30
2.00162	5.29
2.01828	5.28
2.03495	5.28
2.05162	5.27
2.06828	5.26
2.08495	5.25
2.10162	5.24
2.11828	5.23
2.13495	5.22
2.15162	5.21
2.16828	5.20
2.18495	5.19
2.20162	5.18
2.21828	5.17
2.23495	5.16
2.25162	5.15
2.26828	5.14
2.28495	5.13
2.30162	5.12
2.31828	5.12
2.33495	5.11
2.35162	5.10
2.36828	5.09
2.38495	5.09
2.40162	5.09
2.41828	5.09
2.43495	5.09
2.45162	5.09
2.46828	5.09
2.48495	5.09
2.50162	5.09
2.51828	5.09
2.53495	5.09
2.55162	5.09
2.56828	5.09
2.58495	5.09
2.60162	5.09
2.61828	5.08
2.63495	5.08
2.65162	5.08
2.66828	5.08
2.68495	5.08
2.70162	5.08
2.71828	5.08
2.73495	5.08
2.75162	5.08
2.76828	5.08
2.78495	5.08
2.80162	5.08
2.81828	5.08
2.83495	5.08
2.85162	5.08
2.86828	5.08
2.88495	5.08
2.90162	5.08
2.91828	5.08
2.93495	5.08
2.95162	5.08
2.96828	5.08
2.98495	5.08
3.00162	5.08
3.01828	5.08
3.03495	5.08
3.05162	5.08
3.06828	5.08
3.08495	5.08
3.10162	5.08
3.11828	5.08
3.13495	5.08
3.15162	5.08
3.16828	5.08
3.18495	5.08
3.20162	5.08
3.21828	5.08
3.23495	5.08
3.25162	5.08
3.26828	5.08
3.28495	5.08
3.30162	5.08
3.31828	5.08
3.33495	5.08
3.35162	5.08
3.36828	5.08
3.38495	5.08
3.40162	5.08
3.41828	5.08
3.43495	5.08
3.45162	5.08
3.46828	5.08
3.48495	5.08
3.50162	5.08
3.51828	5.08
3.53495	5.08
3.55162	5.08
3.56828	5.08
3.58495	5.08
3.60162	5.08
3.61828	5.08
3.63495	5.08
3.65162	5.08
3.66828	5.08
3.68495	5.08
3.70162	5.08
3.71828	5.08
3.73495	5.08
3.75162	5.08
3.76828	5.08
3.78495	5.08
3.80162	5.08
3.81828	5.08
3.83495	5.08
3.85162	5.08
3.86828	5.08
3.88495	5.08
3.90162	5.08
3.91828	5.08
3.93495	5.08
3.95162	5.08
3.96828	5.08
3.98495	5.08

[Status Trace (Linear Velocity)]
Interval(msec)	1000
# of Points	240
Start Time(min)	0.002
End Time(min)	3.985
Intensity Units	
Intensity Multiplier	1
R.Time (min)	Intensity
0.00162	39.01
0.01828	37.93
0.03495	37.80
0.05162	39.33
0.06828	40.24
0.08495	39.25
0.10162	38.99
0.11828	39.02
0.13495	39.02
0.15162	39.02
0.16828	39.02
0.18495	39.01
0.20162	39.01
0.21828	39.01
0.23495	39.01
0.25162	39.01
0.26828	39.02
0.28495	39.02
0.30162	39.02
0.31828	39.02
0.33495	39.02
0.35162	39.02
0.36828	39.02
0.38495	39.02
0.40162	39.01
0.41828	39.01
0.43495	39.01
0.45162	39.01
0.46828	39.01
0.48495	39.01
0.50162	39.02
0.51828	39.01
0.53495	39.02
0.55162	39.02
0.56828	39.02
0.58495	39.02
0.60162	39.01
0.61828	39.01
0.63495	39.01
0.65162	39.01
0.66828	39.02
0.68495	39.02
0.70162	39.02
0.71828	39.02
0.73495	39.02
0.75162	39.02
0.76828	39.02
0.78495	39.02
0.80162	39.02
0.81828	39.02
0.83495	39.02
0.85162	39.02
0.86828	39.02
0.88495	39.02
0.90162	39.02
0.91828	39.02
0.93495	39.02
0.95162	39.02
0.96828	39.02
0.98495	39.02
1.00162	39.02
1.01828	39.01
1.03495	39.01
1.05162	39.01
1.06828	39.01
1.08495	39.01
1.10162	39.02
1.11828	39.02
1.13495	39.02
1.15162	39.02
1.16828	39.02
1.18495	39.02
1.20162	39.02
1.21828	39.02
1.23495	39.02
1.25162	39.02
1.26828	39.02
1.28495	39.02
1.30162	39.02
1.31828	39.02
1.33495	39.02
1.35162	39.02
1.36828	39.02
1.38495	39.02
1.40162	39.02
1.41828	39.02
1.43495	39.02
1.45162	39.02
1.46828	39.02
1.48495	39.02
1.50162	39.02
1.51828	39.02
1.53495	39.02
1.55162	39.02
1.56828	39.02
1.58495	39.02
1.60162	39.02
1.61828	39.01
1.63495	38.99
1.65162	38.97
1.66828	38.94
1.68495	38.91
1.70162	38.87
1.71828	38.84
1.73495	38.81
1.75162	38.77
1.76828	38.74
1.78495	38.71
1.80162	38.68
1.81828	38.65
1.83495	38.62
1.85162	38.58
1.86828	38.55
1.88495	38.53
1.90162	38.49
1.91828	38.46
1.93495	38.44
1.95162	38.40
1.96828	38.37
1.98495	38.34
2.00162	38.31
2.01828	38.28
2.03495	38.25
2.05162	38.22
2.06828	38.19
2.08495	38.16
2.10162	38.13
2.11828	38.10
2.13495	38.08
2.15162	38.04
2.16828	38.01
2.18495	37.99
2.20162	37.95
2.21828	37.92
2.23495	37.90
2.25162	37.87
2.26828	37.84
2.28495	37.81
2.30162	37.78
2.31828	37.75
2.33495	37.72
2.35162	37.69
2.36828	37.67
2.38495	37.66
2.40162	37.66
2.41828	37.66
2.43495	37.66
2.45162	37.66
2.46828	37.66
2.48495	37.66
2.50162	37.66
2.51828	37.67
2.53495	37.65
2.55162	37.66
2.56828	37.66
2.58495	37.65
2.60162	37.65
2.61828	37.65
2.63495	37.65
2.65162	37.65
2.66828	37.65
2.68495	37.65
2.70162	37.65
2.71828	37.65
2.73495	37.64
2.75162	37.65
2.76828	37.65
2.78495	37.65
2.80162	37.64
2.81828	37.64
2.83495	37.64
2.85162	37.65
2.86828	37.64
2.88495	37.64
2.90162	37.64
2.91828	37.64
2.93495	37.64
2.95162	37.64
2.96828	37.64
2.98495	37.64
3.00162	37.64
3.01828	37.64
3.03495	37.63
3.05162	37.63
3.06828	37.63
3.08495	37.63
3.10162	37.63
3.11828	37.63
3.13495	37.63
3.15162	37.63
3.16828	37.63
3.18495	37.63
3.20162	37.63
3.21828	37.63
3.23495	37.63
3.25162	37.63
3.26828	37.63
3.28495	37.62
3.30162	37.62
3.31828	37.62
3.33495	37.62
3.35162	37.62
3.36828	37.62
3.38495	37.63
3.40162	37.63
3.41828	37.63
3.43495	37.63
3.45162	37.63
3.46828	37.63
3.48495	37.63
3.50162	37.63
3.51828	37.63
3.53495	37.63
3.55162	37.63
3.56828	37.63
3.58495	37.63
3.60162	37.63
3.61828	37.63
3.63495	37.63
3.65162	37.63
3.66828	37.64
3.68495	37.63
3.70162	37.63
3.71828	37.63
3.73495	37.63
3.75162	37.63
3.76828	37.63
3.78495	37.63
3.80162	37.63
3.81828	37.63
3.83495	37.63
3.85162	37.63
3.86828	37.63
3.88495	37.63
3.90162	37.63
3.91828	37.63
3.93495	37.63
3.95162	37.63
3.96828	37.63
3.98495	37.63

