[Header]
Application Name	LabSolutions
Version	5.110
Data File Name	C:\Users\User\Desktop\GC Analyses\Jack\Nachusa Grasslands Sampling\T2 Timepoint July 12th\T2_07122022_040.gcd
Output Date	3/14/2023
Output Time	3:42:32 PM

[File Information]
Type	Data File
Generated	3/10/2023 4:49:43 PM
Generated by	System Administrator
Modified	3/10/2023 4:56:20 PM
Modified by	System Administrator

[Sample Information]
Operator Name	System Administrator
Acquired	3/10/2023 4:52:18 PM
Sample Type	0:Unknown
Level	0
Sample Name	040
Sample ID	040
ISTD Amount1	1
ISTD Amount2	1
ISTD Amount3	1
ISTD Amount4	1
ISTD Amount5	1
ISTD Amount6	1
ISTD Amount7	1
ISTD Amount8	1
ISTD Amount9	1
ISTD Amount10	1
ISTD Amount11	1
ISTD Amount12	1
ISTD Amount13	1
ISTD Amount14	1
ISTD Amount15	1
ISTD Amount16	1
ISTD Amount17	1
ISTD Amount18	1
ISTD Amount19	1
ISTD Amount20	1
ISTD Amount21	1
ISTD Amount22	1
ISTD Amount23	1
ISTD Amount24	1
ISTD Amount25	1
ISTD Amount26	1
ISTD Amount27	1
ISTD Amount28	1
ISTD Amount29	1
ISTD Amount30	1
ISTD Amount31	1
ISTD Amount32	1
Sample Amount	1
Dilution Factor	1
Vial#	39
Injection Volume	1
Injection Count	1
Bar Code	

[Original Files]
Data File	C:\Users\User\Desktop\GC Analyses\Jack\Nachusa Grasslands Sampling\T1 Timepoint July 12th\T2_07122022_040.gcd
Method File	C:\LabSolutions\Data\GHG_4min_2022\ghg3_togas_w_acet_4 min_new_int.gcm
Batch File	C:\LabSolutions\Data\AutoSamplerTesting\T2_07122022.gcb
Report Format File	c:\LabSolutions\System\DEFAULT.lsr

[File Description]


[Configuration]
Instrument Name	C0B7VH3-Instrument1
Instrument #	1
Line #	1
# of Detectors	3
Detector ID	DET#1	DET#2	DET#3
Detector Name	FID	PTCD	ECD
# of Channels	1	1	1

[Peak Table(Ch1)]
# of Peaks	3
Peak#	R.Time	I.Time	F.Time	Area	Height	A/H	Conc.	Mark	ID#	Name	k'	Plate #	Plate Ht.	Tailing	Resolution	Sep.Factor	Area Ratio	Height Ratio	Conc. %	Norm Conc.
1	1.476	1.439	1.538	25973	12368	2.100	183.369	   	1	CO	0.000	9436	15.897	1.296	0.000	0.000	0	0	27.517	27.517
2	1.567	1.538	1.630	4464	2175	2.053	86.319	 V 	2	CH4	0.062	10431	14.380	0.000	1.501	0.000	0	0	12.953	12.953
3	1.996	1.949	2.469	1580669	755918	2.091	396.705	   	3	CO2	0.353	17335	8.653	1.267	7.031	5.680	0	0	59.530	59.530

[Peak Table(Ch2)]
# of Peaks	0

[Peak Table(Ch3)]
# of Peaks	5
Peak#	R.Time	I.Time	F.Time	Area	Height	A/H	Conc.	Mark	ID#	Name	k'	Plate #	Plate Ht.	Tailing	Resolution	Sep.Factor	Area Ratio	Height Ratio	Conc. %	Norm Conc.
1	2.462	2.286	2.513	2142	633	3.383	0.000	   			0.000	9030	16.611	0.000	0.000	0.000	0	0	0.000	0.000
2	2.535	2.513	2.638	1488	354	4.207	0.000	 V 			0.030	4030	37.221	0.000	0.557	0.000	0	0	0.000	0.000
3	2.653	2.638	2.719	265	98	2.704	0.000	 V 			0.077	7322	20.486	0.000	0.827	2.600	0	0	0.000	0.000
4	2.876	2.792	3.082	19126	5051	3.786	0.489	   	1	N2O	0.168	13290	11.286	1.637	1.999	2.173	0	0	100.000	100.000
5	3.393	3.166	3.995	15026	527	28.539	0.000	   	2	SF6	0.378	278	540.376	1.779	1.131	2.248	0	0	0.000	0.000

[Compound Results(Ch1)]
# of IDs	6
ID#	Name	R.Time	Area	Height	Conc.	Curve	3rd	2nd	1st	Constant	Area Ratio	Height Ratio	Conc. %	Norm Conc.
1	CO	1.476	25973	12368	183.369	Linear	0.000000e+00	0.000000e+00	1.416423e+002	0.000000e+00	0	0	27.517	27.517
2	CH4	1.567	4464	2175	86.319	Linear	0.000000e+00	0.000000e+00	5.171738e+001	0.000000e+00	0	0	12.953	12.953
3	CO2	1.996	1580669	755918	396.705	Linear	0.000000e+00	0.000000e+00	3.984494e+003	0.000000e+00	0	0	59.530	59.530
4	Ethylene	0.000	0	0	0.000	Linear	0.000000e+00	0.000000e+00	0.000000e+00	0.000000e+00	0	0	0.000	0.000
5	Acetylene	0.000	0	0	0.000	Linear	0.000000e+00	0.000000e+00	0.000000e+00	0.000000e+00	0	0	0.000	0.000
6	Ethane	0.000	0	0	0.000	Linear	0.000000e+00	0.000000e+00	0.000000e+00	0.000000e+00	0	0	0.000	0.000

[Compound Results(Ch2)]
# of IDs	5
ID#	Name	R.Time	Area	Height	Conc.	Curve	3rd	2nd	1st	Constant	Area Ratio	Height Ratio	Conc. %	Norm Conc.
1	Hydrogen	0.000	0	0	0.000	Linear	0.000000e+00	0.000000e+00	0.000000e+00	0.000000e+00	0	0	0.000	0.000
2	Oxygen	0.000	0	0	0.000	Linear	0.000000e+00	0.000000e+00	0.000000e+00	0.000000e+00	0	0	0.000	0.000
3	Nitrogen	0.000	0	0	0.000	Linear	0.000000e+00	0.000000e+00	0.000000e+00	0.000000e+00	0	0	0.000	0.000
4	Methane	0.000	0	0	0.000	Linear	0.000000e+00	0.000000e+00	0.000000e+00	0.000000e+00	0	0	0.000	0.000
5	Carbon Monoxide	0.000	0	0	0.000	Linear	0.000000e+00	0.000000e+00	0.000000e+00	0.000000e+00	0	0	0.000	0.000

[Compound Results(Ch3)]
# of IDs	2
ID#	Name	R.Time	Area	Height	Conc.	Curve	3rd	2nd	1st	Constant	Area Ratio	Height Ratio	Conc. %	Norm Conc.
1	N2O	2.876	19126	5051	0.489	Linear	0.000000e+00	0.000000e+00	3.915173e+004	0.000000e+00	0	0	100.000	100.000
2	SF6	3.393	15026	527	0.000	Linear	0.000000e+00	0.000000e+00	0.000000e+00	0.000000e+00	0	0	0.000	0.000

[Group Results(Ch1)]
# of Groups	0

[Group Results(Ch2)]
# of Groups	0

[Group Results(Ch3)]
# of Groups	0

[Chromatogram (Ch1)]
Interval(msec)	220
# of Points	1091
Start Time(min)	0.002
End Time(min)	3.998
R.Time (min)	Intensity
0.00167	-11
0.00533	-16
0.00900	-21
0.01267	-27
0.01633	-31
0.02000	-26
0.02367	-18
0.02733	-13
0.03100	-9
0.03467	-9
0.03833	-11
0.04200	-13
0.04567	-12
0.04933	-11
0.05300	-10
0.05667	-9
0.06033	-12
0.06400	-18
0.06767	-20
0.07133	-15
0.07500	-6
0.07867	2
0.08233	2
0.08600	-3
0.08967	-7
0.09333	-8
0.09700	-8
0.10067	-10
0.10433	-16
0.10800	-19
0.11167	-17
0.11533	-15
0.11900	-14
0.12267	-14
0.12633	-14
0.13000	-12
0.13367	-9
0.13733	-2
0.14100	5
0.14467	9
0.14833	11
0.15200	9
0.15567	0
0.15933	-9
0.16300	-16
0.16667	-19
0.17033	-22
0.17400	-23
0.17767	-24
0.18133	-24
0.18500	-26
0.18867	-28
0.19233	-25
0.19600	-20
0.19967	-22
0.20333	-27
0.20700	-32
0.21067	-33
0.21433	-30
0.21800	-21
0.22167	-15
0.22533	-11
0.22900	-7
0.23267	-5
0.23633	0
0.24000	6
0.24367	11
0.24733	10
0.25100	2
0.25467	-6
0.25833	-13
0.26200	-16
0.26567	-13
0.26933	-5
0.27300	4
0.27667	10
0.28033	16
0.28400	24
0.28767	32
0.29133	38
0.29500	38
0.29867	37
0.30233	34
0.30600	35
0.30967	43
0.31333	51
0.31700	54
0.32067	56
0.32433	57
0.32800	59
0.33167	61
0.33533	65
0.33900	64
0.34267	59
0.34633	54
0.35000	49
0.35367	46
0.35733	44
0.36100	38
0.36467	31
0.36833	28
0.37200	28
0.37567	29
0.37933	35
0.38300	46
0.38667	55
0.39033	59
0.39400	54
0.39767	45
0.40133	33
0.40500	20
0.40867	10
0.41233	7
0.41600	10
0.41967	13
0.42333	13
0.42700	16
0.43067	17
0.43433	17
0.43800	21
0.44167	21
0.44533	14
0.44900	1
0.45267	-13
0.45633	-27
0.46000	-35
0.46367	-37
0.46733	-36
0.47100	-37
0.47467	-38
0.47833	-39
0.48200	-38
0.48567	-37
0.48933	-32
0.49300	-31
0.49667	-38
0.50033	-48
0.50400	-58
0.50767	-60
0.51133	-56
0.51500	-49
0.51867	-40
0.52233	-34
0.52600	-30
0.52967	-28
0.53333	-23
0.53700	-15
0.54067	-6
0.54433	-2
0.54800	-2
0.55167	-8
0.55533	-20
0.55900	-30
0.56267	-39
0.56633	-48
0.57000	-54
0.57367	-53
0.57733	-45
0.58100	-37
0.58467	-33
0.58833	-35
0.59200	-37
0.59567	-35
0.59933	-31
0.60300	-27
0.60667	-23
0.61033	-18
0.61400	-15
0.61767	-15
0.62133	-16
0.62500	-21
0.62867	-29
0.63233	-37
0.63600	-44
0.63967	-48
0.64333	-52
0.64700	-61
0.65067	-68
0.65433	-74
0.65800	-73
0.66167	-70
0.66533	-68
0.66900	-67
0.67267	-61
0.67633	-54
0.68000	-47
0.68367	-42
0.68733	-40
0.69100	-40
0.69467	-41
0.69833	-42
0.70200	-43
0.70567	-41
0.70933	-37
0.71300	-39
0.71667	-44
0.72033	-48
0.72400	-49
0.72767	-49
0.73133	-50
0.73500	-51
0.73867	-46
0.74233	-37
0.74600	-27
0.74967	-17
0.75333	-10
0.75700	-8
0.76067	-12
0.76433	-21
0.76800	-31
0.77167	-38
0.77533	-40
0.77900	-42
0.78267	-44
0.78633	-46
0.79000	-47
0.79367	-46
0.79733	-46
0.80100	-49
0.80467	-52
0.80833	-58
0.81200	-64
0.81567	-68
0.81933	-69
0.82300	-68
0.82667	-68
0.83033	-67
0.83400	-63
0.83767	-59
0.84133	-55
0.84500	-51
0.84867	-43
0.85233	-37
0.85600	-35
0.85967	-36
0.86333	-39
0.86700	-46
0.87067	-52
0.87433	-54
0.87800	-56
0.88167	-57
0.88533	-57
0.88900	-57
0.89267	-61
0.89633	-66
0.90000	-69
0.90367	-71
0.90733	-71
0.91100	-66
0.91467	-60
0.91833	-52
0.92200	-44
0.92567	-42
0.92933	-49
0.93300	-58
0.93667	-61
0.94033	-62
0.94400	-64
0.94767	-68
0.95133	-72
0.95500	-77
0.95867	-82
0.96233	-80
0.96600	-74
0.96967	-70
0.97333	-66
0.97700	-59
0.98067	-52
0.98433	-48
0.98800	-48
0.99167	-52
0.99533	-56
0.99900	-57
1.00267	-57
1.00633	-55
1.01000	-55
1.01367	-58
1.01733	-61
1.02100	-65
1.02467	-68
1.02833	-66
1.03200	-66
1.03567	-68
1.03933	-67
1.04300	-61
1.04667	-51
1.05033	-43
1.05400	-45
1.05767	-55
1.06133	-64
1.06500	-73
1.06867	-79
1.07233	-80
1.07600	-80
1.07967	-83
1.08333	-88
1.08700	-92
1.09067	-93
1.09433	-93
1.09800	-92
1.10167	-88
1.10533	-87
1.10900	-85
1.11267	-83
1.11633	-80
1.12000	-76
1.12367	-72
1.12733	-66
1.13100	-59
1.13467	-52
1.13833	-49
1.14200	-49
1.14567	-55
1.14933	-62
1.15300	-71
1.15667	-76
1.16033	-75
1.16400	-73
1.16767	-74
1.17133	-74
1.17500	-72
1.17867	-66
1.18233	-58
1.18600	-50
1.18967	-47
1.19333	-51
1.19700	-55
1.20067	-60
1.20433	-60
1.20800	-57
1.21167	-55
1.21533	-57
1.21900	-60
1.22267	-66
1.22633	-74
1.23000	-85
1.23367	-95
1.23733	-102
1.24100	-104
1.24467	-98
1.24833	-90
1.25200	-84
1.25567	-85
1.25933	-87
1.26300	-84
1.26667	-80
1.27033	-80
1.27400	-80
1.27767	-80
1.28133	-81
1.28500	-81
1.28867	-81
1.29233	-84
1.29600	-87
1.29967	-90
1.30333	-91
1.30700	-98
1.31067	-105
1.31433	-110
1.31800	-110
1.32167	-105
1.32533	-99
1.32900	-92
1.33267	-81
1.33633	-68
1.34000	-58
1.34367	-55
1.34733	-55
1.35100	-57
1.35467	-55
1.35833	-57
1.36200	-67
1.36567	-76
1.36933	-81
1.37300	-81
1.37667	-80
1.38033	-80
1.38400	-78
1.38767	-73
1.39133	-68
1.39500	-66
1.39867	-62
1.40233	-57
1.40600	-54
1.40967	-52
1.41333	-50
1.41700	-47
1.42067	-40
1.42433	-33
1.42800	-27
1.43167	-22
1.43533	-21
1.43900	-2
1.44267	91
1.44633	329
1.45000	925
1.45367	2253
1.45733	4343
1.46100	6751
1.46467	8985
1.46833	10755
1.47200	11921
1.47567	12363
1.47933	11980
1.48300	10822
1.48667	9130
1.49033	7254
1.49400	5501
1.49767	4042
1.50133	2916
1.50500	2087
1.50867	1496
1.51233	1087
1.51600	805
1.51967	603
1.52333	458
1.52700	357
1.53067	288
1.53433	241
1.53800	225
1.54167	274
1.54533	444
1.54900	758
1.55267	1151
1.55633	1535
1.56000	1852
1.56367	2070
1.56733	2163
1.57100	2105
1.57467	1893
1.57833	1574
1.58200	1224
1.58567	900
1.58933	633
1.59300	433
1.59667	293
1.60033	197
1.60400	134
1.60767	92
1.61133	66
1.61500	45
1.61867	26
1.62233	8
1.62600	-7
1.62967	-16
1.63333	-18
1.63700	-17
1.64067	-21
1.64433	-27
1.64800	-30
1.65167	-30
1.65533	-23
1.65900	-15
1.66267	-8
1.66633	-6
1.67000	-6
1.67367	-2
1.67733	-3
1.68100	-5
1.68467	-3
1.68833	-3
1.69200	-12
1.69567	-22
1.69933	-32
1.70300	-43
1.70667	-56
1.71033	-63
1.71400	-66
1.71767	-69
1.72133	-71
1.72500	-65
1.72867	-61
1.73233	-56
1.73600	-48
1.73967	-42
1.74333	-37
1.74700	-31
1.75067	-28
1.75433	-27
1.75800	-33
1.76167	-39
1.76533	-45
1.76900	-51
1.77267	-55
1.77633	-56
1.78000	-54
1.78367	-56
1.78733	-60
1.79100	-63
1.79467	-65
1.79833	-65
1.80200	-55
1.80567	-45
1.80933	-42
1.81300	-43
1.81667	-47
1.82033	-50
1.82400	-49
1.82767	-44
1.83133	-41
1.83500	-39
1.83867	-41
1.84233	-47
1.84600	-52
1.84967	-53
1.85333	-50
1.85700	-48
1.86067	-48
1.86433	-52
1.86800	-58
1.87167	-58
1.87533	-53
1.87900	-50
1.88267	-46
1.88633	-43
1.89000	-51
1.89367	-61
1.89733	-69
1.90100	-68
1.90467	-66
1.90833	-68
1.91200	-72
1.91567	-75
1.91933	-78
1.92300	-78
1.92667	-76
1.93033	-68
1.93400	-56
1.93767	-48
1.94133	-46
1.94500	-42
1.94867	-34
1.95233	-2
1.95600	177
1.95967	1135
1.96333	5318
1.96700	19217
1.97067	54676
1.97433	124902
1.97800	234616
1.98167	372673
1.98533	515651
1.98900	638737
1.99267	722824
1.99633	755918
2.00000	734302
2.00367	664863
2.00733	563600
2.01100	450356
2.01467	342464
2.01833	250635
2.02200	178611
2.02567	125330
2.02933	87487
2.03300	61322
2.03667	43526
2.04033	31511
2.04400	23398
2.04767	17886
2.05133	14091
2.05500	11431
2.05867	9528
2.06233	8134
2.06600	7080
2.06967	6263
2.07333	5615
2.07700	5089
2.08067	4656
2.08433	4297
2.08800	3991
2.09167	3721
2.09533	3482
2.09900	3272
2.10267	3087
2.10633	2923
2.11000	2777
2.11367	2643
2.11733	2516
2.12100	2398
2.12467	2288
2.12833	2186
2.13200	2087
2.13567	1995
2.13933	1911
2.14300	1837
2.14667	1773
2.15033	1713
2.15400	1652
2.15767	1591
2.16133	1538
2.16500	1489
2.16867	1444
2.17233	1402
2.17600	1364
2.17967	1327
2.18333	1283
2.18700	1234
2.19067	1188
2.19433	1149
2.19800	1117
2.20167	1091
2.20533	1073
2.20900	1060
2.21267	1043
2.21633	1026
2.22000	1004
2.22367	977
2.22733	943
2.23100	909
2.23467	881
2.23833	857
2.24200	843
2.24567	834
2.24933	827
2.25300	817
2.25667	800
2.26033	776
2.26400	758
2.26767	745
2.27133	727
2.27500	705
2.27867	683
2.28233	667
2.28600	654
2.28967	645
2.29333	637
2.29700	629
2.30067	627
2.30433	629
2.30800	628
2.31167	621
2.31533	608
2.31900	592
2.32267	582
2.32633	574
2.33000	564
2.33367	555
2.33733	549
2.34100	545
2.34467	541
2.34833	532
2.35200	519
2.35567	504
2.35933	493
2.36300	487
2.36667	480
2.37033	471
2.37400	461
2.37767	453
2.38133	447
2.38500	440
2.38867	434
2.39233	430
2.39600	427
2.39967	425
2.40333	426
2.40700	427
2.41067	427
2.41433	420
2.41800	415
2.42167	411
2.42533	406
2.42900	401
2.43267	395
2.43633	393
2.44000	393
2.44367	392
2.44733	390
2.45100	390
2.45467	385
2.45833	372
2.46200	357
2.46567	344
2.46933	335
2.47300	330
2.47667	328
2.48033	330
2.48400	337
2.48767	345
2.49133	352
2.49500	353
2.49867	350
2.50233	348
2.50600	347
2.50967	347
2.51333	347
2.51700	348
2.52067	351
2.52433	355
2.52800	357
2.53167	354
2.53533	347
2.53900	341
2.54267	332
2.54633	325
2.55000	320
2.55367	317
2.55733	316
2.56100	317
2.56467	315
2.56833	310
2.57200	305
2.57567	303
2.57933	302
2.58300	302
2.58667	299
2.59033	295
2.59400	293
2.59767	293
2.60133	295
2.60500	299
2.60867	302
2.61233	303
2.61600	302
2.61967	302
2.62333	301
2.62700	301
2.63067	302
2.63433	303
2.63800	302
2.64167	300
2.64533	300
2.64900	302
2.65267	303
2.65633	302
2.66000	300
2.66367	296
2.66733	292
2.67100	287
2.67467	285
2.67833	282
2.68200	281
2.68567	286
2.68933	288
2.69300	287
2.69667	287
2.70033	288
2.70400	288
2.70767	286
2.71133	282
2.71500	275
2.71867	266
2.72233	262
2.72600	265
2.72967	272
2.73333	276
2.73700	281
2.74067	289
2.74433	298
2.74800	305
2.75167	304
2.75533	297
2.75900	291
2.76267	289
2.76633	289
2.77000	286
2.77367	284
2.77733	284
2.78100	288
2.78467	296
2.78833	303
2.79200	304
2.79567	306
2.79933	305
2.80300	303
2.80667	300
2.81033	298
2.81400	296
2.81767	297
2.82133	301
2.82500	302
2.82867	303
2.83233	300
2.83600	291
2.83967	280
2.84333	275
2.84700	273
2.85067	273
2.85433	272
2.85800	274
2.86167	281
2.86533	286
2.86900	288
2.87267	289
2.87633	289
2.88000	287
2.88367	284
2.88733	283
2.89100	286
2.89467	291
2.89833	290
2.90200	286
2.90567	286
2.90933	289
2.91300	292
2.91667	292
2.92033	292
2.92400	291
2.92767	290
2.93133	291
2.93500	292
2.93867	292
2.94233	295
2.94600	299
2.94967	302
2.95333	307
2.95700	312
2.96067	317
2.96433	316
2.96800	306
2.97167	294
2.97533	288
2.97900	288
2.98267	293
2.98633	300
2.99000	311
2.99367	317
2.99733	318
3.00100	319
3.00467	319
3.00833	318
3.01200	312
3.01567	308
3.01933	304
3.02300	300
3.02667	301
3.03033	301
3.03400	298
3.03767	295
3.04133	292
3.04500	291
3.04867	291
3.05233	293
3.05600	297
3.05967	300
3.06333	304
3.06700	308
3.07067	311
3.07433	315
3.07800	321
3.08167	326
3.08533	327
3.08900	323
3.09267	317
3.09633	305
3.10000	293
3.10367	287
3.10733	284
3.11100	285
3.11467	289
3.11833	295
3.12200	300
3.12567	303
3.12933	308
3.13300	313
3.13667	314
3.14033	305
3.14400	297
3.14767	292
3.15133	288
3.15500	282
3.15867	273
3.16233	267
3.16600	268
3.16967	279
3.17333	290
3.17700	299
3.18067	305
3.18433	311
3.18800	315
3.19167	316
3.19533	314
3.19900	308
3.20267	300
3.20633	297
3.21000	303
3.21367	314
3.21733	325
3.22100	324
3.22467	315
3.22833	306
3.23200	296
3.23567	285
3.23933	273
3.24300	263
3.24667	259
3.25033	260
3.25400	264
3.25767	273
3.26133	277
3.26500	277
3.26867	275
3.27233	279
3.27600	284
3.27967	286
3.28333	289
3.28700	290
3.29067	289
3.29433	284
3.29800	281
3.30167	284
3.30533	288
3.30900	291
3.31267	289
3.31633	289
3.32000	292
3.32367	295
3.32733	299
3.33100	301
3.33467	297
3.33833	291
3.34200	279
3.34567	261
3.34933	246
3.35300	237
3.35667	237
3.36033	243
3.36400	247
3.36767	251
3.37133	254
3.37500	256
3.37867	263
3.38233	272
3.38600	279
3.38967	281
3.39333	283
3.39700	284
3.40067	284
3.40433	282
3.40800	276
3.41167	270
3.41533	268
3.41900	271
3.42267	278
3.42633	284
3.43000	285
3.43367	282
3.43733	279
3.44100	275
3.44467	272
3.44833	274
3.45200	276
3.45567	279
3.45933	278
3.46300	278
3.46667	274
3.47033	273
3.47400	273
3.47767	275
3.48133	276
3.48500	272
3.48867	265
3.49233	259
3.49600	254
3.49967	253
3.50333	256
3.50700	257
3.51067	253
3.51433	249
3.51800	250
3.52167	256
3.52533	260
3.52900	260
3.53267	258
3.53633	255
3.54000	258
3.54367	264
3.54733	269
3.55100	270
3.55467	265
3.55833	258
3.56200	257
3.56567	263
3.56933	260
3.57300	251
3.57667	243
3.58033	240
3.58400	239
3.58767	236
3.59133	232
3.59500	228
3.59867	226
3.60233	222
3.60600	220
3.60967	221
3.61333	223
3.61700	226
3.62067	233
3.62433	239
3.62800	246
3.63167	252
3.63533	254
3.63900	252
3.64267	249
3.64633	248
3.65000	250
3.65367	251
3.65733	250
3.66100	247
3.66467	245
3.66833	243
3.67200	242
3.67567	245
3.67933	252
3.68300	259
3.68667	261
3.69033	257
3.69400	251
3.69767	244
3.70133	232
3.70500	221
3.70867	210
3.71233	204
3.71600	207
3.71967	215
3.72333	225
3.72700	235
3.73067	239
3.73433	242
3.73800	243
3.74167	245
3.74533	246
3.74900	246
3.75267	238
3.75633	224
3.76000	207
3.76367	194
3.76733	190
3.77100	194
3.77467	199
3.77833	207
3.78200	212
3.78567	215
3.78933	218
3.79300	225
3.79667	231
3.80033	234
3.80400	236
3.80767	236
3.81133	233
3.81500	228
3.81867	224
3.82233	217
3.82600	211
3.82967	210
3.83333	213
3.83700	217
3.84067	217
3.84433	217
3.84800	214
3.85167	212
3.85533	208
3.85900	204
3.86267	204
3.86633	210
3.87000	222
3.87367	230
3.87733	229
3.88100	218
3.88467	200
3.88833	181
3.89200	160
3.89567	145
3.89933	141
3.90300	141
3.90667	145
3.91033	148
3.91400	156
3.91767	164
3.92133	170
3.92500	177
3.92867	184
3.93233	198
3.93600	215
3.93967	228
3.94333	231
3.94700	223
3.95067	212
3.95433	201
3.95800	191
3.96167	183
3.96533	180
3.96900	180
3.97267	179
3.97633	179
3.98000	181
3.98367	182
3.98733	182
3.99100	181
3.99467	181
3.99833	181

[Chromatogram (Ch2)]
Interval(msec)	220
# of Points	1091
Start Time(min)	0.002
End Time(min)	3.998
R.Time (min)	Intensity
0.00167	-1
0.00533	-1
0.00900	-1
0.01267	-1
0.01633	-1
0.02000	-2
0.02367	-2
0.02733	-2
0.03100	-2
0.03467	-2
0.03833	-2
0.04200	-2
0.04567	-2
0.04933	-1
0.05300	-1
0.05667	-0
0.06033	0
0.06400	0
0.06767	1
0.07133	1
0.07500	1
0.07867	1
0.08233	1
0.08600	1
0.08967	1
0.09333	1
0.09700	1
0.10067	1
0.10433	2
0.10800	2
0.11167	2
0.11533	3
0.11900	3
0.12267	4
0.12633	4
0.13000	4
0.13367	5
0.13733	5
0.14100	6
0.14467	6
0.14833	6
0.15200	6
0.15567	6
0.15933	6
0.16300	6
0.16667	5
0.17033	5
0.17400	5
0.17767	5
0.18133	5
0.18500	5
0.18867	4
0.19233	4
0.19600	4
0.19967	4
0.20333	4
0.20700	3
0.21067	3
0.21433	2
0.21800	2
0.22167	1
0.22533	1
0.22900	1
0.23267	1
0.23633	1
0.24000	1
0.24367	1
0.24733	0
0.25100	-0
0.25467	-0
0.25833	-1
0.26200	-1
0.26567	-1
0.26933	-1
0.27300	-1
0.27667	-1
0.28033	-1
0.28400	-1
0.28767	-0
0.29133	0
0.29500	0
0.29867	1
0.30233	1
0.30600	1
0.30967	1
0.31333	1
0.31700	1
0.32067	2
0.32433	2
0.32800	3
0.33167	3
0.33533	3
0.33900	4
0.34267	4
0.34633	4
0.35000	4
0.35367	4
0.35733	4
0.36100	3
0.36467	3
0.36833	3
0.37200	2
0.37567	2
0.37933	2
0.38300	1
0.38667	1
0.39033	1
0.39400	1
0.39767	1
0.40133	1
0.40500	1
0.40867	1
0.41233	1
0.41600	1
0.41967	1
0.42333	1
0.42700	1
0.43067	1
0.43433	1
0.43800	1
0.44167	1
0.44533	1
0.44900	1
0.45267	1
0.45633	1
0.46000	1
0.46367	1
0.46733	1
0.47100	1
0.47467	1
0.47833	2
0.48200	2
0.48567	3
0.48933	3
0.49300	3
0.49667	3
0.50033	3
0.50400	3
0.50767	3
0.51133	2
0.51500	2
0.51867	2
0.52233	2
0.52600	2
0.52967	2
0.53333	1
0.53700	1
0.54067	1
0.54433	1
0.54800	1
0.55167	1
0.55533	1
0.55900	1
0.56267	1
0.56633	1
0.57000	0
0.57367	-0
0.57733	-1
0.58100	-1
0.58467	-2
0.58833	-3
0.59200	-3
0.59567	-3
0.59933	-4
0.60300	-4
0.60667	-4
0.61033	-4
0.61400	-4
0.61767	-4
0.62133	-4
0.62500	-4
0.62867	-3
0.63233	-2
0.63600	-2
0.63967	-1
0.64333	-0
0.64700	0
0.65067	1
0.65433	1
0.65800	2
0.66167	2
0.66533	2
0.66900	2
0.67267	3
0.67633	3
0.68000	2
0.68367	2
0.68733	2
0.69100	1
0.69467	1
0.69833	1
0.70200	0
0.70567	0
0.70933	-0
0.71300	-1
0.71667	-1
0.72033	-1
0.72400	-1
0.72767	-1
0.73133	-1
0.73500	-1
0.73867	-1
0.74233	-0
0.74600	-0
0.74967	-0
0.75333	-0
0.75700	-1
0.76067	-1
0.76433	-1
0.76800	-1
0.77167	-1
0.77533	-1
0.77900	-0
0.78267	0
0.78633	1
0.79000	1
0.79367	2
0.79733	2
0.80100	2
0.80467	2
0.80833	3
0.81200	3
0.81567	2
0.81933	2
0.82300	2
0.82667	2
0.83033	1
0.83400	1
0.83767	1
0.84133	1
0.84500	1
0.84867	1
0.85233	1
0.85600	1
0.85967	1
0.86333	1
0.86700	2
0.87067	2
0.87433	2
0.87800	2
0.88167	2
0.88533	2
0.88900	2
0.89267	2
0.89633	2
0.90000	1
0.90367	1
0.90733	1
0.91100	0
0.91467	0
0.91833	-0
0.92200	-0
0.92567	-0
0.92933	0
0.93300	0
0.93667	0
0.94033	0
0.94400	0
0.94767	0
0.95133	0
0.95500	0
0.95867	0
0.96233	0
0.96600	1
0.96967	1
0.97333	1
0.97700	1
0.98067	1
0.98433	2
0.98800	2
0.99167	1
0.99533	1
0.99900	1
1.00267	1
1.00633	1
1.01000	1
1.01367	0
1.01733	0
1.02100	0
1.02467	0
1.02833	0
1.03200	0
1.03567	0
1.03933	0
1.04300	0
1.04667	0
1.05033	1
1.05400	1
1.05767	1
1.06133	1
1.06500	1
1.06867	2
1.07233	2
1.07600	2
1.07967	1
1.08333	1
1.08700	1
1.09067	0
1.09433	-0
1.09800	-1
1.10167	-1
1.10533	-1
1.10900	-2
1.11267	-2
1.11633	-2
1.12000	-3
1.12367	-3
1.12733	-3
1.13100	-2
1.13467	-2
1.13833	-2
1.14200	-2
1.14567	-2
1.14933	-1
1.15300	-1
1.15667	-1
1.16033	-1
1.16400	-1
1.16767	-1
1.17133	-1
1.17500	-1
1.17867	-2
1.18233	-2
1.18600	-2
1.18967	-2
1.19333	-2
1.19700	-2
1.20067	-2
1.20433	-2
1.20800	-1
1.21167	-1
1.21533	-1
1.21900	-0
1.22267	-0
1.22633	-0
1.23000	-0
1.23367	-0
1.23733	-0
1.24100	-0
1.24467	0
1.24833	0
1.25200	0
1.25567	0
1.25933	-0
1.26300	-0
1.26667	-0
1.27033	-0
1.27400	-0
1.27767	0
1.28133	0
1.28500	0
1.28867	-0
1.29233	-1
1.29600	-1
1.29967	-1
1.30333	-1
1.30700	-2
1.31067	-2
1.31433	-2
1.31800	-2
1.32167	-2
1.32533	-2
1.32900	-2
1.33267	-1
1.33633	-0
1.34000	-0
1.34367	0
1.34733	0
1.35100	1
1.35467	1
1.35833	1
1.36200	1
1.36567	1
1.36933	1
1.37300	1
1.37667	1
1.38033	1
1.38400	1
1.38767	1
1.39133	1
1.39500	1
1.39867	2
1.40233	2
1.40600	2
1.40967	3
1.41333	3
1.41700	3
1.42067	3
1.42433	3
1.42800	3
1.43167	2
1.43533	2
1.43900	2
1.44267	1
1.44633	1
1.45000	1
1.45367	0
1.45733	0
1.46100	-0
1.46467	-0
1.46833	-0
1.47200	-0
1.47567	0
1.47933	0
1.48300	0
1.48667	0
1.49033	0
1.49400	0
1.49767	-0
1.50133	-1
1.50500	-1
1.50867	-1
1.51233	-0
1.51600	-0
1.51967	-0
1.52333	0
1.52700	0
1.53067	0
1.53433	-0
1.53800	-0
1.54167	-1
1.54533	-1
1.54900	-1
1.55267	-1
1.55633	-2
1.56000	-2
1.56367	-2
1.56733	-2
1.57100	-2
1.57467	-3
1.57833	-3
1.58200	-3
1.58567	-3
1.58933	-3
1.59300	-3
1.59667	-4
1.60033	-5
1.60400	-6
1.60767	-7
1.61133	-9
1.61500	-10
1.61867	-12
1.62233	-15
1.62600	-18
1.62967	-20
1.63333	-24
1.63700	-27
1.64067	-30
1.64433	-33
1.64800	-37
1.65167	-40
1.65533	-44
1.65900	-47
1.66267	-51
1.66633	-55
1.67000	-59
1.67367	-63
1.67733	-68
1.68100	-72
1.68467	-77
1.68833	-82
1.69200	-86
1.69567	-90
1.69933	-93
1.70300	-96
1.70667	-99
1.71033	-101
1.71400	-102
1.71767	-103
1.72133	-104
1.72500	-105
1.72867	-105
1.73233	-105
1.73600	-105
1.73967	-104
1.74333	-104
1.74700	-103
1.75067	-103
1.75433	-102
1.75800	-102
1.76167	-102
1.76533	-103
1.76900	-104
1.77267	-105
1.77633	-106
1.78000	-108
1.78367	-109
1.78733	-110
1.79100	-111
1.79467	-111
1.79833	-112
1.80200	-112
1.80567	-111
1.80933	-111
1.81300	-111
1.81667	-111
1.82033	-111
1.82400	-111
1.82767	-111
1.83133	-112
1.83500	-112
1.83867	-112
1.84233	-113
1.84600	-112
1.84967	-112
1.85333	-112
1.85700	-111
1.86067	-110
1.86433	-109
1.86800	-109
1.87167	-109
1.87533	-109
1.87900	-109
1.88267	-110
1.88633	-111
1.89000	-111
1.89367	-112
1.89733	-113
1.90100	-113
1.90467	-113
1.90833	-112
1.91200	-111
1.91567	-111
1.91933	-110
1.92300	-109
1.92667	-109
1.93033	-108
1.93400	-108
1.93767	-107
1.94133	-106
1.94500	-106
1.94867	-106
1.95233	-106
1.95600	-106
1.95967	-106
1.96333	-107
1.96700	-107
1.97067	-107
1.97433	-108
1.97800	-108
1.98167	-107
1.98533	-107
1.98900	-107
1.99267	-106
1.99633	-106
2.00000	-105
2.00367	-105
2.00733	-104
2.01100	-104
2.01467	-103
2.01833	-102
2.02200	-102
2.02567	-102
2.02933	-102
2.03300	-101
2.03667	-101
2.04033	-101
2.04400	-101
2.04767	-101
2.05133	-101
2.05500	-101
2.05867	-101
2.06233	-100
2.06600	-100
2.06967	-99
2.07333	-98
2.07700	-97
2.08067	-96
2.08433	-96
2.08800	-96
2.09167	-96
2.09533	-96
2.09900	-96
2.10267	-96
2.10633	-95
2.11000	-95
2.11367	-95
2.11733	-95
2.12100	-95
2.12467	-95
2.12833	-94
2.13200	-93
2.13567	-93
2.13933	-92
2.14300	-92
2.14667	-92
2.15033	-92
2.15400	-92
2.15767	-93
2.16133	-93
2.16500	-93
2.16867	-93
2.17233	-93
2.17600	-93
2.17967	-93
2.18333	-93
2.18700	-93
2.19067	-92
2.19433	-92
2.19800	-91
2.20167	-91
2.20533	-90
2.20900	-90
2.21267	-89
2.21633	-89
2.22000	-88
2.22367	-87
2.22733	-86
2.23100	-85
2.23467	-85
2.23833	-85
2.24200	-85
2.24567	-85
2.24933	-84
2.25300	-84
2.25667	-83
2.26033	-83
2.26400	-82
2.26767	-82
2.27133	-83
2.27500	-83
2.27867	-83
2.28233	-83
2.28600	-83
2.28967	-82
2.29333	-81
2.29700	-80
2.30067	-79
2.30433	-79
2.30800	-80
2.31167	-80
2.31533	-81
2.31900	-81
2.32267	-81
2.32633	-81
2.33000	-81
2.33367	-81
2.33733	-80
2.34100	-79
2.34467	-78
2.34833	-77
2.35200	-76
2.35567	-74
2.35933	-73
2.36300	-71
2.36667	-69
2.37033	-67
2.37400	-65
2.37767	-62
2.38133	-58
2.38500	-54
2.38867	-50
2.39233	-45
2.39600	-41
2.39967	-36
2.40333	-32
2.40700	-28
2.41067	-24
2.41433	-21
2.41800	-18
2.42167	-16
2.42533	-13
2.42900	-12
2.43267	-10
2.43633	-9
2.44000	-9
2.44367	-8
2.44733	-7
2.45100	-6
2.45467	-5
2.45833	-4
2.46200	-3
2.46567	-2
2.46933	-0
2.47300	1
2.47667	2
2.48033	3
2.48400	4
2.48767	4
2.49133	5
2.49500	5
2.49867	6
2.50233	7
2.50600	7
2.50967	8
2.51333	9
2.51700	10
2.52067	10
2.52433	11
2.52800	11
2.53167	12
2.53533	12
2.53900	13
2.54267	14
2.54633	14
2.55000	15
2.55367	15
2.55733	16
2.56100	17
2.56467	17
2.56833	17
2.57200	17
2.57567	18
2.57933	18
2.58300	18
2.58667	18
2.59033	18
2.59400	18
2.59767	18
2.60133	18
2.60500	18
2.60867	18
2.61233	18
2.61600	18
2.61967	18
2.62333	18
2.62700	19
2.63067	19
2.63433	19
2.63800	20
2.64167	20
2.64533	20
2.64900	20
2.65267	21
2.65633	21
2.66000	21
2.66367	21
2.66733	21
2.67100	21
2.67467	21
2.67833	21
2.68200	21
2.68567	22
2.68933	22
2.69300	22
2.69667	22
2.70033	22
2.70400	23
2.70767	23
2.71133	23
2.71500	23
2.71867	23
2.72233	23
2.72600	23
2.72967	23
2.73333	23
2.73700	23
2.74067	24
2.74433	25
2.74800	25
2.75167	26
2.75533	27
2.75900	27
2.76267	27
2.76633	27
2.77000	26
2.77367	25
2.77733	25
2.78100	24
2.78467	24
2.78833	24
2.79200	24
2.79567	24
2.79933	24
2.80300	24
2.80667	25
2.81033	25
2.81400	26
2.81767	26
2.82133	27
2.82500	27
2.82867	27
2.83233	27
2.83600	27
2.83967	26
2.84333	24
2.84700	20
2.85067	14
2.85433	6
2.85800	-7
2.86167	-23
2.86533	-43
2.86900	-68
2.87267	-97
2.87633	-130
2.88000	-167
2.88367	-208
2.88733	-253
2.89100	-301
2.89467	-351
2.89833	-404
2.90200	-457
2.90567	-512
2.90933	-567
2.91300	-622
2.91667	-678
2.92033	-732
2.92400	-785
2.92767	-836
2.93133	-888
2.93500	-944
2.93867	-1003
2.94233	-1055
2.94600	-1091
2.94967	-1102
2.95333	-1086
2.95700	-1047
2.96067	-990
2.96433	-919
2.96800	-842
2.97167	-761
2.97533	-681
2.97900	-603
2.98267	-531
2.98633	-464
2.99000	-403
2.99367	-348
2.99733	-299
3.00100	-256
3.00467	-218
3.00833	-185
3.01200	-157
3.01567	-132
3.01933	-111
3.02300	-92
3.02667	-76
3.03033	-63
3.03400	-52
3.03767	-42
3.04133	-33
3.04500	-26
3.04867	-20
3.05233	-15
3.05600	-10
3.05967	-6
3.06333	-3
3.06700	0
3.07067	3
3.07433	5
3.07800	7
3.08167	8
3.08533	10
3.08900	12
3.09267	13
3.09633	14
3.10000	15
3.10367	15
3.10733	15
3.11100	16
3.11467	16
3.11833	16
3.12200	16
3.12567	16
3.12933	17
3.13300	17
3.13667	17
3.14033	17
3.14400	18
3.14767	18
3.15133	18
3.15500	19
3.15867	19
3.16233	19
3.16600	19
3.16967	19
3.17333	19
3.17700	19
3.18067	19
3.18433	19
3.18800	20
3.19167	20
3.19533	20
3.19900	20
3.20267	21
3.20633	21
3.21000	21
3.21367	22
3.21733	22
3.22100	22
3.22467	22
3.22833	23
3.23200	23
3.23567	23
3.23933	24
3.24300	24
3.24667	24
3.25033	24
3.25400	25
3.25767	25
3.26133	25
3.26500	25
3.26867	26
3.27233	26
3.27600	26
3.27967	26
3.28333	26
3.28700	26
3.29067	26
3.29433	26
3.29800	26
3.30167	26
3.30533	26
3.30900	26
3.31267	26
3.31633	26
3.32000	26
3.32367	26
3.32733	26
3.33100	26
3.33467	26
3.33833	26
3.34200	26
3.34567	26
3.34933	26
3.35300	26
3.35667	26
3.36033	26
3.36400	26
3.36767	26
3.37133	26
3.37500	25
3.37867	25
3.38233	25
3.38600	25
3.38967	25
3.39333	26
3.39700	26
3.40067	26
3.40433	26
3.40800	27
3.41167	27
3.41533	27
3.41900	28
3.42267	28
3.42633	28
3.43000	28
3.43367	29
3.43733	29
3.44100	29
3.44467	29
3.44833	29
3.45200	29
3.45567	29
3.45933	29
3.46300	29
3.46667	30
3.47033	30
3.47400	31
3.47767	31
3.48133	31
3.48500	32
3.48867	32
3.49233	32
3.49600	32
3.49967	32
3.50333	32
3.50700	32
3.51067	32
3.51433	32
3.51800	32
3.52167	32
3.52533	32
3.52900	32
3.53267	32
3.53633	32
3.54000	32
3.54367	32
3.54733	31
3.55100	31
3.55467	31
3.55833	31
3.56200	30
3.56567	30
3.56933	30
3.57300	30
3.57667	29
3.58033	29
3.58400	29
3.58767	29
3.59133	29
3.59500	28
3.59867	28
3.60233	28
3.60600	28
3.60967	28
3.61333	28
3.61700	28
3.62067	28
3.62433	28
3.62800	28
3.63167	28
3.63533	28
3.63900	28
3.64267	28
3.64633	27
3.65000	27
3.65367	27
3.65733	27
3.66100	27
3.66467	27
3.66833	27
3.67200	27
3.67567	27
3.67933	27
3.68300	27
3.68667	27
3.69033	27
3.69400	27
3.69767	27
3.70133	27
3.70500	27
3.70867	27
3.71233	27
3.71600	27
3.71967	27
3.72333	27
3.72700	27
3.73067	27
3.73433	27
3.73800	27
3.74167	27
3.74533	28
3.74900	28
3.75267	28
3.75633	28
3.76000	28
3.76367	28
3.76733	28
3.77100	28
3.77467	29
3.77833	29
3.78200	29
3.78567	29
3.78933	29
3.79300	30
3.79667	30
3.80033	30
3.80400	29
3.80767	29
3.81133	29
3.81500	29
3.81867	28
3.82233	28
3.82600	27
3.82967	27
3.83333	27
3.83700	27
3.84067	27
3.84433	27
3.84800	27
3.85167	27
3.85533	27
3.85900	27
3.86267	27
3.86633	27
3.87000	27
3.87367	27
3.87733	27
3.88100	28
3.88467	28
3.88833	28
3.89200	28
3.89567	28
3.89933	28
3.90300	28
3.90667	29
3.91033	29
3.91400	29
3.91767	29
3.92133	29
3.92500	29
3.92867	29
3.93233	29
3.93600	29
3.93967	29
3.94333	29
3.94700	29
3.95067	29
3.95433	28
3.95800	28
3.96167	28
3.96533	28
3.96900	28
3.97267	28
3.97633	29
3.98000	29
3.98367	29
3.98733	29
3.99100	29
3.99467	30
3.99833	30

[Chromatogram (Ch3)]
Interval(msec)	220
# of Points	1091
Start Time(min)	0.002
End Time(min)	3.998
R.Time (min)	Intensity
0.00167	0
0.00533	0
0.00900	2
0.01267	2
0.01633	2
0.02000	3
0.02367	3
0.02733	2
0.03100	4
0.03467	4
0.03833	3
0.04200	2
0.04567	1
0.04933	1
0.05300	1
0.05667	4
0.06033	5
0.06400	5
0.06767	3
0.07133	1
0.07500	1
0.07867	0
0.08233	-2
0.08600	-1
0.08967	-2
0.09333	-2
0.09700	-0
0.10067	0
0.10433	-2
0.10800	-4
0.11167	-3
0.11533	-2
0.11900	0
0.12267	2
0.12633	2
0.13000	4
0.13367	5
0.13733	3
0.14100	3
0.14467	4
0.14833	4
0.15200	3
0.15567	0
0.15933	-1
0.16300	1
0.16667	3
0.17033	4
0.17400	2
0.17767	-0
0.18133	-2
0.18500	-1
0.18867	-0
0.19233	-1
0.19600	-2
0.19967	-2
0.20333	-2
0.20700	-2
0.21067	-3
0.21433	-3
0.21800	-2
0.22167	-2
0.22533	-3
0.22900	-2
0.23267	0
0.23633	0
0.24000	-0
0.24367	-1
0.24733	-2
0.25100	-4
0.25467	-5
0.25833	-6
0.26200	-6
0.26567	-4
0.26933	-1
0.27300	-0
0.27667	-1
0.28033	-1
0.28400	-0
0.28767	1
0.29133	2
0.29500	3
0.29867	1
0.30233	-1
0.30600	0
0.30967	2
0.31333	2
0.31700	-0
0.32067	-4
0.32433	-3
0.32800	-2
0.33167	-2
0.33533	-1
0.33900	-1
0.34267	-2
0.34633	-3
0.35000	-4
0.35367	-3
0.35733	-1
0.36100	1
0.36467	3
0.36833	4
0.37200	2
0.37567	1
0.37933	0
0.38300	0
0.38667	-1
0.39033	-0
0.39400	1
0.39767	-0
0.40133	-1
0.40500	-1
0.40867	-2
0.41233	1
0.41600	2
0.41967	3
0.42333	4
0.42700	6
0.43067	7
0.43433	7
0.43800	7
0.44167	7
0.44533	6
0.44900	5
0.45267	4
0.45633	4
0.46000	5
0.46367	6
0.46733	6
0.47100	8
0.47467	8
0.47833	4
0.48200	2
0.48567	2
0.48933	5
0.49300	5
0.49667	8
0.50033	10
0.50400	9
0.50767	8
0.51133	5
0.51500	1
0.51867	1
0.52233	2
0.52600	2
0.52967	3
0.53333	3
0.53700	3
0.54067	2
0.54433	0
0.54800	-2
0.55167	-1
0.55533	-0
0.55900	1
0.56267	4
0.56633	5
0.57000	5
0.57367	4
0.57733	4
0.58100	4
0.58467	4
0.58833	5
0.59200	4
0.59567	3
0.59933	1
0.60300	0
0.60667	1
0.61033	1
0.61400	2
0.61767	3
0.62133	5
0.62500	4
0.62867	2
0.63233	0
0.63600	-1
0.63967	-0
0.64333	-0
0.64700	-0
0.65067	-1
0.65433	-0
0.65800	0
0.66167	0
0.66533	-1
0.66900	-0
0.67267	2
0.67633	3
0.68000	4
0.68367	4
0.68733	6
0.69100	6
0.69467	6
0.69833	5
0.70200	4
0.70567	3
0.70933	5
0.71300	8
0.71667	8
0.72033	7
0.72400	9
0.72767	9
0.73133	10
0.73500	8
0.73867	8
0.74233	8
0.74600	8
0.74967	8
0.75333	10
0.75700	13
0.76067	14
0.76433	11
0.76800	8
0.77167	8
0.77533	8
0.77900	8
0.78267	9
0.78633	7
0.79000	2
0.79367	-0
0.79733	0
0.80100	2
0.80467	4
0.80833	6
0.81200	6
0.81567	3
0.81933	2
0.82300	3
0.82667	3
0.83033	1
0.83400	2
0.83767	3
0.84133	5
0.84500	6
0.84867	7
0.85233	7
0.85600	7
0.85967	8
0.86333	8
0.86700	8
0.87067	5
0.87433	4
0.87800	5
0.88167	5
0.88533	5
0.88900	5
0.89267	5
0.89633	5
0.90000	5
0.90367	5
0.90733	7
0.91100	7
0.91467	4
0.91833	2
0.92200	2
0.92567	6
0.92933	8
0.93300	7
0.93667	4
0.94033	3
0.94400	5
0.94767	6
0.95133	6
0.95500	6
0.95867	4
0.96233	4
0.96600	2
0.96967	1
0.97333	1
0.97700	-0
0.98067	0
0.98433	1
0.98800	0
0.99167	1
0.99533	2
0.99900	4
1.00267	6
1.00633	5
1.01000	7
1.01367	8
1.01733	10
1.02100	11
1.02467	9
1.02833	8
1.03200	10
1.03567	11
1.03933	10
1.04300	9
1.04667	8
1.05033	9
1.05400	10
1.05767	9
1.06133	9
1.06500	8
1.06867	5
1.07233	5
1.07600	7
1.07967	6
1.08333	6
1.08700	6
1.09067	7
1.09433	6
1.09800	7
1.10167	9
1.10533	10
1.10900	10
1.11267	8
1.11633	5
1.12000	4
1.12367	6
1.12733	7
1.13100	7
1.13467	7
1.13833	6
1.14200	5
1.14567	5
1.14933	7
1.15300	8
1.15667	7
1.16033	7
1.16400	7
1.16767	9
1.17133	11
1.17500	13
1.17867	13
1.18233	12
1.18600	10
1.18967	9
1.19333	8
1.19700	7
1.20067	7
1.20433	8
1.20800	10
1.21167	9
1.21533	9
1.21900	10
1.22267	11
1.22633	11
1.23000	10
1.23367	8
1.23733	8
1.24100	9
1.24467	10
1.24833	9
1.25200	11
1.25567	12
1.25933	15
1.26300	15
1.26667	13
1.27033	12
1.27400	12
1.27767	14
1.28133	14
1.28500	14
1.28867	15
1.29233	14
1.29600	12
1.29967	11
1.30333	7
1.30700	7
1.31067	9
1.31433	9
1.31800	10
1.32167	10
1.32533	11
1.32900	10
1.33267	10
1.33633	10
1.34000	9
1.34367	6
1.34733	4
1.35100	4
1.35467	5
1.35833	6
1.36200	9
1.36567	12
1.36933	12
1.37300	11
1.37667	11
1.38033	11
1.38400	10
1.38767	10
1.39133	8
1.39500	10
1.39867	13
1.40233	13
1.40600	12
1.40967	11
1.41333	12
1.41700	11
1.42067	10
1.42433	8
1.42800	5
1.43167	4
1.43533	4
1.43900	6
1.44267	7
1.44633	6
1.45000	7
1.45367	7
1.45733	10
1.46100	12
1.46467	12
1.46833	11
1.47200	11
1.47567	11
1.47933	11
1.48300	11
1.48667	12
1.49033	12
1.49400	13
1.49767	13
1.50133	12
1.50500	11
1.50867	9
1.51233	9
1.51600	9
1.51967	8
1.52333	6
1.52700	7
1.53067	7
1.53433	7
1.53800	8
1.54167	8
1.54533	8
1.54900	10
1.55267	11
1.55633	11
1.56000	11
1.56367	11
1.56733	10
1.57100	7
1.57467	6
1.57833	6
1.58200	6
1.58567	5
1.58933	6
1.59300	7
1.59667	9
1.60033	11
1.60400	11
1.60767	8
1.61133	7
1.61500	9
1.61867	12
1.62233	12
1.62600	11
1.62967	12
1.63333	12
1.63700	14
1.64067	15
1.64433	14
1.64800	13
1.65167	13
1.65533	16
1.65900	18
1.66267	18
1.66633	19
1.67000	19
1.67367	18
1.67733	18
1.68100	19
1.68467	21
1.68833	21
1.69200	21
1.69567	21
1.69933	20
1.70300	20
1.70667	22
1.71033	23
1.71400	24
1.71767	26
1.72133	27
1.72500	27
1.72867	27
1.73233	26
1.73600	24
1.73967	23
1.74333	25
1.74700	25
1.75067	25
1.75433	25
1.75800	27
1.76167	27
1.76533	27
1.76900	28
1.77267	29
1.77633	30
1.78000	30
1.78367	30
1.78733	30
1.79100	30
1.79467	30
1.79833	29
1.80200	29
1.80567	29
1.80933	30
1.81300	30
1.81667	30
1.82033	28
1.82400	27
1.82767	28
1.83133	31
1.83500	35
1.83867	37
1.84233	40
1.84600	42
1.84967	42
1.85333	43
1.85700	42
1.86067	42
1.86433	42
1.86800	42
1.87167	41
1.87533	42
1.87900	43
1.88267	45
1.88633	47
1.89000	46
1.89367	44
1.89733	43
1.90100	41
1.90467	38
1.90833	37
1.91200	38
1.91567	39
1.91933	40
1.92300	42
1.92667	42
1.93033	43
1.93400	43
1.93767	45
1.94133	48
1.94500	50
1.94867	52
1.95233	54
1.95600	56
1.95967	58
1.96333	59
1.96700	60
1.97067	60
1.97433	60
1.97800	60
1.98167	60
1.98533	58
1.98900	57
1.99267	58
1.99633	61
2.00000	63
2.00367	65
2.00733	65
2.01100	64
2.01467	66
2.01833	68
2.02200	69
2.02567	69
2.02933	69
2.03300	70
2.03667	70
2.04033	70
2.04400	72
2.04767	74
2.05133	74
2.05500	74
2.05867	76
2.06233	79
2.06600	81
2.06967	83
2.07333	84
2.07700	84
2.08067	84
2.08433	83
2.08800	83
2.09167	83
2.09533	83
2.09900	82
2.10267	84
2.10633	87
2.11000	89
2.11367	90
2.11733	90
2.12100	89
2.12467	92
2.12833	95
2.13200	99
2.13567	102
2.13933	103
2.14300	104
2.14667	104
2.15033	104
2.15400	104
2.15767	105
2.16133	108
2.16500	111
2.16867	113
2.17233	117
2.17600	118
2.17967	118
2.18333	115
2.18700	115
2.19067	117
2.19433	120
2.19800	122
2.20167	123
2.20533	123
2.20900	125
2.21267	128
2.21633	131
2.22000	134
2.22367	135
2.22733	137
2.23100	139
2.23467	140
2.23833	140
2.24200	143
2.24567	145
2.24933	146
2.25300	147
2.25667	149
2.26033	149
2.26400	151
2.26767	155
2.27133	157
2.27500	157
2.27867	156
2.28233	158
2.28600	163
2.28967	167
2.29333	168
2.29700	168
2.30067	169
2.30433	171
2.30800	172
2.31167	172
2.31533	173
2.31900	174
2.32267	176
2.32633	177
2.33000	181
2.33367	185
2.33733	189
2.34100	189
2.34467	189
2.34833	189
2.35200	190
2.35567	191
2.35933	193
2.36300	196
2.36667	199
2.37033	202
2.37400	204
2.37767	207
2.38133	207
2.38500	208
2.38867	209
2.39233	209
2.39600	213
2.39967	219
2.40333	226
2.40700	231
2.41067	235
2.41433	237
2.41800	242
2.42167	246
2.42533	247
2.42900	247
2.43267	248
2.43633	251
2.44000	258
2.44367	314
2.44733	453
2.45100	606
2.45467	733
2.45833	809
2.46200	819
2.46567	790
2.46933	755
2.47300	727
2.47667	710
2.48033	697
2.48400	679
2.48767	648
2.49133	610
2.49500	569
2.49867	531
2.50233	502
2.50600	484
2.50967	476
2.51333	476
2.51700	482
2.52067	494
2.52433	511
2.52800	529
2.53167	543
2.53533	549
2.53900	543
2.54267	526
2.54633	502
2.55000	474
2.55367	447
2.55733	424
2.56100	405
2.56467	390
2.56833	379
2.57200	370
2.57567	362
2.57933	359
2.58300	357
2.58667	357
2.59033	358
2.59400	359
2.59767	357
2.60133	352
2.60500	343
2.60867	334
2.61233	324
2.61600	314
2.61967	303
2.62333	296
2.62700	292
2.63067	288
2.63433	287
2.63800	289
2.64167	294
2.64533	300
2.64900	306
2.65267	309
2.65633	307
2.66000	306
2.66367	303
2.66733	297
2.67100	291
2.67467	283
2.67833	275
2.68200	267
2.68567	259
2.68933	251
2.69300	242
2.69667	236
2.70033	233
2.70400	231
2.70767	227
2.71133	225
2.71500	223
2.71867	220
2.72233	217
2.72600	215
2.72967	216
2.73333	218
2.73700	222
2.74067	224
2.74433	226
2.74800	228
2.75167	230
2.75533	232
2.75900	230
2.76267	229
2.76633	230
2.77000	231
2.77367	230
2.77733	230
2.78100	231
2.78467	232
2.78833	234
2.79200	234
2.79567	234
2.79933	233
2.80300	234
2.80667	236
2.81033	237
2.81400	241
2.81767	246
2.82133	256
2.82500	280
2.82867	331
2.83233	429
2.83600	598
2.83967	862
2.84333	1233
2.84700	1713
2.85067	2281
2.85433	2903
2.85800	3533
2.86167	4121
2.86533	4620
2.86900	4988
2.87267	5208
2.87633	5276
2.88000	5206
2.88367	5024
2.88733	4756
2.89100	4427
2.89467	4070
2.89833	3705
2.90200	3346
2.90567	3004
2.90933	2687
2.91300	2397
2.91667	2135
2.92033	1900
2.92400	1692
2.92767	1507
2.93133	1344
2.93500	1202
2.93867	1077
2.94233	971
2.94600	879
2.94967	798
2.95333	724
2.95700	659
2.96067	604
2.96433	557
2.96800	518
2.97167	483
2.97533	452
2.97900	423
2.98267	398
2.98633	375
2.99000	353
2.99367	335
2.99733	319
3.00100	305
3.00467	295
3.00833	285
3.01200	275
3.01567	267
3.01933	261
3.02300	255
3.02667	249
3.03033	242
3.03400	237
3.03767	232
3.04133	226
3.04500	223
3.04867	223
3.05233	221
3.05600	218
3.05967	215
3.06333	213
3.06700	213
3.07067	211
3.07433	208
3.07800	204
3.08167	201
3.08533	199
3.08900	198
3.09267	199
3.09633	199
3.10000	198
3.10367	197
3.10733	196
3.11100	196
3.11467	197
3.11833	197
3.12200	197
3.12567	196
3.12933	195
3.13300	195
3.13667	195
3.14033	195
3.14400	193
3.14767	191
3.15133	187
3.15500	177
3.15867	150
3.16233	131
3.16600	132
3.16967	152
3.17333	182
3.17700	220
3.18067	263
3.18433	305
3.18800	345
3.19167	382
3.19533	414
3.19900	444
3.20267	473
3.20633	499
3.21000	521
3.21367	542
3.21733	558
3.22100	572
3.22467	586
3.22833	597
3.23200	606
3.23567	614
3.23933	622
3.24300	628
3.24667	635
3.25033	641
3.25400	648
3.25767	655
3.26133	660
3.26500	662
3.26867	661
3.27233	662
3.27600	665
3.27967	668
3.28333	673
3.28700	677
3.29067	683
3.29433	687
3.29800	692
3.30167	698
3.30533	700
3.30900	703
3.31267	708
3.31633	713
3.32000	718
3.32367	722
3.32733	725
3.33100	728
3.33467	733
3.33833	739
3.34200	745
3.34567	751
3.34933	756
3.35300	760
3.35667	764
3.36033	765
3.36400	767
3.36767	771
3.37133	773
3.37500	776
3.37867	780
3.38233	782
3.38600	786
3.38967	788
3.39333	790
3.39700	790
3.40067	791
3.40433	792
3.40800	794
3.41167	796
3.41533	797
3.41900	795
3.42267	793
3.42633	790
3.43000	785
3.43367	782
3.43733	781
3.44100	779
3.44467	779
3.44833	778
3.45200	775
3.45567	771
3.45933	766
3.46300	761
3.46667	759
3.47033	756
3.47400	753
3.47767	749
3.48133	746
3.48500	741
3.48867	740
3.49233	739
3.49600	737
3.49967	737
3.50333	735
3.50700	733
3.51067	730
3.51433	727
3.51800	724
3.52167	719
3.52533	717
3.52900	715
3.53267	715
3.53633	717
3.54000	716
3.54367	716
3.54733	715
3.55100	712
3.55467	709
3.55833	708
3.56200	706
3.56567	706
3.56933	706
3.57300	707
3.57667	706
3.58033	704
3.58400	702
3.58767	702
3.59133	702
3.59500	701
3.59867	700
3.60233	700
3.60600	700
3.60967	700
3.61333	700
3.61700	698
3.62067	699
3.62433	700
3.62800	699
3.63167	697
3.63533	695
3.63900	691
3.64267	689
3.64633	690
3.65000	690
3.65367	689
3.65733	688
3.66100	690
3.66467	692
3.66833	692
3.67200	692
3.67567	692
3.67933	693
3.68300	690
3.68667	688
3.69033	688
3.69400	687
3.69767	688
3.70133	688
3.70500	687
3.70867	686
3.71233	687
3.71600	687
3.71967	688
3.72333	689
3.72700	690
3.73067	688
3.73433	689
3.73800	691
3.74167	691
3.74533	691
3.74900	693
3.75267	693
3.75633	692
3.76000	692
3.76367	693
3.76733	695
3.77100	692
3.77467	688
3.77833	684
3.78200	684
3.78567	683
3.78933	682
3.79300	681
3.79667	680
3.80033	680
3.80400	680
3.80767	679
3.81133	679
3.81500	678
3.81867	675
3.82233	671
3.82600	669
3.82967	670
3.83333	670
3.83700	669
3.84067	668
3.84433	667
3.84800	666
3.85167	663
3.85533	662
3.85900	662
3.86267	661
3.86633	659
3.87000	656
3.87367	653
3.87733	650
3.88100	648
3.88467	646
3.88833	644
3.89200	644
3.89567	645
3.89933	644
3.90300	643
3.90667	642
3.91033	640
3.91400	639
3.91767	637
3.92133	634
3.92500	631
3.92867	629
3.93233	629
3.93600	629
3.93967	629
3.94333	627
3.94700	625
3.95067	625
3.95433	624
3.95800	622
3.96167	620
3.96533	618
3.96900	615
3.97267	614
3.97633	615
3.98000	615
3.98367	612
3.98733	612
3.99100	613
3.99467	612
3.99833	607

[Status Trace (Column Oven Temperature)]
Interval(msec)	1000
# of Points	240
Start Time(min)	0.009
End Time(min)	3.992
Intensity Units	
Intensity Multiplier	1
R.Time (min)	Intensity
0.00895	35.08
0.02562	35.08
0.04228	35.08
0.05895	35.07
0.07562	35.07
0.09228	35.07
0.10895	35.05
0.12562	35.04
0.14228	35.03
0.15895	35.02
0.17562	35.01
0.19228	35.00
0.20895	35.00
0.22562	35.01
0.24228	35.01
0.25895	35.03
0.27562	35.03
0.29228	35.02
0.30895	35.02
0.32562	35.01
0.34228	35.00
0.35895	35.00
0.37562	35.00
0.39228	35.00
0.40895	35.00
0.42562	35.00
0.44228	35.00
0.45895	34.99
0.47562	34.98
0.49228	34.98
0.50895	34.96
0.52562	34.97
0.54228	34.96
0.55895	34.97
0.57562	35.00
0.59228	35.01
0.60895	35.02
0.62562	35.03
0.64228	35.02
0.65895	35.01
0.67562	35.00
0.69228	35.00
0.70895	35.01
0.72562	35.01
0.74228	35.02
0.75895	35.02
0.77562	35.02
0.79228	35.00
0.80895	34.99
0.82562	34.99
0.84228	34.99
0.85895	34.98
0.87562	34.98
0.89228	34.98
0.90895	34.98
0.92562	34.99
0.94228	34.99
0.95895	34.98
0.97562	34.97
0.99228	34.98
1.00895	34.98
1.02562	34.97
1.04228	34.97
1.05895	34.97
1.07562	34.98
1.09228	34.98
1.10895	34.99
1.12562	34.99
1.14228	34.99
1.15895	35.00
1.17562	35.00
1.19228	35.01
1.20895	35.01
1.22562	35.01
1.24228	35.02
1.25895	35.02
1.27562	35.02
1.29228	35.02
1.30895	35.02
1.32562	35.02
1.34228	35.01
1.35895	35.01
1.37562	35.01
1.39228	35.00
1.40895	34.99
1.42562	34.98
1.44228	34.97
1.45895	34.97
1.47562	34.98
1.49228	34.99
1.50895	34.99
1.52562	34.98
1.54228	34.99
1.55895	35.00
1.57562	35.01
1.59228	35.04
1.60895	35.10
1.62562	35.23
1.64228	35.42
1.65895	35.67
1.67562	36.00
1.69228	36.37
1.70895	36.73
1.72562	37.05
1.74228	37.36
1.75895	37.68
1.77562	38.03
1.79228	38.37
1.80895	38.70
1.82562	39.03
1.84228	39.37
1.85895	39.68
1.87562	40.01
1.89228	40.37
1.90895	40.69
1.92562	41.01
1.94228	41.34
1.95895	41.66
1.97562	42.00
1.99228	42.32
2.00895	42.64
2.02562	42.96
2.04228	43.28
2.05895	43.62
2.07562	43.91
2.09228	44.25
2.10895	44.57
2.12562	44.89
2.14228	45.22
2.15895	45.55
2.17562	45.89
2.19228	46.21
2.20895	46.55
2.22562	46.85
2.24228	47.20
2.25895	47.52
2.27562	47.86
2.29228	48.17
2.30895	48.52
2.32562	48.88
2.34228	49.19
2.35895	49.46
2.37562	49.63
2.39228	49.67
2.40895	49.67
2.42562	49.68
2.44228	49.69
2.45895	49.69
2.47562	49.70
2.49228	49.74
2.50895	49.73
2.52562	49.75
2.54228	49.76
2.55895	49.77
2.57562	49.77
2.59228	49.79
2.60895	49.80
2.62562	49.80
2.64228	49.81
2.65895	49.81
2.67562	49.83
2.69228	49.84
2.70895	49.85
2.72562	49.86
2.74228	49.84
2.75895	49.84
2.77562	49.88
2.79228	49.90
2.80895	49.90
2.82562	49.90
2.84228	49.91
2.85895	49.90
2.87562	49.90
2.89228	49.91
2.90895	49.92
2.92562	49.93
2.94228	49.94
2.95895	49.95
2.97562	49.97
2.99228	49.98
3.00895	49.99
3.02562	49.99
3.04228	50.01
3.05895	50.00
3.07562	50.00
3.09228	50.00
3.10895	50.01
3.12562	50.02
3.14228	50.03
3.15895	50.05
3.17562	50.06
3.19228	50.07
3.20895	50.07
3.22562	50.07
3.24228	50.07
3.25895	50.07
3.27562	50.07
3.29228	50.08
3.30895	50.08
3.32562	50.08
3.34228	50.10
3.35895	50.10
3.37562	50.11
3.39228	50.11
3.40895	50.11
3.42562	50.11
3.44228	50.10
3.45895	50.09
3.47562	50.07
3.49228	50.04
3.50895	50.02
3.52562	50.00
3.54228	49.99
3.55895	49.99
3.57562	49.99
3.59228	49.99
3.60895	50.00
3.62562	49.99
3.64228	50.00
3.65895	50.00
3.67562	50.01
3.69228	50.01
3.70895	50.02
3.72562	50.02
3.74228	50.02
3.75895	50.02
3.77562	50.02
3.79228	50.02
3.80895	50.03
3.82562	50.04
3.84228	50.05
3.85895	50.05
3.87562	50.04
3.89228	50.05
3.90895	50.04
3.92562	50.05
3.94228	50.04
3.95895	50.04
3.97562	50.02
3.99228	50.02

[Status Trace (Injection Unit Temperature)]
Interval(msec)	1000
# of Points	240
Start Time(min)	0.009
End Time(min)	3.992
Intensity Units	
Intensity Multiplier	1
R.Time (min)	Intensity
0.00895	99.98
0.02562	99.98
0.04228	99.98
0.05895	99.98
0.07562	99.98
0.09228	99.98
0.10895	99.98
0.12562	99.98
0.14228	99.98
0.15895	99.98
0.17562	99.98
0.19228	99.99
0.20895	99.98
0.22562	99.98
0.24228	99.98
0.25895	99.98
0.27562	99.98
0.29228	99.98
0.30895	99.98
0.32562	99.98
0.34228	99.98
0.35895	99.98
0.37562	99.98
0.39228	99.98
0.40895	99.98
0.42562	99.98
0.44228	99.98
0.45895	99.98
0.47562	99.99
0.49228	99.98
0.50895	99.98
0.52562	99.98
0.54228	99.98
0.55895	99.98
0.57562	99.98
0.59228	99.98
0.60895	99.99
0.62562	99.98
0.64228	99.98
0.65895	99.98
0.67562	99.98
0.69228	99.98
0.70895	99.99
0.72562	99.99
0.74228	99.97
0.75895	99.98
0.77562	99.98
0.79228	99.98
0.80895	99.99
0.82562	99.98
0.84228	99.98
0.85895	99.98
0.87562	99.98
0.89228	99.98
0.90895	99.98
0.92562	99.98
0.94228	99.98
0.95895	99.98
0.97562	99.98
0.99228	99.98
1.00895	99.98
1.02562	99.97
1.04228	99.98
1.05895	99.98
1.07562	99.98
1.09228	99.98
1.10895	99.98
1.12562	99.98
1.14228	99.98
1.15895	99.98
1.17562	99.97
1.19228	99.98
1.20895	99.98
1.22562	99.98
1.24228	99.98
1.25895	99.97
1.27562	99.98
1.29228	99.97
1.30895	99.98
1.32562	99.97
1.34228	99.98
1.35895	99.98
1.37562	99.97
1.39228	99.98
1.40895	99.98
1.42562	99.98
1.44228	99.98
1.45895	99.99
1.47562	99.98
1.49228	99.98
1.50895	99.97
1.52562	99.98
1.54228	99.98
1.55895	99.98
1.57562	99.98
1.59228	99.98
1.60895	99.98
1.62562	99.98
1.64228	99.98
1.65895	99.98
1.67562	99.98
1.69228	99.98
1.70895	99.99
1.72562	99.98
1.74228	99.98
1.75895	99.98
1.77562	99.98
1.79228	99.99
1.80895	99.98
1.82562	99.98
1.84228	99.98
1.85895	99.98
1.87562	99.98
1.89228	99.98
1.90895	99.97
1.92562	99.98
1.94228	99.98
1.95895	99.98
1.97562	99.98
1.99228	99.98
2.00895	99.98
2.02562	99.98
2.04228	99.98
2.05895	99.98
2.07562	99.97
2.09228	99.97
2.10895	99.97
2.12562	99.97
2.14228	99.97
2.15895	99.97
2.17562	99.97
2.19228	99.97
2.20895	99.97
2.22562	99.97
2.24228	99.97
2.25895	99.97
2.27562	99.97
2.29228	99.96
2.30895	99.97
2.32562	99.97
2.34228	99.97
2.35895	99.97
2.37562	99.97
2.39228	99.97
2.40895	99.97
2.42562	99.97
2.44228	99.97
2.45895	99.96
2.47562	99.97
2.49228	99.97
2.50895	99.97
2.52562	99.97
2.54228	99.97
2.55895	99.97
2.57562	99.97
2.59228	99.98
2.60895	99.98
2.62562	99.98
2.64228	99.98
2.65895	99.98
2.67562	99.98
2.69228	99.99
2.70895	99.99
2.72562	99.99
2.74228	99.99
2.75895	99.99
2.77562	99.99
2.79228	100.00
2.80895	99.99
2.82562	100.00
2.84228	100.00
2.85895	100.00
2.87562	100.00
2.89228	100.00
2.90895	100.00
2.92562	100.00
2.94228	100.00
2.95895	100.01
2.97562	100.01
2.99228	100.01
3.00895	100.01
3.02562	100.01
3.04228	100.01
3.05895	100.01
3.07562	100.01
3.09228	100.02
3.10895	100.02
3.12562	100.01
3.14228	100.02
3.15895	100.01
3.17562	100.01
3.19228	100.02
3.20895	100.02
3.22562	100.02
3.24228	100.02
3.25895	100.02
3.27562	100.02
3.29228	100.02
3.30895	100.02
3.32562	100.02
3.34228	100.02
3.35895	100.02
3.37562	100.02
3.39228	100.02
3.40895	100.03
3.42562	100.03
3.44228	100.03
3.45895	100.02
3.47562	100.03
3.49228	100.03
3.50895	100.03
3.52562	100.02
3.54228	100.03
3.55895	100.03
3.57562	100.03
3.59228	100.03
3.60895	100.03
3.62562	100.03
3.64228	100.03
3.65895	100.03
3.67562	100.03
3.69228	100.03
3.70895	100.04
3.72562	100.03
3.74228	100.04
3.75895	100.04
3.77562	100.04
3.79228	100.04
3.80895	100.03
3.82562	100.04
3.84228	100.04
3.85895	100.04
3.87562	100.04
3.89228	100.04
3.90895	100.04
3.92562	100.04
3.94228	100.04
3.95895	100.04
3.97562	100.05
3.99228	100.04

[Status Trace (Carrier Gas Pressure)]
Interval(msec)	1000
# of Points	240
Start Time(min)	0.009
End Time(min)	3.992
Intensity Units	
Intensity Multiplier	1
R.Time (min)	Intensity
0.00895	58.00
0.02562	55.25
0.04228	57.29
0.05895	59.33
0.07562	59.32
0.09228	58.04
0.10895	57.98
0.12562	58.01
0.14228	58.01
0.15895	58.01
0.17562	58.00
0.19228	58.00
0.20895	58.00
0.22562	58.00
0.24228	58.00
0.25895	58.00
0.27562	58.00
0.29228	58.00
0.30895	58.00
0.32562	58.00
0.34228	58.00
0.35895	58.00
0.37562	58.00
0.39228	58.00
0.40895	58.00
0.42562	58.00
0.44228	58.00
0.45895	58.00
0.47562	58.00
0.49228	58.00
0.50895	58.00
0.52562	58.00
0.54228	58.00
0.55895	58.00
0.57562	58.00
0.59228	58.00
0.60895	58.00
0.62562	58.00
0.64228	58.00
0.65895	58.00
0.67562	58.00
0.69228	58.00
0.70895	58.00
0.72562	58.00
0.74228	58.00
0.75895	58.00
0.77562	58.00
0.79228	58.00
0.80895	58.00
0.82562	58.00
0.84228	58.00
0.85895	58.00
0.87562	58.00
0.89228	58.00
0.90895	58.00
0.92562	58.00
0.94228	58.00
0.95895	58.00
0.97562	58.00
0.99228	58.00
1.00895	58.00
1.02562	58.00
1.04228	58.00
1.05895	58.00
1.07562	58.00
1.09228	58.00
1.10895	58.00
1.12562	58.00
1.14228	58.00
1.15895	58.00
1.17562	58.00
1.19228	58.00
1.20895	58.00
1.22562	58.00
1.24228	58.00
1.25895	58.00
1.27562	58.00
1.29228	58.00
1.30895	58.00
1.32562	58.00
1.34228	58.00
1.35895	58.00
1.37562	58.00
1.39228	58.00
1.40895	58.00
1.42562	58.00
1.44228	58.00
1.45895	58.00
1.47562	58.00
1.49228	58.00
1.50895	58.00
1.52562	58.00
1.54228	58.00
1.55895	58.00
1.57562	58.00
1.59228	58.00
1.60895	58.00
1.62562	58.00
1.64228	58.00
1.65895	58.00
1.67562	58.01
1.69228	58.00
1.70895	58.00
1.72562	58.00
1.74228	58.00
1.75895	58.00
1.77562	58.00
1.79228	58.00
1.80895	58.00
1.82562	58.00
1.84228	58.00
1.85895	58.00
1.87562	58.00
1.89228	58.00
1.90895	58.00
1.92562	58.00
1.94228	58.00
1.95895	58.00
1.97562	58.00
1.99228	58.00
2.00895	58.00
2.02562	58.00
2.04228	58.00
2.05895	58.00
2.07562	58.00
2.09228	58.00
2.10895	58.00
2.12562	58.00
2.14228	58.00
2.15895	58.00
2.17562	58.00
2.19228	58.00
2.20895	58.00
2.22562	58.00
2.24228	58.00
2.25895	58.00
2.27562	58.00
2.29228	58.00
2.30895	58.00
2.32562	58.00
2.34228	58.00
2.35895	58.00
2.37562	58.00
2.39228	57.99
2.40895	57.99
2.42562	58.00
2.44228	58.00
2.45895	58.00
2.47562	58.00
2.49228	58.00
2.50895	58.00
2.52562	57.99
2.54228	58.00
2.55895	58.00
2.57562	58.00
2.59228	58.00
2.60895	58.00
2.62562	58.00
2.64228	58.00
2.65895	58.00
2.67562	58.00
2.69228	58.00
2.70895	58.00
2.72562	58.00
2.74228	58.00
2.75895	58.00
2.77562	58.00
2.79228	58.00
2.80895	58.00
2.82562	58.00
2.84228	58.00
2.85895	58.00
2.87562	58.00
2.89228	58.00
2.90895	58.00
2.92562	58.00
2.94228	58.00
2.95895	58.00
2.97562	58.00
2.99228	58.00
3.00895	58.00
3.02562	58.00
3.04228	58.00
3.05895	58.00
3.07562	58.00
3.09228	58.00
3.10895	58.00
3.12562	58.00
3.14228	58.00
3.15895	58.00
3.17562	58.00
3.19228	58.00
3.20895	58.00
3.22562	58.00
3.24228	58.00
3.25895	58.00
3.27562	58.00
3.29228	58.00
3.30895	58.00
3.32562	58.00
3.34228	58.00
3.35895	58.00
3.37562	58.00
3.39228	58.00
3.40895	58.00
3.42562	58.00
3.44228	58.00
3.45895	58.00
3.47562	58.00
3.49228	58.00
3.50895	58.00
3.52562	58.00
3.54228	58.00
3.55895	58.00
3.57562	58.00
3.59228	58.00
3.60895	58.00
3.62562	58.00
3.64228	58.00
3.65895	58.00
3.67562	58.00
3.69228	58.00
3.70895	58.00
3.72562	58.00
3.74228	58.00
3.75895	58.00
3.77562	58.00
3.79228	58.00
3.80895	58.00
3.82562	58.00
3.84228	58.00
3.85895	58.00
3.87562	58.00
3.89228	58.00
3.90895	58.00
3.92562	58.00
3.94228	58.00
3.95895	58.00
3.97562	58.00
3.99228	58.00

[Status Trace (Carrier Gas Flow)]
Interval(msec)	1000
# of Points	240
Start Time(min)	0.009
End Time(min)	3.992
Intensity Units	
Intensity Multiplier	1
R.Time (min)	Intensity
0.00895	34.51
0.02562	34.54
0.04228	34.54
0.05895	34.55
0.07562	34.51
0.09228	34.52
0.10895	34.52
0.12562	34.52
0.14228	34.52
0.15895	34.52
0.17562	34.52
0.19228	34.52
0.20895	34.52
0.22562	34.52
0.24228	34.51
0.25895	34.51
0.27562	34.52
0.29228	34.52
0.30895	34.51
0.32562	34.52
0.34228	34.52
0.35895	34.52
0.37562	34.52
0.39228	34.52
0.40895	34.52
0.42562	34.52
0.44228	34.52
0.45895	34.52
0.47562	34.52
0.49228	34.52
0.50895	34.51
0.52562	34.52
0.54228	34.51
0.55895	34.52
0.57562	34.52
0.59228	34.52
0.60895	34.52
0.62562	34.52
0.64228	34.52
0.65895	34.51
0.67562	34.51
0.69228	34.52
0.70895	34.52
0.72562	34.52
0.74228	34.52
0.75895	34.52
0.77562	34.52
0.79228	34.52
0.80895	34.52
0.82562	34.51
0.84228	34.52
0.85895	34.52
0.87562	34.52
0.89228	34.52
0.90895	34.52
0.92562	34.52
0.94228	34.52
0.95895	34.52
0.97562	34.52
0.99228	34.52
1.00895	34.52
1.02562	34.52
1.04228	34.52
1.05895	34.52
1.07562	34.52
1.09228	34.52
1.10895	34.52
1.12562	34.52
1.14228	34.52
1.15895	34.52
1.17562	34.52
1.19228	34.51
1.20895	34.51
1.22562	34.51
1.24228	34.52
1.25895	34.52
1.27562	34.52
1.29228	34.51
1.30895	34.52
1.32562	34.52
1.34228	34.52
1.35895	34.52
1.37562	34.52
1.39228	34.52
1.40895	34.52
1.42562	34.52
1.44228	34.52
1.45895	34.52
1.47562	34.52
1.49228	34.52
1.50895	34.51
1.52562	34.52
1.54228	34.52
1.55895	34.52
1.57562	34.52
1.59228	34.52
1.60895	34.52
1.62562	34.52
1.64228	34.52
1.65895	34.51
1.67562	34.53
1.69228	34.52
1.70895	34.52
1.72562	34.52
1.74228	34.52
1.75895	34.52
1.77562	34.51
1.79228	34.52
1.80895	34.52
1.82562	34.53
1.84228	34.52
1.85895	34.52
1.87562	34.52
1.89228	34.52
1.90895	34.52
1.92562	34.52
1.94228	34.52
1.95895	34.52
1.97562	34.52
1.99228	34.52
2.00895	34.52
2.02562	34.52
2.04228	34.52
2.05895	34.52
2.07562	34.52
2.09228	34.52
2.10895	34.52
2.12562	34.52
2.14228	34.52
2.15895	34.52
2.17562	34.53
2.19228	34.52
2.20895	34.51
2.22562	34.51
2.24228	34.52
2.25895	34.52
2.27562	34.52
2.29228	34.52
2.30895	34.51
2.32562	34.52
2.34228	34.52
2.35895	34.52
2.37562	34.52
2.39228	34.52
2.40895	34.52
2.42562	34.52
2.44228	34.52
2.45895	34.52
2.47562	34.52
2.49228	34.52
2.50895	34.47
2.52562	34.52
2.54228	34.52
2.55895	34.52
2.57562	34.51
2.59228	34.51
2.60895	34.52
2.62562	34.52
2.64228	34.52
2.65895	34.52
2.67562	34.52
2.69228	34.52
2.70895	34.51
2.72562	34.52
2.74228	34.52
2.75895	34.52
2.77562	34.52
2.79228	34.51
2.80895	34.52
2.82562	34.52
2.84228	34.52
2.85895	34.52
2.87562	34.52
2.89228	34.52
2.90895	34.52
2.92562	34.52
2.94228	34.52
2.95895	34.52
2.97562	34.52
2.99228	34.52
3.00895	34.52
3.02562	34.52
3.04228	34.52
3.05895	34.52
3.07562	34.52
3.09228	34.52
3.10895	34.52
3.12562	34.51
3.14228	34.52
3.15895	34.52
3.17562	34.52
3.19228	34.52
3.20895	34.52
3.22562	34.52
3.24228	34.52
3.25895	34.51
3.27562	34.52
3.29228	34.52
3.30895	34.52
3.32562	34.51
3.34228	34.51
3.35895	34.52
3.37562	34.51
3.39228	34.52
3.40895	34.52
3.42562	34.52
3.44228	34.52
3.45895	34.52
3.47562	34.52
3.49228	34.52
3.50895	34.53
3.52562	34.52
3.54228	34.52
3.55895	34.52
3.57562	34.52
3.59228	34.52
3.60895	34.51
3.62562	34.52
3.64228	34.52
3.65895	34.52
3.67562	34.52
3.69228	34.52
3.70895	34.52
3.72562	34.52
3.74228	34.51
3.75895	34.52
3.77562	34.51
3.79228	34.52
3.80895	34.51
3.82562	34.52
3.84228	34.52
3.85895	34.52
3.87562	34.52
3.89228	34.52
3.90895	34.52
3.92562	34.52
3.94228	34.51
3.95895	34.52
3.97562	34.52
3.99228	34.52

[Status Trace (Column Flow)]
Interval(msec)	1000
# of Points	240
Start Time(min)	0.009
End Time(min)	3.992
Intensity Units	
Intensity Multiplier	1
R.Time (min)	Intensity
0.00895	5.51
0.02562	5.20
0.04228	5.43
0.05895	5.67
0.07562	5.67
0.09228	5.52
0.10895	5.51
0.12562	5.52
0.14228	5.52
0.15895	5.52
0.17562	5.52
0.19228	5.52
0.20895	5.52
0.22562	5.52
0.24228	5.52
0.25895	5.52
0.27562	5.52
0.29228	5.52
0.30895	5.52
0.32562	5.52
0.34228	5.52
0.35895	5.52
0.37562	5.52
0.39228	5.52
0.40895	5.52
0.42562	5.52
0.44228	5.52
0.45895	5.52
0.47562	5.52
0.49228	5.52
0.50895	5.52
0.52562	5.52
0.54228	5.52
0.55895	5.52
0.57562	5.52
0.59228	5.52
0.60895	5.52
0.62562	5.52
0.64228	5.52
0.65895	5.52
0.67562	5.52
0.69228	5.52
0.70895	5.52
0.72562	5.52
0.74228	5.52
0.75895	5.52
0.77562	5.52
0.79228	5.52
0.80895	5.52
0.82562	5.52
0.84228	5.52
0.85895	5.52
0.87562	5.52
0.89228	5.52
0.90895	5.52
0.92562	5.52
0.94228	5.52
0.95895	5.52
0.97562	5.52
0.99228	5.52
1.00895	5.52
1.02562	5.52
1.04228	5.52
1.05895	5.52
1.07562	5.52
1.09228	5.52
1.10895	5.52
1.12562	5.52
1.14228	5.52
1.15895	5.52
1.17562	5.52
1.19228	5.52
1.20895	5.52
1.22562	5.52
1.24228	5.52
1.25895	5.52
1.27562	5.52
1.29228	5.52
1.30895	5.52
1.32562	5.52
1.34228	5.52
1.35895	5.52
1.37562	5.52
1.39228	5.52
1.40895	5.52
1.42562	5.52
1.44228	5.52
1.45895	5.52
1.47562	5.52
1.49228	5.52
1.50895	5.52
1.52562	5.52
1.54228	5.52
1.55895	5.52
1.57562	5.52
1.59228	5.52
1.60895	5.51
1.62562	5.51
1.64228	5.50
1.65895	5.50
1.67562	5.49
1.69228	5.47
1.70895	5.46
1.72562	5.45
1.74228	5.44
1.75895	5.43
1.77562	5.42
1.79228	5.41
1.80895	5.40
1.82562	5.39
1.84228	5.38
1.85895	5.37
1.87562	5.36
1.89228	5.35
1.90895	5.34
1.92562	5.33
1.94228	5.32
1.95895	5.31
1.97562	5.30
1.99228	5.29
2.00895	5.28
2.02562	5.27
2.04228	5.26
2.05895	5.26
2.07562	5.25
2.09228	5.24
2.10895	5.23
2.12562	5.22
2.14228	5.21
2.15895	5.20
2.17562	5.19
2.19228	5.18
2.20895	5.17
2.22562	5.16
2.24228	5.15
2.25895	5.14
2.27562	5.13
2.29228	5.12
2.30895	5.12
2.32562	5.10
2.34228	5.10
2.35895	5.09
2.37562	5.08
2.39228	5.08
2.40895	5.08
2.42562	5.08
2.44228	5.08
2.45895	5.08
2.47562	5.08
2.49228	5.08
2.50895	5.08
2.52562	5.08
2.54228	5.08
2.55895	5.08
2.57562	5.08
2.59228	5.08
2.60895	5.08
2.62562	5.08
2.64228	5.08
2.65895	5.08
2.67562	5.08
2.69228	5.08
2.70895	5.08
2.72562	5.08
2.74228	5.08
2.75895	5.08
2.77562	5.08
2.79228	5.08
2.80895	5.08
2.82562	5.08
2.84228	5.08
2.85895	5.08
2.87562	5.08
2.89228	5.08
2.90895	5.08
2.92562	5.08
2.94228	5.08
2.95895	5.08
2.97562	5.07
2.99228	5.07
3.00895	5.07
3.02562	5.07
3.04228	5.07
3.05895	5.07
3.07562	5.07
3.09228	5.07
3.10895	5.07
3.12562	5.07
3.14228	5.07
3.15895	5.07
3.17562	5.07
3.19228	5.07
3.20895	5.07
3.22562	5.07
3.24228	5.07
3.25895	5.07
3.27562	5.07
3.29228	5.07
3.30895	5.07
3.32562	5.07
3.34228	5.07
3.35895	5.07
3.37562	5.07
3.39228	5.07
3.40895	5.07
3.42562	5.07
3.44228	5.07
3.45895	5.07
3.47562	5.07
3.49228	5.07
3.50895	5.07
3.52562	5.07
3.54228	5.07
3.55895	5.07
3.57562	5.07
3.59228	5.07
3.60895	5.07
3.62562	5.07
3.64228	5.07
3.65895	5.07
3.67562	5.07
3.69228	5.07
3.70895	5.07
3.72562	5.07
3.74228	5.07
3.75895	5.07
3.77562	5.07
3.79228	5.07
3.80895	5.07
3.82562	5.07
3.84228	5.07
3.85895	5.07
3.87562	5.07
3.89228	5.07
3.90895	5.07
3.92562	5.07
3.94228	5.07
3.95895	5.07
3.97562	5.07
3.99228	5.07

[Status Trace (Linear Velocity)]
Interval(msec)	1000
# of Points	240
Start Time(min)	0.009
End Time(min)	3.992
Intensity Units	
Intensity Multiplier	1
R.Time (min)	Intensity
0.00895	39.01
0.02562	37.20
0.04228	38.55
0.05895	39.88
0.07562	39.88
0.09228	39.03
0.10895	39.00
0.12562	39.02
0.14228	39.02
0.15895	39.02
0.17562	39.02
0.19228	39.02
0.20895	39.02
0.22562	39.02
0.24228	39.02
0.25895	39.01
0.27562	39.01
0.29228	39.01
0.30895	39.01
0.32562	39.02
0.34228	39.02
0.35895	39.01
0.37562	39.01
0.39228	39.02
0.40895	39.02
0.42562	39.02
0.44228	39.02
0.45895	39.02
0.47562	39.02
0.49228	39.02
0.50895	39.02
0.52562	39.02
0.54228	39.02
0.55895	39.02
0.57562	39.02
0.59228	39.01
0.60895	39.01
0.62562	39.01
0.64228	39.01
0.65895	39.01
0.67562	39.02
0.69228	39.02
0.70895	39.01
0.72562	39.01
0.74228	39.01
0.75895	39.01
0.77562	39.01
0.79228	39.01
0.80895	39.02
0.82562	39.02
0.84228	39.02
0.85895	39.02
0.87562	39.02
0.89228	39.02
0.90895	39.02
0.92562	39.02
0.94228	39.02
0.95895	39.02
0.97562	39.02
0.99228	39.02
1.00895	39.02
1.02562	39.02
1.04228	39.02
1.05895	39.02
1.07562	39.02
1.09228	39.02
1.10895	39.02
1.12562	39.02
1.14228	39.02
1.15895	39.02
1.17562	39.01
1.19228	39.01
1.20895	39.01
1.22562	39.01
1.24228	39.01
1.25895	39.01
1.27562	39.01
1.29228	39.01
1.30895	39.01
1.32562	39.01
1.34228	39.01
1.35895	39.01
1.37562	39.02
1.39228	39.02
1.40895	39.02
1.42562	39.02
1.44228	39.02
1.45895	39.02
1.47562	39.02
1.49228	39.02
1.50895	39.02
1.52562	39.02
1.54228	39.02
1.55895	39.02
1.57562	39.01
1.59228	39.01
1.60895	39.01
1.62562	39.00
1.64228	38.98
1.65895	38.96
1.67562	38.92
1.69228	38.89
1.70895	38.85
1.72562	38.82
1.74228	38.79
1.75895	38.76
1.77562	38.73
1.79228	38.69
1.80895	38.67
1.82562	38.63
1.84228	38.60
1.85895	38.57
1.87562	38.54
1.89228	38.51
1.90895	38.48
1.92562	38.45
1.94228	38.42
1.95895	38.39
1.97562	38.35
1.99228	38.32
2.00895	38.30
2.02562	38.27
2.04228	38.24
2.05895	38.21
2.07562	38.18
2.09228	38.15
2.10895	38.12
2.12562	38.09
2.14228	38.06
2.15895	38.03
2.17562	38.00
2.19228	37.97
2.20895	37.94
2.22562	37.91
2.24228	37.88
2.25895	37.86
2.27562	37.82
2.29228	37.79
2.30895	37.77
2.32562	37.73
2.34228	37.70
2.35895	37.68
2.37562	37.66
2.39228	37.66
2.40895	37.66
2.42562	37.66
2.44228	37.66
2.45895	37.66
2.47562	37.66
2.49228	37.65
2.50895	37.65
2.52562	37.65
2.54228	37.65
2.55895	37.65
2.57562	37.65
2.59228	37.65
2.60895	37.65
2.62562	37.65
2.64228	37.65
2.65895	37.65
2.67562	37.65
2.69228	37.65
2.70895	37.64
2.72562	37.64
2.74228	37.64
2.75895	37.65
2.77562	37.64
2.79228	37.64
2.80895	37.64
2.82562	37.64
2.84228	37.64
2.85895	37.64
2.87562	37.64
2.89228	37.64
2.90895	37.64
2.92562	37.64
2.94228	37.64
2.95895	37.64
2.97562	37.63
2.99228	37.63
3.00895	37.63
3.02562	37.63
3.04228	37.63
3.05895	37.63
3.07562	37.63
3.09228	37.63
3.10895	37.63
3.12562	37.63
3.14228	37.63
3.15895	37.63
3.17562	37.63
3.19228	37.63
3.20895	37.63
3.22562	37.63
3.24228	37.63
3.25895	37.63
3.27562	37.63
3.29228	37.62
3.30895	37.62
3.32562	37.62
3.34228	37.62
3.35895	37.62
3.37562	37.62
3.39228	37.62
3.40895	37.62
3.42562	37.62
3.44228	37.62
3.45895	37.62
3.47562	37.63
3.49228	37.63
3.50895	37.63
3.52562	37.63
3.54228	37.63
3.55895	37.63
3.57562	37.63
3.59228	37.63
3.60895	37.63
3.62562	37.63
3.64228	37.63
3.65895	37.63
3.67562	37.63
3.69228	37.63
3.70895	37.63
3.72562	37.63
3.74228	37.63
3.75895	37.63
3.77562	37.63
3.79228	37.63
3.80895	37.63
3.82562	37.63
3.84228	37.63
3.85895	37.63
3.87562	37.63
3.89228	37.63
3.90895	37.63
3.92562	37.63
3.94228	37.63
3.95895	37.63
3.97562	37.63
3.99228	37.63

