[Header]
Application Name	LabSolutions
Version	5.110
Data File Name	C:\Users\User\Desktop\GC Analyses\Jack\Nachusa Grasslands Sampling\T2 Timepoint July 12th\T2_07122022_090.gcd
Output Date	3/14/2023
Output Time	3:42:35 PM

[File Information]
Type	Data File
Generated	3/10/2023 10:31:35 PM
Generated by	System Administrator
Modified	3/10/2023 10:38:29 PM
Modified by	System Administrator

[Sample Information]
Operator Name	System Administrator
Acquired	3/10/2023 10:34:28 PM
Sample Type	0:Unknown
Level	0
Sample Name	090
Sample ID	090
ISTD Amount1	1
ISTD Amount2	1
ISTD Amount3	1
ISTD Amount4	1
ISTD Amount5	1
ISTD Amount6	1
ISTD Amount7	1
ISTD Amount8	1
ISTD Amount9	1
ISTD Amount10	1
ISTD Amount11	1
ISTD Amount12	1
ISTD Amount13	1
ISTD Amount14	1
ISTD Amount15	1
ISTD Amount16	1
ISTD Amount17	1
ISTD Amount18	1
ISTD Amount19	1
ISTD Amount20	1
ISTD Amount21	1
ISTD Amount22	1
ISTD Amount23	1
ISTD Amount24	1
ISTD Amount25	1
ISTD Amount26	1
ISTD Amount27	1
ISTD Amount28	1
ISTD Amount29	1
ISTD Amount30	1
ISTD Amount31	1
ISTD Amount32	1
Sample Amount	1
Dilution Factor	1
Vial#	89
Injection Volume	1
Injection Count	1
Bar Code	

[Original Files]
Data File	C:\Users\User\Desktop\GC Analyses\Jack\Nachusa Grasslands Sampling\T1 Timepoint July 12th\T2_07122022_090.gcd
Method File	C:\LabSolutions\Data\GHG_4min_2022\ghg3_togas_w_acet_4 min_new_int.gcm
Batch File	C:\LabSolutions\Data\AutoSamplerTesting\T2_07122022.gcb
Report Format File	c:\LabSolutions\System\DEFAULT.lsr

[File Description]


[Configuration]
Instrument Name	C0B7VH3-Instrument1
Instrument #	1
Line #	1
# of Detectors	3
Detector ID	DET#1	DET#2	DET#3
Detector Name	FID	PTCD	ECD
# of Channels	1	1	1

[Peak Table(Ch1)]
# of Peaks	3
Peak#	R.Time	I.Time	F.Time	Area	Height	A/H	Conc.	Mark	ID#	Name	k'	Plate #	Plate Ht.	Tailing	Resolution	Sep.Factor	Area Ratio	Height Ratio	Conc. %	Norm Conc.
1	1.476	1.435	1.538	27967	13295	2.104	197.451	   	1	CO	0.000	9292	16.142	1.278	0.000	0.000	0	0	25.671	25.671
2	1.567	1.538	1.637	4530	2221	2.040	87.600	 V 	2	CH4	0.062	11034	13.594	0.000	1.516	0.000	0	0	11.389	11.389
3	1.996	1.945	2.517	1928980	920488	2.096	484.122	   	3	CO2	0.353	17450	8.596	1.244	7.142	5.680	0	0	62.941	62.941

[Peak Table(Ch2)]
# of Peaks	0

[Peak Table(Ch3)]
# of Peaks	3
Peak#	R.Time	I.Time	F.Time	Area	Height	A/H	Conc.	Mark	ID#	Name	k'	Plate #	Plate Ht.	Tailing	Resolution	Sep.Factor	Area Ratio	Height Ratio	Conc. %	Norm Conc.
1	2.458	2.352	2.513	1739	622	2.795	0.000	   			0.000	13415	11.182	0.000	0.000	0.000	0	0	0.000	0.000
2	2.532	2.513	2.627	684	239	2.861	0.000	 V 			0.030	11299	13.275	0.000	0.814	0.000	0	0	0.000	0.000
3	2.876	2.730	3.082	19412	5055	3.840	0.496	   	1	N2O	0.170	13171	11.388	1.600	3.526	5.700	0	0	100.000	100.000

[Compound Results(Ch1)]
# of IDs	6
ID#	Name	R.Time	Area	Height	Conc.	Curve	3rd	2nd	1st	Constant	Area Ratio	Height Ratio	Conc. %	Norm Conc.
1	CO	1.476	27967	13295	197.451	Linear	0.000000e+00	0.000000e+00	1.416423e+002	0.000000e+00	0	0	25.671	25.671
2	CH4	1.567	4530	2221	87.600	Linear	0.000000e+00	0.000000e+00	5.171738e+001	0.000000e+00	0	0	11.389	11.389
3	CO2	1.996	1928980	920488	484.122	Linear	0.000000e+00	0.000000e+00	3.984494e+003	0.000000e+00	0	0	62.941	62.941
4	Ethylene	0.000	0	0	0.000	Linear	0.000000e+00	0.000000e+00	0.000000e+00	0.000000e+00	0	0	0.000	0.000
5	Acetylene	0.000	0	0	0.000	Linear	0.000000e+00	0.000000e+00	0.000000e+00	0.000000e+00	0	0	0.000	0.000
6	Ethane	0.000	0	0	0.000	Linear	0.000000e+00	0.000000e+00	0.000000e+00	0.000000e+00	0	0	0.000	0.000

[Compound Results(Ch2)]
# of IDs	5
ID#	Name	R.Time	Area	Height	Conc.	Curve	3rd	2nd	1st	Constant	Area Ratio	Height Ratio	Conc. %	Norm Conc.
1	Hydrogen	0.000	0	0	0.000	Linear	0.000000e+00	0.000000e+00	0.000000e+00	0.000000e+00	0	0	0.000	0.000
2	Oxygen	0.000	0	0	0.000	Linear	0.000000e+00	0.000000e+00	0.000000e+00	0.000000e+00	0	0	0.000	0.000
3	Nitrogen	0.000	0	0	0.000	Linear	0.000000e+00	0.000000e+00	0.000000e+00	0.000000e+00	0	0	0.000	0.000
4	Methane	0.000	0	0	0.000	Linear	0.000000e+00	0.000000e+00	0.000000e+00	0.000000e+00	0	0	0.000	0.000
5	Carbon Monoxide	0.000	0	0	0.000	Linear	0.000000e+00	0.000000e+00	0.000000e+00	0.000000e+00	0	0	0.000	0.000

[Compound Results(Ch3)]
# of IDs	2
ID#	Name	R.Time	Area	Height	Conc.	Curve	3rd	2nd	1st	Constant	Area Ratio	Height Ratio	Conc. %	Norm Conc.
1	N2O	2.876	19412	5055	0.496	Linear	0.000000e+00	0.000000e+00	3.915173e+004	0.000000e+00	0	0	100.000	100.000
2	SF6	0.000	0	0	0.000	Linear	0.000000e+00	0.000000e+00	0.000000e+00	0.000000e+00	0	0	0.000	0.000

[Group Results(Ch1)]
# of Groups	0

[Group Results(Ch2)]
# of Groups	0

[Group Results(Ch3)]
# of Groups	0

[Chromatogram (Ch1)]
Interval(msec)	220
# of Points	1091
Start Time(min)	0.002
End Time(min)	3.998
R.Time (min)	Intensity
0.00167	-10
0.00533	-9
0.00900	-12
0.01267	-17
0.01633	-23
0.02000	-29
0.02367	-33
0.02733	-33
0.03100	-29
0.03467	-25
0.03833	-18
0.04200	-13
0.04567	-13
0.04933	-16
0.05300	-17
0.05667	-16
0.06033	-12
0.06400	-8
0.06767	-5
0.07133	-4
0.07500	-6
0.07867	-5
0.08233	-5
0.08600	-6
0.08967	-6
0.09333	-8
0.09700	-11
0.10067	-14
0.10433	-13
0.10800	-10
0.11167	-7
0.11533	-2
0.11900	7
0.12267	15
0.12633	16
0.13000	13
0.13367	5
0.13733	-2
0.14100	-4
0.14467	-4
0.14833	-8
0.15200	-11
0.15567	-11
0.15933	-5
0.16300	5
0.16667	10
0.17033	5
0.17400	-2
0.17767	-5
0.18133	-8
0.18500	-9
0.18867	-8
0.19233	-7
0.19600	-6
0.19967	-8
0.20333	-7
0.20700	-9
0.21067	-18
0.21433	-23
0.21800	-28
0.22167	-34
0.22533	-33
0.22900	-29
0.23267	-28
0.23633	-25
0.24000	-17
0.24367	-12
0.24733	-7
0.25100	-4
0.25467	-7
0.25833	-18
0.26200	-32
0.26567	-39
0.26933	-42
0.27300	-40
0.27667	-30
0.28033	-21
0.28400	-16
0.28767	-15
0.29133	-15
0.29500	-17
0.29867	-25
0.30233	-34
0.30600	-42
0.30967	-44
0.31333	-43
0.31700	-39
0.32067	-34
0.32433	-30
0.32800	-28
0.33167	-27
0.33533	-30
0.33900	-33
0.34267	-32
0.34633	-27
0.35000	-21
0.35367	-14
0.35733	-10
0.36100	-11
0.36467	-14
0.36833	-17
0.37200	-22
0.37567	-26
0.37933	-29
0.38300	-30
0.38667	-31
0.39033	-36
0.39400	-39
0.39767	-39
0.40133	-36
0.40500	-34
0.40867	-36
0.41233	-41
0.41600	-43
0.41967	-45
0.42333	-45
0.42700	-44
0.43067	-44
0.43433	-45
0.43800	-45
0.44167	-38
0.44533	-30
0.44900	-24
0.45267	-20
0.45633	-20
0.46000	-26
0.46367	-31
0.46733	-32
0.47100	-31
0.47467	-27
0.47833	-23
0.48200	-18
0.48567	-12
0.48933	-5
0.49300	1
0.49667	-0
0.50033	-6
0.50400	-9
0.50767	-10
0.51133	-10
0.51500	-7
0.51867	-1
0.52233	5
0.52600	10
0.52967	17
0.53333	23
0.53700	25
0.54067	19
0.54433	11
0.54800	2
0.55167	-4
0.55533	-6
0.55900	-7
0.56267	-9
0.56633	-13
0.57000	-19
0.57367	-21
0.57733	-22
0.58100	-22
0.58467	-19
0.58833	-16
0.59200	-16
0.59567	-12
0.59933	-7
0.60300	-3
0.60667	-4
0.61033	-4
0.61400	-4
0.61767	-0
0.62133	5
0.62500	10
0.62867	12
0.63233	5
0.63600	-4
0.63967	-14
0.64333	-20
0.64700	-21
0.65067	-17
0.65433	-8
0.65800	-2
0.66167	-2
0.66533	-7
0.66900	-6
0.67267	-0
0.67633	2
0.68000	-2
0.68367	-8
0.68733	-13
0.69100	-17
0.69467	-21
0.69833	-24
0.70200	-24
0.70567	-23
0.70933	-25
0.71300	-30
0.71667	-31
0.72033	-30
0.72400	-25
0.72767	-16
0.73133	-10
0.73500	-7
0.73867	-8
0.74233	-11
0.74600	-14
0.74967	-14
0.75333	-13
0.75700	-19
0.76067	-30
0.76433	-43
0.76800	-54
0.77167	-62
0.77533	-62
0.77900	-62
0.78267	-61
0.78633	-60
0.79000	-59
0.79367	-56
0.79733	-51
0.80100	-42
0.80467	-31
0.80833	-22
0.81200	-16
0.81567	-15
0.81933	-17
0.82300	-21
0.82667	-28
0.83033	-32
0.83400	-33
0.83767	-33
0.84133	-33
0.84500	-35
0.84867	-40
0.85233	-44
0.85600	-49
0.85967	-52
0.86333	-49
0.86700	-41
0.87067	-31
0.87433	-24
0.87800	-20
0.88167	-20
0.88533	-24
0.88900	-32
0.89267	-38
0.89633	-38
0.90000	-36
0.90367	-36
0.90733	-39
0.91100	-42
0.91467	-42
0.91833	-44
0.92200	-48
0.92567	-48
0.92933	-47
0.93300	-47
0.93667	-51
0.94033	-53
0.94400	-51
0.94767	-48
0.95133	-47
0.95500	-43
0.95867	-42
0.96233	-42
0.96600	-45
0.96967	-47
0.97333	-47
0.97700	-46
0.98067	-43
0.98433	-39
0.98800	-35
0.99167	-33
0.99533	-31
0.99900	-34
1.00267	-43
1.00633	-55
1.01000	-67
1.01367	-78
1.01733	-83
1.02100	-81
1.02467	-76
1.02833	-69
1.03200	-65
1.03567	-68
1.03933	-72
1.04300	-73
1.04667	-72
1.05033	-72
1.05400	-69
1.05767	-66
1.06133	-64
1.06500	-63
1.06867	-64
1.07233	-72
1.07600	-79
1.07967	-83
1.08333	-84
1.08700	-80
1.09067	-72
1.09433	-61
1.09800	-54
1.10167	-52
1.10533	-53
1.10900	-58
1.11267	-67
1.11633	-75
1.12000	-78
1.12367	-78
1.12733	-76
1.13100	-71
1.13467	-62
1.13833	-58
1.14200	-59
1.14567	-62
1.14933	-68
1.15300	-74
1.15667	-80
1.16033	-83
1.16400	-80
1.16767	-77
1.17133	-74
1.17500	-71
1.17867	-72
1.18233	-76
1.18600	-82
1.18967	-83
1.19333	-81
1.19700	-74
1.20067	-64
1.20433	-53
1.20800	-40
1.21167	-29
1.21533	-24
1.21900	-35
1.22267	-57
1.22633	-82
1.23000	-99
1.23367	-105
1.23733	-103
1.24100	-98
1.24467	-95
1.24833	-93
1.25200	-96
1.25567	-102
1.25933	-108
1.26300	-112
1.26667	-113
1.27033	-109
1.27400	-100
1.27767	-96
1.28133	-97
1.28500	-100
1.28867	-103
1.29233	-102
1.29600	-97
1.29967	-89
1.30333	-84
1.30700	-78
1.31067	-72
1.31433	-68
1.31800	-63
1.32167	-60
1.32533	-64
1.32900	-71
1.33267	-78
1.33633	-77
1.34000	-71
1.34367	-67
1.34733	-63
1.35100	-62
1.35467	-70
1.35833	-83
1.36200	-97
1.36567	-106
1.36933	-112
1.37300	-111
1.37667	-109
1.38033	-106
1.38400	-101
1.38767	-95
1.39133	-90
1.39500	-84
1.39867	-75
1.40233	-71
1.40600	-73
1.40967	-78
1.41333	-85
1.41700	-94
1.42067	-99
1.42433	-103
1.42800	-105
1.43167	-107
1.43533	-102
1.43900	-66
1.44267	56
1.44633	338
1.45000	1036
1.45367	2550
1.45733	4856
1.46100	7453
1.46467	9819
1.46833	11660
1.47200	12833
1.47567	13205
1.47933	12686
1.48300	11349
1.48667	9484
1.49033	7477
1.49400	5638
1.49767	4123
1.50133	2960
1.50500	2109
1.50867	1504
1.51233	1078
1.51600	782
1.51967	577
1.52333	428
1.52700	316
1.53067	234
1.53433	182
1.53800	167
1.54167	234
1.54533	435
1.54900	773
1.55267	1179
1.55633	1564
1.56000	1875
1.56367	2084
1.56733	2159
1.57100	2072
1.57467	1831
1.57833	1496
1.58200	1142
1.58567	825
1.58933	573
1.59300	383
1.59667	245
1.60033	149
1.60400	86
1.60767	43
1.61133	14
1.61500	-5
1.61867	-17
1.62233	-22
1.62600	-24
1.62967	-30
1.63333	-35
1.63700	-40
1.64067	-46
1.64433	-47
1.64800	-47
1.65167	-44
1.65533	-38
1.65900	-35
1.66267	-44
1.66633	-57
1.67000	-70
1.67367	-82
1.67733	-88
1.68100	-89
1.68467	-88
1.68833	-83
1.69200	-79
1.69567	-77
1.69933	-76
1.70300	-75
1.70667	-76
1.71033	-73
1.71400	-73
1.71767	-75
1.72133	-78
1.72500	-76
1.72867	-75
1.73233	-77
1.73600	-78
1.73967	-83
1.74333	-89
1.74700	-90
1.75067	-80
1.75433	-66
1.75800	-59
1.76167	-59
1.76533	-62
1.76900	-68
1.77267	-73
1.77633	-74
1.78000	-72
1.78367	-69
1.78733	-64
1.79100	-64
1.79467	-67
1.79833	-70
1.80200	-74
1.80567	-74
1.80933	-72
1.81300	-71
1.81667	-73
1.82033	-76
1.82400	-81
1.82767	-87
1.83133	-92
1.83500	-94
1.83867	-98
1.84233	-98
1.84600	-94
1.84967	-89
1.85333	-88
1.85700	-92
1.86067	-95
1.86433	-94
1.86800	-88
1.87167	-81
1.87533	-78
1.87900	-76
1.88267	-74
1.88633	-72
1.89000	-73
1.89367	-74
1.89733	-77
1.90100	-80
1.90467	-81
1.90833	-77
1.91200	-68
1.91567	-61
1.91933	-62
1.92300	-70
1.92667	-80
1.93033	-87
1.93400	-91
1.93767	-91
1.94133	-88
1.94500	-83
1.94867	-70
1.95233	-24
1.95600	237
1.95967	1664
1.96333	7724
1.96700	27249
1.97067	75750
1.97433	169364
1.97800	311154
1.98167	483959
1.98533	657391
1.98900	801089
1.99267	892764
1.99633	920451
2.00000	882986
2.00367	790911
2.00733	664362
2.01100	527011
2.01467	398591
2.01833	290632
2.02200	206644
2.02567	144854
2.02933	101132
2.03300	70978
2.03667	50494
2.04033	36674
2.04400	27341
2.04767	20988
2.05133	16608
2.05500	13536
2.05867	11332
2.06233	9707
2.06600	8480
2.06967	7529
2.07333	6773
2.07700	6154
2.08067	5636
2.08433	5199
2.08800	4826
2.09167	4507
2.09533	4230
2.09900	3985
2.10267	3775
2.10633	3584
2.11000	3407
2.11367	3244
2.11733	3100
2.12100	2969
2.12467	2844
2.12833	2727
2.13200	2616
2.13567	2509
2.13933	2412
2.14300	2326
2.14667	2244
2.15033	2166
2.15400	2089
2.15767	2012
2.16133	1937
2.16500	1869
2.16867	1810
2.17233	1754
2.17600	1701
2.17967	1655
2.18333	1612
2.18700	1569
2.19067	1524
2.19433	1480
2.19800	1437
2.20167	1393
2.20533	1353
2.20900	1319
2.21267	1289
2.21633	1260
2.22000	1226
2.22367	1190
2.22733	1162
2.23100	1138
2.23467	1116
2.23833	1101
2.24200	1084
2.24567	1066
2.24933	1047
2.25300	1026
2.25667	1003
2.26033	982
2.26400	962
2.26767	942
2.27133	927
2.27500	913
2.27867	897
2.28233	881
2.28600	862
2.28967	840
2.29333	818
2.29700	801
2.30067	787
2.30433	774
2.30800	757
2.31167	744
2.31533	733
2.31900	724
2.32267	715
2.32633	706
2.33000	699
2.33367	694
2.33733	691
2.34100	689
2.34467	682
2.34833	669
2.35200	654
2.35567	637
2.35933	622
2.36300	612
2.36667	604
2.37033	595
2.37400	590
2.37767	585
2.38133	583
2.38500	579
2.38867	573
2.39233	567
2.39600	562
2.39967	554
2.40333	546
2.40700	540
2.41067	535
2.41433	529
2.41800	520
2.42167	513
2.42533	510
2.42900	509
2.43267	505
2.43633	497
2.44000	490
2.44367	483
2.44733	478
2.45100	478
2.45467	480
2.45833	479
2.46200	467
2.46567	453
2.46933	443
2.47300	435
2.47667	432
2.48033	430
2.48400	425
2.48767	419
2.49133	414
2.49500	414
2.49867	419
2.50233	426
2.50600	432
2.50967	431
2.51333	427
2.51700	426
2.52067	432
2.52433	436
2.52800	434
2.53167	429
2.53533	420
2.53900	408
2.54267	398
2.54633	391
2.55000	389
2.55367	391
2.55733	394
2.56100	396
2.56467	396
2.56833	394
2.57200	393
2.57567	389
2.57933	386
2.58300	381
2.58667	375
2.59033	369
2.59400	364
2.59767	366
2.60133	368
2.60500	362
2.60867	353
2.61233	344
2.61600	338
2.61967	334
2.62333	331
2.62700	330
2.63067	329
2.63433	334
2.63800	342
2.64167	347
2.64533	345
2.64900	338
2.65267	333
2.65633	331
2.66000	332
2.66367	333
2.66733	336
2.67100	337
2.67467	334
2.67833	331
2.68200	330
2.68567	328
2.68933	322
2.69300	316
2.69667	311
2.70033	309
2.70400	307
2.70767	304
2.71133	303
2.71500	306
2.71867	311
2.72233	317
2.72600	319
2.72967	317
2.73333	314
2.73700	311
2.74067	311
2.74433	307
2.74800	301
2.75167	297
2.75533	296
2.75900	294
2.76267	295
2.76633	300
2.77000	309
2.77367	313
2.77733	317
2.78100	323
2.78467	326
2.78833	324
2.79200	318
2.79567	313
2.79933	308
2.80300	304
2.80667	303
2.81033	306
2.81400	312
2.81767	315
2.82133	313
2.82500	305
2.82867	294
2.83233	281
2.83600	278
2.83967	280
2.84333	281
2.84700	282
2.85067	283
2.85433	279
2.85800	273
2.86167	269
2.86533	269
2.86900	275
2.87267	281
2.87633	287
2.88000	290
2.88367	292
2.88733	296
2.89100	300
2.89467	297
2.89833	290
2.90200	282
2.90567	274
2.90933	272
2.91300	274
2.91667	277
2.92033	276
2.92400	277
2.92767	277
2.93133	274
2.93500	272
2.93867	275
2.94233	281
2.94600	283
2.94967	278
2.95333	269
2.95700	263
2.96067	263
2.96433	269
2.96800	275
2.97167	277
2.97533	275
2.97900	278
2.98267	285
2.98633	292
2.99000	295
2.99367	292
2.99733	293
3.00100	296
3.00467	297
3.00833	293
3.01200	285
3.01567	276
3.01933	269
3.02300	263
3.02667	256
3.03033	250
3.03400	248
3.03767	249
3.04133	255
3.04500	265
3.04867	275
3.05233	278
3.05600	274
3.05967	268
3.06333	263
3.06700	257
3.07067	252
3.07433	249
3.07800	249
3.08167	247
3.08533	244
3.08900	239
3.09267	236
3.09633	232
3.10000	228
3.10367	226
3.10733	229
3.11100	235
3.11467	241
3.11833	242
3.12200	240
3.12567	236
3.12933	231
3.13300	229
3.13667	230
3.14033	238
3.14400	247
3.14767	251
3.15133	248
3.15500	244
3.15867	242
3.16233	242
3.16600	242
3.16967	241
3.17333	240
3.17700	242
3.18067	247
3.18433	250
3.18800	251
3.19167	250
3.19533	249
3.19900	250
3.20267	249
3.20633	251
3.21000	255
3.21367	261
3.21733	260
3.22100	252
3.22467	244
3.22833	243
3.23200	244
3.23567	237
3.23933	225
3.24300	214
3.24667	208
3.25033	204
3.25400	205
3.25767	207
3.26133	209
3.26500	209
3.26867	215
3.27233	222
3.27600	222
3.27967	216
3.28333	211
3.28700	209
3.29067	206
3.29433	205
3.29800	207
3.30167	212
3.30533	216
3.30900	213
3.31267	214
3.31633	220
3.32000	225
3.32367	227
3.32733	225
3.33100	221
3.33467	218
3.33833	216
3.34200	214
3.34567	215
3.34933	215
3.35300	218
3.35667	222
3.36033	224
3.36400	222
3.36767	216
3.37133	206
3.37500	194
3.37867	185
3.38233	180
3.38600	184
3.38967	194
3.39333	200
3.39700	203
3.40067	201
3.40433	200
3.40800	202
3.41167	203
3.41533	201
3.41900	202
3.42267	200
3.42633	193
3.43000	189
3.43367	189
3.43733	192
3.44100	197
3.44467	198
3.44833	195
3.45200	188
3.45567	181
3.45933	177
3.46300	180
3.46667	186
3.47033	190
3.47400	191
3.47767	191
3.48133	188
3.48500	186
3.48867	186
3.49233	189
3.49600	193
3.49967	189
3.50333	181
3.50700	174
3.51067	171
3.51433	170
3.51800	168
3.52167	165
3.52533	168
3.52900	173
3.53267	174
3.53633	172
3.54000	170
3.54367	169
3.54733	174
3.55100	179
3.55467	180
3.55833	173
3.56200	162
3.56567	153
3.56933	149
3.57300	152
3.57667	160
3.58033	170
3.58400	177
3.58767	177
3.59133	170
3.59500	159
3.59867	152
3.60233	151
3.60600	152
3.60967	156
3.61333	162
3.61700	166
3.62067	167
3.62433	167
3.62800	164
3.63167	156
3.63533	151
3.63900	149
3.64267	147
3.64633	146
3.65000	145
3.65367	144
3.65733	145
3.66100	153
3.66467	166
3.66833	172
3.67200	168
3.67567	158
3.67933	150
3.68300	145
3.68667	141
3.69033	139
3.69400	138
3.69767	137
3.70133	135
3.70500	132
3.70867	130
3.71233	133
3.71600	138
3.71967	138
3.72333	132
3.72700	126
3.73067	125
3.73433	124
3.73800	124
3.74167	125
3.74533	129
3.74900	131
3.75267	133
3.75633	132
3.76000	132
3.76367	133
3.76733	134
3.77100	135
3.77467	132
3.77833	127
3.78200	122
3.78567	123
3.78933	130
3.79300	135
3.79667	141
3.80033	147
3.80400	152
3.80767	155
3.81133	155
3.81500	152
3.81867	142
3.82233	131
3.82600	122
3.82967	119
3.83333	126
3.83700	134
3.84067	138
3.84433	142
3.84800	145
3.85167	141
3.85533	132
3.85900	126
3.86267	121
3.86633	116
3.87000	113
3.87367	111
3.87733	109
3.88100	110
3.88467	110
3.88833	113
3.89200	118
3.89567	123
3.89933	125
3.90300	123
3.90667	114
3.91033	105
3.91400	102
3.91767	103
3.92133	103
3.92500	103
3.92867	100
3.93233	99
3.93600	103
3.93967	108
3.94333	114
3.94700	120
3.95067	123
3.95433	124
3.95800	120
3.96167	111
3.96533	102
3.96900	95
3.97267	92
3.97633	92
3.98000	94
3.98367	97
3.98733	98
3.99100	96
3.99467	94
3.99833	97

[Chromatogram (Ch2)]
Interval(msec)	220
# of Points	1091
Start Time(min)	0.002
End Time(min)	3.998
R.Time (min)	Intensity
0.00167	0
0.00533	1
0.00900	1
0.01267	1
0.01633	1
0.02000	1
0.02367	1
0.02733	1
0.03100	0
0.03467	0
0.03833	0
0.04200	0
0.04567	-0
0.04933	-0
0.05300	-0
0.05667	-0
0.06033	0
0.06400	1
0.06767	1
0.07133	1
0.07500	1
0.07867	2
0.08233	2
0.08600	2
0.08967	3
0.09333	3
0.09700	4
0.10067	4
0.10433	4
0.10800	4
0.11167	4
0.11533	4
0.11900	4
0.12267	4
0.12633	4
0.13000	3
0.13367	3
0.13733	3
0.14100	2
0.14467	2
0.14833	2
0.15200	2
0.15567	2
0.15933	2
0.16300	2
0.16667	2
0.17033	2
0.17400	2
0.17767	2
0.18133	1
0.18500	1
0.18867	1
0.19233	0
0.19600	0
0.19967	1
0.20333	1
0.20700	1
0.21067	1
0.21433	2
0.21800	2
0.22167	2
0.22533	2
0.22900	2
0.23267	2
0.23633	1
0.24000	1
0.24367	1
0.24733	1
0.25100	1
0.25467	2
0.25833	2
0.26200	2
0.26567	2
0.26933	2
0.27300	2
0.27667	2
0.28033	2
0.28400	2
0.28767	2
0.29133	2
0.29500	2
0.29867	2
0.30233	2
0.30600	2
0.30967	2
0.31333	2
0.31700	2
0.32067	2
0.32433	2
0.32800	2
0.33167	2
0.33533	2
0.33900	2
0.34267	2
0.34633	3
0.35000	3
0.35367	3
0.35733	4
0.36100	4
0.36467	5
0.36833	5
0.37200	5
0.37567	6
0.37933	6
0.38300	6
0.38667	6
0.39033	5
0.39400	5
0.39767	5
0.40133	4
0.40500	4
0.40867	3
0.41233	3
0.41600	2
0.41967	2
0.42333	2
0.42700	1
0.43067	1
0.43433	1
0.43800	1
0.44167	1
0.44533	0
0.44900	1
0.45267	1
0.45633	1
0.46000	1
0.46367	1
0.46733	2
0.47100	2
0.47467	2
0.47833	2
0.48200	2
0.48567	2
0.48933	2
0.49300	2
0.49667	2
0.50033	3
0.50400	2
0.50767	2
0.51133	2
0.51500	2
0.51867	2
0.52233	1
0.52600	1
0.52967	1
0.53333	0
0.53700	-0
0.54067	-0
0.54433	-0
0.54800	-0
0.55167	-0
0.55533	-0
0.55900	-0
0.56267	-0
0.56633	-0
0.57000	-0
0.57367	-0
0.57733	-0
0.58100	-1
0.58467	-1
0.58833	-0
0.59200	-0
0.59567	-0
0.59933	-0
0.60300	-0
0.60667	-0
0.61033	0
0.61400	0
0.61767	1
0.62133	1
0.62500	1
0.62867	1
0.63233	1
0.63600	1
0.63967	2
0.64333	2
0.64700	3
0.65067	3
0.65433	3
0.65800	3
0.66167	3
0.66533	3
0.66900	3
0.67267	3
0.67633	3
0.68000	2
0.68367	2
0.68733	1
0.69100	1
0.69467	0
0.69833	-0
0.70200	-1
0.70567	-1
0.70933	-1
0.71300	-0
0.71667	-0
0.72033	-0
0.72400	0
0.72767	0
0.73133	0
0.73500	1
0.73867	1
0.74233	1
0.74600	1
0.74967	1
0.75333	1
0.75700	1
0.76067	1
0.76433	0
0.76800	0
0.77167	0
0.77533	0
0.77900	0
0.78267	0
0.78633	1
0.79000	1
0.79367	1
0.79733	2
0.80100	2
0.80467	2
0.80833	2
0.81200	3
0.81567	3
0.81933	3
0.82300	3
0.82667	3
0.83033	3
0.83400	3
0.83767	3
0.84133	3
0.84500	3
0.84867	2
0.85233	2
0.85600	1
0.85967	1
0.86333	0
0.86700	0
0.87067	0
0.87433	-0
0.87800	-0
0.88167	-0
0.88533	-0
0.88900	-1
0.89267	-1
0.89633	-1
0.90000	-1
0.90367	-1
0.90733	-1
0.91100	-1
0.91467	-1
0.91833	-1
0.92200	-1
0.92567	-1
0.92933	-1
0.93300	-1
0.93667	-1
0.94033	-1
0.94400	-0
0.94767	-0
0.95133	-0
0.95500	-0
0.95867	0
0.96233	0
0.96600	0
0.96967	-0
0.97333	-0
0.97700	0
0.98067	0
0.98433	0
0.98800	1
0.99167	1
0.99533	1
0.99900	1
1.00267	1
1.00633	2
1.01000	2
1.01367	2
1.01733	2
1.02100	3
1.02467	3
1.02833	4
1.03200	4
1.03567	4
1.03933	4
1.04300	4
1.04667	4
1.05033	4
1.05400	4
1.05767	4
1.06133	4
1.06500	4
1.06867	4
1.07233	3
1.07600	3
1.07967	3
1.08333	3
1.08700	2
1.09067	2
1.09433	2
1.09800	2
1.10167	1
1.10533	1
1.10900	1
1.11267	0
1.11633	0
1.12000	-0
1.12367	-0
1.12733	-0
1.13100	-1
1.13467	-1
1.13833	-1
1.14200	-1
1.14567	-1
1.14933	-2
1.15300	-2
1.15667	-2
1.16033	-2
1.16400	-2
1.16767	-2
1.17133	-2
1.17500	-2
1.17867	-2
1.18233	-2
1.18600	-2
1.18967	-1
1.19333	-1
1.19700	-1
1.20067	-1
1.20433	-1
1.20800	-1
1.21167	-1
1.21533	-0
1.21900	-0
1.22267	-0
1.22633	0
1.23000	0
1.23367	0
1.23733	0
1.24100	0
1.24467	1
1.24833	1
1.25200	1
1.25567	2
1.25933	2
1.26300	3
1.26667	3
1.27033	3
1.27400	4
1.27767	4
1.28133	4
1.28500	4
1.28867	4
1.29233	4
1.29600	4
1.29967	4
1.30333	4
1.30700	4
1.31067	4
1.31433	4
1.31800	4
1.32167	4
1.32533	4
1.32900	3
1.33267	3
1.33633	2
1.34000	2
1.34367	1
1.34733	1
1.35100	0
1.35467	0
1.35833	-0
1.36200	-1
1.36567	-1
1.36933	-2
1.37300	-2
1.37667	-2
1.38033	-2
1.38400	-2
1.38767	-2
1.39133	-3
1.39500	-3
1.39867	-3
1.40233	-3
1.40600	-3
1.40967	-2
1.41333	-2
1.41700	-2
1.42067	-2
1.42433	-2
1.42800	-2
1.43167	-2
1.43533	-2
1.43900	-2
1.44267	-2
1.44633	-2
1.45000	-2
1.45367	-2
1.45733	-1
1.46100	-1
1.46467	-0
1.46833	0
1.47200	1
1.47567	1
1.47933	1
1.48300	2
1.48667	2
1.49033	2
1.49400	1
1.49767	1
1.50133	1
1.50500	0
1.50867	0
1.51233	-0
1.51600	-0
1.51967	-0
1.52333	-0
1.52700	-0
1.53067	-0
1.53433	0
1.53800	0
1.54167	0
1.54533	0
1.54900	1
1.55267	1
1.55633	1
1.56000	1
1.56367	0
1.56733	0
1.57100	0
1.57467	0
1.57833	0
1.58200	0
1.58567	0
1.58933	-0
1.59300	-1
1.59667	-2
1.60033	-3
1.60400	-4
1.60767	-6
1.61133	-8
1.61500	-9
1.61867	-12
1.62233	-14
1.62600	-16
1.62967	-19
1.63333	-22
1.63700	-25
1.64067	-29
1.64433	-32
1.64800	-36
1.65167	-39
1.65533	-42
1.65900	-46
1.66267	-49
1.66633	-53
1.67000	-57
1.67367	-62
1.67733	-67
1.68100	-72
1.68467	-77
1.68833	-82
1.69200	-86
1.69567	-90
1.69933	-93
1.70300	-96
1.70667	-98
1.71033	-99
1.71400	-101
1.71767	-101
1.72133	-102
1.72500	-102
1.72867	-103
1.73233	-103
1.73600	-103
1.73967	-104
1.74333	-104
1.74700	-104
1.75067	-105
1.75433	-105
1.75800	-106
1.76167	-107
1.76533	-108
1.76900	-108
1.77267	-109
1.77633	-110
1.78000	-110
1.78367	-110
1.78733	-110
1.79100	-109
1.79467	-109
1.79833	-108
1.80200	-107
1.80567	-106
1.80933	-106
1.81300	-106
1.81667	-107
1.82033	-107
1.82400	-108
1.82767	-108
1.83133	-109
1.83500	-109
1.83867	-109
1.84233	-110
1.84600	-110
1.84967	-110
1.85333	-111
1.85700	-111
1.86067	-111
1.86433	-111
1.86800	-111
1.87167	-111
1.87533	-112
1.87900	-112
1.88267	-113
1.88633	-113
1.89000	-113
1.89367	-112
1.89733	-112
1.90100	-111
1.90467	-111
1.90833	-111
1.91200	-111
1.91567	-111
1.91933	-110
1.92300	-110
1.92667	-109
1.93033	-109
1.93400	-108
1.93767	-108
1.94133	-107
1.94500	-107
1.94867	-107
1.95233	-107
1.95600	-106
1.95967	-106
1.96333	-105
1.96700	-105
1.97067	-105
1.97433	-105
1.97800	-106
1.98167	-106
1.98533	-106
1.98900	-106
1.99267	-106
1.99633	-106
2.00000	-105
2.00367	-105
2.00733	-105
2.01100	-105
2.01467	-104
2.01833	-104
2.02200	-104
2.02567	-103
2.02933	-103
2.03300	-102
2.03667	-102
2.04033	-102
2.04400	-102
2.04767	-101
2.05133	-101
2.05500	-101
2.05867	-101
2.06233	-100
2.06600	-99
2.06967	-99
2.07333	-98
2.07700	-97
2.08067	-97
2.08433	-97
2.08800	-97
2.09167	-97
2.09533	-96
2.09900	-96
2.10267	-96
2.10633	-96
2.11000	-96
2.11367	-96
2.11733	-95
2.12100	-95
2.12467	-95
2.12833	-94
2.13200	-93
2.13567	-93
2.13933	-93
2.14300	-92
2.14667	-92
2.15033	-92
2.15400	-91
2.15767	-91
2.16133	-91
2.16500	-91
2.16867	-91
2.17233	-90
2.17600	-90
2.17967	-90
2.18333	-89
2.18700	-89
2.19067	-89
2.19433	-89
2.19800	-89
2.20167	-88
2.20533	-88
2.20900	-88
2.21267	-88
2.21633	-87
2.22000	-87
2.22367	-86
2.22733	-86
2.23100	-86
2.23467	-85
2.23833	-85
2.24200	-85
2.24567	-85
2.24933	-84
2.25300	-84
2.25667	-84
2.26033	-84
2.26400	-83
2.26767	-83
2.27133	-82
2.27500	-82
2.27867	-81
2.28233	-81
2.28600	-81
2.28967	-81
2.29333	-82
2.29700	-82
2.30067	-83
2.30433	-83
2.30800	-82
2.31167	-82
2.31533	-81
2.31900	-81
2.32267	-80
2.32633	-80
2.33000	-80
2.33367	-79
2.33733	-79
2.34100	-79
2.34467	-78
2.34833	-77
2.35200	-76
2.35567	-75
2.35933	-74
2.36300	-73
2.36667	-71
2.37033	-69
2.37400	-67
2.37767	-64
2.38133	-61
2.38500	-57
2.38867	-52
2.39233	-48
2.39600	-44
2.39967	-39
2.40333	-35
2.40700	-31
2.41067	-27
2.41433	-23
2.41800	-20
2.42167	-17
2.42533	-15
2.42900	-13
2.43267	-11
2.43633	-10
2.44000	-9
2.44367	-8
2.44733	-8
2.45100	-7
2.45467	-6
2.45833	-5
2.46200	-3
2.46567	-2
2.46933	-1
2.47300	0
2.47667	1
2.48033	2
2.48400	3
2.48767	4
2.49133	5
2.49500	6
2.49867	7
2.50233	8
2.50600	9
2.50967	9
2.51333	10
2.51700	11
2.52067	12
2.52433	13
2.52800	14
2.53167	15
2.53533	16
2.53900	16
2.54267	16
2.54633	16
2.55000	16
2.55367	17
2.55733	17
2.56100	17
2.56467	18
2.56833	18
2.57200	18
2.57567	17
2.57933	17
2.58300	17
2.58667	16
2.59033	16
2.59400	16
2.59767	16
2.60133	16
2.60500	16
2.60867	17
2.61233	17
2.61600	17
2.61967	18
2.62333	18
2.62700	19
2.63067	19
2.63433	20
2.63800	20
2.64167	20
2.64533	21
2.64900	21
2.65267	21
2.65633	22
2.66000	22
2.66367	23
2.66733	23
2.67100	23
2.67467	24
2.67833	24
2.68200	24
2.68567	25
2.68933	25
2.69300	25
2.69667	25
2.70033	25
2.70400	25
2.70767	25
2.71133	25
2.71500	25
2.71867	25
2.72233	25
2.72600	25
2.72967	25
2.73333	26
2.73700	26
2.74067	27
2.74433	27
2.74800	28
2.75167	28
2.75533	28
2.75900	28
2.76267	27
2.76633	27
2.77000	27
2.77367	27
2.77733	28
2.78100	28
2.78467	28
2.78833	28
2.79200	28
2.79567	28
2.79933	28
2.80300	28
2.80667	28
2.81033	29
2.81400	28
2.81767	28
2.82133	29
2.82500	29
2.82867	29
2.83233	29
2.83600	29
2.83967	28
2.84333	27
2.84700	24
2.85067	19
2.85433	11
2.85800	-1
2.86167	-17
2.86533	-36
2.86900	-61
2.87267	-90
2.87633	-123
2.88000	-161
2.88367	-202
2.88733	-247
2.89100	-296
2.89467	-347
2.89833	-400
2.90200	-455
2.90567	-511
2.90933	-568
2.91300	-624
2.91667	-680
2.92033	-736
2.92400	-789
2.92767	-841
2.93133	-893
2.93500	-950
2.93867	-1008
2.94233	-1061
2.94600	-1095
2.94967	-1106
2.95333	-1090
2.95700	-1050
2.96067	-992
2.96433	-921
2.96800	-843
2.97167	-762
2.97533	-681
2.97900	-603
2.98267	-530
2.98633	-463
2.99000	-402
2.99367	-347
2.99733	-298
3.00100	-255
3.00467	-217
3.00833	-183
3.01200	-155
3.01567	-130
3.01933	-108
3.02300	-89
3.02667	-73
3.03033	-59
3.03400	-47
3.03767	-37
3.04133	-28
3.04500	-21
3.04867	-15
3.05233	-10
3.05600	-6
3.05967	-3
3.06333	1
3.06700	3
3.07067	5
3.07433	7
3.07800	9
3.08167	10
3.08533	11
3.08900	12
3.09267	13
3.09633	13
3.10000	14
3.10367	14
3.10733	14
3.11100	15
3.11467	15
3.11833	15
3.12200	16
3.12567	16
3.12933	17
3.13300	18
3.13667	18
3.14033	18
3.14400	19
3.14767	19
3.15133	19
3.15500	20
3.15867	20
3.16233	20
3.16600	20
3.16967	20
3.17333	20
3.17700	20
3.18067	20
3.18433	20
3.18800	20
3.19167	21
3.19533	21
3.19900	21
3.20267	21
3.20633	21
3.21000	21
3.21367	21
3.21733	21
3.22100	22
3.22467	22
3.22833	22
3.23200	22
3.23567	23
3.23933	23
3.24300	23
3.24667	24
3.25033	24
3.25400	24
3.25767	24
3.26133	24
3.26500	24
3.26867	24
3.27233	24
3.27600	24
3.27967	24
3.28333	24
3.28700	24
3.29067	25
3.29433	25
3.29800	25
3.30167	25
3.30533	25
3.30900	25
3.31267	25
3.31633	26
3.32000	26
3.32367	26
3.32733	26
3.33100	26
3.33467	26
3.33833	26
3.34200	26
3.34567	26
3.34933	27
3.35300	27
3.35667	27
3.36033	27
3.36400	27
3.36767	27
3.37133	27
3.37500	27
3.37867	28
3.38233	28
3.38600	29
3.38967	29
3.39333	29
3.39700	29
3.40067	30
3.40433	30
3.40800	30
3.41167	30
3.41533	31
3.41900	31
3.42267	31
3.42633	31
3.43000	31
3.43367	31
3.43733	31
3.44100	31
3.44467	31
3.44833	31
3.45200	31
3.45567	31
3.45933	30
3.46300	30
3.46667	30
3.47033	30
3.47400	30
3.47767	30
3.48133	30
3.48500	30
3.48867	30
3.49233	30
3.49600	30
3.49967	30
3.50333	30
3.50700	30
3.51067	30
3.51433	30
3.51800	30
3.52167	30
3.52533	30
3.52900	30
3.53267	30
3.53633	31
3.54000	31
3.54367	31
3.54733	31
3.55100	31
3.55467	31
3.55833	31
3.56200	32
3.56567	32
3.56933	32
3.57300	32
3.57667	32
3.58033	32
3.58400	31
3.58767	31
3.59133	31
3.59500	30
3.59867	30
3.60233	29
3.60600	29
3.60967	28
3.61333	28
3.61700	27
3.62067	27
3.62433	27
3.62800	27
3.63167	27
3.63533	27
3.63900	28
3.64267	28
3.64633	28
3.65000	28
3.65367	28
3.65733	28
3.66100	28
3.66467	28
3.66833	28
3.67200	28
3.67567	27
3.67933	28
3.68300	28
3.68667	28
3.69033	29
3.69400	29
3.69767	29
3.70133	30
3.70500	30
3.70867	30
3.71233	31
3.71600	31
3.71967	31
3.72333	31
3.72700	32
3.73067	32
3.73433	32
3.73800	32
3.74167	31
3.74533	31
3.74900	30
3.75267	30
3.75633	29
3.76000	29
3.76367	29
3.76733	29
3.77100	29
3.77467	29
3.77833	29
3.78200	29
3.78567	30
3.78933	30
3.79300	30
3.79667	29
3.80033	29
3.80400	29
3.80767	28
3.81133	28
3.81500	28
3.81867	28
3.82233	28
3.82600	28
3.82967	28
3.83333	28
3.83700	28
3.84067	28
3.84433	29
3.84800	29
3.85167	29
3.85533	29
3.85900	30
3.86267	30
3.86633	30
3.87000	30
3.87367	30
3.87733	30
3.88100	30
3.88467	30
3.88833	30
3.89200	29
3.89567	29
3.89933	29
3.90300	29
3.90667	29
3.91033	28
3.91400	28
3.91767	28
3.92133	28
3.92500	28
3.92867	28
3.93233	28
3.93600	28
3.93967	28
3.94333	28
3.94700	28
3.95067	28
3.95433	28
3.95800	27
3.96167	27
3.96533	27
3.96900	27
3.97267	27
3.97633	27
3.98000	27
3.98367	28
3.98733	28
3.99100	28
3.99467	28
3.99833	28

[Chromatogram (Ch3)]
Interval(msec)	220
# of Points	1091
Start Time(min)	0.002
End Time(min)	3.998
R.Time (min)	Intensity
0.00167	1
0.00533	1
0.00900	-1
0.01267	-2
0.01633	-1
0.02000	-0
0.02367	-1
0.02733	-1
0.03100	0
0.03467	2
0.03833	2
0.04200	0
0.04567	1
0.04933	2
0.05300	-0
0.05667	-2
0.06033	-4
0.06400	-4
0.06767	-2
0.07133	-0
0.07500	-1
0.07867	-1
0.08233	-3
0.08600	-5
0.08967	-3
0.09333	1
0.09700	2
0.10067	3
0.10433	4
0.10800	4
0.11167	6
0.11533	8
0.11900	8
0.12267	5
0.12633	5
0.13000	5
0.13367	3
0.13733	2
0.14100	-0
0.14467	-0
0.14833	3
0.15200	5
0.15567	7
0.15933	9
0.16300	8
0.16667	8
0.17033	8
0.17400	7
0.17767	7
0.18133	7
0.18500	6
0.18867	6
0.19233	5
0.19600	2
0.19967	0
0.20333	-2
0.20700	-2
0.21067	-0
0.21433	1
0.21800	3
0.22167	5
0.22533	7
0.22900	8
0.23267	6
0.23633	6
0.24000	6
0.24367	6
0.24733	6
0.25100	4
0.25467	4
0.25833	4
0.26200	4
0.26567	4
0.26933	4
0.27300	5
0.27667	5
0.28033	4
0.28400	4
0.28767	7
0.29133	7
0.29500	7
0.29867	6
0.30233	5
0.30600	4
0.30967	4
0.31333	6
0.31700	7
0.32067	7
0.32433	6
0.32800	7
0.33167	8
0.33533	7
0.33900	4
0.34267	2
0.34633	3
0.35000	4
0.35367	5
0.35733	6
0.36100	6
0.36467	4
0.36833	5
0.37200	7
0.37567	8
0.37933	7
0.38300	8
0.38667	9
0.39033	7
0.39400	6
0.39767	8
0.40133	9
0.40500	10
0.40867	10
0.41233	10
0.41600	9
0.41967	8
0.42333	8
0.42700	6
0.43067	5
0.43433	4
0.43800	2
0.44167	3
0.44533	4
0.44900	2
0.45267	2
0.45633	3
0.46000	4
0.46367	3
0.46733	3
0.47100	4
0.47467	5
0.47833	4
0.48200	5
0.48567	5
0.48933	6
0.49300	7
0.49667	9
0.50033	10
0.50400	9
0.50767	9
0.51133	8
0.51500	8
0.51867	6
0.52233	5
0.52600	6
0.52967	5
0.53333	5
0.53700	6
0.54067	6
0.54433	7
0.54800	5
0.55167	4
0.55533	3
0.55900	2
0.56267	0
0.56633	0
0.57000	-0
0.57367	2
0.57733	3
0.58100	4
0.58467	2
0.58833	3
0.59200	3
0.59567	5
0.59933	7
0.60300	9
0.60667	11
0.61033	10
0.61400	9
0.61767	10
0.62133	12
0.62500	11
0.62867	12
0.63233	10
0.63600	8
0.63967	6
0.64333	5
0.64700	3
0.65067	3
0.65433	4
0.65800	4
0.66167	5
0.66533	4
0.66900	4
0.67267	5
0.67633	5
0.68000	5
0.68367	6
0.68733	6
0.69100	7
0.69467	6
0.69833	5
0.70200	4
0.70567	4
0.70933	3
0.71300	3
0.71667	4
0.72033	5
0.72400	6
0.72767	6
0.73133	4
0.73500	5
0.73867	7
0.74233	8
0.74600	9
0.74967	11
0.75333	11
0.75700	10
0.76067	8
0.76433	9
0.76800	9
0.77167	9
0.77533	9
0.77900	8
0.78267	7
0.78633	8
0.79000	10
0.79367	11
0.79733	12
0.80100	14
0.80467	12
0.80833	12
0.81200	11
0.81567	10
0.81933	9
0.82300	8
0.82667	9
0.83033	8
0.83400	7
0.83767	8
0.84133	10
0.84500	11
0.84867	10
0.85233	11
0.85600	12
0.85967	12
0.86333	11
0.86700	11
0.87067	11
0.87433	10
0.87800	11
0.88167	12
0.88533	13
0.88900	12
0.89267	12
0.89633	12
0.90000	14
0.90367	16
0.90733	15
0.91100	14
0.91467	13
0.91833	14
0.92200	14
0.92567	13
0.92933	13
0.93300	12
0.93667	14
0.94033	15
0.94400	16
0.94767	16
0.95133	14
0.95500	12
0.95867	10
0.96233	8
0.96600	8
0.96967	9
0.97333	10
0.97700	8
0.98067	7
0.98433	9
0.98800	9
0.99167	8
0.99533	10
0.99900	10
1.00267	11
1.00633	11
1.01000	11
1.01367	12
1.01733	15
1.02100	16
1.02467	16
1.02833	13
1.03200	11
1.03567	11
1.03933	12
1.04300	14
1.04667	15
1.05033	16
1.05400	17
1.05767	19
1.06133	20
1.06500	20
1.06867	20
1.07233	18
1.07600	18
1.07967	18
1.08333	18
1.08700	18
1.09067	19
1.09433	20
1.09800	20
1.10167	18
1.10533	17
1.10900	16
1.11267	16
1.11633	17
1.12000	18
1.12367	19
1.12733	18
1.13100	18
1.13467	16
1.13833	14
1.14200	13
1.14567	13
1.14933	14
1.15300	16
1.15667	17
1.16033	18
1.16400	18
1.16767	18
1.17133	18
1.17500	17
1.17867	17
1.18233	17
1.18600	16
1.18967	16
1.19333	18
1.19700	19
1.20067	17
1.20433	16
1.20800	16
1.21167	17
1.21533	17
1.21900	16
1.22267	14
1.22633	15
1.23000	16
1.23367	15
1.23733	15
1.24100	16
1.24467	19
1.24833	21
1.25200	21
1.25567	22
1.25933	21
1.26300	20
1.26667	21
1.27033	19
1.27400	18
1.27767	18
1.28133	18
1.28500	18
1.28867	16
1.29233	17
1.29600	17
1.29967	18
1.30333	19
1.30700	21
1.31067	22
1.31433	22
1.31800	22
1.32167	21
1.32533	21
1.32900	21
1.33267	20
1.33633	20
1.34000	21
1.34367	22
1.34733	25
1.35100	27
1.35467	26
1.35833	24
1.36200	23
1.36567	22
1.36933	21
1.37300	19
1.37667	17
1.38033	15
1.38400	16
1.38767	16
1.39133	17
1.39500	19
1.39867	20
1.40233	20
1.40600	20
1.40967	18
1.41333	18
1.41700	18
1.42067	16
1.42433	18
1.42800	18
1.43167	16
1.43533	16
1.43900	18
1.44267	20
1.44633	22
1.45000	20
1.45367	20
1.45733	20
1.46100	19
1.46467	17
1.46833	18
1.47200	19
1.47567	19
1.47933	20
1.48300	21
1.48667	23
1.49033	25
1.49400	26
1.49767	27
1.50133	28
1.50500	27
1.50867	27
1.51233	25
1.51600	24
1.51967	23
1.52333	22
1.52700	20
1.53067	21
1.53433	22
1.53800	25
1.54167	27
1.54533	28
1.54900	26
1.55267	25
1.55633	25
1.56000	23
1.56367	23
1.56733	23
1.57100	20
1.57467	19
1.57833	22
1.58200	23
1.58567	24
1.58933	24
1.59300	23
1.59667	22
1.60033	22
1.60400	24
1.60767	25
1.61133	25
1.61500	29
1.61867	32
1.62233	33
1.62600	31
1.62967	30
1.63333	30
1.63700	29
1.64067	28
1.64433	28
1.64800	28
1.65167	28
1.65533	29
1.65900	31
1.66267	34
1.66633	36
1.67000	37
1.67367	39
1.67733	41
1.68100	44
1.68467	44
1.68833	43
1.69200	42
1.69567	42
1.69933	41
1.70300	40
1.70667	40
1.71033	42
1.71400	44
1.71767	44
1.72133	44
1.72500	45
1.72867	45
1.73233	43
1.73600	42
1.73967	42
1.74333	41
1.74700	41
1.75067	41
1.75433	42
1.75800	43
1.76167	44
1.76533	45
1.76900	47
1.77267	50
1.77633	53
1.78000	54
1.78367	51
1.78733	48
1.79100	45
1.79467	44
1.79833	46
1.80200	47
1.80567	47
1.80933	47
1.81300	47
1.81667	47
1.82033	48
1.82400	51
1.82767	54
1.83133	55
1.83500	56
1.83867	55
1.84233	53
1.84600	52
1.84967	50
1.85333	49
1.85700	50
1.86067	50
1.86433	54
1.86800	58
1.87167	63
1.87533	64
1.87900	65
1.88267	64
1.88633	64
1.89000	65
1.89367	65
1.89733	65
1.90100	65
1.90467	66
1.90833	66
1.91200	66
1.91567	68
1.91933	68
1.92300	68
1.92667	69
1.93033	71
1.93400	72
1.93767	74
1.94133	76
1.94500	77
1.94867	78
1.95233	79
1.95600	79
1.95967	79
1.96333	80
1.96700	80
1.97067	81
1.97433	83
1.97800	85
1.98167	85
1.98533	86
1.98900	86
1.99267	86
1.99633	89
2.00000	92
2.00367	95
2.00733	97
2.01100	100
2.01467	102
2.01833	101
2.02200	100
2.02567	101
2.02933	103
2.03300	107
2.03667	109
2.04033	112
2.04400	113
2.04767	113
2.05133	115
2.05500	117
2.05867	117
2.06233	119
2.06600	120
2.06967	121
2.07333	122
2.07700	123
2.08067	123
2.08433	123
2.08800	124
2.09167	125
2.09533	126
2.09900	126
2.10267	126
2.10633	126
2.11000	129
2.11367	130
2.11733	131
2.12100	131
2.12467	131
2.12833	131
2.13200	131
2.13567	134
2.13933	137
2.14300	139
2.14667	142
2.15033	145
2.15400	146
2.15767	148
2.16133	149
2.16500	150
2.16867	153
2.17233	152
2.17600	152
2.17967	151
2.18333	152
2.18700	153
2.19067	156
2.19433	159
2.19800	161
2.20167	160
2.20533	162
2.20900	164
2.21267	163
2.21633	164
2.22000	168
2.22367	172
2.22733	172
2.23100	172
2.23467	173
2.23833	174
2.24200	175
2.24567	176
2.24933	176
2.25300	177
2.25667	178
2.26033	180
2.26400	182
2.26767	183
2.27133	186
2.27500	189
2.27867	190
2.28233	190
2.28600	190
2.28967	190
2.29333	190
2.29700	192
2.30067	195
2.30433	198
2.30800	201
2.31167	203
2.31533	202
2.31900	202
2.32267	203
2.32633	205
2.33000	206
2.33367	209
2.33733	213
2.34100	216
2.34467	218
2.34833	219
2.35200	221
2.35567	223
2.35933	225
2.36300	225
2.36667	223
2.37033	224
2.37400	228
2.37767	230
2.38133	231
2.38500	231
2.38867	226
2.39233	225
2.39600	227
2.39967	232
2.40333	238
2.40700	242
2.41067	243
2.41433	243
2.41800	246
2.42167	251
2.42533	254
2.42900	255
2.43267	257
2.43633	256
2.44000	259
2.44367	316
2.44733	461
2.45100	611
2.45467	734
2.45833	802
2.46200	799
2.46567	751
2.46933	688
2.47300	636
2.47667	600
2.48033	575
2.48400	547
2.48767	508
2.49133	462
2.49500	417
2.49867	379
2.50233	352
2.50600	335
2.50967	326
2.51333	323
2.51700	331
2.52067	348
2.52433	369
2.52800	385
2.53167	392
2.53533	385
2.53900	370
2.54267	348
2.54633	322
2.55000	296
2.55367	272
2.55733	249
2.56100	228
2.56467	212
2.56833	201
2.57200	193
2.57567	186
2.57933	184
2.58300	182
2.58667	179
2.59033	176
2.59400	172
2.59767	170
2.60133	167
2.60500	162
2.60867	155
2.61233	145
2.61600	137
2.61967	129
2.62333	121
2.62700	117
2.63067	114
2.63433	112
2.63800	112
2.64167	114
2.64533	113
2.64900	113
2.65267	114
2.65633	113
2.66000	108
2.66367	100
2.66733	93
2.67100	88
2.67467	80
2.67833	72
2.68200	63
2.68567	56
2.68933	48
2.69300	44
2.69667	43
2.70033	42
2.70400	40
2.70767	40
2.71133	39
2.71500	38
2.71867	36
2.72233	36
2.72600	38
2.72967	40
2.73333	42
2.73700	45
2.74067	48
2.74433	52
2.74800	56
2.75167	58
2.75533	59
2.75900	60
2.76267	63
2.76633	64
2.77000	64
2.77367	64
2.77733	67
2.78100	71
2.78467	75
2.78833	77
2.79200	78
2.79567	80
2.79933	80
2.80300	82
2.80667	86
2.81033	92
2.81400	95
2.81767	101
2.82133	114
2.82500	144
2.82867	206
2.83233	317
2.83600	502
2.83967	782
2.84333	1168
2.84700	1658
2.85067	2230
2.85433	2850
2.85800	3471
2.86167	4044
2.86533	4520
2.86900	4868
2.87267	5068
2.87633	5115
2.88000	5027
2.88367	4826
2.88733	4547
2.89100	4216
2.89467	3861
2.89833	3500
2.90200	3147
2.90567	2809
2.90933	2495
2.91300	2207
2.91667	1950
2.92033	1722
2.92400	1520
2.92767	1338
2.93133	1180
2.93500	1044
2.93867	926
2.94233	821
2.94600	729
2.94967	649
2.95333	578
2.95700	517
2.96067	466
2.96433	422
2.96800	381
2.97167	345
2.97533	313
2.97900	286
2.98267	260
2.98633	239
2.99000	220
2.99367	204
2.99733	190
3.00100	176
3.00467	162
3.00833	151
3.01200	143
3.01567	138
3.01933	135
3.02300	133
3.02667	129
3.03033	125
3.03400	120
3.03767	114
3.04133	112
3.04500	111
3.04867	107
3.05233	103
3.05600	100
3.05967	97
3.06333	93
3.06700	90
3.07067	89
3.07433	88
3.07800	88
3.08167	87
3.08533	85
3.08900	84
3.09267	86
3.09633	88
3.10000	90
3.10367	91
3.10733	92
3.11100	93
3.11467	92
3.11833	90
3.12200	88
3.12567	88
3.12933	87
3.13300	90
3.13667	93
3.14033	94
3.14400	94
3.14767	94
3.15133	95
3.15500	95
3.15867	94
3.16233	95
3.16600	96
3.16967	96
3.17333	96
3.17700	95
3.18067	93
3.18433	93
3.18800	94
3.19167	98
3.19533	100
3.19900	103
3.20267	107
3.20633	112
3.21000	113
3.21367	112
3.21733	111
3.22100	112
3.22467	112
3.22833	112
3.23200	112
3.23567	113
3.23933	114
3.24300	115
3.24667	117
3.25033	119
3.25400	119
3.25767	119
3.26133	121
3.26500	123
3.26867	125
3.27233	126
3.27600	127
3.27967	129
3.28333	131
3.28700	134
3.29067	136
3.29433	136
3.29800	136
3.30167	136
3.30533	137
3.30900	138
3.31267	138
3.31633	136
3.32000	135
3.32367	134
3.32733	137
3.33100	141
3.33467	144
3.33833	145
3.34200	148
3.34567	150
3.34933	150
3.35300	150
3.35667	151
3.36033	152
3.36400	151
3.36767	151
3.37133	154
3.37500	155
3.37867	158
3.38233	159
3.38600	159
3.38967	160
3.39333	160
3.39700	162
3.40067	161
3.40433	139
3.40800	106
3.41167	83
3.41533	64
3.41900	53
3.42267	55
3.42633	67
3.43000	87
3.43367	112
3.43733	138
3.44100	163
3.44467	187
3.44833	213
3.45200	239
3.45567	263
3.45933	286
3.46300	310
3.46667	333
3.47033	356
3.47400	375
3.47767	394
3.48133	409
3.48500	421
3.48867	433
3.49233	444
3.49600	453
3.49967	459
3.50333	464
3.50700	470
3.51067	476
3.51433	484
3.51800	492
3.52167	497
3.52533	498
3.52900	500
3.53267	503
3.53633	506
3.54000	507
3.54367	510
3.54733	513
3.55100	516
3.55467	518
3.55833	519
3.56200	519
3.56567	518
3.56933	518
3.57300	519
3.57667	517
3.58033	517
3.58400	519
3.58767	521
3.59133	523
3.59500	522
3.59867	523
3.60233	527
3.60600	531
3.60967	530
3.61333	529
3.61700	528
3.62067	527
3.62433	527
3.62800	525
3.63167	524
3.63533	522
3.63900	519
3.64267	520
3.64633	522
3.65000	522
3.65367	520
3.65733	518
3.66100	516
3.66467	516
3.66833	517
3.67200	517
3.67567	518
3.67933	516
3.68300	515
3.68667	515
3.69033	518
3.69400	522
3.69767	524
3.70133	526
3.70500	528
3.70867	529
3.71233	530
3.71600	530
3.71967	529
3.72333	528
3.72700	527
3.73067	525
3.73433	523
3.73800	522
3.74167	523
3.74533	525
3.74900	527
3.75267	528
3.75633	528
3.76000	530
3.76367	532
3.76733	533
3.77100	533
3.77467	534
3.77833	534
3.78200	535
3.78567	538
3.78933	538
3.79300	540
3.79667	543
3.80033	544
3.80400	544
3.80767	542
3.81133	541
3.81500	540
3.81867	539
3.82233	537
3.82600	538
3.82967	539
3.83333	540
3.83700	539
3.84067	539
3.84433	540
3.84800	542
3.85167	542
3.85533	542
3.85900	544
3.86267	546
3.86633	546
3.87000	543
3.87367	540
3.87733	538
3.88100	538
3.88467	537
3.88833	537
3.89200	536
3.89567	537
3.89933	541
3.90300	541
3.90667	539
3.91033	538
3.91400	538
3.91767	538
3.92133	537
3.92500	535
3.92867	535
3.93233	539
3.93600	540
3.93967	539
3.94333	536
3.94700	532
3.95067	528
3.95433	526
3.95800	526
3.96167	525
3.96533	524
3.96900	524
3.97267	525
3.97633	525
3.98000	525
3.98367	523
3.98733	522
3.99100	522
3.99467	521
3.99833	520

[Status Trace (Column Oven Temperature)]
Interval(msec)	1000
# of Points	240
Start Time(min)	0.015
End Time(min)	3.999
Intensity Units	
Intensity Multiplier	1
R.Time (min)	Intensity
0.01545	35.05
0.03212	35.05
0.04878	35.06
0.06545	35.05
0.08212	35.05
0.09878	35.04
0.11545	35.04
0.13212	35.04
0.14878	35.04
0.16545	35.05
0.18212	35.05
0.19878	35.05
0.21545	35.04
0.23212	35.04
0.24878	35.05
0.26545	35.04
0.28212	35.04
0.29878	35.04
0.31545	35.03
0.33212	35.02
0.34878	35.01
0.36545	34.99
0.38212	34.99
0.39878	34.99
0.41545	35.00
0.43212	35.00
0.44878	35.00
0.46545	34.99
0.48212	34.99
0.49878	34.99
0.51545	35.00
0.53212	35.00
0.54878	35.01
0.56545	35.01
0.58212	35.01
0.59878	35.01
0.61545	35.01
0.63212	35.01
0.64878	35.00
0.66545	35.00
0.68212	35.01
0.69878	35.01
0.71545	35.01
0.73212	35.01
0.74878	35.01
0.76545	35.02
0.78212	35.02
0.79878	35.01
0.81545	35.00
0.83212	34.99
0.84878	34.98
0.86545	35.00
0.88212	35.01
0.89878	35.02
0.91545	35.03
0.93212	35.04
0.94878	35.03
0.96545	35.03
0.98212	35.02
0.99878	35.01
1.01545	35.00
1.03212	34.98
1.04878	34.97
1.06545	34.96
1.08212	34.96
1.09878	34.97
1.11545	34.99
1.13212	34.99
1.14878	35.00
1.16545	35.01
1.18212	35.01
1.19878	35.01
1.21545	35.01
1.23212	35.01
1.24878	35.00
1.26545	34.97
1.28212	34.97
1.29878	34.96
1.31545	34.95
1.33212	34.95
1.34878	34.96
1.36545	34.98
1.38212	34.99
1.39878	34.99
1.41545	35.01
1.43212	35.01
1.44878	35.01
1.46545	35.01
1.48212	35.00
1.49878	35.00
1.51545	35.00
1.53212	35.00
1.54878	35.00
1.56545	34.99
1.58212	35.00
1.59878	35.04
1.61545	35.13
1.63212	35.29
1.64878	35.48
1.66545	35.76
1.68212	36.12
1.69878	36.49
1.71545	36.84
1.73212	37.16
1.74878	37.49
1.76545	37.84
1.78212	38.17
1.79878	38.47
1.81545	38.81
1.83212	39.13
1.84878	39.47
1.86545	39.79
1.88212	40.14
1.89878	40.46
1.91545	40.80
1.93212	41.12
1.94878	41.45
1.96545	41.76
1.98212	42.09
1.99878	42.41
2.01545	42.73
2.03212	43.05
2.04878	43.40
2.06545	43.71
2.08212	44.04
2.09878	44.37
2.11545	44.70
2.13212	45.02
2.14878	45.33
2.16545	45.67
2.18212	45.99
2.19878	46.33
2.21545	46.66
2.23212	46.99
2.24878	47.31
2.26545	47.64
2.28212	47.98
2.29878	48.34
2.31545	48.63
2.33212	48.98
2.34878	49.29
2.36545	49.55
2.38212	49.66
2.39878	49.68
2.41545	49.68
2.43212	49.69
2.44878	49.70
2.46545	49.71
2.48212	49.73
2.49878	49.74
2.51545	49.74
2.53212	49.74
2.54878	49.76
2.56545	49.77
2.58212	49.81
2.59878	49.82
2.61545	49.82
2.63212	49.82
2.64878	49.83
2.66545	49.84
2.68212	49.83
2.69878	49.84
2.71545	49.85
2.73212	49.85
2.74878	49.85
2.76545	49.86
2.78212	49.86
2.79878	49.87
2.81545	49.88
2.83212	49.87
2.84878	49.84
2.86545	49.88
2.88212	49.92
2.89878	49.94
2.91545	49.96
2.93212	49.97
2.94878	49.98
2.96545	49.98
2.98212	49.97
2.99878	49.97
3.01545	49.96
3.03212	49.95
3.04878	49.94
3.06545	49.94
3.08212	49.95
3.09878	49.96
3.11545	49.96
3.13212	49.97
3.14878	49.99
3.16545	50.01
3.18212	50.03
3.19878	50.04
3.21545	50.05
3.23212	50.06
3.24878	50.06
3.26545	50.07
3.28212	50.08
3.29878	50.09
3.31545	50.09
3.33212	50.10
3.34878	50.11
3.36545	50.11
3.38212	50.10
3.39878	50.09
3.41545	50.08
3.43212	50.07
3.44878	50.07
3.46545	50.07
3.48212	50.06
3.49878	50.06
3.51545	50.06
3.53212	50.05
3.54878	50.03
3.56545	50.01
3.58212	50.02
3.59878	50.03
3.61545	50.05
3.63212	50.05
3.64878	50.05
3.66545	50.07
3.68212	50.07
3.69878	50.06
3.71545	50.04
3.73212	50.04
3.74878	50.05
3.76545	50.05
3.78212	50.05
3.79878	50.06
3.81545	50.06
3.83212	50.06
3.84878	50.05
3.86545	50.04
3.88212	50.04
3.89878	50.05
3.91545	50.06
3.93212	50.06
3.94878	50.08
3.96545	50.08
3.98212	50.08
3.99878	50.09

[Status Trace (Injection Unit Temperature)]
Interval(msec)	1000
# of Points	240
Start Time(min)	0.015
End Time(min)	3.999
Intensity Units	
Intensity Multiplier	1
R.Time (min)	Intensity
0.01545	99.97
0.03212	99.98
0.04878	99.98
0.06545	99.98
0.08212	99.98
0.09878	99.98
0.11545	99.97
0.13212	99.98
0.14878	99.98
0.16545	99.98
0.18212	99.98
0.19878	99.98
0.21545	99.98
0.23212	99.98
0.24878	99.98
0.26545	99.98
0.28212	99.98
0.29878	99.98
0.31545	99.98
0.33212	99.98
0.34878	99.99
0.36545	99.99
0.38212	99.99
0.39878	99.98
0.41545	99.98
0.43212	99.98
0.44878	99.99
0.46545	99.99
0.48212	99.99
0.49878	99.99
0.51545	99.99
0.53212	99.99
0.54878	99.99
0.56545	99.99
0.58212	99.99
0.59878	99.99
0.61545	99.99
0.63212	99.98
0.64878	99.98
0.66545	99.99
0.68212	99.99
0.69878	99.99
0.71545	99.99
0.73212	99.98
0.74878	99.99
0.76545	99.99
0.78212	99.98
0.79878	99.99
0.81545	99.99
0.83212	99.99
0.84878	99.99
0.86545	99.99
0.88212	99.99
0.89878	99.99
0.91545	99.99
0.93212	99.99
0.94878	99.99
0.96545	99.99
0.98212	99.99
0.99878	99.99
1.01545	99.98
1.03212	99.99
1.04878	99.99
1.06545	99.99
1.08212	99.99
1.09878	99.99
1.11545	99.99
1.13212	99.99
1.14878	99.99
1.16545	99.99
1.18212	99.99
1.19878	99.99
1.21545	99.99
1.23212	99.99
1.24878	99.99
1.26545	99.99
1.28212	99.99
1.29878	99.99
1.31545	99.99
1.33212	99.99
1.34878	99.99
1.36545	99.99
1.38212	99.99
1.39878	99.99
1.41545	99.98
1.43212	99.99
1.44878	99.99
1.46545	99.98
1.48212	99.98
1.49878	99.98
1.51545	99.98
1.53212	99.99
1.54878	99.99
1.56545	99.99
1.58212	99.99
1.59878	99.99
1.61545	99.99
1.63212	99.99
1.64878	99.98
1.66545	99.98
1.68212	99.99
1.69878	99.99
1.71545	99.99
1.73212	99.99
1.74878	99.99
1.76545	99.98
1.78212	99.98
1.79878	99.98
1.81545	99.98
1.83212	99.98
1.84878	99.98
1.86545	99.98
1.88212	99.98
1.89878	99.98
1.91545	99.98
1.93212	99.98
1.94878	99.98
1.96545	99.98
1.98212	99.98
1.99878	99.98
2.01545	99.98
2.03212	99.97
2.04878	99.97
2.06545	99.98
2.08212	99.98
2.09878	99.97
2.11545	99.97
2.13212	99.97
2.14878	99.97
2.16545	99.97
2.18212	99.96
2.19878	99.97
2.21545	99.96
2.23212	99.96
2.24878	99.96
2.26545	99.96
2.28212	99.97
2.29878	99.96
2.31545	99.96
2.33212	99.96
2.34878	99.96
2.36545	99.96
2.38212	99.96
2.39878	99.96
2.41545	99.96
2.43212	99.96
2.44878	99.96
2.46545	99.96
2.48212	99.96
2.49878	99.96
2.51545	99.96
2.53212	99.96
2.54878	99.96
2.56545	99.96
2.58212	99.96
2.59878	99.96
2.61545	99.97
2.63212	99.96
2.64878	99.97
2.66545	99.97
2.68212	99.97
2.69878	99.98
2.71545	99.98
2.73212	99.98
2.74878	99.98
2.76545	99.98
2.78212	99.98
2.79878	99.98
2.81545	99.99
2.83212	99.99
2.84878	99.99
2.86545	100.00
2.88212	100.00
2.89878	100.00
2.91545	100.00
2.93212	100.00
2.94878	100.00
2.96545	100.00
2.98212	100.01
2.99878	100.01
3.01545	100.01
3.03212	100.01
3.04878	100.02
3.06545	100.01
3.08212	100.01
3.09878	100.02
3.11545	100.02
3.13212	100.02
3.14878	100.02
3.16545	100.02
3.18212	100.02
3.19878	100.02
3.21545	100.02
3.23212	100.02
3.24878	100.02
3.26545	100.03
3.28212	100.02
3.29878	100.03
3.31545	100.03
3.33212	100.02
3.34878	100.03
3.36545	100.03
3.38212	100.03
3.39878	100.03
3.41545	100.03
3.43212	100.03
3.44878	100.03
3.46545	100.03
3.48212	100.03
3.49878	100.03
3.51545	100.03
3.53212	100.04
3.54878	100.04
3.56545	100.04
3.58212	100.04
3.59878	100.04
3.61545	100.03
3.63212	100.04
3.64878	100.04
3.66545	100.04
3.68212	100.04
3.69878	100.04
3.71545	100.04
3.73212	100.04
3.74878	100.04
3.76545	100.04
3.78212	100.04
3.79878	100.04
3.81545	100.04
3.83212	100.05
3.84878	100.04
3.86545	100.05
3.88212	100.04
3.89878	100.04
3.91545	100.05
3.93212	100.05
3.94878	100.05
3.96545	100.04
3.98212	100.05
3.99878	100.05

[Status Trace (Carrier Gas Pressure)]
Interval(msec)	1000
# of Points	240
Start Time(min)	0.015
End Time(min)	3.999
Intensity Units	
Intensity Multiplier	1
R.Time (min)	Intensity
0.01545	57.05
0.03212	55.81
0.04878	58.08
0.06545	59.89
0.08212	58.52
0.09878	57.97
0.11545	58.00
0.13212	58.01
0.14878	58.01
0.16545	58.00
0.18212	58.00
0.19878	58.00
0.21545	58.00
0.23212	58.00
0.24878	58.00
0.26545	58.00
0.28212	58.00
0.29878	58.00
0.31545	58.00
0.33212	58.00
0.34878	58.00
0.36545	58.00
0.38212	58.00
0.39878	58.00
0.41545	58.00
0.43212	58.00
0.44878	58.00
0.46545	58.00
0.48212	58.00
0.49878	58.00
0.51545	58.00
0.53212	58.00
0.54878	58.00
0.56545	58.00
0.58212	58.00
0.59878	58.00
0.61545	58.00
0.63212	58.00
0.64878	58.00
0.66545	58.00
0.68212	58.00
0.69878	58.00
0.71545	58.00
0.73212	58.00
0.74878	58.00
0.76545	58.00
0.78212	58.00
0.79878	58.00
0.81545	58.00
0.83212	58.00
0.84878	58.00
0.86545	58.00
0.88212	58.00
0.89878	58.00
0.91545	58.00
0.93212	58.00
0.94878	58.00
0.96545	58.00
0.98212	58.00
0.99878	58.00
1.01545	58.00
1.03212	58.00
1.04878	58.00
1.06545	58.00
1.08212	58.00
1.09878	58.00
1.11545	58.00
1.13212	58.00
1.14878	58.00
1.16545	58.00
1.18212	58.00
1.19878	58.00
1.21545	58.00
1.23212	58.00
1.24878	58.00
1.26545	58.00
1.28212	58.00
1.29878	58.00
1.31545	58.00
1.33212	58.00
1.34878	58.00
1.36545	58.00
1.38212	58.00
1.39878	58.00
1.41545	58.00
1.43212	58.00
1.44878	58.00
1.46545	58.00
1.48212	58.00
1.49878	58.00
1.51545	58.00
1.53212	58.00
1.54878	58.00
1.56545	58.00
1.58212	58.00
1.59878	58.00
1.61545	58.00
1.63212	58.00
1.64878	58.00
1.66545	58.01
1.68212	58.01
1.69878	58.00
1.71545	58.00
1.73212	58.00
1.74878	58.00
1.76545	58.00
1.78212	58.00
1.79878	58.00
1.81545	58.00
1.83212	58.00
1.84878	58.00
1.86545	58.00
1.88212	58.00
1.89878	58.00
1.91545	58.00
1.93212	58.00
1.94878	58.00
1.96545	58.00
1.98212	58.00
1.99878	58.00
2.01545	58.00
2.03212	58.00
2.04878	58.00
2.06545	58.00
2.08212	58.00
2.09878	58.00
2.11545	58.00
2.13212	58.00
2.14878	58.00
2.16545	58.00
2.18212	58.00
2.19878	58.00
2.21545	58.00
2.23212	58.00
2.24878	58.00
2.26545	58.00
2.28212	58.00
2.29878	58.00
2.31545	58.00
2.33212	58.00
2.34878	58.00
2.36545	58.00
2.38212	57.99
2.39878	57.99
2.41545	58.00
2.43212	58.00
2.44878	58.00
2.46545	58.00
2.48212	58.00
2.49878	58.00
2.51545	57.99
2.53212	57.99
2.54878	58.00
2.56545	58.00
2.58212	58.00
2.59878	58.00
2.61545	58.00
2.63212	58.00
2.64878	58.00
2.66545	58.00
2.68212	58.00
2.69878	58.00
2.71545	58.00
2.73212	58.00
2.74878	58.00
2.76545	58.00
2.78212	58.00
2.79878	58.00
2.81545	58.00
2.83212	58.00
2.84878	58.00
2.86545	58.00
2.88212	58.00
2.89878	58.00
2.91545	58.00
2.93212	58.00
2.94878	58.00
2.96545	58.00
2.98212	58.00
2.99878	58.00
3.01545	58.00
3.03212	58.00
3.04878	58.00
3.06545	58.00
3.08212	58.00
3.09878	58.00
3.11545	58.00
3.13212	58.00
3.14878	58.00
3.16545	58.00
3.18212	58.00
3.19878	58.00
3.21545	58.00
3.23212	58.00
3.24878	58.00
3.26545	58.00
3.28212	58.00
3.29878	58.00
3.31545	58.00
3.33212	58.00
3.34878	58.00
3.36545	58.00
3.38212	58.00
3.39878	58.00
3.41545	58.00
3.43212	58.00
3.44878	58.00
3.46545	58.00
3.48212	58.00
3.49878	58.00
3.51545	58.00
3.53212	58.00
3.54878	58.00
3.56545	58.00
3.58212	58.00
3.59878	58.00
3.61545	58.00
3.63212	58.00
3.64878	58.00
3.66545	58.00
3.68212	58.00
3.69878	58.00
3.71545	58.00
3.73212	58.00
3.74878	58.00
3.76545	58.00
3.78212	58.00
3.79878	58.00
3.81545	58.00
3.83212	58.00
3.84878	58.00
3.86545	58.00
3.88212	58.00
3.89878	58.00
3.91545	58.00
3.93212	58.00
3.94878	58.00
3.96545	58.00
3.98212	58.00
3.99878	58.00

[Status Trace (Carrier Gas Flow)]
Interval(msec)	1000
# of Points	240
Start Time(min)	0.015
End Time(min)	3.999
Intensity Units	
Intensity Multiplier	1
R.Time (min)	Intensity
0.01545	33.82
0.03212	34.55
0.04878	34.55
0.06545	34.50
0.08212	34.51
0.09878	34.53
0.11545	34.52
0.13212	34.52
0.14878	34.52
0.16545	34.52
0.18212	34.51
0.19878	34.52
0.21545	34.52
0.23212	34.52
0.24878	34.52
0.26545	34.53
0.28212	34.51
0.29878	34.52
0.31545	34.52
0.33212	34.52
0.34878	34.52
0.36545	34.52
0.38212	34.52
0.39878	34.52
0.41545	34.51
0.43212	34.52
0.44878	34.51
0.46545	34.52
0.48212	34.52
0.49878	34.52
0.51545	34.52
0.53212	34.52
0.54878	34.52
0.56545	34.52
0.58212	34.52
0.59878	34.52
0.61545	34.52
0.63212	34.52
0.64878	34.52
0.66545	34.52
0.68212	34.52
0.69878	34.52
0.71545	34.52
0.73212	34.52
0.74878	34.52
0.76545	34.52
0.78212	34.52
0.79878	34.51
0.81545	34.51
0.83212	34.52
0.84878	34.52
0.86545	34.52
0.88212	34.51
0.89878	34.52
0.91545	34.52
0.93212	34.52
0.94878	34.52
0.96545	34.52
0.98212	34.52
0.99878	34.52
1.01545	34.52
1.03212	34.52
1.04878	34.52
1.06545	34.52
1.08212	34.51
1.09878	34.52
1.11545	34.52
1.13212	34.52
1.14878	34.51
1.16545	34.52
1.18212	34.52
1.19878	34.52
1.21545	34.51
1.23212	34.52
1.24878	34.52
1.26545	34.52
1.28212	34.52
1.29878	34.52
1.31545	34.52
1.33212	34.52
1.34878	34.52
1.36545	34.52
1.38212	34.52
1.39878	34.52
1.41545	34.52
1.43212	34.52
1.44878	34.52
1.46545	34.52
1.48212	34.52
1.49878	34.52
1.51545	34.52
1.53212	34.52
1.54878	34.52
1.56545	34.52
1.58212	34.52
1.59878	34.52
1.61545	34.51
1.63212	34.52
1.64878	34.52
1.66545	34.52
1.68212	34.52
1.69878	34.52
1.71545	34.53
1.73212	34.52
1.74878	34.52
1.76545	34.52
1.78212	34.52
1.79878	34.52
1.81545	34.52
1.83212	34.52
1.84878	34.52
1.86545	34.52
1.88212	34.52
1.89878	34.52
1.91545	34.52
1.93212	34.52
1.94878	34.52
1.96545	34.52
1.98212	34.52
1.99878	34.52
2.01545	34.52
2.03212	34.52
2.04878	34.52
2.06545	34.52
2.08212	34.51
2.09878	34.52
2.11545	34.52
2.13212	34.52
2.14878	34.52
2.16545	34.52
2.18212	34.52
2.19878	34.52
2.21545	34.52
2.23212	34.52
2.24878	34.52
2.26545	34.52
2.28212	34.51
2.29878	34.52
2.31545	34.52
2.33212	34.52
2.34878	34.52
2.36545	34.52
2.38212	34.51
2.39878	34.52
2.41545	34.52
2.43212	34.52
2.44878	34.52
2.46545	34.52
2.48212	34.52
2.49878	34.52
2.51545	34.52
2.53212	34.52
2.54878	34.52
2.56545	34.52
2.58212	34.52
2.59878	34.52
2.61545	34.52
2.63212	34.52
2.64878	34.52
2.66545	34.52
2.68212	34.52
2.69878	34.52
2.71545	34.52
2.73212	34.52
2.74878	34.52
2.76545	34.52
2.78212	34.52
2.79878	34.51
2.81545	34.52
2.83212	34.51
2.84878	34.51
2.86545	34.52
2.88212	34.52
2.89878	34.52
2.91545	34.52
2.93212	34.52
2.94878	34.52
2.96545	34.52
2.98212	34.52
2.99878	34.52
3.01545	34.52
3.03212	34.52
3.04878	34.52
3.06545	34.52
3.08212	34.52
3.09878	34.52
3.11545	34.52
3.13212	34.52
3.14878	34.52
3.16545	34.52
3.18212	34.52
3.19878	34.52
3.21545	34.52
3.23212	34.52
3.24878	34.52
3.26545	34.52
3.28212	34.52
3.29878	34.52
3.31545	34.52
3.33212	34.52
3.34878	34.52
3.36545	34.52
3.38212	34.52
3.39878	34.52
3.41545	34.52
3.43212	34.52
3.44878	34.52
3.46545	34.52
3.48212	34.52
3.49878	34.52
3.51545	34.52
3.53212	34.52
3.54878	34.52
3.56545	34.52
3.58212	34.52
3.59878	34.52
3.61545	34.52
3.63212	34.52
3.64878	34.51
3.66545	34.52
3.68212	34.52
3.69878	34.51
3.71545	34.52
3.73212	34.52
3.74878	34.52
3.76545	34.53
3.78212	34.52
3.79878	34.52
3.81545	34.52
3.83212	34.52
3.84878	34.52
3.86545	34.52
3.88212	34.52
3.89878	34.52
3.91545	34.52
3.93212	34.52
3.94878	34.52
3.96545	34.52
3.98212	34.52
3.99878	34.52

[Status Trace (Column Flow)]
Interval(msec)	1000
# of Points	240
Start Time(min)	0.015
End Time(min)	3.999
Intensity Units	
Intensity Multiplier	1
R.Time (min)	Intensity
0.01545	5.41
0.03212	5.27
0.04878	5.53
0.06545	5.74
0.08212	5.58
0.09878	5.52
0.11545	5.52
0.13212	5.52
0.14878	5.52
0.16545	5.52
0.18212	5.52
0.19878	5.52
0.21545	5.52
0.23212	5.52
0.24878	5.52
0.26545	5.52
0.28212	5.52
0.29878	5.52
0.31545	5.52
0.33212	5.52
0.34878	5.52
0.36545	5.52
0.38212	5.52
0.39878	5.52
0.41545	5.52
0.43212	5.52
0.44878	5.52
0.46545	5.52
0.48212	5.52
0.49878	5.52
0.51545	5.52
0.53212	5.52
0.54878	5.52
0.56545	5.52
0.58212	5.52
0.59878	5.52
0.61545	5.52
0.63212	5.52
0.64878	5.52
0.66545	5.52
0.68212	5.52
0.69878	5.52
0.71545	5.52
0.73212	5.52
0.74878	5.52
0.76545	5.52
0.78212	5.52
0.79878	5.52
0.81545	5.52
0.83212	5.52
0.84878	5.52
0.86545	5.52
0.88212	5.52
0.89878	5.52
0.91545	5.52
0.93212	5.52
0.94878	5.52
0.96545	5.52
0.98212	5.52
0.99878	5.52
1.01545	5.52
1.03212	5.52
1.04878	5.52
1.06545	5.52
1.08212	5.52
1.09878	5.52
1.11545	5.52
1.13212	5.52
1.14878	5.52
1.16545	5.52
1.18212	5.52
1.19878	5.52
1.21545	5.52
1.23212	5.52
1.24878	5.52
1.26545	5.52
1.28212	5.52
1.29878	5.52
1.31545	5.52
1.33212	5.52
1.34878	5.52
1.36545	5.52
1.38212	5.52
1.39878	5.52
1.41545	5.52
1.43212	5.52
1.44878	5.52
1.46545	5.52
1.48212	5.52
1.49878	5.52
1.51545	5.52
1.53212	5.52
1.54878	5.52
1.56545	5.52
1.58212	5.52
1.59878	5.52
1.61545	5.52
1.63212	5.51
1.64878	5.51
1.66545	5.50
1.68212	5.49
1.69878	5.48
1.71545	5.46
1.73212	5.45
1.74878	5.45
1.76545	5.43
1.78212	5.42
1.79878	5.41
1.81545	5.40
1.83212	5.39
1.84878	5.38
1.86545	5.37
1.88212	5.36
1.89878	5.35
1.91545	5.34
1.93212	5.33
1.94878	5.32
1.96545	5.31
1.98212	5.30
1.99878	5.30
2.01545	5.29
2.03212	5.28
2.04878	5.27
2.06545	5.26
2.08212	5.25
2.09878	5.24
2.11545	5.23
2.13212	5.22
2.14878	5.21
2.16545	5.20
2.18212	5.19
2.19878	5.18
2.21545	5.17
2.23212	5.16
2.24878	5.15
2.26545	5.14
2.28212	5.13
2.29878	5.13
2.31545	5.12
2.33212	5.11
2.34878	5.10
2.36545	5.09
2.38212	5.09
2.39878	5.09
2.41545	5.09
2.43212	5.09
2.44878	5.09
2.46545	5.09
2.48212	5.09
2.49878	5.09
2.51545	5.08
2.53212	5.08
2.54878	5.09
2.56545	5.08
2.58212	5.08
2.59878	5.08
2.61545	5.08
2.63212	5.08
2.64878	5.08
2.66545	5.08
2.68212	5.08
2.69878	5.08
2.71545	5.08
2.73212	5.08
2.74878	5.08
2.76545	5.08
2.78212	5.08
2.79878	5.08
2.81545	5.08
2.83212	5.08
2.84878	5.08
2.86545	5.08
2.88212	5.08
2.89878	5.08
2.91545	5.08
2.93212	5.08
2.94878	5.08
2.96545	5.08
2.98212	5.08
2.99878	5.08
3.01545	5.08
3.03212	5.08
3.04878	5.08
3.06545	5.08
3.08212	5.08
3.09878	5.08
3.11545	5.08
3.13212	5.08
3.14878	5.08
3.16545	5.08
3.18212	5.08
3.19878	5.08
3.21545	5.08
3.23212	5.08
3.24878	5.08
3.26545	5.08
3.28212	5.08
3.29878	5.08
3.31545	5.08
3.33212	5.08
3.34878	5.08
3.36545	5.08
3.38212	5.08
3.39878	5.08
3.41545	5.08
3.43212	5.08
3.44878	5.08
3.46545	5.08
3.48212	5.08
3.49878	5.08
3.51545	5.08
3.53212	5.08
3.54878	5.08
3.56545	5.08
3.58212	5.08
3.59878	5.08
3.61545	5.08
3.63212	5.08
3.64878	5.08
3.66545	5.08
3.68212	5.08
3.69878	5.08
3.71545	5.08
3.73212	5.08
3.74878	5.08
3.76545	5.08
3.78212	5.08
3.79878	5.08
3.81545	5.08
3.83212	5.08
3.84878	5.08
3.86545	5.08
3.88212	5.08
3.89878	5.08
3.91545	5.08
3.93212	5.08
3.94878	5.08
3.96545	5.08
3.98212	5.08
3.99878	5.08

[Status Trace (Linear Velocity)]
Interval(msec)	1000
# of Points	240
Start Time(min)	0.015
End Time(min)	3.999
Intensity Units	
Intensity Multiplier	1
R.Time (min)	Intensity
0.01545	38.39
0.03212	37.57
0.04878	39.06
0.06545	40.25
0.08212	39.35
0.09878	38.99
0.11545	39.01
0.13212	39.02
0.14878	39.02
0.16545	39.02
0.18212	39.01
0.19878	39.01
0.21545	39.01
0.23212	39.01
0.24878	39.01
0.26545	39.01
0.28212	39.01
0.29878	39.01
0.31545	39.01
0.33212	39.02
0.34878	39.02
0.36545	39.02
0.38212	39.02
0.39878	39.02
0.41545	39.02
0.43212	39.02
0.44878	39.02
0.46545	39.02
0.48212	39.02
0.49878	39.02
0.51545	39.02
0.53212	39.02
0.54878	39.02
0.56545	39.02
0.58212	39.02
0.59878	39.02
0.61545	39.02
0.63212	39.02
0.64878	39.02
0.66545	39.02
0.68212	39.02
0.69878	39.02
0.71545	39.02
0.73212	39.02
0.74878	39.02
0.76545	39.01
0.78212	39.01
0.79878	39.02
0.81545	39.02
0.83212	39.02
0.84878	39.02
0.86545	39.02
0.88212	39.02
0.89878	39.01
0.91545	39.01
0.93212	39.01
0.94878	39.01
0.96545	39.01
0.98212	39.01
0.99878	39.02
1.01545	39.02
1.03212	39.02
1.04878	39.02
1.06545	39.02
1.08212	39.02
1.09878	39.02
1.11545	39.02
1.13212	39.02
1.14878	39.02
1.16545	39.02
1.18212	39.02
1.19878	39.02
1.21545	39.02
1.23212	39.02
1.24878	39.02
1.26545	39.02
1.28212	39.02
1.29878	39.02
1.31545	39.02
1.33212	39.02
1.34878	39.02
1.36545	39.02
1.38212	39.02
1.39878	39.02
1.41545	39.02
1.43212	39.02
1.44878	39.02
1.46545	39.02
1.48212	39.02
1.49878	39.02
1.51545	39.02
1.53212	39.02
1.54878	39.02
1.56545	39.02
1.58212	39.02
1.59878	39.01
1.61545	39.01
1.63212	38.99
1.64878	38.97
1.66545	38.95
1.68212	38.91
1.69878	38.88
1.71545	38.84
1.73212	38.81
1.74878	38.78
1.76545	38.75
1.78212	38.71
1.79878	38.69
1.81545	38.65
1.83212	38.62
1.84878	38.60
1.86545	38.56
1.88212	38.53
1.89878	38.50
1.91545	38.47
1.93212	38.44
1.94878	38.41
1.96545	38.38
1.98212	38.35
1.99878	38.32
2.01545	38.29
2.03212	38.26
2.04878	38.23
2.06545	38.20
2.08212	38.17
2.09878	38.14
2.11545	38.11
2.13212	38.08
2.14878	38.05
2.16545	38.02
2.18212	37.99
2.19878	37.96
2.21545	37.93
2.23212	37.90
2.24878	37.88
2.26545	37.84
2.28212	37.81
2.29878	37.78
2.31545	37.75
2.33212	37.72
2.34878	37.70
2.36545	37.67
2.38212	37.66
2.39878	37.66
2.41545	37.66
2.43212	37.66
2.44878	37.66
2.46545	37.66
2.48212	37.66
2.49878	37.65
2.51545	37.65
2.53212	37.65
2.54878	37.65
2.56545	37.65
2.58212	37.65
2.59878	37.65
2.61545	37.65
2.63212	37.65
2.64878	37.65
2.66545	37.65
2.68212	37.65
2.69878	37.65
2.71545	37.65
2.73212	37.65
2.74878	37.65
2.76545	37.65
2.78212	37.64
2.79878	37.64
2.81545	37.64
2.83212	37.64
2.84878	37.65
2.86545	37.64
2.88212	37.64
2.89878	37.64
2.91545	37.64
2.93212	37.63
2.94878	37.63
2.96545	37.63
2.98212	37.63
2.99878	37.64
3.01545	37.64
3.03212	37.64
3.04878	37.64
3.06545	37.64
3.08212	37.64
3.09878	37.64
3.11545	37.64
3.13212	37.63
3.14878	37.63
3.16545	37.63
3.18212	37.63
3.19878	37.63
3.21545	37.63
3.23212	37.63
3.24878	37.63
3.26545	37.63
3.28212	37.63
3.29878	37.62
3.31545	37.62
3.33212	37.62
3.34878	37.62
3.36545	37.62
3.38212	37.62
3.39878	37.62
3.41545	37.63
3.43212	37.63
3.44878	37.63
3.46545	37.63
3.48212	37.63
3.49878	37.63
3.51545	37.63
3.53212	37.63
3.54878	37.63
3.56545	37.63
3.58212	37.63
3.59878	37.63
3.61545	37.63
3.63212	37.63
3.64878	37.63
3.66545	37.63
3.68212	37.63
3.69878	37.63
3.71545	37.63
3.73212	37.63
3.74878	37.63
3.76545	37.63
3.78212	37.63
3.79878	37.63
3.81545	37.63
3.83212	37.63
3.84878	37.63
3.86545	37.63
3.88212	37.63
3.89878	37.63
3.91545	37.63
3.93212	37.63
3.94878	37.63
3.96545	37.63
3.98212	37.62
3.99878	37.63

