[Header]
Application Name	LabSolutions
Version	5.110
Data File Name	C:\Users\User\Desktop\GC Analyses\Jack\Nachusa Grasslands Sampling\T2 Timepoint July 12th\T2_07122022_027.gcd
Output Date	3/14/2023
Output Time	3:42:31 PM

[File Information]
Type	Data File
Generated	3/10/2023 3:20:12 PM
Generated by	System Administrator
Modified	3/10/2023 3:27:00 PM
Modified by	System Administrator

[Sample Information]
Operator Name	System Administrator
Acquired	3/10/2023 3:22:59 PM
Sample Type	0:Unknown
Level	0
Sample Name	027
Sample ID	027
ISTD Amount1	1
ISTD Amount2	1
ISTD Amount3	1
ISTD Amount4	1
ISTD Amount5	1
ISTD Amount6	1
ISTD Amount7	1
ISTD Amount8	1
ISTD Amount9	1
ISTD Amount10	1
ISTD Amount11	1
ISTD Amount12	1
ISTD Amount13	1
ISTD Amount14	1
ISTD Amount15	1
ISTD Amount16	1
ISTD Amount17	1
ISTD Amount18	1
ISTD Amount19	1
ISTD Amount20	1
ISTD Amount21	1
ISTD Amount22	1
ISTD Amount23	1
ISTD Amount24	1
ISTD Amount25	1
ISTD Amount26	1
ISTD Amount27	1
ISTD Amount28	1
ISTD Amount29	1
ISTD Amount30	1
ISTD Amount31	1
ISTD Amount32	1
Sample Amount	1
Dilution Factor	1
Vial#	26
Injection Volume	1
Injection Count	1
Bar Code	

[Original Files]
Data File	C:\Users\User\Desktop\GC Analyses\Jack\Nachusa Grasslands Sampling\T1 Timepoint July 12th\T2_07122022_027.gcd
Method File	C:\LabSolutions\Data\GHG_4min_2022\ghg3_togas_w_acet_4 min_new_int.gcm
Batch File	C:\LabSolutions\Data\AutoSamplerTesting\T2_07122022.gcb
Report Format File	c:\LabSolutions\System\DEFAULT.lsr

[File Description]


[Configuration]
Instrument Name	C0B7VH3-Instrument1
Instrument #	1
Line #	1
# of Detectors	3
Detector ID	DET#1	DET#2	DET#3
Detector Name	FID	PTCD	ECD
# of Channels	1	1	1

[Peak Table(Ch1)]
# of Peaks	3
Peak#	R.Time	I.Time	F.Time	Area	Height	A/H	Conc.	Mark	ID#	Name	k'	Plate #	Plate Ht.	Tailing	Resolution	Sep.Factor	Area Ratio	Height Ratio	Conc. %	Norm Conc.
1	1.476	1.428	1.538	45592	22083	2.065	321.882	   	1	CO	0.000	9556	15.697	1.293	0.000	0.000	0	0	33.043	33.043
2	1.567	1.538	1.633	4818	2304	2.091	93.155	 V 	2	CH4	0.062	9856	15.219	0.000	1.484	0.000	0	0	9.563	9.563
3	1.996	1.949	2.554	2227745	1065458	2.091	559.104	   	3	CO2	0.353	17488	8.577	1.244	6.945	5.680	0	0	57.395	57.395

[Peak Table(Ch2)]
# of Peaks	0

[Peak Table(Ch3)]
# of Peaks	5
Peak#	R.Time	I.Time	F.Time	Area	Height	A/H	Conc.	Mark	ID#	Name	k'	Plate #	Plate Ht.	Tailing	Resolution	Sep.Factor	Area Ratio	Height Ratio	Conc. %	Norm Conc.
1	2.462	2.194	2.513	2806	650	4.320	0.000	   			0.000	7314	20.508	0.000	0.000	0.000	0	0	0.000	0.000
2	2.535	2.513	2.638	1877	397	4.727	0.000	 V 			0.030	2929	51.220	0.000	0.485	0.000	0	0	0.000	0.000
3	2.664	2.638	2.719	515	135	3.821	0.000	 V 			0.082	2979	50.347	0.000	0.671	2.750	0	0	0.000	0.000
4	2.876	2.719	3.085	20812	5033	4.135	0.532	 V 	1	N2O	0.168	12828	11.693	1.700	1.433	2.055	0	0	100.000	100.000
5	3.276	3.093	3.995	16049	502	31.947	0.000	   	2	SF6	0.331	294	509.571	2.410	0.924	1.965	0	0	0.000	0.000

[Compound Results(Ch1)]
# of IDs	6
ID#	Name	R.Time	Area	Height	Conc.	Curve	3rd	2nd	1st	Constant	Area Ratio	Height Ratio	Conc. %	Norm Conc.
1	CO	1.476	45592	22083	321.882	Linear	0.000000e+00	0.000000e+00	1.416423e+002	0.000000e+00	0	0	33.043	33.043
2	CH4	1.567	4818	2304	93.155	Linear	0.000000e+00	0.000000e+00	5.171738e+001	0.000000e+00	0	0	9.563	9.563
3	CO2	1.996	2227745	1065458	559.104	Linear	0.000000e+00	0.000000e+00	3.984494e+003	0.000000e+00	0	0	57.395	57.395
4	Ethylene	0.000	0	0	0.000	Linear	0.000000e+00	0.000000e+00	0.000000e+00	0.000000e+00	0	0	0.000	0.000
5	Acetylene	0.000	0	0	0.000	Linear	0.000000e+00	0.000000e+00	0.000000e+00	0.000000e+00	0	0	0.000	0.000
6	Ethane	0.000	0	0	0.000	Linear	0.000000e+00	0.000000e+00	0.000000e+00	0.000000e+00	0	0	0.000	0.000

[Compound Results(Ch2)]
# of IDs	5
ID#	Name	R.Time	Area	Height	Conc.	Curve	3rd	2nd	1st	Constant	Area Ratio	Height Ratio	Conc. %	Norm Conc.
1	Hydrogen	0.000	0	0	0.000	Linear	0.000000e+00	0.000000e+00	0.000000e+00	0.000000e+00	0	0	0.000	0.000
2	Oxygen	0.000	0	0	0.000	Linear	0.000000e+00	0.000000e+00	0.000000e+00	0.000000e+00	0	0	0.000	0.000
3	Nitrogen	0.000	0	0	0.000	Linear	0.000000e+00	0.000000e+00	0.000000e+00	0.000000e+00	0	0	0.000	0.000
4	Methane	0.000	0	0	0.000	Linear	0.000000e+00	0.000000e+00	0.000000e+00	0.000000e+00	0	0	0.000	0.000
5	Carbon Monoxide	0.000	0	0	0.000	Linear	0.000000e+00	0.000000e+00	0.000000e+00	0.000000e+00	0	0	0.000	0.000

[Compound Results(Ch3)]
# of IDs	2
ID#	Name	R.Time	Area	Height	Conc.	Curve	3rd	2nd	1st	Constant	Area Ratio	Height Ratio	Conc. %	Norm Conc.
1	N2O	2.876	20812	5033	0.532	Linear	0.000000e+00	0.000000e+00	3.915173e+004	0.000000e+00	0	0	100.000	100.000
2	SF6	3.276	16049	502	0.000	Linear	0.000000e+00	0.000000e+00	0.000000e+00	0.000000e+00	0	0	0.000	0.000

[Group Results(Ch1)]
# of Groups	0

[Group Results(Ch2)]
# of Groups	0

[Group Results(Ch3)]
# of Groups	0

[Chromatogram (Ch1)]
Interval(msec)	220
# of Points	1091
Start Time(min)	0.002
End Time(min)	3.998
R.Time (min)	Intensity
0.00167	28
0.00533	33
0.00900	37
0.01267	38
0.01633	34
0.02000	28
0.02367	27
0.02733	31
0.03100	34
0.03467	38
0.03833	43
0.04200	50
0.04567	54
0.04933	54
0.05300	52
0.05667	49
0.06033	50
0.06400	52
0.06767	53
0.07133	55
0.07500	60
0.07867	67
0.08233	71
0.08600	71
0.08967	68
0.09333	66
0.09700	66
0.10067	71
0.10433	81
0.10800	93
0.11167	106
0.11533	116
0.11900	121
0.12267	122
0.12633	120
0.13000	119
0.13367	122
0.13733	127
0.14100	128
0.14467	122
0.14833	118
0.15200	122
0.15567	126
0.15933	125
0.16300	121
0.16667	117
0.17033	118
0.17400	119
0.17767	120
0.18133	121
0.18500	121
0.18867	118
0.19233	116
0.19600	114
0.19967	111
0.20333	104
0.20700	95
0.21067	86
0.21433	80
0.21800	79
0.22167	81
0.22533	82
0.22900	84
0.23267	87
0.23633	87
0.24000	84
0.24367	82
0.24733	81
0.25100	74
0.25467	64
0.25833	57
0.26200	54
0.26567	52
0.26933	48
0.27300	46
0.27667	46
0.28033	45
0.28400	44
0.28767	42
0.29133	43
0.29500	46
0.29867	51
0.30233	54
0.30600	51
0.30967	46
0.31333	39
0.31700	34
0.32067	31
0.32433	33
0.32800	35
0.33167	35
0.33533	39
0.33900	48
0.34267	55
0.34633	54
0.35000	52
0.35367	48
0.35733	45
0.36100	46
0.36467	49
0.36833	56
0.37200	64
0.37567	67
0.37933	66
0.38300	61
0.38667	53
0.39033	43
0.39400	39
0.39767	41
0.40133	41
0.40500	38
0.40867	35
0.41233	30
0.41600	24
0.41967	20
0.42333	21
0.42700	28
0.43067	36
0.43433	41
0.43800	46
0.44167	51
0.44533	51
0.44900	50
0.45267	50
0.45633	50
0.46000	53
0.46367	55
0.46733	55
0.47100	55
0.47467	55
0.47833	51
0.48200	43
0.48567	37
0.48933	41
0.49300	51
0.49667	49
0.50033	40
0.50400	32
0.50767	28
0.51133	26
0.51500	26
0.51867	27
0.52233	28
0.52600	34
0.52967	40
0.53333	45
0.53700	48
0.54067	51
0.54433	54
0.54800	56
0.55167	55
0.55533	55
0.55900	53
0.56267	47
0.56633	37
0.57000	25
0.57367	13
0.57733	2
0.58100	-3
0.58467	-2
0.58833	5
0.59200	14
0.59567	24
0.59933	29
0.60300	30
0.60667	28
0.61033	25
0.61400	24
0.61767	27
0.62133	33
0.62500	34
0.62867	36
0.63233	43
0.63600	51
0.63967	57
0.64333	55
0.64700	50
0.65067	45
0.65433	39
0.65800	35
0.66167	31
0.66533	27
0.66900	27
0.67267	29
0.67633	29
0.68000	27
0.68367	26
0.68733	29
0.69100	33
0.69467	34
0.69833	33
0.70200	23
0.70567	14
0.70933	10
0.71300	9
0.71667	11
0.72033	13
0.72400	12
0.72767	11
0.73133	13
0.73500	17
0.73867	21
0.74233	26
0.74600	32
0.74967	40
0.75333	50
0.75700	63
0.76067	67
0.76433	61
0.76800	52
0.77167	42
0.77533	33
0.77900	29
0.78267	26
0.78633	21
0.79000	20
0.79367	21
0.79733	20
0.80100	18
0.80467	18
0.80833	18
0.81200	20
0.81567	20
0.81933	18
0.82300	18
0.82667	18
0.83033	15
0.83400	15
0.83767	20
0.84133	27
0.84500	33
0.84867	37
0.85233	38
0.85600	39
0.85967	39
0.86333	42
0.86700	44
0.87067	46
0.87433	48
0.87800	51
0.88167	53
0.88533	53
0.88900	51
0.89267	44
0.89633	35
0.90000	24
0.90367	13
0.90733	7
0.91100	10
0.91467	15
0.91833	23
0.92200	29
0.92567	32
0.92933	34
0.93300	40
0.93667	45
0.94033	44
0.94400	37
0.94767	33
0.95133	31
0.95500	34
0.95867	35
0.96233	38
0.96600	45
0.96967	55
0.97333	60
0.97700	56
0.98067	49
0.98433	44
0.98800	42
0.99167	41
0.99533	43
0.99900	44
1.00267	48
1.00633	54
1.01000	59
1.01367	64
1.01733	66
1.02100	59
1.02467	49
1.02833	41
1.03200	37
1.03567	36
1.03933	40
1.04300	47
1.04667	53
1.05033	58
1.05400	59
1.05767	61
1.06133	64
1.06500	66
1.06867	66
1.07233	62
1.07600	57
1.07967	53
1.08333	53
1.08700	57
1.09067	61
1.09433	64
1.09800	67
1.10167	70
1.10533	73
1.10900	72
1.11267	64
1.11633	53
1.12000	41
1.12367	36
1.12733	30
1.13100	28
1.13467	28
1.13833	29
1.14200	31
1.14567	35
1.14933	41
1.15300	50
1.15667	53
1.16033	55
1.16400	59
1.16767	61
1.17133	60
1.17500	61
1.17867	61
1.18233	57
1.18600	47
1.18967	39
1.19333	34
1.19700	30
1.20067	28
1.20433	37
1.20800	50
1.21167	60
1.21533	67
1.21900	67
1.22267	59
1.22633	49
1.23000	44
1.23367	46
1.23733	52
1.24100	59
1.24467	63
1.24833	62
1.25200	58
1.25567	52
1.25933	43
1.26300	36
1.26667	32
1.27033	27
1.27400	24
1.27767	24
1.28133	26
1.28500	28
1.28867	31
1.29233	35
1.29600	41
1.29967	45
1.30333	43
1.30700	37
1.31067	32
1.31433	27
1.31800	23
1.32167	23
1.32533	25
1.32900	27
1.33267	32
1.33633	44
1.34000	58
1.34367	65
1.34733	64
1.35100	58
1.35467	51
1.35833	45
1.36200	41
1.36567	41
1.36933	40
1.37300	35
1.37667	29
1.38033	24
1.38400	25
1.38767	32
1.39133	41
1.39500	51
1.39867	58
1.40233	58
1.40600	49
1.40967	35
1.41333	23
1.41700	16
1.42067	16
1.42433	22
1.42800	31
1.43167	37
1.43533	43
1.43900	69
1.44267	180
1.44633	508
1.45000	1512
1.45367	3905
1.45733	7700
1.46100	12075
1.46467	16128
1.46833	19328
1.47200	21404
1.47567	22132
1.47933	21341
1.48300	19149
1.48667	16031
1.49033	12640
1.49400	9521
1.49767	6953
1.50133	4992
1.50500	3569
1.50867	2568
1.51233	1874
1.51600	1395
1.51967	1063
1.52333	826
1.52700	650
1.53067	522
1.53433	437
1.53800	398
1.54167	443
1.54533	622
1.54900	947
1.55267	1356
1.55633	1754
1.56000	2080
1.56367	2298
1.56733	2387
1.57100	2316
1.57467	2088
1.57833	1753
1.58200	1388
1.58567	1052
1.58933	782
1.59300	578
1.59667	432
1.60033	333
1.60400	266
1.60767	217
1.61133	185
1.61500	165
1.61867	151
1.62233	136
1.62600	122
1.62967	112
1.63333	107
1.63700	103
1.64067	100
1.64433	98
1.64800	93
1.65167	90
1.65533	91
1.65900	93
1.66267	92
1.66633	90
1.67000	86
1.67367	81
1.67733	78
1.68100	76
1.68467	73
1.68833	67
1.69200	64
1.69567	63
1.69933	64
1.70300	68
1.70667	72
1.71033	74
1.71400	72
1.71767	68
1.72133	61
1.72500	56
1.72867	60
1.73233	68
1.73600	71
1.73967	70
1.74333	69
1.74700	70
1.75067	72
1.75433	74
1.75800	78
1.76167	85
1.76533	89
1.76900	87
1.77267	79
1.77633	66
1.78000	56
1.78367	48
1.78733	42
1.79100	39
1.79467	36
1.79833	37
1.80200	44
1.80567	52
1.80933	55
1.81300	53
1.81667	54
1.82033	56
1.82400	52
1.82767	49
1.83133	49
1.83500	51
1.83867	61
1.84233	71
1.84600	74
1.84967	75
1.85333	77
1.85700	80
1.86067	77
1.86433	72
1.86800	66
1.87167	59
1.87533	53
1.87900	47
1.88267	43
1.88633	42
1.89000	44
1.89367	51
1.89733	59
1.90100	65
1.90467	64
1.90833	57
1.91200	53
1.91567	56
1.91933	58
1.92300	56
1.92667	52
1.93033	53
1.93400	57
1.93767	56
1.94133	53
1.94500	55
1.94867	67
1.95233	121
1.95600	406
1.95967	1957
1.96333	8649
1.96700	30570
1.97067	85717
1.97433	193044
1.97800	356663
1.98167	557032
1.98533	758705
1.98900	926137
1.99267	1033116
1.99633	1065563
2.00000	1022454
2.00367	916245
2.00733	770140
2.01100	611277
2.01467	462471
2.01833	337174
2.02200	239592
2.02567	167762
2.02933	116936
2.03300	81897
2.03667	58113
2.04033	42081
2.04400	31272
2.04767	23933
2.05133	18884
2.05500	15349
2.05867	12818
2.06233	10962
2.06600	9568
2.06967	8490
2.07333	7636
2.07700	6942
2.08067	6369
2.08433	5889
2.08800	5481
2.09167	5123
2.09533	4800
2.09900	4512
2.10267	4261
2.10633	4043
2.11000	3850
2.11367	3677
2.11733	3515
2.12100	3359
2.12467	3210
2.12833	3072
2.13200	2947
2.13567	2834
2.13933	2731
2.14300	2636
2.14667	2549
2.15033	2468
2.15400	2388
2.15767	2311
2.16133	2238
2.16500	2168
2.16867	2099
2.17233	2037
2.17600	1982
2.17967	1924
2.18333	1866
2.18700	1817
2.19067	1778
2.19433	1740
2.19800	1702
2.20167	1666
2.20533	1631
2.20900	1596
2.21267	1563
2.21633	1527
2.22000	1487
2.22367	1450
2.22733	1415
2.23100	1381
2.23467	1344
2.23833	1309
2.24200	1278
2.24567	1254
2.24933	1235
2.25300	1217
2.25667	1202
2.26033	1187
2.26400	1170
2.26767	1151
2.27133	1129
2.27500	1106
2.27867	1082
2.28233	1057
2.28600	1037
2.28967	1021
2.29333	1006
2.29700	994
2.30067	983
2.30433	972
2.30800	961
2.31167	955
2.31533	947
2.31900	935
2.32267	921
2.32633	907
2.33000	896
2.33367	887
2.33733	875
2.34100	864
2.34467	863
2.34833	867
2.35200	864
2.35567	851
2.35933	827
2.36300	801
2.36667	781
2.37033	766
2.37400	757
2.37767	751
2.38133	743
2.38500	736
2.38867	729
2.39233	725
2.39600	725
2.39967	726
2.40333	723
2.40700	720
2.41067	722
2.41433	725
2.41800	723
2.42167	713
2.42533	697
2.42900	680
2.43267	667
2.43633	663
2.44000	664
2.44367	670
2.44733	671
2.45100	664
2.45467	650
2.45833	638
2.46200	628
2.46567	618
2.46933	613
2.47300	612
2.47667	616
2.48033	624
2.48400	626
2.48767	624
2.49133	619
2.49500	615
2.49867	613
2.50233	609
2.50600	603
2.50967	594
2.51333	587
2.51700	582
2.52067	579
2.52433	577
2.52800	572
2.53167	563
2.53533	558
2.53900	560
2.54267	563
2.54633	566
2.55000	562
2.55367	554
2.55733	542
2.56100	530
2.56467	521
2.56833	519
2.57200	523
2.57567	526
2.57933	528
2.58300	531
2.58667	534
2.59033	536
2.59400	538
2.59767	538
2.60133	539
2.60500	540
2.60867	542
2.61233	540
2.61600	536
2.61967	530
2.62333	523
2.62700	515
2.63067	504
2.63433	494
2.63800	490
2.64167	493
2.64533	499
2.64900	498
2.65267	495
2.65633	494
2.66000	498
2.66367	504
2.66733	508
2.67100	507
2.67467	501
2.67833	495
2.68200	487
2.68567	477
2.68933	466
2.69300	457
2.69667	454
2.70033	458
2.70400	464
2.70767	469
2.71133	474
2.71500	475
2.71867	473
2.72233	468
2.72600	464
2.72967	462
2.73333	463
2.73700	466
2.74067	469
2.74433	475
2.74800	488
2.75167	501
2.75533	507
2.75900	509
2.76267	509
2.76633	506
2.77000	499
2.77367	487
2.77733	471
2.78100	456
2.78467	444
2.78833	435
2.79200	432
2.79567	436
2.79933	446
2.80300	460
2.80667	472
2.81033	475
2.81400	470
2.81767	466
2.82133	466
2.82500	468
2.82867	469
2.83233	473
2.83600	476
2.83967	472
2.84333	466
2.84700	461
2.85067	455
2.85433	452
2.85800	448
2.86167	446
2.86533	445
2.86900	447
2.87267	451
2.87633	458
2.88000	468
2.88367	483
2.88733	498
2.89100	506
2.89467	501
2.89833	490
2.90200	476
2.90567	467
2.90933	460
2.91300	452
2.91667	444
2.92033	440
2.92400	437
2.92767	434
2.93133	432
2.93500	435
2.93867	441
2.94233	449
2.94600	454
2.94967	453
2.95333	452
2.95700	453
2.96067	456
2.96433	465
2.96800	473
2.97167	477
2.97533	476
2.97900	469
2.98267	456
2.98633	445
2.99000	439
2.99367	435
2.99733	428
3.00100	422
3.00467	421
3.00833	426
3.01200	429
3.01567	430
3.01933	434
3.02300	441
3.02667	450
3.03033	457
3.03400	457
3.03767	458
3.04133	460
3.04500	459
3.04867	456
3.05233	456
3.05600	457
3.05967	455
3.06333	452
3.06700	449
3.07067	445
3.07433	444
3.07800	444
3.08167	444
3.08533	442
3.08900	441
3.09267	435
3.09633	426
3.10000	419
3.10367	418
3.10733	416
3.11100	418
3.11467	424
3.11833	435
3.12200	443
3.12567	445
3.12933	443
3.13300	439
3.13667	436
3.14033	432
3.14400	429
3.14767	425
3.15133	420
3.15500	416
3.15867	414
3.16233	415
3.16600	421
3.16967	430
3.17333	436
3.17700	440
3.18067	440
3.18433	438
3.18800	437
3.19167	437
3.19533	441
3.19900	450
3.20267	461
3.20633	471
3.21000	474
3.21367	468
3.21733	451
3.22100	430
3.22467	408
3.22833	387
3.23200	375
3.23567	372
3.23933	372
3.24300	374
3.24667	378
3.25033	383
3.25400	387
3.25767	394
3.26133	403
3.26500	413
3.26867	420
3.27233	427
3.27600	433
3.27967	434
3.28333	431
3.28700	421
3.29067	410
3.29433	400
3.29800	390
3.30167	384
3.30533	386
3.30900	397
3.31267	402
3.31633	400
3.32000	391
3.32367	381
3.32733	372
3.33100	368
3.33467	367
3.33833	371
3.34200	379
3.34567	383
3.34933	384
3.35300	382
3.35667	381
3.36033	383
3.36400	387
3.36767	390
3.37133	392
3.37500	389
3.37867	387
3.38233	388
3.38600	391
3.38967	395
3.39333	400
3.39700	402
3.40067	402
3.40433	402
3.40800	402
3.41167	400
3.41533	400
3.41900	402
3.42267	403
3.42633	400
3.43000	391
3.43367	383
3.43733	376
3.44100	370
3.44467	368
3.44833	375
3.45200	389
3.45567	399
3.45933	399
3.46300	394
3.46667	394
3.47033	398
3.47400	395
3.47767	384
3.48133	377
3.48500	372
3.48867	366
3.49233	359
3.49600	357
3.49967	359
3.50333	359
3.50700	359
3.51067	359
3.51433	358
3.51800	355
3.52167	350
3.52533	345
3.52900	344
3.53267	349
3.53633	353
3.54000	356
3.54367	360
3.54733	368
3.55100	370
3.55467	366
3.55833	363
3.56200	360
3.56567	355
3.56933	352
3.57300	354
3.57667	358
3.58033	363
3.58400	362
3.58767	358
3.59133	354
3.59500	352
3.59867	351
3.60233	354
3.60600	354
3.60967	354
3.61333	355
3.61700	358
3.62067	360
3.62433	360
3.62800	359
3.63167	354
3.63533	346
3.63900	340
3.64267	335
3.64633	332
3.65000	331
3.65367	336
3.65733	346
3.66100	355
3.66467	360
3.66833	361
3.67200	356
3.67567	351
3.67933	349
3.68300	347
3.68667	347
3.69033	344
3.69400	338
3.69767	333
3.70133	327
3.70500	320
3.70867	317
3.71233	320
3.71600	325
3.71967	327
3.72333	322
3.72700	317
3.73067	317
3.73433	319
3.73800	321
3.74167	325
3.74533	328
3.74900	325
3.75267	318
3.75633	309
3.76000	304
3.76367	302
3.76733	301
3.77100	303
3.77467	307
3.77833	311
3.78200	309
3.78567	304
3.78933	301
3.79300	299
3.79667	297
3.80033	295
3.80400	296
3.80767	297
3.81133	296
3.81500	298
3.81867	300
3.82233	303
3.82600	304
3.82967	303
3.83333	300
3.83700	292
3.84067	283
3.84433	277
3.84800	274
3.85167	276
3.85533	283
3.85900	292
3.86267	301
3.86633	308
3.87000	316
3.87367	318
3.87733	311
3.88100	302
3.88467	291
3.88833	285
3.89200	284
3.89567	283
3.89933	283
3.90300	283
3.90667	285
3.91033	285
3.91400	282
3.91767	280
3.92133	278
3.92500	277
3.92867	275
3.93233	270
3.93600	266
3.93967	264
3.94333	264
3.94700	265
3.95067	269
3.95433	274
3.95800	278
3.96167	279
3.96533	277
3.96900	275
3.97267	273
3.97633	270
3.98000	269
3.98367	273
3.98733	280
3.99100	284
3.99467	285
3.99833	280

[Chromatogram (Ch2)]
Interval(msec)	220
# of Points	1091
Start Time(min)	0.002
End Time(min)	3.998
R.Time (min)	Intensity
0.00167	1
0.00533	1
0.00900	1
0.01267	2
0.01633	2
0.02000	2
0.02367	2
0.02733	2
0.03100	2
0.03467	2
0.03833	3
0.04200	3
0.04567	3
0.04933	3
0.05300	4
0.05667	4
0.06033	4
0.06400	4
0.06767	5
0.07133	5
0.07500	5
0.07867	5
0.08233	5
0.08600	5
0.08967	4
0.09333	4
0.09700	4
0.10067	4
0.10433	4
0.10800	4
0.11167	4
0.11533	4
0.11900	4
0.12267	3
0.12633	3
0.13000	3
0.13367	3
0.13733	3
0.14100	3
0.14467	2
0.14833	2
0.15200	2
0.15567	1
0.15933	1
0.16300	0
0.16667	-0
0.17033	-1
0.17400	-1
0.17767	-1
0.18133	-0
0.18500	-0
0.18867	-0
0.19233	-0
0.19600	-0
0.19967	-0
0.20333	-0
0.20700	0
0.21067	-0
0.21433	-0
0.21800	-0
0.22167	-1
0.22533	-1
0.22900	-1
0.23267	-1
0.23633	-1
0.24000	-1
0.24367	-1
0.24733	-1
0.25100	-1
0.25467	-1
0.25833	-1
0.26200	-1
0.26567	-1
0.26933	-1
0.27300	-0
0.27667	-0
0.28033	0
0.28400	0
0.28767	0
0.29133	1
0.29500	1
0.29867	1
0.30233	1
0.30600	1
0.30967	1
0.31333	2
0.31700	2
0.32067	2
0.32433	2
0.32800	2
0.33167	2
0.33533	2
0.33900	1
0.34267	1
0.34633	1
0.35000	1
0.35367	1
0.35733	1
0.36100	1
0.36467	1
0.36833	1
0.37200	2
0.37567	2
0.37933	2
0.38300	2
0.38667	2
0.39033	2
0.39400	2
0.39767	2
0.40133	3
0.40500	3
0.40867	3
0.41233	3
0.41600	3
0.41967	3
0.42333	3
0.42700	3
0.43067	3
0.43433	2
0.43800	2
0.44167	2
0.44533	2
0.44900	2
0.45267	2
0.45633	2
0.46000	2
0.46367	2
0.46733	2
0.47100	2
0.47467	2
0.47833	2
0.48200	2
0.48567	2
0.48933	1
0.49300	1
0.49667	1
0.50033	0
0.50400	-0
0.50767	-0
0.51133	-0
0.51500	-0
0.51867	-0
0.52233	-0
0.52600	-0
0.52967	-0
0.53333	-0
0.53700	-0
0.54067	-0
0.54433	-0
0.54800	-0
0.55167	-0
0.55533	-1
0.55900	-1
0.56267	-1
0.56633	-1
0.57000	-0
0.57367	-0
0.57733	-0
0.58100	-0
0.58467	0
0.58833	0
0.59200	1
0.59567	1
0.59933	1
0.60300	1
0.60667	1
0.61033	1
0.61400	1
0.61767	1
0.62133	1
0.62500	0
0.62867	-0
0.63233	-1
0.63600	-1
0.63967	-1
0.64333	-1
0.64700	-1
0.65067	-0
0.65433	-0
0.65800	0
0.66167	0
0.66533	0
0.66900	0
0.67267	0
0.67633	0
0.68000	0
0.68367	0
0.68733	0
0.69100	0
0.69467	0
0.69833	0
0.70200	1
0.70567	1
0.70933	1
0.71300	2
0.71667	2
0.72033	2
0.72400	2
0.72767	2
0.73133	2
0.73500	2
0.73867	2
0.74233	2
0.74600	2
0.74967	1
0.75333	1
0.75700	1
0.76067	0
0.76433	0
0.76800	0
0.77167	0
0.77533	-0
0.77900	-0
0.78267	-1
0.78633	-1
0.79000	-1
0.79367	-1
0.79733	-1
0.80100	-1
0.80467	-1
0.80833	-1
0.81200	-1
0.81567	-1
0.81933	-1
0.82300	-1
0.82667	-1
0.83033	-1
0.83400	-1
0.83767	-2
0.84133	-2
0.84500	-2
0.84867	-2
0.85233	-1
0.85600	-1
0.85967	-1
0.86333	-1
0.86700	-1
0.87067	-1
0.87433	-1
0.87800	-1
0.88167	-1
0.88533	-1
0.88900	-1
0.89267	-1
0.89633	-1
0.90000	-1
0.90367	-1
0.90733	-1
0.91100	-1
0.91467	-2
0.91833	-2
0.92200	-2
0.92567	-2
0.92933	-2
0.93300	-2
0.93667	-2
0.94033	-2
0.94400	-1
0.94767	-1
0.95133	-1
0.95500	-1
0.95867	-0
0.96233	0
0.96600	1
0.96967	1
0.97333	1
0.97700	1
0.98067	1
0.98433	1
0.98800	1
0.99167	1
0.99533	1
0.99900	1
1.00267	1
1.00633	1
1.01000	1
1.01367	1
1.01733	1
1.02100	0
1.02467	0
1.02833	-0
1.03200	-0
1.03567	-0
1.03933	-0
1.04300	-0
1.04667	0
1.05033	0
1.05400	1
1.05767	1
1.06133	1
1.06500	0
1.06867	0
1.07233	-0
1.07600	-0
1.07967	-0
1.08333	-0
1.08700	-0
1.09067	-0
1.09433	-0
1.09800	-1
1.10167	-1
1.10533	-1
1.10900	-1
1.11267	-1
1.11633	-1
1.12000	-1
1.12367	-0
1.12733	-0
1.13100	0
1.13467	0
1.13833	0
1.14200	1
1.14567	1
1.14933	1
1.15300	1
1.15667	1
1.16033	1
1.16400	1
1.16767	1
1.17133	1
1.17500	1
1.17867	1
1.18233	1
1.18600	1
1.18967	1
1.19333	1
1.19700	1
1.20067	1
1.20433	1
1.20800	1
1.21167	1
1.21533	1
1.21900	1
1.22267	1
1.22633	1
1.23000	1
1.23367	1
1.23733	1
1.24100	1
1.24467	1
1.24833	0
1.25200	0
1.25567	0
1.25933	0
1.26300	-0
1.26667	-0
1.27033	-1
1.27400	-1
1.27767	-1
1.28133	-1
1.28500	-1
1.28867	-1
1.29233	-1
1.29600	-1
1.29967	-1
1.30333	-1
1.30700	-1
1.31067	-1
1.31433	-1
1.31800	-1
1.32167	-1
1.32533	-1
1.32900	-1
1.33267	-2
1.33633	-2
1.34000	-2
1.34367	-2
1.34733	-2
1.35100	-2
1.35467	-2
1.35833	-2
1.36200	-2
1.36567	-2
1.36933	-1
1.37300	-1
1.37667	-0
1.38033	0
1.38400	0
1.38767	0
1.39133	0
1.39500	0
1.39867	1
1.40233	1
1.40600	1
1.40967	1
1.41333	1
1.41700	1
1.42067	1
1.42433	1
1.42800	1
1.43167	1
1.43533	1
1.43900	1
1.44267	1
1.44633	1
1.45000	1
1.45367	1
1.45733	1
1.46100	1
1.46467	1
1.46833	1
1.47200	0
1.47567	0
1.47933	0
1.48300	0
1.48667	0
1.49033	0
1.49400	0
1.49767	0
1.50133	0
1.50500	0
1.50867	-0
1.51233	-0
1.51600	-0
1.51967	-1
1.52333	-1
1.52700	-1
1.53067	-2
1.53433	-2
1.53800	-2
1.54167	-2
1.54533	-1
1.54900	-1
1.55267	-1
1.55633	-1
1.56000	-1
1.56367	-1
1.56733	-0
1.57100	-0
1.57467	0
1.57833	0
1.58200	0
1.58567	0
1.58933	0
1.59300	-0
1.59667	-1
1.60033	-1
1.60400	-2
1.60767	-4
1.61133	-5
1.61500	-8
1.61867	-10
1.62233	-13
1.62600	-16
1.62967	-19
1.63333	-22
1.63700	-26
1.64067	-29
1.64433	-33
1.64800	-37
1.65167	-41
1.65533	-44
1.65900	-48
1.66267	-52
1.66633	-57
1.67000	-61
1.67367	-66
1.67733	-72
1.68100	-77
1.68467	-82
1.68833	-86
1.69200	-90
1.69567	-93
1.69933	-96
1.70300	-98
1.70667	-100
1.71033	-101
1.71400	-102
1.71767	-103
1.72133	-104
1.72500	-104
1.72867	-105
1.73233	-106
1.73600	-106
1.73967	-107
1.74333	-107
1.74700	-108
1.75067	-108
1.75433	-108
1.75800	-108
1.76167	-109
1.76533	-109
1.76900	-110
1.77267	-110
1.77633	-111
1.78000	-111
1.78367	-112
1.78733	-112
1.79100	-112
1.79467	-112
1.79833	-112
1.80200	-111
1.80567	-111
1.80933	-110
1.81300	-111
1.81667	-111
1.82033	-112
1.82400	-113
1.82767	-113
1.83133	-113
1.83500	-114
1.83867	-114
1.84233	-114
1.84600	-114
1.84967	-114
1.85333	-114
1.85700	-114
1.86067	-113
1.86433	-113
1.86800	-112
1.87167	-112
1.87533	-112
1.87900	-111
1.88267	-111
1.88633	-111
1.89000	-111
1.89367	-111
1.89733	-111
1.90100	-112
1.90467	-112
1.90833	-112
1.91200	-111
1.91567	-111
1.91933	-111
1.92300	-110
1.92667	-110
1.93033	-109
1.93400	-109
1.93767	-108
1.94133	-108
1.94500	-108
1.94867	-108
1.95233	-108
1.95600	-107
1.95967	-107
1.96333	-107
1.96700	-106
1.97067	-106
1.97433	-106
1.97800	-105
1.98167	-105
1.98533	-105
1.98900	-105
1.99267	-105
1.99633	-106
2.00000	-106
2.00367	-106
2.00733	-106
2.01100	-107
2.01467	-107
2.01833	-107
2.02200	-107
2.02567	-106
2.02933	-106
2.03300	-105
2.03667	-104
2.04033	-103
2.04400	-102
2.04767	-102
2.05133	-102
2.05500	-102
2.05867	-102
2.06233	-102
2.06600	-102
2.06967	-102
2.07333	-102
2.07700	-102
2.08067	-102
2.08433	-102
2.08800	-101
2.09167	-100
2.09533	-100
2.09900	-99
2.10267	-99
2.10633	-98
2.11000	-98
2.11367	-97
2.11733	-97
2.12100	-96
2.12467	-96
2.12833	-95
2.13200	-94
2.13567	-94
2.13933	-94
2.14300	-94
2.14667	-94
2.15033	-94
2.15400	-94
2.15767	-94
2.16133	-94
2.16500	-94
2.16867	-94
2.17233	-93
2.17600	-92
2.17967	-91
2.18333	-91
2.18700	-90
2.19067	-89
2.19433	-89
2.19800	-89
2.20167	-88
2.20533	-88
2.20900	-88
2.21267	-88
2.21633	-87
2.22000	-86
2.22367	-86
2.22733	-86
2.23100	-86
2.23467	-86
2.23833	-86
2.24200	-86
2.24567	-85
2.24933	-85
2.25300	-84
2.25667	-84
2.26033	-83
2.26400	-83
2.26767	-83
2.27133	-83
2.27500	-83
2.27867	-83
2.28233	-83
2.28600	-83
2.28967	-82
2.29333	-82
2.29700	-81
2.30067	-80
2.30433	-79
2.30800	-78
2.31167	-77
2.31533	-77
2.31900	-77
2.32267	-78
2.32633	-79
2.33000	-80
2.33367	-81
2.33733	-81
2.34100	-81
2.34467	-80
2.34833	-78
2.35200	-77
2.35567	-75
2.35933	-74
2.36300	-72
2.36667	-71
2.37033	-69
2.37400	-67
2.37767	-65
2.38133	-61
2.38500	-58
2.38867	-54
2.39233	-50
2.39600	-46
2.39967	-42
2.40333	-37
2.40700	-33
2.41067	-29
2.41433	-25
2.41800	-21
2.42167	-18
2.42533	-15
2.42900	-13
2.43267	-12
2.43633	-11
2.44000	-9
2.44367	-8
2.44733	-7
2.45100	-6
2.45467	-6
2.45833	-5
2.46200	-4
2.46567	-3
2.46933	-3
2.47300	-2
2.47667	-1
2.48033	1
2.48400	2
2.48767	4
2.49133	5
2.49500	6
2.49867	8
2.50233	8
2.50600	9
2.50967	9
2.51333	10
2.51700	10
2.52067	11
2.52433	11
2.52800	12
2.53167	12
2.53533	13
2.53900	13
2.54267	14
2.54633	15
2.55000	15
2.55367	15
2.55733	15
2.56100	16
2.56467	16
2.56833	16
2.57200	16
2.57567	17
2.57933	17
2.58300	17
2.58667	17
2.59033	17
2.59400	17
2.59767	17
2.60133	17
2.60500	16
2.60867	16
2.61233	16
2.61600	16
2.61967	16
2.62333	16
2.62700	16
2.63067	16
2.63433	16
2.63800	16
2.64167	16
2.64533	17
2.64900	17
2.65267	17
2.65633	18
2.66000	18
2.66367	19
2.66733	19
2.67100	19
2.67467	20
2.67833	20
2.68200	21
2.68567	21
2.68933	21
2.69300	22
2.69667	22
2.70033	22
2.70400	22
2.70767	22
2.71133	23
2.71500	23
2.71867	24
2.72233	24
2.72600	25
2.72967	25
2.73333	25
2.73700	25
2.74067	26
2.74433	26
2.74800	26
2.75167	25
2.75533	25
2.75900	26
2.76267	26
2.76633	26
2.77000	26
2.77367	26
2.77733	27
2.78100	27
2.78467	27
2.78833	28
2.79200	28
2.79567	28
2.79933	28
2.80300	28
2.80667	28
2.81033	28
2.81400	28
2.81767	27
2.82133	27
2.82500	27
2.82867	26
2.83233	26
2.83600	26
2.83967	25
2.84333	23
2.84700	19
2.85067	14
2.85433	6
2.85800	-6
2.86167	-21
2.86533	-41
2.86900	-65
2.87267	-93
2.87633	-126
2.88000	-163
2.88367	-204
2.88733	-248
2.89100	-295
2.89467	-345
2.89833	-397
2.90200	-450
2.90567	-505
2.90933	-560
2.91300	-615
2.91667	-670
2.92033	-723
2.92400	-775
2.92767	-826
2.93133	-877
2.93500	-931
2.93867	-989
2.94233	-1042
2.94600	-1080
2.94967	-1094
2.95333	-1083
2.95700	-1047
2.96067	-992
2.96433	-924
2.96800	-847
2.97167	-767
2.97533	-687
2.97900	-610
2.98267	-537
2.98633	-469
2.99000	-408
2.99367	-352
2.99733	-303
3.00100	-260
3.00467	-222
3.00833	-189
3.01200	-160
3.01567	-135
3.01933	-114
3.02300	-95
3.02667	-80
3.03033	-66
3.03400	-55
3.03767	-45
3.04133	-36
3.04500	-29
3.04867	-23
3.05233	-17
3.05600	-13
3.05967	-9
3.06333	-6
3.06700	-3
3.07067	-0
3.07433	2
3.07800	4
3.08167	5
3.08533	7
3.08900	8
3.09267	9
3.09633	10
3.10000	11
3.10367	12
3.10733	12
3.11100	13
3.11467	14
3.11833	15
3.12200	15
3.12567	16
3.12933	16
3.13300	17
3.13667	17
3.14033	17
3.14400	18
3.14767	18
3.15133	19
3.15500	19
3.15867	20
3.16233	20
3.16600	20
3.16967	20
3.17333	20
3.17700	20
3.18067	20
3.18433	20
3.18800	20
3.19167	20
3.19533	20
3.19900	20
3.20267	20
3.20633	20
3.21000	20
3.21367	21
3.21733	21
3.22100	21
3.22467	21
3.22833	22
3.23200	22
3.23567	22
3.23933	23
3.24300	23
3.24667	23
3.25033	23
3.25400	24
3.25767	24
3.26133	24
3.26500	24
3.26867	24
3.27233	24
3.27600	24
3.27967	24
3.28333	24
3.28700	24
3.29067	24
3.29433	24
3.29800	24
3.30167	24
3.30533	24
3.30900	24
3.31267	24
3.31633	24
3.32000	24
3.32367	24
3.32733	24
3.33100	24
3.33467	24
3.33833	24
3.34200	24
3.34567	25
3.34933	25
3.35300	25
3.35667	25
3.36033	25
3.36400	25
3.36767	25
3.37133	25
3.37500	26
3.37867	26
3.38233	26
3.38600	26
3.38967	27
3.39333	27
3.39700	28
3.40067	28
3.40433	28
3.40800	28
3.41167	29
3.41533	29
3.41900	29
3.42267	29
3.42633	29
3.43000	29
3.43367	29
3.43733	29
3.44100	30
3.44467	30
3.44833	30
3.45200	30
3.45567	30
3.45933	30
3.46300	30
3.46667	30
3.47033	30
3.47400	30
3.47767	30
3.48133	30
3.48500	30
3.48867	30
3.49233	30
3.49600	29
3.49967	29
3.50333	29
3.50700	28
3.51067	28
3.51433	27
3.51800	27
3.52167	27
3.52533	27
3.52900	27
3.53267	27
3.53633	27
3.54000	27
3.54367	27
3.54733	27
3.55100	27
3.55467	27
3.55833	27
3.56200	27
3.56567	27
3.56933	27
3.57300	27
3.57667	27
3.58033	27
3.58400	27
3.58767	27
3.59133	27
3.59500	27
3.59867	27
3.60233	27
3.60600	28
3.60967	28
3.61333	28
3.61700	28
3.62067	29
3.62433	29
3.62800	29
3.63167	29
3.63533	28
3.63900	28
3.64267	28
3.64633	28
3.65000	28
3.65367	28
3.65733	28
3.66100	28
3.66467	28
3.66833	28
3.67200	28
3.67567	28
3.67933	28
3.68300	28
3.68667	28
3.69033	28
3.69400	28
3.69767	28
3.70133	28
3.70500	28
3.70867	28
3.71233	28
3.71600	28
3.71967	28
3.72333	28
3.72700	28
3.73067	28
3.73433	28
3.73800	28
3.74167	28
3.74533	27
3.74900	27
3.75267	27
3.75633	27
3.76000	26
3.76367	26
3.76733	26
3.77100	26
3.77467	26
3.77833	26
3.78200	26
3.78567	26
3.78933	26
3.79300	26
3.79667	26
3.80033	27
3.80400	27
3.80767	27
3.81133	27
3.81500	27
3.81867	27
3.82233	26
3.82600	26
3.82967	26
3.83333	26
3.83700	26
3.84067	26
3.84433	26
3.84800	26
3.85167	26
3.85533	26
3.85900	26
3.86267	26
3.86633	26
3.87000	26
3.87367	26
3.87733	26
3.88100	27
3.88467	27
3.88833	26
3.89200	26
3.89567	26
3.89933	26
3.90300	26
3.90667	26
3.91033	26
3.91400	26
3.91767	26
3.92133	26
3.92500	26
3.92867	26
3.93233	26
3.93600	26
3.93967	26
3.94333	26
3.94700	27
3.95067	27
3.95433	27
3.95800	27
3.96167	27
3.96533	27
3.96900	27
3.97267	27
3.97633	26
3.98000	26
3.98367	26
3.98733	26
3.99100	26
3.99467	26
3.99833	26

[Chromatogram (Ch3)]
Interval(msec)	220
# of Points	1091
Start Time(min)	0.002
End Time(min)	3.998
R.Time (min)	Intensity
0.00167	-0
0.00533	-1
0.00900	1
0.01267	1
0.01633	1
0.02000	1
0.02367	-1
0.02733	-3
0.03100	-3
0.03467	-2
0.03833	-2
0.04200	-2
0.04567	-1
0.04933	-1
0.05300	-4
0.05667	-7
0.06033	-7
0.06400	-5
0.06767	-4
0.07133	-5
0.07500	-5
0.07867	-5
0.08233	-5
0.08600	-6
0.08967	-5
0.09333	-7
0.09700	-7
0.10067	-8
0.10433	-8
0.10800	-6
0.11167	-6
0.11533	-9
0.11900	-13
0.12267	-15
0.12633	-17
0.13000	-17
0.13367	-16
0.13733	-12
0.14100	-11
0.14467	-13
0.14833	-15
0.15200	-15
0.15567	-14
0.15933	-14
0.16300	-15
0.16667	-16
0.17033	-17
0.17400	-17
0.17767	-17
0.18133	-13
0.18500	-10
0.18867	-10
0.19233	-10
0.19600	-10
0.19967	-10
0.20333	-11
0.20700	-13
0.21067	-14
0.21433	-13
0.21800	-12
0.22167	-12
0.22533	-13
0.22900	-12
0.23267	-10
0.23633	-8
0.24000	-7
0.24367	-7
0.24733	-9
0.25100	-10
0.25467	-10
0.25833	-10
0.26200	-8
0.26567	-7
0.26933	-8
0.27300	-10
0.27667	-10
0.28033	-10
0.28400	-11
0.28767	-12
0.29133	-12
0.29500	-13
0.29867	-15
0.30233	-15
0.30600	-15
0.30967	-15
0.31333	-15
0.31700	-14
0.32067	-13
0.32433	-14
0.32800	-15
0.33167	-15
0.33533	-14
0.33900	-11
0.34267	-10
0.34633	-11
0.35000	-13
0.35367	-15
0.35733	-16
0.36100	-15
0.36467	-13
0.36833	-12
0.37200	-13
0.37567	-13
0.37933	-11
0.38300	-9
0.38667	-9
0.39033	-10
0.39400	-12
0.39767	-13
0.40133	-11
0.40500	-10
0.40867	-10
0.41233	-12
0.41600	-13
0.41967	-14
0.42333	-14
0.42700	-13
0.43067	-15
0.43433	-16
0.43800	-17
0.44167	-18
0.44533	-18
0.44900	-19
0.45267	-17
0.45633	-17
0.46000	-19
0.46367	-17
0.46733	-14
0.47100	-13
0.47467	-14
0.47833	-14
0.48200	-14
0.48567	-15
0.48933	-16
0.49300	-16
0.49667	-17
0.50033	-20
0.50400	-21
0.50767	-20
0.51133	-18
0.51500	-15
0.51867	-15
0.52233	-15
0.52600	-14
0.52967	-14
0.53333	-14
0.53700	-15
0.54067	-14
0.54433	-13
0.54800	-12
0.55167	-13
0.55533	-14
0.55900	-16
0.56267	-16
0.56633	-16
0.57000	-15
0.57367	-14
0.57733	-16
0.58100	-17
0.58467	-18
0.58833	-17
0.59200	-15
0.59567	-15
0.59933	-15
0.60300	-14
0.60667	-13
0.61033	-13
0.61400	-12
0.61767	-10
0.62133	-8
0.62500	-7
0.62867	-9
0.63233	-11
0.63600	-11
0.63967	-11
0.64333	-11
0.64700	-13
0.65067	-13
0.65433	-12
0.65800	-12
0.66167	-12
0.66533	-11
0.66900	-10
0.67267	-11
0.67633	-10
0.68000	-10
0.68367	-9
0.68733	-10
0.69100	-9
0.69467	-9
0.69833	-11
0.70200	-12
0.70567	-11
0.70933	-8
0.71300	-6
0.71667	-6
0.72033	-6
0.72400	-6
0.72767	-7
0.73133	-8
0.73500	-9
0.73867	-10
0.74233	-9
0.74600	-8
0.74967	-6
0.75333	-6
0.75700	-6
0.76067	-6
0.76433	-7
0.76800	-9
0.77167	-10
0.77533	-10
0.77900	-10
0.78267	-12
0.78633	-10
0.79000	-7
0.79367	-5
0.79733	-3
0.80100	-2
0.80467	-1
0.80833	-3
0.81200	-3
0.81567	-3
0.81933	-4
0.82300	-6
0.82667	-6
0.83033	-4
0.83400	-3
0.83767	-2
0.84133	-3
0.84500	-2
0.84867	1
0.85233	2
0.85600	-0
0.85967	-5
0.86333	-9
0.86700	-11
0.87067	-12
0.87433	-9
0.87800	-5
0.88167	-5
0.88533	-6
0.88900	-6
0.89267	-6
0.89633	-7
0.90000	-7
0.90367	-6
0.90733	-5
0.91100	-5
0.91467	-5
0.91833	-5
0.92200	-3
0.92567	-3
0.92933	-5
0.93300	-7
0.93667	-8
0.94033	-8
0.94400	-9
0.94767	-7
0.95133	-4
0.95500	-1
0.95867	-0
0.96233	-1
0.96600	-2
0.96967	-2
0.97333	-1
0.97700	-1
0.98067	-2
0.98433	-3
0.98800	-3
0.99167	-4
0.99533	-4
0.99900	-3
1.00267	-4
1.00633	-3
1.01000	-4
1.01367	-5
1.01733	-5
1.02100	-5
1.02467	-4
1.02833	-1
1.03200	1
1.03567	2
1.03933	3
1.04300	3
1.04667	3
1.05033	3
1.05400	5
1.05767	7
1.06133	5
1.06500	2
1.06867	2
1.07233	4
1.07600	3
1.07967	2
1.08333	1
1.08700	-0
1.09067	-4
1.09433	-6
1.09800	-5
1.10167	-4
1.10533	-2
1.10900	-1
1.11267	1
1.11633	3
1.12000	4
1.12367	3
1.12733	2
1.13100	-1
1.13467	-3
1.13833	-4
1.14200	-3
1.14567	-2
1.14933	-2
1.15300	-3
1.15667	-2
1.16033	-1
1.16400	1
1.16767	3
1.17133	4
1.17500	3
1.17867	1
1.18233	1
1.18600	2
1.18967	2
1.19333	2
1.19700	2
1.20067	0
1.20433	-1
1.20800	-1
1.21167	-2
1.21533	-2
1.21900	-1
1.22267	0
1.22633	-0
1.23000	-2
1.23367	-3
1.23733	-4
1.24100	-2
1.24467	-0
1.24833	1
1.25200	1
1.25567	0
1.25933	-1
1.26300	-1
1.26667	-0
1.27033	1
1.27400	4
1.27767	6
1.28133	7
1.28500	7
1.28867	7
1.29233	6
1.29600	7
1.29967	6
1.30333	5
1.30700	3
1.31067	2
1.31433	2
1.31800	2
1.32167	4
1.32533	6
1.32900	7
1.33267	7
1.33633	6
1.34000	6
1.34367	4
1.34733	1
1.35100	2
1.35467	4
1.35833	5
1.36200	4
1.36567	6
1.36933	6
1.37300	9
1.37667	10
1.38033	10
1.38400	10
1.38767	9
1.39133	7
1.39500	6
1.39867	6
1.40233	7
1.40600	7
1.40967	6
1.41333	5
1.41700	6
1.42067	8
1.42433	10
1.42800	11
1.43167	11
1.43533	12
1.43900	11
1.44267	9
1.44633	8
1.45000	7
1.45367	5
1.45733	3
1.46100	4
1.46467	5
1.46833	6
1.47200	5
1.47567	5
1.47933	7
1.48300	9
1.48667	10
1.49033	9
1.49400	9
1.49767	11
1.50133	13
1.50500	14
1.50867	12
1.51233	10
1.51600	10
1.51967	10
1.52333	11
1.52700	11
1.53067	11
1.53433	11
1.53800	11
1.54167	12
1.54533	15
1.54900	17
1.55267	19
1.55633	19
1.56000	18
1.56367	14
1.56733	11
1.57100	10
1.57467	11
1.57833	9
1.58200	9
1.58567	8
1.58933	8
1.59300	10
1.59667	12
1.60033	15
1.60400	18
1.60767	17
1.61133	16
1.61500	16
1.61867	16
1.62233	17
1.62600	17
1.62967	17
1.63333	15
1.63700	14
1.64067	15
1.64433	16
1.64800	17
1.65167	17
1.65533	19
1.65900	21
1.66267	22
1.66633	21
1.67000	23
1.67367	22
1.67733	21
1.68100	20
1.68467	18
1.68833	19
1.69200	21
1.69567	22
1.69933	23
1.70300	24
1.70667	25
1.71033	24
1.71400	24
1.71767	25
1.72133	24
1.72500	24
1.72867	27
1.73233	28
1.73600	26
1.73967	25
1.74333	27
1.74700	28
1.75067	27
1.75433	28
1.75800	28
1.76167	27
1.76533	27
1.76900	27
1.77267	29
1.77633	30
1.78000	30
1.78367	30
1.78733	29
1.79100	28
1.79467	28
1.79833	28
1.80200	29
1.80567	29
1.80933	29
1.81300	30
1.81667	31
1.82033	32
1.82400	35
1.82767	38
1.83133	39
1.83500	38
1.83867	36
1.84233	36
1.84600	36
1.84967	35
1.85333	36
1.85700	37
1.86067	37
1.86433	36
1.86800	35
1.87167	38
1.87533	41
1.87900	42
1.88267	43
1.88633	42
1.89000	41
1.89367	42
1.89733	43
1.90100	44
1.90467	45
1.90833	45
1.91200	47
1.91567	47
1.91933	50
1.92300	49
1.92667	47
1.93033	47
1.93400	47
1.93767	45
1.94133	46
1.94500	48
1.94867	51
1.95233	51
1.95600	51
1.95967	52
1.96333	53
1.96700	53
1.97067	52
1.97433	53
1.97800	56
1.98167	57
1.98533	58
1.98900	59
1.99267	58
1.99633	58
2.00000	56
2.00367	57
2.00733	58
2.01100	60
2.01467	63
2.01833	65
2.02200	67
2.02567	70
2.02933	71
2.03300	70
2.03667	70
2.04033	71
2.04400	74
2.04767	77
2.05133	79
2.05500	82
2.05867	83
2.06233	83
2.06600	85
2.06967	87
2.07333	85
2.07700	83
2.08067	82
2.08433	83
2.08800	85
2.09167	88
2.09533	89
2.09900	91
2.10267	91
2.10633	91
2.11000	92
2.11367	95
2.11733	98
2.12100	98
2.12467	97
2.12833	97
2.13200	97
2.13567	100
2.13933	104
2.14300	107
2.14667	110
2.15033	113
2.15400	116
2.15767	119
2.16133	122
2.16500	124
2.16867	122
2.17233	118
2.17600	118
2.17967	120
2.18333	122
2.18700	122
2.19067	122
2.19433	124
2.19800	126
2.20167	127
2.20533	127
2.20900	129
2.21267	130
2.21633	131
2.22000	132
2.22367	131
2.22733	132
2.23100	134
2.23467	136
2.23833	138
2.24200	140
2.24567	143
2.24933	145
2.25300	147
2.25667	148
2.26033	149
2.26400	152
2.26767	155
2.27133	157
2.27500	158
2.27867	159
2.28233	161
2.28600	160
2.28967	160
2.29333	164
2.29700	168
2.30067	171
2.30433	173
2.30800	176
2.31167	176
2.31533	176
2.31900	175
2.32267	177
2.32633	180
2.33000	183
2.33367	187
2.33733	190
2.34100	190
2.34467	191
2.34833	189
2.35200	188
2.35567	188
2.35933	190
2.36300	193
2.36667	197
2.37033	202
2.37400	205
2.37767	206
2.38133	205
2.38500	205
2.38867	204
2.39233	205
2.39600	209
2.39967	214
2.40333	219
2.40700	224
2.41067	230
2.41433	234
2.41800	236
2.42167	239
2.42533	243
2.42900	245
2.43267	247
2.43633	247
2.44000	250
2.44367	301
2.44733	434
2.45100	577
2.45467	695
2.45833	766
2.46200	775
2.46567	747
2.46933	714
2.47300	687
2.47667	670
2.48033	662
2.48400	647
2.48767	619
2.49133	583
2.49500	544
2.49867	509
2.50233	483
2.50600	465
2.50967	455
2.51333	452
2.51700	456
2.52067	467
2.52433	482
2.52800	500
2.53167	515
2.53533	523
2.53900	520
2.54267	507
2.54633	488
2.55000	464
2.55367	439
2.55733	416
2.56100	397
2.56467	382
2.56833	370
2.57200	359
2.57567	354
2.57933	350
2.58300	348
2.58667	348
2.59033	348
2.59400	347
2.59767	344
2.60133	336
2.60500	326
2.60867	312
2.61233	296
2.61600	278
2.61967	262
2.62333	247
2.62700	237
2.63067	231
2.63433	230
2.63800	230
2.64167	234
2.64533	240
2.64900	247
2.65267	253
2.65633	257
2.66000	260
2.66367	261
2.66733	257
2.67100	251
2.67467	245
2.67833	242
2.68200	236
2.68567	231
2.68933	228
2.69300	223
2.69667	218
2.70033	211
2.70400	207
2.70767	205
2.71133	202
2.71500	201
2.71867	200
2.72233	202
2.72600	205
2.72967	208
2.73333	209
2.73700	209
2.74067	210
2.74433	210
2.74800	212
2.75167	215
2.75533	217
2.75900	219
2.76267	222
2.76633	224
2.77000	228
2.77367	230
2.77733	230
2.78100	232
2.78467	234
2.78833	234
2.79200	235
2.79567	240
2.79933	242
2.80300	244
2.80667	245
2.81033	246
2.81400	250
2.81767	256
2.82133	268
2.82500	295
2.82867	346
2.83233	440
2.83600	604
2.83967	861
2.84333	1225
2.84700	1693
2.85067	2250
2.85433	2858
2.85800	3475
2.86167	4049
2.86533	4529
2.86900	4884
2.87267	5096
2.87633	5161
2.88000	5090
2.88367	4906
2.88733	4638
2.89100	4318
2.89467	3971
2.89833	3617
2.90200	3268
2.90567	2934
2.90933	2622
2.91300	2336
2.91667	2079
2.92033	1850
2.92400	1649
2.92767	1472
2.93133	1315
2.93500	1177
2.93867	1057
2.94233	952
2.94600	862
2.94967	782
2.95333	715
2.95700	656
2.96067	604
2.96433	561
2.96800	523
2.97167	489
2.97533	458
2.97900	431
2.98267	408
2.98633	387
2.99000	368
2.99367	350
2.99733	338
3.00100	326
3.00467	316
3.00833	308
3.01200	300
3.01567	291
3.01933	281
3.02300	274
3.02667	268
3.03033	263
3.03400	257
3.03767	253
3.04133	249
3.04500	244
3.04867	242
3.05233	240
3.05600	238
3.05967	238
3.06333	237
3.06700	234
3.07067	231
3.07433	226
3.07800	212
3.08167	171
3.08533	129
3.08900	112
3.09267	124
3.09633	154
3.10000	194
3.10367	236
3.10733	278
3.11100	320
3.11467	356
3.11833	389
3.12200	420
3.12567	449
3.12933	475
3.13300	500
3.13667	520
3.14033	537
3.14400	551
3.14767	564
3.15133	578
3.15500	587
3.15867	595
3.16233	603
3.16600	610
3.16967	614
3.17333	617
3.17700	622
3.18067	628
3.18433	634
3.18800	639
3.19167	644
3.19533	648
3.19900	654
3.20267	660
3.20633	665
3.21000	668
3.21367	670
3.21733	673
3.22100	677
3.22467	681
3.22833	684
3.23200	687
3.23567	690
3.23933	692
3.24300	695
3.24667	697
3.25033	697
3.25400	701
3.25767	706
3.26133	708
3.26500	708
3.26867	710
3.27233	715
3.27600	718
3.27967	718
3.28333	717
3.28700	718
3.29067	722
3.29433	723
3.29800	723
3.30167	724
3.30533	726
3.30900	726
3.31267	726
3.31633	727
3.32000	728
3.32367	729
3.32733	730
3.33100	728
3.33467	728
3.33833	726
3.34200	727
3.34567	729
3.34933	731
3.35300	732
3.35667	732
3.36033	730
3.36400	727
3.36767	726
3.37133	727
3.37500	728
3.37867	728
3.38233	727
3.38600	727
3.38967	725
3.39333	726
3.39700	728
3.40067	729
3.40433	729
3.40800	728
3.41167	723
3.41533	720
3.41900	718
3.42267	719
3.42633	719
3.43000	720
3.43367	719
3.43733	717
3.44100	715
3.44467	712
3.44833	710
3.45200	708
3.45567	706
3.45933	706
3.46300	704
3.46667	702
3.47033	702
3.47400	699
3.47767	696
3.48133	696
3.48500	694
3.48867	693
3.49233	690
3.49600	690
3.49967	691
3.50333	691
3.50700	691
3.51067	690
3.51433	689
3.51800	687
3.52167	686
3.52533	683
3.52900	679
3.53267	675
3.53633	672
3.54000	673
3.54367	676
3.54733	677
3.55100	679
3.55467	678
3.55833	677
3.56200	676
3.56567	673
3.56933	671
3.57300	668
3.57667	664
3.58033	663
3.58400	663
3.58767	663
3.59133	663
3.59500	665
3.59867	667
3.60233	666
3.60600	666
3.60967	665
3.61333	662
3.61700	662
3.62067	661
3.62433	662
3.62800	666
3.63167	667
3.63533	667
3.63900	664
3.64267	659
3.64633	656
3.65000	655
3.65367	654
3.65733	653
3.66100	653
3.66467	655
3.66833	657
3.67200	658
3.67567	658
3.67933	657
3.68300	656
3.68667	655
3.69033	654
3.69400	655
3.69767	657
3.70133	659
3.70500	661
3.70867	659
3.71233	656
3.71600	655
3.71967	652
3.72333	648
3.72700	647
3.73067	648
3.73433	649
3.73800	648
3.74167	648
3.74533	651
3.74900	653
3.75267	650
3.75633	646
3.76000	645
3.76367	644
3.76733	644
3.77100	645
3.77467	644
3.77833	643
3.78200	644
3.78567	647
3.78933	647
3.79300	642
3.79667	639
3.80033	637
3.80400	633
3.80767	632
3.81133	633
3.81500	633
3.81867	632
3.82233	631
3.82600	630
3.82967	629
3.83333	629
3.83700	629
3.84067	627
3.84433	624
3.84800	621
3.85167	622
3.85533	622
3.85900	622
3.86267	622
3.86633	621
3.87000	619
3.87367	619
3.87733	619
3.88100	617
3.88467	616
3.88833	613
3.89200	611
3.89567	611
3.89933	611
3.90300	609
3.90667	608
3.91033	608
3.91400	607
3.91767	603
3.92133	601
3.92500	599
3.92867	599
3.93233	598
3.93600	595
3.93967	591
3.94333	588
3.94700	586
3.95067	586
3.95433	584
3.95800	584
3.96167	586
3.96533	586
3.96900	584
3.97267	582
3.97633	581
3.98000	582
3.98367	580
3.98733	579
3.99100	578
3.99467	576
3.99833	573

[Status Trace (Column Oven Temperature)]
Interval(msec)	1000
# of Points	239
Start Time(min)	0.013
End Time(min)	3.979
Intensity Units	
Intensity Multiplier	1
R.Time (min)	Intensity
0.01252	35.06
0.02918	35.06
0.04585	35.05
0.06252	35.02
0.07918	35.02
0.09585	35.01
0.11252	35.01
0.12918	35.02
0.14585	35.02
0.16252	35.03
0.17918	35.04
0.19585	35.05
0.21252	35.05
0.22918	35.05
0.24585	35.05
0.26252	35.05
0.27918	35.05
0.29585	35.04
0.31252	35.04
0.32918	35.03
0.34585	35.04
0.36252	35.03
0.37918	35.02
0.39585	35.01
0.41252	35.01
0.42918	35.01
0.44585	35.00
0.46252	35.01
0.47918	35.02
0.49585	35.03
0.51252	35.03
0.52918	35.02
0.54585	35.03
0.56252	35.03
0.57918	35.03
0.59585	35.02
0.61252	35.01
0.62918	35.01
0.64585	35.01
0.66252	35.01
0.67918	35.02
0.69585	35.01
0.71252	34.99
0.72918	34.98
0.74585	34.99
0.76252	34.99
0.77918	34.99
0.79585	34.99
0.81252	34.99
0.82918	35.01
0.84585	35.02
0.86252	35.02
0.87918	35.03
0.89585	35.03
0.91252	35.04
0.92918	35.04
0.94585	35.03
0.96252	35.03
0.97918	35.02
0.99585	35.01
1.01252	35.00
1.02918	35.01
1.04585	35.00
1.06252	35.01
1.07918	35.01
1.09585	35.02
1.11252	35.02
1.12918	35.01
1.14585	35.00
1.16252	35.00
1.17918	35.00
1.19585	34.99
1.21252	34.99
1.22918	34.99
1.24585	34.99
1.26252	34.99
1.27918	34.99
1.29585	35.00
1.31252	35.02
1.32918	35.02
1.34585	35.02
1.36252	35.01
1.37918	35.00
1.39585	35.00
1.41252	35.00
1.42918	34.99
1.44585	34.99
1.46252	34.98
1.47918	34.99
1.49585	34.99
1.51252	34.99
1.52918	34.99
1.54585	34.98
1.56252	34.98
1.57918	34.98
1.59585	35.00
1.61252	35.07
1.62918	35.22
1.64585	35.42
1.66252	35.70
1.67918	36.07
1.69585	36.43
1.71252	36.77
1.72918	37.11
1.74585	37.44
1.76252	37.77
1.77918	38.11
1.79585	38.42
1.81252	38.76
1.82918	39.09
1.84585	39.43
1.86252	39.75
1.87918	40.07
1.89585	40.42
1.91252	40.74
1.92918	41.06
1.94585	41.39
1.96252	41.70
1.97918	42.02
1.99585	42.36
2.01252	42.71
2.02918	43.03
2.04585	43.34
2.06252	43.67
2.07918	44.01
2.09585	44.34
2.11252	44.67
2.12918	44.96
2.14585	45.29
2.16252	45.64
2.17918	45.95
2.19585	46.28
2.21252	46.60
2.22918	46.92
2.24585	47.24
2.26252	47.58
2.27918	47.92
2.29585	48.25
2.31252	48.55
2.32918	48.92
2.34585	49.22
2.36252	49.50
2.37918	49.68
2.39585	49.72
2.41252	49.71
2.42918	49.72
2.44585	49.72
2.46252	49.74
2.47918	49.73
2.49585	49.74
2.51252	49.75
2.52918	49.76
2.54585	49.77
2.56252	49.79
2.57918	49.79
2.59585	49.81
2.61252	49.81
2.62918	49.81
2.64585	49.82
2.66252	49.84
2.67918	49.85
2.69585	49.86
2.71252	49.85
2.72918	49.86
2.74585	49.86
2.76252	49.86
2.77918	49.86
2.79585	49.85
2.81252	49.85
2.82918	49.88
2.84585	49.89
2.86252	49.92
2.87918	49.93
2.89585	49.93
2.91252	49.94
2.92918	49.93
2.94585	49.93
2.96252	49.94
2.97918	49.95
2.99585	49.96
3.01252	49.97
3.02918	49.98
3.04585	50.00
3.06252	50.01
3.07918	50.03
3.09585	50.03
3.11252	50.03
3.12918	50.03
3.14585	50.04
3.16252	50.05
3.17918	50.06
3.19585	50.07
3.21252	50.09
3.22918	50.09
3.24585	50.08
3.26252	50.07
3.27918	50.07
3.29585	50.09
3.31252	50.10
3.32918	50.11
3.34585	50.11
3.36252	50.11
3.37918	50.09
3.39585	50.07
3.41252	50.05
3.42918	50.04
3.44585	50.03
3.46252	50.02
3.47918	50.02
3.49585	50.02
3.51252	50.04
3.52918	50.05
3.54585	50.05
3.56252	50.05
3.57918	50.05
3.59585	50.05
3.61252	50.04
3.62918	50.03
3.64585	50.03
3.66252	50.03
3.67918	50.03
3.69585	50.03
3.71252	50.02
3.72918	50.03
3.74585	50.03
3.76252	50.04
3.77918	50.04
3.79585	50.04
3.81252	50.05
3.82918	50.06
3.84585	50.06
3.86252	50.06
3.87918	50.07
3.89585	50.06
3.91252	50.06
3.92918	50.06
3.94585	50.07
3.96252	50.07
3.97918	50.07

[Status Trace (Injection Unit Temperature)]
Interval(msec)	1000
# of Points	239
Start Time(min)	0.013
End Time(min)	3.979
Intensity Units	
Intensity Multiplier	1
R.Time (min)	Intensity
0.01252	99.97
0.02918	99.97
0.04585	99.98
0.06252	99.98
0.07918	99.98
0.09585	99.98
0.11252	99.98
0.12918	99.98
0.14585	99.98
0.16252	99.98
0.17918	99.98
0.19585	99.98
0.21252	99.98
0.22918	99.98
0.24585	99.98
0.26252	99.97
0.27918	99.98
0.29585	99.98
0.31252	99.98
0.32918	99.98
0.34585	99.98
0.36252	99.98
0.37918	99.98
0.39585	99.98
0.41252	99.98
0.42918	99.98
0.44585	99.98
0.46252	99.98
0.47918	99.98
0.49585	99.98
0.51252	99.98
0.52918	99.98
0.54585	99.98
0.56252	99.98
0.57918	99.97
0.59585	99.97
0.61252	99.98
0.62918	99.98
0.64585	99.98
0.66252	99.97
0.67918	99.98
0.69585	99.98
0.71252	99.98
0.72918	99.98
0.74585	99.98
0.76252	99.98
0.77918	99.97
0.79585	99.97
0.81252	99.98
0.82918	99.98
0.84585	99.98
0.86252	99.98
0.87918	99.98
0.89585	99.98
0.91252	99.98
0.92918	99.97
0.94585	99.98
0.96252	99.98
0.97918	99.98
0.99585	99.98
1.01252	99.99
1.02918	99.98
1.04585	99.99
1.06252	99.99
1.07918	99.99
1.09585	99.99
1.11252	99.99
1.12918	99.98
1.14585	99.99
1.16252	99.99
1.17918	99.99
1.19585	99.99
1.21252	99.99
1.22918	99.99
1.24585	99.99
1.26252	99.99
1.27918	99.99
1.29585	99.99
1.31252	99.99
1.32918	99.99
1.34585	99.99
1.36252	99.99
1.37918	99.99
1.39585	99.99
1.41252	99.99
1.42918	99.99
1.44585	99.99
1.46252	99.99
1.47918	99.99
1.49585	99.99
1.51252	99.99
1.52918	99.99
1.54585	99.98
1.56252	99.99
1.57918	99.99
1.59585	99.99
1.61252	99.99
1.62918	99.99
1.64585	99.99
1.66252	99.99
1.67918	99.99
1.69585	99.98
1.71252	99.99
1.72918	99.99
1.74585	99.98
1.76252	99.98
1.77918	99.98
1.79585	99.98
1.81252	99.98
1.82918	99.98
1.84585	99.99
1.86252	99.98
1.87918	99.98
1.89585	99.98
1.91252	99.98
1.92918	99.98
1.94585	99.98
1.96252	99.98
1.97918	99.98
1.99585	99.98
2.01252	99.98
2.02918	99.98
2.04585	99.98
2.06252	99.97
2.07918	99.97
2.09585	99.98
2.11252	99.97
2.12918	99.97
2.14585	99.98
2.16252	99.98
2.17918	99.98
2.19585	99.97
2.21252	99.97
2.22918	99.97
2.24585	99.97
2.26252	99.97
2.27918	99.97
2.29585	99.97
2.31252	99.97
2.32918	99.97
2.34585	99.97
2.36252	99.97
2.37918	99.97
2.39585	99.97
2.41252	99.97
2.42918	99.97
2.44585	99.97
2.46252	99.97
2.47918	99.97
2.49585	99.97
2.51252	99.98
2.52918	99.97
2.54585	99.98
2.56252	99.98
2.57918	99.98
2.59585	99.98
2.61252	99.98
2.62918	99.97
2.64585	99.98
2.66252	99.98
2.67918	99.98
2.69585	99.99
2.71252	99.99
2.72918	99.99
2.74585	99.99
2.76252	99.99
2.77918	99.99
2.79585	99.99
2.81252	100.00
2.82918	100.00
2.84585	100.00
2.86252	100.00
2.87918	100.00
2.89585	100.00
2.91252	100.00
2.92918	100.00
2.94585	100.01
2.96252	100.01
2.97918	100.01
2.99585	100.01
3.01252	100.01
3.02918	100.01
3.04585	100.01
3.06252	100.01
3.07918	100.01
3.09585	100.01
3.11252	100.01
3.12918	100.01
3.14585	100.01
3.16252	100.01
3.17918	100.02
3.19585	100.02
3.21252	100.02
3.22918	100.02
3.24585	100.02
3.26252	100.02
3.27918	100.02
3.29585	100.03
3.31252	100.03
3.32918	100.02
3.34585	100.03
3.36252	100.03
3.37918	100.02
3.39585	100.03
3.41252	100.03
3.42918	100.03
3.44585	100.03
3.46252	100.03
3.47918	100.03
3.49585	100.03
3.51252	100.03
3.52918	100.04
3.54585	100.04
3.56252	100.03
3.57918	100.04
3.59585	100.03
3.61252	100.04
3.62918	100.04
3.64585	100.04
3.66252	100.04
3.67918	100.04
3.69585	100.04
3.71252	100.04
3.72918	100.04
3.74585	100.04
3.76252	100.04
3.77918	100.04
3.79585	100.04
3.81252	100.05
3.82918	100.04
3.84585	100.05
3.86252	100.04
3.87918	100.04
3.89585	100.05
3.91252	100.05
3.92918	100.04
3.94585	100.05
3.96252	100.05
3.97918	100.04

[Status Trace (Carrier Gas Pressure)]
Interval(msec)	1000
# of Points	239
Start Time(min)	0.013
End Time(min)	3.979
Intensity Units	
Intensity Multiplier	1
R.Time (min)	Intensity
0.01252	57.96
0.02918	54.95
0.04585	57.73
0.06252	59.75
0.07918	58.90
0.09585	57.99
0.11252	57.99
0.12918	58.01
0.14585	58.01
0.16252	58.00
0.17918	58.00
0.19585	58.00
0.21252	58.00
0.22918	58.00
0.24585	58.00
0.26252	58.00
0.27918	58.00
0.29585	58.00
0.31252	58.00
0.32918	58.00
0.34585	58.00
0.36252	58.00
0.37918	58.00
0.39585	58.00
0.41252	58.00
0.42918	58.00
0.44585	58.00
0.46252	58.00
0.47918	58.00
0.49585	58.00
0.51252	58.00
0.52918	58.00
0.54585	58.00
0.56252	58.00
0.57918	58.00
0.59585	58.00
0.61252	58.00
0.62918	58.00
0.64585	58.00
0.66252	58.00
0.67918	58.00
0.69585	58.00
0.71252	58.00
0.72918	58.00
0.74585	58.00
0.76252	58.00
0.77918	58.00
0.79585	58.00
0.81252	58.00
0.82918	58.00
0.84585	58.00
0.86252	58.00
0.87918	58.00
0.89585	58.00
0.91252	58.00
0.92918	58.00
0.94585	58.00
0.96252	58.00
0.97918	58.00
0.99585	58.00
1.01252	58.00
1.02918	58.00
1.04585	58.00
1.06252	58.00
1.07918	58.00
1.09585	58.00
1.11252	58.00
1.12918	58.00
1.14585	58.00
1.16252	58.00
1.17918	58.00
1.19585	58.00
1.21252	58.00
1.22918	58.00
1.24585	58.00
1.26252	58.00
1.27918	58.00
1.29585	58.00
1.31252	58.00
1.32918	58.00
1.34585	58.00
1.36252	58.00
1.37918	58.00
1.39585	58.00
1.41252	58.00
1.42918	58.00
1.44585	58.00
1.46252	58.00
1.47918	58.00
1.49585	58.00
1.51252	58.00
1.52918	58.00
1.54585	58.00
1.56252	58.00
1.57918	58.00
1.59585	58.00
1.61252	58.00
1.62918	58.00
1.64585	58.00
1.66252	58.01
1.67918	58.01
1.69585	58.00
1.71252	58.00
1.72918	58.00
1.74585	58.00
1.76252	58.00
1.77918	58.00
1.79585	58.00
1.81252	58.00
1.82918	58.00
1.84585	58.00
1.86252	58.00
1.87918	58.00
1.89585	58.00
1.91252	58.00
1.92918	58.00
1.94585	58.00
1.96252	58.00
1.97918	58.00
1.99585	58.00
2.01252	58.00
2.02918	58.00
2.04585	58.00
2.06252	58.00
2.07918	58.00
2.09585	58.00
2.11252	58.00
2.12918	58.00
2.14585	58.00
2.16252	58.00
2.17918	58.00
2.19585	58.00
2.21252	58.00
2.22918	58.00
2.24585	58.00
2.26252	58.00
2.27918	58.00
2.29585	58.00
2.31252	58.00
2.32918	58.00
2.34585	58.00
2.36252	58.00
2.37918	58.00
2.39585	57.99
2.41252	57.99
2.42918	58.00
2.44585	58.00
2.46252	58.00
2.47918	58.00
2.49585	58.00
2.51252	57.99
2.52918	57.99
2.54585	58.00
2.56252	58.00
2.57918	58.00
2.59585	58.00
2.61252	58.00
2.62918	58.00
2.64585	58.00
2.66252	58.00
2.67918	58.00
2.69585	58.00
2.71252	58.00
2.72918	58.00
2.74585	58.00
2.76252	58.00
2.77918	58.00
2.79585	58.00
2.81252	58.00
2.82918	58.00
2.84585	58.00
2.86252	58.00
2.87918	58.00
2.89585	58.00
2.91252	58.00
2.92918	58.00
2.94585	58.00
2.96252	58.00
2.97918	58.00
2.99585	58.00
3.01252	58.00
3.02918	58.00
3.04585	58.00
3.06252	58.00
3.07918	58.00
3.09585	58.00
3.11252	58.00
3.12918	58.00
3.14585	58.00
3.16252	58.00
3.17918	58.00
3.19585	58.00
3.21252	58.00
3.22918	58.00
3.24585	58.00
3.26252	58.00
3.27918	58.00
3.29585	58.00
3.31252	58.00
3.32918	58.00
3.34585	58.00
3.36252	58.00
3.37918	58.00
3.39585	58.00
3.41252	58.00
3.42918	58.00
3.44585	58.00
3.46252	58.00
3.47918	58.00
3.49585	58.00
3.51252	58.00
3.52918	58.00
3.54585	58.00
3.56252	58.00
3.57918	58.00
3.59585	58.00
3.61252	58.00
3.62918	58.00
3.64585	58.00
3.66252	58.00
3.67918	58.00
3.69585	58.00
3.71252	58.00
3.72918	58.00
3.74585	58.00
3.76252	58.00
3.77918	58.00
3.79585	58.00
3.81252	58.00
3.82918	58.00
3.84585	58.00
3.86252	58.00
3.87918	58.00
3.89585	58.00
3.91252	58.00
3.92918	58.00
3.94585	58.00
3.96252	58.00
3.97918	58.00

[Status Trace (Carrier Gas Flow)]
Interval(msec)	1000
# of Points	239
Start Time(min)	0.013
End Time(min)	3.979
Intensity Units	
Intensity Multiplier	1
R.Time (min)	Intensity
0.01252	34.65
0.02918	34.53
0.04585	34.54
0.06252	34.53
0.07918	34.51
0.09585	34.52
0.11252	34.51
0.12918	34.52
0.14585	34.52
0.16252	34.52
0.17918	34.52
0.19585	34.52
0.21252	34.52
0.22918	34.52
0.24585	34.51
0.26252	34.52
0.27918	34.52
0.29585	34.52
0.31252	34.52
0.32918	34.52
0.34585	34.52
0.36252	34.52
0.37918	34.52
0.39585	34.51
0.41252	34.52
0.42918	34.51
0.44585	34.51
0.46252	34.52
0.47918	34.52
0.49585	34.52
0.51252	34.52
0.52918	34.52
0.54585	34.52
0.56252	34.52
0.57918	34.52
0.59585	34.52
0.61252	34.52
0.62918	34.52
0.64585	34.51
0.66252	34.51
0.67918	34.52
0.69585	34.51
0.71252	34.52
0.72918	34.52
0.74585	34.52
0.76252	34.52
0.77918	34.51
0.79585	34.52
0.81252	34.52
0.82918	34.52
0.84585	34.52
0.86252	34.52
0.87918	34.52
0.89585	34.52
0.91252	34.52
0.92918	34.52
0.94585	34.52
0.96252	34.52
0.97918	34.52
0.99585	34.52
1.01252	34.52
1.02918	34.52
1.04585	34.52
1.06252	34.52
1.07918	34.52
1.09585	34.52
1.11252	34.52
1.12918	34.52
1.14585	34.51
1.16252	34.52
1.17918	34.51
1.19585	34.53
1.21252	34.52
1.22918	34.52
1.24585	34.52
1.26252	34.52
1.27918	34.52
1.29585	34.52
1.31252	34.52
1.32918	34.52
1.34585	34.52
1.36252	34.52
1.37918	34.52
1.39585	34.52
1.41252	34.52
1.42918	34.52
1.44585	34.52
1.46252	34.52
1.47918	34.52
1.49585	34.51
1.51252	34.52
1.52918	34.52
1.54585	34.52
1.56252	34.52
1.57918	34.52
1.59585	34.52
1.61252	34.52
1.62918	34.52
1.64585	34.51
1.66252	34.52
1.67918	34.52
1.69585	34.52
1.71252	34.51
1.72918	34.53
1.74585	34.51
1.76252	34.52
1.77918	34.52
1.79585	34.52
1.81252	34.52
1.82918	34.52
1.84585	34.51
1.86252	34.52
1.87918	34.52
1.89585	34.52
1.91252	34.51
1.92918	34.52
1.94585	34.52
1.96252	34.52
1.97918	34.52
1.99585	34.52
2.01252	34.52
2.02918	34.52
2.04585	34.52
2.06252	34.51
2.07918	34.52
2.09585	34.52
2.11252	34.52
2.12918	34.52
2.14585	34.53
2.16252	34.52
2.17918	34.52
2.19585	34.52
2.21252	34.52
2.22918	34.52
2.24585	34.52
2.26252	34.52
2.27918	34.52
2.29585	34.52
2.31252	34.52
2.32918	34.52
2.34585	34.52
2.36252	34.51
2.37918	34.52
2.39585	34.52
2.41252	34.52
2.42918	34.52
2.44585	34.52
2.46252	34.53
2.47918	34.52
2.49585	34.52
2.51252	34.52
2.52918	34.52
2.54585	34.52
2.56252	34.51
2.57918	34.52
2.59585	34.52
2.61252	34.52
2.62918	34.52
2.64585	34.52
2.66252	34.53
2.67918	34.52
2.69585	34.52
2.71252	34.52
2.72918	34.52
2.74585	34.52
2.76252	34.52
2.77918	34.52
2.79585	34.52
2.81252	34.52
2.82918	34.52
2.84585	34.52
2.86252	34.52
2.87918	34.51
2.89585	34.52
2.91252	34.52
2.92918	34.51
2.94585	34.52
2.96252	34.52
2.97918	34.52
2.99585	34.52
3.01252	34.52
3.02918	34.52
3.04585	34.52
3.06252	34.52
3.07918	34.52
3.09585	34.51
3.11252	34.52
3.12918	34.51
3.14585	34.51
3.16252	34.52
3.17918	34.52
3.19585	34.52
3.21252	34.51
3.22918	34.52
3.24585	34.52
3.26252	34.52
3.27918	34.52
3.29585	34.52
3.31252	34.52
3.32918	34.52
3.34585	34.52
3.36252	34.53
3.37918	34.52
3.39585	34.52
3.41252	34.51
3.42918	34.51
3.44585	34.52
3.46252	34.52
3.47918	34.52
3.49585	34.51
3.51252	34.52
3.52918	34.52
3.54585	34.52
3.56252	34.52
3.57918	34.52
3.59585	34.52
3.61252	34.52
3.62918	34.52
3.64585	34.52
3.66252	34.52
3.67918	34.52
3.69585	34.51
3.71252	34.52
3.72918	34.52
3.74585	34.51
3.76252	34.52
3.77918	34.52
3.79585	34.52
3.81252	34.51
3.82918	34.52
3.84585	34.52
3.86252	34.52
3.87918	34.52
3.89585	34.51
3.91252	34.52
3.92918	34.52
3.94585	34.51
3.96252	34.53
3.97918	34.51

[Status Trace (Column Flow)]
Interval(msec)	1000
# of Points	239
Start Time(min)	0.013
End Time(min)	3.979
Intensity Units	
Intensity Multiplier	1
R.Time (min)	Intensity
0.01252	5.51
0.02918	5.16
0.04585	5.48
0.06252	5.72
0.07918	5.62
0.09585	5.51
0.11252	5.51
0.12918	5.52
0.14585	5.51
0.16252	5.51
0.17918	5.51
0.19585	5.51
0.21252	5.51
0.22918	5.51
0.24585	5.51
0.26252	5.51
0.27918	5.51
0.29585	5.51
0.31252	5.51
0.32918	5.51
0.34585	5.51
0.36252	5.51
0.37918	5.51
0.39585	5.51
0.41252	5.51
0.42918	5.51
0.44585	5.51
0.46252	5.51
0.47918	5.51
0.49585	5.51
0.51252	5.51
0.52918	5.51
0.54585	5.51
0.56252	5.51
0.57918	5.51
0.59585	5.51
0.61252	5.51
0.62918	5.51
0.64585	5.51
0.66252	5.51
0.67918	5.51
0.69585	5.51
0.71252	5.51
0.72918	5.52
0.74585	5.52
0.76252	5.51
0.77918	5.52
0.79585	5.52
0.81252	5.51
0.82918	5.51
0.84585	5.51
0.86252	5.51
0.87918	5.51
0.89585	5.51
0.91252	5.51
0.92918	5.51
0.94585	5.51
0.96252	5.51
0.97918	5.51
0.99585	5.51
1.01252	5.51
1.02918	5.51
1.04585	5.51
1.06252	5.51
1.07918	5.51
1.09585	5.51
1.11252	5.51
1.12918	5.51
1.14585	5.51
1.16252	5.51
1.17918	5.51
1.19585	5.51
1.21252	5.51
1.22918	5.51
1.24585	5.51
1.26252	5.51
1.27918	5.51
1.29585	5.51
1.31252	5.51
1.32918	5.51
1.34585	5.51
1.36252	5.51
1.37918	5.51
1.39585	5.51
1.41252	5.51
1.42918	5.52
1.44585	5.52
1.46252	5.52
1.47918	5.52
1.49585	5.51
1.51252	5.52
1.52918	5.52
1.54585	5.52
1.56252	5.52
1.57918	5.52
1.59585	5.51
1.61252	5.51
1.62918	5.51
1.64585	5.50
1.66252	5.49
1.67918	5.48
1.69585	5.47
1.71252	5.46
1.72918	5.45
1.74585	5.44
1.76252	5.43
1.77918	5.42
1.79585	5.41
1.81252	5.40
1.82918	5.39
1.84585	5.38
1.86252	5.37
1.87918	5.36
1.89585	5.35
1.91252	5.34
1.92918	5.33
1.94585	5.32
1.96252	5.31
1.97918	5.30
1.99585	5.29
2.01252	5.28
2.02918	5.27
2.04585	5.26
2.06252	5.25
2.07918	5.24
2.09585	5.23
2.11252	5.22
2.12918	5.22
2.14585	5.20
2.16252	5.20
2.17918	5.19
2.19585	5.18
2.21252	5.17
2.22918	5.16
2.24585	5.15
2.26252	5.14
2.27918	5.13
2.29585	5.12
2.31252	5.11
2.32918	5.10
2.34585	5.09
2.36252	5.09
2.37918	5.08
2.39585	5.08
2.41252	5.08
2.42918	5.08
2.44585	5.08
2.46252	5.08
2.47918	5.08
2.49585	5.08
2.51252	5.08
2.52918	5.08
2.54585	5.08
2.56252	5.08
2.57918	5.08
2.59585	5.08
2.61252	5.08
2.62918	5.08
2.64585	5.08
2.66252	5.08
2.67918	5.08
2.69585	5.08
2.71252	5.08
2.72918	5.08
2.74585	5.08
2.76252	5.08
2.77918	5.08
2.79585	5.08
2.81252	5.08
2.82918	5.08
2.84585	5.08
2.86252	5.07
2.87918	5.07
2.89585	5.07
2.91252	5.07
2.92918	5.07
2.94585	5.07
2.96252	5.07
2.97918	5.07
2.99585	5.07
3.01252	5.07
3.02918	5.07
3.04585	5.07
3.06252	5.07
3.07918	5.07
3.09585	5.07
3.11252	5.07
3.12918	5.07
3.14585	5.07
3.16252	5.07
3.17918	5.07
3.19585	5.07
3.21252	5.07
3.22918	5.07
3.24585	5.07
3.26252	5.07
3.27918	5.07
3.29585	5.07
3.31252	5.07
3.32918	5.07
3.34585	5.07
3.36252	5.07
3.37918	5.07
3.39585	5.07
3.41252	5.07
3.42918	5.07
3.44585	5.07
3.46252	5.07
3.47918	5.07
3.49585	5.07
3.51252	5.07
3.52918	5.07
3.54585	5.07
3.56252	5.07
3.57918	5.07
3.59585	5.07
3.61252	5.07
3.62918	5.07
3.64585	5.07
3.66252	5.07
3.67918	5.07
3.69585	5.07
3.71252	5.07
3.72918	5.07
3.74585	5.07
3.76252	5.07
3.77918	5.07
3.79585	5.07
3.81252	5.07
3.82918	5.07
3.84585	5.07
3.86252	5.07
3.87918	5.07
3.89585	5.07
3.91252	5.07
3.92918	5.07
3.94585	5.07
3.96252	5.07
3.97918	5.07

[Status Trace (Linear Velocity)]
Interval(msec)	1000
# of Points	239
Start Time(min)	0.013
End Time(min)	3.979
Intensity Units	
Intensity Multiplier	1
R.Time (min)	Intensity
0.01252	38.99
0.02918	37.01
0.04585	38.83
0.06252	40.16
0.07918	39.61
0.09585	39.01
0.11252	39.01
0.12918	39.02
0.14585	39.02
0.16252	39.02
0.17918	39.01
0.19585	39.01
0.21252	39.01
0.22918	39.01
0.24585	39.01
0.26252	39.01
0.27918	39.01
0.29585	39.01
0.31252	39.01
0.32918	39.01
0.34585	39.01
0.36252	39.01
0.37918	39.01
0.39585	39.01
0.41252	39.01
0.42918	39.02
0.44585	39.02
0.46252	39.01
0.47918	39.01
0.49585	39.01
0.51252	39.01
0.52918	39.01
0.54585	39.01
0.56252	39.01
0.57918	39.01
0.59585	39.01
0.61252	39.01
0.62918	39.01
0.64585	39.01
0.66252	39.01
0.67918	39.01
0.69585	39.01
0.71252	39.02
0.72918	39.02
0.74585	39.02
0.76252	39.02
0.77918	39.02
0.79585	39.02
0.81252	39.02
0.82918	39.01
0.84585	39.01
0.86252	39.01
0.87918	39.01
0.89585	39.01
0.91252	39.01
0.92918	39.01
0.94585	39.01
0.96252	39.01
0.97918	39.01
0.99585	39.01
1.01252	39.01
1.02918	39.01
1.04585	39.02
1.06252	39.01
1.07918	39.01
1.09585	39.01
1.11252	39.01
1.12918	39.01
1.14585	39.01
1.16252	39.02
1.17918	39.02
1.19585	39.02
1.21252	39.02
1.22918	39.02
1.24585	39.02
1.26252	39.02
1.27918	39.02
1.29585	39.01
1.31252	39.01
1.32918	39.01
1.34585	39.01
1.36252	39.01
1.37918	39.01
1.39585	39.02
1.41252	39.02
1.42918	39.02
1.44585	39.02
1.46252	39.02
1.47918	39.02
1.49585	39.02
1.51252	39.02
1.52918	39.02
1.54585	39.02
1.56252	39.02
1.57918	39.02
1.59585	39.02
1.61252	39.01
1.62918	39.00
1.64585	38.98
1.66252	38.95
1.67918	38.92
1.69585	38.88
1.71252	38.85
1.72918	38.82
1.74585	38.78
1.76252	38.75
1.77918	38.72
1.79585	38.69
1.81252	38.66
1.82918	38.63
1.84585	38.59
1.86252	38.56
1.87918	38.54
1.89585	38.50
1.91252	38.47
1.92918	38.44
1.94585	38.41
1.96252	38.38
1.97918	38.36
1.99585	38.32
2.01252	38.29
2.02918	38.26
2.04585	38.23
2.06252	38.20
2.07918	38.17
2.09585	38.14
2.11252	38.11
2.12918	38.08
2.14585	38.05
2.16252	38.02
2.17918	38.00
2.19585	37.96
2.21252	37.94
2.22918	37.91
2.24585	37.88
2.26252	37.85
2.27918	37.82
2.29585	37.79
2.31252	37.76
2.32918	37.73
2.34585	37.70
2.36252	37.67
2.37918	37.66
2.39585	37.65
2.41252	37.65
2.42918	37.66
2.44585	37.66
2.46252	37.65
2.47918	37.65
2.49585	37.65
2.51252	37.65
2.52918	37.64
2.54585	37.65
2.56252	37.65
2.57918	37.65
2.59585	37.65
2.61252	37.65
2.62918	37.65
2.64585	37.65
2.66252	37.65
2.67918	37.64
2.69585	37.64
2.71252	37.64
2.72918	37.64
2.74585	37.64
2.76252	37.64
2.77918	37.64
2.79585	37.64
2.81252	37.64
2.82918	37.64
2.84585	37.64
2.86252	37.64
2.87918	37.64
2.89585	37.64
2.91252	37.64
2.92918	37.64
2.94585	37.64
2.96252	37.64
2.97918	37.64
2.99585	37.64
3.01252	37.63
3.02918	37.63
3.04585	37.63
3.06252	37.63
3.07918	37.63
3.09585	37.63
3.11252	37.63
3.12918	37.63
3.14585	37.63
3.16252	37.63
3.17918	37.63
3.19585	37.62
3.21252	37.62
3.22918	37.62
3.24585	37.62
3.26252	37.62
3.27918	37.62
3.29585	37.62
3.31252	37.62
3.32918	37.62
3.34585	37.62
3.36252	37.62
3.37918	37.62
3.39585	37.62
3.41252	37.63
3.42918	37.63
3.44585	37.63
3.46252	37.63
3.47918	37.63
3.49585	37.63
3.51252	37.63
3.52918	37.63
3.54585	37.63
3.56252	37.63
3.57918	37.63
3.59585	37.63
3.61252	37.63
3.62918	37.63
3.64585	37.63
3.66252	37.63
3.67918	37.63
3.69585	37.63
3.71252	37.63
3.72918	37.63
3.74585	37.63
3.76252	37.63
3.77918	37.63
3.79585	37.63
3.81252	37.63
3.82918	37.63
3.84585	37.63
3.86252	37.63
3.87918	37.63
3.89585	37.63
3.91252	37.63
3.92918	37.63
3.94585	37.63
3.96252	37.62
3.97918	37.62

