[Header]
Application Name	LabSolutions
Version	5.110
Data File Name	C:\Users\User\Desktop\GC Analyses\Jack\Nachusa Grasslands Sampling\T2 Timepoint July 12th\T2_07122022_052.gcd
Output Date	3/14/2023
Output Time	3:42:33 PM

[File Information]
Type	Data File
Generated	3/10/2023 6:11:36 PM
Generated by	System Administrator
Modified	3/10/2023 6:18:30 PM
Modified by	System Administrator

[Sample Information]
Operator Name	System Administrator
Acquired	3/10/2023 6:14:29 PM
Sample Type	0:Unknown
Level	0
Sample Name	052
Sample ID	052
ISTD Amount1	1
ISTD Amount2	1
ISTD Amount3	1
ISTD Amount4	1
ISTD Amount5	1
ISTD Amount6	1
ISTD Amount7	1
ISTD Amount8	1
ISTD Amount9	1
ISTD Amount10	1
ISTD Amount11	1
ISTD Amount12	1
ISTD Amount13	1
ISTD Amount14	1
ISTD Amount15	1
ISTD Amount16	1
ISTD Amount17	1
ISTD Amount18	1
ISTD Amount19	1
ISTD Amount20	1
ISTD Amount21	1
ISTD Amount22	1
ISTD Amount23	1
ISTD Amount24	1
ISTD Amount25	1
ISTD Amount26	1
ISTD Amount27	1
ISTD Amount28	1
ISTD Amount29	1
ISTD Amount30	1
ISTD Amount31	1
ISTD Amount32	1
Sample Amount	1
Dilution Factor	1
Vial#	51
Injection Volume	1
Injection Count	1
Bar Code	

[Original Files]
Data File	C:\Users\User\Desktop\GC Analyses\Jack\Nachusa Grasslands Sampling\T1 Timepoint July 12th\T2_07122022_052.gcd
Method File	C:\LabSolutions\Data\GHG_4min_2022\ghg3_togas_w_acet_4 min_new_int.gcm
Batch File	C:\LabSolutions\Data\AutoSamplerTesting\T2_07122022.gcb
Report Format File	c:\LabSolutions\System\DEFAULT.lsr

[File Description]


[Configuration]
Instrument Name	C0B7VH3-Instrument1
Instrument #	1
Line #	1
# of Detectors	3
Detector ID	DET#1	DET#2	DET#3
Detector Name	FID	PTCD	ECD
# of Channels	1	1	1

[Peak Table(Ch1)]
# of Peaks	3
Peak#	R.Time	I.Time	F.Time	Area	Height	A/H	Conc.	Mark	ID#	Name	k'	Plate #	Plate Ht.	Tailing	Resolution	Sep.Factor	Area Ratio	Height Ratio	Conc. %	Norm Conc.
1	1.476	1.435	1.538	41512	20065	2.069	293.075	   	1	CO	0.000	9535	15.732	1.274	0.000	0.000	0	0	28.998	28.998
2	1.567	1.538	1.630	4849	2325	2.085	93.753	 V 	2	CH4	0.062	9851	15.227	0.000	1.483	0.000	0	0	9.276	9.276
3	1.996	1.949	2.502	2485699	1187857	2.093	623.843	   	3	CO2	0.353	17537	8.553	1.228	6.949	5.680	0	0	61.726	61.726

[Peak Table(Ch2)]
# of Peaks	0

[Peak Table(Ch3)]
# of Peaks	5
Peak#	R.Time	I.Time	F.Time	Area	Height	A/H	Conc.	Mark	ID#	Name	k'	Plate #	Plate Ht.	Tailing	Resolution	Sep.Factor	Area Ratio	Height Ratio	Conc. %	Norm Conc.
1	2.462	2.264	2.510	2338	656	3.564	0.000	   			0.000	8858	16.933	0.000	0.000	0.000	0	0	0.000	0.000
2	2.535	2.510	2.634	1607	380	4.230	0.000	 V 			0.030	4322	34.709	0.000	0.566	0.000	0	0	0.000	0.000
3	2.649	2.634	2.715	193	71	2.707	0.000	 V 			0.076	5657	26.517	0.000	0.770	2.550	0	0	0.000	0.000
4	2.876	2.715	3.041	19444	4987	3.899	0.497	 V 	1	N2O	0.168	13106	11.445	1.640	1.884	2.216	0	0	100.000	100.000
5	3.254	3.049	3.995	17016	475	35.807	0.000	   	2	SF6	0.322	159	943.666	2.306	0.667	1.912	0	0	0.000	0.000

[Compound Results(Ch1)]
# of IDs	6
ID#	Name	R.Time	Area	Height	Conc.	Curve	3rd	2nd	1st	Constant	Area Ratio	Height Ratio	Conc. %	Norm Conc.
1	CO	1.476	41512	20065	293.075	Linear	0.000000e+00	0.000000e+00	1.416423e+002	0.000000e+00	0	0	28.998	28.998
2	CH4	1.567	4849	2325	93.753	Linear	0.000000e+00	0.000000e+00	5.171738e+001	0.000000e+00	0	0	9.276	9.276
3	CO2	1.996	2485699	1187857	623.843	Linear	0.000000e+00	0.000000e+00	3.984494e+003	0.000000e+00	0	0	61.726	61.726
4	Ethylene	0.000	0	0	0.000	Linear	0.000000e+00	0.000000e+00	0.000000e+00	0.000000e+00	0	0	0.000	0.000
5	Acetylene	0.000	0	0	0.000	Linear	0.000000e+00	0.000000e+00	0.000000e+00	0.000000e+00	0	0	0.000	0.000
6	Ethane	0.000	0	0	0.000	Linear	0.000000e+00	0.000000e+00	0.000000e+00	0.000000e+00	0	0	0.000	0.000

[Compound Results(Ch2)]
# of IDs	5
ID#	Name	R.Time	Area	Height	Conc.	Curve	3rd	2nd	1st	Constant	Area Ratio	Height Ratio	Conc. %	Norm Conc.
1	Hydrogen	0.000	0	0	0.000	Linear	0.000000e+00	0.000000e+00	0.000000e+00	0.000000e+00	0	0	0.000	0.000
2	Oxygen	0.000	0	0	0.000	Linear	0.000000e+00	0.000000e+00	0.000000e+00	0.000000e+00	0	0	0.000	0.000
3	Nitrogen	0.000	0	0	0.000	Linear	0.000000e+00	0.000000e+00	0.000000e+00	0.000000e+00	0	0	0.000	0.000
4	Methane	0.000	0	0	0.000	Linear	0.000000e+00	0.000000e+00	0.000000e+00	0.000000e+00	0	0	0.000	0.000
5	Carbon Monoxide	0.000	0	0	0.000	Linear	0.000000e+00	0.000000e+00	0.000000e+00	0.000000e+00	0	0	0.000	0.000

[Compound Results(Ch3)]
# of IDs	2
ID#	Name	R.Time	Area	Height	Conc.	Curve	3rd	2nd	1st	Constant	Area Ratio	Height Ratio	Conc. %	Norm Conc.
1	N2O	2.876	19444	4987	0.497	Linear	0.000000e+00	0.000000e+00	3.915173e+004	0.000000e+00	0	0	100.000	100.000
2	SF6	3.254	17016	475	0.000	Linear	0.000000e+00	0.000000e+00	0.000000e+00	0.000000e+00	0	0	0.000	0.000

[Group Results(Ch1)]
# of Groups	0

[Group Results(Ch2)]
# of Groups	0

[Group Results(Ch3)]
# of Groups	0

[Chromatogram (Ch1)]
Interval(msec)	220
# of Points	1091
Start Time(min)	0.002
End Time(min)	3.998
R.Time (min)	Intensity
0.00167	3
0.00533	7
0.00900	11
0.01267	16
0.01633	22
0.02000	32
0.02367	45
0.02733	58
0.03100	68
0.03467	68
0.03833	63
0.04200	60
0.04567	61
0.04933	66
0.05300	69
0.05667	66
0.06033	62
0.06400	60
0.06767	61
0.07133	64
0.07500	68
0.07867	70
0.08233	72
0.08600	72
0.08967	71
0.09333	72
0.09700	72
0.10067	63
0.10433	49
0.10800	34
0.11167	20
0.11533	13
0.11900	10
0.12267	12
0.12633	19
0.13000	28
0.13367	34
0.13733	35
0.14100	29
0.14467	19
0.14833	6
0.15200	-3
0.15567	-8
0.15933	-14
0.16300	-21
0.16667	-26
0.17033	-30
0.17400	-31
0.17767	-30
0.18133	-34
0.18500	-35
0.18867	-30
0.19233	-20
0.19600	-9
0.19967	1
0.20333	8
0.20700	10
0.21067	8
0.21433	3
0.21800	-2
0.22167	-6
0.22533	-10
0.22900	-11
0.23267	-9
0.23633	-8
0.24000	-10
0.24367	-14
0.24733	-16
0.25100	-12
0.25467	-7
0.25833	-2
0.26200	0
0.26567	-6
0.26933	-15
0.27300	-23
0.27667	-27
0.28033	-27
0.28400	-23
0.28767	-19
0.29133	-15
0.29500	-8
0.29867	-1
0.30233	4
0.30600	2
0.30967	-5
0.31333	-15
0.31700	-28
0.32067	-37
0.32433	-42
0.32800	-40
0.33167	-39
0.33533	-33
0.33900	-25
0.34267	-18
0.34633	-16
0.35000	-18
0.35367	-14
0.35733	-9
0.36100	-9
0.36467	-10
0.36833	-11
0.37200	-10
0.37567	-12
0.37933	-14
0.38300	-15
0.38667	-10
0.39033	-3
0.39400	4
0.39767	4
0.40133	-1
0.40500	-14
0.40867	-19
0.41233	-16
0.41600	-7
0.41967	-2
0.42333	-0
0.42700	-4
0.43067	-12
0.43433	-20
0.43800	-25
0.44167	-29
0.44533	-33
0.44900	-35
0.45267	-36
0.45633	-38
0.46000	-36
0.46367	-30
0.46733	-26
0.47100	-22
0.47467	-22
0.47833	-24
0.48200	-26
0.48567	-26
0.48933	-22
0.49300	-16
0.49667	-11
0.50033	-10
0.50400	-12
0.50767	-15
0.51133	-16
0.51500	-16
0.51867	-9
0.52233	-3
0.52600	-1
0.52967	-2
0.53333	-6
0.53700	-10
0.54067	-9
0.54433	-4
0.54800	6
0.55167	15
0.55533	19
0.55900	18
0.56267	12
0.56633	6
0.57000	1
0.57367	3
0.57733	7
0.58100	12
0.58467	17
0.58833	23
0.59200	23
0.59567	20
0.59933	15
0.60300	10
0.60667	6
0.61033	1
0.61400	-4
0.61767	-5
0.62133	-3
0.62500	3
0.62867	9
0.63233	13
0.63600	15
0.63967	15
0.64333	14
0.64700	9
0.65067	9
0.65433	11
0.65800	10
0.66167	9
0.66533	7
0.66900	4
0.67267	7
0.67633	14
0.68000	19
0.68367	22
0.68733	27
0.69100	31
0.69467	32
0.69833	30
0.70200	27
0.70567	21
0.70933	16
0.71300	15
0.71667	17
0.72033	19
0.72400	19
0.72767	14
0.73133	5
0.73500	-3
0.73867	-8
0.74233	-8
0.74600	-7
0.74967	-6
0.75333	-7
0.75700	-4
0.76067	-0
0.76433	3
0.76800	5
0.77167	8
0.77533	10
0.77900	10
0.78267	9
0.78633	5
0.79000	5
0.79367	6
0.79733	5
0.80100	1
0.80467	-3
0.80833	-4
0.81200	1
0.81567	8
0.81933	14
0.82300	17
0.82667	14
0.83033	8
0.83400	3
0.83767	-0
0.84133	-2
0.84500	-0
0.84867	3
0.85233	5
0.85600	4
0.85967	4
0.86333	4
0.86700	-1
0.87067	-6
0.87433	-9
0.87800	-14
0.88167	-18
0.88533	-20
0.88900	-19
0.89267	-17
0.89633	-14
0.90000	-7
0.90367	0
0.90733	7
0.91100	10
0.91467	11
0.91833	10
0.92200	7
0.92567	-1
0.92933	-12
0.93300	-18
0.93667	-18
0.94033	-16
0.94400	-12
0.94767	-9
0.95133	-5
0.95500	-4
0.95867	-9
0.96233	-16
0.96600	-23
0.96967	-26
0.97333	-28
0.97700	-30
0.98067	-32
0.98433	-34
0.98800	-35
0.99167	-34
0.99533	-27
0.99900	-19
1.00267	-14
1.00633	-9
1.01000	-1
1.01367	5
1.01733	5
1.02100	-0
1.02467	-4
1.02833	-7
1.03200	-11
1.03567	-18
1.03933	-28
1.04300	-36
1.04667	-40
1.05033	-42
1.05400	-46
1.05767	-53
1.06133	-59
1.06500	-60
1.06867	-55
1.07233	-52
1.07600	-51
1.07967	-48
1.08333	-46
1.08700	-47
1.09067	-49
1.09433	-47
1.09800	-44
1.10167	-36
1.10533	-30
1.10900	-27
1.11267	-29
1.11633	-34
1.12000	-39
1.12367	-45
1.12733	-48
1.13100	-49
1.13467	-47
1.13833	-40
1.14200	-36
1.14567	-42
1.14933	-54
1.15300	-58
1.15667	-54
1.16033	-45
1.16400	-39
1.16767	-33
1.17133	-27
1.17500	-24
1.17867	-27
1.18233	-33
1.18600	-40
1.18967	-47
1.19333	-51
1.19700	-49
1.20067	-41
1.20433	-31
1.20800	-21
1.21167	-17
1.21533	-22
1.21900	-35
1.22267	-52
1.22633	-67
1.23000	-74
1.23367	-75
1.23733	-76
1.24100	-75
1.24467	-70
1.24833	-66
1.25200	-67
1.25567	-74
1.25933	-78
1.26300	-78
1.26667	-74
1.27033	-67
1.27400	-62
1.27767	-59
1.28133	-54
1.28500	-52
1.28867	-51
1.29233	-51
1.29600	-50
1.29967	-52
1.30333	-59
1.30700	-66
1.31067	-72
1.31433	-78
1.31800	-81
1.32167	-85
1.32533	-90
1.32900	-91
1.33267	-85
1.33633	-82
1.34000	-82
1.34367	-85
1.34733	-89
1.35100	-91
1.35467	-90
1.35833	-87
1.36200	-78
1.36567	-68
1.36933	-65
1.37300	-65
1.37667	-63
1.38033	-64
1.38400	-66
1.38767	-69
1.39133	-70
1.39500	-71
1.39867	-74
1.40233	-83
1.40600	-92
1.40967	-101
1.41333	-106
1.41700	-107
1.42067	-104
1.42433	-99
1.42800	-96
1.43167	-95
1.43533	-88
1.43900	-53
1.44267	70
1.44633	402
1.45000	1369
1.45367	3604
1.45733	7095
1.46100	11070
1.46467	14723
1.46833	17584
1.47200	19407
1.47567	19990
1.47933	19203
1.48300	17164
1.48667	14315
1.49033	11246
1.49400	8437
1.49767	6129
1.50133	4364
1.50500	3079
1.50867	2171
1.51233	1538
1.51600	1104
1.51967	808
1.52333	607
1.52700	470
1.53067	373
1.53433	304
1.53800	274
1.54167	325
1.54533	517
1.54900	856
1.55267	1271
1.55633	1671
1.56000	1992
1.56367	2203
1.56733	2277
1.57100	2191
1.57467	1949
1.57833	1604
1.58200	1238
1.58567	907
1.58933	640
1.59300	441
1.59667	302
1.60033	206
1.60400	136
1.60767	86
1.61133	48
1.61500	19
1.61867	-0
1.62233	-14
1.62600	-23
1.62967	-29
1.63333	-33
1.63700	-36
1.64067	-38
1.64433	-38
1.64800	-40
1.65167	-41
1.65533	-45
1.65900	-49
1.66267	-51
1.66633	-51
1.67000	-51
1.67367	-52
1.67733	-54
1.68100	-57
1.68467	-57
1.68833	-53
1.69200	-54
1.69567	-61
1.69933	-70
1.70300	-78
1.70667	-83
1.71033	-88
1.71400	-92
1.71767	-91
1.72133	-87
1.72500	-87
1.72867	-86
1.73233	-85
1.73600	-83
1.73967	-80
1.74333	-77
1.74700	-69
1.75067	-61
1.75433	-58
1.75800	-61
1.76167	-69
1.76533	-78
1.76900	-87
1.77267	-91
1.77633	-93
1.78000	-96
1.78367	-98
1.78733	-99
1.79100	-97
1.79467	-97
1.79833	-97
1.80200	-95
1.80567	-94
1.80933	-93
1.81300	-86
1.81667	-82
1.82033	-83
1.82400	-87
1.82767	-89
1.83133	-87
1.83500	-85
1.83867	-87
1.84233	-86
1.84600	-83
1.84967	-81
1.85333	-82
1.85700	-86
1.86067	-89
1.86433	-89
1.86800	-93
1.87167	-99
1.87533	-105
1.87900	-107
1.88267	-109
1.88633	-111
1.89000	-109
1.89367	-104
1.89733	-99
1.90100	-95
1.90467	-94
1.90833	-94
1.91200	-101
1.91567	-112
1.91933	-119
1.92300	-118
1.92667	-111
1.93033	-103
1.93400	-97
1.93767	-89
1.94133	-85
1.94500	-86
1.94867	-84
1.95233	-39
1.95600	312
1.95967	2293
1.96333	10726
1.96700	37906
1.97067	105066
1.97433	232901
1.97800	423018
1.98167	649728
1.98533	872344
1.98900	1052312
1.99267	1162259
1.99633	1187821
2.00000	1129685
2.00367	1004105
2.00733	838228
2.01100	661785
2.01467	498746
2.01833	362710
2.02200	257419
2.02567	180213
2.02933	125695
2.03300	88141
2.03667	62640
2.04033	45435
2.04400	33825
2.04767	25929
2.05133	20491
2.05500	16681
2.05867	13947
2.06233	11934
2.06600	10413
2.06967	9234
2.07333	8301
2.07700	7545
2.08067	6918
2.08433	6387
2.08800	5930
2.09167	5536
2.09533	5193
2.09900	4890
2.10267	4621
2.10633	4375
2.11000	4152
2.11367	3945
2.11733	3751
2.12100	3571
2.12467	3406
2.12833	3256
2.13200	3121
2.13567	3001
2.13933	2888
2.14300	2781
2.14667	2679
2.15033	2583
2.15400	2491
2.15767	2401
2.16133	2312
2.16500	2232
2.16867	2162
2.17233	2097
2.17600	2038
2.17967	1986
2.18333	1930
2.18700	1872
2.19067	1816
2.19433	1765
2.19800	1721
2.20167	1677
2.20533	1633
2.20900	1588
2.21267	1544
2.21633	1502
2.22000	1463
2.22367	1430
2.22733	1399
2.23100	1367
2.23467	1336
2.23833	1305
2.24200	1271
2.24567	1237
2.24933	1206
2.25300	1176
2.25667	1145
2.26033	1114
2.26400	1086
2.26767	1064
2.27133	1049
2.27500	1036
2.27867	1020
2.28233	999
2.28600	979
2.28967	963
2.29333	948
2.29700	933
2.30067	918
2.30433	903
2.30800	887
2.31167	872
2.31533	855
2.31900	837
2.32267	819
2.32633	803
2.33000	789
2.33367	775
2.33733	759
2.34100	745
2.34467	732
2.34833	724
2.35200	717
2.35567	706
2.35933	691
2.36300	676
2.36667	662
2.37033	653
2.37400	648
2.37767	641
2.38133	635
2.38500	632
2.38867	632
2.39233	635
2.39600	632
2.39967	622
2.40333	611
2.40700	603
2.41067	596
2.41433	590
2.41800	581
2.42167	572
2.42533	565
2.42900	559
2.43267	554
2.43633	545
2.44000	535
2.44367	528
2.44733	521
2.45100	516
2.45467	516
2.45833	513
2.46200	509
2.46567	504
2.46933	497
2.47300	490
2.47667	483
2.48033	481
2.48400	483
2.48767	482
2.49133	480
2.49500	476
2.49867	473
2.50233	474
2.50600	477
2.50967	477
2.51333	475
2.51700	473
2.52067	470
2.52433	464
2.52800	457
2.53167	448
2.53533	437
2.53900	427
2.54267	422
2.54633	420
2.55000	419
2.55367	421
2.55733	422
2.56100	416
2.56467	405
2.56833	395
2.57200	391
2.57567	387
2.57933	381
2.58300	376
2.58667	374
2.59033	372
2.59400	372
2.59767	375
2.60133	376
2.60500	377
2.60867	377
2.61233	373
2.61600	366
2.61967	359
2.62333	354
2.62700	352
2.63067	358
2.63433	367
2.63800	374
2.64167	377
2.64533	377
2.64900	373
2.65267	370
2.65633	366
2.66000	364
2.66367	365
2.66733	362
2.67100	356
2.67467	351
2.67833	345
2.68200	342
2.68567	338
2.68933	332
2.69300	326
2.69667	327
2.70033	334
2.70400	343
2.70767	351
2.71133	352
2.71500	345
2.71867	333
2.72233	319
2.72600	305
2.72967	292
2.73333	288
2.73700	291
2.74067	290
2.74433	288
2.74800	288
2.75167	291
2.75533	295
2.75900	303
2.76267	310
2.76633	313
2.77000	316
2.77367	318
2.77733	319
2.78100	319
2.78467	320
2.78833	324
2.79200	328
2.79567	329
2.79933	324
2.80300	318
2.80667	310
2.81033	308
2.81400	310
2.81767	313
2.82133	314
2.82500	309
2.82867	304
2.83233	303
2.83600	305
2.83967	310
2.84333	314
2.84700	325
2.85067	337
2.85433	343
2.85800	342
2.86167	333
2.86533	323
2.86900	321
2.87267	322
2.87633	323
2.88000	320
2.88367	311
2.88733	304
2.89100	304
2.89467	308
2.89833	310
2.90200	310
2.90567	309
2.90933	310
2.91300	308
2.91667	304
2.92033	303
2.92400	308
2.92767	315
2.93133	320
2.93500	321
2.93867	317
2.94233	313
2.94600	312
2.94967	310
2.95333	309
2.95700	304
2.96067	298
2.96433	294
2.96800	294
2.97167	296
2.97533	297
2.97900	301
2.98267	305
2.98633	309
2.99000	312
2.99367	311
2.99733	309
3.00100	311
3.00467	314
3.00833	317
3.01200	317
3.01567	320
3.01933	322
3.02300	322
3.02667	323
3.03033	323
3.03400	321
3.03767	316
3.04133	310
3.04500	306
3.04867	303
3.05233	303
3.05600	301
3.05967	297
3.06333	294
3.06700	289
3.07067	282
3.07433	281
3.07800	282
3.08167	285
3.08533	289
3.08900	293
3.09267	296
3.09633	296
3.10000	292
3.10367	289
3.10733	288
3.11100	286
3.11467	283
3.11833	282
3.12200	283
3.12567	281
3.12933	280
3.13300	282
3.13667	284
3.14033	286
3.14400	287
3.14767	288
3.15133	284
3.15500	278
3.15867	273
3.16233	270
3.16600	268
3.16967	267
3.17333	268
3.17700	268
3.18067	267
3.18433	265
3.18800	264
3.19167	266
3.19533	267
3.19900	270
3.20267	275
3.20633	280
3.21000	285
3.21367	288
3.21733	288
3.22100	289
3.22467	288
3.22833	287
3.23200	284
3.23567	279
3.23933	275
3.24300	275
3.24667	275
3.25033	273
3.25400	273
3.25767	272
3.26133	266
3.26500	260
3.26867	255
3.27233	249
3.27600	245
3.27967	246
3.28333	250
3.28700	253
3.29067	257
3.29433	263
3.29800	267
3.30167	271
3.30533	274
3.30900	277
3.31267	278
3.31633	273
3.32000	265
3.32367	256
3.32733	250
3.33100	247
3.33467	246
3.33833	245
3.34200	244
3.34567	241
3.34933	237
3.35300	235
3.35667	236
3.36033	239
3.36400	243
3.36767	246
3.37133	249
3.37500	249
3.37867	243
3.38233	237
3.38600	231
3.38967	227
3.39333	228
3.39700	233
3.40067	234
3.40433	230
3.40800	226
3.41167	228
3.41533	232
3.41900	232
3.42267	230
3.42633	228
3.43000	226
3.43367	226
3.43733	227
3.44100	227
3.44467	230
3.44833	232
3.45200	233
3.45567	232
3.45933	232
3.46300	234
3.46667	233
3.47033	235
3.47400	235
3.47767	233
3.48133	230
3.48500	226
3.48867	224
3.49233	225
3.49600	227
3.49967	229
3.50333	230
3.50700	232
3.51067	231
3.51433	224
3.51800	215
3.52167	211
3.52533	208
3.52900	207
3.53267	210
3.53633	211
3.54000	207
3.54367	201
3.54733	197
3.55100	198
3.55467	199
3.55833	200
3.56200	198
3.56567	197
3.56933	198
3.57300	197
3.57667	193
3.58033	187
3.58400	184
3.58767	185
3.59133	187
3.59500	187
3.59867	186
3.60233	186
3.60600	190
3.60967	194
3.61333	193
3.61700	192
3.62067	189
3.62433	188
3.62800	192
3.63167	198
3.63533	202
3.63900	201
3.64267	198
3.64633	197
3.65000	196
3.65367	198
3.65733	202
3.66100	206
3.66467	213
3.66833	219
3.67200	219
3.67567	213
3.67933	208
3.68300	204
3.68667	201
3.69033	198
3.69400	193
3.69767	185
3.70133	178
3.70500	172
3.70867	170
3.71233	171
3.71600	173
3.71967	174
3.72333	174
3.72700	176
3.73067	181
3.73433	187
3.73800	189
3.74167	189
3.74533	190
3.74900	187
3.75267	180
3.75633	172
3.76000	165
3.76367	160
3.76733	156
3.77100	156
3.77467	159
3.77833	165
3.78200	171
3.78567	179
3.78933	187
3.79300	190
3.79667	188
3.80033	186
3.80400	180
3.80767	172
3.81133	163
3.81500	155
3.81867	150
3.82233	144
3.82600	140
3.82967	141
3.83333	144
3.83700	144
3.84067	147
3.84433	150
3.84800	151
3.85167	151
3.85533	149
3.85900	148
3.86267	146
3.86633	143
3.87000	141
3.87367	141
3.87733	143
3.88100	150
3.88467	158
3.88833	164
3.89200	164
3.89567	158
3.89933	148
3.90300	140
3.90667	136
3.91033	137
3.91400	140
3.91767	145
3.92133	147
3.92500	144
3.92867	140
3.93233	137
3.93600	141
3.93967	152
3.94333	159
3.94700	160
3.95067	155
3.95433	146
3.95800	139
3.96167	136
3.96533	134
3.96900	135
3.97267	142
3.97633	149
3.98000	155
3.98367	158
3.98733	162
3.99100	163
3.99467	159
3.99833	152

[Chromatogram (Ch2)]
Interval(msec)	220
# of Points	1091
Start Time(min)	0.002
End Time(min)	3.998
R.Time (min)	Intensity
0.00167	-0
0.00533	-0
0.00900	-0
0.01267	0
0.01633	0
0.02000	0
0.02367	-0
0.02733	-0
0.03100	-0
0.03467	-1
0.03833	-1
0.04200	-1
0.04567	-1
0.04933	-0
0.05300	-0
0.05667	0
0.06033	0
0.06400	1
0.06767	1
0.07133	0
0.07500	0
0.07867	0
0.08233	0
0.08600	-0
0.08967	-0
0.09333	-0
0.09700	-1
0.10067	-1
0.10433	-1
0.10800	-1
0.11167	-0
0.11533	-0
0.11900	-0
0.12267	0
0.12633	-0
0.13000	-0
0.13367	-0
0.13733	-0
0.14100	-1
0.14467	-1
0.14833	-1
0.15200	-1
0.15567	-2
0.15933	-2
0.16300	-2
0.16667	-2
0.17033	-3
0.17400	-3
0.17767	-3
0.18133	-3
0.18500	-3
0.18867	-2
0.19233	-2
0.19600	-2
0.19967	-2
0.20333	-2
0.20700	-2
0.21067	-2
0.21433	-2
0.21800	-2
0.22167	-2
0.22533	-2
0.22900	-2
0.23267	-1
0.23633	-1
0.24000	-1
0.24367	-1
0.24733	-1
0.25100	-2
0.25467	-2
0.25833	-2
0.26200	-2
0.26567	-1
0.26933	-1
0.27300	-1
0.27667	-1
0.28033	-1
0.28400	-1
0.28767	-1
0.29133	-2
0.29500	-2
0.29867	-2
0.30233	-2
0.30600	-2
0.30967	-2
0.31333	-2
0.31700	-1
0.32067	-1
0.32433	-1
0.32800	-1
0.33167	-0
0.33533	-0
0.33900	-0
0.34267	-0
0.34633	-0
0.35000	-0
0.35367	-0
0.35733	-0
0.36100	-0
0.36467	-1
0.36833	-1
0.37200	-1
0.37567	-1
0.37933	-1
0.38300	-1
0.38667	-1
0.39033	-1
0.39400	-1
0.39767	-1
0.40133	-1
0.40500	-0
0.40867	-0
0.41233	-0
0.41600	0
0.41967	0
0.42333	1
0.42700	1
0.43067	1
0.43433	1
0.43800	0
0.44167	0
0.44533	-0
0.44900	-1
0.45267	-1
0.45633	-1
0.46000	-2
0.46367	-2
0.46733	-2
0.47100	-2
0.47467	-2
0.47833	-2
0.48200	-2
0.48567	-2
0.48933	-2
0.49300	-2
0.49667	-2
0.50033	-1
0.50400	-1
0.50767	-1
0.51133	-1
0.51500	-1
0.51867	-0
0.52233	-0
0.52600	-0
0.52967	-0
0.53333	-0
0.53700	-0
0.54067	-0
0.54433	-0
0.54800	-0
0.55167	-0
0.55533	-0
0.55900	0
0.56267	0
0.56633	0
0.57000	0
0.57367	0
0.57733	-0
0.58100	-1
0.58467	-1
0.58833	-1
0.59200	-2
0.59567	-2
0.59933	-2
0.60300	-2
0.60667	-2
0.61033	-2
0.61400	-3
0.61767	-3
0.62133	-3
0.62500	-3
0.62867	-3
0.63233	-3
0.63600	-3
0.63967	-3
0.64333	-3
0.64700	-3
0.65067	-3
0.65433	-4
0.65800	-4
0.66167	-3
0.66533	-3
0.66900	-3
0.67267	-3
0.67633	-3
0.68000	-3
0.68367	-3
0.68733	-3
0.69100	-3
0.69467	-3
0.69833	-3
0.70200	-4
0.70567	-4
0.70933	-4
0.71300	-5
0.71667	-5
0.72033	-5
0.72400	-5
0.72767	-5
0.73133	-4
0.73500	-4
0.73867	-4
0.74233	-4
0.74600	-4
0.74967	-4
0.75333	-4
0.75700	-4
0.76067	-4
0.76433	-4
0.76800	-3
0.77167	-3
0.77533	-2
0.77900	-2
0.78267	-2
0.78633	-1
0.79000	-1
0.79367	-2
0.79733	-1
0.80100	-1
0.80467	-1
0.80833	-1
0.81200	-1
0.81567	-1
0.81933	-1
0.82300	-1
0.82667	-1
0.83033	-2
0.83400	-2
0.83767	-3
0.84133	-3
0.84500	-3
0.84867	-3
0.85233	-3
0.85600	-4
0.85967	-4
0.86333	-3
0.86700	-3
0.87067	-3
0.87433	-3
0.87800	-3
0.88167	-3
0.88533	-3
0.88900	-3
0.89267	-3
0.89633	-3
0.90000	-3
0.90367	-3
0.90733	-4
0.91100	-4
0.91467	-4
0.91833	-4
0.92200	-3
0.92567	-3
0.92933	-3
0.93300	-3
0.93667	-3
0.94033	-3
0.94400	-3
0.94767	-2
0.95133	-2
0.95500	-3
0.95867	-3
0.96233	-3
0.96600	-4
0.96967	-4
0.97333	-4
0.97700	-5
0.98067	-5
0.98433	-5
0.98800	-6
0.99167	-6
0.99533	-6
0.99900	-6
1.00267	-6
1.00633	-6
1.01000	-5
1.01367	-5
1.01733	-5
1.02100	-5
1.02467	-5
1.02833	-5
1.03200	-5
1.03567	-5
1.03933	-5
1.04300	-5
1.04667	-5
1.05033	-5
1.05400	-5
1.05767	-4
1.06133	-4
1.06500	-3
1.06867	-3
1.07233	-2
1.07600	-2
1.07967	-1
1.08333	-1
1.08700	-1
1.09067	-1
1.09433	-1
1.09800	-1
1.10167	-1
1.10533	-1
1.10900	-1
1.11267	-1
1.11633	-1
1.12000	-1
1.12367	-1
1.12733	-2
1.13100	-1
1.13467	-1
1.13833	-1
1.14200	-1
1.14567	-1
1.14933	-1
1.15300	-1
1.15667	-1
1.16033	-1
1.16400	-1
1.16767	-1
1.17133	-1
1.17500	-1
1.17867	-1
1.18233	-2
1.18600	-2
1.18967	-2
1.19333	-2
1.19700	-3
1.20067	-3
1.20433	-3
1.20800	-3
1.21167	-3
1.21533	-3
1.21900	-3
1.22267	-3
1.22633	-3
1.23000	-4
1.23367	-4
1.23733	-4
1.24100	-4
1.24467	-4
1.24833	-4
1.25200	-5
1.25567	-5
1.25933	-4
1.26300	-4
1.26667	-4
1.27033	-4
1.27400	-4
1.27767	-4
1.28133	-3
1.28500	-3
1.28867	-3
1.29233	-3
1.29600	-3
1.29967	-3
1.30333	-3
1.30700	-3
1.31067	-3
1.31433	-3
1.31800	-3
1.32167	-3
1.32533	-3
1.32900	-4
1.33267	-4
1.33633	-4
1.34000	-4
1.34367	-5
1.34733	-5
1.35100	-5
1.35467	-6
1.35833	-6
1.36200	-7
1.36567	-7
1.36933	-8
1.37300	-8
1.37667	-8
1.38033	-8
1.38400	-8
1.38767	-7
1.39133	-7
1.39500	-7
1.39867	-7
1.40233	-7
1.40600	-6
1.40967	-6
1.41333	-6
1.41700	-6
1.42067	-5
1.42433	-5
1.42800	-5
1.43167	-4
1.43533	-4
1.43900	-3
1.44267	-3
1.44633	-3
1.45000	-3
1.45367	-3
1.45733	-3
1.46100	-3
1.46467	-3
1.46833	-3
1.47200	-3
1.47567	-3
1.47933	-3
1.48300	-3
1.48667	-3
1.49033	-3
1.49400	-3
1.49767	-3
1.50133	-3
1.50500	-3
1.50867	-3
1.51233	-3
1.51600	-3
1.51967	-3
1.52333	-3
1.52700	-3
1.53067	-3
1.53433	-3
1.53800	-3
1.54167	-4
1.54533	-4
1.54900	-4
1.55267	-5
1.55633	-5
1.56000	-5
1.56367	-5
1.56733	-6
1.57100	-6
1.57467	-6
1.57833	-6
1.58200	-6
1.58567	-6
1.58933	-6
1.59300	-6
1.59667	-7
1.60033	-7
1.60400	-8
1.60767	-10
1.61133	-12
1.61500	-14
1.61867	-16
1.62233	-18
1.62600	-21
1.62967	-24
1.63333	-27
1.63700	-30
1.64067	-34
1.64433	-38
1.64800	-41
1.65167	-45
1.65533	-49
1.65900	-52
1.66267	-55
1.66633	-59
1.67000	-63
1.67367	-66
1.67733	-71
1.68100	-75
1.68467	-80
1.68833	-84
1.69200	-88
1.69567	-91
1.69933	-94
1.70300	-97
1.70667	-99
1.71033	-101
1.71400	-102
1.71767	-103
1.72133	-105
1.72500	-106
1.72867	-107
1.73233	-108
1.73600	-109
1.73967	-110
1.74333	-111
1.74700	-112
1.75067	-113
1.75433	-113
1.75800	-114
1.76167	-113
1.76533	-113
1.76900	-112
1.77267	-112
1.77633	-111
1.78000	-111
1.78367	-110
1.78733	-110
1.79100	-110
1.79467	-110
1.79833	-111
1.80200	-112
1.80567	-112
1.80933	-113
1.81300	-114
1.81667	-115
1.82033	-115
1.82400	-115
1.82767	-116
1.83133	-116
1.83500	-116
1.83867	-116
1.84233	-116
1.84600	-117
1.84967	-117
1.85333	-117
1.85700	-117
1.86067	-117
1.86433	-117
1.86800	-116
1.87167	-116
1.87533	-116
1.87900	-116
1.88267	-116
1.88633	-116
1.89000	-116
1.89367	-116
1.89733	-116
1.90100	-116
1.90467	-115
1.90833	-115
1.91200	-114
1.91567	-114
1.91933	-113
1.92300	-113
1.92667	-113
1.93033	-112
1.93400	-112
1.93767	-112
1.94133	-112
1.94500	-111
1.94867	-111
1.95233	-110
1.95600	-110
1.95967	-110
1.96333	-110
1.96700	-110
1.97067	-110
1.97433	-110
1.97800	-110
1.98167	-110
1.98533	-109
1.98900	-108
1.99267	-108
1.99633	-108
2.00000	-108
2.00367	-108
2.00733	-108
2.01100	-108
2.01467	-108
2.01833	-108
2.02200	-108
2.02567	-108
2.02933	-108
2.03300	-107
2.03667	-107
2.04033	-107
2.04400	-107
2.04767	-106
2.05133	-106
2.05500	-106
2.05867	-106
2.06233	-105
2.06600	-105
2.06967	-104
2.07333	-104
2.07700	-103
2.08067	-102
2.08433	-101
2.08800	-100
2.09167	-99
2.09533	-98
2.09900	-98
2.10267	-99
2.10633	-99
2.11000	-100
2.11367	-101
2.11733	-101
2.12100	-100
2.12467	-99
2.12833	-99
2.13200	-98
2.13567	-98
2.13933	-97
2.14300	-96
2.14667	-96
2.15033	-95
2.15400	-95
2.15767	-95
2.16133	-94
2.16500	-94
2.16867	-94
2.17233	-95
2.17600	-94
2.17967	-94
2.18333	-93
2.18700	-93
2.19067	-92
2.19433	-92
2.19800	-92
2.20167	-92
2.20533	-92
2.20900	-92
2.21267	-92
2.21633	-91
2.22000	-91
2.22367	-90
2.22733	-90
2.23100	-89
2.23467	-89
2.23833	-89
2.24200	-89
2.24567	-88
2.24933	-88
2.25300	-88
2.25667	-87
2.26033	-86
2.26400	-86
2.26767	-85
2.27133	-85
2.27500	-84
2.27867	-84
2.28233	-83
2.28600	-83
2.28967	-82
2.29333	-82
2.29700	-82
2.30067	-83
2.30433	-83
2.30800	-83
2.31167	-83
2.31533	-82
2.31900	-82
2.32267	-82
2.32633	-82
2.33000	-81
2.33367	-81
2.33733	-81
2.34100	-81
2.34467	-80
2.34833	-79
2.35200	-78
2.35567	-78
2.35933	-78
2.36300	-77
2.36667	-77
2.37033	-76
2.37400	-74
2.37767	-71
2.38133	-68
2.38500	-64
2.38867	-60
2.39233	-55
2.39600	-50
2.39967	-45
2.40333	-40
2.40700	-35
2.41067	-30
2.41433	-26
2.41800	-23
2.42167	-20
2.42533	-17
2.42900	-16
2.43267	-14
2.43633	-13
2.44000	-13
2.44367	-12
2.44733	-11
2.45100	-11
2.45467	-10
2.45833	-9
2.46200	-8
2.46567	-7
2.46933	-6
2.47300	-5
2.47667	-5
2.48033	-4
2.48400	-3
2.48767	-2
2.49133	-1
2.49500	-0
2.49867	1
2.50233	3
2.50600	5
2.50967	6
2.51333	7
2.51700	8
2.52067	8
2.52433	9
2.52800	9
2.53167	9
2.53533	10
2.53900	10
2.54267	11
2.54633	11
2.55000	11
2.55367	12
2.55733	12
2.56100	13
2.56467	13
2.56833	13
2.57200	14
2.57567	14
2.57933	14
2.58300	14
2.58667	14
2.59033	14
2.59400	14
2.59767	14
2.60133	14
2.60500	14
2.60867	14
2.61233	15
2.61600	15
2.61967	15
2.62333	15
2.62700	15
2.63067	15
2.63433	15
2.63800	15
2.64167	15
2.64533	15
2.64900	16
2.65267	16
2.65633	17
2.66000	17
2.66367	17
2.66733	18
2.67100	18
2.67467	18
2.67833	19
2.68200	19
2.68567	19
2.68933	19
2.69300	19
2.69667	19
2.70033	19
2.70400	19
2.70767	19
2.71133	19
2.71500	20
2.71867	20
2.72233	20
2.72600	21
2.72967	21
2.73333	22
2.73700	22
2.74067	23
2.74433	23
2.74800	23
2.75167	24
2.75533	24
2.75900	24
2.76267	25
2.76633	25
2.77000	25
2.77367	25
2.77733	25
2.78100	25
2.78467	25
2.78833	25
2.79200	24
2.79567	24
2.79933	24
2.80300	23
2.80667	23
2.81033	23
2.81400	23
2.81767	23
2.82133	23
2.82500	23
2.82867	23
2.83233	23
2.83600	23
2.83967	22
2.84333	20
2.84700	17
2.85067	11
2.85433	3
2.85800	-8
2.86167	-24
2.86533	-43
2.86900	-67
2.87267	-95
2.87633	-127
2.88000	-164
2.88367	-204
2.88733	-248
2.89100	-295
2.89467	-345
2.89833	-397
2.90200	-450
2.90567	-505
2.90933	-559
2.91300	-614
2.91667	-669
2.92033	-723
2.92400	-775
2.92767	-826
2.93133	-878
2.93500	-933
2.93867	-992
2.94233	-1046
2.94600	-1084
2.94967	-1099
2.95333	-1089
2.95700	-1054
2.96067	-999
2.96433	-931
2.96800	-854
2.97167	-774
2.97533	-694
2.97900	-617
2.98267	-544
2.98633	-476
2.99000	-414
2.99367	-359
2.99733	-309
3.00100	-266
3.00467	-227
3.00833	-194
3.01200	-165
3.01567	-139
3.01933	-118
3.02300	-99
3.02667	-83
3.03033	-69
3.03400	-57
3.03767	-47
3.04133	-39
3.04500	-31
3.04867	-25
3.05233	-19
3.05600	-15
3.05967	-11
3.06333	-7
3.06700	-4
3.07067	-2
3.07433	0
3.07800	2
3.08167	4
3.08533	5
3.08900	6
3.09267	7
3.09633	8
3.10000	9
3.10367	10
3.10733	11
3.11100	12
3.11467	12
3.11833	13
3.12200	13
3.12567	14
3.12933	14
3.13300	14
3.13667	14
3.14033	14
3.14400	14
3.14767	14
3.15133	15
3.15500	15
3.15867	15
3.16233	16
3.16600	16
3.16967	17
3.17333	17
3.17700	17
3.18067	17
3.18433	17
3.18800	17
3.19167	17
3.19533	18
3.19900	18
3.20267	19
3.20633	19
3.21000	19
3.21367	19
3.21733	19
3.22100	19
3.22467	20
3.22833	20
3.23200	20
3.23567	20
3.23933	20
3.24300	21
3.24667	21
3.25033	21
3.25400	22
3.25767	22
3.26133	22
3.26500	23
3.26867	23
3.27233	23
3.27600	24
3.27967	24
3.28333	25
3.28700	25
3.29067	25
3.29433	26
3.29800	26
3.30167	26
3.30533	26
3.30900	27
3.31267	27
3.31633	27
3.32000	27
3.32367	27
3.32733	27
3.33100	27
3.33467	27
3.33833	27
3.34200	27
3.34567	26
3.34933	26
3.35300	26
3.35667	26
3.36033	25
3.36400	25
3.36767	25
3.37133	25
3.37500	25
3.37867	25
3.38233	24
3.38600	24
3.38967	24
3.39333	24
3.39700	24
3.40067	24
3.40433	25
3.40800	25
3.41167	25
3.41533	25
3.41900	25
3.42267	25
3.42633	25
3.43000	25
3.43367	25
3.43733	24
3.44100	24
3.44467	24
3.44833	24
3.45200	24
3.45567	24
3.45933	24
3.46300	24
3.46667	24
3.47033	24
3.47400	24
3.47767	24
3.48133	24
3.48500	24
3.48867	24
3.49233	24
3.49600	24
3.49967	24
3.50333	24
3.50700	24
3.51067	24
3.51433	24
3.51800	24
3.52167	24
3.52533	24
3.52900	24
3.53267	24
3.53633	24
3.54000	24
3.54367	24
3.54733	24
3.55100	24
3.55467	24
3.55833	24
3.56200	24
3.56567	24
3.56933	24
3.57300	24
3.57667	24
3.58033	24
3.58400	24
3.58767	24
3.59133	24
3.59500	24
3.59867	24
3.60233	24
3.60600	24
3.60967	24
3.61333	24
3.61700	24
3.62067	24
3.62433	24
3.62800	24
3.63167	24
3.63533	25
3.63900	25
3.64267	25
3.64633	25
3.65000	25
3.65367	25
3.65733	25
3.66100	25
3.66467	25
3.66833	25
3.67200	25
3.67567	25
3.67933	25
3.68300	25
3.68667	25
3.69033	25
3.69400	25
3.69767	24
3.70133	24
3.70500	24
3.70867	24
3.71233	24
3.71600	24
3.71967	24
3.72333	23
3.72700	23
3.73067	23
3.73433	23
3.73800	23
3.74167	23
3.74533	24
3.74900	24
3.75267	24
3.75633	24
3.76000	24
3.76367	24
3.76733	24
3.77100	24
3.77467	24
3.77833	24
3.78200	24
3.78567	25
3.78933	25
3.79300	25
3.79667	25
3.80033	25
3.80400	25
3.80767	25
3.81133	25
3.81500	24
3.81867	24
3.82233	24
3.82600	24
3.82967	24
3.83333	24
3.83700	23
3.84067	23
3.84433	23
3.84800	23
3.85167	23
3.85533	23
3.85900	23
3.86267	24
3.86633	24
3.87000	24
3.87367	24
3.87733	24
3.88100	24
3.88467	25
3.88833	25
3.89200	25
3.89567	25
3.89933	25
3.90300	25
3.90667	25
3.91033	25
3.91400	25
3.91767	25
3.92133	25
3.92500	25
3.92867	25
3.93233	26
3.93600	26
3.93967	26
3.94333	26
3.94700	26
3.95067	26
3.95433	26
3.95800	27
3.96167	27
3.96533	27
3.96900	27
3.97267	26
3.97633	26
3.98000	26
3.98367	26
3.98733	25
3.99100	26
3.99467	26
3.99833	26

[Chromatogram (Ch3)]
Interval(msec)	220
# of Points	1091
Start Time(min)	0.002
End Time(min)	3.998
R.Time (min)	Intensity
0.00167	0
0.00533	-1
0.00900	-4
0.01267	-3
0.01633	-3
0.02000	-4
0.02367	-7
0.02733	-8
0.03100	-6
0.03467	-4
0.03833	-4
0.04200	-4
0.04567	-6
0.04933	-7
0.05300	-9
0.05667	-11
0.06033	-12
0.06400	-12
0.06767	-8
0.07133	-5
0.07500	-4
0.07867	-5
0.08233	-6
0.08600	-7
0.08967	-7
0.09333	-6
0.09700	-6
0.10067	-8
0.10433	-9
0.10800	-8
0.11167	-7
0.11533	-7
0.11900	-7
0.12267	-6
0.12633	-6
0.13000	-7
0.13367	-4
0.13733	-4
0.14100	-4
0.14467	-2
0.14833	-3
0.15200	-4
0.15567	-4
0.15933	-3
0.16300	-3
0.16667	-3
0.17033	-2
0.17400	-3
0.17767	-4
0.18133	-4
0.18500	-3
0.18867	-3
0.19233	-3
0.19600	-1
0.19967	1
0.20333	2
0.20700	2
0.21067	1
0.21433	0
0.21800	-0
0.22167	-2
0.22533	-1
0.22900	0
0.23267	1
0.23633	1
0.24000	-1
0.24367	-2
0.24733	-3
0.25100	-3
0.25467	-4
0.25833	-4
0.26200	-1
0.26567	2
0.26933	1
0.27300	2
0.27667	3
0.28033	5
0.28400	6
0.28767	4
0.29133	2
0.29500	0
0.29867	0
0.30233	2
0.30600	4
0.30967	6
0.31333	6
0.31700	2
0.32067	-1
0.32433	-3
0.32800	-3
0.33167	-3
0.33533	-2
0.33900	-2
0.34267	-4
0.34633	-6
0.35000	-8
0.35367	-13
0.35733	-16
0.36100	-15
0.36467	-12
0.36833	-10
0.37200	-10
0.37567	-10
0.37933	-9
0.38300	-9
0.38667	-11
0.39033	-11
0.39400	-10
0.39767	-8
0.40133	-7
0.40500	-7
0.40867	-7
0.41233	-8
0.41600	-10
0.41967	-12
0.42333	-13
0.42700	-13
0.43067	-13
0.43433	-13
0.43800	-13
0.44167	-13
0.44533	-14
0.44900	-14
0.45267	-15
0.45633	-15
0.46000	-15
0.46367	-14
0.46733	-13
0.47100	-12
0.47467	-10
0.47833	-9
0.48200	-5
0.48567	-3
0.48933	-5
0.49300	-7
0.49667	-9
0.50033	-13
0.50400	-16
0.50767	-16
0.51133	-14
0.51500	-13
0.51867	-14
0.52233	-15
0.52600	-16
0.52967	-15
0.53333	-14
0.53700	-14
0.54067	-14
0.54433	-15
0.54800	-15
0.55167	-15
0.55533	-13
0.55900	-13
0.56267	-12
0.56633	-12
0.57000	-10
0.57367	-11
0.57733	-11
0.58100	-10
0.58467	-10
0.58833	-10
0.59200	-9
0.59567	-10
0.59933	-10
0.60300	-9
0.60667	-8
0.61033	-9
0.61400	-9
0.61767	-11
0.62133	-12
0.62500	-14
0.62867	-16
0.63233	-16
0.63600	-15
0.63967	-16
0.64333	-16
0.64700	-16
0.65067	-16
0.65433	-17
0.65800	-17
0.66167	-16
0.66533	-15
0.66900	-13
0.67267	-11
0.67633	-9
0.68000	-6
0.68367	-6
0.68733	-7
0.69100	-10
0.69467	-13
0.69833	-13
0.70200	-15
0.70567	-13
0.70933	-12
0.71300	-11
0.71667	-11
0.72033	-11
0.72400	-12
0.72767	-12
0.73133	-12
0.73500	-11
0.73867	-11
0.74233	-12
0.74600	-11
0.74967	-10
0.75333	-8
0.75700	-10
0.76067	-11
0.76433	-13
0.76800	-14
0.77167	-14
0.77533	-13
0.77900	-10
0.78267	-9
0.78633	-10
0.79000	-9
0.79367	-11
0.79733	-15
0.80100	-15
0.80467	-14
0.80833	-14
0.81200	-15
0.81567	-15
0.81933	-16
0.82300	-18
0.82667	-20
0.83033	-21
0.83400	-21
0.83767	-21
0.84133	-19
0.84500	-18
0.84867	-17
0.85233	-17
0.85600	-17
0.85967	-17
0.86333	-15
0.86700	-14
0.87067	-14
0.87433	-15
0.87800	-14
0.88167	-13
0.88533	-12
0.88900	-11
0.89267	-11
0.89633	-10
0.90000	-11
0.90367	-10
0.90733	-11
0.91100	-12
0.91467	-14
0.91833	-15
0.92200	-18
0.92567	-20
0.92933	-21
0.93300	-21
0.93667	-21
0.94033	-19
0.94400	-18
0.94767	-17
0.95133	-18
0.95500	-18
0.95867	-18
0.96233	-17
0.96600	-15
0.96967	-14
0.97333	-12
0.97700	-10
0.98067	-7
0.98433	-7
0.98800	-8
0.99167	-9
0.99533	-10
0.99900	-10
1.00267	-12
1.00633	-14
1.01000	-13
1.01367	-10
1.01733	-11
1.02100	-12
1.02467	-12
1.02833	-12
1.03200	-12
1.03567	-13
1.03933	-14
1.04300	-15
1.04667	-14
1.05033	-14
1.05400	-17
1.05767	-17
1.06133	-17
1.06500	-16
1.06867	-14
1.07233	-11
1.07600	-8
1.07967	-8
1.08333	-8
1.08700	-9
1.09067	-10
1.09433	-9
1.09800	-10
1.10167	-7
1.10533	-6
1.10900	-6
1.11267	-7
1.11633	-9
1.12000	-12
1.12367	-12
1.12733	-11
1.13100	-10
1.13467	-9
1.13833	-9
1.14200	-8
1.14567	-6
1.14933	-6
1.15300	-8
1.15667	-10
1.16033	-12
1.16400	-14
1.16767	-13
1.17133	-12
1.17500	-11
1.17867	-12
1.18233	-13
1.18600	-12
1.18967	-13
1.19333	-15
1.19700	-13
1.20067	-12
1.20433	-12
1.20800	-13
1.21167	-13
1.21533	-13
1.21900	-13
1.22267	-13
1.22633	-14
1.23000	-11
1.23367	-10
1.23733	-10
1.24100	-11
1.24467	-11
1.24833	-11
1.25200	-12
1.25567	-13
1.25933	-14
1.26300	-15
1.26667	-16
1.27033	-15
1.27400	-13
1.27767	-11
1.28133	-9
1.28500	-10
1.28867	-12
1.29233	-11
1.29600	-10
1.29967	-9
1.30333	-7
1.30700	-5
1.31067	-6
1.31433	-7
1.31800	-9
1.32167	-12
1.32533	-14
1.32900	-16
1.33267	-14
1.33633	-10
1.34000	-9
1.34367	-8
1.34733	-8
1.35100	-8
1.35467	-8
1.35833	-8
1.36200	-8
1.36567	-6
1.36933	-6
1.37300	-8
1.37667	-9
1.38033	-10
1.38400	-10
1.38767	-10
1.39133	-10
1.39500	-8
1.39867	-7
1.40233	-7
1.40600	-7
1.40967	-5
1.41333	-3
1.41700	-3
1.42067	-1
1.42433	-3
1.42800	-5
1.43167	-6
1.43533	-7
1.43900	-6
1.44267	-4
1.44633	-3
1.45000	-3
1.45367	-4
1.45733	-5
1.46100	-5
1.46467	-3
1.46833	-3
1.47200	-6
1.47567	-6
1.47933	-6
1.48300	-5
1.48667	-2
1.49033	-1
1.49400	-2
1.49767	-3
1.50133	-4
1.50500	-3
1.50867	-4
1.51233	-4
1.51600	-4
1.51967	-4
1.52333	-4
1.52700	-7
1.53067	-9
1.53433	-10
1.53800	-10
1.54167	-9
1.54533	-6
1.54900	-3
1.55267	-0
1.55633	1
1.56000	1
1.56367	2
1.56733	1
1.57100	2
1.57467	2
1.57833	-1
1.58200	-3
1.58567	-4
1.58933	-5
1.59300	-5
1.59667	-3
1.60033	-0
1.60400	2
1.60767	2
1.61133	1
1.61500	1
1.61867	1
1.62233	1
1.62600	1
1.62967	2
1.63333	3
1.63700	6
1.64067	8
1.64433	9
1.64800	10
1.65167	9
1.65533	7
1.65900	5
1.66267	5
1.66633	7
1.67000	8
1.67367	7
1.67733	6
1.68100	6
1.68467	6
1.68833	6
1.69200	5
1.69567	6
1.69933	8
1.70300	9
1.70667	11
1.71033	12
1.71400	12
1.71767	12
1.72133	11
1.72500	11
1.72867	13
1.73233	17
1.73600	18
1.73967	18
1.74333	18
1.74700	18
1.75067	19
1.75433	20
1.75800	19
1.76167	18
1.76533	18
1.76900	19
1.77267	21
1.77633	22
1.78000	22
1.78367	22
1.78733	23
1.79100	25
1.79467	26
1.79833	25
1.80200	26
1.80567	27
1.80933	28
1.81300	30
1.81667	33
1.82033	35
1.82400	34
1.82767	31
1.83133	28
1.83500	28
1.83867	30
1.84233	31
1.84600	31
1.84967	30
1.85333	31
1.85700	33
1.86067	35
1.86433	35
1.86800	34
1.87167	35
1.87533	37
1.87900	37
1.88267	36
1.88633	36
1.89000	36
1.89367	37
1.89733	37
1.90100	36
1.90467	37
1.90833	38
1.91200	40
1.91567	40
1.91933	39
1.92300	38
1.92667	41
1.93033	44
1.93400	45
1.93767	43
1.94133	43
1.94500	43
1.94867	44
1.95233	45
1.95600	46
1.95967	45
1.96333	43
1.96700	45
1.97067	48
1.97433	51
1.97800	52
1.98167	55
1.98533	58
1.98900	58
1.99267	59
1.99633	59
2.00000	61
2.00367	63
2.00733	68
2.01100	72
2.01467	72
2.01833	70
2.02200	69
2.02567	68
2.02933	70
2.03300	69
2.03667	69
2.04033	71
2.04400	74
2.04767	76
2.05133	76
2.05500	78
2.05867	80
2.06233	81
2.06600	83
2.06967	84
2.07333	84
2.07700	83
2.08067	83
2.08433	83
2.08800	85
2.09167	86
2.09533	88
2.09900	91
2.10267	93
2.10633	96
2.11000	100
2.11367	104
2.11733	106
2.12100	108
2.12467	108
2.12833	107
2.13200	108
2.13567	110
2.13933	112
2.14300	114
2.14667	117
2.15033	118
2.15400	118
2.15767	118
2.16133	119
2.16500	119
2.16867	119
2.17233	121
2.17600	123
2.17967	128
2.18333	131
2.18700	134
2.19067	137
2.19433	140
2.19800	140
2.20167	139
2.20533	140
2.20900	141
2.21267	141
2.21633	143
2.22000	147
2.22367	150
2.22733	152
2.23100	154
2.23467	154
2.23833	155
2.24200	157
2.24567	159
2.24933	159
2.25300	162
2.25667	164
2.26033	164
2.26400	164
2.26767	164
2.27133	165
2.27500	166
2.27867	169
2.28233	172
2.28600	173
2.28967	172
2.29333	172
2.29700	172
2.30067	173
2.30433	177
2.30800	180
2.31167	182
2.31533	185
2.31900	187
2.32267	189
2.32633	191
2.33000	192
2.33367	193
2.33733	194
2.34100	196
2.34467	196
2.34833	197
2.35200	202
2.35567	204
2.35933	205
2.36300	205
2.36667	206
2.37033	209
2.37400	213
2.37767	213
2.38133	214
2.38500	215
2.38867	214
2.39233	214
2.39600	218
2.39967	222
2.40333	227
2.40700	230
2.41067	233
2.41433	236
2.41800	238
2.42167	242
2.42533	245
2.42900	247
2.43267	251
2.43633	254
2.44000	256
2.44367	313
2.44733	456
2.45100	608
2.45467	734
2.45833	805
2.46200	812
2.46567	783
2.46933	745
2.47300	715
2.47667	698
2.48033	686
2.48400	665
2.48767	628
2.49133	583
2.49500	541
2.49867	504
2.50233	477
2.50600	460
2.50967	452
2.51333	454
2.51700	463
2.52067	479
2.52433	500
2.52800	520
2.53167	533
2.53533	533
2.53900	521
2.54267	499
2.54633	473
2.55000	444
2.55367	415
2.55733	387
2.56100	366
2.56467	353
2.56833	345
2.57200	337
2.57567	331
2.57933	324
2.58300	320
2.58667	317
2.59033	316
2.59400	314
2.59767	310
2.60133	303
2.60500	293
2.60867	279
2.61233	264
2.61600	251
2.61967	237
2.62333	226
2.62700	216
2.63067	211
2.63433	210
2.63800	212
2.64167	216
2.64533	219
2.64900	220
2.65267	220
2.65633	219
2.66000	218
2.66367	214
2.66733	207
2.67100	198
2.67467	188
2.67833	180
2.68200	174
2.68567	171
2.68933	167
2.69300	162
2.69667	158
2.70033	155
2.70400	152
2.70767	150
2.71133	149
2.71500	149
2.71867	149
2.72233	149
2.72600	150
2.72967	151
2.73333	153
2.73700	155
2.74067	156
2.74433	157
2.74800	158
2.75167	161
2.75533	162
2.75900	164
2.76267	166
2.76633	167
2.77000	167
2.77367	169
2.77733	173
2.78100	176
2.78467	176
2.78833	176
2.79200	177
2.79567	179
2.79933	183
2.80300	184
2.80667	186
2.81033	190
2.81400	194
2.81767	201
2.82133	215
2.82500	243
2.82867	306
2.83233	418
2.83600	603
2.83967	882
2.84333	1267
2.84700	1755
2.85067	2324
2.85433	2938
2.85800	3549
2.86167	4107
2.86533	4570
2.86900	4905
2.87267	5091
2.87633	5127
2.88000	5031
2.88367	4830
2.88733	4551
2.89100	4224
2.89467	3873
2.89833	3515
2.90200	3167
2.90567	2837
2.90933	2534
2.91300	2258
2.91667	2008
2.92033	1783
2.92400	1584
2.92767	1408
2.93133	1255
2.93500	1120
2.93867	1003
2.94233	902
2.94600	811
2.94967	732
2.95333	665
2.95700	606
2.96067	556
2.96433	512
2.96800	472
2.97167	439
2.97533	410
2.97900	383
2.98267	358
2.98633	336
2.99000	319
2.99367	306
2.99733	292
3.00100	280
3.00467	269
3.00833	262
3.01200	254
3.01567	247
3.01933	239
3.02300	231
3.02667	223
3.03033	214
3.03400	191
3.03767	157
3.04133	133
3.04500	127
3.04867	132
3.05233	146
3.05600	169
3.05967	202
3.06333	241
3.06700	282
3.07067	323
3.07433	360
3.07800	393
3.08167	420
3.08533	444
3.08900	462
3.09267	480
3.09633	496
3.10000	511
3.10367	523
3.10733	532
3.11100	541
3.11467	551
3.11833	558
3.12200	566
3.12567	574
3.12933	580
3.13300	585
3.13667	590
3.14033	594
3.14400	600
3.14767	605
3.15133	609
3.15500	615
3.15867	620
3.16233	623
3.16600	624
3.16967	628
3.17333	633
3.17700	637
3.18067	641
3.18433	646
3.18800	653
3.19167	657
3.19533	660
3.19900	664
3.20267	668
3.20633	671
3.21000	674
3.21367	677
3.21733	678
3.22100	678
3.22467	680
3.22833	683
3.23200	685
3.23567	685
3.23933	685
3.24300	688
3.24667	692
3.25033	695
3.25400	697
3.25767	697
3.26133	696
3.26500	695
3.26867	693
3.27233	692
3.27600	693
3.27967	696
3.28333	699
3.28700	703
3.29067	704
3.29433	705
3.29800	707
3.30167	710
3.30533	712
3.30900	713
3.31267	714
3.31633	714
3.32000	714
3.32367	715
3.32733	717
3.33100	719
3.33467	721
3.33833	722
3.34200	723
3.34567	723
3.34933	724
3.35300	725
3.35667	726
3.36033	726
3.36400	725
3.36767	726
3.37133	726
3.37500	723
3.37867	721
3.38233	721
3.38600	721
3.38967	722
3.39333	722
3.39700	720
3.40067	718
3.40433	718
3.40800	718
3.41167	718
3.41533	716
3.41900	714
3.42267	713
3.42633	711
3.43000	707
3.43367	705
3.43733	707
3.44100	707
3.44467	706
3.44833	704
3.45200	703
3.45567	702
3.45933	702
3.46300	701
3.46667	701
3.47033	699
3.47400	697
3.47767	697
3.48133	698
3.48500	697
3.48867	694
3.49233	694
3.49600	692
3.49967	688
3.50333	686
3.50700	684
3.51067	682
3.51433	679
3.51800	677
3.52167	676
3.52533	675
3.52900	677
3.53267	679
3.53633	676
3.54000	673
3.54367	671
3.54733	672
3.55100	673
3.55467	674
3.55833	673
3.56200	672
3.56567	668
3.56933	667
3.57300	669
3.57667	668
3.58033	667
3.58400	667
3.58767	667
3.59133	667
3.59500	668
3.59867	668
3.60233	667
3.60600	665
3.60967	664
3.61333	663
3.61700	663
3.62067	664
3.62433	665
3.62800	664
3.63167	664
3.63533	663
3.63900	662
3.64267	663
3.64633	665
3.65000	667
3.65367	670
3.65733	669
3.66100	668
3.66467	669
3.66833	667
3.67200	665
3.67567	666
3.67933	668
3.68300	667
3.68667	664
3.69033	662
3.69400	661
3.69767	662
3.70133	661
3.70500	661
3.70867	661
3.71233	662
3.71600	661
3.71967	661
3.72333	659
3.72700	658
3.73067	654
3.73433	651
3.73800	651
3.74167	651
3.74533	650
3.74900	649
3.75267	648
3.75633	646
3.76000	644
3.76367	644
3.76733	645
3.77100	644
3.77467	641
3.77833	637
3.78200	633
3.78567	632
3.78933	630
3.79300	630
3.79667	631
3.80033	631
3.80400	630
3.80767	630
3.81133	629
3.81500	629
3.81867	628
3.82233	628
3.82600	628
3.82967	627
3.83333	627
3.83700	624
3.84067	622
3.84433	621
3.84800	618
3.85167	616
3.85533	615
3.85900	613
3.86267	610
3.86633	607
3.87000	607
3.87367	605
3.87733	603
3.88100	601
3.88467	599
3.88833	597
3.89200	594
3.89567	592
3.89933	589
3.90300	589
3.90667	587
3.91033	586
3.91400	587
3.91767	586
3.92133	585
3.92500	583
3.92867	580
3.93233	578
3.93600	574
3.93967	572
3.94333	570
3.94700	569
3.95067	567
3.95433	566
3.95800	566
3.96167	564
3.96533	562
3.96900	561
3.97267	560
3.97633	558
3.98000	556
3.98367	552
3.98733	548
3.99100	544
3.99467	543
3.99833	541

[Status Trace (Column Oven Temperature)]
Interval(msec)	1000
# of Points	240
Start Time(min)	0.001
End Time(min)	3.984
Intensity Units	
Intensity Multiplier	1
R.Time (min)	Intensity
0.00078	35.07
0.01745	35.08
0.03412	35.07
0.05078	35.06
0.06745	35.06
0.08412	35.06
0.10078	35.05
0.11745	35.06
0.13412	35.07
0.15078	35.08
0.16745	35.09
0.18412	35.08
0.20078	35.07
0.21745	35.07
0.23412	35.08
0.25078	35.07
0.26745	35.06
0.28412	35.06
0.30078	35.06
0.31745	35.06
0.33412	35.05
0.35078	35.05
0.36745	35.04
0.38412	35.03
0.40078	35.02
0.41745	35.01
0.43412	35.02
0.45078	35.01
0.46745	35.01
0.48412	35.01
0.50078	35.00
0.51745	34.99
0.53412	34.98
0.55078	34.98
0.56745	34.99
0.58412	34.99
0.60078	34.99
0.61745	34.99
0.63412	34.99
0.65078	35.00
0.66745	35.00
0.68412	35.00
0.70078	35.01
0.71745	35.02
0.73412	35.02
0.75078	35.02
0.76745	35.02
0.78412	35.01
0.80078	34.99
0.81745	34.99
0.83412	34.99
0.85078	34.99
0.86745	34.98
0.88412	34.98
0.90078	34.98
0.91745	34.98
0.93412	34.99
0.95078	34.99
0.96745	35.00
0.98412	35.01
1.00078	35.01
1.01745	35.02
1.03412	35.03
1.05078	35.02
1.06745	35.01
1.08412	35.02
1.10078	35.01
1.11745	34.99
1.13412	34.98
1.15078	34.97
1.16745	34.97
1.18412	34.97
1.20078	34.97
1.21745	34.98
1.23412	34.98
1.25078	34.99
1.26745	35.00
1.28412	35.00
1.30078	34.99
1.31745	34.99
1.33412	35.00
1.35078	35.00
1.36745	35.02
1.38412	35.02
1.40078	35.02
1.41745	35.01
1.43412	35.00
1.45078	34.99
1.46745	34.99
1.48412	34.98
1.50078	34.99
1.51745	34.99
1.53412	34.99
1.55078	34.99
1.56745	35.00
1.58412	35.00
1.60078	35.04
1.61745	35.14
1.63412	35.31
1.65078	35.53
1.66745	35.82
1.68412	36.18
1.70078	36.53
1.71745	36.86
1.73412	37.22
1.75078	37.56
1.76745	37.88
1.78412	38.17
1.80078	38.52
1.81745	38.85
1.83412	39.19
1.85078	39.54
1.86745	39.86
1.88412	40.19
1.90078	40.52
1.91745	40.85
1.93412	41.18
1.95078	41.50
1.96745	41.82
1.98412	42.13
2.00078	42.46
2.01745	42.80
2.03412	43.11
2.05078	43.44
2.06745	43.78
2.08412	44.09
2.10078	44.43
2.11745	44.76
2.13412	45.08
2.15078	45.41
2.16745	45.75
2.18412	46.06
2.20078	46.40
2.21745	46.72
2.23412	47.06
2.25078	47.38
2.26745	47.72
2.28412	48.03
2.30078	48.37
2.31745	48.69
2.33412	49.01
2.35078	49.32
2.36745	49.58
2.38412	49.70
2.40078	49.72
2.41745	49.71
2.43412	49.72
2.45078	49.72
2.46745	49.73
2.48412	49.75
2.50078	49.76
2.51745	49.77
2.53412	49.78
2.55078	49.80
2.56745	49.80
2.58412	49.81
2.60078	49.82
2.61745	49.81
2.63412	49.81
2.65078	49.82
2.66745	49.83
2.68412	49.85
2.70078	49.86
2.71745	49.87
2.73412	49.86
2.75078	49.85
2.76745	49.86
2.78412	49.87
2.80078	49.89
2.81745	49.89
2.83412	49.90
2.85078	49.91
2.86745	49.91
2.88412	49.91
2.90078	49.92
2.91745	49.92
2.93412	49.93
2.95078	49.94
2.96745	49.95
2.98412	49.97
3.00078	49.98
3.01745	49.99
3.03412	50.00
3.05078	50.01
3.06745	50.01
3.08412	50.02
3.10078	50.03
3.11745	50.04
3.13412	50.06
3.15078	50.07
3.16745	50.08
3.18412	50.10
3.20078	50.10
3.21745	50.11
3.23412	50.11
3.25078	50.10
3.26745	50.10
3.28412	50.08
3.30078	50.06
3.31745	50.04
3.33412	50.02
3.35078	50.03
3.36745	50.02
3.38412	50.03
3.40078	50.03
3.41745	50.01
3.43412	50.02
3.45078	50.01
3.46745	50.02
3.48412	50.02
3.50078	50.03
3.51745	50.04
3.53412	50.03
3.55078	50.04
3.56745	50.05
3.58412	50.04
3.60078	50.05
3.61745	50.05
3.63412	50.04
3.65078	50.03
3.66745	50.04
3.68412	50.04
3.70078	50.05
3.71745	50.06
3.73412	50.06
3.75078	50.05
3.76745	50.06
3.78412	50.06
3.80078	50.05
3.81745	50.06
3.83412	50.07
3.85078	50.07
3.86745	50.08
3.88412	50.09
3.90078	50.09
3.91745	50.08
3.93412	50.08
3.95078	50.07
3.96745	50.07
3.98412	50.07

[Status Trace (Injection Unit Temperature)]
Interval(msec)	1000
# of Points	240
Start Time(min)	0.001
End Time(min)	3.984
Intensity Units	
Intensity Multiplier	1
R.Time (min)	Intensity
0.00078	99.97
0.01745	99.98
0.03412	99.98
0.05078	99.98
0.06745	99.98
0.08412	99.98
0.10078	99.98
0.11745	99.98
0.13412	99.98
0.15078	99.98
0.16745	99.98
0.18412	99.98
0.20078	99.98
0.21745	99.98
0.23412	99.98
0.25078	99.98
0.26745	99.99
0.28412	99.98
0.30078	99.98
0.31745	99.98
0.33412	99.99
0.35078	99.98
0.36745	99.98
0.38412	99.98
0.40078	99.99
0.41745	99.99
0.43412	99.99
0.45078	99.98
0.46745	99.98
0.48412	99.98
0.50078	99.98
0.51745	99.99
0.53412	99.98
0.55078	99.98
0.56745	99.98
0.58412	99.99
0.60078	99.99
0.61745	99.98
0.63412	99.98
0.65078	99.98
0.66745	99.98
0.68412	99.98
0.70078	99.98
0.71745	99.98
0.73412	99.98
0.75078	99.98
0.76745	99.99
0.78412	99.99
0.80078	99.98
0.81745	99.98
0.83412	99.99
0.85078	99.99
0.86745	99.99
0.88412	99.98
0.90078	99.99
0.91745	99.99
0.93412	99.99
0.95078	99.98
0.96745	99.99
0.98412	99.99
1.00078	99.99
1.01745	99.99
1.03412	99.99
1.05078	99.99
1.06745	99.98
1.08412	99.99
1.10078	99.98
1.11745	99.99
1.13412	99.99
1.15078	99.98
1.16745	99.98
1.18412	99.98
1.20078	99.99
1.21745	99.98
1.23412	99.98
1.25078	99.98
1.26745	99.98
1.28412	99.99
1.30078	99.98
1.31745	99.98
1.33412	99.98
1.35078	99.98
1.36745	99.98
1.38412	99.98
1.40078	99.98
1.41745	99.98
1.43412	99.99
1.45078	99.98
1.46745	99.98
1.48412	99.98
1.50078	99.98
1.51745	99.99
1.53412	99.98
1.55078	99.98
1.56745	99.99
1.58412	99.99
1.60078	99.99
1.61745	99.98
1.63412	99.99
1.65078	99.99
1.66745	99.99
1.68412	99.99
1.70078	99.99
1.71745	99.99
1.73412	99.99
1.75078	99.99
1.76745	99.99
1.78412	99.99
1.80078	99.99
1.81745	99.99
1.83412	99.99
1.85078	99.98
1.86745	99.98
1.88412	99.98
1.90078	99.98
1.91745	99.99
1.93412	99.98
1.95078	99.98
1.96745	99.98
1.98412	99.98
2.00078	99.98
2.01745	99.98
2.03412	99.98
2.05078	99.98
2.06745	99.98
2.08412	99.98
2.10078	99.97
2.11745	99.98
2.13412	99.97
2.15078	99.97
2.16745	99.97
2.18412	99.97
2.20078	99.97
2.21745	99.97
2.23412	99.97
2.25078	99.97
2.26745	99.97
2.28412	99.97
2.30078	99.97
2.31745	99.97
2.33412	99.96
2.35078	99.96
2.36745	99.97
2.38412	99.96
2.40078	99.96
2.41745	99.96
2.43412	99.96
2.45078	99.97
2.46745	99.97
2.48412	99.97
2.50078	99.97
2.51745	99.96
2.53412	99.97
2.55078	99.96
2.56745	99.97
2.58412	99.97
2.60078	99.97
2.61745	99.98
2.63412	99.98
2.65078	99.98
2.66745	99.98
2.68412	99.98
2.70078	99.98
2.71745	99.99
2.73412	99.98
2.75078	99.99
2.76745	99.99
2.78412	99.99
2.80078	99.99
2.81745	99.99
2.83412	100.00
2.85078	100.00
2.86745	100.00
2.88412	100.00
2.90078	100.00
2.91745	100.01
2.93412	100.00
2.95078	100.01
2.96745	100.01
2.98412	100.01
3.00078	100.01
3.01745	100.02
3.03412	100.01
3.05078	100.02
3.06745	100.01
3.08412	100.01
3.10078	100.02
3.11745	100.02
3.13412	100.02
3.15078	100.02
3.16745	100.02
3.18412	100.02
3.20078	100.02
3.21745	100.02
3.23412	100.03
3.25078	100.02
3.26745	100.03
3.28412	100.03
3.30078	100.03
3.31745	100.03
3.33412	100.03
3.35078	100.03
3.36745	100.03
3.38412	100.03
3.40078	100.03
3.41745	100.03
3.43412	100.02
3.45078	100.03
3.46745	100.03
3.48412	100.03
3.50078	100.04
3.51745	100.03
3.53412	100.04
3.55078	100.04
3.56745	100.04
3.58412	100.04
3.60078	100.04
3.61745	100.04
3.63412	100.03
3.65078	100.04
3.66745	100.04
3.68412	100.04
3.70078	100.04
3.71745	100.04
3.73412	100.04
3.75078	100.04
3.76745	100.04
3.78412	100.04
3.80078	100.04
3.81745	100.04
3.83412	100.04
3.85078	100.04
3.86745	100.04
3.88412	100.05
3.90078	100.04
3.91745	100.05
3.93412	100.04
3.95078	100.05
3.96745	100.04
3.98412	100.05

[Status Trace (Carrier Gas Pressure)]
Interval(msec)	1000
# of Points	240
Start Time(min)	0.001
End Time(min)	3.984
Intensity Units	
Intensity Multiplier	1
R.Time (min)	Intensity
0.00078	58.00
0.01745	56.53
0.03412	56.02
0.05078	58.37
0.06745	59.89
0.08412	58.42
0.10078	57.97
0.11745	58.00
0.13412	58.01
0.15078	58.01
0.16745	58.00
0.18412	58.00
0.20078	58.00
0.21745	58.00
0.23412	58.00
0.25078	58.00
0.26745	58.00
0.28412	58.00
0.30078	58.00
0.31745	58.00
0.33412	58.00
0.35078	58.00
0.36745	58.00
0.38412	58.00
0.40078	58.00
0.41745	58.00
0.43412	58.00
0.45078	58.00
0.46745	58.00
0.48412	58.00
0.50078	58.00
0.51745	58.00
0.53412	58.00
0.55078	58.00
0.56745	58.00
0.58412	58.00
0.60078	58.00
0.61745	58.00
0.63412	58.00
0.65078	58.00
0.66745	58.00
0.68412	58.00
0.70078	58.00
0.71745	58.00
0.73412	58.00
0.75078	58.00
0.76745	58.00
0.78412	58.00
0.80078	58.00
0.81745	58.00
0.83412	58.00
0.85078	58.00
0.86745	58.00
0.88412	58.00
0.90078	58.00
0.91745	58.00
0.93412	58.00
0.95078	58.00
0.96745	58.00
0.98412	58.00
1.00078	58.00
1.01745	58.00
1.03412	58.00
1.05078	58.00
1.06745	58.00
1.08412	58.00
1.10078	58.00
1.11745	58.00
1.13412	58.00
1.15078	58.00
1.16745	58.00
1.18412	58.00
1.20078	58.00
1.21745	58.00
1.23412	58.00
1.25078	58.00
1.26745	58.00
1.28412	58.00
1.30078	58.00
1.31745	58.00
1.33412	58.00
1.35078	58.00
1.36745	58.00
1.38412	58.00
1.40078	58.00
1.41745	58.00
1.43412	58.00
1.45078	58.00
1.46745	58.00
1.48412	58.00
1.50078	58.00
1.51745	58.00
1.53412	58.00
1.55078	58.00
1.56745	58.00
1.58412	58.00
1.60078	58.00
1.61745	58.00
1.63412	58.01
1.65078	58.00
1.66745	58.00
1.68412	58.01
1.70078	58.00
1.71745	58.00
1.73412	58.00
1.75078	58.00
1.76745	58.00
1.78412	58.00
1.80078	58.00
1.81745	58.00
1.83412	58.00
1.85078	58.00
1.86745	58.00
1.88412	58.00
1.90078	58.00
1.91745	58.00
1.93412	58.00
1.95078	58.00
1.96745	58.00
1.98412	58.00
2.00078	58.00
2.01745	58.00
2.03412	58.00
2.05078	58.00
2.06745	58.00
2.08412	58.00
2.10078	58.00
2.11745	58.00
2.13412	58.00
2.15078	58.00
2.16745	58.00
2.18412	58.00
2.20078	58.00
2.21745	58.00
2.23412	58.00
2.25078	58.00
2.26745	58.00
2.28412	58.00
2.30078	58.00
2.31745	58.00
2.33412	58.00
2.35078	58.00
2.36745	58.00
2.38412	57.99
2.40078	57.99
2.41745	58.00
2.43412	58.00
2.45078	58.00
2.46745	58.00
2.48412	58.00
2.50078	58.00
2.51745	57.99
2.53412	57.99
2.55078	58.00
2.56745	58.00
2.58412	58.00
2.60078	58.00
2.61745	58.00
2.63412	58.00
2.65078	58.00
2.66745	58.00
2.68412	58.00
2.70078	58.00
2.71745	58.00
2.73412	58.00
2.75078	58.00
2.76745	58.00
2.78412	58.00
2.80078	58.00
2.81745	58.00
2.83412	58.00
2.85078	58.00
2.86745	58.00
2.88412	58.00
2.90078	58.00
2.91745	58.00
2.93412	58.00
2.95078	58.00
2.96745	58.00
2.98412	58.00
3.00078	58.00
3.01745	58.00
3.03412	58.00
3.05078	58.00
3.06745	58.00
3.08412	58.00
3.10078	58.00
3.11745	58.00
3.13412	58.00
3.15078	58.00
3.16745	58.00
3.18412	58.00
3.20078	58.00
3.21745	58.00
3.23412	58.00
3.25078	58.00
3.26745	58.00
3.28412	58.00
3.30078	58.00
3.31745	58.00
3.33412	58.00
3.35078	58.00
3.36745	58.00
3.38412	58.00
3.40078	58.00
3.41745	58.00
3.43412	58.00
3.45078	58.00
3.46745	58.00
3.48412	58.00
3.50078	58.00
3.51745	58.00
3.53412	58.00
3.55078	58.00
3.56745	58.00
3.58412	58.00
3.60078	58.00
3.61745	58.00
3.63412	58.00
3.65078	58.00
3.66745	58.00
3.68412	58.00
3.70078	58.00
3.71745	58.00
3.73412	58.00
3.75078	58.00
3.76745	58.00
3.78412	58.00
3.80078	58.00
3.81745	58.00
3.83412	58.00
3.85078	58.00
3.86745	58.00
3.88412	58.00
3.90078	58.00
3.91745	58.00
3.93412	58.00
3.95078	58.00
3.96745	58.00
3.98412	58.00

[Status Trace (Carrier Gas Flow)]
Interval(msec)	1000
# of Points	240
Start Time(min)	0.001
End Time(min)	3.984
Intensity Units	
Intensity Multiplier	1
R.Time (min)	Intensity
0.00078	34.52
0.01745	34.14
0.03412	34.54
0.05078	34.55
0.06745	34.50
0.08412	34.51
0.10078	34.52
0.11745	34.52
0.13412	34.52
0.15078	34.52
0.16745	34.52
0.18412	34.52
0.20078	34.52
0.21745	34.52
0.23412	34.51
0.25078	34.52
0.26745	34.52
0.28412	34.52
0.30078	34.52
0.31745	34.51
0.33412	34.52
0.35078	34.52
0.36745	34.52
0.38412	34.52
0.40078	34.52
0.41745	34.52
0.43412	34.52
0.45078	34.52
0.46745	34.52
0.48412	34.52
0.50078	34.52
0.51745	34.52
0.53412	34.52
0.55078	34.52
0.56745	34.52
0.58412	34.51
0.60078	34.52
0.61745	34.51
0.63412	34.52
0.65078	34.52
0.66745	34.52
0.68412	34.51
0.70078	34.52
0.71745	34.52
0.73412	34.52
0.75078	34.52
0.76745	34.52
0.78412	34.52
0.80078	34.52
0.81745	34.52
0.83412	34.52
0.85078	34.52
0.86745	34.52
0.88412	34.52
0.90078	34.52
0.91745	34.52
0.93412	34.52
0.95078	34.52
0.96745	34.52
0.98412	34.52
1.00078	34.52
1.01745	34.52
1.03412	34.52
1.05078	34.52
1.06745	34.52
1.08412	34.52
1.10078	34.52
1.11745	34.52
1.13412	34.52
1.15078	34.52
1.16745	34.52
1.18412	34.51
1.20078	34.52
1.21745	34.52
1.23412	34.51
1.25078	34.51
1.26745	34.52
1.28412	34.52
1.30078	34.52
1.31745	34.51
1.33412	34.52
1.35078	34.52
1.36745	34.52
1.38412	34.52
1.40078	34.52
1.41745	34.52
1.43412	34.51
1.45078	34.52
1.46745	34.52
1.48412	34.52
1.50078	34.52
1.51745	34.52
1.53412	34.51
1.55078	34.52
1.56745	34.52
1.58412	34.52
1.60078	34.52
1.61745	34.52
1.63412	34.52
1.65078	34.51
1.66745	34.52
1.68412	34.52
1.70078	34.51
1.71745	34.52
1.73412	34.52
1.75078	34.52
1.76745	34.52
1.78412	34.52
1.80078	34.52
1.81745	34.52
1.83412	34.51
1.85078	34.52
1.86745	34.52
1.88412	34.52
1.90078	34.52
1.91745	34.51
1.93412	34.52
1.95078	34.52
1.96745	34.52
1.98412	34.52
2.00078	34.52
2.01745	34.53
2.03412	34.52
2.05078	34.52
2.06745	34.52
2.08412	34.52
2.10078	34.52
2.11745	34.51
2.13412	34.52
2.15078	34.52
2.16745	34.53
2.18412	34.52
2.20078	34.52
2.21745	34.52
2.23412	34.52
2.25078	34.51
2.26745	34.52
2.28412	34.52
2.30078	34.52
2.31745	34.52
2.33412	34.52
2.35078	34.52
2.36745	34.52
2.38412	34.52
2.40078	34.52
2.41745	34.52
2.43412	34.52
2.45078	34.52
2.46745	34.52
2.48412	34.52
2.50078	34.52
2.51745	34.52
2.53412	34.52
2.55078	34.52
2.56745	34.52
2.58412	34.52
2.60078	34.52
2.61745	34.52
2.63412	34.52
2.65078	34.52
2.66745	34.52
2.68412	34.52
2.70078	34.52
2.71745	34.52
2.73412	34.52
2.75078	34.52
2.76745	34.52
2.78412	34.52
2.80078	34.52
2.81745	34.52
2.83412	34.51
2.85078	34.51
2.86745	34.51
2.88412	34.52
2.90078	34.52
2.91745	34.52
2.93412	34.52
2.95078	34.52
2.96745	34.52
2.98412	34.52
3.00078	34.52
3.01745	34.52
3.03412	34.52
3.05078	34.52
3.06745	34.52
3.08412	34.52
3.10078	34.52
3.11745	34.52
3.13412	34.52
3.15078	34.52
3.16745	34.52
3.18412	34.52
3.20078	34.52
3.21745	34.52
3.23412	34.52
3.25078	34.52
3.26745	34.51
3.28412	34.52
3.30078	34.52
3.31745	34.52
3.33412	34.52
3.35078	34.52
3.36745	34.52
3.38412	34.52
3.40078	34.52
3.41745	34.52
3.43412	34.52
3.45078	34.52
3.46745	34.52
3.48412	34.52
3.50078	34.53
3.51745	34.52
3.53412	34.52
3.55078	34.52
3.56745	34.52
3.58412	34.51
3.60078	34.51
3.61745	34.52
3.63412	34.52
3.65078	34.52
3.66745	34.51
3.68412	34.52
3.70078	34.52
3.71745	34.52
3.73412	34.52
3.75078	34.52
3.76745	34.52
3.78412	34.52
3.80078	34.52
3.81745	34.52
3.83412	34.51
3.85078	34.52
3.86745	34.52
3.88412	34.51
3.90078	34.52
3.91745	34.52
3.93412	34.52
3.95078	34.52
3.96745	34.52
3.98412	34.52

[Status Trace (Column Flow)]
Interval(msec)	1000
# of Points	240
Start Time(min)	0.001
End Time(min)	3.984
Intensity Units	
Intensity Multiplier	1
R.Time (min)	Intensity
0.00078	5.52
0.01745	5.35
0.03412	5.29
0.05078	5.56
0.06745	5.74
0.08412	5.57
0.10078	5.52
0.11745	5.52
0.13412	5.52
0.15078	5.52
0.16745	5.52
0.18412	5.52
0.20078	5.52
0.21745	5.52
0.23412	5.52
0.25078	5.52
0.26745	5.52
0.28412	5.52
0.30078	5.52
0.31745	5.52
0.33412	5.52
0.35078	5.52
0.36745	5.52
0.38412	5.52
0.40078	5.52
0.41745	5.52
0.43412	5.52
0.45078	5.52
0.46745	5.52
0.48412	5.52
0.50078	5.52
0.51745	5.52
0.53412	5.52
0.55078	5.52
0.56745	5.52
0.58412	5.52
0.60078	5.52
0.61745	5.52
0.63412	5.52
0.65078	5.52
0.66745	5.52
0.68412	5.52
0.70078	5.52
0.71745	5.52
0.73412	5.52
0.75078	5.52
0.76745	5.52
0.78412	5.52
0.80078	5.52
0.81745	5.52
0.83412	5.52
0.85078	5.52
0.86745	5.52
0.88412	5.52
0.90078	5.52
0.91745	5.52
0.93412	5.52
0.95078	5.52
0.96745	5.52
0.98412	5.52
1.00078	5.52
1.01745	5.52
1.03412	5.52
1.05078	5.52
1.06745	5.52
1.08412	5.52
1.10078	5.52
1.11745	5.52
1.13412	5.52
1.15078	5.52
1.16745	5.52
1.18412	5.52
1.20078	5.52
1.21745	5.52
1.23412	5.52
1.25078	5.52
1.26745	5.52
1.28412	5.52
1.30078	5.52
1.31745	5.52
1.33412	5.52
1.35078	5.52
1.36745	5.52
1.38412	5.52
1.40078	5.52
1.41745	5.52
1.43412	5.52
1.45078	5.52
1.46745	5.52
1.48412	5.52
1.50078	5.52
1.51745	5.52
1.53412	5.52
1.55078	5.52
1.56745	5.52
1.58412	5.52
1.60078	5.52
1.61745	5.52
1.63412	5.51
1.65078	5.51
1.66745	5.50
1.68412	5.49
1.70078	5.47
1.71745	5.46
1.73412	5.45
1.75078	5.44
1.76745	5.43
1.78412	5.42
1.80078	5.41
1.81745	5.40
1.83412	5.39
1.85078	5.38
1.86745	5.37
1.88412	5.36
1.90078	5.35
1.91745	5.34
1.93412	5.33
1.95078	5.32
1.96745	5.31
1.98412	5.30
2.00078	5.29
2.01745	5.28
2.03412	5.28
2.05078	5.27
2.06745	5.26
2.08412	5.25
2.10078	5.24
2.11745	5.23
2.13412	5.22
2.15078	5.21
2.16745	5.20
2.18412	5.19
2.20078	5.18
2.21745	5.17
2.23412	5.16
2.25078	5.15
2.26745	5.14
2.28412	5.13
2.30078	5.12
2.31745	5.12
2.33412	5.11
2.35078	5.10
2.36745	5.09
2.38412	5.09
2.40078	5.09
2.41745	5.09
2.43412	5.09
2.45078	5.09
2.46745	5.09
2.48412	5.09
2.50078	5.09
2.51745	5.08
2.53412	5.08
2.55078	5.08
2.56745	5.08
2.58412	5.08
2.60078	5.08
2.61745	5.08
2.63412	5.08
2.65078	5.08
2.66745	5.08
2.68412	5.08
2.70078	5.08
2.71745	5.08
2.73412	5.08
2.75078	5.08
2.76745	5.08
2.78412	5.08
2.80078	5.08
2.81745	5.08
2.83412	5.08
2.85078	5.08
2.86745	5.08
2.88412	5.08
2.90078	5.08
2.91745	5.08
2.93412	5.08
2.95078	5.08
2.96745	5.08
2.98412	5.08
3.00078	5.08
3.01745	5.08
3.03412	5.08
3.05078	5.08
3.06745	5.08
3.08412	5.08
3.10078	5.08
3.11745	5.08
3.13412	5.08
3.15078	5.08
3.16745	5.08
3.18412	5.08
3.20078	5.08
3.21745	5.08
3.23412	5.08
3.25078	5.08
3.26745	5.08
3.28412	5.08
3.30078	5.08
3.31745	5.08
3.33412	5.08
3.35078	5.08
3.36745	5.08
3.38412	5.08
3.40078	5.08
3.41745	5.08
3.43412	5.08
3.45078	5.08
3.46745	5.08
3.48412	5.08
3.50078	5.08
3.51745	5.08
3.53412	5.08
3.55078	5.08
3.56745	5.08
3.58412	5.08
3.60078	5.08
3.61745	5.08
3.63412	5.08
3.65078	5.08
3.66745	5.08
3.68412	5.08
3.70078	5.08
3.71745	5.08
3.73412	5.08
3.75078	5.08
3.76745	5.08
3.78412	5.08
3.80078	5.08
3.81745	5.08
3.83412	5.08
3.85078	5.08
3.86745	5.08
3.88412	5.08
3.90078	5.08
3.91745	5.08
3.93412	5.08
3.95078	5.08
3.96745	5.08
3.98412	5.08

[Status Trace (Linear Velocity)]
Interval(msec)	1000
# of Points	240
Start Time(min)	0.001
End Time(min)	3.984
Intensity Units	
Intensity Multiplier	1
R.Time (min)	Intensity
0.00078	39.01
0.01745	38.04
0.03412	37.71
0.05078	39.25
0.06745	40.25
0.08412	39.29
0.10078	38.99
0.11745	39.01
0.13412	39.02
0.15078	39.01
0.16745	39.01
0.18412	39.01
0.20078	39.01
0.21745	39.01
0.23412	39.01
0.25078	39.01
0.26745	39.01
0.28412	39.01
0.30078	39.01
0.31745	39.01
0.33412	39.01
0.35078	39.01
0.36745	39.01
0.38412	39.01
0.40078	39.01
0.41745	39.02
0.43412	39.02
0.45078	39.02
0.46745	39.02
0.48412	39.02
0.50078	39.02
0.51745	39.02
0.53412	39.02
0.55078	39.02
0.56745	39.02
0.58412	39.02
0.60078	39.02
0.61745	39.02
0.63412	39.02
0.65078	39.02
0.66745	39.02
0.68412	39.02
0.70078	39.02
0.71745	39.02
0.73412	39.01
0.75078	39.01
0.76745	39.01
0.78412	39.02
0.80078	39.02
0.81745	39.02
0.83412	39.02
0.85078	39.02
0.86745	39.02
0.88412	39.02
0.90078	39.02
0.91745	39.02
0.93412	39.02
0.95078	39.02
0.96745	39.02
0.98412	39.02
1.00078	39.02
1.01745	39.01
1.03412	39.01
1.05078	39.01
1.06745	39.01
1.08412	39.02
1.10078	39.02
1.11745	39.02
1.13412	39.02
1.15078	39.02
1.16745	39.02
1.18412	39.02
1.20078	39.02
1.21745	39.02
1.23412	39.02
1.25078	39.02
1.26745	39.02
1.28412	39.02
1.30078	39.02
1.31745	39.02
1.33412	39.02
1.35078	39.02
1.36745	39.01
1.38412	39.01
1.40078	39.02
1.41745	39.02
1.43412	39.02
1.45078	39.02
1.46745	39.02
1.48412	39.02
1.50078	39.02
1.51745	39.02
1.53412	39.02
1.55078	39.02
1.56745	39.02
1.58412	39.02
1.60078	39.01
1.61745	39.01
1.63412	38.99
1.65078	38.97
1.66745	38.94
1.68412	38.91
1.70078	38.87
1.71745	38.84
1.73412	38.81
1.75078	38.77
1.76745	38.74
1.78412	38.72
1.80078	38.68
1.81745	38.65
1.83412	38.62
1.85078	38.59
1.86745	38.56
1.88412	38.53
1.90078	38.49
1.91745	38.46
1.93412	38.44
1.95078	38.40
1.96745	38.37
1.98412	38.35
2.00078	38.31
2.01745	38.28
2.03412	38.26
2.05078	38.22
2.06745	38.19
2.08412	38.17
2.10078	38.13
2.11745	38.10
2.13412	38.08
2.15078	38.04
2.16745	38.01
2.18412	37.99
2.20078	37.95
2.21745	37.92
2.23412	37.90
2.25078	37.87
2.26745	37.84
2.28412	37.81
2.30078	37.78
2.31745	37.75
2.33412	37.72
2.35078	37.69
2.36745	37.67
2.38412	37.66
2.40078	37.65
2.41745	37.66
2.43412	37.66
2.45078	37.66
2.46745	37.66
2.48412	37.65
2.50078	37.65
2.51745	37.65
2.53412	37.65
2.55078	37.65
2.56745	37.65
2.58412	37.65
2.60078	37.65
2.61745	37.65
2.63412	37.65
2.65078	37.65
2.66745	37.65
2.68412	37.65
2.70078	37.65
2.71745	37.64
2.73412	37.64
2.75078	37.65
2.76745	37.65
2.78412	37.64
2.80078	37.64
2.81745	37.64
2.83412	37.64
2.85078	37.64
2.86745	37.64
2.88412	37.64
2.90078	37.64
2.91745	37.64
2.93412	37.64
2.95078	37.64
2.96745	37.64
2.98412	37.64
3.00078	37.63
3.01745	37.63
3.03412	37.63
3.05078	37.63
3.06745	37.63
3.08412	37.63
3.10078	37.63
3.11745	37.63
3.13412	37.63
3.15078	37.63
3.16745	37.63
3.18412	37.62
3.20078	37.62
3.21745	37.62
3.23412	37.62
3.25078	37.62
3.26745	37.62
3.28412	37.62
3.30078	37.63
3.31745	37.63
3.33412	37.63
3.35078	37.63
3.36745	37.63
3.38412	37.63
3.40078	37.63
3.41745	37.63
3.43412	37.63
3.45078	37.63
3.46745	37.63
3.48412	37.63
3.50078	37.63
3.51745	37.63
3.53412	37.63
3.55078	37.63
3.56745	37.63
3.58412	37.63
3.60078	37.63
3.61745	37.63
3.63412	37.63
3.65078	37.63
3.66745	37.63
3.68412	37.63
3.70078	37.63
3.71745	37.63
3.73412	37.63
3.75078	37.63
3.76745	37.63
3.78412	37.63
3.80078	37.63
3.81745	37.63
3.83412	37.63
3.85078	37.63
3.86745	37.63
3.88412	37.62
3.90078	37.62
3.91745	37.63
3.93412	37.63
3.95078	37.63
3.96745	37.63
3.98412	37.63

