[Header]
Application Name	LabSolutions
Version	5.110
Data File Name	C:\Users\User\Desktop\GC Analyses\Jack\Nachusa Grasslands Sampling\T2 Timepoint July 12th\T2_07122022_079.gcd
Output Date	3/14/2023
Output Time	3:42:35 PM

[File Information]
Type	Data File
Generated	3/10/2023 9:16:08 PM
Generated by	System Administrator
Modified	3/10/2023 9:22:47 PM
Modified by	System Administrator

[Sample Information]
Operator Name	System Administrator
Acquired	3/10/2023 9:18:47 PM
Sample Type	0:Unknown
Level	0
Sample Name	079
Sample ID	079
ISTD Amount1	1
ISTD Amount2	1
ISTD Amount3	1
ISTD Amount4	1
ISTD Amount5	1
ISTD Amount6	1
ISTD Amount7	1
ISTD Amount8	1
ISTD Amount9	1
ISTD Amount10	1
ISTD Amount11	1
ISTD Amount12	1
ISTD Amount13	1
ISTD Amount14	1
ISTD Amount15	1
ISTD Amount16	1
ISTD Amount17	1
ISTD Amount18	1
ISTD Amount19	1
ISTD Amount20	1
ISTD Amount21	1
ISTD Amount22	1
ISTD Amount23	1
ISTD Amount24	1
ISTD Amount25	1
ISTD Amount26	1
ISTD Amount27	1
ISTD Amount28	1
ISTD Amount29	1
ISTD Amount30	1
ISTD Amount31	1
ISTD Amount32	1
Sample Amount	1
Dilution Factor	1
Vial#	78
Injection Volume	1
Injection Count	1
Bar Code	

[Original Files]
Data File	C:\Users\User\Desktop\GC Analyses\Jack\Nachusa Grasslands Sampling\T1 Timepoint July 12th\T2_07122022_079.gcd
Method File	C:\LabSolutions\Data\GHG_4min_2022\ghg3_togas_w_acet_4 min_new_int.gcm
Batch File	C:\LabSolutions\Data\AutoSamplerTesting\T2_07122022.gcb
Report Format File	c:\LabSolutions\System\DEFAULT.lsr

[File Description]


[Configuration]
Instrument Name	C0B7VH3-Instrument1
Instrument #	1
Line #	1
# of Detectors	3
Detector ID	DET#1	DET#2	DET#3
Detector Name	FID	PTCD	ECD
# of Channels	1	1	1

[Peak Table(Ch1)]
# of Peaks	3
Peak#	R.Time	I.Time	F.Time	Area	Height	A/H	Conc.	Mark	ID#	Name	k'	Plate #	Plate Ht.	Tailing	Resolution	Sep.Factor	Area Ratio	Height Ratio	Conc. %	Norm Conc.
1	1.476	1.421	1.538	30691	14691	2.089	216.680	   	1	CO	0.000	9384	15.985	1.286	0.000	0.000	0	0	26.608	26.608
2	1.567	1.538	1.626	4479	2206	2.031	86.610	 V 	2	CH4	0.062	10258	14.623	0.000	1.493	0.000	0	0	10.636	10.636
3	1.996	1.949	2.502	2036238	971787	2.095	511.041	   	3	CO2	0.353	17431	8.606	1.246	7.011	5.680	0	0	62.756	62.756

[Peak Table(Ch2)]
# of Peaks	0

[Peak Table(Ch3)]
# of Peaks	6
Peak#	R.Time	I.Time	F.Time	Area	Height	A/H	Conc.	Mark	ID#	Name	k'	Plate #	Plate Ht.	Tailing	Resolution	Sep.Factor	Area Ratio	Height Ratio	Conc. %	Norm Conc.
1	2.462	2.319	2.513	2172	679	3.200	0.000	   			0.000	10081	14.879	0.000	0.000	0.000	0	0	0.000	0.000
2	2.535	2.513	2.642	1340	330	4.067	0.000	 V 			0.030	5735	26.156	0.000	0.632	0.000	0	0	0.000	0.000
3	2.653	2.642	2.704	178	81	2.189	0.000	 V 			0.077	6426	23.343	0.000	0.881	2.600	0	0	0.000	0.000
4	2.876	2.810	3.034	18639	4991	3.735	0.476	   	1	N2O	0.168	13371	11.219	1.582	1.929	2.173	0	0	100.000	100.000
5	3.100	3.056	3.107	55	35	1.571	0.000	   	2	SF6	0.259	58540	2.562	0.587	2.967	1.540	0	0	0.000	0.000
6	3.357	3.118	3.995	16193	542	29.887	0.000	   	2	SF6	0.363	271	554.508	1.794	0.592	1.402	0	0	0.000	0.000

[Compound Results(Ch1)]
# of IDs	6
ID#	Name	R.Time	Area	Height	Conc.	Curve	3rd	2nd	1st	Constant	Area Ratio	Height Ratio	Conc. %	Norm Conc.
1	CO	1.476	30691	14691	216.680	Linear	0.000000e+00	0.000000e+00	1.416423e+002	0.000000e+00	0	0	26.608	26.608
2	CH4	1.567	4479	2206	86.610	Linear	0.000000e+00	0.000000e+00	5.171738e+001	0.000000e+00	0	0	10.636	10.636
3	CO2	1.996	2036238	971787	511.041	Linear	0.000000e+00	0.000000e+00	3.984494e+003	0.000000e+00	0	0	62.756	62.756
4	Ethylene	0.000	0	0	0.000	Linear	0.000000e+00	0.000000e+00	0.000000e+00	0.000000e+00	0	0	0.000	0.000
5	Acetylene	0.000	0	0	0.000	Linear	0.000000e+00	0.000000e+00	0.000000e+00	0.000000e+00	0	0	0.000	0.000
6	Ethane	0.000	0	0	0.000	Linear	0.000000e+00	0.000000e+00	0.000000e+00	0.000000e+00	0	0	0.000	0.000

[Compound Results(Ch2)]
# of IDs	5
ID#	Name	R.Time	Area	Height	Conc.	Curve	3rd	2nd	1st	Constant	Area Ratio	Height Ratio	Conc. %	Norm Conc.
1	Hydrogen	0.000	0	0	0.000	Linear	0.000000e+00	0.000000e+00	0.000000e+00	0.000000e+00	0	0	0.000	0.000
2	Oxygen	0.000	0	0	0.000	Linear	0.000000e+00	0.000000e+00	0.000000e+00	0.000000e+00	0	0	0.000	0.000
3	Nitrogen	0.000	0	0	0.000	Linear	0.000000e+00	0.000000e+00	0.000000e+00	0.000000e+00	0	0	0.000	0.000
4	Methane	0.000	0	0	0.000	Linear	0.000000e+00	0.000000e+00	0.000000e+00	0.000000e+00	0	0	0.000	0.000
5	Carbon Monoxide	0.000	0	0	0.000	Linear	0.000000e+00	0.000000e+00	0.000000e+00	0.000000e+00	0	0	0.000	0.000

[Compound Results(Ch3)]
# of IDs	2
ID#	Name	R.Time	Area	Height	Conc.	Curve	3rd	2nd	1st	Constant	Area Ratio	Height Ratio	Conc. %	Norm Conc.
1	N2O	2.876	18639	4991	0.476	Linear	0.000000e+00	0.000000e+00	3.915173e+004	0.000000e+00	0	0	100.000	100.000
2	SF6	3.357	16248	577	0.000	Linear	0.000000e+00	0.000000e+00	0.000000e+00	0.000000e+00	0	0	0.000	0.000

[Group Results(Ch1)]
# of Groups	0

[Group Results(Ch2)]
# of Groups	0

[Group Results(Ch3)]
# of Groups	0

[Chromatogram (Ch1)]
Interval(msec)	220
# of Points	1091
Start Time(min)	0.002
End Time(min)	3.998
R.Time (min)	Intensity
0.00167	15
0.00533	4
0.00900	-5
0.01267	-5
0.01633	-2
0.02000	-1
0.02367	3
0.02733	6
0.03100	6
0.03467	7
0.03833	11
0.04200	12
0.04567	11
0.04933	9
0.05300	4
0.05667	-0
0.06033	-2
0.06400	1
0.06767	6
0.07133	12
0.07500	17
0.07867	18
0.08233	14
0.08600	10
0.08967	16
0.09333	26
0.09700	34
0.10067	40
0.10433	39
0.10800	35
0.11167	25
0.11533	9
0.11900	-1
0.12267	-0
0.12633	-2
0.13000	-4
0.13367	-4
0.13733	2
0.14100	13
0.14467	23
0.14833	34
0.15200	41
0.15567	39
0.15933	31
0.16300	22
0.16667	14
0.17033	7
0.17400	1
0.17767	1
0.18133	8
0.18500	20
0.18867	32
0.19233	42
0.19600	47
0.19967	50
0.20333	52
0.20700	50
0.21067	46
0.21433	44
0.21800	46
0.22167	52
0.22533	62
0.22900	69
0.23267	70
0.23633	71
0.24000	79
0.24367	94
0.24733	102
0.25100	100
0.25467	99
0.25833	96
0.26200	90
0.26567	83
0.26933	83
0.27300	85
0.27667	90
0.28033	97
0.28400	107
0.28767	119
0.29133	122
0.29500	120
0.29867	116
0.30233	111
0.30600	104
0.30967	99
0.31333	95
0.31700	93
0.32067	91
0.32433	92
0.32800	92
0.33167	87
0.33533	82
0.33900	76
0.34267	70
0.34633	61
0.35000	53
0.35367	50
0.35733	49
0.36100	49
0.36467	52
0.36833	53
0.37200	47
0.37567	38
0.37933	34
0.38300	32
0.38667	32
0.39033	32
0.39400	35
0.39767	36
0.40133	37
0.40500	40
0.40867	46
0.41233	48
0.41600	52
0.41967	58
0.42333	61
0.42700	59
0.43067	54
0.43433	49
0.43800	43
0.44167	33
0.44533	23
0.44900	18
0.45267	12
0.45633	5
0.46000	2
0.46367	6
0.46733	14
0.47100	22
0.47467	30
0.47833	33
0.48200	32
0.48567	30
0.48933	32
0.49300	36
0.49667	36
0.50033	33
0.50400	28
0.50767	24
0.51133	18
0.51500	13
0.51867	11
0.52233	12
0.52600	15
0.52967	20
0.53333	27
0.53700	32
0.54067	38
0.54433	40
0.54800	36
0.55167	28
0.55533	15
0.55900	5
0.56267	-1
0.56633	-2
0.57000	3
0.57367	11
0.57733	14
0.58100	11
0.58467	7
0.58833	8
0.59200	13
0.59567	18
0.59933	23
0.60300	31
0.60667	38
0.61033	36
0.61400	28
0.61767	23
0.62133	23
0.62500	24
0.62867	27
0.63233	29
0.63600	27
0.63967	23
0.64333	13
0.64700	3
0.65067	-7
0.65433	-13
0.65800	-14
0.66167	-10
0.66533	-7
0.66900	-2
0.67267	3
0.67633	7
0.68000	10
0.68367	10
0.68733	7
0.69100	7
0.69467	13
0.69833	18
0.70200	22
0.70567	26
0.70933	28
0.71300	23
0.71667	14
0.72033	12
0.72400	18
0.72767	25
0.73133	27
0.73500	26
0.73867	23
0.74233	23
0.74600	24
0.74967	24
0.75333	21
0.75700	15
0.76067	9
0.76433	5
0.76800	4
0.77167	3
0.77533	2
0.77900	3
0.78267	4
0.78633	6
0.79000	5
0.79367	1
0.79733	-4
0.80100	-5
0.80467	-0
0.80833	7
0.81200	12
0.81567	15
0.81933	16
0.82300	10
0.82667	2
0.83033	-1
0.83400	-1
0.83767	-3
0.84133	-10
0.84500	-18
0.84867	-20
0.85233	-21
0.85600	-16
0.85967	-7
0.86333	0
0.86700	3
0.87067	3
0.87433	6
0.87800	6
0.88167	3
0.88533	1
0.88900	1
0.89267	4
0.89633	4
0.90000	4
0.90367	6
0.90733	9
0.91100	12
0.91467	12
0.91833	11
0.92200	8
0.92567	7
0.92933	8
0.93300	13
0.93667	19
0.94033	21
0.94400	10
0.94767	-7
0.95133	-17
0.95500	-16
0.95867	-13
0.96233	-13
0.96600	-18
0.96967	-23
0.97333	-22
0.97700	-15
0.98067	-11
0.98433	-11
0.98800	-12
0.99167	-10
0.99533	-6
0.99900	0
1.00267	10
1.00633	18
1.01000	19
1.01367	16
1.01733	15
1.02100	18
1.02467	18
1.02833	13
1.03200	5
1.03567	-3
1.03933	-11
1.04300	-19
1.04667	-24
1.05033	-26
1.05400	-27
1.05767	-28
1.06133	-27
1.06500	-25
1.06867	-21
1.07233	-19
1.07600	-20
1.07967	-20
1.08333	-13
1.08700	-5
1.09067	-3
1.09433	-3
1.09800	-5
1.10167	-4
1.10533	1
1.10900	5
1.11267	3
1.11633	-3
1.12000	-5
1.12367	-5
1.12733	-8
1.13100	-7
1.13467	-6
1.13833	-2
1.14200	5
1.14567	10
1.14933	4
1.15300	-9
1.15667	-20
1.16033	-32
1.16400	-40
1.16767	-45
1.17133	-47
1.17500	-46
1.17867	-43
1.18233	-39
1.18600	-36
1.18967	-33
1.19333	-28
1.19700	-24
1.20067	-21
1.20433	-17
1.20800	-12
1.21167	-3
1.21533	3
1.21900	3
1.22267	1
1.22633	-1
1.23000	-5
1.23367	-8
1.23733	-12
1.24100	-17
1.24467	-23
1.24833	-29
1.25200	-27
1.25567	-18
1.25933	-9
1.26300	-5
1.26667	-6
1.27033	-4
1.27400	-2
1.27767	-5
1.28133	-14
1.28500	-23
1.28867	-27
1.29233	-25
1.29600	-19
1.29967	-12
1.30333	-8
1.30700	-6
1.31067	-7
1.31433	-10
1.31800	-13
1.32167	-12
1.32533	-8
1.32900	-7
1.33267	-12
1.33633	-19
1.34000	-25
1.34367	-28
1.34733	-33
1.35100	-35
1.35467	-31
1.35833	-24
1.36200	-17
1.36567	-12
1.36933	-13
1.37300	-14
1.37667	-16
1.38033	-16
1.38400	-19
1.38767	-22
1.39133	-23
1.39500	-26
1.39867	-34
1.40233	-43
1.40600	-48
1.40967	-49
1.41333	-46
1.41700	-40
1.42067	-31
1.42433	-20
1.42800	-11
1.43167	-7
1.43533	-3
1.43900	18
1.44267	111
1.44633	371
1.45000	1084
1.45367	2710
1.45733	5234
1.46100	8113
1.46467	10767
1.46833	12857
1.47200	14213
1.47567	14685
1.47933	14163
1.48300	12720
1.48667	10667
1.49033	8436
1.49400	6377
1.49767	4673
1.50133	3362
1.50500	2404
1.50867	1724
1.51233	1251
1.51600	928
1.51967	709
1.52333	558
1.52700	453
1.53067	374
1.53433	314
1.53800	287
1.54167	336
1.54533	517
1.54900	841
1.55267	1240
1.55633	1623
1.56000	1936
1.56367	2151
1.56733	2241
1.57100	2175
1.57467	1951
1.57833	1620
1.58200	1259
1.58567	935
1.58933	673
1.59300	477
1.59667	337
1.60033	240
1.60400	176
1.60767	135
1.61133	106
1.61500	85
1.61867	71
1.62233	66
1.62600	62
1.62967	57
1.63333	55
1.63700	55
1.64067	55
1.64433	57
1.64800	53
1.65167	41
1.65533	26
1.65900	12
1.66267	-0
1.66633	-7
1.67000	-9
1.67367	-10
1.67733	-10
1.68100	-11
1.68467	-13
1.68833	-17
1.69200	-21
1.69567	-21
1.69933	-17
1.70300	-12
1.70667	-4
1.71033	7
1.71400	15
1.71767	18
1.72133	17
1.72500	11
1.72867	1
1.73233	-6
1.73600	-6
1.73967	-2
1.74333	-1
1.74700	-2
1.75067	-1
1.75433	3
1.75800	8
1.76167	15
1.76533	16
1.76900	12
1.77267	5
1.77633	-3
1.78000	-10
1.78367	-15
1.78733	-18
1.79100	-19
1.79467	-18
1.79833	-18
1.80200	-17
1.80567	-15
1.80933	-10
1.81300	2
1.81667	13
1.82033	20
1.82400	21
1.82767	18
1.83133	12
1.83500	5
1.83867	0
1.84233	-2
1.84600	-2
1.84967	-1
1.85333	2
1.85700	10
1.86067	14
1.86433	10
1.86800	4
1.87167	-0
1.87533	3
1.87900	10
1.88267	15
1.88633	16
1.89000	12
1.89367	5
1.89733	-3
1.90100	-10
1.90467	-12
1.90833	-10
1.91200	-5
1.91567	-4
1.91933	-5
1.92300	-6
1.92667	-5
1.93033	-3
1.93400	2
1.93767	7
1.94133	8
1.94500	8
1.94867	15
1.95233	58
1.95600	322
1.95967	1777
1.96333	8036
1.96700	28400
1.97067	79329
1.97433	177873
1.97800	327528
1.98167	510057
1.98533	693282
1.98900	845189
1.99267	942364
1.99633	971852
2.00000	932531
2.00367	835654
2.00733	702514
2.01100	557830
2.01467	422269
2.01833	308109
2.02200	219200
2.02567	153742
2.02933	107403
2.03300	75429
2.03667	53696
2.04033	39018
2.04400	29101
2.04767	22353
2.05133	17701
2.05500	14436
2.05867	12089
2.06233	10358
2.06600	9050
2.06967	8037
2.07333	7237
2.07700	6589
2.08067	6054
2.08433	5601
2.08800	5209
2.09167	4870
2.09533	4576
2.09900	4313
2.10267	4072
2.10633	3850
2.11000	3649
2.11367	3472
2.11733	3318
2.12100	3176
2.12467	3043
2.12833	2921
2.13200	2808
2.13567	2704
2.13933	2608
2.14300	2518
2.14667	2427
2.15033	2340
2.15400	2259
2.15767	2187
2.16133	2117
2.16500	2050
2.16867	1988
2.17233	1934
2.17600	1881
2.17967	1829
2.18333	1782
2.18700	1741
2.19067	1698
2.19433	1656
2.19800	1617
2.20167	1576
2.20533	1535
2.20900	1498
2.21267	1464
2.21633	1430
2.22000	1394
2.22367	1363
2.22733	1336
2.23100	1311
2.23467	1285
2.23833	1259
2.24200	1233
2.24567	1206
2.24933	1180
2.25300	1159
2.25667	1143
2.26033	1129
2.26400	1114
2.26767	1096
2.27133	1070
2.27500	1038
2.27867	1009
2.28233	986
2.28600	970
2.28967	958
2.29333	947
2.29700	934
2.30067	921
2.30433	913
2.30800	904
2.31167	890
2.31533	877
2.31900	871
2.32267	867
2.32633	860
2.33000	853
2.33367	843
2.33733	828
2.34100	810
2.34467	794
2.34833	781
2.35200	770
2.35567	764
2.35933	762
2.36300	764
2.36667	759
2.37033	744
2.37400	727
2.37767	716
2.38133	710
2.38500	704
2.38867	698
2.39233	693
2.39600	687
2.39967	679
2.40333	672
2.40700	664
2.41067	657
2.41433	653
2.41800	651
2.42167	653
2.42533	664
2.42900	676
2.43267	683
2.43633	683
2.44000	674
2.44367	661
2.44733	648
2.45100	638
2.45467	630
2.45833	626
2.46200	623
2.46567	620
2.46933	620
2.47300	618
2.47667	615
2.48033	616
2.48400	620
2.48767	618
2.49133	611
2.49500	606
2.49867	597
2.50233	587
2.50600	584
2.50967	589
2.51333	595
2.51700	599
2.52067	599
2.52433	597
2.52800	596
2.53167	599
2.53533	599
2.53900	597
2.54267	585
2.54633	567
2.55000	554
2.55367	548
2.55733	546
2.56100	547
2.56467	549
2.56833	550
2.57200	551
2.57567	550
2.57933	548
2.58300	548
2.58667	545
2.59033	539
2.59400	531
2.59767	525
2.60133	525
2.60500	527
2.60867	526
2.61233	522
2.61600	521
2.61967	519
2.62333	514
2.62700	512
2.63067	512
2.63433	512
2.63800	511
2.64167	512
2.64533	515
2.64900	516
2.65267	512
2.65633	505
2.66000	502
2.66367	501
2.66733	498
2.67100	494
2.67467	492
2.67833	486
2.68200	478
2.68567	473
2.68933	470
2.69300	469
2.69667	470
2.70033	471
2.70400	475
2.70767	482
2.71133	488
2.71500	491
2.71867	487
2.72233	482
2.72600	484
2.72967	491
2.73333	492
2.73700	486
2.74067	480
2.74433	478
2.74800	478
2.75167	471
2.75533	459
2.75900	448
2.76267	442
2.76633	441
2.77000	443
2.77367	446
2.77733	445
2.78100	445
2.78467	448
2.78833	449
2.79200	452
2.79567	460
2.79933	467
2.80300	469
2.80667	465
2.81033	459
2.81400	455
2.81767	453
2.82133	452
2.82500	451
2.82867	450
2.83233	451
2.83600	450
2.83967	448
2.84333	447
2.84700	447
2.85067	448
2.85433	450
2.85800	453
2.86167	460
2.86533	464
2.86900	460
2.87267	454
2.87633	448
2.88000	445
2.88367	437
2.88733	426
2.89100	414
2.89467	408
2.89833	407
2.90200	406
2.90567	407
2.90933	413
2.91300	421
2.91667	429
2.92033	431
2.92400	429
2.92767	426
2.93133	421
2.93500	419
2.93867	422
2.94233	422
2.94600	420
2.94967	421
2.95333	424
2.95700	423
2.96067	421
2.96433	424
2.96800	432
2.97167	438
2.97533	438
2.97900	427
2.98267	414
2.98633	405
2.99000	398
2.99367	395
2.99733	394
3.00100	395
3.00467	398
3.00833	399
3.01200	401
3.01567	404
3.01933	405
3.02300	402
3.02667	402
3.03033	399
3.03400	395
3.03767	396
3.04133	395
3.04500	397
3.04867	398
3.05233	396
3.05600	394
3.05967	392
3.06333	393
3.06700	400
3.07067	405
3.07433	403
3.07800	395
3.08167	387
3.08533	384
3.08900	384
3.09267	387
3.09633	395
3.10000	401
3.10367	402
3.10733	401
3.11100	401
3.11467	399
3.11833	395
3.12200	395
3.12567	396
3.12933	391
3.13300	385
3.13667	383
3.14033	377
3.14400	368
3.14767	359
3.15133	353
3.15500	349
3.15867	349
3.16233	350
3.16600	358
3.16967	367
3.17333	372
3.17700	375
3.18067	375
3.18433	370
3.18800	361
3.19167	353
3.19533	352
3.19900	353
3.20267	354
3.20633	350
3.21000	347
3.21367	346
3.21733	344
3.22100	343
3.22467	346
3.22833	345
3.23200	343
3.23567	341
3.23933	339
3.24300	338
3.24667	340
3.25033	341
3.25400	338
3.25767	333
3.26133	332
3.26500	336
3.26867	338
3.27233	339
3.27600	344
3.27967	351
3.28333	355
3.28700	353
3.29067	346
3.29433	335
3.29800	325
3.30167	321
3.30533	314
3.30900	308
3.31267	307
3.31633	307
3.32000	308
3.32367	312
3.32733	315
3.33100	320
3.33467	328
3.33833	335
3.34200	337
3.34567	331
3.34933	323
3.35300	313
3.35667	300
3.36033	289
3.36400	283
3.36767	281
3.37133	278
3.37500	279
3.37867	286
3.38233	295
3.38600	304
3.38967	310
3.39333	311
3.39700	306
3.40067	303
3.40433	303
3.40800	305
3.41167	309
3.41533	310
3.41900	308
3.42267	302
3.42633	298
3.43000	295
3.43367	292
3.43733	288
3.44100	284
3.44467	281
3.44833	279
3.45200	279
3.45567	284
3.45933	287
3.46300	287
3.46667	292
3.47033	294
3.47400	287
3.47767	279
3.48133	278
3.48500	284
3.48867	289
3.49233	289
3.49600	286
3.49967	285
3.50333	286
3.50700	286
3.51067	285
3.51433	282
3.51800	280
3.52167	281
3.52533	284
3.52900	289
3.53267	293
3.53633	297
3.54000	296
3.54367	291
3.54733	282
3.55100	276
3.55467	275
3.55833	276
3.56200	274
3.56567	264
3.56933	256
3.57300	253
3.57667	248
3.58033	243
3.58400	244
3.58767	251
3.59133	257
3.59500	262
3.59867	268
3.60233	277
3.60600	281
3.60967	277
3.61333	271
3.61700	267
3.62067	261
3.62433	255
3.62800	251
3.63167	250
3.63533	249
3.63900	249
3.64267	250
3.64633	252
3.65000	254
3.65367	254
3.65733	253
3.66100	253
3.66467	255
3.66833	257
3.67200	259
3.67567	262
3.67933	262
3.68300	256
3.68667	250
3.69033	246
3.69400	242
3.69767	238
3.70133	236
3.70500	234
3.70867	236
3.71233	243
3.71600	252
3.71967	258
3.72333	259
3.72700	256
3.73067	250
3.73433	245
3.73800	240
3.74167	235
3.74533	234
3.74900	232
3.75267	228
3.75633	223
3.76000	221
3.76367	220
3.76733	222
3.77100	222
3.77467	212
3.77833	197
3.78200	187
3.78567	183
3.78933	184
3.79300	184
3.79667	181
3.80033	181
3.80400	188
3.80767	195
3.81133	198
3.81500	200
3.81867	206
3.82233	213
3.82600	219
3.82967	221
3.83333	221
3.83700	219
3.84067	218
3.84433	218
3.84800	213
3.85167	208
3.85533	207
3.85900	211
3.86267	214
3.86633	215
3.87000	215
3.87367	216
3.87733	216
3.88100	217
3.88467	216
3.88833	217
3.89200	219
3.89567	219
3.89933	214
3.90300	204
3.90667	193
3.91033	191
3.91400	193
3.91767	195
3.92133	197
3.92500	198
3.92867	199
3.93233	200
3.93600	200
3.93967	196
3.94333	189
3.94700	185
3.95067	185
3.95433	186
3.95800	184
3.96167	181
3.96533	180
3.96900	177
3.97267	174
3.97633	171
3.98000	167
3.98367	168
3.98733	174
3.99100	183
3.99467	189
3.99833	192

[Chromatogram (Ch2)]
Interval(msec)	220
# of Points	1091
Start Time(min)	0.002
End Time(min)	3.998
R.Time (min)	Intensity
0.00167	1
0.00533	1
0.00900	1
0.01267	1
0.01633	1
0.02000	1
0.02367	0
0.02733	-0
0.03100	-0
0.03467	-1
0.03833	-1
0.04200	-1
0.04567	-1
0.04933	-2
0.05300	-2
0.05667	-2
0.06033	-2
0.06400	-2
0.06767	-2
0.07133	-2
0.07500	-2
0.07867	-2
0.08233	-2
0.08600	-2
0.08967	-1
0.09333	-1
0.09700	-1
0.10067	-1
0.10433	-1
0.10800	-1
0.11167	-0
0.11533	-0
0.11900	0
0.12267	0
0.12633	0
0.13000	1
0.13367	1
0.13733	1
0.14100	1
0.14467	1
0.14833	1
0.15200	1
0.15567	1
0.15933	1
0.16300	0
0.16667	0
0.17033	-0
0.17400	-1
0.17767	-1
0.18133	-1
0.18500	-1
0.18867	-1
0.19233	-1
0.19600	-1
0.19967	-1
0.20333	-1
0.20700	-1
0.21067	-1
0.21433	-1
0.21800	-1
0.22167	-1
0.22533	-1
0.22900	-1
0.23267	-1
0.23633	-1
0.24000	-1
0.24367	-2
0.24733	-2
0.25100	-2
0.25467	-2
0.25833	-2
0.26200	-2
0.26567	-1
0.26933	-1
0.27300	-1
0.27667	-2
0.28033	-2
0.28400	-2
0.28767	-1
0.29133	-1
0.29500	-1
0.29867	-0
0.30233	-0
0.30600	-0
0.30967	-0
0.31333	-0
0.31700	-0
0.32067	0
0.32433	0
0.32800	1
0.33167	1
0.33533	1
0.33900	2
0.34267	2
0.34633	2
0.35000	1
0.35367	1
0.35733	1
0.36100	1
0.36467	1
0.36833	1
0.37200	1
0.37567	1
0.37933	1
0.38300	1
0.38667	2
0.39033	2
0.39400	2
0.39767	1
0.40133	1
0.40500	1
0.40867	1
0.41233	0
0.41600	0
0.41967	-0
0.42333	-0
0.42700	-0
0.43067	-0
0.43433	-1
0.43800	-1
0.44167	-1
0.44533	-1
0.44900	-1
0.45267	-1
0.45633	-0
0.46000	-0
0.46367	-1
0.46733	-1
0.47100	-1
0.47467	-1
0.47833	-1
0.48200	-2
0.48567	-2
0.48933	-2
0.49300	-3
0.49667	-3
0.50033	-3
0.50400	-3
0.50767	-3
0.51133	-3
0.51500	-3
0.51867	-3
0.52233	-3
0.52600	-3
0.52967	-2
0.53333	-2
0.53700	-2
0.54067	-1
0.54433	-1
0.54800	-1
0.55167	-0
0.55533	-0
0.55900	-0
0.56267	-0
0.56633	-1
0.57000	-1
0.57367	-1
0.57733	-1
0.58100	-1
0.58467	-1
0.58833	-1
0.59200	-1
0.59567	-1
0.59933	-1
0.60300	-1
0.60667	-1
0.61033	-2
0.61400	-2
0.61767	-2
0.62133	-3
0.62500	-3
0.62867	-3
0.63233	-4
0.63600	-4
0.63967	-4
0.64333	-4
0.64700	-4
0.65067	-3
0.65433	-3
0.65800	-3
0.66167	-2
0.66533	-2
0.66900	-2
0.67267	-2
0.67633	-2
0.68000	-1
0.68367	-1
0.68733	-1
0.69100	-1
0.69467	-1
0.69833	-0
0.70200	-0
0.70567	-1
0.70933	-1
0.71300	-1
0.71667	-1
0.72033	-1
0.72400	-1
0.72767	-1
0.73133	-0
0.73500	-0
0.73867	0
0.74233	0
0.74600	1
0.74967	1
0.75333	1
0.75700	0
0.76067	-0
0.76433	-1
0.76800	-1
0.77167	-1
0.77533	-1
0.77900	-1
0.78267	-1
0.78633	-1
0.79000	-1
0.79367	-1
0.79733	-1
0.80100	-1
0.80467	-1
0.80833	-0
0.81200	-0
0.81567	0
0.81933	0
0.82300	1
0.82667	1
0.83033	1
0.83400	1
0.83767	1
0.84133	1
0.84500	1
0.84867	1
0.85233	1
0.85600	1
0.85967	1
0.86333	1
0.86700	2
0.87067	2
0.87433	2
0.87800	2
0.88167	2
0.88533	2
0.88900	2
0.89267	2
0.89633	2
0.90000	1
0.90367	1
0.90733	1
0.91100	1
0.91467	1
0.91833	0
0.92200	0
0.92567	-0
0.92933	-1
0.93300	-1
0.93667	-1
0.94033	-1
0.94400	-2
0.94767	-2
0.95133	-2
0.95500	-2
0.95867	-2
0.96233	-2
0.96600	-2
0.96967	-2
0.97333	-2
0.97700	-2
0.98067	-2
0.98433	-2
0.98800	-2
0.99167	-2
0.99533	-2
0.99900	-2
1.00267	-2
1.00633	-3
1.01000	-3
1.01367	-4
1.01733	-4
1.02100	-4
1.02467	-5
1.02833	-5
1.03200	-5
1.03567	-5
1.03933	-5
1.04300	-5
1.04667	-5
1.05033	-5
1.05400	-4
1.05767	-4
1.06133	-4
1.06500	-3
1.06867	-3
1.07233	-2
1.07600	-2
1.07967	-2
1.08333	-2
1.08700	-2
1.09067	-2
1.09433	-1
1.09800	-1
1.10167	-1
1.10533	-1
1.10900	-1
1.11267	-0
1.11633	-0
1.12000	0
1.12367	0
1.12733	0
1.13100	1
1.13467	0
1.13833	0
1.14200	0
1.14567	0
1.14933	-0
1.15300	-0
1.15667	-1
1.16033	-1
1.16400	-2
1.16767	-2
1.17133	-2
1.17500	-2
1.17867	-3
1.18233	-3
1.18600	-3
1.18967	-3
1.19333	-2
1.19700	-2
1.20067	-2
1.20433	-2
1.20800	-1
1.21167	-1
1.21533	-1
1.21900	-1
1.22267	-1
1.22633	-2
1.23000	-2
1.23367	-2
1.23733	-2
1.24100	-2
1.24467	-2
1.24833	-2
1.25200	-2
1.25567	-2
1.25933	-1
1.26300	-1
1.26667	-1
1.27033	-1
1.27400	-1
1.27767	-1
1.28133	-1
1.28500	-0
1.28867	-0
1.29233	-0
1.29600	-0
1.29967	-0
1.30333	-0
1.30700	-0
1.31067	-0
1.31433	-0
1.31800	-0
1.32167	-0
1.32533	-0
1.32900	-0
1.33267	-0
1.33633	-0
1.34000	-1
1.34367	-1
1.34733	-1
1.35100	-1
1.35467	-1
1.35833	-1
1.36200	-1
1.36567	-2
1.36933	-2
1.37300	-2
1.37667	-2
1.38033	-2
1.38400	-2
1.38767	-2
1.39133	-2
1.39500	-2
1.39867	-2
1.40233	-2
1.40600	-2
1.40967	-2
1.41333	-2
1.41700	-2
1.42067	-2
1.42433	-3
1.42800	-3
1.43167	-3
1.43533	-4
1.43900	-4
1.44267	-4
1.44633	-5
1.45000	-5
1.45367	-6
1.45733	-6
1.46100	-6
1.46467	-6
1.46833	-5
1.47200	-5
1.47567	-4
1.47933	-4
1.48300	-4
1.48667	-3
1.49033	-3
1.49400	-3
1.49767	-2
1.50133	-2
1.50500	-2
1.50867	-2
1.51233	-2
1.51600	-2
1.51967	-2
1.52333	-2
1.52700	-2
1.53067	-2
1.53433	-2
1.53800	-1
1.54167	-2
1.54533	-2
1.54900	-2
1.55267	-2
1.55633	-2
1.56000	-2
1.56367	-2
1.56733	-2
1.57100	-2
1.57467	-2
1.57833	-2
1.58200	-2
1.58567	-2
1.58933	-3
1.59300	-3
1.59667	-4
1.60033	-5
1.60400	-6
1.60767	-8
1.61133	-10
1.61500	-12
1.61867	-14
1.62233	-16
1.62600	-19
1.62967	-22
1.63333	-26
1.63700	-29
1.64067	-33
1.64433	-36
1.64800	-40
1.65167	-44
1.65533	-47
1.65900	-51
1.66267	-55
1.66633	-59
1.67000	-64
1.67367	-68
1.67733	-73
1.68100	-78
1.68467	-83
1.68833	-87
1.69200	-91
1.69567	-94
1.69933	-97
1.70300	-99
1.70667	-101
1.71033	-103
1.71400	-104
1.71767	-105
1.72133	-106
1.72500	-107
1.72867	-107
1.73233	-106
1.73600	-106
1.73967	-106
1.74333	-106
1.74700	-106
1.75067	-106
1.75433	-107
1.75800	-107
1.76167	-108
1.76533	-109
1.76900	-110
1.77267	-111
1.77633	-112
1.78000	-113
1.78367	-113
1.78733	-114
1.79100	-114
1.79467	-114
1.79833	-114
1.80200	-114
1.80567	-114
1.80933	-114
1.81300	-114
1.81667	-114
1.82033	-115
1.82400	-115
1.82767	-115
1.83133	-115
1.83500	-116
1.83867	-116
1.84233	-116
1.84600	-116
1.84967	-115
1.85333	-114
1.85700	-113
1.86067	-112
1.86433	-111
1.86800	-111
1.87167	-111
1.87533	-111
1.87900	-111
1.88267	-111
1.88633	-111
1.89000	-111
1.89367	-111
1.89733	-111
1.90100	-111
1.90467	-110
1.90833	-110
1.91200	-110
1.91567	-110
1.91933	-110
1.92300	-110
1.92667	-111
1.93033	-111
1.93400	-111
1.93767	-111
1.94133	-111
1.94500	-111
1.94867	-112
1.95233	-112
1.95600	-112
1.95967	-112
1.96333	-112
1.96700	-111
1.97067	-111
1.97433	-110
1.97800	-110
1.98167	-110
1.98533	-110
1.98900	-110
1.99267	-109
1.99633	-109
2.00000	-109
2.00367	-108
2.00733	-108
2.01100	-107
2.01467	-106
2.01833	-105
2.02200	-105
2.02567	-104
2.02933	-104
2.03300	-104
2.03667	-103
2.04033	-103
2.04400	-103
2.04767	-102
2.05133	-102
2.05500	-102
2.05867	-101
2.06233	-101
2.06600	-101
2.06967	-100
2.07333	-100
2.07700	-100
2.08067	-100
2.08433	-100
2.08800	-100
2.09167	-100
2.09533	-100
2.09900	-100
2.10267	-99
2.10633	-99
2.11000	-99
2.11367	-98
2.11733	-98
2.12100	-97
2.12467	-97
2.12833	-97
2.13200	-97
2.13567	-97
2.13933	-97
2.14300	-97
2.14667	-96
2.15033	-96
2.15400	-96
2.15767	-95
2.16133	-94
2.16500	-94
2.16867	-94
2.17233	-94
2.17600	-93
2.17967	-93
2.18333	-92
2.18700	-92
2.19067	-91
2.19433	-91
2.19800	-91
2.20167	-90
2.20533	-90
2.20900	-90
2.21267	-89
2.21633	-89
2.22000	-88
2.22367	-88
2.22733	-88
2.23100	-88
2.23467	-88
2.23833	-87
2.24200	-87
2.24567	-87
2.24933	-86
2.25300	-86
2.25667	-86
2.26033	-86
2.26400	-85
2.26767	-85
2.27133	-85
2.27500	-85
2.27867	-84
2.28233	-84
2.28600	-83
2.28967	-83
2.29333	-82
2.29700	-82
2.30067	-82
2.30433	-82
2.30800	-82
2.31167	-82
2.31533	-82
2.31900	-81
2.32267	-81
2.32633	-81
2.33000	-81
2.33367	-82
2.33733	-83
2.34100	-83
2.34467	-84
2.34833	-83
2.35200	-83
2.35567	-81
2.35933	-80
2.36300	-78
2.36667	-75
2.37033	-72
2.37400	-69
2.37767	-65
2.38133	-61
2.38500	-56
2.38867	-51
2.39233	-47
2.39600	-42
2.39967	-37
2.40333	-32
2.40700	-28
2.41067	-24
2.41433	-21
2.41800	-18
2.42167	-15
2.42533	-13
2.42900	-12
2.43267	-11
2.43633	-10
2.44000	-10
2.44367	-10
2.44733	-10
2.45100	-10
2.45467	-10
2.45833	-9
2.46200	-8
2.46567	-6
2.46933	-5
2.47300	-3
2.47667	-2
2.48033	-1
2.48400	-0
2.48767	1
2.49133	1
2.49500	2
2.49867	3
2.50233	4
2.50600	6
2.50967	7
2.51333	8
2.51700	9
2.52067	11
2.52433	12
2.52800	12
2.53167	12
2.53533	12
2.53900	12
2.54267	12
2.54633	12
2.55000	13
2.55367	13
2.55733	13
2.56100	14
2.56467	14
2.56833	15
2.57200	15
2.57567	15
2.57933	16
2.58300	16
2.58667	16
2.59033	17
2.59400	17
2.59767	17
2.60133	17
2.60500	17
2.60867	17
2.61233	16
2.61600	15
2.61967	15
2.62333	14
2.62700	14
2.63067	14
2.63433	14
2.63800	14
2.64167	15
2.64533	15
2.64900	16
2.65267	17
2.65633	17
2.66000	18
2.66367	19
2.66733	19
2.67100	19
2.67467	19
2.67833	20
2.68200	19
2.68567	19
2.68933	20
2.69300	20
2.69667	20
2.70033	20
2.70400	21
2.70767	21
2.71133	22
2.71500	22
2.71867	23
2.72233	23
2.72600	24
2.72967	25
2.73333	25
2.73700	25
2.74067	24
2.74433	24
2.74800	24
2.75167	24
2.75533	23
2.75900	23
2.76267	23
2.76633	24
2.77000	24
2.77367	25
2.77733	26
2.78100	26
2.78467	26
2.78833	27
2.79200	27
2.79567	27
2.79933	27
2.80300	27
2.80667	27
2.81033	27
2.81400	26
2.81767	26
2.82133	26
2.82500	26
2.82867	25
2.83233	25
2.83600	25
2.83967	24
2.84333	22
2.84700	18
2.85067	12
2.85433	4
2.85800	-8
2.86167	-23
2.86533	-43
2.86900	-67
2.87267	-96
2.87633	-129
2.88000	-167
2.88367	-208
2.88733	-253
2.89100	-300
2.89467	-350
2.89833	-403
2.90200	-457
2.90567	-512
2.90933	-567
2.91300	-623
2.91667	-678
2.92033	-733
2.92400	-786
2.92767	-838
2.93133	-891
2.93500	-947
2.93867	-1006
2.94233	-1059
2.94600	-1094
2.94967	-1104
2.95333	-1088
2.95700	-1048
2.96067	-991
2.96433	-920
2.96800	-842
2.97167	-761
2.97533	-681
2.97900	-604
2.98267	-532
2.98633	-465
2.99000	-404
2.99367	-350
2.99733	-301
3.00100	-258
3.00467	-221
3.00833	-188
3.01200	-160
3.01567	-135
3.01933	-114
3.02300	-95
3.02667	-79
3.03033	-65
3.03400	-54
3.03767	-44
3.04133	-35
3.04500	-28
3.04867	-22
3.05233	-16
3.05600	-12
3.05967	-8
3.06333	-4
3.06700	-2
3.07067	1
3.07433	3
3.07800	5
3.08167	6
3.08533	8
3.08900	9
3.09267	10
3.09633	10
3.10000	11
3.10367	11
3.10733	12
3.11100	13
3.11467	13
3.11833	14
3.12200	14
3.12567	15
3.12933	15
3.13300	15
3.13667	16
3.14033	16
3.14400	16
3.14767	17
3.15133	17
3.15500	17
3.15867	17
3.16233	18
3.16600	18
3.16967	18
3.17333	19
3.17700	19
3.18067	19
3.18433	19
3.18800	20
3.19167	20
3.19533	20
3.19900	21
3.20267	21
3.20633	21
3.21000	21
3.21367	21
3.21733	21
3.22100	21
3.22467	21
3.22833	20
3.23200	20
3.23567	20
3.23933	19
3.24300	19
3.24667	19
3.25033	19
3.25400	20
3.25767	20
3.26133	20
3.26500	20
3.26867	21
3.27233	21
3.27600	21
3.27967	22
3.28333	22
3.28700	22
3.29067	23
3.29433	23
3.29800	23
3.30167	23
3.30533	23
3.30900	23
3.31267	23
3.31633	23
3.32000	23
3.32367	23
3.32733	23
3.33100	23
3.33467	23
3.33833	23
3.34200	23
3.34567	22
3.34933	22
3.35300	22
3.35667	22
3.36033	22
3.36400	22
3.36767	22
3.37133	23
3.37500	23
3.37867	23
3.38233	24
3.38600	24
3.38967	24
3.39333	25
3.39700	25
3.40067	25
3.40433	25
3.40800	25
3.41167	26
3.41533	26
3.41900	26
3.42267	26
3.42633	26
3.43000	26
3.43367	26
3.43733	25
3.44100	25
3.44467	25
3.44833	25
3.45200	25
3.45567	26
3.45933	26
3.46300	26
3.46667	26
3.47033	26
3.47400	26
3.47767	27
3.48133	27
3.48500	27
3.48867	27
3.49233	27
3.49600	27
3.49967	28
3.50333	28
3.50700	28
3.51067	28
3.51433	28
3.51800	28
3.52167	27
3.52533	27
3.52900	27
3.53267	27
3.53633	27
3.54000	26
3.54367	26
3.54733	26
3.55100	27
3.55467	27
3.55833	27
3.56200	27
3.56567	27
3.56933	27
3.57300	27
3.57667	27
3.58033	27
3.58400	27
3.58767	27
3.59133	27
3.59500	27
3.59867	27
3.60233	26
3.60600	26
3.60967	26
3.61333	26
3.61700	26
3.62067	26
3.62433	26
3.62800	26
3.63167	25
3.63533	25
3.63900	25
3.64267	25
3.64633	25
3.65000	25
3.65367	25
3.65733	25
3.66100	25
3.66467	24
3.66833	24
3.67200	24
3.67567	24
3.67933	24
3.68300	24
3.68667	24
3.69033	24
3.69400	24
3.69767	24
3.70133	24
3.70500	24
3.70867	25
3.71233	25
3.71600	25
3.71967	25
3.72333	25
3.72700	25
3.73067	26
3.73433	26
3.73800	26
3.74167	26
3.74533	26
3.74900	26
3.75267	26
3.75633	26
3.76000	26
3.76367	26
3.76733	26
3.77100	26
3.77467	26
3.77833	26
3.78200	26
3.78567	26
3.78933	26
3.79300	26
3.79667	26
3.80033	26
3.80400	26
3.80767	26
3.81133	26
3.81500	26
3.81867	26
3.82233	26
3.82600	26
3.82967	26
3.83333	26
3.83700	26
3.84067	26
3.84433	26
3.84800	26
3.85167	26
3.85533	26
3.85900	26
3.86267	26
3.86633	26
3.87000	26
3.87367	26
3.87733	25
3.88100	25
3.88467	25
3.88833	26
3.89200	26
3.89567	26
3.89933	26
3.90300	27
3.90667	27
3.91033	26
3.91400	26
3.91767	26
3.92133	27
3.92500	27
3.92867	27
3.93233	27
3.93600	27
3.93967	26
3.94333	26
3.94700	26
3.95067	26
3.95433	26
3.95800	26
3.96167	26
3.96533	26
3.96900	26
3.97267	26
3.97633	26
3.98000	26
3.98367	26
3.98733	26
3.99100	26
3.99467	26
3.99833	26

[Chromatogram (Ch3)]
Interval(msec)	220
# of Points	1091
Start Time(min)	0.002
End Time(min)	3.998
R.Time (min)	Intensity
0.00167	-0
0.00533	1
0.00900	3
0.01267	3
0.01633	2
0.02000	1
0.02367	-1
0.02733	-4
0.03100	-5
0.03467	-4
0.03833	-4
0.04200	-2
0.04567	-2
0.04933	-2
0.05300	-2
0.05667	-2
0.06033	-3
0.06400	-5
0.06767	-5
0.07133	-3
0.07500	-2
0.07867	-2
0.08233	-1
0.08600	-1
0.08967	-1
0.09333	0
0.09700	0
0.10067	0
0.10433	0
0.10800	1
0.11167	4
0.11533	6
0.11900	8
0.12267	7
0.12633	7
0.13000	9
0.13367	8
0.13733	6
0.14100	7
0.14467	10
0.14833	12
0.15200	11
0.15567	9
0.15933	8
0.16300	7
0.16667	7
0.17033	8
0.17400	9
0.17767	8
0.18133	9
0.18500	8
0.18867	6
0.19233	6
0.19600	6
0.19967	5
0.20333	4
0.20700	3
0.21067	2
0.21433	3
0.21800	2
0.22167	2
0.22533	3
0.22900	2
0.23267	2
0.23633	2
0.24000	3
0.24367	4
0.24733	5
0.25100	6
0.25467	4
0.25833	1
0.26200	-1
0.26567	1
0.26933	3
0.27300	2
0.27667	2
0.28033	2
0.28400	2
0.28767	4
0.29133	4
0.29500	4
0.29867	4
0.30233	3
0.30600	4
0.30967	4
0.31333	4
0.31700	2
0.32067	0
0.32433	1
0.32800	2
0.33167	3
0.33533	5
0.33900	6
0.34267	7
0.34633	6
0.35000	7
0.35367	5
0.35733	3
0.36100	1
0.36467	1
0.36833	2
0.37200	2
0.37567	2
0.37933	1
0.38300	3
0.38667	5
0.39033	5
0.39400	4
0.39767	4
0.40133	3
0.40500	3
0.40867	3
0.41233	1
0.41600	1
0.41967	1
0.42333	3
0.42700	4
0.43067	3
0.43433	2
0.43800	2
0.44167	2
0.44533	0
0.44900	-1
0.45267	-1
0.45633	0
0.46000	2
0.46367	3
0.46733	1
0.47100	-3
0.47467	-8
0.47833	-8
0.48200	-6
0.48567	-7
0.48933	-7
0.49300	-6
0.49667	-6
0.50033	-4
0.50400	-1
0.50767	1
0.51133	1
0.51500	1
0.51867	0
0.52233	0
0.52600	-0
0.52967	0
0.53333	-1
0.53700	-2
0.54067	-4
0.54433	-5
0.54800	-2
0.55167	-1
0.55533	-1
0.55900	-3
0.56267	-5
0.56633	-4
0.57000	-4
0.57367	-2
0.57733	-1
0.58100	-2
0.58467	-2
0.58833	-1
0.59200	-1
0.59567	-1
0.59933	-3
0.60300	-3
0.60667	-3
0.61033	-4
0.61400	-2
0.61767	-1
0.62133	-0
0.62500	0
0.62867	-1
0.63233	-2
0.63600	-1
0.63967	0
0.64333	2
0.64700	1
0.65067	2
0.65433	2
0.65800	3
0.66167	3
0.66533	4
0.66900	5
0.67267	4
0.67633	4
0.68000	4
0.68367	5
0.68733	3
0.69100	1
0.69467	-1
0.69833	0
0.70200	1
0.70567	0
0.70933	-1
0.71300	-1
0.71667	-1
0.72033	-1
0.72400	-2
0.72767	-1
0.73133	-1
0.73500	0
0.73867	2
0.74233	1
0.74600	-1
0.74967	-1
0.75333	-1
0.75700	-1
0.76067	-1
0.76433	0
0.76800	-1
0.77167	-3
0.77533	-5
0.77900	-5
0.78267	-5
0.78633	-4
0.79000	-5
0.79367	-5
0.79733	-2
0.80100	2
0.80467	4
0.80833	3
0.81200	2
0.81567	3
0.81933	3
0.82300	5
0.82667	6
0.83033	5
0.83400	6
0.83767	6
0.84133	5
0.84500	4
0.84867	4
0.85233	4
0.85600	5
0.85967	6
0.86333	6
0.86700	5
0.87067	4
0.87433	4
0.87800	5
0.88167	4
0.88533	4
0.88900	4
0.89267	5
0.89633	4
0.90000	3
0.90367	2
0.90733	4
0.91100	5
0.91467	4
0.91833	1
0.92200	-0
0.92567	1
0.92933	2
0.93300	5
0.93667	8
0.94033	9
0.94400	11
0.94767	9
0.95133	7
0.95500	4
0.95867	2
0.96233	2
0.96600	4
0.96967	5
0.97333	5
0.97700	5
0.98067	7
0.98433	10
0.98800	10
0.99167	8
0.99533	6
0.99900	5
1.00267	4
1.00633	2
1.01000	3
1.01367	3
1.01733	2
1.02100	2
1.02467	3
1.02833	5
1.03200	6
1.03567	5
1.03933	5
1.04300	6
1.04667	7
1.05033	7
1.05400	5
1.05767	5
1.06133	5
1.06500	6
1.06867	6
1.07233	6
1.07600	7
1.07967	8
1.08333	8
1.08700	8
1.09067	10
1.09433	11
1.09800	11
1.10167	10
1.10533	13
1.10900	13
1.11267	13
1.11633	12
1.12000	13
1.12367	12
1.12733	11
1.13100	9
1.13467	8
1.13833	9
1.14200	6
1.14567	5
1.14933	3
1.15300	2
1.15667	2
1.16033	2
1.16400	4
1.16767	4
1.17133	4
1.17500	4
1.17867	5
1.18233	6
1.18600	9
1.18967	9
1.19333	10
1.19700	10
1.20067	9
1.20433	7
1.20800	7
1.21167	9
1.21533	9
1.21900	7
1.22267	5
1.22633	4
1.23000	7
1.23367	10
1.23733	12
1.24100	12
1.24467	12
1.24833	10
1.25200	9
1.25567	9
1.25933	11
1.26300	13
1.26667	15
1.27033	14
1.27400	12
1.27767	10
1.28133	8
1.28500	9
1.28867	11
1.29233	14
1.29600	16
1.29967	17
1.30333	16
1.30700	17
1.31067	16
1.31433	14
1.31800	13
1.32167	13
1.32533	12
1.32900	13
1.33267	15
1.33633	17
1.34000	15
1.34367	16
1.34733	16
1.35100	15
1.35467	16
1.35833	17
1.36200	17
1.36567	16
1.36933	16
1.37300	15
1.37667	14
1.38033	13
1.38400	14
1.38767	13
1.39133	11
1.39500	10
1.39867	10
1.40233	12
1.40600	11
1.40967	12
1.41333	13
1.41700	13
1.42067	12
1.42433	11
1.42800	12
1.43167	12
1.43533	13
1.43900	15
1.44267	16
1.44633	17
1.45000	18
1.45367	17
1.45733	17
1.46100	16
1.46467	15
1.46833	14
1.47200	14
1.47567	13
1.47933	14
1.48300	15
1.48667	16
1.49033	15
1.49400	16
1.49767	16
1.50133	17
1.50500	17
1.50867	16
1.51233	15
1.51600	15
1.51967	15
1.52333	16
1.52700	15
1.53067	14
1.53433	14
1.53800	14
1.54167	14
1.54533	18
1.54900	19
1.55267	20
1.55633	19
1.56000	16
1.56367	13
1.56733	10
1.57100	12
1.57467	14
1.57833	14
1.58200	16
1.58567	18
1.58933	20
1.59300	20
1.59667	18
1.60033	17
1.60400	17
1.60767	17
1.61133	18
1.61500	20
1.61867	22
1.62233	19
1.62600	18
1.62967	19
1.63333	19
1.63700	18
1.64067	18
1.64433	19
1.64800	23
1.65167	25
1.65533	24
1.65900	20
1.66267	19
1.66633	21
1.67000	23
1.67367	24
1.67733	26
1.68100	27
1.68467	28
1.68833	29
1.69200	31
1.69567	32
1.69933	30
1.70300	30
1.70667	30
1.71033	28
1.71400	28
1.71767	29
1.72133	30
1.72500	30
1.72867	30
1.73233	32
1.73600	34
1.73967	34
1.74333	32
1.74700	30
1.75067	29
1.75433	30
1.75800	31
1.76167	33
1.76533	33
1.76900	33
1.77267	33
1.77633	33
1.78000	33
1.78367	33
1.78733	34
1.79100	36
1.79467	38
1.79833	40
1.80200	39
1.80567	37
1.80933	38
1.81300	39
1.81667	41
1.82033	41
1.82400	42
1.82767	42
1.83133	43
1.83500	45
1.83867	48
1.84233	50
1.84600	48
1.84967	49
1.85333	48
1.85700	47
1.86067	47
1.86433	49
1.86800	49
1.87167	50
1.87533	54
1.87900	55
1.88267	55
1.88633	56
1.89000	55
1.89367	54
1.89733	55
1.90100	55
1.90467	55
1.90833	56
1.91200	57
1.91567	59
1.91933	59
1.92300	59
1.92667	59
1.93033	62
1.93400	64
1.93767	67
1.94133	67
1.94500	67
1.94867	66
1.95233	68
1.95600	69
1.95967	67
1.96333	65
1.96700	64
1.97067	65
1.97433	66
1.97800	68
1.98167	70
1.98533	70
1.98900	70
1.99267	71
1.99633	71
2.00000	72
2.00367	74
2.00733	75
2.01100	74
2.01467	74
2.01833	75
2.02200	77
2.02567	78
2.02933	81
2.03300	84
2.03667	88
2.04033	89
2.04400	90
2.04767	89
2.05133	86
2.05500	85
2.05867	85
2.06233	85
2.06600	88
2.06967	93
2.07333	97
2.07700	99
2.08067	101
2.08433	103
2.08800	107
2.09167	109
2.09533	110
2.09900	111
2.10267	113
2.10633	116
2.11000	115
2.11367	113
2.11733	112
2.12100	112
2.12467	113
2.12833	114
2.13200	115
2.13567	116
2.13933	116
2.14300	116
2.14667	119
2.15033	121
2.15400	121
2.15767	122
2.16133	123
2.16500	125
2.16867	130
2.17233	133
2.17600	136
2.17967	139
2.18333	142
2.18700	144
2.19067	142
2.19433	142
2.19800	144
2.20167	147
2.20533	148
2.20900	149
2.21267	149
2.21633	150
2.22000	152
2.22367	152
2.22733	152
2.23100	154
2.23467	158
2.23833	162
2.24200	165
2.24567	167
2.24933	168
2.25300	168
2.25667	169
2.26033	172
2.26400	173
2.26767	175
2.27133	176
2.27500	177
2.27867	178
2.28233	181
2.28600	184
2.28967	185
2.29333	188
2.29700	190
2.30067	192
2.30433	195
2.30800	197
2.31167	199
2.31533	201
2.31900	202
2.32267	204
2.32633	206
2.33000	208
2.33367	207
2.33733	209
2.34100	211
2.34467	212
2.34833	214
2.35200	217
2.35567	219
2.35933	220
2.36300	221
2.36667	223
2.37033	225
2.37400	226
2.37767	229
2.38133	231
2.38500	233
2.38867	232
2.39233	235
2.39600	239
2.39967	242
2.40333	246
2.40700	249
2.41067	252
2.41433	255
2.41800	256
2.42167	258
2.42533	260
2.42900	262
2.43267	265
2.43633	266
2.44000	270
2.44367	328
2.44733	479
2.45100	642
2.45467	774
2.45833	850
2.46200	857
2.46567	816
2.46933	762
2.47300	717
2.47667	689
2.48033	669
2.48400	645
2.48767	608
2.49133	564
2.49500	519
2.49867	479
2.50233	451
2.50600	433
2.50967	424
2.51333	424
2.51700	430
2.52067	443
2.52433	463
2.52800	481
2.53167	494
2.53533	496
2.53900	485
2.54267	464
2.54633	437
2.55000	410
2.55367	382
2.55733	357
2.56100	337
2.56467	322
2.56833	310
2.57200	305
2.57567	301
2.57933	297
2.58300	293
2.58667	291
2.59033	290
2.59400	288
2.59767	286
2.60133	282
2.60500	275
2.60867	267
2.61233	257
2.61600	247
2.61967	239
2.62333	234
2.62700	228
2.63067	225
2.63433	223
2.63800	222
2.64167	223
2.64533	226
2.64900	229
2.65267	229
2.65633	227
2.66000	225
2.66367	220
2.66733	212
2.67100	202
2.67467	191
2.67833	181
2.68200	173
2.68567	165
2.68933	159
2.69300	153
2.69667	147
2.70033	142
2.70400	139
2.70767	137
2.71133	136
2.71500	134
2.71867	133
2.72233	133
2.72600	136
2.72967	140
2.73333	144
2.73700	147
2.74067	151
2.74433	155
2.74800	155
2.75167	157
2.75533	160
2.75900	162
2.76267	163
2.76633	163
2.77000	163
2.77367	164
2.77733	166
2.78100	167
2.78467	167
2.78833	169
2.79200	173
2.79567	177
2.79933	180
2.80300	182
2.80667	183
2.81033	185
2.81400	189
2.81767	193
2.82133	206
2.82500	233
2.82867	288
2.83233	394
2.83600	571
2.83967	841
2.84333	1217
2.84700	1698
2.85067	2262
2.85433	2876
2.85800	3497
2.86167	4073
2.86533	4555
2.86900	4909
2.87267	5118
2.87633	5176
2.88000	5100
2.88367	4911
2.88733	4635
2.89100	4307
2.89467	3952
2.89833	3590
2.90200	3235
2.90567	2900
2.90933	2589
2.91300	2303
2.91667	2045
2.92033	1816
2.92400	1610
2.92767	1426
2.93133	1265
2.93500	1125
2.93867	1003
2.94233	896
2.94600	805
2.94967	725
2.95333	656
2.95700	596
2.96067	544
2.96433	496
2.96800	452
2.97167	415
2.97533	384
2.97900	358
2.98267	335
2.98633	314
2.99000	296
2.99367	279
2.99733	263
3.00100	251
3.00467	239
3.00833	229
3.01200	221
3.01567	214
3.01933	207
3.02300	199
3.02667	193
3.03033	190
3.03400	186
3.03767	183
3.04133	179
3.04500	173
3.04867	167
3.05233	163
3.05600	161
3.05967	159
3.06333	158
3.06700	159
3.07067	159
3.07433	157
3.07800	155
3.08167	154
3.08533	154
3.08900	153
3.09267	153
3.09633	153
3.10000	149
3.10367	129
3.10733	106
3.11100	98
3.11467	101
3.11833	109
3.12200	127
3.12567	154
3.12933	188
3.13300	227
3.13667	268
3.14033	309
3.14400	352
3.14767	391
3.15133	425
3.15500	454
3.15867	478
3.16233	499
3.16600	517
3.16967	535
3.17333	550
3.17700	563
3.18067	573
3.18433	582
3.18800	592
3.19167	600
3.19533	606
3.19900	610
3.20267	613
3.20633	616
3.21000	619
3.21367	621
3.21733	623
3.22100	627
3.22467	632
3.22833	636
3.23200	640
3.23567	644
3.23933	647
3.24300	650
3.24667	653
3.25033	657
3.25400	663
3.25767	666
3.26133	668
3.26500	670
3.26867	675
3.27233	680
3.27600	684
3.27967	686
3.28333	692
3.28700	698
3.29067	703
3.29433	707
3.29800	714
3.30167	722
3.30533	728
3.30900	731
3.31267	734
3.31633	735
3.32000	740
3.32367	742
3.32733	743
3.33100	746
3.33467	751
3.33833	756
3.34200	760
3.34567	764
3.34933	767
3.35300	769
3.35667	773
3.36033	773
3.36400	772
3.36767	767
3.37133	766
3.37500	765
3.37867	763
3.38233	763
3.38600	763
3.38967	761
3.39333	760
3.39700	758
3.40067	756
3.40433	753
3.40800	753
3.41167	751
3.41533	748
3.41900	743
3.42267	739
3.42633	736
3.43000	734
3.43367	731
3.43733	727
3.44100	721
3.44467	718
3.44833	718
3.45200	718
3.45567	716
3.45933	712
3.46300	708
3.46667	705
3.47033	701
3.47400	698
3.47767	696
3.48133	693
3.48500	688
3.48867	684
3.49233	682
3.49600	680
3.49967	680
3.50333	679
3.50700	677
3.51067	676
3.51433	675
3.51800	673
3.52167	672
3.52533	672
3.52900	673
3.53267	671
3.53633	669
3.54000	668
3.54367	665
3.54733	663
3.55100	664
3.55467	664
3.55833	664
3.56200	665
3.56567	665
3.56933	664
3.57300	664
3.57667	664
3.58033	664
3.58400	662
3.58767	660
3.59133	661
3.59500	660
3.59867	658
3.60233	658
3.60600	659
3.60967	661
3.61333	663
3.61700	664
3.62067	663
3.62433	663
3.62800	665
3.63167	666
3.63533	667
3.63900	666
3.64267	666
3.64633	663
3.65000	660
3.65367	658
3.65733	659
3.66100	659
3.66467	659
3.66833	659
3.67200	657
3.67567	657
3.67933	657
3.68300	657
3.68667	659
3.69033	662
3.69400	662
3.69767	660
3.70133	657
3.70500	655
3.70867	655
3.71233	657
3.71600	657
3.71967	656
3.72333	655
3.72700	654
3.73067	652
3.73433	651
3.73800	652
3.74167	652
3.74533	652
3.74900	650
3.75267	650
3.75633	649
3.76000	649
3.76367	649
3.76733	646
3.77100	642
3.77467	639
3.77833	639
3.78200	638
3.78567	638
3.78933	639
3.79300	640
3.79667	639
3.80033	639
3.80400	639
3.80767	638
3.81133	637
3.81500	634
3.81867	633
3.82233	632
3.82600	632
3.82967	629
3.83333	627
3.83700	625
3.84067	624
3.84433	625
3.84800	625
3.85167	624
3.85533	624
3.85900	622
3.86267	618
3.86633	613
3.87000	608
3.87367	604
3.87733	601
3.88100	600
3.88467	598
3.88833	597
3.89200	596
3.89567	596
3.89933	596
3.90300	594
3.90667	591
3.91033	590
3.91400	590
3.91767	589
3.92133	587
3.92500	584
3.92867	582
3.93233	580
3.93600	579
3.93967	579
3.94333	576
3.94700	573
3.95067	570
3.95433	569
3.95800	567
3.96167	566
3.96533	565
3.96900	565
3.97267	563
3.97633	561
3.98000	562
3.98367	559
3.98733	558
3.99100	557
3.99467	557
3.99833	554

[Status Trace (Column Oven Temperature)]
Interval(msec)	1000
# of Points	240
Start Time(min)	0.002
End Time(min)	3.986
Intensity Units	
Intensity Multiplier	1
R.Time (min)	Intensity
0.00228	35.06
0.01895	35.06
0.03562	35.06
0.05228	35.06
0.06895	35.06
0.08562	35.06
0.10228	35.06
0.11895	35.06
0.13562	35.05
0.15228	35.04
0.16895	35.04
0.18562	35.04
0.20228	35.03
0.21895	35.03
0.23562	35.03
0.25228	35.04
0.26895	35.05
0.28562	35.04
0.30228	35.04
0.31895	35.01
0.33562	35.00
0.35228	35.00
0.36895	34.99
0.38562	34.98
0.40228	34.98
0.41895	34.99
0.43562	34.98
0.45228	34.97
0.46895	34.99
0.48562	35.00
0.50228	35.01
0.51895	35.00
0.53562	35.00
0.55228	34.99
0.56895	34.99
0.58562	34.99
0.60228	35.00
0.61895	35.01
0.63562	35.03
0.65228	35.03
0.66895	35.03
0.68562	35.03
0.70228	35.04
0.71895	35.04
0.73562	35.03
0.75228	35.03
0.76895	35.03
0.78562	35.04
0.80228	35.02
0.81895	35.00
0.83562	35.00
0.85228	34.99
0.86895	34.98
0.88562	34.97
0.90228	34.97
0.91895	34.97
0.93562	34.98
0.95228	34.98
0.96895	34.98
0.98562	34.99
1.00228	34.99
1.01895	35.01
1.03562	35.03
1.05228	35.03
1.06895	35.03
1.08562	35.03
1.10228	35.03
1.11895	35.02
1.13562	35.00
1.15228	35.01
1.16895	35.01
1.18562	35.02
1.20228	35.01
1.21895	35.01
1.23562	35.01
1.25228	35.01
1.26895	35.00
1.28562	34.98
1.30228	34.98
1.31895	34.98
1.33562	34.97
1.35228	34.97
1.36895	34.97
1.38562	34.98
1.40228	34.99
1.41895	35.00
1.43562	35.01
1.45228	35.01
1.46895	35.01
1.48562	35.01
1.50228	35.00
1.51895	35.00
1.53562	34.99
1.55228	34.99
1.56895	34.98
1.58562	35.00
1.60228	35.04
1.61895	35.14
1.63562	35.31
1.65228	35.54
1.66895	35.85
1.68562	36.22
1.70228	36.58
1.71895	36.92
1.73562	37.23
1.75228	37.57
1.76895	37.91
1.78562	38.23
1.80228	38.57
1.81895	38.91
1.83562	39.24
1.85228	39.56
1.86895	39.87
1.88562	40.22
1.90228	40.53
1.91895	40.86
1.93562	41.19
1.95228	41.53
1.96895	41.85
1.98562	42.18
2.00228	42.51
2.01895	42.82
2.03562	43.15
2.05228	43.47
2.06895	43.79
2.08562	44.13
2.10228	44.45
2.11895	44.77
2.13562	45.09
2.15228	45.44
2.16895	45.76
2.18562	46.09
2.20228	46.42
2.21895	46.74
2.23562	47.07
2.25228	47.39
2.26895	47.73
2.28562	48.06
2.30228	48.38
2.31895	48.70
2.33562	49.07
2.35228	49.38
2.36895	49.59
2.38562	49.65
2.40228	49.64
2.41895	49.64
2.43562	49.67
2.45228	49.69
2.46895	49.68
2.48562	49.70
2.50228	49.71
2.51895	49.70
2.53562	49.73
2.55228	49.75
2.56895	49.77
2.58562	49.77
2.60228	49.79
2.61895	49.82
2.63562	49.83
2.65228	49.83
2.66895	49.85
2.68562	49.87
2.70228	49.86
2.71895	49.84
2.73562	49.86
2.75228	49.87
2.76895	49.87
2.78562	49.85
2.80228	49.85
2.81895	49.87
2.83562	49.87
2.85228	49.86
2.86895	49.86
2.88562	49.88
2.90228	49.91
2.91895	49.92
2.93562	49.94
2.95228	49.93
2.96895	49.94
2.98562	49.95
3.00228	49.97
3.01895	49.98
3.03562	49.98
3.05228	49.98
3.06895	49.98
3.08562	49.99
3.10228	50.01
3.11895	50.02
3.13562	50.02
3.15228	50.03
3.16895	50.03
3.18562	50.04
3.20228	50.04
3.21895	50.05
3.23562	50.07
3.25228	50.08
3.26895	50.08
3.28562	50.08
3.30228	50.08
3.31895	50.09
3.33562	50.10
3.35228	50.11
3.36895	50.11
3.38562	50.10
3.40228	50.10
3.41895	50.09
3.43562	50.09
3.45228	50.09
3.46895	50.08
3.48562	50.07
3.50228	50.05
3.51895	50.05
3.53562	50.04
3.55228	50.04
3.56895	50.03
3.58562	50.03
3.60228	50.04
3.61895	50.05
3.63562	50.05
3.65228	50.07
3.66895	50.07
3.68562	50.07
3.70228	50.08
3.71895	50.08
3.73562	50.07
3.75228	50.07
3.76895	50.07
3.78562	50.06
3.80228	50.06
3.81895	50.05
3.83562	50.06
3.85228	50.05
3.86895	50.05
3.88562	50.05
3.90228	50.04
3.91895	50.03
3.93562	50.03
3.95228	50.03
3.96895	50.03
3.98562	50.03

[Status Trace (Injection Unit Temperature)]
Interval(msec)	1000
# of Points	240
Start Time(min)	0.002
End Time(min)	3.986
Intensity Units	
Intensity Multiplier	1
R.Time (min)	Intensity
0.00228	99.97
0.01895	99.98
0.03562	99.98
0.05228	99.98
0.06895	99.98
0.08562	99.98
0.10228	99.99
0.11895	99.98
0.13562	99.98
0.15228	99.98
0.16895	99.98
0.18562	99.98
0.20228	99.98
0.21895	99.98
0.23562	99.98
0.25228	99.99
0.26895	99.98
0.28562	99.99
0.30228	99.98
0.31895	99.98
0.33562	99.99
0.35228	99.98
0.36895	99.99
0.38562	99.99
0.40228	99.98
0.41895	99.98
0.43562	99.98
0.45228	99.98
0.46895	99.98
0.48562	99.98
0.50228	99.98
0.51895	99.98
0.53562	99.99
0.55228	99.98
0.56895	99.99
0.58562	99.99
0.60228	99.98
0.61895	99.98
0.63562	99.98
0.65228	99.99
0.66895	99.99
0.68562	99.98
0.70228	99.98
0.71895	99.99
0.73562	99.98
0.75228	99.98
0.76895	99.98
0.78562	99.98
0.80228	99.98
0.81895	99.97
0.83562	99.98
0.85228	99.99
0.86895	99.99
0.88562	99.98
0.90228	99.98
0.91895	99.99
0.93562	99.99
0.95228	99.99
0.96895	99.98
0.98562	99.98
1.00228	99.99
1.01895	99.98
1.03562	99.99
1.05228	99.99
1.06895	99.98
1.08562	99.98
1.10228	99.99
1.11895	99.99
1.13562	99.99
1.15228	99.99
1.16895	99.99
1.18562	99.99
1.20228	99.99
1.21895	99.99
1.23562	99.99
1.25228	99.99
1.26895	99.99
1.28562	99.99
1.30228	99.99
1.31895	99.99
1.33562	99.99
1.35228	99.99
1.36895	99.99
1.38562	99.99
1.40228	99.99
1.41895	99.98
1.43562	99.99
1.45228	99.99
1.46895	99.99
1.48562	99.99
1.50228	99.99
1.51895	99.99
1.53562	99.99
1.55228	99.99
1.56895	99.99
1.58562	99.99
1.60228	99.99
1.61895	99.99
1.63562	99.99
1.65228	99.99
1.66895	99.98
1.68562	99.99
1.70228	99.99
1.71895	99.99
1.73562	99.98
1.75228	99.99
1.76895	99.99
1.78562	99.99
1.80228	99.98
1.81895	99.99
1.83562	99.99
1.85228	99.98
1.86895	99.99
1.88562	99.98
1.90228	99.98
1.91895	99.98
1.93562	99.98
1.95228	99.98
1.96895	99.98
1.98562	99.97
2.00228	99.98
2.01895	99.97
2.03562	99.98
2.05228	99.97
2.06895	99.97
2.08562	99.97
2.10228	99.97
2.11895	99.97
2.13562	99.97
2.15228	99.97
2.16895	99.97
2.18562	99.97
2.20228	99.97
2.21895	99.97
2.23562	99.97
2.25228	99.96
2.26895	99.96
2.28562	99.96
2.30228	99.97
2.31895	99.96
2.33562	99.96
2.35228	99.96
2.36895	99.97
2.38562	99.97
2.40228	99.96
2.41895	99.97
2.43562	99.96
2.45228	99.97
2.46895	99.96
2.48562	99.97
2.50228	99.97
2.51895	99.96
2.53562	99.97
2.55228	99.97
2.56895	99.97
2.58562	99.97
2.60228	99.98
2.61895	99.97
2.63562	99.97
2.65228	99.98
2.66895	99.98
2.68562	99.97
2.70228	99.98
2.71895	99.98
2.73562	99.98
2.75228	99.98
2.76895	99.99
2.78562	99.99
2.80228	99.99
2.81895	99.99
2.83562	99.99
2.85228	100.00
2.86895	100.00
2.88562	100.00
2.90228	100.00
2.91895	100.00
2.93562	100.00
2.95228	100.00
2.96895	100.00
2.98562	100.01
3.00228	100.01
3.01895	100.01
3.03562	100.01
3.05228	100.01
3.06895	100.01
3.08562	100.01
3.10228	100.02
3.11895	100.02
3.13562	100.02
3.15228	100.02
3.16895	100.01
3.18562	100.02
3.20228	100.02
3.21895	100.02
3.23562	100.02
3.25228	100.03
3.26895	100.02
3.28562	100.03
3.30228	100.02
3.31895	100.03
3.33562	100.03
3.35228	100.03
3.36895	100.03
3.38562	100.03
3.40228	100.03
3.41895	100.03
3.43562	100.03
3.45228	100.03
3.46895	100.04
3.48562	100.03
3.50228	100.03
3.51895	100.04
3.53562	100.04
3.55228	100.04
3.56895	100.04
3.58562	100.04
3.60228	100.04
3.61895	100.04
3.63562	100.04
3.65228	100.04
3.66895	100.05
3.68562	100.05
3.70228	100.05
3.71895	100.05
3.73562	100.05
3.75228	100.05
3.76895	100.05
3.78562	100.05
3.80228	100.05
3.81895	100.05
3.83562	100.05
3.85228	100.05
3.86895	100.05
3.88562	100.05
3.90228	100.05
3.91895	100.06
3.93562	100.06
3.95228	100.06
3.96895	100.06
3.98562	100.06

[Status Trace (Carrier Gas Pressure)]
Interval(msec)	1000
# of Points	240
Start Time(min)	0.002
End Time(min)	3.986
Intensity Units	
Intensity Multiplier	1
R.Time (min)	Intensity
0.00228	58.00
0.01895	56.23
0.03562	56.27
0.05228	58.57
0.06895	59.85
0.08562	58.31
0.10228	57.97
0.11895	58.00
0.13562	58.01
0.15228	58.01
0.16895	58.00
0.18562	58.00
0.20228	58.00
0.21895	58.00
0.23562	58.00
0.25228	58.00
0.26895	58.00
0.28562	58.00
0.30228	58.00
0.31895	58.00
0.33562	58.00
0.35228	58.00
0.36895	58.00
0.38562	58.00
0.40228	58.00
0.41895	58.00
0.43562	58.00
0.45228	58.00
0.46895	58.00
0.48562	58.00
0.50228	58.00
0.51895	58.00
0.53562	58.00
0.55228	58.00
0.56895	58.00
0.58562	58.00
0.60228	58.00
0.61895	58.00
0.63562	58.00
0.65228	58.00
0.66895	58.00
0.68562	58.00
0.70228	58.00
0.71895	58.00
0.73562	58.00
0.75228	58.00
0.76895	58.00
0.78562	58.00
0.80228	58.00
0.81895	58.00
0.83562	58.00
0.85228	58.00
0.86895	58.00
0.88562	58.00
0.90228	58.00
0.91895	58.00
0.93562	58.00
0.95228	58.00
0.96895	58.00
0.98562	58.00
1.00228	58.00
1.01895	58.00
1.03562	58.00
1.05228	58.00
1.06895	58.00
1.08562	58.00
1.10228	58.00
1.11895	58.00
1.13562	58.00
1.15228	58.00
1.16895	58.00
1.18562	58.00
1.20228	58.00
1.21895	58.00
1.23562	58.00
1.25228	58.00
1.26895	58.00
1.28562	58.00
1.30228	58.00
1.31895	58.00
1.33562	58.00
1.35228	58.00
1.36895	58.00
1.38562	58.00
1.40228	58.00
1.41895	58.00
1.43562	58.00
1.45228	58.00
1.46895	58.00
1.48562	58.00
1.50228	58.00
1.51895	58.00
1.53562	58.00
1.55228	58.00
1.56895	58.00
1.58562	58.00
1.60228	58.00
1.61895	58.00
1.63562	58.01
1.65228	58.00
1.66895	58.01
1.68562	58.01
1.70228	58.00
1.71895	58.00
1.73562	58.00
1.75228	58.00
1.76895	58.00
1.78562	58.00
1.80228	58.00
1.81895	58.00
1.83562	58.00
1.85228	58.00
1.86895	58.00
1.88562	58.00
1.90228	58.00
1.91895	58.00
1.93562	58.00
1.95228	58.00
1.96895	58.00
1.98562	58.00
2.00228	58.00
2.01895	58.00
2.03562	58.00
2.05228	58.00
2.06895	58.00
2.08562	58.00
2.10228	58.00
2.11895	58.00
2.13562	58.00
2.15228	58.00
2.16895	58.00
2.18562	58.00
2.20228	58.00
2.21895	58.00
2.23562	58.00
2.25228	58.00
2.26895	58.00
2.28562	58.00
2.30228	58.00
2.31895	58.00
2.33562	58.00
2.35228	58.00
2.36895	58.00
2.38562	57.99
2.40228	57.99
2.41895	58.00
2.43562	58.00
2.45228	58.00
2.46895	58.00
2.48562	58.00
2.50228	57.98
2.51895	58.02
2.53562	58.00
2.55228	58.00
2.56895	58.00
2.58562	58.00
2.60228	58.00
2.61895	58.00
2.63562	58.00
2.65228	58.00
2.66895	58.00
2.68562	58.00
2.70228	58.00
2.71895	58.00
2.73562	58.00
2.75228	58.00
2.76895	58.00
2.78562	58.00
2.80228	58.00
2.81895	58.00
2.83562	58.00
2.85228	58.00
2.86895	58.00
2.88562	58.00
2.90228	58.00
2.91895	58.00
2.93562	58.00
2.95228	58.00
2.96895	58.00
2.98562	58.00
3.00228	58.00
3.01895	58.00
3.03562	58.00
3.05228	58.00
3.06895	58.00
3.08562	58.00
3.10228	58.00
3.11895	58.00
3.13562	58.00
3.15228	58.00
3.16895	58.00
3.18562	58.00
3.20228	58.00
3.21895	58.00
3.23562	58.00
3.25228	58.00
3.26895	58.00
3.28562	58.00
3.30228	58.00
3.31895	58.00
3.33562	58.00
3.35228	58.00
3.36895	58.00
3.38562	58.00
3.40228	58.00
3.41895	58.00
3.43562	58.00
3.45228	58.00
3.46895	58.00
3.48562	58.00
3.50228	58.00
3.51895	58.00
3.53562	58.00
3.55228	58.00
3.56895	58.00
3.58562	58.00
3.60228	58.00
3.61895	58.00
3.63562	58.00
3.65228	58.00
3.66895	58.00
3.68562	58.00
3.70228	58.00
3.71895	58.00
3.73562	58.00
3.75228	58.00
3.76895	58.00
3.78562	58.00
3.80228	58.00
3.81895	58.00
3.83562	58.00
3.85228	58.00
3.86895	58.00
3.88562	58.00
3.90228	58.00
3.91895	58.00
3.93562	58.00
3.95228	58.00
3.96895	58.00
3.98562	58.00

[Status Trace (Carrier Gas Flow)]
Interval(msec)	1000
# of Points	240
Start Time(min)	0.002
End Time(min)	3.986
Intensity Units	
Intensity Multiplier	1
R.Time (min)	Intensity
0.00228	34.52
0.01895	34.59
0.03562	34.54
0.05228	34.55
0.06895	34.49
0.08562	34.51
0.10228	34.52
0.11895	34.52
0.13562	34.52
0.15228	34.52
0.16895	34.52
0.18562	34.52
0.20228	34.52
0.21895	34.52
0.23562	34.52
0.25228	34.52
0.26895	34.52
0.28562	34.52
0.30228	34.52
0.31895	34.51
0.33562	34.52
0.35228	34.52
0.36895	34.52
0.38562	34.52
0.40228	34.52
0.41895	34.52
0.43562	34.52
0.45228	34.52
0.46895	34.52
0.48562	34.52
0.50228	34.52
0.51895	34.52
0.53562	34.52
0.55228	34.52
0.56895	34.52
0.58562	34.52
0.60228	34.52
0.61895	34.52
0.63562	34.52
0.65228	34.52
0.66895	34.52
0.68562	34.52
0.70228	34.52
0.71895	34.52
0.73562	34.52
0.75228	34.52
0.76895	34.52
0.78562	34.52
0.80228	34.52
0.81895	34.52
0.83562	34.51
0.85228	34.52
0.86895	34.51
0.88562	34.52
0.90228	34.52
0.91895	34.52
0.93562	34.52
0.95228	34.52
0.96895	34.51
0.98562	34.52
1.00228	34.52
1.01895	34.52
1.03562	34.51
1.05228	34.52
1.06895	34.52
1.08562	34.52
1.10228	34.52
1.11895	34.52
1.13562	34.52
1.15228	34.52
1.16895	34.52
1.18562	34.52
1.20228	34.52
1.21895	34.52
1.23562	34.52
1.25228	34.52
1.26895	34.52
1.28562	34.52
1.30228	34.52
1.31895	34.52
1.33562	34.52
1.35228	34.51
1.36895	34.52
1.38562	34.52
1.40228	34.52
1.41895	34.52
1.43562	34.52
1.45228	34.51
1.46895	34.52
1.48562	34.52
1.50228	34.51
1.51895	34.52
1.53562	34.52
1.55228	34.52
1.56895	34.52
1.58562	34.51
1.60228	34.52
1.61895	34.51
1.63562	34.52
1.65228	34.52
1.66895	34.52
1.68562	34.52
1.70228	34.52
1.71895	34.52
1.73562	34.51
1.75228	34.52
1.76895	34.52
1.78562	34.52
1.80228	34.53
1.81895	34.52
1.83562	34.52
1.85228	34.52
1.86895	34.52
1.88562	34.52
1.90228	34.52
1.91895	34.51
1.93562	34.52
1.95228	34.51
1.96895	34.52
1.98562	34.52
2.00228	34.52
2.01895	34.52
2.03562	34.52
2.05228	34.52
2.06895	34.52
2.08562	34.52
2.10228	34.52
2.11895	34.51
2.13562	34.51
2.15228	34.52
2.16895	34.52
2.18562	34.52
2.20228	34.52
2.21895	34.52
2.23562	34.53
2.25228	34.52
2.26895	34.52
2.28562	34.52
2.30228	34.52
2.31895	34.52
2.33562	34.51
2.35228	34.52
2.36895	34.51
2.38562	34.54
2.40228	34.52
2.41895	34.52
2.43562	34.52
2.45228	34.52
2.46895	34.52
2.48562	34.52
2.50228	34.59
2.51895	34.52
2.53562	34.52
2.55228	34.52
2.56895	34.52
2.58562	34.52
2.60228	34.52
2.61895	34.52
2.63562	34.52
2.65228	34.52
2.66895	34.52
2.68562	34.51
2.70228	34.52
2.71895	34.51
2.73562	34.52
2.75228	34.52
2.76895	34.52
2.78562	34.52
2.80228	34.51
2.81895	34.52
2.83562	34.52
2.85228	34.52
2.86895	34.52
2.88562	34.52
2.90228	34.52
2.91895	34.52
2.93562	34.52
2.95228	34.52
2.96895	34.52
2.98562	34.52
3.00228	34.52
3.01895	34.52
3.03562	34.52
3.05228	34.51
3.06895	34.52
3.08562	34.52
3.10228	34.52
3.11895	34.52
3.13562	34.52
3.15228	34.52
3.16895	34.52
3.18562	34.51
3.20228	34.52
3.21895	34.52
3.23562	34.51
3.25228	34.53
3.26895	34.52
3.28562	34.52
3.30228	34.53
3.31895	34.52
3.33562	34.51
3.35228	34.51
3.36895	34.51
3.38562	34.51
3.40228	34.52
3.41895	34.52
3.43562	34.52
3.45228	34.51
3.46895	34.53
3.48562	34.51
3.50228	34.51
3.51895	34.52
3.53562	34.53
3.55228	34.52
3.56895	34.51
3.58562	34.51
3.60228	34.51
3.61895	34.53
3.63562	34.51
3.65228	34.52
3.66895	34.51
3.68562	34.52
3.70228	34.52
3.71895	34.53
3.73562	34.52
3.75228	34.51
3.76895	34.52
3.78562	34.52
3.80228	34.52
3.81895	34.52
3.83562	34.52
3.85228	34.51
3.86895	34.52
3.88562	34.52
3.90228	34.52
3.91895	34.52
3.93562	34.53
3.95228	34.53
3.96895	34.52
3.98562	34.52

[Status Trace (Column Flow)]
Interval(msec)	1000
# of Points	240
Start Time(min)	0.002
End Time(min)	3.986
Intensity Units	
Intensity Multiplier	1
R.Time (min)	Intensity
0.00228	5.52
0.01895	5.32
0.03562	5.32
0.05228	5.59
0.06895	5.74
0.08562	5.56
0.10228	5.52
0.11895	5.52
0.13562	5.52
0.15228	5.52
0.16895	5.52
0.18562	5.52
0.20228	5.52
0.21895	5.52
0.23562	5.52
0.25228	5.52
0.26895	5.52
0.28562	5.52
0.30228	5.52
0.31895	5.52
0.33562	5.52
0.35228	5.52
0.36895	5.52
0.38562	5.52
0.40228	5.52
0.41895	5.52
0.43562	5.52
0.45228	5.52
0.46895	5.52
0.48562	5.52
0.50228	5.52
0.51895	5.52
0.53562	5.52
0.55228	5.52
0.56895	5.52
0.58562	5.52
0.60228	5.52
0.61895	5.52
0.63562	5.52
0.65228	5.52
0.66895	5.52
0.68562	5.52
0.70228	5.52
0.71895	5.52
0.73562	5.52
0.75228	5.52
0.76895	5.52
0.78562	5.52
0.80228	5.52
0.81895	5.52
0.83562	5.52
0.85228	5.52
0.86895	5.52
0.88562	5.52
0.90228	5.52
0.91895	5.52
0.93562	5.52
0.95228	5.52
0.96895	5.52
0.98562	5.52
1.00228	5.52
1.01895	5.52
1.03562	5.52
1.05228	5.52
1.06895	5.52
1.08562	5.52
1.10228	5.52
1.11895	5.52
1.13562	5.52
1.15228	5.52
1.16895	5.52
1.18562	5.52
1.20228	5.52
1.21895	5.52
1.23562	5.52
1.25228	5.52
1.26895	5.52
1.28562	5.52
1.30228	5.52
1.31895	5.52
1.33562	5.52
1.35228	5.52
1.36895	5.52
1.38562	5.52
1.40228	5.52
1.41895	5.52
1.43562	5.52
1.45228	5.52
1.46895	5.52
1.48562	5.52
1.50228	5.52
1.51895	5.52
1.53562	5.52
1.55228	5.52
1.56895	5.52
1.58562	5.52
1.60228	5.52
1.61895	5.52
1.63562	5.52
1.65228	5.51
1.66895	5.50
1.68562	5.49
1.70228	5.47
1.71895	5.46
1.73562	5.45
1.75228	5.44
1.76895	5.43
1.78562	5.42
1.80228	5.41
1.81895	5.40
1.83562	5.39
1.85228	5.38
1.86895	5.37
1.88562	5.36
1.90228	5.35
1.91895	5.34
1.93562	5.33
1.95228	5.32
1.96895	5.31
1.98562	5.31
2.00228	5.29
2.01895	5.29
2.03562	5.28
2.05228	5.27
2.06895	5.26
2.08562	5.25
2.10228	5.24
2.11895	5.23
2.13562	5.22
2.15228	5.21
2.16895	5.20
2.18562	5.19
2.20228	5.18
2.21895	5.17
2.23562	5.16
2.25228	5.15
2.26895	5.14
2.28562	5.14
2.30228	5.13
2.31895	5.12
2.33562	5.11
2.35228	5.10
2.36895	5.09
2.38562	5.09
2.40228	5.09
2.41895	5.09
2.43562	5.09
2.45228	5.09
2.46895	5.09
2.48562	5.09
2.50228	5.09
2.51895	5.09
2.53562	5.09
2.55228	5.09
2.56895	5.09
2.58562	5.09
2.60228	5.09
2.61895	5.09
2.63562	5.08
2.65228	5.09
2.66895	5.08
2.68562	5.08
2.70228	5.08
2.71895	5.08
2.73562	5.08
2.75228	5.08
2.76895	5.08
2.78562	5.08
2.80228	5.08
2.81895	5.08
2.83562	5.08
2.85228	5.08
2.86895	5.08
2.88562	5.08
2.90228	5.08
2.91895	5.08
2.93562	5.08
2.95228	5.08
2.96895	5.08
2.98562	5.08
3.00228	5.08
3.01895	5.08
3.03562	5.08
3.05228	5.08
3.06895	5.08
3.08562	5.08
3.10228	5.08
3.11895	5.08
3.13562	5.08
3.15228	5.08
3.16895	5.08
3.18562	5.08
3.20228	5.08
3.21895	5.08
3.23562	5.08
3.25228	5.08
3.26895	5.08
3.28562	5.08
3.30228	5.08
3.31895	5.08
3.33562	5.08
3.35228	5.08
3.36895	5.08
3.38562	5.08
3.40228	5.08
3.41895	5.08
3.43562	5.08
3.45228	5.08
3.46895	5.08
3.48562	5.08
3.50228	5.08
3.51895	5.08
3.53562	5.08
3.55228	5.08
3.56895	5.08
3.58562	5.08
3.60228	5.08
3.61895	5.08
3.63562	5.08
3.65228	5.08
3.66895	5.08
3.68562	5.08
3.70228	5.08
3.71895	5.08
3.73562	5.08
3.75228	5.08
3.76895	5.08
3.78562	5.08
3.80228	5.08
3.81895	5.08
3.83562	5.08
3.85228	5.08
3.86895	5.08
3.88562	5.08
3.90228	5.08
3.91895	5.08
3.93562	5.08
3.95228	5.08
3.96895	5.08
3.98562	5.08

[Status Trace (Linear Velocity)]
Interval(msec)	1000
# of Points	240
Start Time(min)	0.002
End Time(min)	3.986
Intensity Units	
Intensity Multiplier	1
R.Time (min)	Intensity
0.00228	39.01
0.01895	37.85
0.03562	37.87
0.05228	39.39
0.06895	40.22
0.08562	39.22
0.10228	38.99
0.11895	39.01
0.13562	39.02
0.15228	39.02
0.16895	39.02
0.18562	39.02
0.20228	39.02
0.21895	39.02
0.23562	39.02
0.25228	39.01
0.26895	39.01
0.28562	39.01
0.30228	39.01
0.31895	39.02
0.33562	39.02
0.35228	39.02
0.36895	39.02
0.38562	39.02
0.40228	39.02
0.41895	39.02
0.43562	39.02
0.45228	39.02
0.46895	39.02
0.48562	39.02
0.50228	39.02
0.51895	39.02
0.53562	39.02
0.55228	39.02
0.56895	39.02
0.58562	39.02
0.60228	39.02
0.61895	39.02
0.63562	39.01
0.65228	39.01
0.66895	39.01
0.68562	39.01
0.70228	39.01
0.71895	39.01
0.73562	39.01
0.75228	39.01
0.76895	39.01
0.78562	39.01
0.80228	39.01
0.81895	39.02
0.83562	39.02
0.85228	39.02
0.86895	39.02
0.88562	39.02
0.90228	39.02
0.91895	39.02
0.93562	39.02
0.95228	39.02
0.96895	39.02
0.98562	39.02
1.00228	39.02
1.01895	39.02
1.03562	39.01
1.05228	39.01
1.06895	39.01
1.08562	39.01
1.10228	39.01
1.11895	39.02
1.13562	39.02
1.15228	39.02
1.16895	39.02
1.18562	39.02
1.20228	39.02
1.21895	39.02
1.23562	39.02
1.25228	39.02
1.26895	39.02
1.28562	39.02
1.30228	39.02
1.31895	39.02
1.33562	39.02
1.35228	39.02
1.36895	39.02
1.38562	39.02
1.40228	39.02
1.41895	39.02
1.43562	39.02
1.45228	39.02
1.46895	39.02
1.48562	39.02
1.50228	39.02
1.51895	39.02
1.53562	39.02
1.55228	39.02
1.56895	39.02
1.58562	39.02
1.60228	39.01
1.61895	39.01
1.63562	38.99
1.65228	38.97
1.66895	38.94
1.68562	38.91
1.70228	38.87
1.71895	38.83
1.73562	38.81
1.75228	38.77
1.76895	38.74
1.78562	38.71
1.80228	38.68
1.81895	38.65
1.83562	38.62
1.85228	38.58
1.86895	38.55
1.88562	38.53
1.90228	38.49
1.91895	38.46
1.93562	38.43
1.95228	38.40
1.96895	38.37
1.98562	38.34
2.00228	38.31
2.01895	38.28
2.03562	38.25
2.05228	38.22
2.06895	38.19
2.08562	38.16
2.10228	38.13
2.11895	38.10
2.13562	38.08
2.15228	38.04
2.16895	38.01
2.18562	37.98
2.20228	37.95
2.21895	37.92
2.23562	37.90
2.25228	37.87
2.26895	37.84
2.28562	37.81
2.30228	37.78
2.31895	37.75
2.33562	37.72
2.35228	37.69
2.36895	37.67
2.38562	37.66
2.40228	37.66
2.41895	37.66
2.43562	37.66
2.45228	37.66
2.46895	37.66
2.48562	37.66
2.50228	37.65
2.51895	37.67
2.53562	37.65
2.55228	37.66
2.56895	37.65
2.58562	37.65
2.60228	37.65
2.61895	37.65
2.63562	37.65
2.65228	37.65
2.66895	37.65
2.68562	37.65
2.70228	37.65
2.71895	37.65
2.73562	37.65
2.75228	37.65
2.76895	37.64
2.78562	37.65
2.80228	37.65
2.81895	37.65
2.83562	37.64
2.85228	37.65
2.86895	37.65
2.88562	37.64
2.90228	37.64
2.91895	37.64
2.93562	37.64
2.95228	37.64
2.96895	37.64
2.98562	37.64
3.00228	37.64
3.01895	37.63
3.03562	37.63
3.05228	37.63
3.06895	37.63
3.08562	37.63
3.10228	37.63
3.11895	37.63
3.13562	37.63
3.15228	37.63
3.16895	37.63
3.18562	37.63
3.20228	37.63
3.21895	37.63
3.23562	37.63
3.25228	37.63
3.26895	37.63
3.28562	37.63
3.30228	37.63
3.31895	37.63
3.33562	37.62
3.35228	37.62
3.36895	37.62
3.38562	37.62
3.40228	37.62
3.41895	37.63
3.43562	37.63
3.45228	37.63
3.46895	37.63
3.48562	37.63
3.50228	37.63
3.51895	37.63
3.53562	37.63
3.55228	37.63
3.56895	37.63
3.58562	37.63
3.60228	37.63
3.61895	37.63
3.63562	37.63
3.65228	37.63
3.66895	37.63
3.68562	37.63
3.70228	37.63
3.71895	37.63
3.73562	37.63
3.75228	37.63
3.76895	37.63
3.78562	37.63
3.80228	37.63
3.81895	37.63
3.83562	37.63
3.85228	37.63
3.86895	37.63
3.88562	37.63
3.90228	37.63
3.91895	37.63
3.93562	37.63
3.95228	37.63
3.96895	37.63
3.98562	37.63

