[Header]
Application Name	LabSolutions
Version	5.110
Data File Name	C:\Users\User\Desktop\GC Analyses\Jack\Nachusa Grasslands Sampling\T2 Timepoint July 12th\T2_07122022_063.gcd
Output Date	3/14/2023
Output Time	3:42:34 PM

[File Information]
Type	Data File
Generated	3/10/2023 7:26:46 PM
Generated by	System Administrator
Modified	3/10/2023 7:33:19 PM
Modified by	System Administrator

[Sample Information]
Operator Name	System Administrator
Acquired	3/10/2023 7:29:18 PM
Sample Type	0:Unknown
Level	0
Sample Name	063
Sample ID	063
ISTD Amount1	1
ISTD Amount2	1
ISTD Amount3	1
ISTD Amount4	1
ISTD Amount5	1
ISTD Amount6	1
ISTD Amount7	1
ISTD Amount8	1
ISTD Amount9	1
ISTD Amount10	1
ISTD Amount11	1
ISTD Amount12	1
ISTD Amount13	1
ISTD Amount14	1
ISTD Amount15	1
ISTD Amount16	1
ISTD Amount17	1
ISTD Amount18	1
ISTD Amount19	1
ISTD Amount20	1
ISTD Amount21	1
ISTD Amount22	1
ISTD Amount23	1
ISTD Amount24	1
ISTD Amount25	1
ISTD Amount26	1
ISTD Amount27	1
ISTD Amount28	1
ISTD Amount29	1
ISTD Amount30	1
ISTD Amount31	1
ISTD Amount32	1
Sample Amount	1
Dilution Factor	1
Vial#	62
Injection Volume	1
Injection Count	1
Bar Code	

[Original Files]
Data File	C:\Users\User\Desktop\GC Analyses\Jack\Nachusa Grasslands Sampling\T1 Timepoint July 12th\T2_07122022_063.gcd
Method File	C:\LabSolutions\Data\GHG_4min_2022\ghg3_togas_w_acet_4 min_new_int.gcm
Batch File	C:\LabSolutions\Data\AutoSamplerTesting\T2_07122022.gcb
Report Format File	c:\LabSolutions\System\DEFAULT.lsr

[File Description]


[Configuration]
Instrument Name	C0B7VH3-Instrument1
Instrument #	1
Line #	1
# of Detectors	3
Detector ID	DET#1	DET#2	DET#3
Detector Name	FID	PTCD	ECD
# of Channels	1	1	1

[Peak Table(Ch1)]
# of Peaks	3
Peak#	R.Time	I.Time	F.Time	Area	Height	A/H	Conc.	Mark	ID#	Name	k'	Plate #	Plate Ht.	Tailing	Resolution	Sep.Factor	Area Ratio	Height Ratio	Conc. %	Norm Conc.
1	1.476	1.435	1.538	32787	15649	2.095	231.477	   	1	CO	0.000	9498	15.793	1.302	0.000	0.000	0	0	23.171	23.171
2	1.567	1.538	1.652	5130	2404	2.135	99.200	 V 	2	CH4	0.062	9892	15.163	0.000	1.483	0.000	0	0	9.930	9.930
3	1.996	1.949	2.535	2662856	1266680	2.102	668.305	   	3	CO2	0.353	17335	8.653	1.249	6.937	5.680	0	0	66.899	66.899

[Peak Table(Ch2)]
# of Peaks	0

[Peak Table(Ch3)]
# of Peaks	5
Peak#	R.Time	I.Time	F.Time	Area	Height	A/H	Conc.	Mark	ID#	Name	k'	Plate #	Plate Ht.	Tailing	Resolution	Sep.Factor	Area Ratio	Height Ratio	Conc. %	Norm Conc.
1	2.462	2.202	2.513	2688	709	3.791	0.000	   			0.000	8521	17.603	0.000	0.000	0.000	0	0	0.000	0.000
2	2.532	2.513	2.700	2068	422	4.904	0.000	 V 			0.028	4601	32.605	0.000	0.544	0.000	0	0	0.000	0.000
3	2.876	2.810	3.067	19422	5054	3.843	0.496	   	1	N2O	0.168	13180	11.381	1.639	2.763	5.947	0	0	100.000	100.000
4	3.155	3.067	3.177	475	89	5.315	0.000	 V 	2	SF6	0.281	2734	54.861	0.000	1.632	1.673	0	0	0.000	0.000
5	3.401	3.181	3.995	16429	580	28.311	0.000	   	2	SF6	0.381	262	573.461	1.817	0.454	1.354	0	0	0.000	0.000

[Compound Results(Ch1)]
# of IDs	6
ID#	Name	R.Time	Area	Height	Conc.	Curve	3rd	2nd	1st	Constant	Area Ratio	Height Ratio	Conc. %	Norm Conc.
1	CO	1.476	32787	15649	231.477	Linear	0.000000e+00	0.000000e+00	1.416423e+002	0.000000e+00	0	0	23.171	23.171
2	CH4	1.567	5130	2404	99.200	Linear	0.000000e+00	0.000000e+00	5.171738e+001	0.000000e+00	0	0	9.930	9.930
3	CO2	1.996	2662856	1266680	668.305	Linear	0.000000e+00	0.000000e+00	3.984494e+003	0.000000e+00	0	0	66.899	66.899
4	Ethylene	0.000	0	0	0.000	Linear	0.000000e+00	0.000000e+00	0.000000e+00	0.000000e+00	0	0	0.000	0.000
5	Acetylene	0.000	0	0	0.000	Linear	0.000000e+00	0.000000e+00	0.000000e+00	0.000000e+00	0	0	0.000	0.000
6	Ethane	0.000	0	0	0.000	Linear	0.000000e+00	0.000000e+00	0.000000e+00	0.000000e+00	0	0	0.000	0.000

[Compound Results(Ch2)]
# of IDs	5
ID#	Name	R.Time	Area	Height	Conc.	Curve	3rd	2nd	1st	Constant	Area Ratio	Height Ratio	Conc. %	Norm Conc.
1	Hydrogen	0.000	0	0	0.000	Linear	0.000000e+00	0.000000e+00	0.000000e+00	0.000000e+00	0	0	0.000	0.000
2	Oxygen	0.000	0	0	0.000	Linear	0.000000e+00	0.000000e+00	0.000000e+00	0.000000e+00	0	0	0.000	0.000
3	Nitrogen	0.000	0	0	0.000	Linear	0.000000e+00	0.000000e+00	0.000000e+00	0.000000e+00	0	0	0.000	0.000
4	Methane	0.000	0	0	0.000	Linear	0.000000e+00	0.000000e+00	0.000000e+00	0.000000e+00	0	0	0.000	0.000
5	Carbon Monoxide	0.000	0	0	0.000	Linear	0.000000e+00	0.000000e+00	0.000000e+00	0.000000e+00	0	0	0.000	0.000

[Compound Results(Ch3)]
# of IDs	2
ID#	Name	R.Time	Area	Height	Conc.	Curve	3rd	2nd	1st	Constant	Area Ratio	Height Ratio	Conc. %	Norm Conc.
1	N2O	2.876	19422	5054	0.496	Linear	0.000000e+00	0.000000e+00	3.915173e+004	0.000000e+00	0	0	100.000	100.000
2	SF6	3.401	16904	670	0.000	Linear	0.000000e+00	0.000000e+00	0.000000e+00	0.000000e+00	0	0	0.000	0.000

[Group Results(Ch1)]
# of Groups	0

[Group Results(Ch2)]
# of Groups	0

[Group Results(Ch3)]
# of Groups	0

[Chromatogram (Ch1)]
Interval(msec)	220
# of Points	1091
Start Time(min)	0.002
End Time(min)	3.998
R.Time (min)	Intensity
0.00167	1
0.00533	-1
0.00900	2
0.01267	8
0.01633	14
0.02000	16
0.02367	17
0.02733	16
0.03100	12
0.03467	3
0.03833	-7
0.04200	-13
0.04567	-19
0.04933	-25
0.05300	-25
0.05667	-21
0.06033	-11
0.06400	-4
0.06767	2
0.07133	6
0.07500	11
0.07867	16
0.08233	22
0.08600	27
0.08967	27
0.09333	29
0.09700	32
0.10067	29
0.10433	24
0.10800	22
0.11167	24
0.11533	22
0.11900	19
0.12267	12
0.12633	2
0.13000	-4
0.13367	-7
0.13733	-10
0.14100	-11
0.14467	-12
0.14833	-9
0.15200	2
0.15567	14
0.15933	25
0.16300	32
0.16667	37
0.17033	34
0.17400	28
0.17767	22
0.18133	17
0.18500	16
0.18867	17
0.19233	20
0.19600	22
0.19967	24
0.20333	24
0.20700	22
0.21067	21
0.21433	21
0.21800	21
0.22167	26
0.22533	30
0.22900	28
0.23267	28
0.23633	30
0.24000	33
0.24367	34
0.24733	31
0.25100	26
0.25467	24
0.25833	24
0.26200	27
0.26567	29
0.26933	31
0.27300	35
0.27667	39
0.28033	43
0.28400	44
0.28767	47
0.29133	51
0.29500	54
0.29867	55
0.30233	54
0.30600	54
0.30967	60
0.31333	74
0.31700	91
0.32067	98
0.32433	93
0.32800	86
0.33167	77
0.33533	70
0.33900	68
0.34267	68
0.34633	69
0.35000	66
0.35367	63
0.35733	63
0.36100	68
0.36467	76
0.36833	83
0.37200	90
0.37567	98
0.37933	103
0.38300	103
0.38667	101
0.39033	102
0.39400	104
0.39767	107
0.40133	109
0.40500	109
0.40867	105
0.41233	101
0.41600	97
0.41967	94
0.42333	93
0.42700	95
0.43067	98
0.43433	99
0.43800	97
0.44167	91
0.44533	84
0.44900	80
0.45267	76
0.45633	69
0.46000	63
0.46367	57
0.46733	50
0.47100	44
0.47467	37
0.47833	35
0.48200	37
0.48567	38
0.48933	35
0.49300	31
0.49667	30
0.50033	33
0.50400	37
0.50767	38
0.51133	35
0.51500	33
0.51867	32
0.52233	36
0.52600	43
0.52967	51
0.53333	57
0.53700	57
0.54067	52
0.54433	40
0.54800	22
0.55167	6
0.55533	-2
0.55900	-6
0.56267	-6
0.56633	-3
0.57000	3
0.57367	10
0.57733	15
0.58100	19
0.58467	24
0.58833	23
0.59200	19
0.59567	17
0.59933	18
0.60300	20
0.60667	22
0.61033	23
0.61400	23
0.61767	26
0.62133	27
0.62500	24
0.62867	19
0.63233	14
0.63600	13
0.63967	17
0.64333	23
0.64700	26
0.65067	28
0.65433	31
0.65800	34
0.66167	36
0.66533	34
0.66900	29
0.67267	26
0.67633	23
0.68000	24
0.68367	21
0.68733	16
0.69100	13
0.69467	9
0.69833	5
0.70200	2
0.70567	2
0.70933	3
0.71300	4
0.71667	7
0.72033	9
0.72400	8
0.72767	9
0.73133	13
0.73500	17
0.73867	20
0.74233	24
0.74600	31
0.74967	36
0.75333	41
0.75700	45
0.76067	40
0.76433	28
0.76800	16
0.77167	11
0.77533	10
0.77900	9
0.78267	7
0.78633	4
0.79000	-2
0.79367	-8
0.79733	-9
0.80100	-2
0.80467	7
0.80833	11
0.81200	15
0.81567	16
0.81933	18
0.82300	14
0.82667	6
0.83033	2
0.83400	5
0.83767	8
0.84133	9
0.84500	12
0.84867	15
0.85233	16
0.85600	15
0.85967	14
0.86333	12
0.86700	11
0.87067	10
0.87433	9
0.87800	6
0.88167	4
0.88533	1
0.88900	-0
0.89267	3
0.89633	4
0.90000	2
0.90367	2
0.90733	1
0.91100	2
0.91467	1
0.91833	3
0.92200	7
0.92567	9
0.92933	11
0.93300	13
0.93667	11
0.94033	8
0.94400	8
0.94767	12
0.95133	11
0.95500	8
0.95867	6
0.96233	4
0.96600	-1
0.96967	-6
0.97333	-14
0.97700	-19
0.98067	-21
0.98433	-20
0.98800	-17
0.99167	-14
0.99533	-16
0.99900	-18
1.00267	-19
1.00633	-18
1.01000	-12
1.01367	-7
1.01733	-5
1.02100	-3
1.02467	-1
1.02833	4
1.03200	11
1.03567	13
1.03933	11
1.04300	7
1.04667	8
1.05033	8
1.05400	6
1.05767	-0
1.06133	-8
1.06500	-13
1.06867	-12
1.07233	-6
1.07600	2
1.07967	6
1.08333	7
1.08700	7
1.09067	4
1.09433	-3
1.09800	-9
1.10167	-13
1.10533	-12
1.10900	-8
1.11267	-5
1.11633	-2
1.12000	2
1.12367	4
1.12733	2
1.13100	-4
1.13467	-12
1.13833	-17
1.14200	-18
1.14567	-16
1.14933	-16
1.15300	-18
1.15667	-20
1.16033	-26
1.16400	-34
1.16767	-41
1.17133	-48
1.17500	-51
1.17867	-49
1.18233	-41
1.18600	-32
1.18967	-22
1.19333	-9
1.19700	-4
1.20067	-5
1.20433	-9
1.20800	-11
1.21167	-10
1.21533	-7
1.21900	-1
1.22267	3
1.22633	-1
1.23000	-5
1.23367	-9
1.23733	-15
1.24100	-24
1.24467	-27
1.24833	-24
1.25200	-17
1.25567	-11
1.25933	-8
1.26300	-11
1.26667	-14
1.27033	-15
1.27400	-12
1.27767	-9
1.28133	-8
1.28500	-7
1.28867	-7
1.29233	-5
1.29600	-4
1.29967	-7
1.30333	-9
1.30700	-8
1.31067	-4
1.31433	2
1.31800	11
1.32167	17
1.32533	19
1.32900	19
1.33267	17
1.33633	15
1.34000	17
1.34367	25
1.34733	38
1.35100	43
1.35467	41
1.35833	32
1.36200	21
1.36567	14
1.36933	7
1.37300	-1
1.37667	-6
1.38033	-11
1.38400	-15
1.38767	-13
1.39133	-6
1.39500	0
1.39867	7
1.40233	11
1.40600	10
1.40967	4
1.41333	-3
1.41700	-8
1.42067	-9
1.42433	-11
1.42800	-12
1.43167	-8
1.43533	2
1.43900	34
1.44267	137
1.44633	396
1.45000	1095
1.45367	2735
1.45733	5364
1.46100	8423
1.46467	11280
1.46833	13556
1.47200	15069
1.47567	15660
1.47933	15208
1.48300	13761
1.48667	11619
1.49033	9237
1.49400	7012
1.49767	5164
1.50133	3734
1.50500	2678
1.50867	1924
1.51233	1398
1.51600	1035
1.51967	786
1.52333	616
1.52700	502
1.53067	424
1.53433	374
1.53800	356
1.54167	410
1.54533	596
1.54900	931
1.55267	1351
1.55633	1764
1.56000	2101
1.56367	2333
1.56733	2434
1.57100	2374
1.57467	2145
1.57833	1799
1.58200	1418
1.58567	1071
1.58933	790
1.59300	577
1.59667	417
1.60033	305
1.60400	229
1.60767	180
1.61133	152
1.61500	136
1.61867	122
1.62233	108
1.62600	95
1.62967	85
1.63333	80
1.63700	74
1.64067	69
1.64433	63
1.64800	56
1.65167	50
1.65533	41
1.65900	34
1.66267	34
1.66633	40
1.67000	47
1.67367	47
1.67733	45
1.68100	46
1.68467	52
1.68833	57
1.69200	57
1.69567	52
1.69933	47
1.70300	43
1.70667	42
1.71033	44
1.71400	48
1.71767	53
1.72133	56
1.72500	57
1.72867	55
1.73233	49
1.73600	43
1.73967	37
1.74333	34
1.74700	31
1.75067	28
1.75433	27
1.75800	26
1.76167	23
1.76533	22
1.76900	21
1.77267	21
1.77633	19
1.78000	16
1.78367	14
1.78733	14
1.79100	17
1.79467	21
1.79833	23
1.80200	26
1.80567	29
1.80933	30
1.81300	30
1.81667	33
1.82033	43
1.82400	55
1.82767	64
1.83133	63
1.83500	53
1.83867	41
1.84233	33
1.84600	28
1.84967	26
1.85333	26
1.85700	24
1.86067	23
1.86433	23
1.86800	25
1.87167	27
1.87533	29
1.87900	30
1.88267	29
1.88633	33
1.89000	39
1.89367	48
1.89733	54
1.90100	63
1.90467	67
1.90833	60
1.91200	46
1.91567	33
1.91933	26
1.92300	27
1.92667	32
1.93033	37
1.93400	40
1.93767	40
1.94133	40
1.94500	41
1.94867	46
1.95233	93
1.95600	410
1.95967	2207
1.96333	10048
1.96700	35996
1.97067	101971
1.97433	231217
1.97800	428352
1.98167	668631
1.98533	908335
1.98900	1105193
1.99267	1229816
1.99633	1266777
2.00000	1215580
2.00367	1090793
2.00733	919062
2.01100	731680
2.01467	555279
2.01833	406006
2.02200	289248
2.02567	202985
2.02933	141749
2.03300	99415
2.03667	70612
2.04033	51158
2.04400	38021
2.04767	29092
2.05133	22950
2.05500	18652
2.05867	15580
2.06233	13332
2.06600	11641
2.06967	10331
2.07333	9284
2.07700	8430
2.08067	7722
2.08433	7125
2.08800	6619
2.09167	6185
2.09533	5802
2.09900	5462
2.10267	5162
2.10633	4894
2.11000	4654
2.11367	4438
2.11733	4236
2.12100	4048
2.12467	3873
2.12833	3713
2.13200	3565
2.13567	3429
2.13933	3302
2.14300	3185
2.14667	3077
2.15033	2975
2.15400	2875
2.15767	2779
2.16133	2692
2.16500	2614
2.16867	2541
2.17233	2472
2.17600	2405
2.17967	2343
2.18333	2280
2.18700	2219
2.19067	2158
2.19433	2098
2.19800	2042
2.20167	1991
2.20533	1943
2.20900	1897
2.21267	1853
2.21633	1815
2.22000	1780
2.22367	1746
2.22733	1713
2.23100	1683
2.23467	1651
2.23833	1615
2.24200	1578
2.24567	1541
2.24933	1506
2.25300	1474
2.25667	1446
2.26033	1423
2.26400	1404
2.26767	1385
2.27133	1360
2.27500	1334
2.27867	1305
2.28233	1272
2.28600	1239
2.28967	1210
2.29333	1185
2.29700	1169
2.30067	1159
2.30433	1148
2.30800	1136
2.31167	1125
2.31533	1113
2.31900	1100
2.32267	1085
2.32633	1075
2.33000	1067
2.33367	1052
2.33733	1033
2.34100	1015
2.34467	999
2.34833	985
2.35200	973
2.35567	963
2.35933	958
2.36300	951
2.36667	944
2.37033	937
2.37400	928
2.37767	922
2.38133	914
2.38500	903
2.38867	893
2.39233	881
2.39600	870
2.39967	858
2.40333	847
2.40700	836
2.41067	831
2.41433	828
2.41800	823
2.42167	814
2.42533	804
2.42900	792
2.43267	781
2.43633	774
2.44000	767
2.44367	758
2.44733	751
2.45100	748
2.45467	742
2.45833	732
2.46200	725
2.46567	720
2.46933	720
2.47300	724
2.47667	730
2.48033	727
2.48400	716
2.48767	705
2.49133	696
2.49500	689
2.49867	686
2.50233	686
2.50600	681
2.50967	671
2.51333	664
2.51700	663
2.52067	663
2.52433	664
2.52800	667
2.53167	670
2.53533	671
2.53900	670
2.54267	664
2.54633	651
2.55000	635
2.55367	622
2.55733	615
2.56100	615
2.56467	616
2.56833	615
2.57200	610
2.57567	607
2.57933	606
2.58300	606
2.58667	606
2.59033	605
2.59400	601
2.59767	593
2.60133	583
2.60500	576
2.60867	569
2.61233	563
2.61600	561
2.61967	561
2.62333	564
2.62700	567
2.63067	563
2.63433	561
2.63800	556
2.64167	552
2.64533	555
2.64900	560
2.65267	564
2.65633	565
2.66000	559
2.66367	549
2.66733	539
2.67100	530
2.67467	524
2.67833	522
2.68200	527
2.68567	535
2.68933	538
2.69300	534
2.69667	528
2.70033	524
2.70400	526
2.70767	528
2.71133	524
2.71500	511
2.71867	499
2.72233	491
2.72600	485
2.72967	483
2.73333	483
2.73700	486
2.74067	488
2.74433	487
2.74800	485
2.75167	489
2.75533	494
2.75900	495
2.76267	497
2.76633	501
2.77000	507
2.77367	512
2.77733	513
2.78100	515
2.78467	518
2.78833	514
2.79200	506
2.79567	497
2.79933	494
2.80300	494
2.80667	492
2.81033	490
2.81400	488
2.81767	487
2.82133	482
2.82500	475
2.82867	469
2.83233	466
2.83600	463
2.83967	461
2.84333	461
2.84700	460
2.85067	459
2.85433	458
2.85800	461
2.86167	468
2.86533	474
2.86900	474
2.87267	475
2.87633	477
2.88000	481
2.88367	483
2.88733	479
2.89100	477
2.89467	476
2.89833	479
2.90200	486
2.90567	491
2.90933	489
2.91300	479
2.91667	466
2.92033	458
2.92400	456
2.92767	457
2.93133	461
2.93500	464
2.93867	463
2.94233	460
2.94600	453
2.94967	445
2.95333	439
2.95700	438
2.96067	439
2.96433	445
2.96800	454
2.97167	453
2.97533	448
2.97900	445
2.98267	445
2.98633	444
2.99000	441
2.99367	441
2.99733	445
3.00100	451
3.00467	458
3.00833	462
3.01200	457
3.01567	449
3.01933	439
3.02300	430
3.02667	420
3.03033	416
3.03400	419
3.03767	420
3.04133	420
3.04500	422
3.04867	422
3.05233	420
3.05600	415
3.05967	411
3.06333	412
3.06700	416
3.07067	421
3.07433	426
3.07800	428
3.08167	428
3.08533	425
3.08900	420
3.09267	412
3.09633	404
3.10000	394
3.10367	384
3.10733	380
3.11100	383
3.11467	392
3.11833	403
3.12200	412
3.12567	413
3.12933	408
3.13300	404
3.13667	403
3.14033	403
3.14400	400
3.14767	393
3.15133	384
3.15500	380
3.15867	377
3.16233	372
3.16600	371
3.16967	376
3.17333	379
3.17700	376
3.18067	373
3.18433	373
3.18800	374
3.19167	377
3.19533	381
3.19900	380
3.20267	377
3.20633	372
3.21000	364
3.21367	360
3.21733	360
3.22100	360
3.22467	366
3.22833	375
3.23200	380
3.23567	379
3.23933	375
3.24300	371
3.24667	366
3.25033	365
3.25400	364
3.25767	361
3.26133	359
3.26500	357
3.26867	356
3.27233	354
3.27600	353
3.27967	350
3.28333	349
3.28700	348
3.29067	347
3.29433	348
3.29800	348
3.30167	350
3.30533	353
3.30900	358
3.31267	362
3.31633	362
3.32000	359
3.32367	353
3.32733	346
3.33100	340
3.33467	336
3.33833	333
3.34200	333
3.34567	333
3.34933	330
3.35300	325
3.35667	320
3.36033	319
3.36400	319
3.36767	320
3.37133	319
3.37500	316
3.37867	314
3.38233	313
3.38600	314
3.38967	317
3.39333	318
3.39700	315
3.40067	316
3.40433	323
3.40800	328
3.41167	326
3.41533	324
3.41900	323
3.42267	321
3.42633	315
3.43000	306
3.43367	302
3.43733	301
3.44100	306
3.44467	310
3.44833	313
3.45200	316
3.45567	317
3.45933	315
3.46300	311
3.46667	305
3.47033	300
3.47400	296
3.47767	291
3.48133	286
3.48500	285
3.48867	288
3.49233	290
3.49600	289
3.49967	287
3.50333	289
3.50700	291
3.51067	294
3.51433	300
3.51800	299
3.52167	294
3.52533	293
3.52900	295
3.53267	292
3.53633	291
3.54000	288
3.54367	287
3.54733	290
3.55100	293
3.55467	294
3.55833	290
3.56200	284
3.56567	280
3.56933	281
3.57300	283
3.57667	286
3.58033	294
3.58400	298
3.58767	299
3.59133	294
3.59500	288
3.59867	287
3.60233	285
3.60600	283
3.60967	280
3.61333	277
3.61700	272
3.62067	265
3.62433	256
3.62800	249
3.63167	247
3.63533	246
3.63900	251
3.64267	256
3.64633	257
3.65000	256
3.65367	252
3.65733	248
3.66100	247
3.66467	245
3.66833	246
3.67200	246
3.67567	246
3.67933	245
3.68300	244
3.68667	245
3.69033	248
3.69400	251
3.69767	253
3.70133	251
3.70500	247
3.70867	244
3.71233	248
3.71600	253
3.71967	256
3.72333	260
3.72700	262
3.73067	260
3.73433	256
3.73800	253
3.74167	252
3.74533	251
3.74900	255
3.75267	262
3.75633	267
3.76000	265
3.76367	253
3.76733	238
3.77100	226
3.77467	220
3.77833	214
3.78200	211
3.78567	213
3.78933	218
3.79300	226
3.79667	230
3.80033	229
3.80400	227
3.80767	226
3.81133	225
3.81500	224
3.81867	223
3.82233	223
3.82600	227
3.82967	229
3.83333	230
3.83700	229
3.84067	231
3.84433	231
3.84800	228
3.85167	224
3.85533	222
3.85900	225
3.86267	226
3.86633	223
3.87000	220
3.87367	222
3.87733	226
3.88100	230
3.88467	225
3.88833	216
3.89200	210
3.89567	209
3.89933	213
3.90300	219
3.90667	222
3.91033	223
3.91400	222
3.91767	218
3.92133	213
3.92500	211
3.92867	210
3.93233	208
3.93600	206
3.93967	208
3.94333	210
3.94700	211
3.95067	211
3.95433	207
3.95800	201
3.96167	197
3.96533	192
3.96900	189
3.97267	193
3.97633	199
3.98000	201
3.98367	203
3.98733	204
3.99100	208
3.99467	210
3.99833	205

[Chromatogram (Ch2)]
Interval(msec)	220
# of Points	1091
Start Time(min)	0.002
End Time(min)	3.998
R.Time (min)	Intensity
0.00167	2
0.00533	2
0.00900	2
0.01267	2
0.01633	2
0.02000	2
0.02367	2
0.02733	1
0.03100	1
0.03467	1
0.03833	1
0.04200	1
0.04567	1
0.04933	0
0.05300	0
0.05667	-0
0.06033	-0
0.06400	-0
0.06767	-0
0.07133	-0
0.07500	-0
0.07867	-0
0.08233	-0
0.08600	0
0.08967	1
0.09333	1
0.09700	1
0.10067	1
0.10433	2
0.10800	2
0.11167	2
0.11533	2
0.11900	2
0.12267	2
0.12633	2
0.13000	2
0.13367	3
0.13733	3
0.14100	3
0.14467	3
0.14833	3
0.15200	2
0.15567	2
0.15933	1
0.16300	1
0.16667	1
0.17033	1
0.17400	1
0.17767	1
0.18133	1
0.18500	1
0.18867	1
0.19233	1
0.19600	2
0.19967	2
0.20333	2
0.20700	2
0.21067	1
0.21433	1
0.21800	1
0.22167	1
0.22533	0
0.22900	-0
0.23267	-0
0.23633	-0
0.24000	0
0.24367	0
0.24733	-0
0.25100	-0
0.25467	-0
0.25833	-1
0.26200	-1
0.26567	-1
0.26933	-1
0.27300	-1
0.27667	-2
0.28033	-2
0.28400	-2
0.28767	-2
0.29133	-2
0.29500	-2
0.29867	-1
0.30233	-1
0.30600	-1
0.30967	-0
0.31333	-0
0.31700	0
0.32067	0
0.32433	0
0.32800	0
0.33167	0
0.33533	0
0.33900	-0
0.34267	-0
0.34633	-1
0.35000	-1
0.35367	-1
0.35733	-1
0.36100	-1
0.36467	-1
0.36833	-1
0.37200	-1
0.37567	-0
0.37933	-0
0.38300	-0
0.38667	-0
0.39033	-0
0.39400	-1
0.39767	-1
0.40133	-1
0.40500	-1
0.40867	-1
0.41233	-1
0.41600	-1
0.41967	-1
0.42333	-1
0.42700	-1
0.43067	-1
0.43433	-1
0.43800	-1
0.44167	-1
0.44533	-1
0.44900	-1
0.45267	-1
0.45633	-0
0.46000	-0
0.46367	-0
0.46733	-0
0.47100	-0
0.47467	-0
0.47833	0
0.48200	0
0.48567	0
0.48933	0
0.49300	0
0.49667	0
0.50033	0
0.50400	0
0.50767	-0
0.51133	-0
0.51500	-0
0.51867	-0
0.52233	-0
0.52600	-0
0.52967	-1
0.53333	-1
0.53700	-1
0.54067	-1
0.54433	-1
0.54800	-0
0.55167	-0
0.55533	-0
0.55900	-0
0.56267	-1
0.56633	-1
0.57000	-1
0.57367	-1
0.57733	-1
0.58100	-2
0.58467	-2
0.58833	-2
0.59200	-2
0.59567	-3
0.59933	-3
0.60300	-2
0.60667	-2
0.61033	-2
0.61400	-2
0.61767	-1
0.62133	-1
0.62500	-1
0.62867	-1
0.63233	-1
0.63600	-1
0.63967	-1
0.64333	-1
0.64700	-1
0.65067	-1
0.65433	-1
0.65800	-1
0.66167	-2
0.66533	-2
0.66900	-2
0.67267	-2
0.67633	-2
0.68000	-2
0.68367	-1
0.68733	-1
0.69100	-1
0.69467	-2
0.69833	-2
0.70200	-2
0.70567	-3
0.70933	-3
0.71300	-3
0.71667	-3
0.72033	-3
0.72400	-3
0.72767	-2
0.73133	-2
0.73500	-2
0.73867	-2
0.74233	-1
0.74600	-1
0.74967	-1
0.75333	-1
0.75700	-1
0.76067	-1
0.76433	-1
0.76800	-1
0.77167	-1
0.77533	-1
0.77900	-1
0.78267	-1
0.78633	-1
0.79000	-1
0.79367	-1
0.79733	-1
0.80100	-1
0.80467	-0
0.80833	0
0.81200	1
0.81567	1
0.81933	1
0.82300	1
0.82667	1
0.83033	1
0.83400	1
0.83767	2
0.84133	2
0.84500	2
0.84867	2
0.85233	1
0.85600	1
0.85967	1
0.86333	0
0.86700	0
0.87067	-0
0.87433	-0
0.87800	-0
0.88167	-0
0.88533	-0
0.88900	-0
0.89267	-0
0.89633	-0
0.90000	-1
0.90367	-1
0.90733	-1
0.91100	-1
0.91467	-1
0.91833	-1
0.92200	-1
0.92567	-1
0.92933	-1
0.93300	-1
0.93667	-1
0.94033	-1
0.94400	-1
0.94767	-1
0.95133	-1
0.95500	-1
0.95867	-1
0.96233	-1
0.96600	-1
0.96967	-1
0.97333	-0
0.97700	-0
0.98067	-0
0.98433	-0
0.98800	-0
0.99167	-0
0.99533	-0
0.99900	-0
1.00267	-0
1.00633	-0
1.01000	0
1.01367	0
1.01733	1
1.02100	1
1.02467	1
1.02833	1
1.03200	1
1.03567	1
1.03933	1
1.04300	0
1.04667	0
1.05033	-0
1.05400	-0
1.05767	-0
1.06133	-1
1.06500	-1
1.06867	-1
1.07233	-1
1.07600	-2
1.07967	-2
1.08333	-2
1.08700	-3
1.09067	-3
1.09433	-3
1.09800	-3
1.10167	-3
1.10533	-3
1.10900	-2
1.11267	-2
1.11633	-2
1.12000	-2
1.12367	-2
1.12733	-3
1.13100	-3
1.13467	-3
1.13833	-3
1.14200	-3
1.14567	-2
1.14933	-2
1.15300	-1
1.15667	-1
1.16033	-1
1.16400	-0
1.16767	-0
1.17133	0
1.17500	0
1.17867	0
1.18233	-0
1.18600	-0
1.18967	-0
1.19333	-1
1.19700	-1
1.20067	-1
1.20433	-0
1.20800	-0
1.21167	0
1.21533	0
1.21900	1
1.22267	1
1.22633	1
1.23000	1
1.23367	2
1.23733	1
1.24100	1
1.24467	1
1.24833	1
1.25200	1
1.25567	1
1.25933	1
1.26300	1
1.26667	1
1.27033	0
1.27400	0
1.27767	-0
1.28133	-1
1.28500	-1
1.28867	-1
1.29233	-2
1.29600	-2
1.29967	-2
1.30333	-2
1.30700	-2
1.31067	-2
1.31433	-3
1.31800	-3
1.32167	-3
1.32533	-3
1.32900	-3
1.33267	-3
1.33633	-3
1.34000	-3
1.34367	-3
1.34733	-3
1.35100	-3
1.35467	-4
1.35833	-4
1.36200	-4
1.36567	-4
1.36933	-4
1.37300	-4
1.37667	-4
1.38033	-4
1.38400	-4
1.38767	-4
1.39133	-4
1.39500	-3
1.39867	-3
1.40233	-3
1.40600	-2
1.40967	-2
1.41333	-1
1.41700	-1
1.42067	-0
1.42433	0
1.42800	-0
1.43167	-0
1.43533	-0
1.43900	-0
1.44267	-0
1.44633	-0
1.45000	-0
1.45367	-0
1.45733	-1
1.46100	-1
1.46467	-1
1.46833	-1
1.47200	-1
1.47567	-1
1.47933	-2
1.48300	-2
1.48667	-2
1.49033	-2
1.49400	-2
1.49767	-2
1.50133	-2
1.50500	-2
1.50867	-2
1.51233	-2
1.51600	-2
1.51967	-1
1.52333	-1
1.52700	-1
1.53067	-1
1.53433	-1
1.53800	-1
1.54167	-1
1.54533	-1
1.54900	-0
1.55267	0
1.55633	1
1.56000	1
1.56367	1
1.56733	1
1.57100	1
1.57467	2
1.57833	2
1.58200	2
1.58567	2
1.58933	2
1.59300	1
1.59667	1
1.60033	-0
1.60400	-2
1.60767	-3
1.61133	-5
1.61500	-7
1.61867	-10
1.62233	-12
1.62600	-16
1.62967	-19
1.63333	-23
1.63700	-27
1.64067	-32
1.64433	-36
1.64800	-40
1.65167	-45
1.65533	-49
1.65900	-53
1.66267	-57
1.66633	-62
1.67000	-66
1.67367	-71
1.67733	-76
1.68100	-80
1.68467	-84
1.68833	-88
1.69200	-91
1.69567	-94
1.69933	-96
1.70300	-98
1.70667	-100
1.71033	-101
1.71400	-102
1.71767	-102
1.72133	-103
1.72500	-103
1.72867	-104
1.73233	-104
1.73600	-104
1.73967	-105
1.74333	-105
1.74700	-105
1.75067	-106
1.75433	-106
1.75800	-107
1.76167	-108
1.76533	-109
1.76900	-110
1.77267	-111
1.77633	-112
1.78000	-113
1.78367	-113
1.78733	-114
1.79100	-114
1.79467	-114
1.79833	-114
1.80200	-114
1.80567	-114
1.80933	-113
1.81300	-113
1.81667	-113
1.82033	-113
1.82400	-113
1.82767	-113
1.83133	-113
1.83500	-114
1.83867	-114
1.84233	-114
1.84600	-115
1.84967	-115
1.85333	-115
1.85700	-114
1.86067	-114
1.86433	-114
1.86800	-114
1.87167	-113
1.87533	-114
1.87900	-114
1.88267	-114
1.88633	-113
1.89000	-113
1.89367	-113
1.89733	-113
1.90100	-113
1.90467	-112
1.90833	-112
1.91200	-111
1.91567	-111
1.91933	-111
1.92300	-111
1.92667	-110
1.93033	-110
1.93400	-110
1.93767	-110
1.94133	-110
1.94500	-109
1.94867	-109
1.95233	-110
1.95600	-110
1.95967	-110
1.96333	-109
1.96700	-109
1.97067	-109
1.97433	-108
1.97800	-108
1.98167	-107
1.98533	-107
1.98900	-106
1.99267	-106
1.99633	-106
2.00000	-106
2.00367	-106
2.00733	-107
2.01100	-107
2.01467	-107
2.01833	-107
2.02200	-106
2.02567	-106
2.02933	-106
2.03300	-105
2.03667	-104
2.04033	-104
2.04400	-103
2.04767	-102
2.05133	-102
2.05500	-101
2.05867	-101
2.06233	-101
2.06600	-101
2.06967	-101
2.07333	-101
2.07700	-101
2.08067	-101
2.08433	-101
2.08800	-101
2.09167	-100
2.09533	-100
2.09900	-99
2.10267	-98
2.10633	-98
2.11000	-98
2.11367	-97
2.11733	-97
2.12100	-97
2.12467	-97
2.12833	-96
2.13200	-96
2.13567	-96
2.13933	-96
2.14300	-96
2.14667	-96
2.15033	-96
2.15400	-95
2.15767	-95
2.16133	-94
2.16500	-94
2.16867	-93
2.17233	-93
2.17600	-92
2.17967	-92
2.18333	-91
2.18700	-90
2.19067	-89
2.19433	-88
2.19800	-87
2.20167	-87
2.20533	-86
2.20900	-86
2.21267	-86
2.21633	-86
2.22000	-85
2.22367	-85
2.22733	-85
2.23100	-86
2.23467	-86
2.23833	-87
2.24200	-88
2.24567	-88
2.24933	-89
2.25300	-88
2.25667	-88
2.26033	-87
2.26400	-87
2.26767	-86
2.27133	-85
2.27500	-84
2.27867	-83
2.28233	-83
2.28600	-83
2.28967	-84
2.29333	-84
2.29700	-84
2.30067	-84
2.30433	-84
2.30800	-83
2.31167	-83
2.31533	-83
2.31900	-82
2.32267	-82
2.32633	-82
2.33000	-82
2.33367	-81
2.33733	-81
2.34100	-80
2.34467	-79
2.34833	-78
2.35200	-76
2.35567	-75
2.35933	-73
2.36300	-72
2.36667	-70
2.37033	-67
2.37400	-65
2.37767	-62
2.38133	-59
2.38500	-55
2.38867	-51
2.39233	-47
2.39600	-44
2.39967	-39
2.40333	-35
2.40700	-31
2.41067	-26
2.41433	-22
2.41800	-19
2.42167	-16
2.42533	-13
2.42900	-11
2.43267	-10
2.43633	-9
2.44000	-8
2.44367	-8
2.44733	-7
2.45100	-6
2.45467	-6
2.45833	-5
2.46200	-5
2.46567	-4
2.46933	-4
2.47300	-3
2.47667	-2
2.48033	-2
2.48400	-1
2.48767	-1
2.49133	-0
2.49500	1
2.49867	2
2.50233	3
2.50600	4
2.50967	6
2.51333	7
2.51700	8
2.52067	9
2.52433	10
2.52800	10
2.53167	10
2.53533	10
2.53900	10
2.54267	11
2.54633	11
2.55000	12
2.55367	13
2.55733	14
2.56100	15
2.56467	16
2.56833	16
2.57200	16
2.57567	16
2.57933	16
2.58300	17
2.58667	16
2.59033	16
2.59400	16
2.59767	16
2.60133	16
2.60500	16
2.60867	16
2.61233	16
2.61600	16
2.61967	17
2.62333	17
2.62700	17
2.63067	17
2.63433	17
2.63800	17
2.64167	16
2.64533	16
2.64900	17
2.65267	17
2.65633	18
2.66000	18
2.66367	19
2.66733	20
2.67100	20
2.67467	20
2.67833	20
2.68200	20
2.68567	20
2.68933	21
2.69300	21
2.69667	21
2.70033	21
2.70400	22
2.70767	22
2.71133	22
2.71500	23
2.71867	23
2.72233	23
2.72600	24
2.72967	24
2.73333	24
2.73700	25
2.74067	25
2.74433	25
2.74800	25
2.75167	25
2.75533	25
2.75900	24
2.76267	24
2.76633	24
2.77000	24
2.77367	23
2.77733	23
2.78100	23
2.78467	23
2.78833	24
2.79200	24
2.79567	24
2.79933	25
2.80300	26
2.80667	26
2.81033	26
2.81400	26
2.81767	27
2.82133	27
2.82500	27
2.82867	27
2.83233	27
2.83600	26
2.83967	25
2.84333	23
2.84700	20
2.85067	14
2.85433	6
2.85800	-6
2.86167	-22
2.86533	-42
2.86900	-66
2.87267	-94
2.87633	-127
2.88000	-164
2.88367	-205
2.88733	-249
2.89100	-297
2.89467	-347
2.89833	-398
2.90200	-452
2.90567	-506
2.90933	-561
2.91300	-616
2.91667	-672
2.92033	-726
2.92400	-779
2.92767	-830
2.93133	-882
2.93500	-938
2.93867	-997
2.94233	-1051
2.94600	-1088
2.94967	-1102
2.95333	-1090
2.95700	-1053
2.96067	-997
2.96433	-928
2.96800	-850
2.97167	-770
2.97533	-689
2.97900	-611
2.98267	-538
2.98633	-471
2.99000	-409
2.99367	-354
2.99733	-305
3.00100	-262
3.00467	-224
3.00833	-191
3.01200	-162
3.01567	-137
3.01933	-115
3.02300	-97
3.02667	-81
3.03033	-67
3.03400	-55
3.03767	-45
3.04133	-36
3.04500	-28
3.04867	-22
3.05233	-16
3.05600	-12
3.05967	-8
3.06333	-5
3.06700	-2
3.07067	1
3.07433	3
3.07800	5
3.08167	6
3.08533	8
3.08900	9
3.09267	10
3.09633	11
3.10000	12
3.10367	12
3.10733	13
3.11100	14
3.11467	14
3.11833	15
3.12200	15
3.12567	16
3.12933	16
3.13300	17
3.13667	17
3.14033	17
3.14400	18
3.14767	18
3.15133	19
3.15500	19
3.15867	19
3.16233	19
3.16600	20
3.16967	20
3.17333	20
3.17700	21
3.18067	21
3.18433	21
3.18800	22
3.19167	22
3.19533	22
3.19900	22
3.20267	23
3.20633	23
3.21000	23
3.21367	23
3.21733	23
3.22100	23
3.22467	23
3.22833	23
3.23200	22
3.23567	22
3.23933	22
3.24300	22
3.24667	22
3.25033	23
3.25400	23
3.25767	23
3.26133	23
3.26500	22
3.26867	22
3.27233	22
3.27600	22
3.27967	22
3.28333	22
3.28700	23
3.29067	23
3.29433	24
3.29800	24
3.30167	24
3.30533	24
3.30900	24
3.31267	24
3.31633	24
3.32000	24
3.32367	25
3.32733	25
3.33100	25
3.33467	24
3.33833	24
3.34200	24
3.34567	24
3.34933	24
3.35300	24
3.35667	24
3.36033	24
3.36400	24
3.36767	24
3.37133	24
3.37500	24
3.37867	24
3.38233	24
3.38600	24
3.38967	24
3.39333	23
3.39700	23
3.40067	23
3.40433	24
3.40800	24
3.41167	24
3.41533	25
3.41900	25
3.42267	25
3.42633	25
3.43000	25
3.43367	26
3.43733	26
3.44100	26
3.44467	27
3.44833	27
3.45200	27
3.45567	28
3.45933	28
3.46300	28
3.46667	29
3.47033	29
3.47400	30
3.47767	30
3.48133	31
3.48500	31
3.48867	31
3.49233	31
3.49600	31
3.49967	31
3.50333	31
3.50700	30
3.51067	30
3.51433	30
3.51800	30
3.52167	30
3.52533	30
3.52900	30
3.53267	29
3.53633	29
3.54000	29
3.54367	29
3.54733	29
3.55100	29
3.55467	29
3.55833	29
3.56200	29
3.56567	28
3.56933	28
3.57300	28
3.57667	28
3.58033	28
3.58400	28
3.58767	28
3.59133	28
3.59500	28
3.59867	28
3.60233	28
3.60600	28
3.60967	27
3.61333	27
3.61700	27
3.62067	27
3.62433	27
3.62800	27
3.63167	27
3.63533	27
3.63900	26
3.64267	26
3.64633	26
3.65000	27
3.65367	27
3.65733	27
3.66100	27
3.66467	27
3.66833	27
3.67200	28
3.67567	28
3.67933	28
3.68300	28
3.68667	28
3.69033	28
3.69400	28
3.69767	29
3.70133	29
3.70500	29
3.70867	29
3.71233	28
3.71600	28
3.71967	29
3.72333	29
3.72700	29
3.73067	29
3.73433	29
3.73800	29
3.74167	29
3.74533	29
3.74900	28
3.75267	28
3.75633	28
3.76000	28
3.76367	27
3.76733	27
3.77100	27
3.77467	27
3.77833	27
3.78200	27
3.78567	27
3.78933	27
3.79300	27
3.79667	27
3.80033	27
3.80400	27
3.80767	27
3.81133	27
3.81500	27
3.81867	27
3.82233	27
3.82600	27
3.82967	27
3.83333	27
3.83700	26
3.84067	26
3.84433	26
3.84800	26
3.85167	25
3.85533	25
3.85900	25
3.86267	25
3.86633	24
3.87000	24
3.87367	24
3.87733	24
3.88100	24
3.88467	24
3.88833	24
3.89200	24
3.89567	24
3.89933	24
3.90300	24
3.90667	25
3.91033	25
3.91400	25
3.91767	25
3.92133	25
3.92500	25
3.92867	25
3.93233	25
3.93600	25
3.93967	25
3.94333	25
3.94700	25
3.95067	25
3.95433	25
3.95800	25
3.96167	25
3.96533	26
3.96900	26
3.97267	26
3.97633	26
3.98000	26
3.98367	26
3.98733	26
3.99100	26
3.99467	26
3.99833	26

[Chromatogram (Ch3)]
Interval(msec)	220
# of Points	1091
Start Time(min)	0.002
End Time(min)	3.998
R.Time (min)	Intensity
0.00167	-1
0.00533	-1
0.00900	-2
0.01267	-2
0.01633	-2
0.02000	-2
0.02367	-0
0.02733	3
0.03100	6
0.03467	7
0.03833	6
0.04200	5
0.04567	5
0.04933	5
0.05300	5
0.05667	2
0.06033	2
0.06400	5
0.06767	6
0.07133	4
0.07500	3
0.07867	3
0.08233	5
0.08600	5
0.08967	6
0.09333	6
0.09700	6
0.10067	6
0.10433	4
0.10800	2
0.11167	1
0.11533	1
0.11900	2
0.12267	2
0.12633	1
0.13000	2
0.13367	1
0.13733	0
0.14100	0
0.14467	1
0.14833	2
0.15200	1
0.15567	2
0.15933	3
0.16300	2
0.16667	1
0.17033	-2
0.17400	-3
0.17767	-2
0.18133	0
0.18500	2
0.18867	3
0.19233	3
0.19600	4
0.19967	6
0.20333	6
0.20700	5
0.21067	3
0.21433	0
0.21800	-1
0.22167	-1
0.22533	-1
0.22900	-1
0.23267	-3
0.23633	-2
0.24000	1
0.24367	6
0.24733	7
0.25100	8
0.25467	8
0.25833	7
0.26200	7
0.26567	5
0.26933	4
0.27300	6
0.27667	5
0.28033	5
0.28400	6
0.28767	6
0.29133	5
0.29500	4
0.29867	5
0.30233	7
0.30600	9
0.30967	8
0.31333	8
0.31700	9
0.32067	10
0.32433	10
0.32800	8
0.33167	9
0.33533	10
0.33900	10
0.34267	10
0.34633	8
0.35000	6
0.35367	6
0.35733	6
0.36100	6
0.36467	4
0.36833	3
0.37200	2
0.37567	4
0.37933	6
0.38300	6
0.38667	5
0.39033	7
0.39400	7
0.39767	6
0.40133	4
0.40500	2
0.40867	1
0.41233	4
0.41600	4
0.41967	3
0.42333	4
0.42700	5
0.43067	6
0.43433	6
0.43800	6
0.44167	6
0.44533	6
0.44900	10
0.45267	11
0.45633	11
0.46000	8
0.46367	6
0.46733	6
0.47100	6
0.47467	6
0.47833	5
0.48200	4
0.48567	6
0.48933	8
0.49300	7
0.49667	6
0.50033	4
0.50400	4
0.50767	5
0.51133	4
0.51500	3
0.51867	3
0.52233	4
0.52600	6
0.52967	6
0.53333	7
0.53700	6
0.54067	7
0.54433	9
0.54800	9
0.55167	9
0.55533	10
0.55900	11
0.56267	12
0.56633	13
0.57000	14
0.57367	15
0.57733	14
0.58100	13
0.58467	11
0.58833	9
0.59200	6
0.59567	4
0.59933	4
0.60300	7
0.60667	9
0.61033	10
0.61400	11
0.61767	10
0.62133	8
0.62500	5
0.62867	6
0.63233	7
0.63600	8
0.63967	6
0.64333	5
0.64700	4
0.65067	4
0.65433	6
0.65800	8
0.66167	8
0.66533	7
0.66900	8
0.67267	8
0.67633	7
0.68000	8
0.68367	8
0.68733	7
0.69100	6
0.69467	5
0.69833	7
0.70200	7
0.70567	7
0.70933	6
0.71300	7
0.71667	6
0.72033	5
0.72400	7
0.72767	10
0.73133	11
0.73500	11
0.73867	11
0.74233	11
0.74600	10
0.74967	10
0.75333	10
0.75700	12
0.76067	12
0.76433	11
0.76800	11
0.77167	10
0.77533	9
0.77900	10
0.78267	11
0.78633	12
0.79000	11
0.79367	9
0.79733	8
0.80100	8
0.80467	8
0.80833	9
0.81200	10
0.81567	9
0.81933	7
0.82300	7
0.82667	9
0.83033	8
0.83400	7
0.83767	9
0.84133	12
0.84500	14
0.84867	14
0.85233	13
0.85600	12
0.85967	12
0.86333	13
0.86700	13
0.87067	13
0.87433	14
0.87800	17
0.88167	18
0.88533	15
0.88900	14
0.89267	15
0.89633	17
0.90000	18
0.90367	16
0.90733	13
0.91100	14
0.91467	15
0.91833	15
0.92200	14
0.92567	13
0.92933	14
0.93300	15
0.93667	16
0.94033	16
0.94400	14
0.94767	14
0.95133	13
0.95500	11
0.95867	9
0.96233	8
0.96600	10
0.96967	13
0.97333	14
0.97700	13
0.98067	13
0.98433	11
0.98800	9
0.99167	10
0.99533	11
0.99900	10
1.00267	11
1.00633	13
1.01000	15
1.01367	15
1.01733	15
1.02100	16
1.02467	15
1.02833	15
1.03200	15
1.03567	17
1.03933	16
1.04300	15
1.04667	13
1.05033	11
1.05400	9
1.05767	10
1.06133	10
1.06500	9
1.06867	8
1.07233	7
1.07600	8
1.07967	9
1.08333	11
1.08700	14
1.09067	15
1.09433	15
1.09800	15
1.10167	15
1.10533	16
1.10900	20
1.11267	21
1.11633	22
1.12000	22
1.12367	20
1.12733	19
1.13100	20
1.13467	23
1.13833	22
1.14200	20
1.14567	17
1.14933	15
1.15300	14
1.15667	16
1.16033	18
1.16400	19
1.16767	19
1.17133	18
1.17500	20
1.17867	20
1.18233	20
1.18600	20
1.18967	22
1.19333	24
1.19700	23
1.20067	21
1.20433	20
1.20800	19
1.21167	18
1.21533	17
1.21900	16
1.22267	15
1.22633	15
1.23000	17
1.23367	22
1.23733	23
1.24100	24
1.24467	23
1.24833	19
1.25200	17
1.25567	16
1.25933	16
1.26300	15
1.26667	14
1.27033	14
1.27400	15
1.27767	15
1.28133	15
1.28500	16
1.28867	17
1.29233	19
1.29600	19
1.29967	19
1.30333	19
1.30700	18
1.31067	15
1.31433	13
1.31800	13
1.32167	14
1.32533	16
1.32900	18
1.33267	18
1.33633	18
1.34000	18
1.34367	18
1.34733	18
1.35100	17
1.35467	16
1.35833	17
1.36200	18
1.36567	19
1.36933	20
1.37300	19
1.37667	19
1.38033	17
1.38400	17
1.38767	18
1.39133	20
1.39500	21
1.39867	22
1.40233	23
1.40600	21
1.40967	18
1.41333	17
1.41700	15
1.42067	15
1.42433	14
1.42800	12
1.43167	11
1.43533	11
1.43900	12
1.44267	15
1.44633	17
1.45000	17
1.45367	19
1.45733	21
1.46100	22
1.46467	21
1.46833	20
1.47200	19
1.47567	21
1.47933	23
1.48300	23
1.48667	20
1.49033	18
1.49400	21
1.49767	22
1.50133	22
1.50500	23
1.50867	23
1.51233	21
1.51600	19
1.51967	18
1.52333	18
1.52700	20
1.53067	22
1.53433	21
1.53800	21
1.54167	20
1.54533	18
1.54900	18
1.55267	18
1.55633	18
1.56000	19
1.56367	20
1.56733	20
1.57100	19
1.57467	21
1.57833	24
1.58200	24
1.58567	23
1.58933	21
1.59300	21
1.59667	21
1.60033	21
1.60400	19
1.60767	19
1.61133	19
1.61500	20
1.61867	21
1.62233	21
1.62600	22
1.62967	23
1.63333	23
1.63700	25
1.64067	27
1.64433	31
1.64800	32
1.65167	31
1.65533	30
1.65900	30
1.66267	29
1.66633	31
1.67000	31
1.67367	31
1.67733	33
1.68100	34
1.68467	33
1.68833	33
1.69200	34
1.69567	35
1.69933	32
1.70300	29
1.70667	27
1.71033	27
1.71400	27
1.71767	27
1.72133	28
1.72500	29
1.72867	31
1.73233	33
1.73600	35
1.73967	36
1.74333	37
1.74700	39
1.75067	40
1.75433	38
1.75800	36
1.76167	34
1.76533	33
1.76900	35
1.77267	36
1.77633	37
1.78000	38
1.78367	39
1.78733	41
1.79100	41
1.79467	40
1.79833	40
1.80200	41
1.80567	41
1.80933	42
1.81300	42
1.81667	43
1.82033	46
1.82400	48
1.82767	48
1.83133	47
1.83500	48
1.83867	51
1.84233	53
1.84600	53
1.84967	52
1.85333	52
1.85700	51
1.86067	52
1.86433	51
1.86800	52
1.87167	53
1.87533	54
1.87900	55
1.88267	56
1.88633	57
1.89000	58
1.89367	58
1.89733	59
1.90100	60
1.90467	61
1.90833	63
1.91200	64
1.91567	65
1.91933	64
1.92300	65
1.92667	67
1.93033	69
1.93400	71
1.93767	73
1.94133	74
1.94500	74
1.94867	73
1.95233	72
1.95600	73
1.95967	73
1.96333	74
1.96700	75
1.97067	76
1.97433	76
1.97800	75
1.98167	74
1.98533	75
1.98900	78
1.99267	80
1.99633	84
2.00000	86
2.00367	88
2.00733	89
2.01100	89
2.01467	89
2.01833	91
2.02200	91
2.02567	92
2.02933	92
2.03300	92
2.03667	94
2.04033	95
2.04400	97
2.04767	97
2.05133	97
2.05500	99
2.05867	100
2.06233	103
2.06600	103
2.06967	103
2.07333	103
2.07700	103
2.08067	105
2.08433	107
2.08800	106
2.09167	106
2.09533	106
2.09900	108
2.10267	109
2.10633	109
2.11000	109
2.11367	111
2.11733	116
2.12100	120
2.12467	122
2.12833	123
2.13200	123
2.13567	124
2.13933	126
2.14300	128
2.14667	132
2.15033	134
2.15400	136
2.15767	138
2.16133	137
2.16500	135
2.16867	135
2.17233	139
2.17600	144
2.17967	146
2.18333	147
2.18700	147
2.19067	149
2.19433	151
2.19800	149
2.20167	149
2.20533	152
2.20900	153
2.21267	154
2.21633	154
2.22000	153
2.22367	156
2.22733	160
2.23100	165
2.23467	168
2.23833	170
2.24200	169
2.24567	169
2.24933	171
2.25300	173
2.25667	174
2.26033	175
2.26400	175
2.26767	176
2.27133	180
2.27500	183
2.27867	183
2.28233	184
2.28600	185
2.28967	185
2.29333	187
2.29700	189
2.30067	190
2.30433	191
2.30800	195
2.31167	199
2.31533	203
2.31900	206
2.32267	208
2.32633	210
2.33000	212
2.33367	211
2.33733	213
2.34100	215
2.34467	219
2.34833	221
2.35200	221
2.35567	220
2.35933	223
2.36300	227
2.36667	232
2.37033	234
2.37400	235
2.37767	235
2.38133	238
2.38500	237
2.38867	235
2.39233	235
2.39600	239
2.39967	245
2.40333	250
2.40700	255
2.41067	262
2.41433	265
2.41800	267
2.42167	269
2.42533	272
2.42900	277
2.43267	281
2.43633	283
2.44000	284
2.44367	342
2.44733	494
2.45100	661
2.45467	802
2.45833	888
2.46200	902
2.46567	873
2.46933	837
2.47300	809
2.47667	792
2.48033	780
2.48400	758
2.48767	724
2.49133	679
2.49500	632
2.49867	594
2.50233	566
2.50600	548
2.50967	541
2.51333	542
2.51700	552
2.52067	571
2.52433	595
2.52800	616
2.53167	627
2.53533	625
2.53900	612
2.54267	590
2.54633	564
2.55000	534
2.55367	504
2.55733	478
2.56100	456
2.56467	440
2.56833	429
2.57200	422
2.57567	418
2.57933	415
2.58300	415
2.58667	413
2.59033	413
2.59400	412
2.59767	411
2.60133	408
2.60500	400
2.60867	388
2.61233	374
2.61600	359
2.61967	349
2.62333	340
2.62700	332
2.63067	328
2.63433	329
2.63800	328
2.64167	329
2.64533	328
2.64900	329
2.65267	328
2.65633	323
2.66000	315
2.66367	308
2.66733	300
2.67100	291
2.67467	281
2.67833	271
2.68200	265
2.68567	259
2.68933	251
2.69300	243
2.69667	237
2.70033	233
2.70400	233
2.70767	234
2.71133	235
2.71500	236
2.71867	238
2.72233	238
2.72600	240
2.72967	242
2.73333	247
2.73700	251
2.74067	253
2.74433	253
2.74800	252
2.75167	251
2.75533	253
2.75900	257
2.76267	259
2.76633	261
2.77000	262
2.77367	264
2.77733	265
2.78100	267
2.78467	269
2.78833	269
2.79200	269
2.79567	271
2.79933	274
2.80300	279
2.80667	285
2.81033	288
2.81400	290
2.81767	296
2.82133	309
2.82500	336
2.82867	391
2.83233	494
2.83600	666
2.83967	933
2.84333	1307
2.84700	1785
2.85067	2351
2.85433	2970
2.85800	3597
2.86167	4181
2.86533	4679
2.86900	5050
2.87267	5264
2.87633	5325
2.88000	5252
2.88367	5069
2.88733	4798
2.89100	4472
2.89467	4118
2.89833	3754
2.90200	3397
2.90567	3056
2.90933	2738
2.91300	2447
2.91667	2183
2.92033	1947
2.92400	1739
2.92767	1554
2.93133	1395
2.93500	1252
2.93867	1127
2.94233	1019
2.94600	925
2.94967	842
2.95333	771
2.95700	707
2.96067	650
2.96433	600
2.96800	559
2.97167	522
2.97533	490
2.97900	464
2.98267	442
2.98633	422
2.99000	405
2.99367	391
2.99733	378
3.00100	368
3.00467	358
3.00833	347
3.01200	336
3.01567	328
3.01933	323
3.02300	318
3.02667	312
3.03033	308
3.03400	303
3.03767	301
3.04133	299
3.04500	297
3.04867	294
3.05233	292
3.05600	289
3.05967	285
3.06333	282
3.06700	284
3.07067	285
3.07433	285
3.07800	283
3.08167	282
3.08533	282
3.08900	281
3.09267	281
3.09633	277
3.10000	276
3.10367	278
3.10733	279
3.11100	282
3.11467	284
3.11833	282
3.12200	280
3.12567	280
3.12933	279
3.13300	279
3.13667	280
3.14033	281
3.14400	282
3.14767	283
3.15133	284
3.15500	285
3.15867	283
3.16233	282
3.16600	277
3.16967	246
3.17333	208
3.17700	189
3.18067	190
3.18433	206
3.18800	236
3.19167	277
3.19533	322
3.19900	368
3.20267	411
3.20633	454
3.21000	494
3.21367	531
3.21733	562
3.22100	588
3.22467	610
3.22833	631
3.23200	650
3.23567	668
3.23933	680
3.24300	691
3.24667	702
3.25033	714
3.25400	727
3.25767	734
3.26133	739
3.26500	747
3.26867	754
3.27233	760
3.27600	764
3.27967	769
3.28333	774
3.28700	777
3.29067	780
3.29433	785
3.29800	788
3.30167	792
3.30533	797
3.30900	805
3.31267	812
3.31633	817
3.32000	823
3.32367	826
3.32733	829
3.33100	833
3.33467	837
3.33833	842
3.34200	849
3.34567	856
3.34933	861
3.35300	866
3.35667	871
3.36033	875
3.36400	880
3.36767	885
3.37133	888
3.37500	891
3.37867	894
3.38233	896
3.38600	900
3.38967	902
3.39333	904
3.39700	909
3.40067	913
3.40433	914
3.40800	916
3.41167	917
3.41533	916
3.41900	916
3.42267	916
3.42633	916
3.43000	916
3.43367	914
3.43733	910
3.44100	907
3.44467	904
3.44833	903
3.45200	902
3.45567	898
3.45933	893
3.46300	891
3.46667	888
3.47033	885
3.47400	882
3.47767	878
3.48133	875
3.48500	871
3.48867	866
3.49233	861
3.49600	858
3.49967	856
3.50333	856
3.50700	854
3.51067	848
3.51433	843
3.51800	841
3.52167	840
3.52533	840
3.52900	841
3.53267	839
3.53633	837
3.54000	836
3.54367	834
3.54733	832
3.55100	831
3.55467	829
3.55833	829
3.56200	831
3.56567	832
3.56933	830
3.57300	827
3.57667	826
3.58033	826
3.58400	828
3.58767	830
3.59133	831
3.59500	831
3.59867	832
3.60233	833
3.60600	832
3.60967	832
3.61333	831
3.61700	831
3.62067	831
3.62433	830
3.62800	829
3.63167	828
3.63533	826
3.63900	826
3.64267	825
3.64633	825
3.65000	826
3.65367	826
3.65733	827
3.66100	826
3.66467	825
3.66833	826
3.67200	827
3.67567	824
3.67933	821
3.68300	820
3.68667	820
3.69033	821
3.69400	819
3.69767	819
3.70133	819
3.70500	820
3.70867	822
3.71233	822
3.71600	822
3.71967	821
3.72333	820
3.72700	819
3.73067	818
3.73433	815
3.73800	814
3.74167	815
3.74533	816
3.74900	816
3.75267	813
3.75633	809
3.76000	808
3.76367	808
3.76733	808
3.77100	809
3.77467	807
3.77833	806
3.78200	804
3.78567	802
3.78933	802
3.79300	802
3.79667	799
3.80033	800
3.80400	799
3.80767	797
3.81133	795
3.81500	794
3.81867	791
3.82233	790
3.82600	787
3.82967	784
3.83333	783
3.83700	782
3.84067	783
3.84433	783
3.84800	783
3.85167	784
3.85533	782
3.85900	780
3.86267	777
3.86633	774
3.87000	772
3.87367	770
3.87733	767
3.88100	765
3.88467	766
3.88833	766
3.89200	766
3.89567	762
3.89933	758
3.90300	758
3.90667	757
3.91033	755
3.91400	752
3.91767	750
3.92133	747
3.92500	745
3.92867	744
3.93233	744
3.93600	745
3.93967	748
3.94333	747
3.94700	743
3.95067	741
3.95433	738
3.95800	735
3.96167	731
3.96533	728
3.96900	727
3.97267	728
3.97633	728
3.98000	724
3.98367	721
3.98733	721
3.99100	720
3.99467	718
3.99833	714

[Status Trace (Column Oven Temperature)]
Interval(msec)	1000
# of Points	240
Start Time(min)	0.006
End Time(min)	3.989
Intensity Units	
Intensity Multiplier	1
R.Time (min)	Intensity
0.00562	35.03
0.02228	35.03
0.03895	35.04
0.05562	35.03
0.07228	35.05
0.08895	35.04
0.10562	35.02
0.12228	35.02
0.13895	35.03
0.15562	35.03
0.17228	35.03
0.18895	35.01
0.20562	35.01
0.22228	35.01
0.23895	35.01
0.25562	35.01
0.27228	35.02
0.28895	35.03
0.30562	35.03
0.32228	35.02
0.33895	35.02
0.35562	35.02
0.37228	35.01
0.38895	35.02
0.40562	35.02
0.42228	35.01
0.43895	35.01
0.45562	35.01
0.47228	35.01
0.48895	35.01
0.50562	35.01
0.52228	35.01
0.53895	35.00
0.55562	35.00
0.57228	35.01
0.58895	35.03
0.60562	35.04
0.62228	35.03
0.63895	35.03
0.65562	35.02
0.67228	35.03
0.68895	35.03
0.70562	35.04
0.72228	35.04
0.73895	35.04
0.75562	35.04
0.77228	35.04
0.78895	35.02
0.80562	35.02
0.82228	35.01
0.83895	34.99
0.85562	34.99
0.87228	34.99
0.88895	35.00
0.90562	35.00
0.92228	35.00
0.93895	35.01
0.95562	35.01
0.97228	35.01
0.98895	35.01
1.00562	35.00
1.02228	35.00
1.03895	35.00
1.05562	35.00
1.07228	35.01
1.08895	35.02
1.10562	35.02
1.12228	35.03
1.13895	35.02
1.15562	35.02
1.17228	35.01
1.18895	35.01
1.20562	35.01
1.22228	35.00
1.23895	34.99
1.25562	34.98
1.27228	34.98
1.28895	34.99
1.30562	34.99
1.32228	34.99
1.33895	35.00
1.35562	35.01
1.37228	35.02
1.38895	35.02
1.40562	35.01
1.42228	35.00
1.43895	35.00
1.45562	35.01
1.47228	35.02
1.48895	35.02
1.50562	35.02
1.52228	35.01
1.53895	35.00
1.55562	34.99
1.57228	34.96
1.58895	34.97
1.60562	35.02
1.62228	35.14
1.63895	35.34
1.65562	35.59
1.67228	35.95
1.68895	36.30
1.70562	36.65
1.72228	36.98
1.73895	37.29
1.75562	37.63
1.77228	37.97
1.78895	38.31
1.80562	38.63
1.82228	38.96
1.83895	39.30
1.85562	39.63
1.87228	39.96
1.88895	40.31
1.90562	40.62
1.92228	40.95
1.93895	41.27
1.95562	41.60
1.97228	41.92
1.98895	42.23
2.00562	42.58
2.02228	42.91
2.03895	43.23
2.05562	43.55
2.07228	43.89
2.08895	44.20
2.10562	44.54
2.12228	44.86
2.13895	45.18
2.15562	45.51
2.17228	45.85
2.18895	46.16
2.20562	46.48
2.22228	46.78
2.23895	47.14
2.25562	47.46
2.27228	47.77
2.28895	48.14
2.30562	48.47
2.32228	48.80
2.33895	49.12
2.35562	49.40
2.37228	49.60
2.38895	49.68
2.40562	49.67
2.42228	49.67
2.43895	49.69
2.45562	49.70
2.47228	49.71
2.48895	49.74
2.50562	49.75
2.52228	49.75
2.53895	49.78
2.55562	49.78
2.57228	49.78
2.58895	49.79
2.60562	49.80
2.62228	49.81
2.63895	49.83
2.65562	49.83
2.67228	49.83
2.68895	49.84
2.70562	49.86
2.72228	49.86
2.73895	49.84
2.75562	49.87
2.77228	49.89
2.78895	49.89
2.80562	49.88
2.82228	49.88
2.83895	49.88
2.85562	49.89
2.87228	49.89
2.88895	49.90
2.90562	49.91
2.92228	49.92
2.93895	49.94
2.95562	49.96
2.97228	49.97
2.98895	49.98
3.00562	49.99
3.02228	50.00
3.03895	50.00
3.05562	50.00
3.07228	50.00
3.08895	50.01
3.10562	50.02
3.12228	50.02
3.13895	50.04
3.15562	50.03
3.17228	50.03
3.18895	50.02
3.20562	50.02
3.22228	50.03
3.23895	50.04
3.25562	50.04
3.27228	50.05
3.28895	50.05
3.30562	50.06
3.32228	50.06
3.33895	50.07
3.35562	50.08
3.37228	50.09
3.38895	50.11
3.40562	50.12
3.42228	50.12
3.43895	50.12
3.45562	50.11
3.47228	50.08
3.48895	50.06
3.50562	50.04
3.52228	50.04
3.53895	50.03
3.55562	50.04
3.57228	50.04
3.58895	50.03
3.60562	50.04
3.62228	50.04
3.63895	50.04
3.65562	50.03
3.67228	50.03
3.68895	50.02
3.70562	50.02
3.72228	50.01
3.73895	50.01
3.75562	50.01
3.77228	50.01
3.78895	50.01
3.80562	50.00
3.82228	50.00
3.83895	50.01
3.85562	50.02
3.87228	50.03
3.88895	50.04
3.90562	50.04
3.92228	50.05
3.93895	50.05
3.95562	50.06
3.97228	50.05
3.98895	50.05

[Status Trace (Injection Unit Temperature)]
Interval(msec)	1000
# of Points	240
Start Time(min)	0.006
End Time(min)	3.989
Intensity Units	
Intensity Multiplier	1
R.Time (min)	Intensity
0.00562	99.98
0.02228	99.98
0.03895	99.98
0.05562	99.98
0.07228	99.99
0.08895	99.98
0.10562	99.98
0.12228	99.98
0.13895	99.98
0.15562	99.98
0.17228	99.98
0.18895	99.99
0.20562	99.98
0.22228	99.98
0.23895	99.98
0.25562	99.98
0.27228	99.99
0.28895	99.98
0.30562	99.98
0.32228	99.98
0.33895	99.98
0.35562	99.98
0.37228	99.98
0.38895	99.98
0.40562	99.98
0.42228	99.98
0.43895	99.98
0.45562	99.98
0.47228	99.98
0.48895	99.98
0.50562	99.98
0.52228	99.98
0.53895	99.99
0.55562	99.98
0.57228	99.98
0.58895	99.98
0.60562	99.98
0.62228	99.98
0.63895	99.98
0.65562	99.99
0.67228	99.98
0.68895	99.98
0.70562	99.98
0.72228	99.98
0.73895	99.98
0.75562	99.98
0.77228	99.98
0.78895	99.98
0.80562	99.98
0.82228	99.98
0.83895	99.98
0.85562	99.98
0.87228	99.98
0.88895	99.98
0.90562	99.98
0.92228	99.98
0.93895	99.99
0.95562	99.98
0.97228	99.98
0.98895	99.98
1.00562	99.98
1.02228	99.98
1.03895	99.98
1.05562	99.98
1.07228	99.99
1.08895	99.98
1.10562	99.99
1.12228	99.99
1.13895	99.98
1.15562	99.98
1.17228	99.98
1.18895	99.98
1.20562	99.98
1.22228	99.98
1.23895	99.98
1.25562	99.98
1.27228	99.98
1.28895	99.99
1.30562	99.98
1.32228	99.98
1.33895	99.99
1.35562	99.99
1.37228	99.99
1.38895	99.98
1.40562	99.98
1.42228	99.99
1.43895	99.99
1.45562	99.98
1.47228	99.98
1.48895	99.99
1.50562	99.98
1.52228	99.99
1.53895	99.99
1.55562	99.99
1.57228	99.98
1.58895	99.99
1.60562	99.99
1.62228	99.99
1.63895	99.99
1.65562	99.99
1.67228	99.99
1.68895	99.99
1.70562	99.99
1.72228	99.99
1.73895	99.99
1.75562	99.99
1.77228	99.98
1.78895	99.99
1.80562	99.99
1.82228	99.99
1.83895	99.99
1.85562	99.99
1.87228	99.98
1.88895	99.98
1.90562	99.98
1.92228	99.98
1.93895	99.98
1.95562	99.98
1.97228	99.98
1.98895	99.98
2.00562	99.98
2.02228	99.98
2.03895	99.98
2.05562	99.97
2.07228	99.98
2.08895	99.97
2.10562	99.98
2.12228	99.97
2.13895	99.97
2.15562	99.97
2.17228	99.97
2.18895	99.97
2.20562	99.97
2.22228	99.97
2.23895	99.97
2.25562	99.97
2.27228	99.97
2.28895	99.97
2.30562	99.96
2.32228	99.96
2.33895	99.96
2.35562	99.96
2.37228	99.96
2.38895	99.96
2.40562	99.96
2.42228	99.96
2.43895	99.97
2.45562	99.96
2.47228	99.97
2.48895	99.97
2.50562	99.97
2.52228	99.97
2.53895	99.96
2.55562	99.97
2.57228	99.97
2.58895	99.97
2.60562	99.97
2.62228	99.97
2.63895	99.98
2.65562	99.98
2.67228	99.98
2.68895	99.98
2.70562	99.98
2.72228	99.99
2.73895	99.99
2.75562	99.99
2.77228	99.99
2.78895	100.00
2.80562	99.99
2.82228	100.00
2.83895	100.00
2.85562	100.00
2.87228	100.00
2.88895	100.00
2.90562	100.00
2.92228	100.01
2.93895	100.01
2.95562	100.01
2.97228	100.01
2.98895	100.01
3.00562	100.01
3.02228	100.01
3.03895	100.01
3.05562	100.01
3.07228	100.02
3.08895	100.02
3.10562	100.02
3.12228	100.02
3.13895	100.02
3.15562	100.02
3.17228	100.02
3.18895	100.02
3.20562	100.02
3.22228	100.02
3.23895	100.02
3.25562	100.03
3.27228	100.03
3.28895	100.03
3.30562	100.03
3.32228	100.03
3.33895	100.03
3.35562	100.04
3.37228	100.04
3.38895	100.03
3.40562	100.04
3.42228	100.03
3.43895	100.04
3.45562	100.04
3.47228	100.04
3.48895	100.03
3.50562	100.03
3.52228	100.04
3.53895	100.04
3.55562	100.04
3.57228	100.04
3.58895	100.04
3.60562	100.04
3.62228	100.04
3.63895	100.04
3.65562	100.04
3.67228	100.04
3.68895	100.03
3.70562	100.04
3.72228	100.04
3.73895	100.04
3.75562	100.04
3.77228	100.04
3.78895	100.05
3.80562	100.04
3.82228	100.05
3.83895	100.05
3.85562	100.04
3.87228	100.04
3.88895	100.05
3.90562	100.04
3.92228	100.04
3.93895	100.04
3.95562	100.04
3.97228	100.04
3.98895	100.04

[Status Trace (Carrier Gas Pressure)]
Interval(msec)	1000
# of Points	240
Start Time(min)	0.006
End Time(min)	3.989
Intensity Units	
Intensity Multiplier	1
R.Time (min)	Intensity
0.00562	58.00
0.02228	55.71
0.03895	56.84
0.05562	58.94
0.07228	59.67
0.08895	58.12
0.10562	57.97
0.12228	58.01
0.13895	58.01
0.15562	58.01
0.17228	58.00
0.18895	58.00
0.20562	58.00
0.22228	58.00
0.23895	58.00
0.25562	58.00
0.27228	58.00
0.28895	58.00
0.30562	58.00
0.32228	58.00
0.33895	58.00
0.35562	58.00
0.37228	58.00
0.38895	58.00
0.40562	58.00
0.42228	58.00
0.43895	58.00
0.45562	58.00
0.47228	58.00
0.48895	58.00
0.50562	58.00
0.52228	58.00
0.53895	58.00
0.55562	58.00
0.57228	58.00
0.58895	58.00
0.60562	58.00
0.62228	58.00
0.63895	58.00
0.65562	58.00
0.67228	58.00
0.68895	58.00
0.70562	58.00
0.72228	58.00
0.73895	58.00
0.75562	58.00
0.77228	58.00
0.78895	58.00
0.80562	58.00
0.82228	58.00
0.83895	58.00
0.85562	58.00
0.87228	58.00
0.88895	58.00
0.90562	58.00
0.92228	58.00
0.93895	58.00
0.95562	58.00
0.97228	58.00
0.98895	58.00
1.00562	58.00
1.02228	58.00
1.03895	58.00
1.05562	58.00
1.07228	58.00
1.08895	58.00
1.10562	58.00
1.12228	58.00
1.13895	58.00
1.15562	58.00
1.17228	58.00
1.18895	58.00
1.20562	58.00
1.22228	58.00
1.23895	58.00
1.25562	58.00
1.27228	58.00
1.28895	58.00
1.30562	58.00
1.32228	58.00
1.33895	58.00
1.35562	58.00
1.37228	58.00
1.38895	58.00
1.40562	58.00
1.42228	58.00
1.43895	58.00
1.45562	58.00
1.47228	58.00
1.48895	58.00
1.50562	58.00
1.52228	58.00
1.53895	58.00
1.55562	58.00
1.57228	58.00
1.58895	58.00
1.60562	58.00
1.62228	58.00
1.63895	58.01
1.65562	58.00
1.67228	58.01
1.68895	58.00
1.70562	58.00
1.72228	58.00
1.73895	58.00
1.75562	58.00
1.77228	58.00
1.78895	58.00
1.80562	58.00
1.82228	58.00
1.83895	58.00
1.85562	58.00
1.87228	58.00
1.88895	58.00
1.90562	58.00
1.92228	58.00
1.93895	58.00
1.95562	58.00
1.97228	58.00
1.98895	58.00
2.00562	58.00
2.02228	58.00
2.03895	58.00
2.05562	58.00
2.07228	58.00
2.08895	58.00
2.10562	58.00
2.12228	58.00
2.13895	58.00
2.15562	58.00
2.17228	58.00
2.18895	58.00
2.20562	58.00
2.22228	58.00
2.23895	58.00
2.25562	58.00
2.27228	58.00
2.28895	58.00
2.30562	58.00
2.32228	58.00
2.33895	58.00
2.35562	58.00
2.37228	58.00
2.38895	57.99
2.40562	57.99
2.42228	58.00
2.43895	58.00
2.45562	58.00
2.47228	58.00
2.48895	58.00
2.50562	57.99
2.52228	57.99
2.53895	58.00
2.55562	58.00
2.57228	58.00
2.58895	58.00
2.60562	58.00
2.62228	58.00
2.63895	58.00
2.65562	58.00
2.67228	58.00
2.68895	58.00
2.70562	58.00
2.72228	58.00
2.73895	58.00
2.75562	58.00
2.77228	58.00
2.78895	58.00
2.80562	58.00
2.82228	58.00
2.83895	58.00
2.85562	58.00
2.87228	58.00
2.88895	58.00
2.90562	58.00
2.92228	58.00
2.93895	58.00
2.95562	58.00
2.97228	58.00
2.98895	58.00
3.00562	58.00
3.02228	58.00
3.03895	58.00
3.05562	58.00
3.07228	58.00
3.08895	58.00
3.10562	58.00
3.12228	58.00
3.13895	58.00
3.15562	58.00
3.17228	58.00
3.18895	58.00
3.20562	58.00
3.22228	58.00
3.23895	58.00
3.25562	58.00
3.27228	58.00
3.28895	58.00
3.30562	58.00
3.32228	58.00
3.33895	58.00
3.35562	58.00
3.37228	58.00
3.38895	58.00
3.40562	58.00
3.42228	58.00
3.43895	58.00
3.45562	58.00
3.47228	58.00
3.48895	58.00
3.50562	58.00
3.52228	58.00
3.53895	58.00
3.55562	58.00
3.57228	58.00
3.58895	58.00
3.60562	58.00
3.62228	58.00
3.63895	58.00
3.65562	58.00
3.67228	58.00
3.68895	58.00
3.70562	58.00
3.72228	58.00
3.73895	58.00
3.75562	58.00
3.77228	58.00
3.78895	58.00
3.80562	58.00
3.82228	58.00
3.83895	58.00
3.85562	58.00
3.87228	58.00
3.88895	58.00
3.90562	58.00
3.92228	58.00
3.93895	58.00
3.95562	58.00
3.97228	58.00
3.98895	58.00

[Status Trace (Carrier Gas Flow)]
Interval(msec)	1000
# of Points	240
Start Time(min)	0.006
End Time(min)	3.989
Intensity Units	
Intensity Multiplier	1
R.Time (min)	Intensity
0.00562	34.52
0.02228	34.55
0.03895	34.55
0.05562	34.55
0.07228	34.50
0.08895	34.52
0.10562	34.52
0.12228	34.52
0.13895	34.52
0.15562	34.52
0.17228	34.52
0.18895	34.52
0.20562	34.52
0.22228	34.52
0.23895	34.52
0.25562	34.52
0.27228	34.52
0.28895	34.52
0.30562	34.52
0.32228	34.52
0.33895	34.52
0.35562	34.52
0.37228	34.52
0.38895	34.52
0.40562	34.52
0.42228	34.52
0.43895	34.52
0.45562	34.52
0.47228	34.51
0.48895	34.52
0.50562	34.52
0.52228	34.51
0.53895	34.51
0.55562	34.52
0.57228	34.52
0.58895	34.52
0.60562	34.52
0.62228	34.51
0.63895	34.52
0.65562	34.52
0.67228	34.51
0.68895	34.52
0.70562	34.52
0.72228	34.51
0.73895	34.52
0.75562	34.52
0.77228	34.52
0.78895	34.52
0.80562	34.52
0.82228	34.52
0.83895	34.52
0.85562	34.52
0.87228	34.52
0.88895	34.52
0.90562	34.52
0.92228	34.52
0.93895	34.52
0.95562	34.52
0.97228	34.52
0.98895	34.52
1.00562	34.52
1.02228	34.52
1.03895	34.52
1.05562	34.52
1.07228	34.52
1.08895	34.52
1.10562	34.52
1.12228	34.52
1.13895	34.52
1.15562	34.52
1.17228	34.52
1.18895	34.52
1.20562	34.52
1.22228	34.52
1.23895	34.51
1.25562	34.52
1.27228	34.52
1.28895	34.52
1.30562	34.51
1.32228	34.52
1.33895	34.52
1.35562	34.52
1.37228	34.52
1.38895	34.51
1.40562	34.51
1.42228	34.52
1.43895	34.52
1.45562	34.51
1.47228	34.51
1.48895	34.52
1.50562	34.52
1.52228	34.52
1.53895	34.52
1.55562	34.52
1.57228	34.52
1.58895	34.52
1.60562	34.52
1.62228	34.51
1.63895	34.52
1.65562	34.52
1.67228	34.52
1.68895	34.52
1.70562	34.52
1.72228	34.52
1.73895	34.52
1.75562	34.51
1.77228	34.51
1.78895	34.52
1.80562	34.52
1.82228	34.52
1.83895	34.52
1.85562	34.52
1.87228	34.52
1.88895	34.52
1.90562	34.52
1.92228	34.52
1.93895	34.52
1.95562	34.52
1.97228	34.51
1.98895	34.52
2.00562	34.52
2.02228	34.52
2.03895	34.52
2.05562	34.52
2.07228	34.52
2.08895	34.52
2.10562	34.52
2.12228	34.52
2.13895	34.52
2.15562	34.52
2.17228	34.52
2.18895	34.52
2.20562	34.52
2.22228	34.52
2.23895	34.52
2.25562	34.52
2.27228	34.52
2.28895	34.52
2.30562	34.52
2.32228	34.52
2.33895	34.52
2.35562	34.52
2.37228	34.52
2.38895	34.52
2.40562	34.52
2.42228	34.52
2.43895	34.52
2.45562	34.52
2.47228	34.52
2.48895	34.52
2.50562	34.52
2.52228	34.52
2.53895	34.52
2.55562	34.52
2.57228	34.52
2.58895	34.52
2.60562	34.52
2.62228	34.52
2.63895	34.52
2.65562	34.52
2.67228	34.52
2.68895	34.52
2.70562	34.52
2.72228	34.52
2.73895	34.52
2.75562	34.52
2.77228	34.52
2.78895	34.52
2.80562	34.52
2.82228	34.52
2.83895	34.52
2.85562	34.52
2.87228	34.52
2.88895	34.52
2.90562	34.52
2.92228	34.52
2.93895	34.51
2.95562	34.52
2.97228	34.52
2.98895	34.52
3.00562	34.52
3.02228	34.52
3.03895	34.52
3.05562	34.52
3.07228	34.52
3.08895	34.52
3.10562	34.52
3.12228	34.52
3.13895	34.52
3.15562	34.52
3.17228	34.52
3.18895	34.52
3.20562	34.52
3.22228	34.52
3.23895	34.51
3.25562	34.52
3.27228	34.52
3.28895	34.52
3.30562	34.52
3.32228	34.52
3.33895	34.52
3.35562	34.53
3.37228	34.52
3.38895	34.52
3.40562	34.52
3.42228	34.52
3.43895	34.52
3.45562	34.52
3.47228	34.52
3.48895	34.51
3.50562	34.52
3.52228	34.52
3.53895	34.52
3.55562	34.52
3.57228	34.52
3.58895	34.52
3.60562	34.52
3.62228	34.52
3.63895	34.52
3.65562	34.52
3.67228	34.51
3.68895	34.52
3.70562	34.52
3.72228	34.52
3.73895	34.52
3.75562	34.52
3.77228	34.52
3.78895	34.52
3.80562	34.52
3.82228	34.52
3.83895	34.52
3.85562	34.52
3.87228	34.52
3.88895	34.52
3.90562	34.52
3.92228	34.52
3.93895	34.52
3.95562	34.52
3.97228	34.52
3.98895	34.52

[Status Trace (Column Flow)]
Interval(msec)	1000
# of Points	240
Start Time(min)	0.006
End Time(min)	3.989
Intensity Units	
Intensity Multiplier	1
R.Time (min)	Intensity
0.00562	5.52
0.02228	5.26
0.03895	5.39
0.05562	5.63
0.07228	5.72
0.08895	5.54
0.10562	5.52
0.12228	5.52
0.13895	5.52
0.15562	5.52
0.17228	5.52
0.18895	5.52
0.20562	5.52
0.22228	5.52
0.23895	5.52
0.25562	5.52
0.27228	5.52
0.28895	5.52
0.30562	5.52
0.32228	5.52
0.33895	5.52
0.35562	5.52
0.37228	5.52
0.38895	5.52
0.40562	5.52
0.42228	5.52
0.43895	5.52
0.45562	5.52
0.47228	5.52
0.48895	5.52
0.50562	5.52
0.52228	5.52
0.53895	5.52
0.55562	5.52
0.57228	5.52
0.58895	5.52
0.60562	5.52
0.62228	5.52
0.63895	5.52
0.65562	5.52
0.67228	5.52
0.68895	5.52
0.70562	5.52
0.72228	5.52
0.73895	5.52
0.75562	5.52
0.77228	5.52
0.78895	5.52
0.80562	5.52
0.82228	5.52
0.83895	5.52
0.85562	5.52
0.87228	5.52
0.88895	5.52
0.90562	5.52
0.92228	5.52
0.93895	5.52
0.95562	5.52
0.97228	5.52
0.98895	5.52
1.00562	5.52
1.02228	5.52
1.03895	5.52
1.05562	5.52
1.07228	5.52
1.08895	5.52
1.10562	5.52
1.12228	5.52
1.13895	5.52
1.15562	5.52
1.17228	5.52
1.18895	5.52
1.20562	5.52
1.22228	5.52
1.23895	5.52
1.25562	5.52
1.27228	5.52
1.28895	5.52
1.30562	5.52
1.32228	5.52
1.33895	5.52
1.35562	5.52
1.37228	5.52
1.38895	5.52
1.40562	5.52
1.42228	5.52
1.43895	5.52
1.45562	5.52
1.47228	5.52
1.48895	5.52
1.50562	5.52
1.52228	5.52
1.53895	5.52
1.55562	5.52
1.57228	5.52
1.58895	5.52
1.60562	5.52
1.62228	5.52
1.63895	5.51
1.65562	5.51
1.67228	5.49
1.68895	5.48
1.70562	5.47
1.72228	5.46
1.73895	5.45
1.75562	5.44
1.77228	5.43
1.78895	5.42
1.80562	5.41
1.82228	5.40
1.83895	5.39
1.85562	5.38
1.87228	5.37
1.88895	5.36
1.90562	5.35
1.92228	5.34
1.93895	5.33
1.95562	5.32
1.97228	5.31
1.98895	5.30
2.00562	5.29
2.02228	5.28
2.03895	5.27
2.05562	5.26
2.07228	5.25
2.08895	5.24
2.10562	5.24
2.12228	5.23
2.13895	5.22
2.15562	5.21
2.17228	5.20
2.18895	5.19
2.20562	5.18
2.22228	5.17
2.23895	5.16
2.25562	5.15
2.27228	5.14
2.28895	5.13
2.30562	5.12
2.32228	5.11
2.33895	5.10
2.35562	5.10
2.37228	5.09
2.38895	5.09
2.40562	5.09
2.42228	5.09
2.43895	5.09
2.45562	5.09
2.47228	5.09
2.48895	5.09
2.50562	5.09
2.52228	5.09
2.53895	5.09
2.55562	5.09
2.57228	5.09
2.58895	5.09
2.60562	5.09
2.62228	5.09
2.63895	5.08
2.65562	5.08
2.67228	5.08
2.68895	5.08
2.70562	5.08
2.72228	5.08
2.73895	5.08
2.75562	5.08
2.77228	5.08
2.78895	5.08
2.80562	5.08
2.82228	5.08
2.83895	5.08
2.85562	5.08
2.87228	5.08
2.88895	5.08
2.90562	5.08
2.92228	5.08
2.93895	5.08
2.95562	5.08
2.97228	5.08
2.98895	5.08
3.00562	5.08
3.02228	5.08
3.03895	5.08
3.05562	5.08
3.07228	5.08
3.08895	5.08
3.10562	5.08
3.12228	5.08
3.13895	5.08
3.15562	5.08
3.17228	5.08
3.18895	5.08
3.20562	5.08
3.22228	5.08
3.23895	5.08
3.25562	5.08
3.27228	5.08
3.28895	5.08
3.30562	5.08
3.32228	5.08
3.33895	5.08
3.35562	5.08
3.37228	5.08
3.38895	5.08
3.40562	5.08
3.42228	5.08
3.43895	5.08
3.45562	5.08
3.47228	5.08
3.48895	5.08
3.50562	5.08
3.52228	5.08
3.53895	5.08
3.55562	5.08
3.57228	5.08
3.58895	5.08
3.60562	5.08
3.62228	5.08
3.63895	5.08
3.65562	5.08
3.67228	5.08
3.68895	5.08
3.70562	5.08
3.72228	5.08
3.73895	5.08
3.75562	5.08
3.77228	5.08
3.78895	5.08
3.80562	5.08
3.82228	5.08
3.83895	5.08
3.85562	5.08
3.87228	5.08
3.88895	5.08
3.90562	5.08
3.92228	5.08
3.93895	5.08
3.95562	5.08
3.97228	5.08
3.98895	5.08

[Status Trace (Linear Velocity)]
Interval(msec)	1000
# of Points	240
Start Time(min)	0.006
End Time(min)	3.989
Intensity Units	
Intensity Multiplier	1
R.Time (min)	Intensity
0.00562	39.01
0.02228	37.51
0.03895	38.25
0.05562	39.63
0.07228	40.10
0.08895	39.09
0.10562	39.00
0.12228	39.02
0.13895	39.02
0.15562	39.02
0.17228	39.02
0.18895	39.02
0.20562	39.02
0.22228	39.02
0.23895	39.02
0.25562	39.02
0.27228	39.02
0.28895	39.01
0.30562	39.01
0.32228	39.02
0.33895	39.02
0.35562	39.01
0.37228	39.01
0.38895	39.02
0.40562	39.01
0.42228	39.02
0.43895	39.02
0.45562	39.02
0.47228	39.02
0.48895	39.02
0.50562	39.02
0.52228	39.02
0.53895	39.02
0.55562	39.02
0.57228	39.02
0.58895	39.01
0.60562	39.01
0.62228	39.01
0.63895	39.01
0.65562	39.01
0.67228	39.01
0.68895	39.01
0.70562	39.01
0.72228	39.01
0.73895	39.01
0.75562	39.01
0.77228	39.01
0.78895	39.01
0.80562	39.02
0.82228	39.02
0.83895	39.02
0.85562	39.02
0.87228	39.02
0.88895	39.02
0.90562	39.02
0.92228	39.02
0.93895	39.02
0.95562	39.02
0.97228	39.02
0.98895	39.02
1.00562	39.02
1.02228	39.02
1.03895	39.02
1.05562	39.02
1.07228	39.02
1.08895	39.02
1.10562	39.01
1.12228	39.01
1.13895	39.01
1.15562	39.01
1.17228	39.02
1.18895	39.02
1.20562	39.02
1.22228	39.02
1.23895	39.02
1.25562	39.02
1.27228	39.02
1.28895	39.02
1.30562	39.02
1.32228	39.02
1.33895	39.02
1.35562	39.02
1.37228	39.02
1.38895	39.01
1.40562	39.02
1.42228	39.02
1.43895	39.02
1.45562	39.02
1.47228	39.02
1.48895	39.02
1.50562	39.01
1.52228	39.02
1.53895	39.02
1.55562	39.02
1.57228	39.02
1.58895	39.02
1.60562	39.02
1.62228	39.01
1.63895	38.99
1.65562	38.97
1.67228	38.93
1.68895	38.89
1.70562	38.86
1.72228	38.83
1.73895	38.80
1.75562	38.77
1.77228	38.73
1.78895	38.70
1.80562	38.67
1.82228	38.65
1.83895	38.61
1.85562	38.58
1.87228	38.55
1.88895	38.51
1.90562	38.49
1.92228	38.45
1.93895	38.42
1.95562	38.40
1.97228	38.36
1.98895	38.33
2.00562	38.31
2.02228	38.27
2.03895	38.24
2.05562	38.22
2.07228	38.18
2.08895	38.15
2.10562	38.13
2.12228	38.09
2.13895	38.07
2.15562	38.04
2.17228	38.00
2.18895	37.98
2.20562	37.95
2.22228	37.92
2.23895	37.89
2.25562	37.86
2.27228	37.83
2.28895	37.80
2.30562	37.77
2.32228	37.74
2.33895	37.71
2.35562	37.69
2.37228	37.67
2.38895	37.66
2.40562	37.66
2.42228	37.66
2.43895	37.66
2.45562	37.66
2.47228	37.66
2.48895	37.66
2.50562	37.65
2.52228	37.65
2.53895	37.65
2.55562	37.65
2.57228	37.65
2.58895	37.65
2.60562	37.65
2.62228	37.65
2.63895	37.65
2.65562	37.65
2.67228	37.65
2.68895	37.65
2.70562	37.65
2.72228	37.65
2.73895	37.65
2.75562	37.65
2.77228	37.64
2.78895	37.64
2.80562	37.64
2.82228	37.64
2.83895	37.64
2.85562	37.64
2.87228	37.64
2.88895	37.64
2.90562	37.64
2.92228	37.64
2.93895	37.64
2.95562	37.64
2.97228	37.64
2.98895	37.63
3.00562	37.63
3.02228	37.63
3.03895	37.63
3.05562	37.63
3.07228	37.63
3.08895	37.63
3.10562	37.63
3.12228	37.63
3.13895	37.63
3.15562	37.63
3.17228	37.63
3.18895	37.63
3.20562	37.63
3.22228	37.63
3.23895	37.63
3.25562	37.63
3.27228	37.63
3.28895	37.63
3.30562	37.63
3.32228	37.63
3.33895	37.63
3.35562	37.63
3.37228	37.63
3.38895	37.62
3.40562	37.62
3.42228	37.62
3.43895	37.62
3.45562	37.62
3.47228	37.63
3.48895	37.63
3.50562	37.63
3.52228	37.63
3.53895	37.63
3.55562	37.63
3.57228	37.63
3.58895	37.63
3.60562	37.63
3.62228	37.63
3.63895	37.63
3.65562	37.63
3.67228	37.63
3.68895	37.63
3.70562	37.63
3.72228	37.63
3.73895	37.63
3.75562	37.63
3.77228	37.63
3.78895	37.63
3.80562	37.63
3.82228	37.63
3.83895	37.63
3.85562	37.63
3.87228	37.63
3.88895	37.63
3.90562	37.63
3.92228	37.63
3.93895	37.63
3.95562	37.63
3.97228	37.63
3.98895	37.63

