[Header]
Application Name	LabSolutions
Version	5.110
Data File Name	C:\Users\User\Desktop\GC Analyses\Jack\Nachusa Grasslands Sampling\T2 Timepoint July 12th\T2_07122022_023.gcd
Output Date	3/14/2023
Output Time	3:42:31 PM

[File Information]
Type	Data File
Generated	3/10/2023 2:53:05 PM
Generated by	System Administrator
Modified	3/10/2023 2:59:52 PM
Modified by	System Administrator

[Sample Information]
Operator Name	System Administrator
Acquired	3/10/2023 2:55:51 PM
Sample Type	0:Unknown
Level	0
Sample Name	023
Sample ID	023
ISTD Amount1	1
ISTD Amount2	1
ISTD Amount3	1
ISTD Amount4	1
ISTD Amount5	1
ISTD Amount6	1
ISTD Amount7	1
ISTD Amount8	1
ISTD Amount9	1
ISTD Amount10	1
ISTD Amount11	1
ISTD Amount12	1
ISTD Amount13	1
ISTD Amount14	1
ISTD Amount15	1
ISTD Amount16	1
ISTD Amount17	1
ISTD Amount18	1
ISTD Amount19	1
ISTD Amount20	1
ISTD Amount21	1
ISTD Amount22	1
ISTD Amount23	1
ISTD Amount24	1
ISTD Amount25	1
ISTD Amount26	1
ISTD Amount27	1
ISTD Amount28	1
ISTD Amount29	1
ISTD Amount30	1
ISTD Amount31	1
ISTD Amount32	1
Sample Amount	1
Dilution Factor	1
Vial#	22
Injection Volume	1
Injection Count	1
Bar Code	

[Original Files]
Data File	C:\Users\User\Desktop\GC Analyses\Jack\Nachusa Grasslands Sampling\T1 Timepoint July 12th\T2_07122022_023.gcd
Method File	C:\LabSolutions\Data\GHG_4min_2022\ghg3_togas_w_acet_4 min_new_int.gcm
Batch File	C:\LabSolutions\Data\AutoSamplerTesting\T2_07122022.gcb
Report Format File	c:\LabSolutions\System\DEFAULT.lsr

[File Description]


[Configuration]
Instrument Name	C0B7VH3-Instrument1
Instrument #	1
Line #	1
# of Detectors	3
Detector ID	DET#1	DET#2	DET#3
Detector Name	FID	PTCD	ECD
# of Channels	1	1	1

[Peak Table(Ch1)]
# of Peaks	3
Peak#	R.Time	I.Time	F.Time	Area	Height	A/H	Conc.	Mark	ID#	Name	k'	Plate #	Plate Ht.	Tailing	Resolution	Sep.Factor	Area Ratio	Height Ratio	Conc. %	Norm Conc.
1	1.479	1.439	1.531	2485	734	3.387	17.541	   	1	CO	0.000	5116	29.322	0.000	0.000	0.000	0	0	1.946	1.946
2	1.567	1.531	1.641	19476	9893	1.969	376.594	 V 	2	CH4	0.059	11121	13.488	1.204	1.238	0.000	0	0	41.789	41.789
3	1.996	1.945	2.554	2020327	964185	2.095	507.047	   	3	CO2	0.349	17165	8.739	1.253	7.126	5.875	0	0	56.265	56.265

[Peak Table(Ch2)]
# of Peaks	0

[Peak Table(Ch3)]
# of Peaks	5
Peak#	R.Time	I.Time	F.Time	Area	Height	A/H	Conc.	Mark	ID#	Name	k'	Plate #	Plate Ht.	Tailing	Resolution	Sep.Factor	Area Ratio	Height Ratio	Conc. %	Norm Conc.
1	2.462	2.125	2.513	2595	593	4.375	0.000	   			0.000	8519	17.609	0.000	0.000	0.000	0	0	0.000	0.000
2	2.535	2.513	2.642	1357	326	4.163	0.000	 V 			0.030	3876	38.695	0.000	0.544	0.000	0	0	0.000	0.000
3	2.664	2.642	2.704	106	43	2.474	0.000	 V 			0.082	19828	7.565	0.000	1.076	2.750	0	0	0.000	0.000
4	2.876	2.803	3.159	59722	15345	3.892	1.525	   	1	N2O	0.168	12661	11.847	1.610	2.391	2.055	0	0	100.000	100.000
5	3.291	3.166	3.995	12913	431	29.945	0.000	   	2	SF6	0.337	326	460.591	3.261	0.996	2.000	0	0	0.000	0.000

[Compound Results(Ch1)]
# of IDs	6
ID#	Name	R.Time	Area	Height	Conc.	Curve	3rd	2nd	1st	Constant	Area Ratio	Height Ratio	Conc. %	Norm Conc.
1	CO	1.479	2485	734	17.541	Linear	0.000000e+00	0.000000e+00	1.416423e+002	0.000000e+00	0	0	1.946	1.946
2	CH4	1.567	19476	9893	376.594	Linear	0.000000e+00	0.000000e+00	5.171738e+001	0.000000e+00	0	0	41.789	41.789
3	CO2	1.996	2020327	964185	507.047	Linear	0.000000e+00	0.000000e+00	3.984494e+003	0.000000e+00	0	0	56.265	56.265
4	Ethylene	0.000	0	0	0.000	Linear	0.000000e+00	0.000000e+00	0.000000e+00	0.000000e+00	0	0	0.000	0.000
5	Acetylene	0.000	0	0	0.000	Linear	0.000000e+00	0.000000e+00	0.000000e+00	0.000000e+00	0	0	0.000	0.000
6	Ethane	0.000	0	0	0.000	Linear	0.000000e+00	0.000000e+00	0.000000e+00	0.000000e+00	0	0	0.000	0.000

[Compound Results(Ch2)]
# of IDs	5
ID#	Name	R.Time	Area	Height	Conc.	Curve	3rd	2nd	1st	Constant	Area Ratio	Height Ratio	Conc. %	Norm Conc.
1	Hydrogen	0.000	0	0	0.000	Linear	0.000000e+00	0.000000e+00	0.000000e+00	0.000000e+00	0	0	0.000	0.000
2	Oxygen	0.000	0	0	0.000	Linear	0.000000e+00	0.000000e+00	0.000000e+00	0.000000e+00	0	0	0.000	0.000
3	Nitrogen	0.000	0	0	0.000	Linear	0.000000e+00	0.000000e+00	0.000000e+00	0.000000e+00	0	0	0.000	0.000
4	Methane	0.000	0	0	0.000	Linear	0.000000e+00	0.000000e+00	0.000000e+00	0.000000e+00	0	0	0.000	0.000
5	Carbon Monoxide	0.000	0	0	0.000	Linear	0.000000e+00	0.000000e+00	0.000000e+00	0.000000e+00	0	0	0.000	0.000

[Compound Results(Ch3)]
# of IDs	2
ID#	Name	R.Time	Area	Height	Conc.	Curve	3rd	2nd	1st	Constant	Area Ratio	Height Ratio	Conc. %	Norm Conc.
1	N2O	2.876	59722	15345	1.525	Linear	0.000000e+00	0.000000e+00	3.915173e+004	0.000000e+00	0	0	100.000	100.000
2	SF6	3.291	12913	431	0.000	Linear	0.000000e+00	0.000000e+00	0.000000e+00	0.000000e+00	0	0	0.000	0.000

[Group Results(Ch1)]
# of Groups	0

[Group Results(Ch2)]
# of Groups	0

[Group Results(Ch3)]
# of Groups	0

[Chromatogram (Ch1)]
Interval(msec)	220
# of Points	1091
Start Time(min)	0.002
End Time(min)	3.998
R.Time (min)	Intensity
0.00167	-16
0.00533	-13
0.00900	-15
0.01267	-17
0.01633	-16
0.02000	-15
0.02367	-17
0.02733	-19
0.03100	-20
0.03467	-20
0.03833	-17
0.04200	-12
0.04567	-4
0.04933	10
0.05300	26
0.05667	35
0.06033	38
0.06400	34
0.06767	32
0.07133	31
0.07500	27
0.07867	17
0.08233	1
0.08600	-15
0.08967	-31
0.09333	-41
0.09700	-41
0.10067	-36
0.10433	-33
0.10800	-31
0.11167	-26
0.11533	-19
0.11900	-14
0.12267	-13
0.12633	-8
0.13000	0
0.13367	13
0.13733	26
0.14100	35
0.14467	41
0.14833	43
0.15200	43
0.15567	41
0.15933	44
0.16300	49
0.16667	52
0.17033	51
0.17400	49
0.17767	47
0.18133	42
0.18500	35
0.18867	30
0.19233	27
0.19600	29
0.19967	36
0.20333	41
0.20700	40
0.21067	34
0.21433	25
0.21800	22
0.22167	20
0.22533	16
0.22900	12
0.23267	9
0.23633	5
0.24000	5
0.24367	6
0.24733	8
0.25100	13
0.25467	18
0.25833	23
0.26200	25
0.26567	21
0.26933	16
0.27300	10
0.27667	3
0.28033	0
0.28400	2
0.28767	-1
0.29133	-4
0.29500	-7
0.29867	-9
0.30233	-8
0.30600	1
0.30967	11
0.31333	18
0.31700	23
0.32067	21
0.32433	13
0.32800	4
0.33167	-3
0.33533	-9
0.33900	-10
0.34267	-6
0.34633	-0
0.35000	7
0.35367	10
0.35733	13
0.36100	12
0.36467	4
0.36833	-4
0.37200	-9
0.37567	-8
0.37933	-4
0.38300	1
0.38667	6
0.39033	12
0.39400	14
0.39767	10
0.40133	2
0.40500	-5
0.40867	-13
0.41233	-18
0.41600	-15
0.41967	-13
0.42333	-17
0.42700	-23
0.43067	-27
0.43433	-26
0.43800	-23
0.44167	-17
0.44533	-13
0.44900	-9
0.45267	-3
0.45633	2
0.46000	5
0.46367	6
0.46733	7
0.47100	4
0.47467	-6
0.47833	-16
0.48200	-24
0.48567	-31
0.48933	-35
0.49300	-32
0.49667	-26
0.50033	-17
0.50400	-3
0.50767	9
0.51133	15
0.51500	14
0.51867	7
0.52233	-1
0.52600	-4
0.52967	-8
0.53333	-14
0.53700	-15
0.54067	-18
0.54433	-27
0.54800	-36
0.55167	-37
0.55533	-33
0.55900	-26
0.56267	-19
0.56633	-14
0.57000	-13
0.57367	-13
0.57733	-14
0.58100	-20
0.58467	-30
0.58833	-40
0.59200	-45
0.59567	-45
0.59933	-40
0.60300	-33
0.60667	-29
0.61033	-28
0.61400	-30
0.61767	-32
0.62133	-33
0.62500	-31
0.62867	-27
0.63233	-23
0.63600	-19
0.63967	-21
0.64333	-23
0.64700	-25
0.65067	-27
0.65433	-25
0.65800	-20
0.66167	-15
0.66533	-13
0.66900	-16
0.67267	-20
0.67633	-23
0.68000	-27
0.68367	-32
0.68733	-30
0.69100	-25
0.69467	-18
0.69833	-12
0.70200	-5
0.70567	1
0.70933	-4
0.71300	-13
0.71667	-18
0.72033	-20
0.72400	-28
0.72767	-39
0.73133	-47
0.73500	-49
0.73867	-47
0.74233	-42
0.74600	-35
0.74967	-29
0.75333	-27
0.75700	-30
0.76067	-37
0.76433	-42
0.76800	-42
0.77167	-40
0.77533	-43
0.77900	-47
0.78267	-45
0.78633	-41
0.79000	-42
0.79367	-44
0.79733	-43
0.80100	-39
0.80467	-32
0.80833	-23
0.81200	-15
0.81567	-10
0.81933	-10
0.82300	-16
0.82667	-28
0.83033	-42
0.83400	-54
0.83767	-63
0.84133	-70
0.84500	-75
0.84867	-75
0.85233	-67
0.85600	-52
0.85967	-38
0.86333	-27
0.86700	-23
0.87067	-26
0.87433	-32
0.87800	-38
0.88167	-38
0.88533	-36
0.88900	-34
0.89267	-32
0.89633	-29
0.90000	-21
0.90367	-11
0.90733	-7
0.91100	-8
0.91467	-5
0.91833	-2
0.92200	-7
0.92567	-14
0.92933	-20
0.93300	-24
0.93667	-28
0.94033	-32
0.94400	-32
0.94767	-27
0.95133	-18
0.95500	-6
0.95867	5
0.96233	8
0.96600	4
0.96967	-5
0.97333	-14
0.97700	-22
0.98067	-24
0.98433	-25
0.98800	-30
0.99167	-32
0.99533	-31
0.99900	-26
1.00267	-17
1.00633	-8
1.01000	-0
1.01367	1
1.01733	-4
1.02100	-9
1.02467	-14
1.02833	-19
1.03200	-23
1.03567	-26
1.03933	-28
1.04300	-29
1.04667	-29
1.05033	-28
1.05400	-26
1.05767	-26
1.06133	-29
1.06500	-35
1.06867	-42
1.07233	-46
1.07600	-44
1.07967	-39
1.08333	-32
1.08700	-31
1.09067	-30
1.09433	-30
1.09800	-29
1.10167	-27
1.10533	-24
1.10900	-23
1.11267	-18
1.11633	-11
1.12000	-4
1.12367	-1
1.12733	1
1.13100	-0
1.13467	-1
1.13833	0
1.14200	0
1.14567	-3
1.14933	-8
1.15300	-15
1.15667	-16
1.16033	-12
1.16400	-9
1.16767	-7
1.17133	-9
1.17500	-15
1.17867	-21
1.18233	-20
1.18600	-17
1.18967	-19
1.19333	-25
1.19700	-29
1.20067	-31
1.20433	-28
1.20800	-22
1.21167	-19
1.21533	-21
1.21900	-27
1.22267	-35
1.22633	-43
1.23000	-53
1.23367	-58
1.23733	-57
1.24100	-52
1.24467	-46
1.24833	-38
1.25200	-31
1.25567	-28
1.25933	-32
1.26300	-39
1.26667	-46
1.27033	-51
1.27400	-54
1.27767	-58
1.28133	-60
1.28500	-54
1.28867	-41
1.29233	-29
1.29600	-19
1.29967	-17
1.30333	-22
1.30700	-26
1.31067	-27
1.31433	-32
1.31800	-39
1.32167	-44
1.32533	-44
1.32900	-39
1.33267	-30
1.33633	-21
1.34000	-16
1.34367	-19
1.34733	-22
1.35100	-25
1.35467	-30
1.35833	-36
1.36200	-42
1.36567	-50
1.36933	-54
1.37300	-57
1.37667	-57
1.38033	-54
1.38400	-50
1.38767	-47
1.39133	-45
1.39500	-45
1.39867	-43
1.40233	-37
1.40600	-34
1.40967	-34
1.41333	-38
1.41700	-48
1.42067	-57
1.42433	-65
1.42800	-70
1.43167	-72
1.43533	-67
1.43900	-37
1.44267	66
1.44633	239
1.45000	421
1.45367	563
1.45733	645
1.46100	677
1.46467	679
1.46833	673
1.47200	674
1.47567	687
1.47933	698
1.48300	695
1.48667	661
1.49033	598
1.49400	516
1.49767	431
1.50133	356
1.50500	291
1.50867	232
1.51233	183
1.51600	144
1.51967	113
1.52333	90
1.52700	74
1.53067	66
1.53433	81
1.53800	182
1.54167	575
1.54533	1540
1.54900	3130
1.55267	5051
1.55633	6898
1.56000	8404
1.56367	9434
1.56733	9862
1.57100	9566
1.57467	8553
1.57833	7059
1.58200	5431
1.58567	3953
1.58933	2759
1.59300	1867
1.59667	1235
1.60033	804
1.60400	516
1.60767	324
1.61133	198
1.61500	115
1.61867	64
1.62233	34
1.62600	13
1.62967	-5
1.63333	-17
1.63700	-24
1.64067	-28
1.64433	-27
1.64800	-23
1.65167	-21
1.65533	-23
1.65900	-26
1.66267	-28
1.66633	-30
1.67000	-33
1.67367	-39
1.67733	-46
1.68100	-52
1.68467	-52
1.68833	-51
1.69200	-52
1.69567	-52
1.69933	-48
1.70300	-47
1.70667	-49
1.71033	-52
1.71400	-55
1.71767	-57
1.72133	-56
1.72500	-56
1.72867	-58
1.73233	-60
1.73600	-62
1.73967	-63
1.74333	-62
1.74700	-57
1.75067	-48
1.75433	-35
1.75800	-27
1.76167	-26
1.76533	-29
1.76900	-35
1.77267	-43
1.77633	-52
1.78000	-59
1.78367	-64
1.78733	-68
1.79100	-69
1.79467	-63
1.79833	-57
1.80200	-58
1.80567	-63
1.80933	-73
1.81300	-76
1.81667	-71
1.82033	-68
1.82400	-71
1.82767	-76
1.83133	-78
1.83500	-78
1.83867	-76
1.84233	-74
1.84600	-70
1.84967	-64
1.85333	-64
1.85700	-68
1.86067	-68
1.86433	-66
1.86800	-61
1.87167	-56
1.87533	-50
1.87900	-43
1.88267	-34
1.88633	-28
1.89000	-26
1.89367	-25
1.89733	-26
1.90100	-27
1.90467	-27
1.90833	-24
1.91200	-24
1.91567	-27
1.91933	-33
1.92300	-42
1.92667	-54
1.93033	-65
1.93400	-75
1.93767	-81
1.94133	-80
1.94500	-69
1.94867	-54
1.95233	-15
1.95600	220
1.95967	1551
1.96333	7337
1.96700	26410
1.97067	74699
1.97433	169321
1.97800	314903
1.98167	494561
1.98533	676997
1.98900	830366
1.99267	930579
1.99633	964153
2.00000	929278
2.00367	836427
2.00733	706036
2.01100	562548
2.01467	426916
2.01833	311951
2.02200	221998
2.02567	155559
2.02933	108425
2.03300	75872
2.03667	53753
2.04033	38838
2.04400	28783
2.04767	21958
2.05133	17269
2.05500	13993
2.05867	11652
2.06233	9940
2.06600	8654
2.06967	7656
2.07333	6862
2.07700	6223
2.08067	5702
2.08433	5268
2.08800	4894
2.09167	4571
2.09533	4285
2.09900	4028
2.10267	3800
2.10633	3598
2.11000	3414
2.11367	3245
2.11733	3087
2.12100	2944
2.12467	2808
2.12833	2681
2.13200	2561
2.13567	2451
2.13933	2353
2.14300	2275
2.14667	2208
2.15033	2138
2.15400	2064
2.15767	1993
2.16133	1927
2.16500	1858
2.16867	1789
2.17233	1730
2.17600	1683
2.17967	1643
2.18333	1601
2.18700	1553
2.19067	1507
2.19433	1465
2.19800	1425
2.20167	1388
2.20533	1355
2.20900	1326
2.21267	1300
2.21633	1270
2.22000	1240
2.22367	1210
2.22733	1179
2.23100	1149
2.23467	1122
2.23833	1099
2.24200	1077
2.24567	1058
2.24933	1040
2.25300	1021
2.25667	998
2.26033	972
2.26400	949
2.26767	930
2.27133	915
2.27500	898
2.27867	879
2.28233	867
2.28600	860
2.28967	857
2.29333	853
2.29700	840
2.30067	816
2.30433	793
2.30800	773
2.31167	752
2.31533	731
2.31900	711
2.32267	695
2.32633	687
2.33000	689
2.33367	691
2.33733	687
2.34100	676
2.34467	664
2.34833	656
2.35200	652
2.35567	643
2.35933	633
2.36300	622
2.36667	611
2.37033	604
2.37400	601
2.37767	595
2.38133	587
2.38500	574
2.38867	557
2.39233	543
2.39600	534
2.39967	530
2.40333	529
2.40700	530
2.41067	533
2.41433	533
2.41800	528
2.42167	524
2.42533	524
2.42900	524
2.43267	520
2.43633	512
2.44000	502
2.44367	492
2.44733	481
2.45100	467
2.45467	462
2.45833	463
2.46200	470
2.46567	467
2.46933	461
2.47300	459
2.47667	457
2.48033	453
2.48400	455
2.48767	458
2.49133	456
2.49500	446
2.49867	432
2.50233	419
2.50600	411
2.50967	412
2.51333	414
2.51700	416
2.52067	418
2.52433	416
2.52800	410
2.53167	407
2.53533	405
2.53900	400
2.54267	391
2.54633	380
2.55000	372
2.55367	368
2.55733	366
2.56100	364
2.56467	364
2.56833	369
2.57200	373
2.57567	371
2.57933	366
2.58300	365
2.58667	369
2.59033	374
2.59400	378
2.59767	378
2.60133	378
2.60500	375
2.60867	368
2.61233	360
2.61600	354
2.61967	347
2.62333	345
2.62700	346
2.63067	348
2.63433	354
2.63800	358
2.64167	358
2.64533	354
2.64900	350
2.65267	346
2.65633	341
2.66000	339
2.66367	344
2.66733	350
2.67100	349
2.67467	342
2.67833	337
2.68200	339
2.68567	346
2.68933	354
2.69300	359
2.69667	362
2.70033	361
2.70400	359
2.70767	359
2.71133	355
2.71500	345
2.71867	337
2.72233	338
2.72600	346
2.72967	353
2.73333	353
2.73700	349
2.74067	343
2.74433	336
2.74800	327
2.75167	319
2.75533	310
2.75900	306
2.76267	309
2.76633	314
2.77000	322
2.77367	325
2.77733	322
2.78100	320
2.78467	322
2.78833	327
2.79200	333
2.79567	339
2.79933	344
2.80300	343
2.80667	338
2.81033	328
2.81400	317
2.81767	310
2.82133	306
2.82500	303
2.82867	301
2.83233	300
2.83600	303
2.83967	308
2.84333	314
2.84700	319
2.85067	320
2.85433	315
2.85800	308
2.86167	307
2.86533	311
2.86900	317
2.87267	324
2.87633	329
2.88000	335
2.88367	342
2.88733	342
2.89100	336
2.89467	331
2.89833	331
2.90200	333
2.90567	331
2.90933	326
2.91300	319
2.91667	312
2.92033	308
2.92400	308
2.92767	314
2.93133	325
2.93500	337
2.93867	340
2.94233	334
2.94600	329
2.94967	325
2.95333	324
2.95700	323
2.96067	324
2.96433	326
2.96800	329
2.97167	331
2.97533	331
2.97900	328
2.98267	323
2.98633	319
2.99000	313
2.99367	307
2.99733	302
3.00100	303
3.00467	309
3.00833	316
3.01200	324
3.01567	330
3.01933	329
3.02300	324
3.02667	326
3.03033	338
3.03400	352
3.03767	359
3.04133	354
3.04500	341
3.04867	328
3.05233	324
3.05600	323
3.05967	322
3.06333	324
3.06700	327
3.07067	334
3.07433	339
3.07800	338
3.08167	333
3.08533	329
3.08900	324
3.09267	316
3.09633	305
3.10000	296
3.10367	292
3.10733	295
3.11100	303
3.11467	311
3.11833	320
3.12200	326
3.12567	325
3.12933	320
3.13300	315
3.13667	315
3.14033	314
3.14400	311
3.14767	312
3.15133	318
3.15500	321
3.15867	322
3.16233	319
3.16600	318
3.16967	318
3.17333	319
3.17700	322
3.18067	318
3.18433	311
3.18800	305
3.19167	298
3.19533	297
3.19900	302
3.20267	309
3.20633	316
3.21000	323
3.21367	329
3.21733	329
3.22100	328
3.22467	329
3.22833	331
3.23200	332
3.23567	331
3.23933	326
3.24300	316
3.24667	305
3.25033	296
3.25400	290
3.25767	285
3.26133	283
3.26500	282
3.26867	283
3.27233	286
3.27600	289
3.27967	290
3.28333	291
3.28700	291
3.29067	291
3.29433	294
3.29800	299
3.30167	302
3.30533	304
3.30900	306
3.31267	307
3.31633	308
3.32000	310
3.32367	310
3.32733	308
3.33100	307
3.33467	306
3.33833	302
3.34200	298
3.34567	291
3.34933	286
3.35300	287
3.35667	292
3.36033	300
3.36400	308
3.36767	317
3.37133	320
3.37500	317
3.37867	313
3.38233	309
3.38600	304
3.38967	296
3.39333	289
3.39700	285
3.40067	285
3.40433	285
3.40800	284
3.41167	282
3.41533	280
3.41900	280
3.42267	281
3.42633	281
3.43000	275
3.43367	269
3.43733	267
3.44100	267
3.44467	262
3.44833	254
3.45200	249
3.45567	250
3.45933	256
3.46300	263
3.46667	267
3.47033	272
3.47400	277
3.47767	284
3.48133	289
3.48500	288
3.48867	287
3.49233	286
3.49600	283
3.49967	281
3.50333	280
3.50700	279
3.51067	281
3.51433	286
3.51800	288
3.52167	288
3.52533	285
3.52900	277
3.53267	269
3.53633	263
3.54000	260
3.54367	261
3.54733	266
3.55100	267
3.55467	264
3.55833	262
3.56200	263
3.56567	263
3.56933	259
3.57300	256
3.57667	255
3.58033	258
3.58400	262
3.58767	266
3.59133	271
3.59500	277
3.59867	279
3.60233	274
3.60600	269
3.60967	264
3.61333	261
3.61700	261
3.62067	260
3.62433	259
3.62800	257
3.63167	253
3.63533	250
3.63900	247
3.64267	243
3.64633	235
3.65000	231
3.65367	236
3.65733	246
3.66100	251
3.66467	249
3.66833	246
3.67200	240
3.67567	236
3.67933	235
3.68300	232
3.68667	226
3.69033	225
3.69400	229
3.69767	232
3.70133	237
3.70500	246
3.70867	257
3.71233	264
3.71600	266
3.71967	266
3.72333	266
3.72700	268
3.73067	269
3.73433	267
3.73800	260
3.74167	254
3.74533	251
3.74900	247
3.75267	242
3.75633	241
3.76000	243
3.76367	246
3.76733	253
3.77100	267
3.77467	273
3.77833	266
3.78200	254
3.78567	242
3.78933	224
3.79300	207
3.79667	195
3.80033	189
3.80400	187
3.80767	190
3.81133	200
3.81500	214
3.81867	229
3.82233	239
3.82600	245
3.82967	247
3.83333	240
3.83700	222
3.84067	204
3.84433	192
3.84800	185
3.85167	178
3.85533	174
3.85900	175
3.86267	181
3.86633	187
3.87000	196
3.87367	206
3.87733	214
3.88100	218
3.88467	216
3.88833	209
3.89200	203
3.89567	202
3.89933	201
3.90300	196
3.90667	192
3.91033	191
3.91400	195
3.91767	201
3.92133	206
3.92500	209
3.92867	211
3.93233	209
3.93600	205
3.93967	200
3.94333	200
3.94700	211
3.95067	228
3.95433	245
3.95800	253
3.96167	246
3.96533	227
3.96900	207
3.97267	195
3.97633	188
3.98000	182
3.98367	182
3.98733	185
3.99100	189
3.99467	189
3.99833	187

[Chromatogram (Ch2)]
Interval(msec)	220
# of Points	1091
Start Time(min)	0.002
End Time(min)	3.998
R.Time (min)	Intensity
0.00167	0
0.00533	0
0.00900	0
0.01267	1
0.01633	1
0.02000	1
0.02367	2
0.02733	2
0.03100	3
0.03467	3
0.03833	3
0.04200	4
0.04567	4
0.04933	4
0.05300	4
0.05667	4
0.06033	4
0.06400	4
0.06767	4
0.07133	4
0.07500	4
0.07867	4
0.08233	4
0.08600	4
0.08967	4
0.09333	4
0.09700	4
0.10067	4
0.10433	4
0.10800	4
0.11167	4
0.11533	4
0.11900	4
0.12267	4
0.12633	4
0.13000	5
0.13367	5
0.13733	5
0.14100	6
0.14467	6
0.14833	6
0.15200	6
0.15567	6
0.15933	6
0.16300	7
0.16667	7
0.17033	7
0.17400	8
0.17767	8
0.18133	8
0.18500	8
0.18867	8
0.19233	8
0.19600	8
0.19967	8
0.20333	8
0.20700	8
0.21067	7
0.21433	7
0.21800	7
0.22167	7
0.22533	6
0.22900	6
0.23267	5
0.23633	4
0.24000	4
0.24367	3
0.24733	2
0.25100	1
0.25467	1
0.25833	0
0.26200	-0
0.26567	-0
0.26933	-0
0.27300	-1
0.27667	-1
0.28033	-1
0.28400	-0
0.28767	-0
0.29133	0
0.29500	0
0.29867	0
0.30233	-0
0.30600	-0
0.30967	-0
0.31333	-0
0.31700	-0
0.32067	-0
0.32433	-0
0.32800	-0
0.33167	0
0.33533	0
0.33900	0
0.34267	0
0.34633	-0
0.35000	-0
0.35367	-0
0.35733	-0
0.36100	-1
0.36467	-1
0.36833	-1
0.37200	-1
0.37567	-1
0.37933	-2
0.38300	-1
0.38667	-1
0.39033	-1
0.39400	-0
0.39767	0
0.40133	0
0.40500	1
0.40867	1
0.41233	1
0.41600	1
0.41967	1
0.42333	1
0.42700	1
0.43067	2
0.43433	2
0.43800	2
0.44167	2
0.44533	3
0.44900	3
0.45267	3
0.45633	3
0.46000	3
0.46367	3
0.46733	3
0.47100	3
0.47467	3
0.47833	3
0.48200	4
0.48567	4
0.48933	4
0.49300	5
0.49667	5
0.50033	5
0.50400	5
0.50767	4
0.51133	4
0.51500	4
0.51867	4
0.52233	3
0.52600	3
0.52967	3
0.53333	3
0.53700	2
0.54067	2
0.54433	2
0.54800	2
0.55167	2
0.55533	2
0.55900	2
0.56267	2
0.56633	2
0.57000	2
0.57367	3
0.57733	3
0.58100	3
0.58467	3
0.58833	3
0.59200	2
0.59567	2
0.59933	2
0.60300	2
0.60667	2
0.61033	2
0.61400	2
0.61767	2
0.62133	1
0.62500	1
0.62867	1
0.63233	0
0.63600	0
0.63967	0
0.64333	0
0.64700	0
0.65067	0
0.65433	-0
0.65800	-0
0.66167	-0
0.66533	-0
0.66900	-0
0.67267	-0
0.67633	-0
0.68000	-0
0.68367	0
0.68733	0
0.69100	0
0.69467	1
0.69833	1
0.70200	1
0.70567	1
0.70933	1
0.71300	1
0.71667	1
0.72033	1
0.72400	1
0.72767	1
0.73133	1
0.73500	1
0.73867	1
0.74233	1
0.74600	1
0.74967	1
0.75333	0
0.75700	-0
0.76067	-0
0.76433	-1
0.76800	-1
0.77167	-1
0.77533	-1
0.77900	-1
0.78267	-1
0.78633	-1
0.79000	-1
0.79367	-1
0.79733	-0
0.80100	-0
0.80467	-0
0.80833	-0
0.81200	-0
0.81567	-0
0.81933	0
0.82300	0
0.82667	1
0.83033	1
0.83400	1
0.83767	2
0.84133	2
0.84500	2
0.84867	2
0.85233	3
0.85600	3
0.85967	3
0.86333	3
0.86700	3
0.87067	3
0.87433	3
0.87800	3
0.88167	3
0.88533	3
0.88900	3
0.89267	3
0.89633	3
0.90000	2
0.90367	2
0.90733	2
0.91100	1
0.91467	1
0.91833	1
0.92200	1
0.92567	0
0.92933	0
0.93300	0
0.93667	0
0.94033	0
0.94400	0
0.94767	-0
0.95133	-0
0.95500	-1
0.95867	-1
0.96233	-1
0.96600	-1
0.96967	-1
0.97333	-2
0.97700	-2
0.98067	-2
0.98433	-1
0.98800	-1
0.99167	-1
0.99533	-1
0.99900	-1
1.00267	-1
1.00633	-0
1.01000	-0
1.01367	0
1.01733	1
1.02100	1
1.02467	1
1.02833	1
1.03200	2
1.03567	2
1.03933	2
1.04300	3
1.04667	3
1.05033	4
1.05400	4
1.05767	4
1.06133	4
1.06500	4
1.06867	4
1.07233	3
1.07600	3
1.07967	2
1.08333	2
1.08700	2
1.09067	2
1.09433	2
1.09800	2
1.10167	2
1.10533	3
1.10900	2
1.11267	2
1.11633	2
1.12000	2
1.12367	1
1.12733	1
1.13100	0
1.13467	-0
1.13833	-1
1.14200	-1
1.14567	-1
1.14933	-1
1.15300	-2
1.15667	-2
1.16033	-2
1.16400	-2
1.16767	-2
1.17133	-2
1.17500	-3
1.17867	-3
1.18233	-3
1.18600	-3
1.18967	-3
1.19333	-3
1.19700	-3
1.20067	-3
1.20433	-3
1.20800	-3
1.21167	-3
1.21533	-3
1.21900	-2
1.22267	-2
1.22633	-1
1.23000	-1
1.23367	-1
1.23733	-1
1.24100	-0
1.24467	-0
1.24833	0
1.25200	0
1.25567	0
1.25933	0
1.26300	0
1.26667	0
1.27033	0
1.27400	0
1.27767	0
1.28133	1
1.28500	0
1.28867	0
1.29233	-0
1.29600	-1
1.29967	-1
1.30333	-2
1.30700	-2
1.31067	-2
1.31433	-2
1.31800	-2
1.32167	-2
1.32533	-2
1.32900	-2
1.33267	-2
1.33633	-1
1.34000	-1
1.34367	-0
1.34733	0
1.35100	0
1.35467	0
1.35833	0
1.36200	0
1.36567	0
1.36933	-0
1.37300	-0
1.37667	-0
1.38033	0
1.38400	0
1.38767	0
1.39133	0
1.39500	1
1.39867	0
1.40233	0
1.40600	-0
1.40967	-1
1.41333	-1
1.41700	-1
1.42067	-2
1.42433	-2
1.42800	-2
1.43167	-2
1.43533	-2
1.43900	-2
1.44267	-2
1.44633	-2
1.45000	-2
1.45367	-2
1.45733	-2
1.46100	-2
1.46467	-2
1.46833	-2
1.47200	-2
1.47567	-2
1.47933	-2
1.48300	-2
1.48667	-2
1.49033	-2
1.49400	-2
1.49767	-2
1.50133	-2
1.50500	-2
1.50867	-1
1.51233	-1
1.51600	-1
1.51967	-0
1.52333	0
1.52700	0
1.53067	1
1.53433	1
1.53800	1
1.54167	1
1.54533	1
1.54900	1
1.55267	1
1.55633	1
1.56000	1
1.56367	1
1.56733	1
1.57100	1
1.57467	1
1.57833	1
1.58200	2
1.58567	2
1.58933	2
1.59300	2
1.59667	1
1.60033	1
1.60400	-0
1.60767	-2
1.61133	-3
1.61500	-5
1.61867	-7
1.62233	-10
1.62600	-13
1.62967	-16
1.63333	-19
1.63700	-22
1.64067	-26
1.64433	-30
1.64800	-33
1.65167	-37
1.65533	-41
1.65900	-45
1.66267	-50
1.66633	-55
1.67000	-61
1.67367	-67
1.67733	-73
1.68100	-78
1.68467	-83
1.68833	-87
1.69200	-91
1.69567	-94
1.69933	-96
1.70300	-98
1.70667	-100
1.71033	-101
1.71400	-103
1.71767	-104
1.72133	-104
1.72500	-105
1.72867	-105
1.73233	-105
1.73600	-105
1.73967	-105
1.74333	-104
1.74700	-104
1.75067	-103
1.75433	-103
1.75800	-103
1.76167	-104
1.76533	-104
1.76900	-106
1.77267	-107
1.77633	-108
1.78000	-110
1.78367	-111
1.78733	-112
1.79100	-112
1.79467	-113
1.79833	-113
1.80200	-113
1.80567	-113
1.80933	-112
1.81300	-112
1.81667	-112
1.82033	-112
1.82400	-112
1.82767	-112
1.83133	-112
1.83500	-112
1.83867	-112
1.84233	-112
1.84600	-111
1.84967	-111
1.85333	-111
1.85700	-112
1.86067	-112
1.86433	-112
1.86800	-112
1.87167	-112
1.87533	-112
1.87900	-112
1.88267	-112
1.88633	-112
1.89000	-112
1.89367	-112
1.89733	-112
1.90100	-112
1.90467	-112
1.90833	-112
1.91200	-112
1.91567	-112
1.91933	-112
1.92300	-111
1.92667	-111
1.93033	-111
1.93400	-110
1.93767	-110
1.94133	-110
1.94500	-110
1.94867	-110
1.95233	-110
1.95600	-109
1.95967	-109
1.96333	-109
1.96700	-110
1.97067	-110
1.97433	-110
1.97800	-110
1.98167	-109
1.98533	-109
1.98900	-108
1.99267	-108
1.99633	-107
2.00000	-106
2.00367	-106
2.00733	-106
2.01100	-106
2.01467	-105
2.01833	-105
2.02200	-105
2.02567	-104
2.02933	-104
2.03300	-103
2.03667	-103
2.04033	-103
2.04400	-102
2.04767	-102
2.05133	-102
2.05500	-101
2.05867	-101
2.06233	-101
2.06600	-101
2.06967	-100
2.07333	-100
2.07700	-100
2.08067	-100
2.08433	-100
2.08800	-99
2.09167	-99
2.09533	-98
2.09900	-98
2.10267	-97
2.10633	-97
2.11000	-96
2.11367	-96
2.11733	-96
2.12100	-95
2.12467	-95
2.12833	-94
2.13200	-93
2.13567	-93
2.13933	-92
2.14300	-92
2.14667	-93
2.15033	-93
2.15400	-94
2.15767	-94
2.16133	-93
2.16500	-93
2.16867	-92
2.17233	-92
2.17600	-91
2.17967	-90
2.18333	-90
2.18700	-89
2.19067	-89
2.19433	-89
2.19800	-88
2.20167	-88
2.20533	-89
2.20900	-89
2.21267	-90
2.21633	-90
2.22000	-89
2.22367	-89
2.22733	-88
2.23100	-88
2.23467	-87
2.23833	-87
2.24200	-86
2.24567	-86
2.24933	-86
2.25300	-85
2.25667	-85
2.26033	-85
2.26400	-85
2.26767	-85
2.27133	-85
2.27500	-84
2.27867	-84
2.28233	-84
2.28600	-84
2.28967	-84
2.29333	-85
2.29700	-85
2.30067	-86
2.30433	-86
2.30800	-85
2.31167	-85
2.31533	-84
2.31900	-83
2.32267	-81
2.32633	-80
2.33000	-78
2.33367	-78
2.33733	-77
2.34100	-77
2.34467	-76
2.34833	-76
2.35200	-75
2.35567	-74
2.35933	-73
2.36300	-72
2.36667	-71
2.37033	-70
2.37400	-68
2.37767	-65
2.38133	-62
2.38500	-58
2.38867	-54
2.39233	-50
2.39600	-46
2.39967	-41
2.40333	-37
2.40700	-32
2.41067	-28
2.41433	-24
2.41800	-20
2.42167	-18
2.42533	-15
2.42900	-14
2.43267	-12
2.43633	-11
2.44000	-10
2.44367	-9
2.44733	-8
2.45100	-7
2.45467	-6
2.45833	-5
2.46200	-4
2.46567	-3
2.46933	-2
2.47300	-1
2.47667	-0
2.48033	1
2.48400	2
2.48767	2
2.49133	3
2.49500	4
2.49867	5
2.50233	5
2.50600	6
2.50967	7
2.51333	9
2.51700	10
2.52067	11
2.52433	12
2.52800	13
2.53167	14
2.53533	14
2.53900	15
2.54267	15
2.54633	15
2.55000	14
2.55367	14
2.55733	14
2.56100	14
2.56467	14
2.56833	15
2.57200	15
2.57567	16
2.57933	16
2.58300	17
2.58667	17
2.59033	18
2.59400	18
2.59767	18
2.60133	19
2.60500	19
2.60867	19
2.61233	19
2.61600	20
2.61967	20
2.62333	20
2.62700	20
2.63067	21
2.63433	21
2.63800	21
2.64167	21
2.64533	21
2.64900	22
2.65267	22
2.65633	22
2.66000	22
2.66367	22
2.66733	22
2.67100	22
2.67467	22
2.67833	22
2.68200	22
2.68567	22
2.68933	22
2.69300	22
2.69667	22
2.70033	22
2.70400	21
2.70767	21
2.71133	21
2.71500	21
2.71867	21
2.72233	21
2.72600	22
2.72967	22
2.73333	23
2.73700	24
2.74067	25
2.74433	25
2.74800	26
2.75167	27
2.75533	27
2.75900	28
2.76267	28
2.76633	28
2.77000	28
2.77367	28
2.77733	28
2.78100	28
2.78467	27
2.78833	27
2.79200	26
2.79567	26
2.79933	25
2.80300	25
2.80667	25
2.81033	25
2.81400	25
2.81767	25
2.82133	25
2.82500	26
2.82867	26
2.83233	26
2.83600	25
2.83967	24
2.84333	22
2.84700	18
2.85067	11
2.85433	0
2.85800	-14
2.86167	-33
2.86533	-56
2.86900	-85
2.87267	-119
2.87633	-160
2.88000	-205
2.88367	-256
2.88733	-312
2.89100	-372
2.89467	-437
2.89833	-506
2.90200	-578
2.90567	-654
2.90933	-732
2.91300	-813
2.91667	-896
2.92033	-981
2.92400	-1068
2.92767	-1157
2.93133	-1247
2.93500	-1339
2.93867	-1425
2.94233	-1492
2.94600	-1530
2.94967	-1531
2.95333	-1497
2.95700	-1433
2.96067	-1346
2.96433	-1244
2.96800	-1135
2.97167	-1023
2.97533	-914
2.97900	-809
2.98267	-712
2.98633	-623
2.99000	-541
2.99367	-469
2.99733	-404
3.00100	-348
3.00467	-298
3.00833	-254
3.01200	-217
3.01567	-184
3.01933	-156
3.02300	-132
3.02667	-111
3.03033	-93
3.03400	-77
3.03767	-65
3.04133	-54
3.04500	-44
3.04867	-37
3.05233	-30
3.05600	-24
3.05967	-19
3.06333	-15
3.06700	-11
3.07067	-8
3.07433	-5
3.07800	-3
3.08167	-1
3.08533	1
3.08900	3
3.09267	4
3.09633	6
3.10000	7
3.10367	8
3.10733	9
3.11100	10
3.11467	11
3.11833	12
3.12200	13
3.12567	14
3.12933	14
3.13300	15
3.13667	15
3.14033	16
3.14400	16
3.14767	17
3.15133	17
3.15500	18
3.15867	18
3.16233	18
3.16600	18
3.16967	19
3.17333	19
3.17700	19
3.18067	19
3.18433	20
3.18800	20
3.19167	20
3.19533	20
3.19900	20
3.20267	21
3.20633	21
3.21000	21
3.21367	21
3.21733	21
3.22100	22
3.22467	22
3.22833	22
3.23200	22
3.23567	22
3.23933	23
3.24300	23
3.24667	23
3.25033	23
3.25400	23
3.25767	23
3.26133	23
3.26500	23
3.26867	23
3.27233	24
3.27600	24
3.27967	24
3.28333	24
3.28700	24
3.29067	24
3.29433	24
3.29800	24
3.30167	25
3.30533	25
3.30900	25
3.31267	25
3.31633	25
3.32000	26
3.32367	26
3.32733	26
3.33100	26
3.33467	27
3.33833	27
3.34200	27
3.34567	28
3.34933	28
3.35300	28
3.35667	28
3.36033	28
3.36400	29
3.36767	29
3.37133	29
3.37500	29
3.37867	29
3.38233	29
3.38600	29
3.38967	30
3.39333	30
3.39700	30
3.40067	30
3.40433	30
3.40800	30
3.41167	30
3.41533	30
3.41900	30
3.42267	30
3.42633	30
3.43000	30
3.43367	30
3.43733	30
3.44100	30
3.44467	30
3.44833	30
3.45200	30
3.45567	30
3.45933	30
3.46300	30
3.46667	30
3.47033	30
3.47400	30
3.47767	30
3.48133	31
3.48500	31
3.48867	31
3.49233	31
3.49600	31
3.49967	32
3.50333	32
3.50700	32
3.51067	32
3.51433	32
3.51800	31
3.52167	31
3.52533	31
3.52900	31
3.53267	30
3.53633	30
3.54000	29
3.54367	29
3.54733	29
3.55100	29
3.55467	28
3.55833	28
3.56200	28
3.56567	28
3.56933	28
3.57300	28
3.57667	28
3.58033	28
3.58400	28
3.58767	28
3.59133	28
3.59500	28
3.59867	28
3.60233	28
3.60600	28
3.60967	28
3.61333	28
3.61700	28
3.62067	28
3.62433	28
3.62800	28
3.63167	28
3.63533	28
3.63900	28
3.64267	28
3.64633	28
3.65000	27
3.65367	27
3.65733	27
3.66100	27
3.66467	27
3.66833	27
3.67200	27
3.67567	27
3.67933	27
3.68300	28
3.68667	28
3.69033	28
3.69400	28
3.69767	28
3.70133	29
3.70500	29
3.70867	29
3.71233	29
3.71600	29
3.71967	29
3.72333	29
3.72700	29
3.73067	28
3.73433	28
3.73800	28
3.74167	28
3.74533	28
3.74900	28
3.75267	27
3.75633	27
3.76000	27
3.76367	26
3.76733	26
3.77100	26
3.77467	26
3.77833	26
3.78200	26
3.78567	26
3.78933	26
3.79300	26
3.79667	26
3.80033	26
3.80400	27
3.80767	27
3.81133	27
3.81500	28
3.81867	28
3.82233	28
3.82600	28
3.82967	28
3.83333	27
3.83700	27
3.84067	27
3.84433	27
3.84800	27
3.85167	27
3.85533	27
3.85900	27
3.86267	27
3.86633	27
3.87000	27
3.87367	27
3.87733	27
3.88100	27
3.88467	27
3.88833	27
3.89200	27
3.89567	27
3.89933	27
3.90300	27
3.90667	27
3.91033	27
3.91400	27
3.91767	27
3.92133	27
3.92500	27
3.92867	27
3.93233	27
3.93600	27
3.93967	27
3.94333	27
3.94700	27
3.95067	27
3.95433	27
3.95800	27
3.96167	27
3.96533	27
3.96900	27
3.97267	27
3.97633	27
3.98000	27
3.98367	27
3.98733	27
3.99100	27
3.99467	27
3.99833	28

[Chromatogram (Ch3)]
Interval(msec)	220
# of Points	1091
Start Time(min)	0.002
End Time(min)	3.998
R.Time (min)	Intensity
0.00167	1
0.00533	3
0.00900	4
0.01267	4
0.01633	5
0.02000	5
0.02367	4
0.02733	4
0.03100	4
0.03467	3
0.03833	1
0.04200	2
0.04567	3
0.04933	3
0.05300	2
0.05667	4
0.06033	5
0.06400	4
0.06767	3
0.07133	4
0.07500	7
0.07867	10
0.08233	10
0.08600	11
0.08967	11
0.09333	12
0.09700	15
0.10067	14
0.10433	13
0.10800	12
0.11167	10
0.11533	8
0.11900	8
0.12267	9
0.12633	10
0.13000	12
0.13367	12
0.13733	12
0.14100	13
0.14467	14
0.14833	13
0.15200	9
0.15567	5
0.15933	5
0.16300	3
0.16667	4
0.17033	5
0.17400	6
0.17767	8
0.18133	9
0.18500	8
0.18867	6
0.19233	5
0.19600	4
0.19967	2
0.20333	2
0.20700	2
0.21067	4
0.21433	4
0.21800	3
0.22167	2
0.22533	-1
0.22900	-1
0.23267	-0
0.23633	0
0.24000	1
0.24367	-0
0.24733	1
0.25100	2
0.25467	2
0.25833	1
0.26200	-0
0.26567	-1
0.26933	-2
0.27300	-4
0.27667	-4
0.28033	-3
0.28400	-3
0.28767	-4
0.29133	-5
0.29500	-9
0.29867	-8
0.30233	-6
0.30600	-1
0.30967	2
0.31333	4
0.31700	4
0.32067	3
0.32433	3
0.32800	1
0.33167	-0
0.33533	-2
0.33900	-5
0.34267	-6
0.34633	-7
0.35000	-6
0.35367	-5
0.35733	-4
0.36100	-2
0.36467	-2
0.36833	-3
0.37200	-4
0.37567	-4
0.37933	-4
0.38300	-6
0.38667	-6
0.39033	-5
0.39400	-4
0.39767	-2
0.40133	-1
0.40500	1
0.40867	-1
0.41233	-3
0.41600	-4
0.41967	-5
0.42333	-6
0.42700	-7
0.43067	-6
0.43433	-6
0.43800	-6
0.44167	-8
0.44533	-7
0.44900	-7
0.45267	-8
0.45633	-9
0.46000	-8
0.46367	-8
0.46733	-7
0.47100	-6
0.47467	-6
0.47833	-6
0.48200	-6
0.48567	-7
0.48933	-8
0.49300	-10
0.49667	-9
0.50033	-7
0.50400	-5
0.50767	-6
0.51133	-7
0.51500	-8
0.51867	-11
0.52233	-9
0.52600	-8
0.52967	-7
0.53333	-7
0.53700	-5
0.54067	-5
0.54433	-4
0.54800	-4
0.55167	-4
0.55533	-4
0.55900	-6
0.56267	-9
0.56633	-11
0.57000	-11
0.57367	-10
0.57733	-8
0.58100	-6
0.58467	-6
0.58833	-6
0.59200	-5
0.59567	-6
0.59933	-10
0.60300	-11
0.60667	-10
0.61033	-8
0.61400	-6
0.61767	-5
0.62133	-3
0.62500	-3
0.62867	-2
0.63233	-1
0.63600	-2
0.63967	-2
0.64333	-3
0.64700	-7
0.65067	-9
0.65433	-8
0.65800	-6
0.66167	-5
0.66533	-5
0.66900	-5
0.67267	-4
0.67633	-3
0.68000	-2
0.68367	-3
0.68733	-4
0.69100	-4
0.69467	-5
0.69833	-4
0.70200	-3
0.70567	-2
0.70933	-0
0.71300	-1
0.71667	-0
0.72033	-1
0.72400	-3
0.72767	-4
0.73133	-3
0.73500	-2
0.73867	-3
0.74233	-4
0.74600	-3
0.74967	-2
0.75333	1
0.75700	2
0.76067	-1
0.76433	-5
0.76800	-7
0.77167	-4
0.77533	-1
0.77900	-1
0.78267	-1
0.78633	-1
0.79000	-2
0.79367	-3
0.79733	-4
0.80100	-2
0.80467	-0
0.80833	0
0.81200	1
0.81567	-0
0.81933	-2
0.82300	-1
0.82667	-0
0.83033	0
0.83400	-2
0.83767	-0
0.84133	0
0.84500	0
0.84867	0
0.85233	-0
0.85600	-0
0.85967	-2
0.86333	-3
0.86700	-2
0.87067	-2
0.87433	-1
0.87800	-2
0.88167	-1
0.88533	0
0.88900	2
0.89267	2
0.89633	4
0.90000	4
0.90367	1
0.90733	-2
0.91100	-4
0.91467	-5
0.91833	-6
0.92200	-5
0.92567	-2
0.92933	-1
0.93300	-0
0.93667	1
0.94033	2
0.94400	3
0.94767	3
0.95133	4
0.95500	6
0.95867	5
0.96233	4
0.96600	3
0.96967	4
0.97333	3
0.97700	2
0.98067	2
0.98433	1
0.98800	2
0.99167	2
0.99533	1
0.99900	0
1.00267	1
1.00633	2
1.01000	1
1.01367	0
1.01733	1
1.02100	-0
1.02467	-1
1.02833	-2
1.03200	-4
1.03567	-4
1.03933	-2
1.04300	1
1.04667	5
1.05033	7
1.05400	6
1.05767	4
1.06133	3
1.06500	2
1.06867	3
1.07233	6
1.07600	7
1.07967	5
1.08333	4
1.08700	5
1.09067	3
1.09433	3
1.09800	3
1.10167	2
1.10533	-1
1.10900	-2
1.11267	-3
1.11633	-0
1.12000	2
1.12367	4
1.12733	5
1.13100	5
1.13467	3
1.13833	2
1.14200	2
1.14567	2
1.14933	2
1.15300	3
1.15667	4
1.16033	5
1.16400	6
1.16767	6
1.17133	5
1.17500	2
1.17867	0
1.18233	2
1.18600	1
1.18967	1
1.19333	2
1.19700	2
1.20067	2
1.20433	3
1.20800	3
1.21167	2
1.21533	1
1.21900	1
1.22267	1
1.22633	1
1.23000	2
1.23367	5
1.23733	8
1.24100	9
1.24467	7
1.24833	6
1.25200	4
1.25567	5
1.25933	5
1.26300	6
1.26667	7
1.27033	8
1.27400	8
1.27767	7
1.28133	7
1.28500	5
1.28867	6
1.29233	8
1.29600	8
1.29967	8
1.30333	7
1.30700	6
1.31067	5
1.31433	5
1.31800	6
1.32167	7
1.32533	7
1.32900	7
1.33267	7
1.33633	5
1.34000	4
1.34367	4
1.34733	5
1.35100	5
1.35467	5
1.35833	5
1.36200	8
1.36567	9
1.36933	9
1.37300	10
1.37667	11
1.38033	10
1.38400	9
1.38767	10
1.39133	10
1.39500	10
1.39867	7
1.40233	7
1.40600	6
1.40967	5
1.41333	5
1.41700	5
1.42067	6
1.42433	8
1.42800	10
1.43167	8
1.43533	9
1.43900	9
1.44267	7
1.44633	9
1.45000	9
1.45367	7
1.45733	5
1.46100	7
1.46467	9
1.46833	9
1.47200	7
1.47567	5
1.47933	5
1.48300	6
1.48667	5
1.49033	3
1.49400	3
1.49767	3
1.50133	3
1.50500	3
1.50867	3
1.51233	4
1.51600	5
1.51967	5
1.52333	4
1.52700	5
1.53067	6
1.53433	6
1.53800	5
1.54167	6
1.54533	6
1.54900	7
1.55267	10
1.55633	9
1.56000	9
1.56367	10
1.56733	8
1.57100	8
1.57467	6
1.57833	6
1.58200	5
1.58567	5
1.58933	5
1.59300	7
1.59667	9
1.60033	11
1.60400	10
1.60767	10
1.61133	9
1.61500	8
1.61867	9
1.62233	10
1.62600	11
1.62967	11
1.63333	11
1.63700	12
1.64067	12
1.64433	11
1.64800	10
1.65167	8
1.65533	8
1.65900	9
1.66267	11
1.66633	13
1.67000	12
1.67367	12
1.67733	13
1.68100	13
1.68467	12
1.68833	13
1.69200	13
1.69567	14
1.69933	14
1.70300	12
1.70667	11
1.71033	12
1.71400	13
1.71767	12
1.72133	12
1.72500	12
1.72867	12
1.73233	13
1.73600	14
1.73967	12
1.74333	13
1.74700	15
1.75067	14
1.75433	13
1.75800	14
1.76167	17
1.76533	19
1.76900	21
1.77267	22
1.77633	25
1.78000	28
1.78367	28
1.78733	29
1.79100	29
1.79467	26
1.79833	24
1.80200	23
1.80567	23
1.80933	23
1.81300	21
1.81667	21
1.82033	20
1.82400	21
1.82767	22
1.83133	23
1.83500	23
1.83867	22
1.84233	22
1.84600	24
1.84967	27
1.85333	28
1.85700	28
1.86067	29
1.86433	29
1.86800	28
1.87167	25
1.87533	23
1.87900	22
1.88267	21
1.88633	21
1.89000	22
1.89367	24
1.89733	27
1.90100	29
1.90467	30
1.90833	30
1.91200	31
1.91567	34
1.91933	36
1.92300	38
1.92667	39
1.93033	40
1.93400	40
1.93767	40
1.94133	41
1.94500	44
1.94867	44
1.95233	44
1.95600	45
1.95967	45
1.96333	44
1.96700	45
1.97067	46
1.97433	46
1.97800	46
1.98167	47
1.98533	48
1.98900	49
1.99267	50
1.99633	50
2.00000	50
2.00367	51
2.00733	52
2.01100	53
2.01467	55
2.01833	56
2.02200	58
2.02567	60
2.02933	62
2.03300	63
2.03667	62
2.04033	63
2.04400	64
2.04767	64
2.05133	64
2.05500	65
2.05867	67
2.06233	68
2.06600	66
2.06967	67
2.07333	72
2.07700	76
2.08067	79
2.08433	81
2.08800	81
2.09167	81
2.09533	80
2.09900	82
2.10267	85
2.10633	84
2.11000	83
2.11367	82
2.11733	82
2.12100	84
2.12467	87
2.12833	90
2.13200	91
2.13567	91
2.13933	92
2.14300	94
2.14667	96
2.15033	97
2.15400	96
2.15767	96
2.16133	97
2.16500	99
2.16867	100
2.17233	103
2.17600	106
2.17967	106
2.18333	103
2.18700	103
2.19067	106
2.19433	109
2.19800	109
2.20167	110
2.20533	111
2.20900	112
2.21267	113
2.21633	116
2.22000	120
2.22367	122
2.22733	125
2.23100	128
2.23467	128
2.23833	127
2.24200	127
2.24567	128
2.24933	130
2.25300	133
2.25667	136
2.26033	137
2.26400	139
2.26767	141
2.27133	142
2.27500	143
2.27867	145
2.28233	148
2.28600	148
2.28967	149
2.29333	152
2.29700	152
2.30067	153
2.30433	155
2.30800	159
2.31167	163
2.31533	164
2.31900	163
2.32267	164
2.32633	165
2.33000	167
2.33367	170
2.33733	170
2.34100	170
2.34467	174
2.34833	178
2.35200	182
2.35567	186
2.35933	187
2.36300	187
2.36667	190
2.37033	193
2.37400	196
2.37767	198
2.38133	200
2.38500	199
2.38867	196
2.39233	197
2.39600	199
2.39967	204
2.40333	207
2.40700	210
2.41067	213
2.41433	215
2.41800	219
2.42167	225
2.42533	227
2.42900	230
2.43267	229
2.43633	227
2.44000	229
2.44367	277
2.44733	401
2.45100	534
2.45467	644
2.45833	712
2.46200	722
2.46567	694
2.46933	658
2.47300	628
2.47667	612
2.48033	603
2.48400	588
2.48767	560
2.49133	523
2.49500	486
2.49867	454
2.50233	427
2.50600	409
2.50967	400
2.51333	396
2.51700	399
2.52067	406
2.52433	422
2.52800	442
2.53167	456
2.53533	464
2.53900	462
2.54267	454
2.54633	437
2.55000	415
2.55367	391
2.55733	369
2.56100	349
2.56467	334
2.56833	322
2.57200	313
2.57567	306
2.57933	301
2.58300	297
2.58667	293
2.59033	292
2.59400	290
2.59767	289
2.60133	283
2.60500	273
2.60867	260
2.61233	243
2.61600	225
2.61967	208
2.62333	195
2.62700	183
2.63067	172
2.63433	169
2.63800	170
2.64167	171
2.64533	175
2.64900	181
2.65267	186
2.65633	191
2.66000	195
2.66367	196
2.66733	196
2.67100	195
2.67467	194
2.67833	190
2.68200	186
2.68567	182
2.68933	178
2.69300	171
2.69667	165
2.70033	162
2.70400	158
2.70767	155
2.71133	154
2.71500	152
2.71867	151
2.72233	152
2.72600	152
2.72967	150
2.73333	149
2.73700	148
2.74067	148
2.74433	148
2.74800	151
2.75167	154
2.75533	155
2.75900	155
2.76267	157
2.76633	159
2.77000	161
2.77367	162
2.77733	162
2.78100	160
2.78467	160
2.78833	162
2.79200	164
2.79567	166
2.79933	167
2.80300	168
2.80667	169
2.81033	172
2.81400	175
2.81767	189
2.82133	227
2.82500	316
2.82867	507
2.83233	859
2.83600	1441
2.83967	2311
2.84333	3489
2.84700	4966
2.85067	6685
2.85433	8542
2.85800	10404
2.86167	12124
2.86533	13571
2.86900	14645
2.87267	15287
2.87633	15490
2.88000	15292
2.88367	14759
2.88733	13975
2.89100	13026
2.89467	11986
2.89833	10909
2.90200	9843
2.90567	8824
2.90933	7870
2.91300	6988
2.91667	6183
2.92033	5459
2.92400	4812
2.92767	4234
2.93133	3717
2.93500	3262
2.93867	2864
2.94233	2514
2.94600	2210
2.94967	1944
2.95333	1710
2.95700	1505
2.96067	1327
2.96433	1172
2.96800	1038
2.97167	922
2.97533	821
2.97900	734
2.98267	658
2.98633	592
2.99000	535
2.99367	486
2.99733	441
3.00100	403
3.00467	371
3.00833	344
3.01200	321
3.01567	302
3.01933	286
3.02300	271
3.02667	252
3.03033	236
3.03400	223
3.03767	213
3.04133	205
3.04500	197
3.04867	190
3.05233	184
3.05600	180
3.05967	176
3.06333	172
3.06700	168
3.07067	166
3.07433	164
3.07800	160
3.08167	157
3.08533	155
3.08900	153
3.09267	153
3.09633	151
3.10000	152
3.10367	152
3.10733	151
3.11100	150
3.11467	148
3.11833	147
3.12200	145
3.12567	142
3.12933	140
3.13300	139
3.13667	139
3.14033	137
3.14400	137
3.14767	131
3.15133	110
3.15500	78
3.15867	58
3.16233	58
3.16600	76
3.16967	109
3.17333	148
3.17700	188
3.18067	225
3.18433	259
3.18800	292
3.19167	322
3.19533	348
3.19900	371
3.20267	391
3.20633	409
3.21000	425
3.21367	443
3.21733	457
3.22100	469
3.22467	481
3.22833	491
3.23200	500
3.23567	506
3.23933	512
3.24300	519
3.24667	525
3.25033	529
3.25400	534
3.25767	539
3.26133	545
3.26500	550
3.26867	554
3.27233	557
3.27600	557
3.27967	558
3.28333	562
3.28700	567
3.29067	570
3.29433	570
3.29800	571
3.30167	573
3.30533	575
3.30900	576
3.31267	578
3.31633	580
3.32000	581
3.32367	581
3.32733	582
3.33100	584
3.33467	586
3.33833	586
3.34200	588
3.34567	588
3.34933	587
3.35300	586
3.35667	588
3.36033	589
3.36400	591
3.36767	594
3.37133	596
3.37500	597
3.37867	599
3.38233	601
3.38600	603
3.38967	604
3.39333	603
3.39700	604
3.40067	607
3.40433	608
3.40800	607
3.41167	606
3.41533	605
3.41900	605
3.42267	609
3.42633	612
3.43000	613
3.43367	614
3.43733	616
3.44100	616
3.44467	615
3.44833	614
3.45200	616
3.45567	616
3.45933	615
3.46300	612
3.46667	611
3.47033	610
3.47400	610
3.47767	609
3.48133	608
3.48500	608
3.48867	606
3.49233	602
3.49600	599
3.49967	599
3.50333	599
3.50700	597
3.51067	595
3.51433	594
3.51800	592
3.52167	590
3.52533	589
3.52900	591
3.53267	589
3.53633	587
3.54000	584
3.54367	581
3.54733	582
3.55100	585
3.55467	585
3.55833	584
3.56200	583
3.56567	580
3.56933	578
3.57300	578
3.57667	579
3.58033	580
3.58400	578
3.58767	574
3.59133	573
3.59500	572
3.59867	570
3.60233	569
3.60600	568
3.60967	567
3.61333	565
3.61700	565
3.62067	564
3.62433	564
3.62800	566
3.63167	565
3.63533	561
3.63900	559
3.64267	559
3.64633	558
3.65000	554
3.65367	552
3.65733	553
3.66100	554
3.66467	555
3.66833	556
3.67200	555
3.67567	553
3.67933	553
3.68300	555
3.68667	555
3.69033	556
3.69400	556
3.69767	555
3.70133	554
3.70500	554
3.70867	554
3.71233	556
3.71600	557
3.71967	559
3.72333	559
3.72700	556
3.73067	552
3.73433	549
3.73800	548
3.74167	548
3.74533	549
3.74900	549
3.75267	546
3.75633	545
3.76000	548
3.76367	550
3.76733	551
3.77100	550
3.77467	549
3.77833	550
3.78200	552
3.78567	551
3.78933	551
3.79300	551
3.79667	550
3.80033	547
3.80400	543
3.80767	542
3.81133	541
3.81500	540
3.81867	541
3.82233	541
3.82600	544
3.82967	543
3.83333	541
3.83700	541
3.84067	538
3.84433	537
3.84800	534
3.85167	533
3.85533	534
3.85900	535
3.86267	536
3.86633	536
3.87000	536
3.87367	536
3.87733	534
3.88100	531
3.88467	529
3.88833	527
3.89200	527
3.89567	527
3.89933	527
3.90300	528
3.90667	528
3.91033	525
3.91400	520
3.91767	517
3.92133	518
3.92500	516
3.92867	512
3.93233	510
3.93600	508
3.93967	509
3.94333	507
3.94700	503
3.95067	501
3.95433	500
3.95800	500
3.96167	499
3.96533	498
3.96900	499
3.97267	501
3.97633	502
3.98000	500
3.98367	498
3.98733	497
3.99100	494
3.99467	492
3.99833	487

[Status Trace (Column Oven Temperature)]
Interval(msec)	1000
# of Points	240
Start Time(min)	0.016
End Time(min)	3.999
Intensity Units	
Intensity Multiplier	1
R.Time (min)	Intensity
0.01562	35.08
0.03228	35.07
0.04895	35.06
0.06562	35.06
0.08228	35.06
0.09895	35.06
0.11562	35.06
0.13228	35.05
0.14895	35.04
0.16562	35.02
0.18228	35.01
0.19895	34.99
0.21562	34.96
0.23228	34.97
0.24895	34.99
0.26562	35.00
0.28228	35.01
0.29895	35.02
0.31562	35.02
0.33228	35.01
0.34895	35.02
0.36562	35.04
0.38228	35.04
0.39895	35.04
0.41562	35.02
0.43228	35.02
0.44895	35.01
0.46562	35.00
0.48228	34.99
0.49895	34.98
0.51562	34.97
0.53228	34.97
0.54895	34.97
0.56562	34.96
0.58228	34.97
0.59895	34.98
0.61562	34.99
0.63228	35.00
0.64895	35.01
0.66562	35.00
0.68228	35.00
0.69895	34.99
0.71562	35.00
0.73228	35.01
0.74895	35.02
0.76562	35.02
0.78228	35.02
0.79895	35.02
0.81562	35.02
0.83228	35.01
0.84895	35.00
0.86562	34.99
0.88228	35.00
0.89895	35.00
0.91562	35.01
0.93228	35.01
0.94895	35.02
0.96562	35.02
0.98228	35.02
0.99895	35.01
1.01562	35.00
1.03228	34.99
1.04895	34.97
1.06562	34.97
1.08228	34.96
1.09895	34.95
1.11562	34.96
1.13228	34.97
1.14895	34.99
1.16562	35.00
1.18228	35.02
1.19895	35.02
1.21562	35.01
1.23228	35.00
1.24895	35.00
1.26562	35.00
1.28228	35.00
1.29895	35.02
1.31562	35.01
1.33228	35.01
1.34895	35.00
1.36562	35.00
1.38228	34.99
1.39895	34.99
1.41562	35.00
1.43228	35.02
1.44895	35.03
1.46562	35.03
1.48228	35.04
1.49895	35.04
1.51562	35.03
1.53228	35.02
1.54895	35.02
1.56562	35.01
1.58228	35.00
1.59895	35.02
1.61562	35.09
1.63228	35.23
1.64895	35.44
1.66562	35.77
1.68228	36.16
1.69895	36.51
1.71562	36.86
1.73228	37.18
1.74895	37.48
1.76562	37.82
1.78228	38.18
1.79895	38.50
1.81562	38.83
1.83228	39.16
1.84895	39.49
1.86562	39.81
1.88228	40.14
1.89895	40.47
1.91562	40.81
1.93228	41.13
1.94895	41.46
1.96562	41.79
1.98228	42.12
1.99895	42.45
2.01562	42.77
2.03228	43.09
2.04895	43.42
2.06562	43.74
2.08228	44.07
2.09895	44.40
2.11562	44.73
2.13228	45.04
2.14895	45.38
2.16562	45.69
2.18228	46.01
2.19895	46.34
2.21562	46.67
2.23228	46.99
2.24895	47.31
2.26562	47.65
2.28228	47.99
2.29895	48.36
2.31562	48.68
2.33228	48.99
2.34895	49.29
2.36562	49.55
2.38228	49.69
2.39895	49.72
2.41562	49.70
2.43228	49.72
2.44895	49.72
2.46562	49.74
2.48228	49.74
2.49895	49.76
2.51562	49.76
2.53228	49.76
2.54895	49.78
2.56562	49.81
2.58228	49.81
2.59895	49.82
2.61562	49.83
2.63228	49.83
2.64895	49.83
2.66562	49.83
2.68228	49.83
2.69895	49.86
2.71562	49.88
2.73228	49.88
2.74895	49.85
2.76562	49.84
2.78228	49.87
2.79895	49.89
2.81562	49.90
2.83228	49.91
2.84895	49.91
2.86562	49.91
2.88228	49.92
2.89895	49.93
2.91562	49.93
2.93228	49.94
2.94895	49.96
2.96562	49.97
2.98228	49.98
2.99895	49.99
3.01562	50.00
3.03228	50.00
3.04895	50.02
3.06562	50.03
3.08228	50.04
3.09895	50.05
3.11562	50.05
3.13228	50.05
3.14895	50.05
3.16562	50.06
3.18228	50.06
3.19895	50.07
3.21562	50.07
3.23228	50.09
3.24895	50.10
3.26562	50.10
3.28228	50.10
3.29895	50.11
3.31562	50.12
3.33228	50.10
3.34895	50.08
3.36562	50.07
3.38228	50.06
3.39895	50.05
3.41562	50.04
3.43228	50.03
3.44895	50.02
3.46562	50.01
3.48228	50.00
3.49895	49.99
3.51562	49.99
3.53228	49.99
3.54895	50.00
3.56562	50.01
3.58228	50.01
3.59895	50.01
3.61562	50.01
3.63228	50.02
3.64895	50.03
3.66562	50.03
3.68228	50.03
3.69895	50.03
3.71562	50.03
3.73228	50.03
3.74895	50.04
3.76562	50.05
3.78228	50.06
3.79895	50.06
3.81562	50.06
3.83228	50.06
3.84895	50.06
3.86562	50.07
3.88228	50.07
3.89895	50.09
3.91562	50.09
3.93228	50.08
3.94895	50.09
3.96562	50.09
3.98228	50.09
3.99895	50.09

[Status Trace (Injection Unit Temperature)]
Interval(msec)	1000
# of Points	240
Start Time(min)	0.016
End Time(min)	3.999
Intensity Units	
Intensity Multiplier	1
R.Time (min)	Intensity
0.01562	99.98
0.03228	99.98
0.04895	99.98
0.06562	99.98
0.08228	99.98
0.09895	99.98
0.11562	99.98
0.13228	99.98
0.14895	99.98
0.16562	99.98
0.18228	99.98
0.19895	99.98
0.21562	99.98
0.23228	99.98
0.24895	99.98
0.26562	99.98
0.28228	99.98
0.29895	99.98
0.31562	99.98
0.33228	99.98
0.34895	99.98
0.36562	99.98
0.38228	99.98
0.39895	99.98
0.41562	99.98
0.43228	99.98
0.44895	99.99
0.46562	99.98
0.48228	99.98
0.49895	99.97
0.51562	99.98
0.53228	99.98
0.54895	99.98
0.56562	99.98
0.58228	99.98
0.59895	99.98
0.61562	99.98
0.63228	99.98
0.64895	99.98
0.66562	99.98
0.68228	99.98
0.69895	99.98
0.71562	99.98
0.73228	99.98
0.74895	99.98
0.76562	99.98
0.78228	99.98
0.79895	99.98
0.81562	99.98
0.83228	99.99
0.84895	99.98
0.86562	99.98
0.88228	99.98
0.89895	99.99
0.91562	99.98
0.93228	99.99
0.94895	99.99
0.96562	99.99
0.98228	99.98
0.99895	99.99
1.01562	99.99
1.03228	99.99
1.04895	99.98
1.06562	99.99
1.08228	99.99
1.09895	99.99
1.11562	99.98
1.13228	99.99
1.14895	99.99
1.16562	99.98
1.18228	99.98
1.19895	99.99
1.21562	99.99
1.23228	99.99
1.24895	99.98
1.26562	99.98
1.28228	99.98
1.29895	99.98
1.31562	99.98
1.33228	99.99
1.34895	99.98
1.36562	99.98
1.38228	99.98
1.39895	99.99
1.41562	99.98
1.43228	99.98
1.44895	99.98
1.46562	99.98
1.48228	99.98
1.49895	99.98
1.51562	99.98
1.53228	99.98
1.54895	99.98
1.56562	99.99
1.58228	99.98
1.59895	99.98
1.61562	99.98
1.63228	99.98
1.64895	99.98
1.66562	99.98
1.68228	99.98
1.69895	99.98
1.71562	99.98
1.73228	99.98
1.74895	99.98
1.76562	99.98
1.78228	99.98
1.79895	99.98
1.81562	99.98
1.83228	99.98
1.84895	99.98
1.86562	99.98
1.88228	99.98
1.89895	99.97
1.91562	99.98
1.93228	99.98
1.94895	99.98
1.96562	99.98
1.98228	99.98
1.99895	99.98
2.01562	99.98
2.03228	99.98
2.04895	99.98
2.06562	99.98
2.08228	99.98
2.09895	99.98
2.11562	99.98
2.13228	99.98
2.14895	99.98
2.16562	99.98
2.18228	99.98
2.19895	99.98
2.21562	99.97
2.23228	99.97
2.24895	99.98
2.26562	99.97
2.28228	99.98
2.29895	99.98
2.31562	99.97
2.33228	99.98
2.34895	99.97
2.36562	99.97
2.38228	99.97
2.39895	99.97
2.41562	99.97
2.43228	99.97
2.44895	99.97
2.46562	99.97
2.48228	99.98
2.49895	99.98
2.51562	99.98
2.53228	99.98
2.54895	99.98
2.56562	99.97
2.58228	99.97
2.59895	99.97
2.61562	99.98
2.63228	99.98
2.64895	99.98
2.66562	99.98
2.68228	99.98
2.69895	99.98
2.71562	99.98
2.73228	99.98
2.74895	99.99
2.76562	99.99
2.78228	99.99
2.79895	99.99
2.81562	99.99
2.83228	99.99
2.84895	99.99
2.86562	99.99
2.88228	99.99
2.89895	100.00
2.91562	99.99
2.93228	99.99
2.94895	99.99
2.96562	99.99
2.98228	100.00
2.99895	100.00
3.01562	100.00
3.03228	100.00
3.04895	100.00
3.06562	100.00
3.08228	100.00
3.09895	100.00
3.11562	100.01
3.13228	100.01
3.14895	100.01
3.16562	100.01
3.18228	100.01
3.19895	100.01
3.21562	100.01
3.23228	100.01
3.24895	100.02
3.26562	100.01
3.28228	100.02
3.29895	100.02
3.31562	100.02
3.33228	100.02
3.34895	100.02
3.36562	100.02
3.38228	100.02
3.39895	100.02
3.41562	100.02
3.43228	100.02
3.44895	100.03
3.46562	100.03
3.48228	100.03
3.49895	100.03
3.51562	100.03
3.53228	100.03
3.54895	100.03
3.56562	100.03
3.58228	100.03
3.59895	100.03
3.61562	100.03
3.63228	100.03
3.64895	100.03
3.66562	100.03
3.68228	100.03
3.69895	100.04
3.71562	100.03
3.73228	100.04
3.74895	100.04
3.76562	100.03
3.78228	100.04
3.79895	100.04
3.81562	100.04
3.83228	100.04
3.84895	100.04
3.86562	100.03
3.88228	100.04
3.89895	100.04
3.91562	100.04
3.93228	100.03
3.94895	100.04
3.96562	100.04
3.98228	100.04
3.99895	100.04

[Status Trace (Carrier Gas Pressure)]
Interval(msec)	1000
# of Points	240
Start Time(min)	0.016
End Time(min)	3.999
Intensity Units	
Intensity Multiplier	1
R.Time (min)	Intensity
0.01562	57.10
0.03228	55.77
0.04895	58.17
0.06562	59.88
0.08228	58.56
0.09895	57.97
0.11562	58.00
0.13228	58.01
0.14895	58.01
0.16562	58.00
0.18228	58.00
0.19895	58.00
0.21562	58.00
0.23228	58.00
0.24895	58.00
0.26562	58.00
0.28228	58.00
0.29895	58.00
0.31562	58.00
0.33228	58.00
0.34895	58.00
0.36562	58.00
0.38228	58.00
0.39895	58.00
0.41562	58.00
0.43228	58.00
0.44895	58.00
0.46562	58.00
0.48228	58.00
0.49895	58.00
0.51562	58.00
0.53228	58.00
0.54895	58.00
0.56562	58.00
0.58228	58.00
0.59895	58.00
0.61562	58.00
0.63228	58.00
0.64895	58.00
0.66562	58.00
0.68228	58.00
0.69895	58.00
0.71562	58.00
0.73228	58.00
0.74895	58.00
0.76562	58.00
0.78228	58.00
0.79895	58.00
0.81562	58.00
0.83228	58.00
0.84895	58.00
0.86562	58.00
0.88228	58.00
0.89895	58.00
0.91562	58.00
0.93228	58.00
0.94895	58.00
0.96562	58.00
0.98228	58.00
0.99895	58.00
1.01562	58.00
1.03228	58.00
1.04895	58.00
1.06562	58.00
1.08228	58.00
1.09895	58.00
1.11562	58.00
1.13228	58.00
1.14895	58.00
1.16562	58.00
1.18228	58.00
1.19895	58.00
1.21562	58.00
1.23228	58.00
1.24895	58.00
1.26562	58.00
1.28228	58.00
1.29895	58.00
1.31562	58.00
1.33228	58.00
1.34895	58.00
1.36562	58.00
1.38228	58.00
1.39895	58.00
1.41562	58.00
1.43228	58.00
1.44895	58.00
1.46562	58.00
1.48228	58.00
1.49895	58.00
1.51562	58.00
1.53228	58.00
1.54895	58.00
1.56562	58.00
1.58228	58.00
1.59895	58.00
1.61562	58.00
1.63228	58.01
1.64895	58.01
1.66562	58.01
1.68228	58.01
1.69895	58.00
1.71562	58.00
1.73228	58.00
1.74895	58.00
1.76562	58.00
1.78228	58.00
1.79895	58.00
1.81562	58.00
1.83228	58.00
1.84895	58.00
1.86562	58.00
1.88228	58.00
1.89895	58.00
1.91562	58.00
1.93228	58.00
1.94895	58.00
1.96562	58.00
1.98228	58.00
1.99895	58.00
2.01562	58.00
2.03228	58.00
2.04895	58.00
2.06562	58.00
2.08228	58.00
2.09895	58.00
2.11562	58.00
2.13228	58.00
2.14895	58.00
2.16562	58.00
2.18228	58.00
2.19895	58.00
2.21562	58.00
2.23228	58.00
2.24895	58.00
2.26562	58.00
2.28228	58.00
2.29895	58.00
2.31562	58.00
2.33228	58.00
2.34895	58.00
2.36562	58.00
2.38228	57.99
2.39895	57.99
2.41562	58.00
2.43228	58.00
2.44895	58.00
2.46562	58.00
2.48228	58.00
2.49895	58.00
2.51562	57.99
2.53228	57.99
2.54895	58.00
2.56562	58.00
2.58228	58.00
2.59895	58.00
2.61562	58.00
2.63228	58.00
2.64895	58.00
2.66562	58.00
2.68228	58.00
2.69895	58.00
2.71562	58.00
2.73228	58.00
2.74895	58.00
2.76562	58.00
2.78228	58.00
2.79895	58.00
2.81562	58.00
2.83228	58.00
2.84895	58.00
2.86562	58.00
2.88228	58.00
2.89895	58.00
2.91562	58.00
2.93228	58.00
2.94895	58.00
2.96562	58.00
2.98228	58.00
2.99895	58.00
3.01562	58.00
3.03228	58.00
3.04895	58.00
3.06562	58.00
3.08228	58.00
3.09895	58.00
3.11562	58.00
3.13228	58.00
3.14895	58.00
3.16562	58.00
3.18228	58.00
3.19895	58.00
3.21562	58.00
3.23228	58.00
3.24895	58.00
3.26562	58.00
3.28228	58.00
3.29895	58.00
3.31562	58.00
3.33228	58.00
3.34895	58.00
3.36562	58.00
3.38228	58.00
3.39895	58.00
3.41562	58.00
3.43228	58.00
3.44895	58.00
3.46562	58.00
3.48228	58.00
3.49895	58.00
3.51562	58.00
3.53228	58.00
3.54895	58.00
3.56562	58.00
3.58228	58.00
3.59895	58.00
3.61562	58.00
3.63228	58.00
3.64895	58.00
3.66562	58.00
3.68228	58.00
3.69895	58.00
3.71562	58.00
3.73228	58.00
3.74895	58.00
3.76562	58.00
3.78228	58.00
3.79895	58.00
3.81562	58.00
3.83228	58.00
3.84895	58.00
3.86562	58.00
3.88228	58.00
3.89895	58.00
3.91562	58.00
3.93228	58.00
3.94895	58.00
3.96562	58.00
3.98228	58.00
3.99895	58.00

[Status Trace (Carrier Gas Flow)]
Interval(msec)	1000
# of Points	240
Start Time(min)	0.016
End Time(min)	3.999
Intensity Units	
Intensity Multiplier	1
R.Time (min)	Intensity
0.01562	33.84
0.03228	34.54
0.04895	34.54
0.06562	34.51
0.08228	34.51
0.09895	34.52
0.11562	34.52
0.13228	34.51
0.14895	34.51
0.16562	34.52
0.18228	34.52
0.19895	34.52
0.21562	34.52
0.23228	34.51
0.24895	34.52
0.26562	34.52
0.28228	34.52
0.29895	34.52
0.31562	34.52
0.33228	34.52
0.34895	34.52
0.36562	34.52
0.38228	34.51
0.39895	34.52
0.41562	34.52
0.43228	34.52
0.44895	34.51
0.46562	34.51
0.48228	34.52
0.49895	34.52
0.51562	34.52
0.53228	34.52
0.54895	34.52
0.56562	34.52
0.58228	34.51
0.59895	34.51
0.61562	34.52
0.63228	34.53
0.64895	34.52
0.66562	34.51
0.68228	34.52
0.69895	34.52
0.71562	34.51
0.73228	34.52
0.74895	34.52
0.76562	34.52
0.78228	34.52
0.79895	34.51
0.81562	34.52
0.83228	34.52
0.84895	34.52
0.86562	34.52
0.88228	34.52
0.89895	34.53
0.91562	34.52
0.93228	34.52
0.94895	34.52
0.96562	34.52
0.98228	34.52
0.99895	34.52
1.01562	34.52
1.03228	34.52
1.04895	34.51
1.06562	34.52
1.08228	34.53
1.09895	34.52
1.11562	34.51
1.13228	34.51
1.14895	34.52
1.16562	34.52
1.18228	34.52
1.19895	34.52
1.21562	34.52
1.23228	34.53
1.24895	34.52
1.26562	34.51
1.28228	34.52
1.29895	34.52
1.31562	34.52
1.33228	34.52
1.34895	34.52
1.36562	34.52
1.38228	34.51
1.39895	34.51
1.41562	34.52
1.43228	34.52
1.44895	34.52
1.46562	34.51
1.48228	34.52
1.49895	34.52
1.51562	34.52
1.53228	34.51
1.54895	34.52
1.56562	34.52
1.58228	34.52
1.59895	34.52
1.61562	34.52
1.63228	34.52
1.64895	34.52
1.66562	34.51
1.68228	34.52
1.69895	34.52
1.71562	34.52
1.73228	34.52
1.74895	34.52
1.76562	34.52
1.78228	34.52
1.79895	34.52
1.81562	34.52
1.83228	34.53
1.84895	34.52
1.86562	34.52
1.88228	34.52
1.89895	34.52
1.91562	34.52
1.93228	34.52
1.94895	34.52
1.96562	34.52
1.98228	34.52
1.99895	34.52
2.01562	34.52
2.03228	34.52
2.04895	34.52
2.06562	34.51
2.08228	34.51
2.09895	34.52
2.11562	34.52
2.13228	34.52
2.14895	34.52
2.16562	34.52
2.18228	34.52
2.19895	34.52
2.21562	34.52
2.23228	34.52
2.24895	34.52
2.26562	34.52
2.28228	34.51
2.29895	34.52
2.31562	34.52
2.33228	34.52
2.34895	34.52
2.36562	34.52
2.38228	34.52
2.39895	34.53
2.41562	34.51
2.43228	34.52
2.44895	34.52
2.46562	34.51
2.48228	34.51
2.49895	34.52
2.51562	34.52
2.53228	34.52
2.54895	34.51
2.56562	34.52
2.58228	34.52
2.59895	34.52
2.61562	34.52
2.63228	34.52
2.64895	34.52
2.66562	34.52
2.68228	34.52
2.69895	34.52
2.71562	34.52
2.73228	34.52
2.74895	34.52
2.76562	34.52
2.78228	34.52
2.79895	34.52
2.81562	34.52
2.83228	34.51
2.84895	34.52
2.86562	34.52
2.88228	34.52
2.89895	34.52
2.91562	34.52
2.93228	34.52
2.94895	34.52
2.96562	34.51
2.98228	34.51
2.99895	34.52
3.01562	34.52
3.03228	34.52
3.04895	34.52
3.06562	34.52
3.08228	34.52
3.09895	34.52
3.11562	34.52
3.13228	34.52
3.14895	34.52
3.16562	34.52
3.18228	34.51
3.19895	34.52
3.21562	34.52
3.23228	34.52
3.24895	34.53
3.26562	34.53
3.28228	34.53
3.29895	34.52
3.31562	34.52
3.33228	34.52
3.34895	34.52
3.36562	34.52
3.38228	34.52
3.39895	34.52
3.41562	34.52
3.43228	34.52
3.44895	34.51
3.46562	34.52
3.48228	34.51
3.49895	34.53
3.51562	34.52
3.53228	34.52
3.54895	34.51
3.56562	34.52
3.58228	34.52
3.59895	34.52
3.61562	34.52
3.63228	34.52
3.64895	34.52
3.66562	34.52
3.68228	34.51
3.69895	34.52
3.71562	34.52
3.73228	34.52
3.74895	34.51
3.76562	34.52
3.78228	34.52
3.79895	34.52
3.81562	34.52
3.83228	34.52
3.84895	34.52
3.86562	34.52
3.88228	34.52
3.89895	34.52
3.91562	34.52
3.93228	34.52
3.94895	34.52
3.96562	34.52
3.98228	34.52
3.99895	34.52

[Status Trace (Column Flow)]
Interval(msec)	1000
# of Points	240
Start Time(min)	0.016
End Time(min)	3.999
Intensity Units	
Intensity Multiplier	1
R.Time (min)	Intensity
0.01562	5.41
0.03228	5.26
0.04895	5.53
0.06562	5.73
0.08228	5.58
0.09895	5.51
0.11562	5.51
0.13228	5.52
0.14895	5.52
0.16562	5.52
0.18228	5.52
0.19895	5.52
0.21562	5.52
0.23228	5.52
0.24895	5.52
0.26562	5.52
0.28228	5.52
0.29895	5.52
0.31562	5.52
0.33228	5.52
0.34895	5.51
0.36562	5.51
0.38228	5.51
0.39895	5.51
0.41562	5.51
0.43228	5.52
0.44895	5.52
0.46562	5.52
0.48228	5.52
0.49895	5.52
0.51562	5.52
0.53228	5.52
0.54895	5.52
0.56562	5.52
0.58228	5.52
0.59895	5.52
0.61562	5.52
0.63228	5.52
0.64895	5.52
0.66562	5.52
0.68228	5.52
0.69895	5.52
0.71562	5.52
0.73228	5.52
0.74895	5.52
0.76562	5.51
0.78228	5.51
0.79895	5.51
0.81562	5.51
0.83228	5.52
0.84895	5.52
0.86562	5.52
0.88228	5.52
0.89895	5.52
0.91562	5.52
0.93228	5.52
0.94895	5.52
0.96562	5.52
0.98228	5.51
0.99895	5.52
1.01562	5.52
1.03228	5.52
1.04895	5.52
1.06562	5.52
1.08228	5.52
1.09895	5.52
1.11562	5.52
1.13228	5.52
1.14895	5.52
1.16562	5.52
1.18228	5.52
1.19895	5.51
1.21562	5.52
1.23228	5.52
1.24895	5.52
1.26562	5.52
1.28228	5.52
1.29895	5.52
1.31562	5.52
1.33228	5.52
1.34895	5.52
1.36562	5.52
1.38228	5.52
1.39895	5.52
1.41562	5.52
1.43228	5.52
1.44895	5.51
1.46562	5.52
1.48228	5.51
1.49895	5.51
1.51562	5.51
1.53228	5.52
1.54895	5.52
1.56562	5.52
1.58228	5.52
1.59895	5.52
1.61562	5.51
1.63228	5.51
1.64895	5.50
1.66562	5.49
1.68228	5.48
1.69895	5.47
1.71562	5.46
1.73228	5.45
1.74895	5.44
1.76562	5.43
1.78228	5.42
1.79895	5.41
1.81562	5.40
1.83228	5.39
1.84895	5.38
1.86562	5.37
1.88228	5.36
1.89895	5.35
1.91562	5.34
1.93228	5.33
1.94895	5.32
1.96562	5.31
1.98228	5.30
1.99895	5.29
2.01562	5.28
2.03228	5.27
2.04895	5.26
2.06562	5.25
2.08228	5.24
2.09895	5.23
2.11562	5.22
2.13228	5.21
2.14895	5.20
2.16562	5.20
2.18228	5.18
2.19895	5.18
2.21562	5.17
2.23228	5.16
2.24895	5.15
2.26562	5.14
2.28228	5.13
2.29895	5.12
2.31562	5.11
2.33228	5.10
2.34895	5.09
2.36562	5.09
2.38228	5.08
2.39895	5.08
2.41562	5.08
2.43228	5.08
2.44895	5.08
2.46562	5.08
2.48228	5.08
2.49895	5.08
2.51562	5.08
2.53228	5.08
2.54895	5.08
2.56562	5.08
2.58228	5.08
2.59895	5.08
2.61562	5.08
2.63228	5.08
2.64895	5.08
2.66562	5.08
2.68228	5.08
2.69895	5.08
2.71562	5.08
2.73228	5.08
2.74895	5.08
2.76562	5.08
2.78228	5.08
2.79895	5.08
2.81562	5.08
2.83228	5.08
2.84895	5.08
2.86562	5.08
2.88228	5.07
2.89895	5.07
2.91562	5.07
2.93228	5.07
2.94895	5.07
2.96562	5.07
2.98228	5.07
2.99895	5.07
3.01562	5.07
3.03228	5.07
3.04895	5.07
3.06562	5.07
3.08228	5.07
3.09895	5.07
3.11562	5.07
3.13228	5.07
3.14895	5.07
3.16562	5.07
3.18228	5.07
3.19895	5.07
3.21562	5.07
3.23228	5.07
3.24895	5.07
3.26562	5.07
3.28228	5.07
3.29895	5.07
3.31562	5.07
3.33228	5.07
3.34895	5.07
3.36562	5.07
3.38228	5.07
3.39895	5.07
3.41562	5.07
3.43228	5.07
3.44895	5.07
3.46562	5.07
3.48228	5.07
3.49895	5.07
3.51562	5.07
3.53228	5.07
3.54895	5.07
3.56562	5.07
3.58228	5.07
3.59895	5.07
3.61562	5.07
3.63228	5.07
3.64895	5.07
3.66562	5.07
3.68228	5.07
3.69895	5.07
3.71562	5.07
3.73228	5.07
3.74895	5.07
3.76562	5.07
3.78228	5.07
3.79895	5.07
3.81562	5.07
3.83228	5.07
3.84895	5.07
3.86562	5.07
3.88228	5.07
3.89895	5.07
3.91562	5.07
3.93228	5.07
3.94895	5.07
3.96562	5.07
3.98228	5.07
3.99895	5.07

[Status Trace (Linear Velocity)]
Interval(msec)	1000
# of Points	240
Start Time(min)	0.016
End Time(min)	3.999
Intensity Units	
Intensity Multiplier	1
R.Time (min)	Intensity
0.01562	38.42
0.03228	37.54
0.04895	39.12
0.06562	40.24
0.08228	39.38
0.09895	38.99
0.11562	39.01
0.13228	39.02
0.14895	39.02
0.16562	39.02
0.18228	39.02
0.19895	39.02
0.21562	39.02
0.23228	39.02
0.24895	39.02
0.26562	39.02
0.28228	39.01
0.29895	39.01
0.31562	39.01
0.33228	39.02
0.34895	39.01
0.36562	39.01
0.38228	39.01
0.39895	39.01
0.41562	39.01
0.43228	39.01
0.44895	39.01
0.46562	39.01
0.48228	39.02
0.49895	39.02
0.51562	39.02
0.53228	39.02
0.54895	39.02
0.56562	39.02
0.58228	39.02
0.59895	39.02
0.61562	39.02
0.63228	39.02
0.64895	39.01
0.66562	39.02
0.68228	39.02
0.69895	39.02
0.71562	39.02
0.73228	39.01
0.74895	39.01
0.76562	39.01
0.78228	39.01
0.79895	39.01
0.81562	39.01
0.83228	39.01
0.84895	39.02
0.86562	39.02
0.88228	39.02
0.89895	39.02
0.91562	39.01
0.93228	39.01
0.94895	39.01
0.96562	39.01
0.98228	39.01
0.99895	39.01
1.01562	39.01
1.03228	39.02
1.04895	39.02
1.06562	39.02
1.08228	39.02
1.09895	39.02
1.11562	39.02
1.13228	39.02
1.14895	39.02
1.16562	39.02
1.18228	39.01
1.19895	39.01
1.21562	39.01
1.23228	39.01
1.24895	39.02
1.26562	39.02
1.28228	39.01
1.29895	39.01
1.31562	39.01
1.33228	39.01
1.34895	39.02
1.36562	39.02
1.38228	39.02
1.39895	39.02
1.41562	39.02
1.43228	39.01
1.44895	39.01
1.46562	39.01
1.48228	39.01
1.49895	39.01
1.51562	39.01
1.53228	39.01
1.54895	39.01
1.56562	39.01
1.58228	39.02
1.59895	39.01
1.61562	39.01
1.63228	39.00
1.64895	38.98
1.66562	38.95
1.68228	38.91
1.69895	38.87
1.71562	38.84
1.73228	38.81
1.74895	38.78
1.76562	38.75
1.78228	38.71
1.79895	38.68
1.81562	38.65
1.83228	38.62
1.84895	38.59
1.86562	38.56
1.88228	38.53
1.89895	38.50
1.91562	38.47
1.93228	38.43
1.94895	38.40
1.96562	38.38
1.98228	38.34
1.99895	38.31
2.01562	38.29
2.03228	38.25
2.04895	38.22
2.06562	38.20
2.08228	38.16
2.09895	38.13
2.11562	38.11
2.13228	38.08
2.14895	38.05
2.16562	38.02
2.18228	37.99
2.19895	37.96
2.21562	37.93
2.23228	37.90
2.24895	37.87
2.26562	37.84
2.28228	37.81
2.29895	37.78
2.31562	37.75
2.33228	37.72
2.34895	37.69
2.36562	37.67
2.38228	37.65
2.39895	37.65
2.41562	37.66
2.43228	37.66
2.44895	37.65
2.46562	37.65
2.48228	37.65
2.49895	37.65
2.51562	37.65
2.53228	37.65
2.54895	37.65
2.56562	37.65
2.58228	37.65
2.59895	37.65
2.61562	37.65
2.63228	37.65
2.64895	37.65
2.66562	37.65
2.68228	37.65
2.69895	37.64
2.71562	37.64
2.73228	37.64
2.74895	37.64
2.76562	37.64
2.78228	37.64
2.79895	37.64
2.81562	37.64
2.83228	37.64
2.84895	37.64
2.86562	37.64
2.88228	37.64
2.89895	37.64
2.91562	37.64
2.93228	37.64
2.94895	37.63
2.96562	37.63
2.98228	37.63
2.99895	37.63
3.01562	37.63
3.03228	37.63
3.04895	37.63
3.06562	37.63
3.08228	37.63
3.09895	37.63
3.11562	37.63
3.13228	37.63
3.14895	37.63
3.16562	37.63
3.18228	37.63
3.19895	37.62
3.21562	37.62
3.23228	37.62
3.24895	37.62
3.26562	37.62
3.28228	37.62
3.29895	37.62
3.31562	37.62
3.33228	37.62
3.34895	37.62
3.36562	37.62
3.38228	37.63
3.39895	37.63
3.41562	37.63
3.43228	37.63
3.44895	37.63
3.46562	37.63
3.48228	37.63
3.49895	37.63
3.51562	37.63
3.53228	37.63
3.54895	37.63
3.56562	37.63
3.58228	37.63
3.59895	37.63
3.61562	37.63
3.63228	37.63
3.64895	37.63
3.66562	37.63
3.68228	37.63
3.69895	37.63
3.71562	37.63
3.73228	37.63
3.74895	37.63
3.76562	37.63
3.78228	37.63
3.79895	37.63
3.81562	37.63
3.83228	37.63
3.84895	37.63
3.86562	37.63
3.88228	37.62
3.89895	37.62
3.91562	37.62
3.93228	37.62
3.94895	37.62
3.96562	37.62
3.98228	37.62
3.99895	37.62

