[Header]
Application Name	LabSolutions
Version	5.110
Data File Name	C:\Users\User\Desktop\GC Analyses\Jack\Nachusa Grasslands Sampling\T2 Timepoint July 12th\T2_07122022_045.gcd
Output Date	3/14/2023
Output Time	3:42:32 PM

[File Information]
Type	Data File
Generated	3/10/2023 5:23:49 PM
Generated by	System Administrator
Modified	3/10/2023 5:30:41 PM
Modified by	System Administrator

[Sample Information]
Operator Name	System Administrator
Acquired	3/10/2023 5:26:40 PM
Sample Type	0:Unknown
Level	0
Sample Name	045
Sample ID	045
ISTD Amount1	1
ISTD Amount2	1
ISTD Amount3	1
ISTD Amount4	1
ISTD Amount5	1
ISTD Amount6	1
ISTD Amount7	1
ISTD Amount8	1
ISTD Amount9	1
ISTD Amount10	1
ISTD Amount11	1
ISTD Amount12	1
ISTD Amount13	1
ISTD Amount14	1
ISTD Amount15	1
ISTD Amount16	1
ISTD Amount17	1
ISTD Amount18	1
ISTD Amount19	1
ISTD Amount20	1
ISTD Amount21	1
ISTD Amount22	1
ISTD Amount23	1
ISTD Amount24	1
ISTD Amount25	1
ISTD Amount26	1
ISTD Amount27	1
ISTD Amount28	1
ISTD Amount29	1
ISTD Amount30	1
ISTD Amount31	1
ISTD Amount32	1
Sample Amount	1
Dilution Factor	1
Vial#	44
Injection Volume	1
Injection Count	1
Bar Code	

[Original Files]
Data File	C:\Users\User\Desktop\GC Analyses\Jack\Nachusa Grasslands Sampling\T1 Timepoint July 12th\T2_07122022_045.gcd
Method File	C:\LabSolutions\Data\GHG_4min_2022\ghg3_togas_w_acet_4 min_new_int.gcm
Batch File	C:\LabSolutions\Data\AutoSamplerTesting\T2_07122022.gcb
Report Format File	c:\LabSolutions\System\DEFAULT.lsr

[File Description]


[Configuration]
Instrument Name	C0B7VH3-Instrument1
Instrument #	1
Line #	1
# of Detectors	3
Detector ID	DET#1	DET#2	DET#3
Detector Name	FID	PTCD	ECD
# of Channels	1	1	1

[Peak Table(Ch1)]
# of Peaks	3
Peak#	R.Time	I.Time	F.Time	Area	Height	A/H	Conc.	Mark	ID#	Name	k'	Plate #	Plate Ht.	Tailing	Resolution	Sep.Factor	Area Ratio	Height Ratio	Conc. %	Norm Conc.
1	1.476	1.439	1.538	25954	12429	2.088	183.234	   	1	CO	0.000	9369	16.011	1.273	0.000	0.000	0	0	27.716	27.716
2	1.567	1.538	1.626	4262	2104	2.026	82.406	 V 	2	CH4	0.062	10375	14.458	0.000	1.496	0.000	0	0	12.465	12.465
3	1.996	1.949	2.451	1575796	755046	2.087	395.482	   	3	CO2	0.353	17498	8.572	1.247	7.038	5.680	0	0	59.820	59.820

[Peak Table(Ch2)]
# of Peaks	0

[Peak Table(Ch3)]
# of Peaks	5
Peak#	R.Time	I.Time	F.Time	Area	Height	A/H	Conc.	Mark	ID#	Name	k'	Plate #	Plate Ht.	Tailing	Resolution	Sep.Factor	Area Ratio	Height Ratio	Conc. %	Norm Conc.
1	2.462	2.323	2.513	2085	647	3.225	0.000	   			0.000	9523	15.751	0.000	0.000	0.000	0	0	0.000	0.000
2	2.535	2.513	2.634	1413	350	4.034	0.000	 V 			0.030	4910	30.552	0.000	0.597	0.000	0	0	0.000	0.000
3	2.660	2.634	2.711	266	93	2.858	0.000	 V 			0.080	7194	20.852	0.000	0.923	2.700	0	0	0.000	0.000
4	2.876	2.777	3.012	19430	5101	3.809	0.496	   	1	N2O	0.168	13224	11.343	1.653	1.919	2.093	0	0	100.000	100.000
5	3.104	3.016	3.613	8956	373	24.029	0.000	   	2	SF6	0.261	421	356.349	3.398	0.645	1.549	0	0	0.000	0.000

[Compound Results(Ch1)]
# of IDs	6
ID#	Name	R.Time	Area	Height	Conc.	Curve	3rd	2nd	1st	Constant	Area Ratio	Height Ratio	Conc. %	Norm Conc.
1	CO	1.476	25954	12429	183.234	Linear	0.000000e+00	0.000000e+00	1.416423e+002	0.000000e+00	0	0	27.716	27.716
2	CH4	1.567	4262	2104	82.406	Linear	0.000000e+00	0.000000e+00	5.171738e+001	0.000000e+00	0	0	12.465	12.465
3	CO2	1.996	1575796	755046	395.482	Linear	0.000000e+00	0.000000e+00	3.984494e+003	0.000000e+00	0	0	59.820	59.820
4	Ethylene	0.000	0	0	0.000	Linear	0.000000e+00	0.000000e+00	0.000000e+00	0.000000e+00	0	0	0.000	0.000
5	Acetylene	0.000	0	0	0.000	Linear	0.000000e+00	0.000000e+00	0.000000e+00	0.000000e+00	0	0	0.000	0.000
6	Ethane	0.000	0	0	0.000	Linear	0.000000e+00	0.000000e+00	0.000000e+00	0.000000e+00	0	0	0.000	0.000

[Compound Results(Ch2)]
# of IDs	5
ID#	Name	R.Time	Area	Height	Conc.	Curve	3rd	2nd	1st	Constant	Area Ratio	Height Ratio	Conc. %	Norm Conc.
1	Hydrogen	0.000	0	0	0.000	Linear	0.000000e+00	0.000000e+00	0.000000e+00	0.000000e+00	0	0	0.000	0.000
2	Oxygen	0.000	0	0	0.000	Linear	0.000000e+00	0.000000e+00	0.000000e+00	0.000000e+00	0	0	0.000	0.000
3	Nitrogen	0.000	0	0	0.000	Linear	0.000000e+00	0.000000e+00	0.000000e+00	0.000000e+00	0	0	0.000	0.000
4	Methane	0.000	0	0	0.000	Linear	0.000000e+00	0.000000e+00	0.000000e+00	0.000000e+00	0	0	0.000	0.000
5	Carbon Monoxide	0.000	0	0	0.000	Linear	0.000000e+00	0.000000e+00	0.000000e+00	0.000000e+00	0	0	0.000	0.000

[Compound Results(Ch3)]
# of IDs	2
ID#	Name	R.Time	Area	Height	Conc.	Curve	3rd	2nd	1st	Constant	Area Ratio	Height Ratio	Conc. %	Norm Conc.
1	N2O	2.876	19430	5101	0.496	Linear	0.000000e+00	0.000000e+00	3.915173e+004	0.000000e+00	0	0	100.000	100.000
2	SF6	3.104	8956	373	0.000	Linear	0.000000e+00	0.000000e+00	0.000000e+00	0.000000e+00	0	0	0.000	0.000

[Group Results(Ch1)]
# of Groups	0

[Group Results(Ch2)]
# of Groups	0

[Group Results(Ch3)]
# of Groups	0

[Chromatogram (Ch1)]
Interval(msec)	220
# of Points	1091
Start Time(min)	0.002
End Time(min)	3.998
R.Time (min)	Intensity
0.00167	21
0.00533	25
0.00900	25
0.01267	22
0.01633	23
0.02000	25
0.02367	24
0.02733	23
0.03100	21
0.03467	19
0.03833	16
0.04200	13
0.04567	15
0.04933	22
0.05300	32
0.05667	40
0.06033	52
0.06400	63
0.06767	71
0.07133	75
0.07500	79
0.07867	87
0.08233	93
0.08600	90
0.08967	90
0.09333	90
0.09700	90
0.10067	91
0.10433	90
0.10800	84
0.11167	76
0.11533	70
0.11900	71
0.12267	71
0.12633	69
0.13000	64
0.13367	58
0.13733	55
0.14100	58
0.14467	62
0.14833	64
0.15200	63
0.15567	60
0.15933	59
0.16300	56
0.16667	50
0.17033	36
0.17400	20
0.17767	12
0.18133	8
0.18500	1
0.18867	0
0.19233	4
0.19600	10
0.19967	16
0.20333	23
0.20700	29
0.21067	26
0.21433	15
0.21800	2
0.22167	-6
0.22533	-8
0.22900	-8
0.23267	-5
0.23633	-5
0.24000	-1
0.24367	7
0.24733	11
0.25100	9
0.25467	3
0.25833	-2
0.26200	-8
0.26567	-12
0.26933	-12
0.27300	-9
0.27667	-7
0.28033	-5
0.28400	-5
0.28767	-1
0.29133	5
0.29500	8
0.29867	10
0.30233	10
0.30600	8
0.30967	5
0.31333	5
0.31700	6
0.32067	8
0.32433	9
0.32800	14
0.33167	19
0.33533	16
0.33900	9
0.34267	-0
0.34633	-8
0.35000	-12
0.35367	-12
0.35733	-11
0.36100	-8
0.36467	-5
0.36833	-2
0.37200	-4
0.37567	-3
0.37933	1
0.38300	2
0.38667	5
0.39033	6
0.39400	5
0.39767	5
0.40133	4
0.40500	1
0.40867	-1
0.41233	0
0.41600	-1
0.41967	-5
0.42333	-8
0.42700	-11
0.43067	-17
0.43433	-20
0.43800	-20
0.44167	-19
0.44533	-18
0.44900	-13
0.45267	-9
0.45633	-8
0.46000	-8
0.46367	-9
0.46733	-9
0.47100	-8
0.47467	-5
0.47833	-2
0.48200	-2
0.48567	-4
0.48933	-3
0.49300	-4
0.49667	-11
0.50033	-20
0.50400	-25
0.50767	-26
0.51133	-25
0.51500	-23
0.51867	-20
0.52233	-17
0.52600	-12
0.52967	-7
0.53333	-4
0.53700	-0
0.54067	1
0.54433	1
0.54800	-1
0.55167	-7
0.55533	-10
0.55900	-7
0.56267	-5
0.56633	-8
0.57000	-12
0.57367	-13
0.57733	-11
0.58100	-9
0.58467	-11
0.58833	-16
0.59200	-20
0.59567	-18
0.59933	-10
0.60300	-5
0.60667	-4
0.61033	-5
0.61400	-1
0.61767	4
0.62133	4
0.62500	-3
0.62867	-17
0.63233	-31
0.63600	-37
0.63967	-46
0.64333	-57
0.64700	-65
0.65067	-67
0.65433	-60
0.65800	-48
0.66167	-35
0.66533	-25
0.66900	-18
0.67267	-12
0.67633	-8
0.68000	-6
0.68367	-6
0.68733	-8
0.69100	-13
0.69467	-20
0.69833	-28
0.70200	-35
0.70567	-37
0.70933	-35
0.71300	-30
0.71667	-26
0.72033	-21
0.72400	-16
0.72767	-12
0.73133	-14
0.73500	-22
0.73867	-33
0.74233	-40
0.74600	-39
0.74967	-37
0.75333	-37
0.75700	-37
0.76067	-35
0.76433	-37
0.76800	-37
0.77167	-35
0.77533	-32
0.77900	-28
0.78267	-26
0.78633	-23
0.79000	-23
0.79367	-26
0.79733	-27
0.80100	-26
0.80467	-24
0.80833	-23
0.81200	-18
0.81567	-12
0.81933	-10
0.82300	-10
0.82667	-10
0.83033	-8
0.83400	-4
0.83767	0
0.84133	5
0.84500	7
0.84867	2
0.85233	-4
0.85600	-13
0.85967	-21
0.86333	-22
0.86700	-18
0.87067	-12
0.87433	-5
0.87800	4
0.88167	10
0.88533	9
0.88900	5
0.89267	-1
0.89633	-4
0.90000	-4
0.90367	2
0.90733	5
0.91100	5
0.91467	4
0.91833	8
0.92200	12
0.92567	14
0.92933	13
0.93300	9
0.93667	4
0.94033	-1
0.94400	-5
0.94767	-7
0.95133	-7
0.95500	-7
0.95867	-3
0.96233	-5
0.96600	-14
0.96967	-24
0.97333	-27
0.97700	-22
0.98067	-14
0.98433	-6
0.98800	-1
0.99167	-1
0.99533	-2
0.99900	-1
1.00267	-2
1.00633	-8
1.01000	-13
1.01367	-14
1.01733	-5
1.02100	4
1.02467	4
1.02833	-3
1.03200	-8
1.03567	-8
1.03933	-5
1.04300	-7
1.04667	-17
1.05033	-28
1.05400	-36
1.05767	-41
1.06133	-42
1.06500	-43
1.06867	-39
1.07233	-29
1.07600	-18
1.07967	-10
1.08333	-5
1.08700	-3
1.09067	-2
1.09433	-4
1.09800	-6
1.10167	-12
1.10533	-20
1.10900	-23
1.11267	-20
1.11633	-17
1.12000	-19
1.12367	-20
1.12733	-23
1.13100	-27
1.13467	-37
1.13833	-48
1.14200	-57
1.14567	-64
1.14933	-69
1.15300	-66
1.15667	-58
1.16033	-50
1.16400	-42
1.16767	-37
1.17133	-31
1.17500	-27
1.17867	-23
1.18233	-19
1.18600	-16
1.18967	-19
1.19333	-26
1.19700	-33
1.20067	-38
1.20433	-39
1.20800	-41
1.21167	-43
1.21533	-44
1.21900	-40
1.22267	-30
1.22633	-23
1.23000	-17
1.23367	-14
1.23733	-19
1.24100	-30
1.24467	-39
1.24833	-45
1.25200	-50
1.25567	-49
1.25933	-43
1.26300	-38
1.26667	-36
1.27033	-35
1.27400	-37
1.27767	-39
1.28133	-39
1.28500	-38
1.28867	-39
1.29233	-41
1.29600	-44
1.29967	-44
1.30333	-45
1.30700	-49
1.31067	-51
1.31433	-49
1.31800	-47
1.32167	-45
1.32533	-47
1.32900	-50
1.33267	-52
1.33633	-55
1.34000	-54
1.34367	-49
1.34733	-43
1.35100	-42
1.35467	-40
1.35833	-40
1.36200	-46
1.36567	-50
1.36933	-48
1.37300	-43
1.37667	-40
1.38033	-45
1.38400	-47
1.38767	-44
1.39133	-40
1.39500	-38
1.39867	-38
1.40233	-37
1.40600	-30
1.40967	-22
1.41333	-16
1.41700	-16
1.42067	-21
1.42433	-26
1.42800	-33
1.43167	-42
1.43533	-47
1.43900	-26
1.44267	78
1.44633	331
1.45000	960
1.45367	2345
1.45733	4477
1.46100	6898
1.46467	9128
1.46833	10884
1.47200	12017
1.47567	12407
1.47933	11960
1.48300	10733
1.48667	8990
1.49033	7096
1.49400	5353
1.49767	3913
1.50133	2804
1.50500	1991
1.50867	1416
1.51233	1017
1.51600	741
1.51967	551
1.52333	421
1.52700	330
1.53067	265
1.53433	224
1.53800	218
1.54167	281
1.54533	464
1.54900	776
1.55267	1155
1.55633	1522
1.56000	1821
1.56367	2021
1.56733	2093
1.57100	2013
1.57467	1787
1.57833	1467
1.58200	1126
1.58567	818
1.58933	570
1.59300	388
1.59667	262
1.60033	176
1.60400	120
1.60767	83
1.61133	54
1.61500	33
1.61867	18
1.62233	5
1.62600	-3
1.62967	-5
1.63333	-3
1.63700	-2
1.64067	-8
1.64433	-16
1.64800	-20
1.65167	-22
1.65533	-21
1.65900	-17
1.66267	-10
1.66633	-5
1.67000	-6
1.67367	-12
1.67733	-20
1.68100	-28
1.68467	-31
1.68833	-39
1.69200	-46
1.69567	-49
1.69933	-47
1.70300	-42
1.70667	-34
1.71033	-28
1.71400	-25
1.71767	-28
1.72133	-33
1.72500	-41
1.72867	-49
1.73233	-51
1.73600	-49
1.73967	-51
1.74333	-55
1.74700	-62
1.75067	-67
1.75433	-65
1.75800	-65
1.76167	-69
1.76533	-72
1.76900	-74
1.77267	-73
1.77633	-68
1.78000	-57
1.78367	-50
1.78733	-47
1.79100	-47
1.79467	-47
1.79833	-48
1.80200	-54
1.80567	-57
1.80933	-54
1.81300	-50
1.81667	-51
1.82033	-56
1.82400	-57
1.82767	-55
1.83133	-57
1.83500	-68
1.83867	-80
1.84233	-84
1.84600	-85
1.84967	-82
1.85333	-75
1.85700	-60
1.86067	-49
1.86433	-47
1.86800	-49
1.87167	-50
1.87533	-54
1.87900	-57
1.88267	-53
1.88633	-50
1.89000	-50
1.89367	-50
1.89733	-48
1.90100	-48
1.90467	-46
1.90833	-42
1.91200	-39
1.91567	-38
1.91933	-34
1.92300	-29
1.92667	-29
1.93033	-33
1.93400	-38
1.93767	-45
1.94133	-49
1.94500	-51
1.94867	-45
1.95233	-10
1.95600	197
1.95967	1326
1.96333	6133
1.96700	21653
1.97067	60233
1.97433	134995
1.97800	249158
1.98167	389571
1.98533	531973
1.98900	651646
1.99267	729609
1.99633	755039
2.00000	726188
2.00367	651442
2.00733	547677
2.01100	434597
2.01467	328662
2.01833	239554
2.02200	170250
2.02567	119289
2.02933	83240
2.03300	58372
2.03667	41484
2.04033	30096
2.04400	22412
2.04767	17187
2.05133	13588
2.05500	11067
2.05867	9258
2.06233	7923
2.06600	6914
2.06967	6132
2.07333	5514
2.07700	5013
2.08067	4599
2.08433	4250
2.08800	3953
2.09167	3697
2.09533	3474
2.09900	3271
2.10267	3088
2.10633	2923
2.11000	2773
2.11367	2638
2.11733	2508
2.12100	2387
2.12467	2278
2.12833	2183
2.13200	2096
2.13567	2015
2.13933	1939
2.14300	1870
2.14667	1805
2.15033	1744
2.15400	1684
2.15767	1626
2.16133	1572
2.16500	1518
2.16867	1463
2.17233	1412
2.17600	1367
2.17967	1329
2.18333	1296
2.18700	1263
2.19067	1233
2.19433	1203
2.19800	1172
2.20167	1144
2.20533	1122
2.20900	1102
2.21267	1073
2.21633	1042
2.22000	1010
2.22367	981
2.22733	956
2.23100	932
2.23467	910
2.23833	887
2.24200	863
2.24567	844
2.24933	831
2.25300	821
2.25667	811
2.26033	798
2.26400	781
2.26767	766
2.27133	750
2.27500	731
2.27867	711
2.28233	697
2.28600	689
2.28967	683
2.29333	673
2.29700	657
2.30067	642
2.30433	633
2.30800	623
2.31167	613
2.31533	605
2.31900	594
2.32267	577
2.32633	559
2.33000	545
2.33367	535
2.33733	529
2.34100	527
2.34467	525
2.34833	522
2.35200	517
2.35567	507
2.35933	499
2.36300	492
2.36667	484
2.37033	479
2.37400	475
2.37767	469
2.38133	465
2.38500	463
2.38867	461
2.39233	461
2.39600	456
2.39967	446
2.40333	436
2.40700	429
2.41067	426
2.41433	427
2.41800	429
2.42167	431
2.42533	432
2.42900	430
2.43267	419
2.43633	399
2.44000	380
2.44367	368
2.44733	365
2.45100	363
2.45467	362
2.45833	361
2.46200	363
2.46567	367
2.46933	374
2.47300	381
2.47667	387
2.48033	393
2.48400	390
2.48767	381
2.49133	369
2.49500	357
2.49867	349
2.50233	345
2.50600	340
2.50967	337
2.51333	337
2.51700	337
2.52067	340
2.52433	345
2.52800	343
2.53167	338
2.53533	334
2.53900	327
2.54267	320
2.54633	313
2.55000	310
2.55367	310
2.55733	314
2.56100	319
2.56467	325
2.56833	331
2.57200	335
2.57567	332
2.57933	327
2.58300	326
2.58667	321
2.59033	314
2.59400	309
2.59767	308
2.60133	307
2.60500	307
2.60867	306
2.61233	304
2.61600	306
2.61967	309
2.62333	316
2.62700	317
2.63067	315
2.63433	311
2.63800	305
2.64167	301
2.64533	297
2.64900	291
2.65267	285
2.65633	285
2.66000	287
2.66367	290
2.66733	291
2.67100	286
2.67467	279
2.67833	276
2.68200	276
2.68567	277
2.68933	281
2.69300	284
2.69667	287
2.70033	289
2.70400	294
2.70767	303
2.71133	304
2.71500	307
2.71867	306
2.72233	299
2.72600	292
2.72967	287
2.73333	286
2.73700	290
2.74067	298
2.74433	306
2.74800	316
2.75167	321
2.75533	323
2.75900	320
2.76267	314
2.76633	305
2.77000	292
2.77367	279
2.77733	265
2.78100	257
2.78467	254
2.78833	252
2.79200	254
2.79567	262
2.79933	275
2.80300	285
2.80667	287
2.81033	284
2.81400	283
2.81767	280
2.82133	274
2.82500	267
2.82867	263
2.83233	263
2.83600	266
2.83967	272
2.84333	280
2.84700	285
2.85067	286
2.85433	284
2.85800	281
2.86167	278
2.86533	276
2.86900	275
2.87267	280
2.87633	290
2.88000	299
2.88367	303
2.88733	303
2.89100	304
2.89467	301
2.89833	292
2.90200	283
2.90567	275
2.90933	267
2.91300	265
2.91667	270
2.92033	274
2.92400	272
2.92767	268
2.93133	266
2.93500	264
2.93867	262
2.94233	260
2.94600	260
2.94967	258
2.95333	254
2.95700	255
2.96067	263
2.96433	275
2.96800	289
2.97167	302
2.97533	308
2.97900	306
2.98267	301
2.98633	293
2.99000	282
2.99367	272
2.99733	268
3.00100	270
3.00467	276
3.00833	280
3.01200	280
3.01567	280
3.01933	278
3.02300	273
3.02667	274
3.03033	275
3.03400	270
3.03767	262
3.04133	255
3.04500	252
3.04867	252
3.05233	252
3.05600	250
3.05967	248
3.06333	249
3.06700	253
3.07067	258
3.07433	260
3.07800	262
3.08167	266
3.08533	272
3.08900	277
3.09267	277
3.09633	278
3.10000	278
3.10367	275
3.10733	275
3.11100	276
3.11467	278
3.11833	279
3.12200	278
3.12567	274
3.12933	271
3.13300	271
3.13667	272
3.14033	267
3.14400	260
3.14767	257
3.15133	257
3.15500	261
3.15867	267
3.16233	272
3.16600	274
3.16967	273
3.17333	268
3.17700	261
3.18067	260
3.18433	264
3.18800	270
3.19167	274
3.19533	277
3.19900	273
3.20267	264
3.20633	256
3.21000	250
3.21367	248
3.21733	254
3.22100	266
3.22467	271
3.22833	268
3.23200	263
3.23567	259
3.23933	255
3.24300	248
3.24667	244
3.25033	242
3.25400	243
3.25767	240
3.26133	235
3.26500	233
3.26867	237
3.27233	245
3.27600	253
3.27967	256
3.28333	253
3.28700	248
3.29067	242
3.29433	239
3.29800	238
3.30167	237
3.30533	238
3.30900	239
3.31267	241
3.31633	244
3.32000	244
3.32367	241
3.32733	234
3.33100	227
3.33467	225
3.33833	228
3.34200	227
3.34567	226
3.34933	228
3.35300	230
3.35667	229
3.36033	228
3.36400	228
3.36767	227
3.37133	227
3.37500	228
3.37867	230
3.38233	230
3.38600	233
3.38967	237
3.39333	238
3.39700	236
3.40067	234
3.40433	234
3.40800	235
3.41167	237
3.41533	241
3.41900	238
3.42267	228
3.42633	218
3.43000	210
3.43367	208
3.43733	210
3.44100	211
3.44467	214
3.44833	220
3.45200	230
3.45567	236
3.45933	233
3.46300	223
3.46667	213
3.47033	204
3.47400	197
3.47767	196
3.48133	196
3.48500	198
3.48867	197
3.49233	197
3.49600	199
3.49967	203
3.50333	202
3.50700	200
3.51067	199
3.51433	202
3.51800	205
3.52167	205
3.52533	205
3.52900	205
3.53267	200
3.53633	195
3.54000	192
3.54367	186
3.54733	184
3.55100	185
3.55467	191
3.55833	200
3.56200	206
3.56567	202
3.56933	191
3.57300	183
3.57667	177
3.58033	174
3.58400	173
3.58767	170
3.59133	169
3.59500	175
3.59867	185
3.60233	193
3.60600	193
3.60967	192
3.61333	193
3.61700	196
3.62067	198
3.62433	196
3.62800	192
3.63167	192
3.63533	195
3.63900	195
3.64267	191
3.64633	186
3.65000	181
3.65367	177
3.65733	173
3.66100	168
3.66467	165
3.66833	166
3.67200	170
3.67567	177
3.67933	178
3.68300	176
3.68667	174
3.69033	173
3.69400	173
3.69767	171
3.70133	167
3.70500	165
3.70867	164
3.71233	163
3.71600	160
3.71967	159
3.72333	160
3.72700	161
3.73067	159
3.73433	156
3.73800	154
3.74167	157
3.74533	162
3.74900	166
3.75267	170
3.75633	179
3.76000	182
3.76367	180
3.76733	173
3.77100	162
3.77467	151
3.77833	144
3.78200	139
3.78567	139
3.78933	145
3.79300	150
3.79667	147
3.80033	144
3.80400	145
3.80767	149
3.81133	153
3.81500	159
3.81867	164
3.82233	165
3.82600	165
3.82967	170
3.83333	175
3.83700	170
3.84067	155
3.84433	138
3.84800	125
3.85167	120
3.85533	119
3.85900	123
3.86267	129
3.86633	137
3.87000	145
3.87367	150
3.87733	151
3.88100	145
3.88467	138
3.88833	133
3.89200	129
3.89567	123
3.89933	119
3.90300	119
3.90667	123
3.91033	130
3.91400	136
3.91767	139
3.92133	142
3.92500	145
3.92867	144
3.93233	140
3.93600	136
3.93967	135
3.94333	135
3.94700	139
3.95067	148
3.95433	155
3.95800	154
3.96167	148
3.96533	141
3.96900	135
3.97267	128
3.97633	116
3.98000	102
3.98367	91
3.98733	87
3.99100	87
3.99467	94
3.99833	105

[Chromatogram (Ch2)]
Interval(msec)	220
# of Points	1091
Start Time(min)	0.002
End Time(min)	3.998
R.Time (min)	Intensity
0.00167	1
0.00533	1
0.00900	1
0.01267	1
0.01633	1
0.02000	1
0.02367	2
0.02733	2
0.03100	2
0.03467	2
0.03833	2
0.04200	2
0.04567	2
0.04933	2
0.05300	2
0.05667	2
0.06033	2
0.06400	2
0.06767	1
0.07133	1
0.07500	1
0.07867	1
0.08233	1
0.08600	0
0.08967	0
0.09333	0
0.09700	-0
0.10067	-0
0.10433	-1
0.10800	-1
0.11167	-1
0.11533	-2
0.11900	-2
0.12267	-3
0.12633	-3
0.13000	-3
0.13367	-4
0.13733	-4
0.14100	-4
0.14467	-4
0.14833	-4
0.15200	-4
0.15567	-3
0.15933	-3
0.16300	-3
0.16667	-3
0.17033	-3
0.17400	-3
0.17767	-3
0.18133	-3
0.18500	-3
0.18867	-3
0.19233	-3
0.19600	-3
0.19967	-3
0.20333	-3
0.20700	-3
0.21067	-3
0.21433	-2
0.21800	-2
0.22167	-2
0.22533	-2
0.22900	-2
0.23267	-2
0.23633	-2
0.24000	-2
0.24367	-2
0.24733	-2
0.25100	-2
0.25467	-2
0.25833	-1
0.26200	-1
0.26567	-1
0.26933	-1
0.27300	-1
0.27667	-1
0.28033	-1
0.28400	-1
0.28767	-1
0.29133	-1
0.29500	-1
0.29867	-0
0.30233	-0
0.30600	-0
0.30967	-0
0.31333	-0
0.31700	0
0.32067	1
0.32433	1
0.32800	2
0.33167	2
0.33533	2
0.33900	2
0.34267	2
0.34633	2
0.35000	1
0.35367	1
0.35733	1
0.36100	0
0.36467	-0
0.36833	-1
0.37200	-1
0.37567	-1
0.37933	-1
0.38300	-1
0.38667	-1
0.39033	-1
0.39400	-1
0.39767	-1
0.40133	-1
0.40500	-1
0.40867	-1
0.41233	-1
0.41600	-1
0.41967	-0
0.42333	-0
0.42700	0
0.43067	0
0.43433	0
0.43800	0
0.44167	0
0.44533	1
0.44900	1
0.45267	1
0.45633	1
0.46000	1
0.46367	0
0.46733	0
0.47100	-0
0.47467	-1
0.47833	-1
0.48200	-2
0.48567	-2
0.48933	-2
0.49300	-2
0.49667	-2
0.50033	-2
0.50400	-2
0.50767	-3
0.51133	-2
0.51500	-2
0.51867	-2
0.52233	-2
0.52600	-2
0.52967	-1
0.53333	-1
0.53700	-1
0.54067	-2
0.54433	-2
0.54800	-2
0.55167	-2
0.55533	-2
0.55900	-2
0.56267	-2
0.56633	-1
0.57000	-1
0.57367	-1
0.57733	-1
0.58100	-1
0.58467	-1
0.58833	-1
0.59200	-1
0.59567	-1
0.59933	-1
0.60300	-1
0.60667	-2
0.61033	-2
0.61400	-2
0.61767	-2
0.62133	-2
0.62500	-2
0.62867	-1
0.63233	-1
0.63600	-1
0.63967	-1
0.64333	-1
0.64700	-1
0.65067	-2
0.65433	-2
0.65800	-2
0.66167	-3
0.66533	-3
0.66900	-3
0.67267	-4
0.67633	-4
0.68000	-4
0.68367	-4
0.68733	-4
0.69100	-4
0.69467	-4
0.69833	-4
0.70200	-4
0.70567	-5
0.70933	-5
0.71300	-5
0.71667	-5
0.72033	-5
0.72400	-5
0.72767	-5
0.73133	-5
0.73500	-5
0.73867	-5
0.74233	-5
0.74600	-5
0.74967	-5
0.75333	-5
0.75700	-4
0.76067	-4
0.76433	-4
0.76800	-3
0.77167	-3
0.77533	-3
0.77900	-3
0.78267	-3
0.78633	-3
0.79000	-3
0.79367	-3
0.79733	-3
0.80100	-3
0.80467	-3
0.80833	-3
0.81200	-4
0.81567	-4
0.81933	-4
0.82300	-4
0.82667	-4
0.83033	-4
0.83400	-4
0.83767	-4
0.84133	-4
0.84500	-3
0.84867	-3
0.85233	-3
0.85600	-3
0.85967	-2
0.86333	-2
0.86700	-2
0.87067	-2
0.87433	-2
0.87800	-2
0.88167	-2
0.88533	-2
0.88900	-1
0.89267	-1
0.89633	-1
0.90000	-1
0.90367	-1
0.90733	-1
0.91100	-1
0.91467	-1
0.91833	-1
0.92200	-1
0.92567	-1
0.92933	-1
0.93300	-1
0.93667	-1
0.94033	-1
0.94400	-1
0.94767	-1
0.95133	-1
0.95500	-1
0.95867	-1
0.96233	-1
0.96600	-1
0.96967	-1
0.97333	-1
0.97700	-1
0.98067	-1
0.98433	-1
0.98800	-1
0.99167	-1
0.99533	-1
0.99900	-1
1.00267	-1
1.00633	-1
1.01000	-1
1.01367	-1
1.01733	-1
1.02100	-1
1.02467	-1
1.02833	-2
1.03200	-2
1.03567	-2
1.03933	-2
1.04300	-3
1.04667	-3
1.05033	-3
1.05400	-4
1.05767	-4
1.06133	-4
1.06500	-4
1.06867	-5
1.07233	-5
1.07600	-5
1.07967	-6
1.08333	-6
1.08700	-6
1.09067	-6
1.09433	-7
1.09800	-7
1.10167	-7
1.10533	-7
1.10900	-7
1.11267	-7
1.11633	-7
1.12000	-7
1.12367	-7
1.12733	-7
1.13100	-7
1.13467	-7
1.13833	-6
1.14200	-7
1.14567	-7
1.14933	-7
1.15300	-7
1.15667	-7
1.16033	-7
1.16400	-7
1.16767	-6
1.17133	-6
1.17500	-6
1.17867	-6
1.18233	-6
1.18600	-6
1.18967	-6
1.19333	-6
1.19700	-5
1.20067	-5
1.20433	-5
1.20800	-5
1.21167	-5
1.21533	-5
1.21900	-4
1.22267	-4
1.22633	-4
1.23000	-3
1.23367	-3
1.23733	-2
1.24100	-2
1.24467	-1
1.24833	-1
1.25200	-1
1.25567	-1
1.25933	-1
1.26300	-1
1.26667	-1
1.27033	-1
1.27400	-1
1.27767	-1
1.28133	-1
1.28500	-1
1.28867	-2
1.29233	-2
1.29600	-2
1.29967	-3
1.30333	-3
1.30700	-4
1.31067	-4
1.31433	-4
1.31800	-4
1.32167	-4
1.32533	-4
1.32900	-4
1.33267	-4
1.33633	-4
1.34000	-4
1.34367	-4
1.34733	-4
1.35100	-3
1.35467	-3
1.35833	-3
1.36200	-2
1.36567	-2
1.36933	-1
1.37300	-1
1.37667	-1
1.38033	-1
1.38400	-1
1.38767	-1
1.39133	-1
1.39500	-1
1.39867	-1
1.40233	-1
1.40600	-1
1.40967	-1
1.41333	-2
1.41700	-2
1.42067	-3
1.42433	-3
1.42800	-4
1.43167	-4
1.43533	-4
1.43900	-4
1.44267	-4
1.44633	-4
1.45000	-4
1.45367	-4
1.45733	-4
1.46100	-4
1.46467	-4
1.46833	-4
1.47200	-4
1.47567	-3
1.47933	-3
1.48300	-3
1.48667	-4
1.49033	-4
1.49400	-4
1.49767	-4
1.50133	-4
1.50500	-4
1.50867	-4
1.51233	-4
1.51600	-4
1.51967	-4
1.52333	-4
1.52700	-5
1.53067	-5
1.53433	-5
1.53800	-5
1.54167	-5
1.54533	-5
1.54900	-5
1.55267	-5
1.55633	-5
1.56000	-5
1.56367	-4
1.56733	-4
1.57100	-4
1.57467	-4
1.57833	-3
1.58200	-3
1.58567	-3
1.58933	-3
1.59300	-3
1.59667	-4
1.60033	-5
1.60400	-6
1.60767	-7
1.61133	-9
1.61500	-11
1.61867	-13
1.62233	-16
1.62600	-18
1.62967	-21
1.63333	-24
1.63700	-28
1.64067	-31
1.64433	-35
1.64800	-38
1.65167	-42
1.65533	-46
1.65900	-50
1.66267	-55
1.66633	-59
1.67000	-64
1.67367	-69
1.67733	-73
1.68100	-78
1.68467	-82
1.68833	-86
1.69200	-90
1.69567	-93
1.69933	-96
1.70300	-98
1.70667	-100
1.71033	-102
1.71400	-103
1.71767	-105
1.72133	-106
1.72500	-107
1.72867	-107
1.73233	-108
1.73600	-108
1.73967	-109
1.74333	-109
1.74700	-110
1.75067	-111
1.75433	-111
1.75800	-112
1.76167	-112
1.76533	-113
1.76900	-113
1.77267	-114
1.77633	-114
1.78000	-114
1.78367	-114
1.78733	-113
1.79100	-113
1.79467	-113
1.79833	-114
1.80200	-114
1.80567	-114
1.80933	-115
1.81300	-115
1.81667	-116
1.82033	-116
1.82400	-116
1.82767	-116
1.83133	-116
1.83500	-116
1.83867	-117
1.84233	-117
1.84600	-117
1.84967	-116
1.85333	-115
1.85700	-114
1.86067	-114
1.86433	-113
1.86800	-113
1.87167	-113
1.87533	-114
1.87900	-114
1.88267	-115
1.88633	-115
1.89000	-115
1.89367	-114
1.89733	-113
1.90100	-112
1.90467	-112
1.90833	-112
1.91200	-112
1.91567	-112
1.91933	-112
1.92300	-112
1.92667	-112
1.93033	-112
1.93400	-112
1.93767	-113
1.94133	-113
1.94500	-113
1.94867	-113
1.95233	-113
1.95600	-113
1.95967	-113
1.96333	-113
1.96700	-113
1.97067	-113
1.97433	-113
1.97800	-112
1.98167	-112
1.98533	-111
1.98900	-111
1.99267	-111
1.99633	-110
2.00000	-110
2.00367	-109
2.00733	-109
2.01100	-108
2.01467	-108
2.01833	-108
2.02200	-107
2.02567	-107
2.02933	-107
2.03300	-106
2.03667	-106
2.04033	-106
2.04400	-106
2.04767	-105
2.05133	-105
2.05500	-104
2.05867	-103
2.06233	-103
2.06600	-102
2.06967	-102
2.07333	-102
2.07700	-101
2.08067	-101
2.08433	-101
2.08800	-101
2.09167	-100
2.09533	-100
2.09900	-100
2.10267	-100
2.10633	-100
2.11000	-100
2.11367	-100
2.11733	-99
2.12100	-99
2.12467	-98
2.12833	-98
2.13200	-98
2.13567	-98
2.13933	-98
2.14300	-98
2.14667	-98
2.15033	-97
2.15400	-97
2.15767	-97
2.16133	-97
2.16500	-97
2.16867	-96
2.17233	-95
2.17600	-95
2.17967	-94
2.18333	-94
2.18700	-93
2.19067	-93
2.19433	-93
2.19800	-92
2.20167	-92
2.20533	-92
2.20900	-91
2.21267	-91
2.21633	-91
2.22000	-91
2.22367	-90
2.22733	-90
2.23100	-89
2.23467	-89
2.23833	-88
2.24200	-88
2.24567	-87
2.24933	-87
2.25300	-87
2.25667	-87
2.26033	-86
2.26400	-86
2.26767	-85
2.27133	-84
2.27500	-83
2.27867	-83
2.28233	-83
2.28600	-84
2.28967	-84
2.29333	-85
2.29700	-86
2.30067	-85
2.30433	-85
2.30800	-84
2.31167	-84
2.31533	-83
2.31900	-83
2.32267	-82
2.32633	-82
2.33000	-82
2.33367	-82
2.33733	-82
2.34100	-82
2.34467	-82
2.34833	-81
2.35200	-81
2.35567	-80
2.35933	-78
2.36300	-77
2.36667	-75
2.37033	-72
2.37400	-69
2.37767	-65
2.38133	-61
2.38500	-57
2.38867	-52
2.39233	-47
2.39600	-42
2.39967	-38
2.40333	-33
2.40700	-29
2.41067	-25
2.41433	-23
2.41800	-20
2.42167	-18
2.42533	-17
2.42900	-16
2.43267	-15
2.43633	-14
2.44000	-14
2.44367	-13
2.44733	-12
2.45100	-11
2.45467	-10
2.45833	-8
2.46200	-7
2.46567	-6
2.46933	-5
2.47300	-4
2.47667	-3
2.48033	-2
2.48400	-0
2.48767	1
2.49133	2
2.49500	3
2.49867	4
2.50233	5
2.50600	5
2.50967	6
2.51333	6
2.51700	6
2.52067	7
2.52433	7
2.52800	8
2.53167	9
2.53533	9
2.53900	10
2.54267	11
2.54633	11
2.55000	12
2.55367	13
2.55733	13
2.56100	13
2.56467	13
2.56833	13
2.57200	12
2.57567	12
2.57933	11
2.58300	11
2.58667	11
2.59033	11
2.59400	12
2.59767	12
2.60133	12
2.60500	12
2.60867	13
2.61233	13
2.61600	13
2.61967	14
2.62333	14
2.62700	15
2.63067	15
2.63433	16
2.63800	16
2.64167	17
2.64533	17
2.64900	18
2.65267	19
2.65633	19
2.66000	20
2.66367	20
2.66733	20
2.67100	20
2.67467	20
2.67833	21
2.68200	21
2.68567	20
2.68933	20
2.69300	20
2.69667	20
2.70033	21
2.70400	21
2.70767	22
2.71133	22
2.71500	23
2.71867	23
2.72233	23
2.72600	23
2.72967	23
2.73333	23
2.73700	23
2.74067	23
2.74433	23
2.74800	24
2.75167	24
2.75533	24
2.75900	25
2.76267	25
2.76633	25
2.77000	25
2.77367	26
2.77733	26
2.78100	26
2.78467	26
2.78833	25
2.79200	25
2.79567	25
2.79933	24
2.80300	24
2.80667	23
2.81033	23
2.81400	23
2.81767	23
2.82133	24
2.82500	24
2.82867	24
2.83233	24
2.83600	23
2.83967	23
2.84333	21
2.84700	18
2.85067	12
2.85433	5
2.85800	-7
2.86167	-22
2.86533	-41
2.86900	-64
2.87267	-92
2.87633	-125
2.88000	-161
2.88367	-202
2.88733	-246
2.89100	-292
2.89467	-342
2.89833	-394
2.90200	-448
2.90567	-502
2.90933	-558
2.91300	-613
2.91667	-669
2.92033	-723
2.92400	-776
2.92767	-828
2.93133	-880
2.93500	-936
2.93867	-995
2.94233	-1050
2.94600	-1090
2.94967	-1107
2.95333	-1098
2.95700	-1064
2.96067	-1009
2.96433	-941
2.96800	-864
2.97167	-783
2.97533	-702
2.97900	-624
2.98267	-549
2.98633	-481
2.99000	-418
2.99367	-362
2.99733	-312
3.00100	-267
3.00467	-229
3.00833	-195
3.01200	-165
3.01567	-140
3.01933	-118
3.02300	-99
3.02667	-82
3.03033	-69
3.03400	-57
3.03767	-46
3.04133	-38
3.04500	-30
3.04867	-24
3.05233	-19
3.05600	-14
3.05967	-10
3.06333	-7
3.06700	-4
3.07067	-2
3.07433	-0
3.07800	2
3.08167	3
3.08533	5
3.08900	6
3.09267	7
3.09633	8
3.10000	9
3.10367	10
3.10733	10
3.11100	11
3.11467	12
3.11833	13
3.12200	13
3.12567	14
3.12933	15
3.13300	15
3.13667	16
3.14033	16
3.14400	17
3.14767	17
3.15133	18
3.15500	18
3.15867	18
3.16233	19
3.16600	19
3.16967	19
3.17333	19
3.17700	20
3.18067	20
3.18433	20
3.18800	20
3.19167	20
3.19533	20
3.19900	19
3.20267	19
3.20633	19
3.21000	19
3.21367	19
3.21733	19
3.22100	19
3.22467	19
3.22833	19
3.23200	19
3.23567	19
3.23933	19
3.24300	20
3.24667	20
3.25033	20
3.25400	21
3.25767	21
3.26133	21
3.26500	21
3.26867	21
3.27233	21
3.27600	21
3.27967	21
3.28333	21
3.28700	21
3.29067	21
3.29433	21
3.29800	21
3.30167	21
3.30533	22
3.30900	22
3.31267	22
3.31633	22
3.32000	22
3.32367	22
3.32733	22
3.33100	22
3.33467	22
3.33833	22
3.34200	23
3.34567	23
3.34933	24
3.35300	24
3.35667	25
3.36033	25
3.36400	26
3.36767	26
3.37133	26
3.37500	27
3.37867	27
3.38233	27
3.38600	27
3.38967	27
3.39333	27
3.39700	27
3.40067	27
3.40433	27
3.40800	27
3.41167	27
3.41533	27
3.41900	27
3.42267	27
3.42633	27
3.43000	27
3.43367	27
3.43733	26
3.44100	26
3.44467	26
3.44833	27
3.45200	27
3.45567	27
3.45933	27
3.46300	27
3.46667	27
3.47033	27
3.47400	27
3.47767	27
3.48133	27
3.48500	27
3.48867	27
3.49233	27
3.49600	27
3.49967	27
3.50333	27
3.50700	27
3.51067	27
3.51433	27
3.51800	27
3.52167	26
3.52533	26
3.52900	26
3.53267	26
3.53633	25
3.54000	25
3.54367	24
3.54733	24
3.55100	24
3.55467	24
3.55833	24
3.56200	23
3.56567	23
3.56933	23
3.57300	24
3.57667	24
3.58033	24
3.58400	24
3.58767	24
3.59133	24
3.59500	24
3.59867	24
3.60233	24
3.60600	24
3.60967	24
3.61333	24
3.61700	24
3.62067	25
3.62433	25
3.62800	25
3.63167	25
3.63533	26
3.63900	26
3.64267	26
3.64633	26
3.65000	26
3.65367	26
3.65733	25
3.66100	25
3.66467	25
3.66833	25
3.67200	25
3.67567	25
3.67933	25
3.68300	25
3.68667	25
3.69033	25
3.69400	25
3.69767	25
3.70133	24
3.70500	25
3.70867	25
3.71233	25
3.71600	25
3.71967	25
3.72333	26
3.72700	26
3.73067	26
3.73433	26
3.73800	26
3.74167	25
3.74533	26
3.74900	26
3.75267	26
3.75633	26
3.76000	27
3.76367	27
3.76733	27
3.77100	27
3.77467	27
3.77833	27
3.78200	27
3.78567	27
3.78933	27
3.79300	27
3.79667	27
3.80033	27
3.80400	27
3.80767	27
3.81133	26
3.81500	26
3.81867	26
3.82233	26
3.82600	25
3.82967	25
3.83333	25
3.83700	25
3.84067	25
3.84433	25
3.84800	25
3.85167	24
3.85533	24
3.85900	24
3.86267	24
3.86633	24
3.87000	24
3.87367	24
3.87733	24
3.88100	24
3.88467	24
3.88833	24
3.89200	24
3.89567	24
3.89933	25
3.90300	25
3.90667	24
3.91033	24
3.91400	24
3.91767	24
3.92133	25
3.92500	25
3.92867	25
3.93233	25
3.93600	25
3.93967	25
3.94333	25
3.94700	25
3.95067	25
3.95433	25
3.95800	25
3.96167	25
3.96533	25
3.96900	25
3.97267	25
3.97633	25
3.98000	25
3.98367	25
3.98733	25
3.99100	25
3.99467	24
3.99833	24

[Chromatogram (Ch3)]
Interval(msec)	220
# of Points	1091
Start Time(min)	0.002
End Time(min)	3.998
R.Time (min)	Intensity
0.00167	-0
0.00533	-1
0.00900	1
0.01267	3
0.01633	4
0.02000	5
0.02367	6
0.02733	8
0.03100	9
0.03467	8
0.03833	7
0.04200	7
0.04567	6
0.04933	6
0.05300	5
0.05667	5
0.06033	5
0.06400	6
0.06767	6
0.07133	6
0.07500	6
0.07867	6
0.08233	6
0.08600	7
0.08967	7
0.09333	7
0.09700	8
0.10067	10
0.10433	10
0.10800	10
0.11167	9
0.11533	9
0.11900	10
0.12267	12
0.12633	12
0.13000	9
0.13367	6
0.13733	7
0.14100	9
0.14467	9
0.14833	8
0.15200	6
0.15567	5
0.15933	5
0.16300	7
0.16667	9
0.17033	9
0.17400	8
0.17767	7
0.18133	7
0.18500	6
0.18867	5
0.19233	2
0.19600	3
0.19967	3
0.20333	4
0.20700	5
0.21067	5
0.21433	5
0.21800	7
0.22167	10
0.22533	11
0.22900	10
0.23267	9
0.23633	8
0.24000	9
0.24367	9
0.24733	9
0.25100	10
0.25467	9
0.25833	8
0.26200	9
0.26567	10
0.26933	9
0.27300	8
0.27667	8
0.28033	8
0.28400	8
0.28767	7
0.29133	5
0.29500	4
0.29867	4
0.30233	4
0.30600	3
0.30967	5
0.31333	7
0.31700	10
0.32067	12
0.32433	13
0.32800	12
0.33167	12
0.33533	10
0.33900	10
0.34267	9
0.34633	7
0.35000	6
0.35367	7
0.35733	5
0.36100	4
0.36467	7
0.36833	11
0.37200	11
0.37567	9
0.37933	8
0.38300	10
0.38667	12
0.39033	13
0.39400	13
0.39767	13
0.40133	10
0.40500	7
0.40867	4
0.41233	3
0.41600	1
0.41967	2
0.42333	5
0.42700	6
0.43067	7
0.43433	10
0.43800	9
0.44167	9
0.44533	11
0.44900	12
0.45267	12
0.45633	11
0.46000	10
0.46367	8
0.46733	6
0.47100	6
0.47467	5
0.47833	7
0.48200	6
0.48567	8
0.48933	10
0.49300	9
0.49667	6
0.50033	2
0.50400	2
0.50767	5
0.51133	7
0.51500	8
0.51867	10
0.52233	9
0.52600	8
0.52967	7
0.53333	6
0.53700	5
0.54067	5
0.54433	5
0.54800	6
0.55167	6
0.55533	6
0.55900	7
0.56267	6
0.56633	5
0.57000	6
0.57367	5
0.57733	6
0.58100	10
0.58467	13
0.58833	15
0.59200	12
0.59567	9
0.59933	7
0.60300	7
0.60667	7
0.61033	7
0.61400	7
0.61767	6
0.62133	4
0.62500	4
0.62867	6
0.63233	8
0.63600	11
0.63967	13
0.64333	14
0.64700	14
0.65067	13
0.65433	11
0.65800	8
0.66167	8
0.66533	9
0.66900	10
0.67267	10
0.67633	9
0.68000	7
0.68367	8
0.68733	9
0.69100	11
0.69467	13
0.69833	13
0.70200	11
0.70567	9
0.70933	8
0.71300	7
0.71667	8
0.72033	9
0.72400	8
0.72767	6
0.73133	6
0.73500	7
0.73867	7
0.74233	6
0.74600	7
0.74967	7
0.75333	7
0.75700	6
0.76067	8
0.76433	10
0.76800	12
0.77167	11
0.77533	11
0.77900	10
0.78267	8
0.78633	6
0.79000	8
0.79367	10
0.79733	11
0.80100	11
0.80467	11
0.80833	11
0.81200	13
0.81567	14
0.81933	12
0.82300	11
0.82667	11
0.83033	13
0.83400	14
0.83767	14
0.84133	13
0.84500	11
0.84867	12
0.85233	15
0.85600	16
0.85967	18
0.86333	19
0.86700	18
0.87067	18
0.87433	18
0.87800	18
0.88167	17
0.88533	16
0.88900	16
0.89267	17
0.89633	17
0.90000	18
0.90367	19
0.90733	17
0.91100	15
0.91467	13
0.91833	14
0.92200	16
0.92567	17
0.92933	17
0.93300	17
0.93667	17
0.94033	18
0.94400	19
0.94767	19
0.95133	20
0.95500	21
0.95867	21
0.96233	19
0.96600	18
0.96967	17
0.97333	17
0.97700	16
0.98067	16
0.98433	18
0.98800	19
0.99167	20
0.99533	19
0.99900	19
1.00267	19
1.00633	19
1.01000	19
1.01367	19
1.01733	18
1.02100	17
1.02467	17
1.02833	21
1.03200	23
1.03567	21
1.03933	20
1.04300	18
1.04667	18
1.05033	18
1.05400	19
1.05767	21
1.06133	22
1.06500	21
1.06867	19
1.07233	17
1.07600	18
1.07967	18
1.08333	18
1.08700	17
1.09067	18
1.09433	20
1.09800	21
1.10167	23
1.10533	25
1.10900	24
1.11267	24
1.11633	25
1.12000	25
1.12367	22
1.12733	19
1.13100	17
1.13467	16
1.13833	17
1.14200	20
1.14567	19
1.14933	16
1.15300	15
1.15667	16
1.16033	17
1.16400	17
1.16767	18
1.17133	21
1.17500	24
1.17867	27
1.18233	29
1.18600	27
1.18967	26
1.19333	25
1.19700	24
1.20067	22
1.20433	21
1.20800	22
1.21167	22
1.21533	23
1.21900	21
1.22267	20
1.22633	19
1.23000	19
1.23367	20
1.23733	19
1.24100	20
1.24467	22
1.24833	24
1.25200	26
1.25567	26
1.25933	24
1.26300	24
1.26667	26
1.27033	26
1.27400	28
1.27767	28
1.28133	29
1.28500	28
1.28867	26
1.29233	25
1.29600	26
1.29967	27
1.30333	27
1.30700	27
1.31067	28
1.31433	29
1.31800	29
1.32167	29
1.32533	29
1.32900	29
1.33267	28
1.33633	29
1.34000	30
1.34367	30
1.34733	31
1.35100	29
1.35467	27
1.35833	27
1.36200	26
1.36567	23
1.36933	22
1.37300	24
1.37667	24
1.38033	26
1.38400	28
1.38767	26
1.39133	24
1.39500	24
1.39867	26
1.40233	25
1.40600	23
1.40967	22
1.41333	22
1.41700	22
1.42067	23
1.42433	24
1.42800	26
1.43167	26
1.43533	27
1.43900	28
1.44267	29
1.44633	29
1.45000	29
1.45367	30
1.45733	31
1.46100	31
1.46467	32
1.46833	32
1.47200	30
1.47567	28
1.47933	28
1.48300	30
1.48667	30
1.49033	31
1.49400	33
1.49767	34
1.50133	33
1.50500	32
1.50867	31
1.51233	30
1.51600	28
1.51967	27
1.52333	27
1.52700	28
1.53067	29
1.53433	30
1.53800	29
1.54167	28
1.54533	28
1.54900	28
1.55267	28
1.55633	27
1.56000	26
1.56367	27
1.56733	29
1.57100	31
1.57467	32
1.57833	33
1.58200	34
1.58567	32
1.58933	30
1.59300	29
1.59667	28
1.60033	28
1.60400	30
1.60767	33
1.61133	35
1.61500	34
1.61867	32
1.62233	32
1.62600	33
1.62967	33
1.63333	32
1.63700	30
1.64067	30
1.64433	30
1.64800	30
1.65167	33
1.65533	35
1.65900	34
1.66267	36
1.66633	38
1.67000	37
1.67367	37
1.67733	39
1.68100	42
1.68467	44
1.68833	43
1.69200	41
1.69567	39
1.69933	38
1.70300	37
1.70667	38
1.71033	38
1.71400	39
1.71767	40
1.72133	42
1.72500	42
1.72867	43
1.73233	43
1.73600	44
1.73967	44
1.74333	44
1.74700	45
1.75067	45
1.75433	44
1.75800	46
1.76167	47
1.76533	47
1.76900	49
1.77267	50
1.77633	50
1.78000	50
1.78367	49
1.78733	47
1.79100	45
1.79467	46
1.79833	48
1.80200	51
1.80567	53
1.80933	53
1.81300	54
1.81667	55
1.82033	56
1.82400	57
1.82767	58
1.83133	59
1.83500	60
1.83867	60
1.84233	60
1.84600	57
1.84967	56
1.85333	57
1.85700	57
1.86067	56
1.86433	56
1.86800	56
1.87167	57
1.87533	59
1.87900	60
1.88267	61
1.88633	63
1.89000	64
1.89367	66
1.89733	68
1.90100	69
1.90467	68
1.90833	67
1.91200	66
1.91567	66
1.91933	67
1.92300	69
1.92667	69
1.93033	71
1.93400	74
1.93767	77
1.94133	78
1.94500	79
1.94867	80
1.95233	79
1.95600	79
1.95967	80
1.96333	82
1.96700	84
1.97067	84
1.97433	85
1.97800	85
1.98167	86
1.98533	86
1.98900	85
1.99267	85
1.99633	83
2.00000	83
2.00367	86
2.00733	87
2.01100	89
2.01467	91
2.01833	92
2.02200	93
2.02567	92
2.02933	92
2.03300	94
2.03667	95
2.04033	97
2.04400	96
2.04767	98
2.05133	100
2.05500	101
2.05867	103
2.06233	104
2.06600	104
2.06967	105
2.07333	109
2.07700	111
2.08067	111
2.08433	111
2.08800	112
2.09167	112
2.09533	112
2.09900	113
2.10267	115
2.10633	116
2.11000	117
2.11367	117
2.11733	118
2.12100	121
2.12467	124
2.12833	126
2.13200	128
2.13567	129
2.13933	131
2.14300	133
2.14667	134
2.15033	137
2.15400	140
2.15767	142
2.16133	144
2.16500	144
2.16867	144
2.17233	146
2.17600	148
2.17967	151
2.18333	152
2.18700	152
2.19067	151
2.19433	153
2.19800	157
2.20167	160
2.20533	161
2.20900	164
2.21267	168
2.21633	168
2.22000	169
2.22367	169
2.22733	171
2.23100	171
2.23467	171
2.23833	172
2.24200	174
2.24567	177
2.24933	177
2.25300	177
2.25667	176
2.26033	177
2.26400	179
2.26767	181
2.27133	183
2.27500	184
2.27867	186
2.28233	189
2.28600	191
2.28967	194
2.29333	198
2.29700	200
2.30067	203
2.30433	204
2.30800	207
2.31167	210
2.31533	211
2.31900	212
2.32267	215
2.32633	217
2.33000	218
2.33367	219
2.33733	219
2.34100	222
2.34467	226
2.34833	227
2.35200	230
2.35567	231
2.35933	233
2.36300	235
2.36667	237
2.37033	240
2.37400	241
2.37767	241
2.38133	241
2.38500	241
2.38867	241
2.39233	243
2.39600	247
2.39967	251
2.40333	255
2.40700	258
2.41067	264
2.41433	267
2.41800	271
2.42167	273
2.42533	274
2.42900	274
2.43267	275
2.43633	279
2.44000	285
2.44367	342
2.44733	488
2.45100	647
2.45467	778
2.45833	857
2.46200	868
2.46567	838
2.46933	802
2.47300	773
2.47667	755
2.48033	743
2.48400	721
2.48767	687
2.49133	644
2.49500	601
2.49867	564
2.50233	536
2.50600	516
2.50967	505
2.51333	502
2.51700	507
2.52067	523
2.52433	543
2.52800	561
2.53167	573
2.53533	576
2.53900	568
2.54267	550
2.54633	528
2.55000	502
2.55367	476
2.55733	450
2.56100	429
2.56467	411
2.56833	398
2.57200	387
2.57567	377
2.57933	372
2.58300	370
2.58667	372
2.59033	371
2.59400	368
2.59767	364
2.60133	359
2.60500	353
2.60867	345
2.61233	334
2.61600	326
2.61967	318
2.62333	313
2.62700	306
2.63067	301
2.63433	301
2.63800	303
2.64167	307
2.64533	313
2.64900	319
2.65267	322
2.65633	324
2.66000	325
2.66367	324
2.66733	319
2.67100	311
2.67467	301
2.67833	292
2.68200	283
2.68567	274
2.68933	266
2.69300	259
2.69667	253
2.70033	248
2.70400	244
2.70767	240
2.71133	235
2.71500	231
2.71867	231
2.72233	231
2.72600	233
2.72967	234
2.73333	235
2.73700	236
2.74067	237
2.74433	241
2.74800	244
2.75167	246
2.75533	246
2.75900	247
2.76267	245
2.76633	244
2.77000	242
2.77367	240
2.77733	241
2.78100	244
2.78467	247
2.78833	251
2.79200	253
2.79567	253
2.79933	254
2.80300	256
2.80667	255
2.81033	255
2.81400	258
2.81767	265
2.82133	278
2.82500	307
2.82867	368
2.83233	476
2.83600	659
2.83967	936
2.84333	1322
2.84700	1811
2.85067	2389
2.85433	3018
2.85800	3648
2.86167	4231
2.86533	4719
2.86900	5076
2.87267	5280
2.87633	5334
2.88000	5251
2.88367	5056
2.88733	4777
2.89100	4443
2.89467	4081
2.89833	3715
2.90200	3355
2.90567	3013
2.90933	2698
2.91300	2410
2.91667	2150
2.92033	1918
2.92400	1714
2.92767	1532
2.93133	1372
2.93500	1233
2.93867	1112
2.94233	1006
2.94600	913
2.94967	831
2.95333	760
2.95700	700
2.96067	647
2.96433	601
2.96800	562
2.97167	524
2.97533	492
2.97900	465
2.98267	443
2.98633	422
2.99000	403
2.99367	383
2.99733	365
3.00100	347
3.00467	305
3.00833	252
3.01200	222
3.01567	223
3.01933	244
3.02300	274
3.02667	308
3.03033	347
3.03400	388
3.03767	429
3.04133	466
3.04500	497
3.04867	524
3.05233	548
3.05600	570
3.05967	588
3.06333	603
3.06700	614
3.07067	624
3.07433	635
3.07800	643
3.08167	648
3.08533	652
3.08900	658
3.09267	663
3.09633	666
3.10000	670
3.10367	673
3.10733	676
3.11100	679
3.11467	680
3.11833	681
3.12200	683
3.12567	687
3.12933	688
3.13300	692
3.13667	694
3.14033	694
3.14400	697
3.14767	701
3.15133	704
3.15500	706
3.15867	709
3.16233	713
3.16600	716
3.16967	720
3.17333	723
3.17700	728
3.18067	734
3.18433	738
3.18800	741
3.19167	746
3.19533	747
3.19900	747
3.20267	751
3.20633	758
3.21000	764
3.21367	769
3.21733	772
3.22100	774
3.22467	776
3.22833	779
3.23200	779
3.23567	782
3.23933	786
3.24300	788
3.24667	790
3.25033	793
3.25400	795
3.25767	797
3.26133	797
3.26500	798
3.26867	799
3.27233	801
3.27600	799
3.27967	800
3.28333	803
3.28700	805
3.29067	805
3.29433	804
3.29800	804
3.30167	805
3.30533	806
3.30900	810
3.31267	812
3.31633	813
3.32000	814
3.32367	814
3.32733	815
3.33100	815
3.33467	814
3.33833	816
3.34200	816
3.34567	817
3.34933	817
3.35300	819
3.35667	819
3.36033	819
3.36400	819
3.36767	817
3.37133	812
3.37500	810
3.37867	810
3.38233	811
3.38600	813
3.38967	811
3.39333	810
3.39700	808
3.40067	808
3.40433	810
3.40800	809
3.41167	807
3.41533	806
3.41900	805
3.42267	805
3.42633	804
3.43000	803
3.43367	804
3.43733	801
3.44100	799
3.44467	795
3.44833	791
3.45200	789
3.45567	789
3.45933	790
3.46300	790
3.46667	789
3.47033	788
3.47400	784
3.47767	782
3.48133	781
3.48500	779
3.48867	778
3.49233	775
3.49600	771
3.49967	769
3.50333	768
3.50700	769
3.51067	771
3.51433	770
3.51800	770
3.52167	769
3.52533	768
3.52900	766
3.53267	765
3.53633	763
3.54000	763
3.54367	762
3.54733	762
3.55100	761
3.55467	762
3.55833	762
3.56200	761
3.56567	760
3.56933	758
3.57300	758
3.57667	756
3.58033	754
3.58400	752
3.58767	751
3.59133	751
3.59500	752
3.59867	753
3.60233	754
3.60600	754
3.60967	753
3.61333	751
3.61700	751
3.62067	753
3.62433	757
3.62800	758
3.63167	758
3.63533	757
3.63900	755
3.64267	753
3.64633	752
3.65000	751
3.65367	749
3.65733	748
3.66100	750
3.66467	751
3.66833	751
3.67200	750
3.67567	748
3.67933	745
3.68300	744
3.68667	745
3.69033	744
3.69400	743
3.69767	742
3.70133	740
3.70500	739
3.70867	738
3.71233	736
3.71600	738
3.71967	737
3.72333	738
3.72700	739
3.73067	738
3.73433	737
3.73800	735
3.74167	732
3.74533	730
3.74900	727
3.75267	725
3.75633	724
3.76000	723
3.76367	723
3.76733	721
3.77100	721
3.77467	720
3.77833	719
3.78200	719
3.78567	717
3.78933	715
3.79300	713
3.79667	708
3.80033	705
3.80400	703
3.80767	701
3.81133	700
3.81500	697
3.81867	695
3.82233	696
3.82600	696
3.82967	696
3.83333	695
3.83700	694
3.84067	694
3.84433	695
3.84800	696
3.85167	693
3.85533	690
3.85900	687
3.86267	684
3.86633	682
3.87000	680
3.87367	679
3.87733	679
3.88100	678
3.88467	675
3.88833	672
3.89200	670
3.89567	670
3.89933	670
3.90300	668
3.90667	667
3.91033	667
3.91400	666
3.91767	665
3.92133	663
3.92500	660
3.92867	658
3.93233	657
3.93600	656
3.93967	655
3.94333	653
3.94700	651
3.95067	651
3.95433	648
3.95800	645
3.96167	642
3.96533	641
3.96900	640
3.97267	636
3.97633	632
3.98000	629
3.98367	629
3.98733	628
3.99100	626
3.99467	624
3.99833	621

[Status Trace (Column Oven Temperature)]
Interval(msec)	1000
# of Points	240
Start Time(min)	0.012
End Time(min)	3.996
Intensity Units	
Intensity Multiplier	1
R.Time (min)	Intensity
0.01245	35.04
0.02912	35.02
0.04578	35.02
0.06245	35.02
0.07912	35.01
0.09578	35.02
0.11245	35.04
0.12912	35.04
0.14578	35.05
0.16245	35.07
0.17912	35.07
0.19578	35.06
0.21245	35.05
0.22912	35.05
0.24578	35.05
0.26245	35.05
0.27912	35.04
0.29578	35.04
0.31245	35.04
0.32912	35.03
0.34578	35.01
0.36245	35.03
0.37912	35.02
0.39578	35.02
0.41245	35.02
0.42912	35.01
0.44578	35.00
0.46245	35.00
0.47912	35.01
0.49578	35.01
0.51245	35.01
0.52912	35.00
0.54578	35.00
0.56245	35.00
0.57912	35.00
0.59578	35.00
0.61245	34.99
0.62912	34.98
0.64578	34.98
0.66245	34.99
0.67912	35.01
0.69578	35.01
0.71245	35.01
0.72912	35.03
0.74578	35.03
0.76245	35.03
0.77912	35.03
0.79578	35.04
0.81245	35.05
0.82912	35.04
0.84578	35.02
0.86245	35.01
0.87912	35.00
0.89578	35.00
0.91245	35.00
0.92912	34.99
0.94578	34.98
0.96245	34.97
0.97912	34.97
0.99578	34.96
1.01245	34.96
1.02912	34.96
1.04578	34.96
1.06245	34.96
1.07912	34.98
1.09578	35.00
1.11245	35.02
1.12912	35.03
1.14578	35.03
1.16245	35.04
1.17912	35.04
1.19578	35.03
1.21245	35.02
1.22912	35.01
1.24578	34.99
1.26245	34.98
1.27912	34.99
1.29578	34.99
1.31245	35.00
1.32912	35.01
1.34578	35.00
1.36245	34.98
1.37912	34.97
1.39578	34.97
1.41245	34.98
1.42912	34.99
1.44578	34.99
1.46245	34.98
1.47912	34.97
1.49578	34.97
1.51245	34.97
1.52912	34.98
1.54578	34.98
1.56245	34.99
1.57912	34.99
1.59578	35.01
1.61245	35.09
1.62912	35.22
1.64578	35.41
1.66245	35.70
1.67912	36.05
1.69578	36.41
1.71245	36.76
1.72912	37.10
1.74578	37.43
1.76245	37.78
1.77912	38.11
1.79578	38.43
1.81245	38.77
1.82912	39.11
1.84578	39.43
1.86245	39.75
1.87912	40.09
1.89578	40.40
1.91245	40.74
1.92912	41.05
1.94578	41.38
1.96245	41.73
1.97912	42.05
1.99578	42.39
2.01245	42.72
2.02912	43.04
2.04578	43.36
2.06245	43.67
2.07912	44.00
2.09578	44.32
2.11245	44.64
2.12912	44.98
2.14578	45.31
2.16245	45.63
2.17912	45.95
2.19578	46.28
2.21245	46.61
2.22912	46.93
2.24578	47.27
2.26245	47.58
2.27912	47.92
2.29578	48.27
2.31245	48.58
2.32912	48.91
2.34578	49.25
2.36245	49.48
2.37912	49.62
2.39578	49.65
2.41245	49.63
2.42912	49.66
2.44578	49.67
2.46245	49.67
2.47912	49.69
2.49578	49.69
2.51245	49.71
2.52912	49.73
2.54578	49.74
2.56245	49.75
2.57912	49.78
2.59578	49.79
2.61245	49.81
2.62912	49.83
2.64578	49.82
2.66245	49.83
2.67912	49.84
2.69578	49.85
2.71245	49.85
2.72912	49.85
2.74578	49.85
2.76245	49.85
2.77912	49.86
2.79578	49.87
2.81245	49.87
2.82912	49.87
2.84578	49.87
2.86245	49.87
2.87912	49.88
2.89578	49.89
2.91245	49.91
2.92912	49.92
2.94578	49.94
2.96245	49.94
2.97912	49.94
2.99578	49.94
3.01245	49.94
3.02912	49.95
3.04578	49.97
3.06245	49.99
3.07912	50.00
3.09578	50.01
3.11245	50.02
3.12912	50.02
3.14578	50.02
3.16245	50.02
3.17912	50.03
3.19578	50.04
3.21245	50.06
3.22912	50.07
3.24578	50.07
3.26245	50.07
3.27912	50.08
3.29578	50.09
3.31245	50.10
3.32912	50.11
3.34578	50.09
3.36245	50.08
3.37912	50.06
3.39578	50.05
3.41245	50.04
3.42912	50.03
3.44578	50.03
3.46245	50.02
3.47912	50.01
3.49578	50.01
3.51245	50.02
3.52912	50.03
3.54578	50.04
3.56245	50.05
3.57912	50.06
3.59578	50.07
3.61245	50.06
3.62912	50.06
3.64578	50.06
3.66245	50.05
3.67912	50.06
3.69578	50.07
3.71245	50.08
3.72912	50.07
3.74578	50.07
3.76245	50.06
3.77912	50.05
3.79578	50.04
3.81245	50.05
3.82912	50.06
3.84578	50.07
3.86245	50.08
3.87912	50.07
3.89578	50.08
3.91245	50.07
3.92912	50.07
3.94578	50.06
3.96245	50.07
3.97912	50.08
3.99578	50.08

[Status Trace (Injection Unit Temperature)]
Interval(msec)	1000
# of Points	240
Start Time(min)	0.012
End Time(min)	3.996
Intensity Units	
Intensity Multiplier	1
R.Time (min)	Intensity
0.01245	99.98
0.02912	99.98
0.04578	99.98
0.06245	99.98
0.07912	99.98
0.09578	99.98
0.11245	99.98
0.12912	99.99
0.14578	99.98
0.16245	99.98
0.17912	99.98
0.19578	99.99
0.21245	99.98
0.22912	99.98
0.24578	99.99
0.26245	99.99
0.27912	99.99
0.29578	99.98
0.31245	99.99
0.32912	99.99
0.34578	99.99
0.36245	99.99
0.37912	99.98
0.39578	99.99
0.41245	99.99
0.42912	99.99
0.44578	99.99
0.46245	99.98
0.47912	99.99
0.49578	99.99
0.51245	99.98
0.52912	99.98
0.54578	99.99
0.56245	99.99
0.57912	99.99
0.59578	99.99
0.61245	99.98
0.62912	99.99
0.64578	99.99
0.66245	99.99
0.67912	99.98
0.69578	99.99
0.71245	99.99
0.72912	99.98
0.74578	99.98
0.76245	99.98
0.77912	99.98
0.79578	99.98
0.81245	99.98
0.82912	99.98
0.84578	99.99
0.86245	99.99
0.87912	99.98
0.89578	99.98
0.91245	99.98
0.92912	99.98
0.94578	99.98
0.96245	99.98
0.97912	99.98
0.99578	99.98
1.01245	99.98
1.02912	99.98
1.04578	99.98
1.06245	99.98
1.07912	99.98
1.09578	99.98
1.11245	99.98
1.12912	99.98
1.14578	99.99
1.16245	99.98
1.17912	99.98
1.19578	99.98
1.21245	99.98
1.22912	99.98
1.24578	99.98
1.26245	99.98
1.27912	99.98
1.29578	99.98
1.31245	99.98
1.32912	99.98
1.34578	99.98
1.36245	99.98
1.37912	99.98
1.39578	99.98
1.41245	99.98
1.42912	99.98
1.44578	99.98
1.46245	99.98
1.47912	99.98
1.49578	99.98
1.51245	99.98
1.52912	99.98
1.54578	99.98
1.56245	99.98
1.57912	99.98
1.59578	99.98
1.61245	99.98
1.62912	99.98
1.64578	99.98
1.66245	99.98
1.67912	99.98
1.69578	99.97
1.71245	99.98
1.72912	99.98
1.74578	99.97
1.76245	99.98
1.77912	99.97
1.79578	99.98
1.81245	99.98
1.82912	99.98
1.84578	99.98
1.86245	99.98
1.87912	99.98
1.89578	99.97
1.91245	99.97
1.92912	99.98
1.94578	99.98
1.96245	99.98
1.97912	99.97
1.99578	99.98
2.01245	99.97
2.02912	99.98
2.04578	99.97
2.06245	99.97
2.07912	99.97
2.09578	99.97
2.11245	99.97
2.12912	99.97
2.14578	99.97
2.16245	99.97
2.17912	99.97
2.19578	99.97
2.21245	99.97
2.22912	99.97
2.24578	99.97
2.26245	99.97
2.27912	99.97
2.29578	99.97
2.31245	99.97
2.32912	99.97
2.34578	99.97
2.36245	99.97
2.37912	99.97
2.39578	99.97
2.41245	99.97
2.42912	99.97
2.44578	99.97
2.46245	99.97
2.47912	99.97
2.49578	99.97
2.51245	99.97
2.52912	99.97
2.54578	99.97
2.56245	99.97
2.57912	99.98
2.59578	99.98
2.61245	99.98
2.62912	99.98
2.64578	99.98
2.66245	99.98
2.67912	99.99
2.69578	99.98
2.71245	99.98
2.72912	99.98
2.74578	99.99
2.76245	99.99
2.77912	99.99
2.79578	99.99
2.81245	99.99
2.82912	100.00
2.84578	100.00
2.86245	100.00
2.87912	100.00
2.89578	100.00
2.91245	100.01
2.92912	100.01
2.94578	100.01
2.96245	100.00
2.97912	100.01
2.99578	100.01
3.01245	100.01
3.02912	100.01
3.04578	100.02
3.06245	100.02
3.07912	100.02
3.09578	100.02
3.11245	100.02
3.12912	100.02
3.14578	100.02
3.16245	100.02
3.17912	100.02
3.19578	100.02
3.21245	100.02
3.22912	100.02
3.24578	100.02
3.26245	100.02
3.27912	100.03
3.29578	100.03
3.31245	100.03
3.32912	100.03
3.34578	100.03
3.36245	100.03
3.37912	100.03
3.39578	100.03
3.41245	100.04
3.42912	100.03
3.44578	100.03
3.46245	100.03
3.47912	100.04
3.49578	100.03
3.51245	100.03
3.52912	100.03
3.54578	100.03
3.56245	100.04
3.57912	100.04
3.59578	100.03
3.61245	100.04
3.62912	100.04
3.64578	100.03
3.66245	100.03
3.67912	100.04
3.69578	100.03
3.71245	100.04
3.72912	100.04
3.74578	100.04
3.76245	100.04
3.77912	100.04
3.79578	100.04
3.81245	100.04
3.82912	100.03
3.84578	100.04
3.86245	100.04
3.87912	100.04
3.89578	100.04
3.91245	100.03
3.92912	100.04
3.94578	100.04
3.96245	100.04
3.97912	100.04
3.99578	100.04

[Status Trace (Carrier Gas Pressure)]
Interval(msec)	1000
# of Points	240
Start Time(min)	0.012
End Time(min)	3.996
Intensity Units	
Intensity Multiplier	1
R.Time (min)	Intensity
0.01245	57.98
0.02912	55.06
0.04578	57.68
0.06245	59.72
0.07912	58.85
0.09578	57.99
0.11245	57.99
0.12912	58.01
0.14578	58.01
0.16245	58.00
0.17912	58.00
0.19578	58.00
0.21245	58.00
0.22912	58.00
0.24578	58.00
0.26245	58.00
0.27912	58.00
0.29578	58.00
0.31245	58.00
0.32912	58.00
0.34578	58.00
0.36245	58.00
0.37912	58.00
0.39578	58.00
0.41245	58.00
0.42912	58.00
0.44578	58.00
0.46245	58.00
0.47912	58.00
0.49578	58.00
0.51245	58.00
0.52912	58.00
0.54578	58.00
0.56245	58.00
0.57912	58.00
0.59578	58.00
0.61245	58.00
0.62912	58.00
0.64578	58.00
0.66245	58.00
0.67912	58.00
0.69578	58.00
0.71245	58.00
0.72912	58.00
0.74578	58.00
0.76245	58.00
0.77912	58.00
0.79578	58.00
0.81245	58.00
0.82912	58.00
0.84578	58.00
0.86245	58.00
0.87912	58.00
0.89578	58.00
0.91245	58.00
0.92912	58.00
0.94578	58.00
0.96245	58.00
0.97912	58.00
0.99578	58.00
1.01245	58.00
1.02912	58.00
1.04578	58.00
1.06245	58.00
1.07912	58.00
1.09578	58.00
1.11245	58.00
1.12912	58.00
1.14578	58.00
1.16245	58.00
1.17912	58.00
1.19578	58.00
1.21245	58.00
1.22912	58.00
1.24578	58.00
1.26245	58.00
1.27912	58.00
1.29578	58.00
1.31245	58.00
1.32912	58.00
1.34578	58.00
1.36245	58.00
1.37912	58.00
1.39578	58.00
1.41245	58.00
1.42912	58.00
1.44578	58.00
1.46245	58.00
1.47912	58.00
1.49578	58.00
1.51245	58.00
1.52912	58.00
1.54578	58.00
1.56245	58.00
1.57912	58.00
1.59578	58.00
1.61245	58.00
1.62912	58.00
1.64578	58.01
1.66245	58.01
1.67912	58.01
1.69578	58.00
1.71245	58.00
1.72912	58.00
1.74578	58.00
1.76245	58.00
1.77912	58.00
1.79578	58.00
1.81245	58.00
1.82912	58.00
1.84578	58.00
1.86245	58.00
1.87912	58.00
1.89578	58.00
1.91245	58.00
1.92912	58.00
1.94578	58.00
1.96245	58.00
1.97912	58.00
1.99578	58.00
2.01245	58.00
2.02912	58.00
2.04578	58.00
2.06245	58.00
2.07912	58.00
2.09578	58.00
2.11245	58.00
2.12912	58.00
2.14578	58.00
2.16245	58.00
2.17912	58.00
2.19578	58.00
2.21245	58.00
2.22912	58.00
2.24578	58.00
2.26245	58.00
2.27912	58.00
2.29578	58.00
2.31245	58.00
2.32912	58.00
2.34578	58.00
2.36245	58.00
2.37912	57.99
2.39578	57.99
2.41245	58.00
2.42912	58.00
2.44578	58.00
2.46245	58.00
2.47912	58.00
2.49578	58.00
2.51245	57.99
2.52912	57.99
2.54578	58.00
2.56245	58.00
2.57912	58.00
2.59578	58.00
2.61245	58.00
2.62912	58.00
2.64578	58.00
2.66245	58.00
2.67912	58.00
2.69578	58.00
2.71245	58.00
2.72912	58.00
2.74578	58.00
2.76245	58.00
2.77912	58.00
2.79578	58.00
2.81245	58.00
2.82912	58.00
2.84578	58.00
2.86245	58.00
2.87912	58.00
2.89578	58.00
2.91245	58.00
2.92912	58.00
2.94578	58.00
2.96245	58.00
2.97912	58.00
2.99578	58.00
3.01245	58.00
3.02912	58.00
3.04578	58.00
3.06245	58.00
3.07912	58.00
3.09578	58.00
3.11245	58.00
3.12912	58.00
3.14578	58.00
3.16245	58.00
3.17912	58.00
3.19578	58.00
3.21245	58.00
3.22912	58.00
3.24578	58.00
3.26245	58.00
3.27912	58.00
3.29578	58.00
3.31245	58.00
3.32912	58.00
3.34578	58.00
3.36245	58.00
3.37912	58.00
3.39578	58.00
3.41245	58.00
3.42912	58.00
3.44578	58.00
3.46245	58.00
3.47912	58.00
3.49578	58.00
3.51245	58.00
3.52912	58.00
3.54578	58.00
3.56245	58.00
3.57912	58.00
3.59578	58.00
3.61245	58.00
3.62912	58.00
3.64578	58.00
3.66245	58.00
3.67912	58.00
3.69578	58.00
3.71245	58.00
3.72912	58.00
3.74578	58.00
3.76245	58.00
3.77912	58.00
3.79578	58.00
3.81245	58.00
3.82912	58.00
3.84578	58.00
3.86245	58.00
3.87912	58.00
3.89578	58.00
3.91245	58.00
3.92912	58.00
3.94578	58.00
3.96245	58.00
3.97912	58.00
3.99578	58.00

[Status Trace (Carrier Gas Flow)]
Interval(msec)	1000
# of Points	240
Start Time(min)	0.012
End Time(min)	3.996
Intensity Units	
Intensity Multiplier	1
R.Time (min)	Intensity
0.01245	34.59
0.02912	34.54
0.04578	34.54
0.06245	34.53
0.07912	34.51
0.09578	34.52
0.11245	34.52
0.12912	34.52
0.14578	34.52
0.16245	34.52
0.17912	34.52
0.19578	34.52
0.21245	34.52
0.22912	34.52
0.24578	34.52
0.26245	34.52
0.27912	34.52
0.29578	34.52
0.31245	34.52
0.32912	34.52
0.34578	34.52
0.36245	34.52
0.37912	34.52
0.39578	34.52
0.41245	34.51
0.42912	34.52
0.44578	34.52
0.46245	34.52
0.47912	34.52
0.49578	34.51
0.51245	34.51
0.52912	34.52
0.54578	34.52
0.56245	34.52
0.57912	34.52
0.59578	34.52
0.61245	34.52
0.62912	34.52
0.64578	34.52
0.66245	34.52
0.67912	34.52
0.69578	34.52
0.71245	34.51
0.72912	34.51
0.74578	34.51
0.76245	34.52
0.77912	34.52
0.79578	34.52
0.81245	34.52
0.82912	34.52
0.84578	34.51
0.86245	34.52
0.87912	34.52
0.89578	34.52
0.91245	34.52
0.92912	34.52
0.94578	34.52
0.96245	34.52
0.97912	34.52
0.99578	34.52
1.01245	34.52
1.02912	34.51
1.04578	34.52
1.06245	34.51
1.07912	34.52
1.09578	34.52
1.11245	34.52
1.12912	34.52
1.14578	34.52
1.16245	34.52
1.17912	34.52
1.19578	34.51
1.21245	34.52
1.22912	34.52
1.24578	34.52
1.26245	34.51
1.27912	34.52
1.29578	34.52
1.31245	34.52
1.32912	34.52
1.34578	34.52
1.36245	34.53
1.37912	34.52
1.39578	34.52
1.41245	34.52
1.42912	34.52
1.44578	34.52
1.46245	34.52
1.47912	34.52
1.49578	34.51
1.51245	34.53
1.52912	34.52
1.54578	34.52
1.56245	34.52
1.57912	34.52
1.59578	34.52
1.61245	34.52
1.62912	34.52
1.64578	34.52
1.66245	34.52
1.67912	34.52
1.69578	34.52
1.71245	34.52
1.72912	34.51
1.74578	34.52
1.76245	34.52
1.77912	34.52
1.79578	34.52
1.81245	34.52
1.82912	34.51
1.84578	34.51
1.86245	34.52
1.87912	34.52
1.89578	34.52
1.91245	34.52
1.92912	34.52
1.94578	34.52
1.96245	34.52
1.97912	34.51
1.99578	34.52
2.01245	34.52
2.02912	34.51
2.04578	34.52
2.06245	34.53
2.07912	34.52
2.09578	34.52
2.11245	34.52
2.12912	34.52
2.14578	34.52
2.16245	34.52
2.17912	34.52
2.19578	34.52
2.21245	34.52
2.22912	34.52
2.24578	34.51
2.26245	34.52
2.27912	34.52
2.29578	34.51
2.31245	34.52
2.32912	34.52
2.34578	34.51
2.36245	34.52
2.37912	34.51
2.39578	34.52
2.41245	34.52
2.42912	34.52
2.44578	34.52
2.46245	34.52
2.47912	34.52
2.49578	34.52
2.51245	34.52
2.52912	34.52
2.54578	34.52
2.56245	34.52
2.57912	34.52
2.59578	34.52
2.61245	34.52
2.62912	34.52
2.64578	34.52
2.66245	34.52
2.67912	34.52
2.69578	34.52
2.71245	34.52
2.72912	34.52
2.74578	34.52
2.76245	34.52
2.77912	34.52
2.79578	34.52
2.81245	34.52
2.82912	34.52
2.84578	34.52
2.86245	34.51
2.87912	34.51
2.89578	34.52
2.91245	34.52
2.92912	34.51
2.94578	34.52
2.96245	34.52
2.97912	34.52
2.99578	34.52
3.01245	34.52
3.02912	34.52
3.04578	34.52
3.06245	34.52
3.07912	34.52
3.09578	34.52
3.11245	34.52
3.12912	34.52
3.14578	34.52
3.16245	34.52
3.17912	34.52
3.19578	34.52
3.21245	34.51
3.22912	34.51
3.24578	34.52
3.26245	34.52
3.27912	34.52
3.29578	34.52
3.31245	34.53
3.32912	34.53
3.34578	34.52
3.36245	34.52
3.37912	34.52
3.39578	34.52
3.41245	34.51
3.42912	34.52
3.44578	34.52
3.46245	34.52
3.47912	34.52
3.49578	34.52
3.51245	34.52
3.52912	34.52
3.54578	34.52
3.56245	34.52
3.57912	34.52
3.59578	34.51
3.61245	34.52
3.62912	34.52
3.64578	34.52
3.66245	34.52
3.67912	34.52
3.69578	34.52
3.71245	34.52
3.72912	34.52
3.74578	34.52
3.76245	34.52
3.77912	34.52
3.79578	34.51
3.81245	34.52
3.82912	34.51
3.84578	34.52
3.86245	34.52
3.87912	34.52
3.89578	34.52
3.91245	34.52
3.92912	34.52
3.94578	34.51
3.96245	34.51
3.97912	34.52
3.99578	34.52

[Status Trace (Column Flow)]
Interval(msec)	1000
# of Points	240
Start Time(min)	0.012
End Time(min)	3.996
Intensity Units	
Intensity Multiplier	1
R.Time (min)	Intensity
0.01245	5.52
0.02912	5.18
0.04578	5.48
0.06245	5.72
0.07912	5.62
0.09578	5.52
0.11245	5.52
0.12912	5.52
0.14578	5.52
0.16245	5.52
0.17912	5.52
0.19578	5.52
0.21245	5.52
0.22912	5.52
0.24578	5.52
0.26245	5.52
0.27912	5.52
0.29578	5.52
0.31245	5.52
0.32912	5.52
0.34578	5.52
0.36245	5.52
0.37912	5.52
0.39578	5.52
0.41245	5.52
0.42912	5.52
0.44578	5.52
0.46245	5.52
0.47912	5.52
0.49578	5.52
0.51245	5.52
0.52912	5.52
0.54578	5.52
0.56245	5.52
0.57912	5.52
0.59578	5.52
0.61245	5.52
0.62912	5.52
0.64578	5.52
0.66245	5.52
0.67912	5.52
0.69578	5.52
0.71245	5.52
0.72912	5.52
0.74578	5.52
0.76245	5.52
0.77912	5.52
0.79578	5.52
0.81245	5.52
0.82912	5.52
0.84578	5.52
0.86245	5.52
0.87912	5.52
0.89578	5.52
0.91245	5.52
0.92912	5.52
0.94578	5.52
0.96245	5.52
0.97912	5.52
0.99578	5.52
1.01245	5.52
1.02912	5.52
1.04578	5.52
1.06245	5.52
1.07912	5.52
1.09578	5.52
1.11245	5.52
1.12912	5.52
1.14578	5.52
1.16245	5.52
1.17912	5.52
1.19578	5.52
1.21245	5.52
1.22912	5.52
1.24578	5.52
1.26245	5.52
1.27912	5.52
1.29578	5.52
1.31245	5.52
1.32912	5.52
1.34578	5.52
1.36245	5.52
1.37912	5.52
1.39578	5.52
1.41245	5.52
1.42912	5.52
1.44578	5.52
1.46245	5.52
1.47912	5.52
1.49578	5.52
1.51245	5.52
1.52912	5.52
1.54578	5.52
1.56245	5.52
1.57912	5.52
1.59578	5.52
1.61245	5.52
1.62912	5.51
1.64578	5.51
1.66245	5.50
1.67912	5.49
1.69578	5.48
1.71245	5.46
1.72912	5.45
1.74578	5.45
1.76245	5.43
1.77912	5.42
1.79578	5.41
1.81245	5.40
1.82912	5.39
1.84578	5.38
1.86245	5.37
1.87912	5.36
1.89578	5.35
1.91245	5.34
1.92912	5.33
1.94578	5.33
1.96245	5.31
1.97912	5.30
1.99578	5.30
2.01245	5.28
2.02912	5.28
2.04578	5.27
2.06245	5.26
2.07912	5.25
2.09578	5.24
2.11245	5.23
2.12912	5.22
2.14578	5.21
2.16245	5.20
2.17912	5.19
2.19578	5.18
2.21245	5.17
2.22912	5.16
2.24578	5.15
2.26245	5.14
2.27912	5.13
2.29578	5.13
2.31245	5.12
2.32912	5.11
2.34578	5.10
2.36245	5.09
2.37912	5.09
2.39578	5.09
2.41245	5.09
2.42912	5.09
2.44578	5.09
2.46245	5.09
2.47912	5.09
2.49578	5.09
2.51245	5.08
2.52912	5.08
2.54578	5.08
2.56245	5.08
2.57912	5.08
2.59578	5.08
2.61245	5.08
2.62912	5.08
2.64578	5.08
2.66245	5.08
2.67912	5.08
2.69578	5.08
2.71245	5.08
2.72912	5.08
2.74578	5.08
2.76245	5.08
2.77912	5.08
2.79578	5.08
2.81245	5.08
2.82912	5.08
2.84578	5.08
2.86245	5.08
2.87912	5.08
2.89578	5.08
2.91245	5.08
2.92912	5.08
2.94578	5.08
2.96245	5.08
2.97912	5.08
2.99578	5.08
3.01245	5.08
3.02912	5.08
3.04578	5.08
3.06245	5.08
3.07912	5.08
3.09578	5.08
3.11245	5.08
3.12912	5.08
3.14578	5.08
3.16245	5.08
3.17912	5.08
3.19578	5.08
3.21245	5.08
3.22912	5.08
3.24578	5.08
3.26245	5.07
3.27912	5.07
3.29578	5.07
3.31245	5.07
3.32912	5.07
3.34578	5.07
3.36245	5.07
3.37912	5.08
3.39578	5.08
3.41245	5.08
3.42912	5.08
3.44578	5.08
3.46245	5.08
3.47912	5.08
3.49578	5.08
3.51245	5.08
3.52912	5.08
3.54578	5.08
3.56245	5.08
3.57912	5.08
3.59578	5.08
3.61245	5.08
3.62912	5.08
3.64578	5.08
3.66245	5.08
3.67912	5.08
3.69578	5.08
3.71245	5.08
3.72912	5.08
3.74578	5.08
3.76245	5.08
3.77912	5.08
3.79578	5.08
3.81245	5.08
3.82912	5.08
3.84578	5.08
3.86245	5.08
3.87912	5.08
3.89578	5.08
3.91245	5.08
3.92912	5.08
3.94578	5.08
3.96245	5.08
3.97912	5.08
3.99578	5.08

[Status Trace (Linear Velocity)]
Interval(msec)	1000
# of Points	240
Start Time(min)	0.012
End Time(min)	3.996
Intensity Units	
Intensity Multiplier	1
R.Time (min)	Intensity
0.01245	39.00
0.02912	37.08
0.04578	38.81
0.06245	40.14
0.07912	39.57
0.09578	39.01
0.11245	39.01
0.12912	39.02
0.14578	39.02
0.16245	39.01
0.17912	39.01
0.19578	39.01
0.21245	39.01
0.22912	39.01
0.24578	39.01
0.26245	39.01
0.27912	39.01
0.29578	39.01
0.31245	39.01
0.32912	39.01
0.34578	39.02
0.36245	39.01
0.37912	39.01
0.39578	39.01
0.41245	39.02
0.42912	39.02
0.44578	39.02
0.46245	39.02
0.47912	39.02
0.49578	39.02
0.51245	39.02
0.52912	39.02
0.54578	39.02
0.56245	39.02
0.57912	39.02
0.59578	39.02
0.61245	39.02
0.62912	39.02
0.64578	39.02
0.66245	39.02
0.67912	39.02
0.69578	39.02
0.71245	39.02
0.72912	39.01
0.74578	39.01
0.76245	39.01
0.77912	39.01
0.79578	39.01
0.81245	39.01
0.82912	39.01
0.84578	39.01
0.86245	39.02
0.87912	39.02
0.89578	39.02
0.91245	39.02
0.92912	39.02
0.94578	39.02
0.96245	39.02
0.97912	39.02
0.99578	39.02
1.01245	39.02
1.02912	39.02
1.04578	39.02
1.06245	39.02
1.07912	39.02
1.09578	39.02
1.11245	39.01
1.12912	39.01
1.14578	39.01
1.16245	39.01
1.17912	39.01
1.19578	39.01
1.21245	39.01
1.22912	39.02
1.24578	39.02
1.26245	39.02
1.27912	39.02
1.29578	39.02
1.31245	39.02
1.32912	39.02
1.34578	39.02
1.36245	39.02
1.37912	39.02
1.39578	39.02
1.41245	39.02
1.42912	39.02
1.44578	39.02
1.46245	39.02
1.47912	39.02
1.49578	39.02
1.51245	39.02
1.52912	39.02
1.54578	39.02
1.56245	39.02
1.57912	39.02
1.59578	39.02
1.61245	39.01
1.62912	39.00
1.64578	38.98
1.66245	38.95
1.67912	38.92
1.69578	38.89
1.71245	38.85
1.72912	38.82
1.74578	38.79
1.76245	38.75
1.77912	38.72
1.79578	38.69
1.81245	38.66
1.82912	38.63
1.84578	38.60
1.86245	38.56
1.87912	38.53
1.89578	38.51
1.91245	38.47
1.92912	38.44
1.94578	38.42
1.96245	38.38
1.97912	38.35
1.99578	38.32
2.01245	38.29
2.02912	38.26
2.04578	38.23
2.06245	38.20
2.07912	38.17
2.09578	38.15
2.11245	38.11
2.12912	38.08
2.14578	38.06
2.16245	38.02
2.17912	37.99
2.19578	37.97
2.21245	37.93
2.22912	37.91
2.24578	37.88
2.26245	37.85
2.27912	37.82
2.29578	37.79
2.31245	37.76
2.32912	37.73
2.34578	37.70
2.36245	37.68
2.37912	37.66
2.39578	37.66
2.41245	37.66
2.42912	37.66
2.44578	37.66
2.46245	37.66
2.47912	37.66
2.49578	37.66
2.51245	37.65
2.52912	37.65
2.54578	37.66
2.56245	37.66
2.57912	37.65
2.59578	37.65
2.61245	37.65
2.62912	37.65
2.64578	37.65
2.66245	37.65
2.67912	37.65
2.69578	37.65
2.71245	37.65
2.72912	37.65
2.74578	37.65
2.76245	37.65
2.77912	37.65
2.79578	37.64
2.81245	37.64
2.82912	37.64
2.84578	37.64
2.86245	37.64
2.87912	37.64
2.89578	37.64
2.91245	37.64
2.92912	37.64
2.94578	37.64
2.96245	37.64
2.97912	37.64
2.99578	37.64
3.01245	37.64
3.02912	37.64
3.04578	37.64
3.06245	37.63
3.07912	37.63
3.09578	37.63
3.11245	37.63
3.12912	37.63
3.14578	37.63
3.16245	37.63
3.17912	37.63
3.19578	37.63
3.21245	37.63
3.22912	37.63
3.24578	37.63
3.26245	37.63
3.27912	37.63
3.29578	37.62
3.31245	37.62
3.32912	37.62
3.34578	37.62
3.36245	37.62
3.37912	37.63
3.39578	37.63
3.41245	37.63
3.42912	37.63
3.44578	37.63
3.46245	37.63
3.47912	37.63
3.49578	37.63
3.51245	37.63
3.52912	37.63
3.54578	37.63
3.56245	37.63
3.57912	37.63
3.59578	37.63
3.61245	37.63
3.62912	37.63
3.64578	37.63
3.66245	37.63
3.67912	37.63
3.69578	37.63
3.71245	37.63
3.72912	37.63
3.74578	37.63
3.76245	37.63
3.77912	37.63
3.79578	37.63
3.81245	37.63
3.82912	37.63
3.84578	37.63
3.86245	37.63
3.87912	37.63
3.89578	37.63
3.91245	37.63
3.92912	37.63
3.94578	37.63
3.96245	37.63
3.97912	37.63
3.99578	37.63

