[Header]
Application Name	LabSolutions
Version	5.110
Data File Name	C:\Users\User\Desktop\GC Analyses\Jack\Nachusa Grasslands Sampling\T2 Timepoint July 12th\T2_07122022_047.gcd
Output Date	3/14/2023
Output Time	3:42:32 PM

[File Information]
Type	Data File
Generated	3/10/2023 5:37:35 PM
Generated by	System Administrator
Modified	3/10/2023 5:44:12 PM
Modified by	System Administrator

[Sample Information]
Operator Name	System Administrator
Acquired	3/10/2023 5:40:11 PM
Sample Type	0:Unknown
Level	0
Sample Name	047
Sample ID	047
ISTD Amount1	1
ISTD Amount2	1
ISTD Amount3	1
ISTD Amount4	1
ISTD Amount5	1
ISTD Amount6	1
ISTD Amount7	1
ISTD Amount8	1
ISTD Amount9	1
ISTD Amount10	1
ISTD Amount11	1
ISTD Amount12	1
ISTD Amount13	1
ISTD Amount14	1
ISTD Amount15	1
ISTD Amount16	1
ISTD Amount17	1
ISTD Amount18	1
ISTD Amount19	1
ISTD Amount20	1
ISTD Amount21	1
ISTD Amount22	1
ISTD Amount23	1
ISTD Amount24	1
ISTD Amount25	1
ISTD Amount26	1
ISTD Amount27	1
ISTD Amount28	1
ISTD Amount29	1
ISTD Amount30	1
ISTD Amount31	1
ISTD Amount32	1
Sample Amount	1
Dilution Factor	1
Vial#	46
Injection Volume	1
Injection Count	1
Bar Code	

[Original Files]
Data File	C:\Users\User\Desktop\GC Analyses\Jack\Nachusa Grasslands Sampling\T1 Timepoint July 12th\T2_07122022_047.gcd
Method File	C:\LabSolutions\Data\GHG_4min_2022\ghg3_togas_w_acet_4 min_new_int.gcm
Batch File	C:\LabSolutions\Data\AutoSamplerTesting\T2_07122022.gcb
Report Format File	c:\LabSolutions\System\DEFAULT.lsr

[File Description]


[Configuration]
Instrument Name	C0B7VH3-Instrument1
Instrument #	1
Line #	1
# of Detectors	3
Detector ID	DET#1	DET#2	DET#3
Detector Name	FID	PTCD	ECD
# of Channels	1	1	1

[Peak Table(Ch1)]
# of Peaks	3
Peak#	R.Time	I.Time	F.Time	Area	Height	A/H	Conc.	Mark	ID#	Name	k'	Plate #	Plate Ht.	Tailing	Resolution	Sep.Factor	Area Ratio	Height Ratio	Conc. %	Norm Conc.
1	1.483	1.439	1.531	2437	710	3.430	17.204	   	1	CO	0.000	4827	31.077	0.000	0.000	0.000	0	0	1.833	1.833
2	1.567	1.531	1.655	20623	10395	1.984	398.755	 V 	2	CH4	0.057	11310	13.262	1.234	1.169	0.000	0	0	42.478	42.478
3	1.996	1.941	2.532	2083021	991447	2.101	522.782	   	3	CO2	0.346	17118	8.763	1.261	7.151	6.087	0	0	55.690	55.690

[Peak Table(Ch2)]
# of Peaks	0

[Peak Table(Ch3)]
# of Peaks	6
Peak#	R.Time	I.Time	F.Time	Area	Height	A/H	Conc.	Mark	ID#	Name	k'	Plate #	Plate Ht.	Tailing	Resolution	Sep.Factor	Area Ratio	Height Ratio	Conc. %	Norm Conc.
1	2.462	2.429	2.513	1631	579	2.818	0.000	   			0.000	10879	13.788	0.000	0.000	0.000	0	0	0.000	0.000
2	2.535	2.513	2.634	1234	318	3.886	0.000	 V 			0.030	6633	22.613	0.000	0.670	0.000	0	0	0.000	0.000
3	2.656	2.634	2.697	175	69	2.546	0.000	 V 			0.079	9957	15.065	0.000	1.048	2.650	0	0	0.000	0.000
4	2.876	2.807	3.170	61617	15863	3.884	1.574	S  	1	N2O	0.168	12620	11.886	1.612	2.106	2.132	0	0	100.000	100.000
5	3.159	3.093	3.170	155	64	2.430	0.000	T  	2	SF6	0.283	22017	6.813	0.582	3.010	1.681	0	0	0.000	0.000
6	3.404	3.173	3.995	15334	539	28.446	0.000	   	2	SF6	0.383	274	547.086	1.739	0.541	1.353	0	0	0.000	0.000

[Compound Results(Ch1)]
# of IDs	6
ID#	Name	R.Time	Area	Height	Conc.	Curve	3rd	2nd	1st	Constant	Area Ratio	Height Ratio	Conc. %	Norm Conc.
1	CO	1.483	2437	710	17.204	Linear	0.000000e+00	0.000000e+00	1.416423e+002	0.000000e+00	0	0	1.833	1.833
2	CH4	1.567	20623	10395	398.755	Linear	0.000000e+00	0.000000e+00	5.171738e+001	0.000000e+00	0	0	42.478	42.478
3	CO2	1.996	2083021	991447	522.782	Linear	0.000000e+00	0.000000e+00	3.984494e+003	0.000000e+00	0	0	55.690	55.690
4	Ethylene	0.000	0	0	0.000	Linear	0.000000e+00	0.000000e+00	0.000000e+00	0.000000e+00	0	0	0.000	0.000
5	Acetylene	0.000	0	0	0.000	Linear	0.000000e+00	0.000000e+00	0.000000e+00	0.000000e+00	0	0	0.000	0.000
6	Ethane	0.000	0	0	0.000	Linear	0.000000e+00	0.000000e+00	0.000000e+00	0.000000e+00	0	0	0.000	0.000

[Compound Results(Ch2)]
# of IDs	5
ID#	Name	R.Time	Area	Height	Conc.	Curve	3rd	2nd	1st	Constant	Area Ratio	Height Ratio	Conc. %	Norm Conc.
1	Hydrogen	0.000	0	0	0.000	Linear	0.000000e+00	0.000000e+00	0.000000e+00	0.000000e+00	0	0	0.000	0.000
2	Oxygen	0.000	0	0	0.000	Linear	0.000000e+00	0.000000e+00	0.000000e+00	0.000000e+00	0	0	0.000	0.000
3	Nitrogen	0.000	0	0	0.000	Linear	0.000000e+00	0.000000e+00	0.000000e+00	0.000000e+00	0	0	0.000	0.000
4	Methane	0.000	0	0	0.000	Linear	0.000000e+00	0.000000e+00	0.000000e+00	0.000000e+00	0	0	0.000	0.000
5	Carbon Monoxide	0.000	0	0	0.000	Linear	0.000000e+00	0.000000e+00	0.000000e+00	0.000000e+00	0	0	0.000	0.000

[Compound Results(Ch3)]
# of IDs	2
ID#	Name	R.Time	Area	Height	Conc.	Curve	3rd	2nd	1st	Constant	Area Ratio	Height Ratio	Conc. %	Norm Conc.
1	N2O	2.876	61617	15863	1.574	Linear	0.000000e+00	0.000000e+00	3.915173e+004	0.000000e+00	0	0	100.000	100.000
2	SF6	3.404	15489	603	0.000	Linear	0.000000e+00	0.000000e+00	0.000000e+00	0.000000e+00	0	0	0.000	0.000

[Group Results(Ch1)]
# of Groups	0

[Group Results(Ch2)]
# of Groups	0

[Group Results(Ch3)]
# of Groups	0

[Chromatogram (Ch1)]
Interval(msec)	220
# of Points	1091
Start Time(min)	0.002
End Time(min)	3.998
R.Time (min)	Intensity
0.00167	16
0.00533	17
0.00900	25
0.01267	33
0.01633	33
0.02000	26
0.02367	17
0.02733	10
0.03100	5
0.03467	5
0.03833	7
0.04200	6
0.04567	5
0.04933	3
0.05300	-0
0.05667	-2
0.06033	-2
0.06400	0
0.06767	2
0.07133	4
0.07500	7
0.07867	8
0.08233	2
0.08600	-6
0.08967	-8
0.09333	-7
0.09700	-4
0.10067	2
0.10433	14
0.10800	24
0.11167	27
0.11533	27
0.11900	27
0.12267	26
0.12633	26
0.13000	26
0.13367	25
0.13733	24
0.14100	22
0.14467	22
0.14833	24
0.15200	26
0.15567	28
0.15933	27
0.16300	19
0.16667	7
0.17033	2
0.17400	2
0.17767	-1
0.18133	-2
0.18500	1
0.18867	5
0.19233	10
0.19600	15
0.19967	21
0.20333	28
0.20700	34
0.21067	32
0.21433	21
0.21800	13
0.22167	8
0.22533	4
0.22900	3
0.23267	9
0.23633	18
0.24000	29
0.24367	39
0.24733	45
0.25100	47
0.25467	47
0.25833	50
0.26200	48
0.26567	39
0.26933	30
0.27300	28
0.27667	32
0.28033	39
0.28400	45
0.28767	50
0.29133	58
0.29500	61
0.29867	58
0.30233	57
0.30600	59
0.30967	67
0.31333	75
0.31700	83
0.32067	91
0.32433	95
0.32800	95
0.33167	96
0.33533	105
0.33900	115
0.34267	121
0.34633	120
0.35000	114
0.35367	104
0.35733	93
0.36100	84
0.36467	81
0.36833	79
0.37200	73
0.37567	65
0.37933	60
0.38300	58
0.38667	61
0.39033	68
0.39400	72
0.39767	71
0.40133	71
0.40500	72
0.40867	75
0.41233	76
0.41600	76
0.41967	72
0.42333	68
0.42700	63
0.43067	56
0.43433	52
0.43800	49
0.44167	45
0.44533	38
0.44900	34
0.45267	32
0.45633	32
0.46000	32
0.46367	30
0.46733	23
0.47100	17
0.47467	15
0.47833	15
0.48200	17
0.48567	17
0.48933	14
0.49300	11
0.49667	11
0.50033	13
0.50400	18
0.50767	21
0.51133	21
0.51500	23
0.51867	24
0.52233	24
0.52600	23
0.52967	22
0.53333	20
0.53700	22
0.54067	24
0.54433	24
0.54800	25
0.55167	25
0.55533	23
0.55900	19
0.56267	12
0.56633	5
0.57000	2
0.57367	-2
0.57733	-8
0.58100	-13
0.58467	-14
0.58833	-10
0.59200	-3
0.59567	4
0.59933	13
0.60300	22
0.60667	32
0.61033	38
0.61400	38
0.61767	33
0.62133	24
0.62500	14
0.62867	3
0.63233	-4
0.63600	-3
0.63967	-3
0.64333	-5
0.64700	-7
0.65067	-7
0.65433	-13
0.65800	-19
0.66167	-24
0.66533	-25
0.66900	-14
0.67267	-1
0.67633	7
0.68000	9
0.68367	6
0.68733	3
0.69100	5
0.69467	6
0.69833	9
0.70200	12
0.70567	11
0.70933	8
0.71300	6
0.71667	8
0.72033	15
0.72400	22
0.72767	25
0.73133	24
0.73500	17
0.73867	9
0.74233	3
0.74600	1
0.74967	1
0.75333	1
0.75700	2
0.76067	5
0.76433	11
0.76800	17
0.77167	18
0.77533	14
0.77900	9
0.78267	8
0.78633	9
0.79000	13
0.79367	14
0.79733	8
0.80100	3
0.80467	1
0.80833	-2
0.81200	-8
0.81567	-9
0.81933	-4
0.82300	2
0.82667	6
0.83033	7
0.83400	5
0.83767	-0
0.84133	-5
0.84500	-7
0.84867	-10
0.85233	-12
0.85600	-10
0.85967	-6
0.86333	-4
0.86700	-4
0.87067	-5
0.87433	-7
0.87800	-8
0.88167	-4
0.88533	-0
0.88900	1
0.89267	0
0.89633	-4
0.90000	-7
0.90367	-4
0.90733	2
0.91100	6
0.91467	9
0.91833	9
0.92200	6
0.92567	1
0.92933	-1
0.93300	-3
0.93667	-7
0.94033	-10
0.94400	-19
0.94767	-26
0.95133	-30
0.95500	-28
0.95867	-24
0.96233	-19
0.96600	-14
0.96967	-4
0.97333	9
0.97700	24
0.98067	27
0.98433	23
0.98800	17
0.99167	8
0.99533	-2
0.99900	-8
1.00267	-12
1.00633	-13
1.01000	-11
1.01367	-9
1.01733	-8
1.02100	-8
1.02467	-9
1.02833	-11
1.03200	-10
1.03567	-8
1.03933	-11
1.04300	-14
1.04667	-16
1.05033	-15
1.05400	-12
1.05767	-9
1.06133	-5
1.06500	-1
1.06867	4
1.07233	10
1.07600	18
1.07967	25
1.08333	25
1.08700	21
1.09067	17
1.09433	13
1.09800	8
1.10167	0
1.10533	-5
1.10900	-6
1.11267	-4
1.11633	-1
1.12000	2
1.12367	7
1.12733	14
1.13100	21
1.13467	23
1.13833	23
1.14200	22
1.14567	20
1.14933	16
1.15300	16
1.15667	22
1.16033	27
1.16400	26
1.16767	25
1.17133	25
1.17500	22
1.17867	15
1.18233	11
1.18600	13
1.18967	17
1.19333	21
1.19700	25
1.20067	26
1.20433	24
1.20800	20
1.21167	17
1.21533	18
1.21900	22
1.22267	29
1.22633	36
1.23000	44
1.23367	48
1.23733	50
1.24100	50
1.24467	48
1.24833	39
1.25200	28
1.25567	19
1.25933	11
1.26300	4
1.26667	-1
1.27033	-0
1.27400	5
1.27767	12
1.28133	14
1.28500	14
1.28867	14
1.29233	18
1.29600	24
1.29967	27
1.30333	25
1.30700	20
1.31067	14
1.31433	12
1.31800	15
1.32167	19
1.32533	24
1.32900	29
1.33267	30
1.33633	26
1.34000	19
1.34367	16
1.34733	15
1.35100	16
1.35467	21
1.35833	24
1.36200	24
1.36567	26
1.36933	24
1.37300	21
1.37667	17
1.38033	13
1.38400	12
1.38767	12
1.39133	14
1.39500	17
1.39867	25
1.40233	34
1.40600	34
1.40967	30
1.41333	26
1.41700	25
1.42067	25
1.42433	22
1.42800	17
1.43167	12
1.43533	9
1.43900	29
1.44267	121
1.44633	285
1.45000	457
1.45367	582
1.45733	652
1.46100	679
1.46467	684
1.46833	681
1.47200	683
1.47567	700
1.47933	725
1.48300	734
1.48667	709
1.49033	651
1.49400	574
1.49767	493
1.50133	421
1.50500	361
1.50867	311
1.51233	268
1.51600	236
1.51967	211
1.52333	186
1.52700	167
1.53067	152
1.53433	149
1.53800	227
1.54167	599
1.54533	1564
1.54900	3201
1.55267	5213
1.55633	7170
1.56000	8782
1.56367	9903
1.56733	10408
1.57100	10161
1.57467	9151
1.57833	7605
1.58200	5890
1.58567	4315
1.58933	3038
1.59300	2086
1.59667	1412
1.60033	946
1.60400	634
1.60767	430
1.61133	296
1.61500	206
1.61867	144
1.62233	104
1.62600	81
1.62967	68
1.63333	59
1.63700	49
1.64067	36
1.64433	23
1.64800	13
1.65167	6
1.65533	1
1.65900	-2
1.66267	-1
1.66633	7
1.67000	17
1.67367	25
1.67733	26
1.68100	21
1.68467	12
1.68833	5
1.69200	-1
1.69567	-3
1.69933	-5
1.70300	-6
1.70667	-2
1.71033	8
1.71400	23
1.71767	33
1.72133	35
1.72500	32
1.72867	28
1.73233	24
1.73600	19
1.73967	15
1.74333	12
1.74700	10
1.75067	9
1.75433	10
1.75800	13
1.76167	19
1.76533	18
1.76900	10
1.77267	0
1.77633	-7
1.78000	-12
1.78367	-13
1.78733	-13
1.79100	-11
1.79467	-6
1.79833	0
1.80200	6
1.80567	11
1.80933	13
1.81300	16
1.81667	21
1.82033	26
1.82400	29
1.82767	28
1.83133	22
1.83500	14
1.83867	9
1.84233	11
1.84600	17
1.84967	18
1.85333	13
1.85700	6
1.86067	3
1.86433	7
1.86800	9
1.87167	12
1.87533	21
1.87900	30
1.88267	32
1.88633	35
1.89000	38
1.89367	37
1.89733	36
1.90100	36
1.90467	34
1.90833	28
1.91200	20
1.91567	14
1.91933	9
1.92300	10
1.92667	15
1.93033	18
1.93400	20
1.93767	21
1.94133	28
1.94500	39
1.94867	46
1.95233	78
1.95600	308
1.95967	1623
1.96333	7388
1.96700	26484
1.97067	75115
1.97433	171151
1.97800	319793
1.98167	503999
1.98533	691455
1.98900	849709
1.99267	954467
1.99633	991521
2.00000	958578
2.00367	865727
2.00733	733300
2.01100	586158
2.01467	446093
2.01833	326745
2.02200	232986
2.02567	163525
2.02933	114129
2.03300	79953
2.03667	56702
2.04033	41006
2.04400	30414
2.04767	23223
2.05133	18282
2.05500	14830
2.05867	12369
2.06233	10570
2.06600	9214
2.06967	8168
2.07333	7336
2.07700	6659
2.08067	6096
2.08433	5619
2.08800	5215
2.09167	4875
2.09533	4583
2.09900	4322
2.10267	4084
2.10633	3868
2.11000	3677
2.11367	3505
2.11733	3346
2.12100	3197
2.12467	3058
2.12833	2932
2.13200	2815
2.13567	2703
2.13933	2595
2.14300	2494
2.14667	2404
2.15033	2326
2.15400	2254
2.15767	2183
2.16133	2114
2.16500	2050
2.16867	1986
2.17233	1922
2.17600	1864
2.17967	1809
2.18333	1756
2.18700	1707
2.19067	1665
2.19433	1625
2.19800	1584
2.20167	1545
2.20533	1513
2.20900	1482
2.21267	1448
2.21633	1415
2.22000	1384
2.22367	1353
2.22733	1322
2.23100	1292
2.23467	1262
2.23833	1233
2.24200	1205
2.24567	1185
2.24933	1171
2.25300	1158
2.25667	1140
2.26033	1117
2.26400	1091
2.26767	1065
2.27133	1039
2.27500	1016
2.27867	991
2.28233	965
2.28600	942
2.28967	925
2.29333	913
2.29700	903
2.30067	891
2.30433	879
2.30800	870
2.31167	861
2.31533	851
2.31900	842
2.32267	836
2.32633	829
2.33000	823
2.33367	813
2.33733	804
2.34100	793
2.34467	780
2.34833	769
2.35200	759
2.35567	761
2.35933	768
2.36300	767
2.36667	757
2.37033	744
2.37400	733
2.37767	720
2.38133	704
2.38500	692
2.38867	685
2.39233	678
2.39600	670
2.39967	663
2.40333	658
2.40700	656
2.41067	658
2.41433	660
2.41800	659
2.42167	653
2.42533	645
2.42900	636
2.43267	628
2.43633	617
2.44000	607
2.44367	598
2.44733	589
2.45100	585
2.45467	584
2.45833	580
2.46200	571
2.46567	559
2.46933	548
2.47300	540
2.47667	539
2.48033	541
2.48400	539
2.48767	534
2.49133	531
2.49500	528
2.49867	526
2.50233	526
2.50600	530
2.50967	532
2.51333	531
2.51700	527
2.52067	521
2.52433	513
2.52800	509
2.53167	510
2.53533	514
2.53900	514
2.54267	511
2.54633	509
2.55000	504
2.55367	495
2.55733	487
2.56100	483
2.56467	482
2.56833	481
2.57200	480
2.57567	479
2.57933	473
2.58300	468
2.58667	466
2.59033	462
2.59400	456
2.59767	454
2.60133	454
2.60500	456
2.60867	461
2.61233	469
2.61600	474
2.61967	474
2.62333	472
2.62700	469
2.63067	467
2.63433	463
2.63800	459
2.64167	455
2.64533	452
2.64900	446
2.65267	440
2.65633	434
2.66000	432
2.66367	435
2.66733	440
2.67100	446
2.67467	442
2.67833	431
2.68200	421
2.68567	415
2.68933	415
2.69300	415
2.69667	415
2.70033	415
2.70400	416
2.70767	418
2.71133	423
2.71500	428
2.71867	428
2.72233	431
2.72600	437
2.72967	440
2.73333	444
2.73700	450
2.74067	457
2.74433	458
2.74800	452
2.75167	443
2.75533	438
2.75900	439
2.76267	441
2.76633	443
2.77000	447
2.77367	453
2.77733	454
2.78100	447
2.78467	436
2.78833	423
2.79200	413
2.79567	408
2.79933	407
2.80300	408
2.80667	412
2.81033	421
2.81400	431
2.81767	434
2.82133	431
2.82500	428
2.82867	427
2.83233	426
2.83600	427
2.83967	428
2.84333	431
2.84700	435
2.85067	438
2.85433	438
2.85800	433
2.86167	422
2.86533	411
2.86900	406
2.87267	403
2.87633	402
2.88000	405
2.88367	408
2.88733	411
2.89100	411
2.89467	411
2.89833	416
2.90200	420
2.90567	422
2.90933	421
2.91300	418
2.91667	412
2.92033	403
2.92400	399
2.92767	398
2.93133	401
2.93500	408
2.93867	414
2.94233	415
2.94600	417
2.94967	416
2.95333	413
2.95700	413
2.96067	413
2.96433	406
2.96800	399
2.97167	392
2.97533	392
2.97900	396
2.98267	402
2.98633	409
2.99000	414
2.99367	416
2.99733	416
3.00100	416
3.00467	417
3.00833	418
3.01200	419
3.01567	421
3.01933	419
3.02300	414
3.02667	405
3.03033	396
3.03400	393
3.03767	396
3.04133	405
3.04500	415
3.04867	416
3.05233	412
3.05600	405
3.05967	398
3.06333	394
3.06700	393
3.07067	394
3.07433	393
3.07800	395
3.08167	401
3.08533	410
3.08900	414
3.09267	411
3.09633	407
3.10000	402
3.10367	397
3.10733	394
3.11100	390
3.11467	385
3.11833	381
3.12200	380
3.12567	377
3.12933	372
3.13300	368
3.13667	366
3.14033	366
3.14400	367
3.14767	370
3.15133	376
3.15500	385
3.15867	396
3.16233	403
3.16600	406
3.16967	402
3.17333	398
3.17700	389
3.18067	375
3.18433	362
3.18800	354
3.19167	353
3.19533	361
3.19900	370
3.20267	374
3.20633	376
3.21000	380
3.21367	384
3.21733	385
3.22100	386
3.22467	388
3.22833	386
3.23200	381
3.23567	378
3.23933	379
3.24300	383
3.24667	383
3.25033	375
3.25400	362
3.25767	351
3.26133	346
3.26500	345
3.26867	350
3.27233	353
3.27600	354
3.27967	355
3.28333	361
3.28700	363
3.29067	363
3.29433	362
3.29800	358
3.30167	357
3.30533	359
3.30900	359
3.31267	359
3.31633	361
3.32000	359
3.32367	352
3.32733	343
3.33100	336
3.33467	331
3.33833	332
3.34200	339
3.34567	346
3.34933	355
3.35300	364
3.35667	368
3.36033	369
3.36400	366
3.36767	361
3.37133	353
3.37500	345
3.37867	339
3.38233	340
3.38600	347
3.38967	354
3.39333	357
3.39700	356
3.40067	353
3.40433	353
3.40800	352
3.41167	349
3.41533	345
3.41900	340
3.42267	334
3.42633	329
3.43000	322
3.43367	319
3.43733	320
3.44100	323
3.44467	327
3.44833	329
3.45200	326
3.45567	319
3.45933	310
3.46300	305
3.46667	304
3.47033	306
3.47400	310
3.47767	311
3.48133	311
3.48500	312
3.48867	313
3.49233	318
3.49600	324
3.49967	329
3.50333	332
3.50700	333
3.51067	333
3.51433	328
3.51800	317
3.52167	303
3.52533	294
3.52900	297
3.53267	307
3.53633	316
3.54000	319
3.54367	316
3.54733	311
3.55100	309
3.55467	308
3.55833	306
3.56200	300
3.56567	294
3.56933	292
3.57300	291
3.57667	291
3.58033	293
3.58400	298
3.58767	300
3.59133	299
3.59500	296
3.59867	297
3.60233	302
3.60600	306
3.60967	307
3.61333	307
3.61700	304
3.62067	299
3.62433	297
3.62800	295
3.63167	296
3.63533	296
3.63900	295
3.64267	293
3.64633	291
3.65000	292
3.65367	292
3.65733	294
3.66100	298
3.66467	304
3.66833	309
3.67200	311
3.67567	309
3.67933	304
3.68300	298
3.68667	289
3.69033	280
3.69400	275
3.69767	275
3.70133	279
3.70500	284
3.70867	286
3.71233	281
3.71600	276
3.71967	273
3.72333	272
3.72700	274
3.73067	276
3.73433	275
3.73800	276
3.74167	282
3.74533	292
3.74900	298
3.75267	297
3.75633	291
3.76000	282
3.76367	274
3.76733	268
3.77100	263
3.77467	260
3.77833	260
3.78200	262
3.78567	265
3.78933	271
3.79300	277
3.79667	281
3.80033	283
3.80400	282
3.80767	277
3.81133	270
3.81500	269
3.81867	268
3.82233	264
3.82600	256
3.82967	250
3.83333	248
3.83700	250
3.84067	255
3.84433	260
3.84800	261
3.85167	259
3.85533	256
3.85900	256
3.86267	256
3.86633	254
3.87000	249
3.87367	251
3.87733	258
3.88100	264
3.88467	264
3.88833	263
3.89200	268
3.89567	276
3.89933	277
3.90300	268
3.90667	254
3.91033	244
3.91400	240
3.91767	235
3.92133	228
3.92500	226
3.92867	227
3.93233	223
3.93600	217
3.93967	216
3.94333	216
3.94700	218
3.95067	224
3.95433	230
3.95800	234
3.96167	241
3.96533	251
3.96900	259
3.97267	264
3.97633	265
3.98000	261
3.98367	249
3.98733	231
3.99100	218
3.99467	215
3.99833	217

[Chromatogram (Ch2)]
Interval(msec)	220
# of Points	1091
Start Time(min)	0.002
End Time(min)	3.998
R.Time (min)	Intensity
0.00167	0
0.00533	0
0.00900	0
0.01267	-0
0.01633	-0
0.02000	-0
0.02367	0
0.02733	0
0.03100	0
0.03467	0
0.03833	-0
0.04200	-0
0.04567	-0
0.04933	-1
0.05300	-1
0.05667	-1
0.06033	-1
0.06400	-1
0.06767	-1
0.07133	-1
0.07500	-1
0.07867	-1
0.08233	-1
0.08600	-1
0.08967	-1
0.09333	-1
0.09700	-1
0.10067	-0
0.10433	0
0.10800	0
0.11167	0
0.11533	0
0.11900	0
0.12267	-0
0.12633	-0
0.13000	-0
0.13367	-0
0.13733	-0
0.14100	-1
0.14467	-1
0.14833	-1
0.15200	-1
0.15567	-1
0.15933	-0
0.16300	-0
0.16667	-1
0.17033	-1
0.17400	-1
0.17767	-1
0.18133	-0
0.18500	0
0.18867	1
0.19233	1
0.19600	1
0.19967	0
0.20333	0
0.20700	-0
0.21067	-1
0.21433	-1
0.21800	-1
0.22167	-2
0.22533	-2
0.22900	-2
0.23267	-2
0.23633	-2
0.24000	-1
0.24367	-1
0.24733	-1
0.25100	-2
0.25467	-2
0.25833	-2
0.26200	-2
0.26567	-1
0.26933	-1
0.27300	-1
0.27667	-2
0.28033	-2
0.28400	-2
0.28767	-2
0.29133	-2
0.29500	-2
0.29867	-2
0.30233	-2
0.30600	-1
0.30967	-1
0.31333	-1
0.31700	-1
0.32067	-1
0.32433	-0
0.32800	-0
0.33167	-0
0.33533	0
0.33900	1
0.34267	1
0.34633	1
0.35000	1
0.35367	2
0.35733	2
0.36100	2
0.36467	2
0.36833	2
0.37200	1
0.37567	1
0.37933	0
0.38300	0
0.38667	-0
0.39033	-0
0.39400	-0
0.39767	-1
0.40133	-1
0.40500	-1
0.40867	-1
0.41233	-1
0.41600	-1
0.41967	-1
0.42333	-1
0.42700	-1
0.43067	-1
0.43433	-0
0.43800	-0
0.44167	-0
0.44533	0
0.44900	0
0.45267	1
0.45633	1
0.46000	2
0.46367	2
0.46733	2
0.47100	3
0.47467	3
0.47833	2
0.48200	2
0.48567	2
0.48933	2
0.49300	2
0.49667	2
0.50033	1
0.50400	1
0.50767	1
0.51133	1
0.51500	1
0.51867	1
0.52233	1
0.52600	1
0.52967	1
0.53333	1
0.53700	1
0.54067	1
0.54433	1
0.54800	1
0.55167	1
0.55533	1
0.55900	1
0.56267	1
0.56633	1
0.57000	1
0.57367	1
0.57733	0
0.58100	-0
0.58467	-1
0.58833	-1
0.59200	-1
0.59567	-1
0.59933	-2
0.60300	-2
0.60667	-2
0.61033	-2
0.61400	-2
0.61767	-2
0.62133	-2
0.62500	-2
0.62867	-1
0.63233	-1
0.63600	-0
0.63967	0
0.64333	1
0.64700	1
0.65067	2
0.65433	2
0.65800	2
0.66167	2
0.66533	2
0.66900	2
0.67267	2
0.67633	3
0.68000	3
0.68367	3
0.68733	2
0.69100	2
0.69467	2
0.69833	1
0.70200	1
0.70567	1
0.70933	0
0.71300	-0
0.71667	-0
0.72033	-1
0.72400	-1
0.72767	-1
0.73133	-1
0.73500	-1
0.73867	-1
0.74233	-1
0.74600	-1
0.74967	-1
0.75333	-1
0.75700	-1
0.76067	-1
0.76433	-1
0.76800	-1
0.77167	-1
0.77533	-0
0.77900	-0
0.78267	-0
0.78633	-0
0.79000	0
0.79367	1
0.79733	1
0.80100	1
0.80467	2
0.80833	2
0.81200	2
0.81567	2
0.81933	2
0.82300	2
0.82667	1
0.83033	1
0.83400	0
0.83767	0
0.84133	-0
0.84500	-0
0.84867	-0
0.85233	-0
0.85600	-0
0.85967	-0
0.86333	-0
0.86700	-1
0.87067	-1
0.87433	-1
0.87800	-1
0.88167	-1
0.88533	-1
0.88900	-1
0.89267	-2
0.89633	-1
0.90000	-1
0.90367	-1
0.90733	-1
0.91100	-0
0.91467	-0
0.91833	0
0.92200	0
0.92567	0
0.92933	1
0.93300	1
0.93667	1
0.94033	1
0.94400	1
0.94767	1
0.95133	1
0.95500	1
0.95867	1
0.96233	1
0.96600	1
0.96967	1
0.97333	0
0.97700	0
0.98067	-0
0.98433	-0
0.98800	-0
0.99167	-0
0.99533	-0
0.99900	-0
1.00267	-0
1.00633	0
1.01000	0
1.01367	0
1.01733	0
1.02100	0
1.02467	0
1.02833	0
1.03200	0
1.03567	1
1.03933	0
1.04300	0
1.04667	0
1.05033	0
1.05400	0
1.05767	0
1.06133	0
1.06500	0
1.06867	1
1.07233	1
1.07600	1
1.07967	1
1.08333	1
1.08700	1
1.09067	1
1.09433	1
1.09800	1
1.10167	1
1.10533	1
1.10900	0
1.11267	-0
1.11633	-0
1.12000	-0
1.12367	-0
1.12733	-0
1.13100	-0
1.13467	-1
1.13833	-1
1.14200	-1
1.14567	-1
1.14933	-1
1.15300	-1
1.15667	-2
1.16033	-2
1.16400	-2
1.16767	-2
1.17133	-2
1.17500	-2
1.17867	-2
1.18233	-2
1.18600	-2
1.18967	-1
1.19333	-1
1.19700	-1
1.20067	-1
1.20433	-1
1.20800	-1
1.21167	-1
1.21533	-0
1.21900	-0
1.22267	-0
1.22633	-0
1.23000	-0
1.23367	-0
1.23733	-0
1.24100	-0
1.24467	-1
1.24833	-1
1.25200	-1
1.25567	-2
1.25933	-2
1.26300	-3
1.26667	-3
1.27033	-3
1.27400	-3
1.27767	-4
1.28133	-3
1.28500	-3
1.28867	-3
1.29233	-2
1.29600	-2
1.29967	-1
1.30333	-1
1.30700	-1
1.31067	-1
1.31433	-1
1.31800	-1
1.32167	-0
1.32533	-0
1.32900	-0
1.33267	-0
1.33633	0
1.34000	0
1.34367	0
1.34733	0
1.35100	0
1.35467	-0
1.35833	-1
1.36200	-1
1.36567	-1
1.36933	-1
1.37300	-1
1.37667	-2
1.38033	-2
1.38400	-2
1.38767	-2
1.39133	-2
1.39500	-2
1.39867	-2
1.40233	-1
1.40600	-1
1.40967	-2
1.41333	-2
1.41700	-2
1.42067	-3
1.42433	-3
1.42800	-3
1.43167	-4
1.43533	-4
1.43900	-4
1.44267	-4
1.44633	-4
1.45000	-4
1.45367	-4
1.45733	-4
1.46100	-4
1.46467	-4
1.46833	-4
1.47200	-4
1.47567	-4
1.47933	-4
1.48300	-4
1.48667	-3
1.49033	-3
1.49400	-3
1.49767	-2
1.50133	-2
1.50500	-2
1.50867	-2
1.51233	-2
1.51600	-2
1.51967	-2
1.52333	-2
1.52700	-1
1.53067	-1
1.53433	-1
1.53800	-1
1.54167	-0
1.54533	-0
1.54900	-1
1.55267	-1
1.55633	-1
1.56000	-2
1.56367	-2
1.56733	-2
1.57100	-2
1.57467	-3
1.57833	-3
1.58200	-3
1.58567	-3
1.58933	-3
1.59300	-4
1.59667	-4
1.60033	-5
1.60400	-6
1.60767	-8
1.61133	-10
1.61500	-12
1.61867	-15
1.62233	-18
1.62600	-21
1.62967	-24
1.63333	-28
1.63700	-32
1.64067	-35
1.64433	-39
1.64800	-43
1.65167	-46
1.65533	-50
1.65900	-53
1.66267	-57
1.66633	-60
1.67000	-63
1.67367	-67
1.67733	-71
1.68100	-74
1.68467	-78
1.68833	-82
1.69200	-86
1.69567	-90
1.69933	-93
1.70300	-96
1.70667	-99
1.71033	-101
1.71400	-103
1.71767	-105
1.72133	-106
1.72500	-107
1.72867	-107
1.73233	-108
1.73600	-108
1.73967	-108
1.74333	-108
1.74700	-108
1.75067	-108
1.75433	-108
1.75800	-108
1.76167	-107
1.76533	-107
1.76900	-107
1.77267	-107
1.77633	-107
1.78000	-108
1.78367	-109
1.78733	-111
1.79100	-111
1.79467	-112
1.79833	-113
1.80200	-113
1.80567	-113
1.80933	-114
1.81300	-114
1.81667	-114
1.82033	-114
1.82400	-114
1.82767	-114
1.83133	-114
1.83500	-115
1.83867	-115
1.84233	-114
1.84600	-114
1.84967	-114
1.85333	-114
1.85700	-114
1.86067	-114
1.86433	-114
1.86800	-114
1.87167	-114
1.87533	-114
1.87900	-113
1.88267	-113
1.88633	-113
1.89000	-113
1.89367	-113
1.89733	-112
1.90100	-112
1.90467	-112
1.90833	-112
1.91200	-112
1.91567	-112
1.91933	-112
1.92300	-112
1.92667	-112
1.93033	-112
1.93400	-112
1.93767	-112
1.94133	-112
1.94500	-112
1.94867	-112
1.95233	-112
1.95600	-111
1.95967	-111
1.96333	-110
1.96700	-110
1.97067	-109
1.97433	-109
1.97800	-108
1.98167	-108
1.98533	-108
1.98900	-108
1.99267	-107
1.99633	-107
2.00000	-106
2.00367	-105
2.00733	-105
2.01100	-104
2.01467	-103
2.01833	-103
2.02200	-103
2.02567	-103
2.02933	-103
2.03300	-103
2.03667	-104
2.04033	-104
2.04400	-104
2.04767	-104
2.05133	-103
2.05500	-103
2.05867	-102
2.06233	-102
2.06600	-101
2.06967	-101
2.07333	-100
2.07700	-100
2.08067	-100
2.08433	-99
2.08800	-98
2.09167	-98
2.09533	-97
2.09900	-97
2.10267	-97
2.10633	-97
2.11000	-97
2.11367	-97
2.11733	-97
2.12100	-97
2.12467	-97
2.12833	-97
2.13200	-97
2.13567	-96
2.13933	-96
2.14300	-95
2.14667	-94
2.15033	-93
2.15400	-93
2.15767	-93
2.16133	-93
2.16500	-92
2.16867	-92
2.17233	-92
2.17600	-92
2.17967	-91
2.18333	-91
2.18700	-91
2.19067	-91
2.19433	-91
2.19800	-91
2.20167	-90
2.20533	-90
2.20900	-90
2.21267	-90
2.21633	-90
2.22000	-90
2.22367	-90
2.22733	-90
2.23100	-89
2.23467	-89
2.23833	-88
2.24200	-87
2.24567	-86
2.24933	-85
2.25300	-85
2.25667	-84
2.26033	-84
2.26400	-84
2.26767	-84
2.27133	-84
2.27500	-84
2.27867	-84
2.28233	-85
2.28600	-84
2.28967	-84
2.29333	-83
2.29700	-83
2.30067	-82
2.30433	-81
2.30800	-81
2.31167	-81
2.31533	-80
2.31900	-80
2.32267	-79
2.32633	-79
2.33000	-79
2.33367	-79
2.33733	-79
2.34100	-79
2.34467	-78
2.34833	-78
2.35200	-77
2.35567	-76
2.35933	-75
2.36300	-74
2.36667	-72
2.37033	-71
2.37400	-68
2.37767	-66
2.38133	-62
2.38500	-59
2.38867	-54
2.39233	-50
2.39600	-45
2.39967	-41
2.40333	-36
2.40700	-32
2.41067	-28
2.41433	-24
2.41800	-21
2.42167	-19
2.42533	-17
2.42900	-15
2.43267	-14
2.43633	-12
2.44000	-11
2.44367	-10
2.44733	-9
2.45100	-8
2.45467	-7
2.45833	-7
2.46200	-6
2.46567	-5
2.46933	-3
2.47300	-2
2.47667	-0
2.48033	1
2.48400	2
2.48767	4
2.49133	5
2.49500	6
2.49867	7
2.50233	8
2.50600	9
2.50967	9
2.51333	9
2.51700	9
2.52067	10
2.52433	10
2.52800	11
2.53167	11
2.53533	12
2.53900	12
2.54267	12
2.54633	13
2.55000	13
2.55367	14
2.55733	15
2.56100	15
2.56467	16
2.56833	16
2.57200	16
2.57567	16
2.57933	16
2.58300	16
2.58667	16
2.59033	17
2.59400	17
2.59767	17
2.60133	18
2.60500	18
2.60867	18
2.61233	19
2.61600	19
2.61967	19
2.62333	19
2.62700	20
2.63067	20
2.63433	21
2.63800	21
2.64167	21
2.64533	21
2.64900	21
2.65267	21
2.65633	22
2.66000	22
2.66367	22
2.66733	22
2.67100	22
2.67467	22
2.67833	22
2.68200	22
2.68567	22
2.68933	22
2.69300	22
2.69667	22
2.70033	22
2.70400	23
2.70767	23
2.71133	24
2.71500	24
2.71867	25
2.72233	25
2.72600	25
2.72967	25
2.73333	25
2.73700	25
2.74067	24
2.74433	24
2.74800	24
2.75167	24
2.75533	24
2.75900	24
2.76267	24
2.76633	24
2.77000	25
2.77367	25
2.77733	26
2.78100	26
2.78467	26
2.78833	26
2.79200	26
2.79567	26
2.79933	26
2.80300	26
2.80667	27
2.81033	27
2.81400	27
2.81767	27
2.82133	28
2.82500	28
2.82867	28
2.83233	28
2.83600	27
2.83967	26
2.84333	23
2.84700	19
2.85067	12
2.85433	1
2.85800	-13
2.86167	-32
2.86533	-56
2.86900	-85
2.87267	-120
2.87633	-161
2.88000	-207
2.88367	-258
2.88733	-315
2.89100	-377
2.89467	-443
2.89833	-512
2.90200	-586
2.90567	-663
2.90933	-743
2.91300	-825
2.91667	-911
2.92033	-999
2.92400	-1088
2.92767	-1179
2.93133	-1273
2.93500	-1367
2.93867	-1455
2.94233	-1523
2.94600	-1560
2.94967	-1560
2.95333	-1524
2.95700	-1457
2.96067	-1367
2.96433	-1263
2.96800	-1151
2.97167	-1037
2.97533	-925
2.97900	-819
2.98267	-720
2.98633	-630
2.99000	-548
2.99367	-474
2.99733	-409
3.00100	-352
3.00467	-301
3.00833	-258
3.01200	-220
3.01567	-187
3.01933	-159
3.02300	-135
3.02667	-114
3.03033	-96
3.03400	-81
3.03767	-68
3.04133	-57
3.04500	-47
3.04867	-39
3.05233	-32
3.05600	-26
3.05967	-21
3.06333	-17
3.06700	-13
3.07067	-10
3.07433	-8
3.07800	-5
3.08167	-3
3.08533	-2
3.08900	-0
3.09267	1
3.09633	3
3.10000	4
3.10367	5
3.10733	6
3.11100	7
3.11467	7
3.11833	8
3.12200	9
3.12567	9
3.12933	10
3.13300	10
3.13667	11
3.14033	12
3.14400	12
3.14767	13
3.15133	14
3.15500	15
3.15867	16
3.16233	16
3.16600	17
3.16967	17
3.17333	18
3.17700	18
3.18067	19
3.18433	20
3.18800	20
3.19167	21
3.19533	21
3.19900	21
3.20267	22
3.20633	22
3.21000	21
3.21367	21
3.21733	21
3.22100	21
3.22467	21
3.22833	21
3.23200	21
3.23567	21
3.23933	21
3.24300	21
3.24667	21
3.25033	21
3.25400	21
3.25767	21
3.26133	21
3.26500	21
3.26867	22
3.27233	22
3.27600	22
3.27967	22
3.28333	22
3.28700	22
3.29067	22
3.29433	22
3.29800	23
3.30167	23
3.30533	23
3.30900	24
3.31267	24
3.31633	24
3.32000	25
3.32367	25
3.32733	25
3.33100	26
3.33467	26
3.33833	26
3.34200	26
3.34567	27
3.34933	27
3.35300	28
3.35667	28
3.36033	29
3.36400	29
3.36767	29
3.37133	29
3.37500	29
3.37867	29
3.38233	29
3.38600	29
3.38967	29
3.39333	29
3.39700	28
3.40067	28
3.40433	28
3.40800	28
3.41167	28
3.41533	28
3.41900	28
3.42267	28
3.42633	28
3.43000	28
3.43367	28
3.43733	28
3.44100	28
3.44467	28
3.44833	28
3.45200	28
3.45567	28
3.45933	28
3.46300	29
3.46667	29
3.47033	29
3.47400	29
3.47767	29
3.48133	29
3.48500	29
3.48867	30
3.49233	30
3.49600	30
3.49967	29
3.50333	29
3.50700	29
3.51067	29
3.51433	29
3.51800	29
3.52167	29
3.52533	29
3.52900	29
3.53267	29
3.53633	29
3.54000	29
3.54367	29
3.54733	29
3.55100	29
3.55467	29
3.55833	29
3.56200	29
3.56567	29
3.56933	29
3.57300	28
3.57667	28
3.58033	28
3.58400	27
3.58767	27
3.59133	27
3.59500	26
3.59867	26
3.60233	26
3.60600	26
3.60967	26
3.61333	26
3.61700	26
3.62067	27
3.62433	27
3.62800	27
3.63167	27
3.63533	27
3.63900	27
3.64267	27
3.64633	27
3.65000	27
3.65367	28
3.65733	27
3.66100	27
3.66467	27
3.66833	27
3.67200	27
3.67567	27
3.67933	27
3.68300	27
3.68667	27
3.69033	27
3.69400	27
3.69767	27
3.70133	27
3.70500	27
3.70867	27
3.71233	27
3.71600	27
3.71967	27
3.72333	27
3.72700	27
3.73067	27
3.73433	26
3.73800	26
3.74167	26
3.74533	26
3.74900	26
3.75267	26
3.75633	26
3.76000	27
3.76367	27
3.76733	27
3.77100	27
3.77467	27
3.77833	27
3.78200	27
3.78567	27
3.78933	27
3.79300	27
3.79667	26
3.80033	26
3.80400	26
3.80767	26
3.81133	26
3.81500	26
3.81867	25
3.82233	25
3.82600	25
3.82967	25
3.83333	25
3.83700	25
3.84067	25
3.84433	25
3.84800	25
3.85167	25
3.85533	25
3.85900	25
3.86267	25
3.86633	25
3.87000	25
3.87367	25
3.87733	25
3.88100	25
3.88467	25
3.88833	25
3.89200	25
3.89567	25
3.89933	25
3.90300	25
3.90667	25
3.91033	26
3.91400	26
3.91767	26
3.92133	26
3.92500	26
3.92867	27
3.93233	27
3.93600	27
3.93967	27
3.94333	27
3.94700	27
3.95067	27
3.95433	28
3.95800	28
3.96167	28
3.96533	28
3.96900	28
3.97267	28
3.97633	28
3.98000	28
3.98367	28
3.98733	28
3.99100	28
3.99467	28
3.99833	28

[Chromatogram (Ch3)]
Interval(msec)	220
# of Points	1091
Start Time(min)	0.002
End Time(min)	3.998
R.Time (min)	Intensity
0.00167	0
0.00533	1
0.00900	1
0.01267	1
0.01633	1
0.02000	-1
0.02367	-4
0.02733	-5
0.03100	-4
0.03467	-2
0.03833	-0
0.04200	-1
0.04567	-3
0.04933	-4
0.05300	-4
0.05667	-4
0.06033	-5
0.06400	-4
0.06767	-4
0.07133	-5
0.07500	-6
0.07867	-5
0.08233	-5
0.08600	-5
0.08967	-3
0.09333	-4
0.09700	-3
0.10067	-2
0.10433	-1
0.10800	1
0.11167	4
0.11533	5
0.11900	4
0.12267	2
0.12633	0
0.13000	-3
0.13367	-3
0.13733	-3
0.14100	-3
0.14467	-3
0.14833	-2
0.15200	-0
0.15567	2
0.15933	3
0.16300	4
0.16667	5
0.17033	4
0.17400	2
0.17767	-0
0.18133	-1
0.18500	-2
0.18867	-3
0.19233	-5
0.19600	-7
0.19967	-5
0.20333	-2
0.20700	-2
0.21067	-2
0.21433	-3
0.21800	-4
0.22167	-2
0.22533	0
0.22900	0
0.23267	-1
0.23633	-3
0.24000	-5
0.24367	-3
0.24733	-0
0.25100	0
0.25467	1
0.25833	3
0.26200	4
0.26567	5
0.26933	6
0.27300	6
0.27667	5
0.28033	2
0.28400	0
0.28767	1
0.29133	3
0.29500	5
0.29867	6
0.30233	4
0.30600	5
0.30967	5
0.31333	5
0.31700	6
0.32067	3
0.32433	0
0.32800	-2
0.33167	-2
0.33533	0
0.33900	1
0.34267	2
0.34633	1
0.35000	0
0.35367	2
0.35733	2
0.36100	1
0.36467	0
0.36833	1
0.37200	3
0.37567	2
0.37933	1
0.38300	1
0.38667	1
0.39033	3
0.39400	3
0.39767	2
0.40133	1
0.40500	1
0.40867	1
0.41233	2
0.41600	3
0.41967	5
0.42333	5
0.42700	3
0.43067	2
0.43433	-0
0.43800	-4
0.44167	-5
0.44533	-5
0.44900	-5
0.45267	-5
0.45633	-5
0.46000	-3
0.46367	-1
0.46733	-1
0.47100	1
0.47467	2
0.47833	2
0.48200	2
0.48567	4
0.48933	6
0.49300	7
0.49667	5
0.50033	5
0.50400	5
0.50767	5
0.51133	2
0.51500	-1
0.51867	-3
0.52233	-2
0.52600	-2
0.52967	-3
0.53333	-5
0.53700	-5
0.54067	-2
0.54433	-1
0.54800	-2
0.55167	1
0.55533	1
0.55900	-0
0.56267	-2
0.56633	-2
0.57000	0
0.57367	4
0.57733	4
0.58100	4
0.58467	5
0.58833	6
0.59200	6
0.59567	3
0.59933	1
0.60300	1
0.60667	0
0.61033	2
0.61400	3
0.61767	5
0.62133	7
0.62500	8
0.62867	8
0.63233	8
0.63600	8
0.63967	8
0.64333	7
0.64700	5
0.65067	4
0.65433	1
0.65800	-2
0.66167	-1
0.66533	1
0.66900	4
0.67267	5
0.67633	3
0.68000	1
0.68367	1
0.68733	3
0.69100	6
0.69467	6
0.69833	6
0.70200	8
0.70567	9
0.70933	8
0.71300	6
0.71667	5
0.72033	4
0.72400	5
0.72767	5
0.73133	6
0.73500	5
0.73867	5
0.74233	5
0.74600	6
0.74967	6
0.75333	7
0.75700	7
0.76067	6
0.76433	6
0.76800	6
0.77167	7
0.77533	7
0.77900	7
0.78267	8
0.78633	6
0.79000	5
0.79367	4
0.79733	5
0.80100	7
0.80467	8
0.80833	6
0.81200	4
0.81567	2
0.81933	1
0.82300	1
0.82667	0
0.83033	2
0.83400	5
0.83767	8
0.84133	8
0.84500	8
0.84867	7
0.85233	8
0.85600	9
0.85967	9
0.86333	5
0.86700	3
0.87067	3
0.87433	4
0.87800	3
0.88167	4
0.88533	5
0.88900	6
0.89267	8
0.89633	8
0.90000	7
0.90367	7
0.90733	7
0.91100	8
0.91467	8
0.91833	7
0.92200	8
0.92567	9
0.92933	9
0.93300	11
0.93667	11
0.94033	9
0.94400	7
0.94767	5
0.95133	5
0.95500	5
0.95867	5
0.96233	7
0.96600	8
0.96967	9
0.97333	10
0.97700	10
0.98067	10
0.98433	10
0.98800	11
0.99167	11
0.99533	9
0.99900	6
1.00267	4
1.00633	3
1.01000	1
1.01367	2
1.01733	4
1.02100	5
1.02467	5
1.02833	5
1.03200	5
1.03567	5
1.03933	5
1.04300	3
1.04667	4
1.05033	4
1.05400	7
1.05767	8
1.06133	7
1.06500	6
1.06867	7
1.07233	8
1.07600	8
1.07967	6
1.08333	6
1.08700	5
1.09067	5
1.09433	7
1.09800	9
1.10167	10
1.10533	8
1.10900	6
1.11267	6
1.11633	5
1.12000	6
1.12367	6
1.12733	6
1.13100	6
1.13467	6
1.13833	5
1.14200	6
1.14567	6
1.14933	6
1.15300	6
1.15667	8
1.16033	9
1.16400	10
1.16767	11
1.17133	11
1.17500	11
1.17867	10
1.18233	10
1.18600	9
1.18967	8
1.19333	9
1.19700	8
1.20067	7
1.20433	9
1.20800	9
1.21167	11
1.21533	11
1.21900	12
1.22267	12
1.22633	12
1.23000	12
1.23367	12
1.23733	11
1.24100	10
1.24467	9
1.24833	10
1.25200	10
1.25567	10
1.25933	6
1.26300	4
1.26667	6
1.27033	6
1.27400	7
1.27767	8
1.28133	7
1.28500	5
1.28867	4
1.29233	6
1.29600	6
1.29967	6
1.30333	6
1.30700	6
1.31067	5
1.31433	3
1.31800	4
1.32167	4
1.32533	4
1.32900	3
1.33267	3
1.33633	3
1.34000	2
1.34367	3
1.34733	5
1.35100	6
1.35467	7
1.35833	7
1.36200	6
1.36567	8
1.36933	10
1.37300	8
1.37667	9
1.38033	8
1.38400	7
1.38767	6
1.39133	6
1.39500	6
1.39867	9
1.40233	10
1.40600	9
1.40967	9
1.41333	9
1.41700	11
1.42067	10
1.42433	9
1.42800	10
1.43167	10
1.43533	12
1.43900	12
1.44267	12
1.44633	13
1.45000	12
1.45367	12
1.45733	12
1.46100	12
1.46467	13
1.46833	13
1.47200	12
1.47567	11
1.47933	10
1.48300	9
1.48667	11
1.49033	13
1.49400	13
1.49767	11
1.50133	9
1.50500	8
1.50867	9
1.51233	11
1.51600	11
1.51967	11
1.52333	10
1.52700	11
1.53067	11
1.53433	11
1.53800	9
1.54167	8
1.54533	6
1.54900	5
1.55267	6
1.55633	6
1.56000	7
1.56367	8
1.56733	9
1.57100	10
1.57467	13
1.57833	14
1.58200	13
1.58567	11
1.58933	12
1.59300	13
1.59667	13
1.60033	11
1.60400	10
1.60767	10
1.61133	10
1.61500	10
1.61867	12
1.62233	14
1.62600	15
1.62967	15
1.63333	16
1.63700	19
1.64067	20
1.64433	21
1.64800	22
1.65167	22
1.65533	22
1.65900	21
1.66267	20
1.66633	19
1.67000	20
1.67367	21
1.67733	23
1.68100	22
1.68467	23
1.68833	23
1.69200	24
1.69567	24
1.69933	26
1.70300	26
1.70667	25
1.71033	24
1.71400	21
1.71767	20
1.72133	21
1.72500	24
1.72867	24
1.73233	23
1.73600	23
1.73967	22
1.74333	25
1.74700	28
1.75067	30
1.75433	28
1.75800	27
1.76167	27
1.76533	26
1.76900	26
1.77267	27
1.77633	29
1.78000	32
1.78367	34
1.78733	36
1.79100	39
1.79467	40
1.79833	37
1.80200	36
1.80567	34
1.80933	35
1.81300	34
1.81667	34
1.82033	34
1.82400	36
1.82767	38
1.83133	39
1.83500	39
1.83867	38
1.84233	40
1.84600	40
1.84967	39
1.85333	40
1.85700	40
1.86067	42
1.86433	43
1.86800	42
1.87167	42
1.87533	43
1.87900	44
1.88267	45
1.88633	46
1.89000	47
1.89367	47
1.89733	48
1.90100	48
1.90467	48
1.90833	49
1.91200	51
1.91567	51
1.91933	51
1.92300	52
1.92667	53
1.93033	54
1.93400	55
1.93767	55
1.94133	56
1.94500	57
1.94867	57
1.95233	58
1.95600	58
1.95967	60
1.96333	61
1.96700	63
1.97067	64
1.97433	64
1.97800	65
1.98167	65
1.98533	64
1.98900	65
1.99267	65
1.99633	65
2.00000	66
2.00367	66
2.00733	67
2.01100	69
2.01467	71
2.01833	74
2.02200	76
2.02567	78
2.02933	78
2.03300	78
2.03667	79
2.04033	78
2.04400	78
2.04767	77
2.05133	79
2.05500	82
2.05867	84
2.06233	87
2.06600	88
2.06967	89
2.07333	90
2.07700	91
2.08067	90
2.08433	89
2.08800	87
2.09167	87
2.09533	88
2.09900	91
2.10267	94
2.10633	97
2.11000	98
2.11367	97
2.11733	96
2.12100	97
2.12467	99
2.12833	100
2.13200	103
2.13567	104
2.13933	106
2.14300	109
2.14667	111
2.15033	112
2.15400	112
2.15767	111
2.16133	112
2.16500	115
2.16867	117
2.17233	120
2.17600	123
2.17967	125
2.18333	127
2.18700	128
2.19067	129
2.19433	128
2.19800	130
2.20167	131
2.20533	133
2.20900	137
2.21267	140
2.21633	142
2.22000	145
2.22367	148
2.22733	147
2.23100	148
2.23467	149
2.23833	151
2.24200	153
2.24567	154
2.24933	154
2.25300	155
2.25667	157
2.26033	159
2.26400	160
2.26767	161
2.27133	164
2.27500	164
2.27867	166
2.28233	170
2.28600	174
2.28967	176
2.29333	178
2.29700	180
2.30067	182
2.30433	181
2.30800	179
2.31167	181
2.31533	185
2.31900	188
2.32267	189
2.32633	190
2.33000	191
2.33367	192
2.33733	193
2.34100	196
2.34467	199
2.34833	201
2.35200	202
2.35567	202
2.35933	205
2.36300	209
2.36667	212
2.37033	213
2.37400	213
2.37767	215
2.38133	216
2.38500	216
2.38867	215
2.39233	216
2.39600	224
2.39967	232
2.40333	237
2.40700	241
2.41067	245
2.41433	247
2.41800	249
2.42167	251
2.42533	254
2.42900	258
2.43267	260
2.43633	260
2.44000	265
2.44367	324
2.44733	469
2.45100	622
2.45467	750
2.45833	823
2.46200	832
2.46567	802
2.46933	765
2.47300	734
2.47667	718
2.48033	706
2.48400	684
2.48767	650
2.49133	606
2.49500	564
2.49867	528
2.50233	504
2.50600	487
2.50967	479
2.51333	479
2.51700	489
2.52067	505
2.52433	523
2.52800	543
2.53167	556
2.53533	559
2.53900	550
2.54267	532
2.54633	508
2.55000	479
2.55367	449
2.55733	423
2.56100	403
2.56467	389
2.56833	378
2.57200	371
2.57567	367
2.57933	363
2.58300	361
2.58667	361
2.59033	360
2.59400	357
2.59767	354
2.60133	351
2.60500	344
2.60867	336
2.61233	324
2.61600	310
2.61967	298
2.62333	290
2.62700	284
2.63067	279
2.63433	278
2.63800	280
2.64167	285
2.64533	289
2.64900	291
2.65267	291
2.65633	291
2.66000	288
2.66367	281
2.66733	275
2.67100	270
2.67467	263
2.67833	256
2.68200	249
2.68567	239
2.68933	230
2.69300	222
2.69667	216
2.70033	213
2.70400	211
2.70767	209
2.71133	207
2.71500	205
2.71867	204
2.72233	204
2.72600	203
2.72967	204
2.73333	205
2.73700	206
2.74067	209
2.74433	213
2.74800	215
2.75167	215
2.75533	216
2.75900	217
2.76267	219
2.76633	222
2.77000	226
2.77367	229
2.77733	229
2.78100	229
2.78467	229
2.78833	228
2.79200	228
2.79567	229
2.79933	232
2.80300	233
2.80667	231
2.81033	234
2.81400	242
2.81767	259
2.82133	300
2.82500	393
2.82867	587
2.83233	945
2.83600	1538
2.83967	2424
2.84333	3628
2.84700	5139
2.85067	6900
2.85433	8809
2.85800	10730
2.86167	12515
2.86533	14026
2.86900	15156
2.87267	15842
2.87633	16073
2.88000	15886
2.88367	15352
2.88733	14556
2.89100	13583
2.89467	12509
2.89833	11399
2.90200	10301
2.90567	9247
2.90933	8257
2.91300	7341
2.91667	6506
2.92033	5752
2.92400	5077
2.92767	4477
2.93133	3942
2.93500	3468
2.93867	3051
2.94233	2687
2.94600	2366
2.94967	2086
2.95333	1842
2.95700	1627
2.96067	1440
2.96433	1279
2.96800	1139
2.97167	1018
2.97533	912
2.97900	818
2.98267	737
2.98633	666
2.99000	608
2.99367	555
2.99733	510
3.00100	471
3.00467	437
3.00833	407
3.01200	383
3.01567	361
3.01933	338
3.02300	318
3.02667	303
3.03033	291
3.03400	282
3.03767	273
3.04133	263
3.04500	254
3.04867	247
3.05233	238
3.05600	232
3.05967	228
3.06333	225
3.06700	223
3.07067	221
3.07433	220
3.07800	218
3.08167	213
3.08533	209
3.08900	208
3.09267	210
3.09633	210
3.10000	207
3.10367	206
3.10733	205
3.11100	206
3.11467	208
3.11833	210
3.12200	209
3.12567	207
3.12933	205
3.13300	205
3.13667	204
3.14033	204
3.14400	204
3.14767	201
3.15133	198
3.15500	197
3.15867	197
3.16233	181
3.16600	145
3.16967	120
3.17333	122
3.17700	142
3.18067	175
3.18433	215
3.18800	256
3.19167	297
3.19533	338
3.19900	377
3.20267	413
3.20633	446
3.21000	475
3.21367	500
3.21733	523
3.22100	543
3.22467	559
3.22833	572
3.23200	580
3.23567	591
3.23933	601
3.24300	611
3.24667	620
3.25033	627
3.25400	632
3.25767	636
3.26133	640
3.26500	647
3.26867	653
3.27233	657
3.27600	660
3.27967	664
3.28333	668
3.28700	672
3.29067	675
3.29433	676
3.29800	682
3.30167	691
3.30533	699
3.30900	704
3.31267	710
3.31633	716
3.32000	722
3.32367	727
3.32733	728
3.33100	732
3.33467	738
3.33833	743
3.34200	746
3.34567	750
3.34933	753
3.35300	759
3.35667	764
3.36033	769
3.36400	772
3.36767	774
3.37133	777
3.37500	781
3.37867	783
3.38233	786
3.38600	788
3.38967	790
3.39333	792
3.39700	795
3.40067	797
3.40433	802
3.40800	804
3.41167	804
3.41533	802
3.41900	800
3.42267	800
3.42633	798
3.43000	795
3.43367	792
3.43733	788
3.44100	785
3.44467	782
3.44833	779
3.45200	776
3.45567	775
3.45933	771
3.46300	768
3.46667	764
3.47033	762
3.47400	760
3.47767	759
3.48133	757
3.48500	755
3.48867	753
3.49233	750
3.49600	748
3.49967	746
3.50333	743
3.50700	742
3.51067	742
3.51433	739
3.51800	737
3.52167	733
3.52533	732
3.52900	731
3.53267	729
3.53633	730
3.54000	730
3.54367	729
3.54733	726
3.55100	722
3.55467	720
3.55833	719
3.56200	720
3.56567	720
3.56933	718
3.57300	715
3.57667	715
3.58033	715
3.58400	714
3.58767	715
3.59133	716
3.59500	716
3.59867	715
3.60233	716
3.60600	716
3.60967	717
3.61333	717
3.61700	716
3.62067	716
3.62433	715
3.62800	712
3.63167	710
3.63533	710
3.63900	713
3.64267	711
3.64633	711
3.65000	713
3.65367	711
3.65733	708
3.66100	706
3.66467	707
3.66833	708
3.67200	709
3.67567	710
3.67933	709
3.68300	708
3.68667	707
3.69033	706
3.69400	704
3.69767	705
3.70133	706
3.70500	705
3.70867	704
3.71233	704
3.71600	705
3.71967	707
3.72333	706
3.72700	705
3.73067	703
3.73433	701
3.73800	701
3.74167	702
3.74533	704
3.74900	704
3.75267	705
3.75633	704
3.76000	703
3.76367	701
3.76733	699
3.77100	699
3.77467	699
3.77833	699
3.78200	698
3.78567	697
3.78933	697
3.79300	697
3.79667	696
3.80033	694
3.80400	692
3.80767	689
3.81133	687
3.81500	685
3.81867	685
3.82233	686
3.82600	687
3.82967	688
3.83333	688
3.83700	686
3.84067	682
3.84433	681
3.84800	680
3.85167	680
3.85533	680
3.85900	679
3.86267	676
3.86633	674
3.87000	671
3.87367	668
3.87733	667
3.88100	666
3.88467	666
3.88833	665
3.89200	664
3.89567	663
3.89933	661
3.90300	657
3.90667	654
3.91033	654
3.91400	652
3.91767	649
3.92133	646
3.92500	644
3.92867	643
3.93233	644
3.93600	645
3.93967	645
3.94333	643
3.94700	639
3.95067	635
3.95433	632
3.95800	631
3.96167	632
3.96533	631
3.96900	631
3.97267	631
3.97633	629
3.98000	626
3.98367	624
3.98733	624
3.99100	624
3.99467	623
3.99833	618

[Status Trace (Column Oven Temperature)]
Interval(msec)	1000
# of Points	240
Start Time(min)	0.008
End Time(min)	3.992
Intensity Units	
Intensity Multiplier	1
R.Time (min)	Intensity
0.00845	35.04
0.02512	35.04
0.04178	35.04
0.05845	35.05
0.07512	35.05
0.09178	35.05
0.10845	35.05
0.12512	35.05
0.14178	35.05
0.15845	35.05
0.17512	35.03
0.19178	35.03
0.20845	35.04
0.22512	35.05
0.24178	35.04
0.25845	35.05
0.27512	35.05
0.29178	35.05
0.30845	35.06
0.32512	35.05
0.34178	35.03
0.35845	35.03
0.37512	35.03
0.39178	35.03
0.40845	35.04
0.42512	35.05
0.44178	35.04
0.45845	35.03
0.47512	35.03
0.49178	35.03
0.50845	35.02
0.52512	35.01
0.54178	35.01
0.55845	35.00
0.57512	35.01
0.59178	35.03
0.60845	35.02
0.62512	35.02
0.64178	35.00
0.65845	34.99
0.67512	34.98
0.69178	34.98
0.70845	34.99
0.72512	35.00
0.74178	35.01
0.75845	35.01
0.77512	35.00
0.79178	34.99
0.80845	34.98
0.82512	34.98
0.84178	34.99
0.85845	34.99
0.87512	35.00
0.89178	35.00
0.90845	34.99
0.92512	34.99
0.94178	34.98
0.95845	34.98
0.97512	34.99
0.99178	34.99
1.00845	34.98
1.02512	34.97
1.04178	34.97
1.05845	34.97
1.07512	34.97
1.09178	34.96
1.10845	34.97
1.12512	34.98
1.14178	34.98
1.15845	35.00
1.17512	35.00
1.19178	34.99
1.20845	34.99
1.22512	34.99
1.24178	34.98
1.25845	34.99
1.27512	35.00
1.29178	34.99
1.30845	34.97
1.32512	34.96
1.34178	34.96
1.35845	34.98
1.37512	34.98
1.39178	34.97
1.40845	34.98
1.42512	34.99
1.44178	35.00
1.45845	35.01
1.47512	35.01
1.49178	35.00
1.50845	34.99
1.52512	34.99
1.54178	34.97
1.55845	34.97
1.57512	34.98
1.59178	35.01
1.60845	35.07
1.62512	35.21
1.64178	35.42
1.65845	35.67
1.67512	35.99
1.69178	36.35
1.70845	36.71
1.72512	37.06
1.74178	37.38
1.75845	37.69
1.77512	38.02
1.79178	38.36
1.80845	38.69
1.82512	39.03
1.84178	39.36
1.85845	39.69
1.87512	40.02
1.89178	40.35
1.90845	40.68
1.92512	41.01
1.94178	41.35
1.95845	41.68
1.97512	41.99
1.99178	42.32
2.00845	42.63
2.02512	42.95
2.04178	43.30
2.05845	43.61
2.07512	43.95
2.09178	44.27
2.10845	44.60
2.12512	44.93
2.14178	45.24
2.15845	45.56
2.17512	45.89
2.19178	46.22
2.20845	46.54
2.22512	46.89
2.24178	47.20
2.25845	47.52
2.27512	47.86
2.29178	48.18
2.30845	48.51
2.32512	48.83
2.34178	49.17
2.35845	49.46
2.37512	49.66
2.39178	49.71
2.40845	49.71
2.42512	49.72
2.44178	49.71
2.45845	49.73
2.47512	49.73
2.49178	49.74
2.50845	49.75
2.52512	49.77
2.54178	49.78
2.55845	49.78
2.57512	49.80
2.59178	49.81
2.60845	49.82
2.62512	49.83
2.64178	49.84
2.65845	49.84
2.67512	49.85
2.69178	49.86
2.70845	49.85
2.72512	49.84
2.74178	49.86
2.75845	49.87
2.77512	49.87
2.79178	49.89
2.80845	49.88
2.82512	49.88
2.84178	49.88
2.85845	49.88
2.87512	49.89
2.89178	49.91
2.90845	49.93
2.92512	49.94
2.94178	49.96
2.95845	49.98
2.97512	49.99
2.99178	49.99
3.00845	50.00
3.02512	50.01
3.04178	50.02
3.05845	50.03
3.07512	50.05
3.09178	50.06
3.10845	50.07
3.12512	50.09
3.14178	50.09
3.15845	50.09
3.17512	50.08
3.19178	50.07
3.20845	50.07
3.22512	50.08
3.24178	50.09
3.25845	50.10
3.27512	50.11
3.29178	50.12
3.30845	50.11
3.32512	50.10
3.34178	50.08
3.35845	50.06
3.37512	50.06
3.39178	50.05
3.40845	50.04
3.42512	50.03
3.44178	50.02
3.45845	50.01
3.47512	50.01
3.49178	50.00
3.50845	50.00
3.52512	49.99
3.54178	49.99
3.55845	49.99
3.57512	50.00
3.59178	50.00
3.60845	50.00
3.62512	50.01
3.64178	50.01
3.65845	50.01
3.67512	50.01
3.69178	50.01
3.70845	50.01
3.72512	50.02
3.74178	50.03
3.75845	50.02
3.77512	50.03
3.79178	50.04
3.80845	50.05
3.82512	50.06
3.84178	50.07
3.85845	50.07
3.87512	50.08
3.89178	50.08
3.90845	50.09
3.92512	50.09
3.94178	50.08
3.95845	50.07
3.97512	50.07
3.99178	50.07

[Status Trace (Injection Unit Temperature)]
Interval(msec)	1000
# of Points	240
Start Time(min)	0.008
End Time(min)	3.992
Intensity Units	
Intensity Multiplier	1
R.Time (min)	Intensity
0.00845	99.97
0.02512	99.97
0.04178	99.97
0.05845	99.98
0.07512	99.98
0.09178	99.98
0.10845	99.97
0.12512	99.98
0.14178	99.98
0.15845	99.97
0.17512	99.98
0.19178	99.98
0.20845	99.98
0.22512	99.98
0.24178	99.98
0.25845	99.97
0.27512	99.98
0.29178	99.98
0.30845	99.98
0.32512	99.98
0.34178	99.98
0.35845	99.98
0.37512	99.98
0.39178	99.98
0.40845	99.98
0.42512	99.98
0.44178	99.98
0.45845	99.98
0.47512	99.98
0.49178	99.98
0.50845	99.99
0.52512	99.98
0.54178	99.98
0.55845	99.98
0.57512	99.99
0.59178	99.98
0.60845	99.99
0.62512	99.98
0.64178	99.98
0.65845	99.98
0.67512	99.99
0.69178	99.99
0.70845	99.98
0.72512	99.98
0.74178	99.99
0.75845	99.99
0.77512	99.99
0.79178	99.99
0.80845	99.99
0.82512	99.98
0.84178	99.98
0.85845	99.99
0.87512	99.99
0.89178	99.99
0.90845	99.99
0.92512	99.98
0.94178	99.99
0.95845	99.99
0.97512	99.98
0.99178	99.99
1.00845	99.98
1.02512	99.98
1.04178	99.98
1.05845	99.98
1.07512	99.98
1.09178	99.99
1.10845	99.99
1.12512	99.98
1.14178	99.98
1.15845	99.98
1.17512	99.98
1.19178	99.98
1.20845	99.98
1.22512	99.98
1.24178	99.99
1.25845	99.98
1.27512	99.98
1.29178	99.97
1.30845	99.98
1.32512	99.98
1.34178	99.98
1.35845	99.97
1.37512	99.98
1.39178	99.98
1.40845	99.98
1.42512	99.98
1.44178	99.98
1.45845	99.97
1.47512	99.98
1.49178	99.98
1.50845	99.98
1.52512	99.98
1.54178	99.98
1.55845	99.98
1.57512	99.97
1.59178	99.98
1.60845	99.98
1.62512	99.98
1.64178	99.98
1.65845	99.98
1.67512	99.98
1.69178	99.98
1.70845	99.97
1.72512	99.97
1.74178	99.98
1.75845	99.98
1.77512	99.98
1.79178	99.98
1.80845	99.98
1.82512	99.98
1.84178	99.98
1.85845	99.98
1.87512	99.98
1.89178	99.98
1.90845	99.98
1.92512	99.98
1.94178	99.97
1.95845	99.98
1.97512	99.98
1.99178	99.97
2.00845	99.97
2.02512	99.98
2.04178	99.97
2.05845	99.97
2.07512	99.97
2.09178	99.97
2.10845	99.97
2.12512	99.97
2.14178	99.97
2.15845	99.97
2.17512	99.96
2.19178	99.97
2.20845	99.97
2.22512	99.97
2.24178	99.97
2.25845	99.96
2.27512	99.97
2.29178	99.96
2.30845	99.96
2.32512	99.96
2.34178	99.96
2.35845	99.96
2.37512	99.96
2.39178	99.97
2.40845	99.96
2.42512	99.96
2.44178	99.97
2.45845	99.96
2.47512	99.97
2.49178	99.97
2.50845	99.97
2.52512	99.97
2.54178	99.97
2.55845	99.97
2.57512	99.97
2.59178	99.97
2.60845	99.97
2.62512	99.97
2.64178	99.97
2.65845	99.97
2.67512	99.98
2.69178	99.98
2.70845	99.97
2.72512	99.98
2.74178	99.98
2.75845	99.98
2.77512	99.98
2.79178	99.99
2.80845	99.99
2.82512	99.99
2.84178	99.99
2.85845	100.00
2.87512	99.98
2.89178	99.99
2.90845	100.00
2.92512	99.99
2.94178	100.00
2.95845	100.00
2.97512	100.00
2.99178	100.01
3.00845	100.01
3.02512	100.01
3.04178	100.01
3.05845	100.01
3.07512	100.01
3.09178	100.02
3.10845	100.02
3.12512	100.02
3.14178	100.02
3.15845	100.02
3.17512	100.02
3.19178	100.02
3.20845	100.03
3.22512	100.02
3.24178	100.03
3.25845	100.03
3.27512	100.03
3.29178	100.03
3.30845	100.04
3.32512	100.04
3.34178	100.03
3.35845	100.04
3.37512	100.04
3.39178	100.04
3.40845	100.04
3.42512	100.04
3.44178	100.03
3.45845	100.04
3.47512	100.04
3.49178	100.04
3.50845	100.04
3.52512	100.04
3.54178	100.04
3.55845	100.04
3.57512	100.04
3.59178	100.04
3.60845	100.04
3.62512	100.04
3.64178	100.05
3.65845	100.05
3.67512	100.04
3.69178	100.05
3.70845	100.04
3.72512	100.04
3.74178	100.05
3.75845	100.04
3.77512	100.04
3.79178	100.05
3.80845	100.05
3.82512	100.05
3.84178	100.04
3.85845	100.04
3.87512	100.05
3.89178	100.04
3.90845	100.04
3.92512	100.04
3.94178	100.05
3.95845	100.04
3.97512	100.04
3.99178	100.04

[Status Trace (Carrier Gas Pressure)]
Interval(msec)	1000
# of Points	240
Start Time(min)	0.008
End Time(min)	3.992
Intensity Units	
Intensity Multiplier	1
R.Time (min)	Intensity
0.00845	58.00
0.02512	55.27
0.04178	57.14
0.05845	59.31
0.07512	59.34
0.09178	58.06
0.10845	57.98
0.12512	58.01
0.14178	58.01
0.15845	58.00
0.17512	58.00
0.19178	58.00
0.20845	58.00
0.22512	58.00
0.24178	58.00
0.25845	58.00
0.27512	58.00
0.29178	58.00
0.30845	58.00
0.32512	58.00
0.34178	58.00
0.35845	58.00
0.37512	58.00
0.39178	58.00
0.40845	58.00
0.42512	58.00
0.44178	58.00
0.45845	58.00
0.47512	58.00
0.49178	58.00
0.50845	58.00
0.52512	58.00
0.54178	58.00
0.55845	58.00
0.57512	58.00
0.59178	58.00
0.60845	58.00
0.62512	58.00
0.64178	58.00
0.65845	58.00
0.67512	58.00
0.69178	58.00
0.70845	58.00
0.72512	58.00
0.74178	58.00
0.75845	58.00
0.77512	58.00
0.79178	58.00
0.80845	58.00
0.82512	58.00
0.84178	58.00
0.85845	58.00
0.87512	58.00
0.89178	58.00
0.90845	58.00
0.92512	58.00
0.94178	58.00
0.95845	58.00
0.97512	58.00
0.99178	58.00
1.00845	58.00
1.02512	58.00
1.04178	58.00
1.05845	58.00
1.07512	58.00
1.09178	58.00
1.10845	58.00
1.12512	58.00
1.14178	58.00
1.15845	58.00
1.17512	58.00
1.19178	58.00
1.20845	58.00
1.22512	58.00
1.24178	58.00
1.25845	58.00
1.27512	58.00
1.29178	58.00
1.30845	58.00
1.32512	58.00
1.34178	58.00
1.35845	58.00
1.37512	58.00
1.39178	58.00
1.40845	58.00
1.42512	58.00
1.44178	58.00
1.45845	58.00
1.47512	58.00
1.49178	58.00
1.50845	58.00
1.52512	58.00
1.54178	58.00
1.55845	58.00
1.57512	58.00
1.59178	58.00
1.60845	58.00
1.62512	58.00
1.64178	58.00
1.65845	58.00
1.67512	58.01
1.69178	58.01
1.70845	58.00
1.72512	58.00
1.74178	58.00
1.75845	58.00
1.77512	58.00
1.79178	58.00
1.80845	58.00
1.82512	58.00
1.84178	58.00
1.85845	58.00
1.87512	58.00
1.89178	58.00
1.90845	58.00
1.92512	58.00
1.94178	58.00
1.95845	58.00
1.97512	58.00
1.99178	58.00
2.00845	58.00
2.02512	58.00
2.04178	58.00
2.05845	58.00
2.07512	58.00
2.09178	58.00
2.10845	58.00
2.12512	58.00
2.14178	58.00
2.15845	58.00
2.17512	58.00
2.19178	58.00
2.20845	58.00
2.22512	58.00
2.24178	58.00
2.25845	58.00
2.27512	58.00
2.29178	58.00
2.30845	58.00
2.32512	58.00
2.34178	58.00
2.35845	58.00
2.37512	58.00
2.39178	57.99
2.40845	57.99
2.42512	58.00
2.44178	58.00
2.45845	58.00
2.47512	58.00
2.49178	58.00
2.50845	58.00
2.52512	57.99
2.54178	58.00
2.55845	58.00
2.57512	58.00
2.59178	58.00
2.60845	58.00
2.62512	58.00
2.64178	58.00
2.65845	58.00
2.67512	58.00
2.69178	58.00
2.70845	58.00
2.72512	58.00
2.74178	58.00
2.75845	58.00
2.77512	58.00
2.79178	58.00
2.80845	58.00
2.82512	58.00
2.84178	58.00
2.85845	58.00
2.87512	58.00
2.89178	58.00
2.90845	58.00
2.92512	58.00
2.94178	58.00
2.95845	58.00
2.97512	58.00
2.99178	58.00
3.00845	58.00
3.02512	58.00
3.04178	58.00
3.05845	58.00
3.07512	58.00
3.09178	58.00
3.10845	58.00
3.12512	58.00
3.14178	58.00
3.15845	58.00
3.17512	58.00
3.19178	58.00
3.20845	58.00
3.22512	58.00
3.24178	58.00
3.25845	58.00
3.27512	58.00
3.29178	58.00
3.30845	58.00
3.32512	58.00
3.34178	58.00
3.35845	58.00
3.37512	58.00
3.39178	58.00
3.40845	58.00
3.42512	58.00
3.44178	58.00
3.45845	58.00
3.47512	58.00
3.49178	58.00
3.50845	58.00
3.52512	58.00
3.54178	58.00
3.55845	58.00
3.57512	58.00
3.59178	58.00
3.60845	58.00
3.62512	58.00
3.64178	58.00
3.65845	58.00
3.67512	58.00
3.69178	58.00
3.70845	58.00
3.72512	58.00
3.74178	58.00
3.75845	58.00
3.77512	58.00
3.79178	58.00
3.80845	58.00
3.82512	58.00
3.84178	58.00
3.85845	58.00
3.87512	58.00
3.89178	58.00
3.90845	58.00
3.92512	58.00
3.94178	58.00
3.95845	58.00
3.97512	58.00
3.99178	58.00

[Status Trace (Carrier Gas Flow)]
Interval(msec)	1000
# of Points	240
Start Time(min)	0.008
End Time(min)	3.992
Intensity Units	
Intensity Multiplier	1
R.Time (min)	Intensity
0.00845	34.52
0.02512	34.53
0.04178	34.54
0.05845	34.55
0.07512	34.50
0.09178	34.52
0.10845	34.52
0.12512	34.52
0.14178	34.52
0.15845	34.51
0.17512	34.52
0.19178	34.52
0.20845	34.52
0.22512	34.51
0.24178	34.52
0.25845	34.52
0.27512	34.52
0.29178	34.52
0.30845	34.52
0.32512	34.52
0.34178	34.52
0.35845	34.52
0.37512	34.52
0.39178	34.52
0.40845	34.51
0.42512	34.52
0.44178	34.52
0.45845	34.52
0.47512	34.52
0.49178	34.52
0.50845	34.53
0.52512	34.52
0.54178	34.52
0.55845	34.52
0.57512	34.52
0.59178	34.52
0.60845	34.51
0.62512	34.52
0.64178	34.51
0.65845	34.52
0.67512	34.51
0.69178	34.52
0.70845	34.52
0.72512	34.52
0.74178	34.52
0.75845	34.52
0.77512	34.52
0.79178	34.52
0.80845	34.52
0.82512	34.52
0.84178	34.53
0.85845	34.52
0.87512	34.52
0.89178	34.52
0.90845	34.52
0.92512	34.52
0.94178	34.52
0.95845	34.52
0.97512	34.52
0.99178	34.52
1.00845	34.52
1.02512	34.52
1.04178	34.52
1.05845	34.52
1.07512	34.52
1.09178	34.52
1.10845	34.52
1.12512	34.52
1.14178	34.52
1.15845	34.51
1.17512	34.52
1.19178	34.52
1.20845	34.52
1.22512	34.51
1.24178	34.52
1.25845	34.52
1.27512	34.52
1.29178	34.51
1.30845	34.52
1.32512	34.52
1.34178	34.52
1.35845	34.52
1.37512	34.52
1.39178	34.52
1.40845	34.52
1.42512	34.52
1.44178	34.52
1.45845	34.52
1.47512	34.52
1.49178	34.51
1.50845	34.52
1.52512	34.52
1.54178	34.52
1.55845	34.52
1.57512	34.52
1.59178	34.52
1.60845	34.51
1.62512	34.52
1.64178	34.52
1.65845	34.52
1.67512	34.51
1.69178	34.51
1.70845	34.52
1.72512	34.52
1.74178	34.52
1.75845	34.52
1.77512	34.52
1.79178	34.52
1.80845	34.52
1.82512	34.52
1.84178	34.52
1.85845	34.52
1.87512	34.52
1.89178	34.52
1.90845	34.52
1.92512	34.52
1.94178	34.52
1.95845	34.52
1.97512	34.51
1.99178	34.51
2.00845	34.52
2.02512	34.52
2.04178	34.52
2.05845	34.52
2.07512	34.52
2.09178	34.53
2.10845	34.52
2.12512	34.52
2.14178	34.52
2.15845	34.52
2.17512	34.52
2.19178	34.52
2.20845	34.52
2.22512	34.52
2.24178	34.52
2.25845	34.52
2.27512	34.52
2.29178	34.52
2.30845	34.52
2.32512	34.51
2.34178	34.52
2.35845	34.52
2.37512	34.52
2.39178	34.52
2.40845	34.52
2.42512	34.52
2.44178	34.52
2.45845	34.52
2.47512	34.51
2.49178	34.53
2.50845	34.46
2.52512	34.51
2.54178	34.52
2.55845	34.52
2.57512	34.52
2.59178	34.51
2.60845	34.52
2.62512	34.53
2.64178	34.51
2.65845	34.51
2.67512	34.52
2.69178	34.51
2.70845	34.51
2.72512	34.52
2.74178	34.52
2.75845	34.52
2.77512	34.52
2.79178	34.52
2.80845	34.52
2.82512	34.52
2.84178	34.52
2.85845	34.52
2.87512	34.52
2.89178	34.52
2.90845	34.52
2.92512	34.52
2.94178	34.52
2.95845	34.52
2.97512	34.52
2.99178	34.52
3.00845	34.51
3.02512	34.52
3.04178	34.52
3.05845	34.52
3.07512	34.52
3.09178	34.52
3.10845	34.52
3.12512	34.52
3.14178	34.52
3.15845	34.52
3.17512	34.52
3.19178	34.51
3.20845	34.52
3.22512	34.52
3.24178	34.52
3.25845	34.52
3.27512	34.52
3.29178	34.52
3.30845	34.52
3.32512	34.52
3.34178	34.52
3.35845	34.52
3.37512	34.51
3.39178	34.52
3.40845	34.52
3.42512	34.52
3.44178	34.51
3.45845	34.51
3.47512	34.52
3.49178	34.52
3.50845	34.51
3.52512	34.52
3.54178	34.52
3.55845	34.52
3.57512	34.52
3.59178	34.52
3.60845	34.52
3.62512	34.52
3.64178	34.52
3.65845	34.51
3.67512	34.52
3.69178	34.52
3.70845	34.52
3.72512	34.52
3.74178	34.52
3.75845	34.52
3.77512	34.52
3.79178	34.52
3.80845	34.52
3.82512	34.52
3.84178	34.52
3.85845	34.52
3.87512	34.52
3.89178	34.52
3.90845	34.52
3.92512	34.52
3.94178	34.52
3.95845	34.52
3.97512	34.52
3.99178	34.52

[Status Trace (Column Flow)]
Interval(msec)	1000
# of Points	240
Start Time(min)	0.008
End Time(min)	3.992
Intensity Units	
Intensity Multiplier	1
R.Time (min)	Intensity
0.00845	5.52
0.02512	5.20
0.04178	5.42
0.05845	5.67
0.07512	5.68
0.09178	5.53
0.10845	5.52
0.12512	5.52
0.14178	5.52
0.15845	5.52
0.17512	5.52
0.19178	5.52
0.20845	5.52
0.22512	5.52
0.24178	5.52
0.25845	5.52
0.27512	5.52
0.29178	5.52
0.30845	5.52
0.32512	5.52
0.34178	5.52
0.35845	5.52
0.37512	5.52
0.39178	5.52
0.40845	5.52
0.42512	5.52
0.44178	5.52
0.45845	5.52
0.47512	5.52
0.49178	5.52
0.50845	5.52
0.52512	5.52
0.54178	5.52
0.55845	5.52
0.57512	5.52
0.59178	5.52
0.60845	5.52
0.62512	5.52
0.64178	5.52
0.65845	5.52
0.67512	5.52
0.69178	5.52
0.70845	5.52
0.72512	5.52
0.74178	5.52
0.75845	5.52
0.77512	5.52
0.79178	5.52
0.80845	5.52
0.82512	5.52
0.84178	5.52
0.85845	5.52
0.87512	5.52
0.89178	5.52
0.90845	5.52
0.92512	5.52
0.94178	5.52
0.95845	5.52
0.97512	5.52
0.99178	5.52
1.00845	5.52
1.02512	5.52
1.04178	5.52
1.05845	5.52
1.07512	5.52
1.09178	5.52
1.10845	5.52
1.12512	5.52
1.14178	5.52
1.15845	5.52
1.17512	5.52
1.19178	5.52
1.20845	5.52
1.22512	5.52
1.24178	5.52
1.25845	5.52
1.27512	5.52
1.29178	5.52
1.30845	5.52
1.32512	5.52
1.34178	5.52
1.35845	5.52
1.37512	5.52
1.39178	5.52
1.40845	5.52
1.42512	5.52
1.44178	5.52
1.45845	5.52
1.47512	5.52
1.49178	5.52
1.50845	5.52
1.52512	5.52
1.54178	5.52
1.55845	5.52
1.57512	5.52
1.59178	5.52
1.60845	5.52
1.62512	5.51
1.64178	5.51
1.65845	5.50
1.67512	5.49
1.69178	5.48
1.70845	5.47
1.72512	5.46
1.74178	5.45
1.75845	5.44
1.77512	5.43
1.79178	5.42
1.80845	5.41
1.82512	5.40
1.84178	5.39
1.85845	5.38
1.87512	5.37
1.89178	5.36
1.90845	5.35
1.92512	5.34
1.94178	5.33
1.95845	5.32
1.97512	5.31
1.99178	5.30
2.00845	5.29
2.02512	5.28
2.04178	5.27
2.05845	5.26
2.07512	5.25
2.09178	5.24
2.10845	5.23
2.12512	5.22
2.14178	5.21
2.15845	5.20
2.17512	5.19
2.19178	5.18
2.20845	5.17
2.22512	5.16
2.24178	5.16
2.25845	5.15
2.27512	5.14
2.29178	5.13
2.30845	5.12
2.32512	5.11
2.34178	5.10
2.35845	5.09
2.37512	5.09
2.39178	5.08
2.40845	5.09
2.42512	5.09
2.44178	5.09
2.45845	5.09
2.47512	5.09
2.49178	5.09
2.50845	5.08
2.52512	5.08
2.54178	5.08
2.55845	5.08
2.57512	5.08
2.59178	5.08
2.60845	5.08
2.62512	5.08
2.64178	5.08
2.65845	5.08
2.67512	5.08
2.69178	5.08
2.70845	5.08
2.72512	5.08
2.74178	5.08
2.75845	5.08
2.77512	5.08
2.79178	5.08
2.80845	5.08
2.82512	5.08
2.84178	5.08
2.85845	5.08
2.87512	5.08
2.89178	5.08
2.90845	5.08
2.92512	5.08
2.94178	5.08
2.95845	5.08
2.97512	5.08
2.99178	5.08
3.00845	5.08
3.02512	5.08
3.04178	5.08
3.05845	5.08
3.07512	5.08
3.09178	5.08
3.10845	5.08
3.12512	5.08
3.14178	5.08
3.15845	5.08
3.17512	5.08
3.19178	5.08
3.20845	5.08
3.22512	5.08
3.24178	5.08
3.25845	5.07
3.27512	5.07
3.29178	5.07
3.30845	5.07
3.32512	5.07
3.34178	5.08
3.35845	5.08
3.37512	5.08
3.39178	5.08
3.40845	5.08
3.42512	5.08
3.44178	5.08
3.45845	5.08
3.47512	5.08
3.49178	5.08
3.50845	5.08
3.52512	5.08
3.54178	5.08
3.55845	5.08
3.57512	5.08
3.59178	5.08
3.60845	5.08
3.62512	5.08
3.64178	5.08
3.65845	5.08
3.67512	5.08
3.69178	5.08
3.70845	5.08
3.72512	5.08
3.74178	5.08
3.75845	5.08
3.77512	5.08
3.79178	5.08
3.80845	5.08
3.82512	5.08
3.84178	5.08
3.85845	5.08
3.87512	5.08
3.89178	5.08
3.90845	5.08
3.92512	5.08
3.94178	5.08
3.95845	5.08
3.97512	5.08
3.99178	5.08

[Status Trace (Linear Velocity)]
Interval(msec)	1000
# of Points	240
Start Time(min)	0.008
End Time(min)	3.992
Intensity Units	
Intensity Multiplier	1
R.Time (min)	Intensity
0.00845	39.01
0.02512	37.22
0.04178	38.45
0.05845	39.87
0.07512	39.89
0.09178	39.05
0.10845	39.00
0.12512	39.02
0.14178	39.02
0.15845	39.01
0.17512	39.02
0.19178	39.01
0.20845	39.01
0.22512	39.01
0.24178	39.01
0.25845	39.01
0.27512	39.01
0.29178	39.01
0.30845	39.01
0.32512	39.01
0.34178	39.01
0.35845	39.01
0.37512	39.01
0.39178	39.01
0.40845	39.01
0.42512	39.01
0.44178	39.01
0.45845	39.01
0.47512	39.01
0.49178	39.01
0.50845	39.01
0.52512	39.02
0.54178	39.02
0.55845	39.02
0.57512	39.02
0.59178	39.01
0.60845	39.01
0.62512	39.02
0.64178	39.02
0.65845	39.02
0.67512	39.02
0.69178	39.02
0.70845	39.02
0.72512	39.02
0.74178	39.02
0.75845	39.02
0.77512	39.02
0.79178	39.02
0.80845	39.02
0.82512	39.02
0.84178	39.02
0.85845	39.02
0.87512	39.02
0.89178	39.02
0.90845	39.02
0.92512	39.02
0.94178	39.02
0.95845	39.02
0.97512	39.02
0.99178	39.02
1.00845	39.02
1.02512	39.02
1.04178	39.02
1.05845	39.02
1.07512	39.02
1.09178	39.02
1.10845	39.02
1.12512	39.02
1.14178	39.02
1.15845	39.02
1.17512	39.02
1.19178	39.02
1.20845	39.02
1.22512	39.02
1.24178	39.02
1.25845	39.02
1.27512	39.02
1.29178	39.02
1.30845	39.02
1.32512	39.02
1.34178	39.02
1.35845	39.02
1.37512	39.02
1.39178	39.02
1.40845	39.02
1.42512	39.02
1.44178	39.02
1.45845	39.02
1.47512	39.02
1.49178	39.02
1.50845	39.02
1.52512	39.02
1.54178	39.02
1.55845	39.02
1.57512	39.02
1.59178	39.02
1.60845	39.01
1.62512	39.00
1.64178	38.98
1.65845	38.95
1.67512	38.92
1.69178	38.89
1.70845	38.85
1.72512	38.82
1.74178	38.79
1.75845	38.76
1.77512	38.73
1.79178	38.70
1.80845	38.66
1.82512	38.63
1.84178	38.61
1.85845	38.57
1.87512	38.54
1.89178	38.51
1.90845	38.48
1.92512	38.45
1.94178	38.42
1.95845	38.39
1.97512	38.36
1.99178	38.33
2.00845	38.30
2.02512	38.27
2.04178	38.24
2.05845	38.21
2.07512	38.18
2.09178	38.15
2.10845	38.12
2.12512	38.09
2.14178	38.06
2.15845	38.03
2.17512	38.00
2.19178	37.97
2.20845	37.94
2.22512	37.91
2.24178	37.88
2.25845	37.85
2.27512	37.82
2.29178	37.80
2.30845	37.76
2.32512	37.74
2.34178	37.71
2.35845	37.68
2.37512	37.66
2.39178	37.65
2.40845	37.65
2.42512	37.66
2.44178	37.66
2.45845	37.66
2.47512	37.65
2.49178	37.66
2.50845	37.65
2.52512	37.65
2.54178	37.65
2.55845	37.65
2.57512	37.65
2.59178	37.65
2.60845	37.65
2.62512	37.65
2.64178	37.65
2.65845	37.65
2.67512	37.65
2.69178	37.64
2.70845	37.64
2.72512	37.65
2.74178	37.64
2.75845	37.64
2.77512	37.64
2.79178	37.64
2.80845	37.64
2.82512	37.64
2.84178	37.64
2.85845	37.64
2.87512	37.64
2.89178	37.64
2.90845	37.64
2.92512	37.64
2.94178	37.64
2.95845	37.63
2.97512	37.63
2.99178	37.63
3.00845	37.63
3.02512	37.63
3.04178	37.63
3.05845	37.63
3.07512	37.63
3.09178	37.63
3.10845	37.63
3.12512	37.62
3.14178	37.62
3.15845	37.62
3.17512	37.63
3.19178	37.63
3.20845	37.63
3.22512	37.63
3.24178	37.62
3.25845	37.62
3.27512	37.62
3.29178	37.62
3.30845	37.62
3.32512	37.62
3.34178	37.62
3.35845	37.63
3.37512	37.63
3.39178	37.63
3.40845	37.63
3.42512	37.63
3.44178	37.63
3.45845	37.63
3.47512	37.63
3.49178	37.63
3.50845	37.63
3.52512	37.63
3.54178	37.63
3.55845	37.63
3.57512	37.63
3.59178	37.63
3.60845	37.63
3.62512	37.63
3.64178	37.63
3.65845	37.63
3.67512	37.63
3.69178	37.63
3.70845	37.63
3.72512	37.63
3.74178	37.63
3.75845	37.63
3.77512	37.63
3.79178	37.63
3.80845	37.63
3.82512	37.63
3.84178	37.63
3.85845	37.63
3.87512	37.62
3.89178	37.62
3.90845	37.62
3.92512	37.62
3.94178	37.63
3.95845	37.63
3.97512	37.63
3.99178	37.63

