[Header]
Application Name	LabSolutions
Version	5.110
Data File Name	C:\Users\User\Desktop\GC Analyses\Jack\Nachusa Grasslands Sampling\T2 Timepoint July 12th\T2_07122022_081.gcd
Output Date	3/14/2023
Output Time	3:42:35 PM

[File Information]
Type	Data File
Generated	3/10/2023 9:29:46 PM
Generated by	System Administrator
Modified	3/10/2023 9:36:39 PM
Modified by	System Administrator

[Sample Information]
Operator Name	System Administrator
Acquired	3/10/2023 9:32:38 PM
Sample Type	0:Unknown
Level	0
Sample Name	081
Sample ID	081
ISTD Amount1	1
ISTD Amount2	1
ISTD Amount3	1
ISTD Amount4	1
ISTD Amount5	1
ISTD Amount6	1
ISTD Amount7	1
ISTD Amount8	1
ISTD Amount9	1
ISTD Amount10	1
ISTD Amount11	1
ISTD Amount12	1
ISTD Amount13	1
ISTD Amount14	1
ISTD Amount15	1
ISTD Amount16	1
ISTD Amount17	1
ISTD Amount18	1
ISTD Amount19	1
ISTD Amount20	1
ISTD Amount21	1
ISTD Amount22	1
ISTD Amount23	1
ISTD Amount24	1
ISTD Amount25	1
ISTD Amount26	1
ISTD Amount27	1
ISTD Amount28	1
ISTD Amount29	1
ISTD Amount30	1
ISTD Amount31	1
ISTD Amount32	1
Sample Amount	1
Dilution Factor	1
Vial#	80
Injection Volume	1
Injection Count	1
Bar Code	

[Original Files]
Data File	C:\Users\User\Desktop\GC Analyses\Jack\Nachusa Grasslands Sampling\T1 Timepoint July 12th\T2_07122022_081.gcd
Method File	C:\LabSolutions\Data\GHG_4min_2022\ghg3_togas_w_acet_4 min_new_int.gcm
Batch File	C:\LabSolutions\Data\AutoSamplerTesting\T2_07122022.gcb
Report Format File	c:\LabSolutions\System\DEFAULT.lsr

[File Description]


[Configuration]
Instrument Name	C0B7VH3-Instrument1
Instrument #	1
Line #	1
# of Detectors	3
Detector ID	DET#1	DET#2	DET#3
Detector Name	FID	PTCD	ECD
# of Channels	1	1	1

[Peak Table(Ch1)]
# of Peaks	3
Peak#	R.Time	I.Time	F.Time	Area	Height	A/H	Conc.	Mark	ID#	Name	k'	Plate #	Plate Ht.	Tailing	Resolution	Sep.Factor	Area Ratio	Height Ratio	Conc. %	Norm Conc.
1	1.476	1.435	1.538	35509	17073	2.080	250.696	   	1	CO	0.000	9456	15.863	1.265	0.000	0.000	0	0	30.200	30.200
2	1.567	1.538	1.622	4528	2225	2.035	87.552	 V 	2	CH4	0.062	10138	14.797	0.000	1.491	0.000	0	0	10.547	10.547
3	1.996	1.949	2.414	1959830	936922	2.092	491.864	   	3	CO2	0.353	17498	8.572	1.232	6.996	5.680	0	0	59.253	59.253

[Peak Table(Ch2)]
# of Peaks	0

[Peak Table(Ch3)]
# of Peaks	7
Peak#	R.Time	I.Time	F.Time	Area	Height	A/H	Conc.	Mark	ID#	Name	k'	Plate #	Plate Ht.	Tailing	Resolution	Sep.Factor	Area Ratio	Height Ratio	Conc. %	Norm Conc.
1	0.988	0.423	1.300	697	25	28.184	0.000	   			0.000	17	8579.438	0.775	0.000	0.000	0	0	0.000	0.000
2	2.458	2.282	2.513	2390	702	3.403	0.000	   			1.488	11694	12.827	0.000	2.838	0.000	0	0	0.000	0.000
3	2.532	2.513	2.583	804	284	2.831	0.000	 V 			1.562	7718	19.434	0.000	0.711	1.050	0	0	0.000	0.000
4	2.594	2.583	2.700	412	106	3.879	0.000	 V 			1.626	1880	79.784	0.000	0.352	1.040	0	0	0.000	0.000
5	2.876	2.792	2.975	18148	4970	3.651	0.464	   	1	N2O	1.911	13456	11.147	1.464	1.668	1.176	0	0	100.000	100.000
6	3.049	2.975	3.115	2801	405	6.916	0.000	 V 			2.086	139	1080.309	0.000	0.304	1.091	0	0	0.000	0.000
7	3.228	3.115	3.995	13318	446	29.878	0.000	 V 	2	SF6	2.268	51	2914.146	0.000	0.127	1.087	0	0	0.000	0.000

[Compound Results(Ch1)]
# of IDs	6
ID#	Name	R.Time	Area	Height	Conc.	Curve	3rd	2nd	1st	Constant	Area Ratio	Height Ratio	Conc. %	Norm Conc.
1	CO	1.476	35509	17073	250.696	Linear	0.000000e+00	0.000000e+00	1.416423e+002	0.000000e+00	0	0	30.200	30.200
2	CH4	1.567	4528	2225	87.552	Linear	0.000000e+00	0.000000e+00	5.171738e+001	0.000000e+00	0	0	10.547	10.547
3	CO2	1.996	1959830	936922	491.864	Linear	0.000000e+00	0.000000e+00	3.984494e+003	0.000000e+00	0	0	59.253	59.253
4	Ethylene	0.000	0	0	0.000	Linear	0.000000e+00	0.000000e+00	0.000000e+00	0.000000e+00	0	0	0.000	0.000
5	Acetylene	0.000	0	0	0.000	Linear	0.000000e+00	0.000000e+00	0.000000e+00	0.000000e+00	0	0	0.000	0.000
6	Ethane	0.000	0	0	0.000	Linear	0.000000e+00	0.000000e+00	0.000000e+00	0.000000e+00	0	0	0.000	0.000

[Compound Results(Ch2)]
# of IDs	5
ID#	Name	R.Time	Area	Height	Conc.	Curve	3rd	2nd	1st	Constant	Area Ratio	Height Ratio	Conc. %	Norm Conc.
1	Hydrogen	0.000	0	0	0.000	Linear	0.000000e+00	0.000000e+00	0.000000e+00	0.000000e+00	0	0	0.000	0.000
2	Oxygen	0.000	0	0	0.000	Linear	0.000000e+00	0.000000e+00	0.000000e+00	0.000000e+00	0	0	0.000	0.000
3	Nitrogen	0.000	0	0	0.000	Linear	0.000000e+00	0.000000e+00	0.000000e+00	0.000000e+00	0	0	0.000	0.000
4	Methane	0.000	0	0	0.000	Linear	0.000000e+00	0.000000e+00	0.000000e+00	0.000000e+00	0	0	0.000	0.000
5	Carbon Monoxide	0.000	0	0	0.000	Linear	0.000000e+00	0.000000e+00	0.000000e+00	0.000000e+00	0	0	0.000	0.000

[Compound Results(Ch3)]
# of IDs	2
ID#	Name	R.Time	Area	Height	Conc.	Curve	3rd	2nd	1st	Constant	Area Ratio	Height Ratio	Conc. %	Norm Conc.
1	N2O	2.876	18148	4970	0.464	Linear	0.000000e+00	0.000000e+00	3.915173e+004	0.000000e+00	0	0	100.000	100.000
2	SF6	3.228	13318	446	0.000	Linear	0.000000e+00	0.000000e+00	0.000000e+00	0.000000e+00	0	0	0.000	0.000

[Group Results(Ch1)]
# of Groups	0

[Group Results(Ch2)]
# of Groups	0

[Group Results(Ch3)]
# of Groups	0

[Chromatogram (Ch1)]
Interval(msec)	220
# of Points	1091
Start Time(min)	0.002
End Time(min)	3.998
R.Time (min)	Intensity
0.00167	6
0.00533	14
0.00900	23
0.01267	28
0.01633	29
0.02000	24
0.02367	16
0.02733	14
0.03100	17
0.03467	24
0.03833	32
0.04200	44
0.04567	54
0.04933	60
0.05300	65
0.05667	73
0.06033	83
0.06400	90
0.06767	94
0.07133	99
0.07500	103
0.07867	102
0.08233	98
0.08600	96
0.08967	93
0.09333	94
0.09700	102
0.10067	115
0.10433	123
0.10800	123
0.11167	112
0.11533	96
0.11900	83
0.12267	75
0.12633	72
0.13000	72
0.13367	71
0.13733	68
0.14100	70
0.14467	76
0.14833	76
0.15200	69
0.15567	63
0.15933	59
0.16300	56
0.16667	49
0.17033	43
0.17400	40
0.17767	41
0.18133	40
0.18500	36
0.18867	30
0.19233	29
0.19600	33
0.19967	37
0.20333	33
0.20700	26
0.21067	20
0.21433	14
0.21800	8
0.22167	7
0.22533	7
0.22900	2
0.23267	-2
0.23633	0
0.24000	10
0.24367	15
0.24733	15
0.25100	16
0.25467	17
0.25833	17
0.26200	17
0.26567	17
0.26933	17
0.27300	21
0.27667	25
0.28033	31
0.28400	41
0.28767	52
0.29133	57
0.29500	56
0.29867	51
0.30233	40
0.30600	28
0.30967	17
0.31333	5
0.31700	-4
0.32067	-7
0.32433	-9
0.32800	-10
0.33167	-9
0.33533	-6
0.33900	-3
0.34267	-0
0.34633	7
0.35000	15
0.35367	22
0.35733	29
0.36100	35
0.36467	37
0.36833	39
0.37200	39
0.37567	36
0.37933	28
0.38300	18
0.38667	10
0.39033	4
0.39400	3
0.39767	4
0.40133	4
0.40500	4
0.40867	2
0.41233	-1
0.41600	-5
0.41967	-7
0.42333	-3
0.42700	5
0.43067	9
0.43433	12
0.43800	14
0.44167	17
0.44533	21
0.44900	26
0.45267	27
0.45633	26
0.46000	28
0.46367	36
0.46733	43
0.47100	47
0.47467	50
0.47833	51
0.48200	52
0.48567	55
0.48933	57
0.49300	59
0.49667	60
0.50033	60
0.50400	62
0.50767	62
0.51133	60
0.51500	61
0.51867	64
0.52233	66
0.52600	68
0.52967	71
0.53333	71
0.53700	66
0.54067	55
0.54433	46
0.54800	45
0.55167	50
0.55533	58
0.55900	64
0.56267	66
0.56633	66
0.57000	67
0.57367	69
0.57733	72
0.58100	74
0.58467	76
0.58833	77
0.59200	77
0.59567	78
0.59933	78
0.60300	76
0.60667	69
0.61033	59
0.61400	54
0.61767	56
0.62133	59
0.62500	61
0.62867	63
0.63233	64
0.63600	62
0.63967	58
0.64333	58
0.64700	62
0.65067	64
0.65433	63
0.65800	62
0.66167	63
0.66533	66
0.66900	67
0.67267	68
0.67633	66
0.68000	62
0.68367	56
0.68733	54
0.69100	54
0.69467	50
0.69833	46
0.70200	39
0.70567	35
0.70933	31
0.71300	30
0.71667	31
0.72033	31
0.72400	34
0.72767	37
0.73133	40
0.73500	49
0.73867	67
0.74233	82
0.74600	83
0.74967	74
0.75333	66
0.75700	58
0.76067	54
0.76433	51
0.76800	45
0.77167	39
0.77533	38
0.77900	41
0.78267	42
0.78633	46
0.79000	52
0.79367	59
0.79733	64
0.80100	64
0.80467	60
0.80833	52
0.81200	44
0.81567	43
0.81933	45
0.82300	44
0.82667	39
0.83033	29
0.83400	19
0.83767	13
0.84133	13
0.84500	18
0.84867	22
0.85233	30
0.85600	38
0.85967	46
0.86333	50
0.86700	50
0.87067	51
0.87433	51
0.87800	52
0.88167	55
0.88533	57
0.88900	52
0.89267	44
0.89633	34
0.90000	28
0.90367	25
0.90733	26
0.91100	30
0.91467	33
0.91833	38
0.92200	44
0.92567	51
0.92933	54
0.93300	52
0.93667	49
0.94033	45
0.94400	47
0.94767	51
0.95133	52
0.95500	50
0.95867	44
0.96233	40
0.96600	40
0.96967	38
0.97333	35
0.97700	37
0.98067	41
0.98433	46
0.98800	46
0.99167	36
0.99533	25
0.99900	22
1.00267	28
1.00633	37
1.01000	43
1.01367	43
1.01733	40
1.02100	34
1.02467	30
1.02833	28
1.03200	26
1.03567	27
1.03933	31
1.04300	34
1.04667	37
1.05033	40
1.05400	46
1.05767	50
1.06133	51
1.06500	49
1.06867	44
1.07233	38
1.07600	32
1.07967	30
1.08333	27
1.08700	25
1.09067	28
1.09433	34
1.09800	39
1.10167	42
1.10533	46
1.10900	50
1.11267	48
1.11633	39
1.12000	27
1.12367	17
1.12733	13
1.13100	15
1.13467	16
1.13833	21
1.14200	27
1.14567	33
1.14933	38
1.15300	41
1.15667	39
1.16033	34
1.16400	31
1.16767	31
1.17133	28
1.17500	28
1.17867	34
1.18233	40
1.18600	40
1.18967	33
1.19333	19
1.19700	6
1.20067	1
1.20433	3
1.20800	6
1.21167	8
1.21533	10
1.21900	12
1.22267	13
1.22633	17
1.23000	26
1.23367	39
1.23733	52
1.24100	56
1.24467	50
1.24833	37
1.25200	24
1.25567	13
1.25933	8
1.26300	6
1.26667	7
1.27033	8
1.27400	9
1.27767	9
1.28133	12
1.28500	17
1.28867	20
1.29233	18
1.29600	14
1.29967	10
1.30333	13
1.30700	21
1.31067	28
1.31433	31
1.31800	33
1.32167	31
1.32533	25
1.32900	20
1.33267	16
1.33633	12
1.34000	10
1.34367	9
1.34733	9
1.35100	9
1.35467	11
1.35833	15
1.36200	18
1.36567	17
1.36933	15
1.37300	15
1.37667	19
1.38033	21
1.38400	26
1.38767	33
1.39133	31
1.39500	21
1.39867	6
1.40233	-7
1.40600	-12
1.40967	-9
1.41333	-5
1.41700	-5
1.42067	-6
1.42433	-7
1.42800	-10
1.43167	-12
1.43533	-6
1.43900	36
1.44267	168
1.44633	490
1.45000	1365
1.45367	3319
1.45733	6303
1.46100	9663
1.46467	12729
1.46833	15116
1.47200	16625
1.47567	17087
1.47933	16388
1.48300	14634
1.48667	12208
1.49033	9606
1.49400	7228
1.49767	5278
1.50133	3792
1.50500	2710
1.50867	1947
1.51233	1414
1.51600	1043
1.51967	785
1.52333	609
1.52700	489
1.53067	403
1.53433	341
1.53800	318
1.54167	378
1.54533	572
1.54900	902
1.55267	1303
1.55633	1686
1.56000	1997
1.56367	2205
1.56733	2282
1.57100	2202
1.57467	1969
1.57833	1637
1.58200	1277
1.58567	956
1.58933	699
1.59300	507
1.59667	366
1.60033	264
1.60400	193
1.60767	146
1.61133	116
1.61500	99
1.61867	91
1.62233	84
1.62600	81
1.62967	84
1.63333	86
1.63700	82
1.64067	75
1.64433	65
1.64800	55
1.65167	43
1.65533	31
1.65900	22
1.66267	18
1.66633	18
1.67000	22
1.67367	24
1.67733	24
1.68100	21
1.68467	20
1.68833	21
1.69200	24
1.69567	24
1.69933	20
1.70300	12
1.70667	5
1.71033	2
1.71400	5
1.71767	10
1.72133	10
1.72500	6
1.72867	4
1.73233	5
1.73600	6
1.73967	6
1.74333	6
1.74700	15
1.75067	27
1.75433	35
1.75800	35
1.76167	30
1.76533	23
1.76900	16
1.77267	12
1.77633	11
1.78000	8
1.78367	1
1.78733	-4
1.79100	-8
1.79467	-9
1.79833	-6
1.80200	-0
1.80567	8
1.80933	13
1.81300	16
1.81667	16
1.82033	19
1.82400	21
1.82767	23
1.83133	23
1.83500	20
1.83867	16
1.84233	16
1.84600	18
1.84967	20
1.85333	19
1.85700	17
1.86067	15
1.86433	17
1.86800	18
1.87167	17
1.87533	15
1.87900	14
1.88267	17
1.88633	23
1.89000	28
1.89367	30
1.89733	28
1.90100	27
1.90467	24
1.90833	15
1.91200	10
1.91567	15
1.91933	21
1.92300	23
1.92667	22
1.93033	25
1.93400	33
1.93767	44
1.94133	56
1.94500	63
1.94867	66
1.95233	101
1.95600	384
1.95967	1984
1.96333	8713
1.96700	30053
1.97067	82177
1.97433	181040
1.97800	328552
1.98167	505553
1.98533	680761
1.98900	824203
1.99267	913628
1.99633	937048
2.00000	894294
2.00367	797216
2.00733	666875
2.01100	527148
2.01467	397550
2.01833	289250
2.02200	205386
2.02567	143892
2.02933	100475
2.03300	70573
2.03667	50280
2.04033	36592
2.04400	27350
2.04767	21065
2.05133	16732
2.05500	13685
2.05867	11487
2.06233	9860
2.06600	8628
2.06967	7669
2.07333	6905
2.07700	6283
2.08067	5774
2.08433	5349
2.08800	4983
2.09167	4661
2.09533	4390
2.09900	4157
2.10267	3948
2.10633	3750
2.11000	3559
2.11367	3380
2.11733	3216
2.12100	3067
2.12467	2932
2.12833	2814
2.13200	2704
2.13567	2600
2.13933	2503
2.14300	2409
2.14667	2317
2.15033	2235
2.15400	2162
2.15767	2093
2.16133	2029
2.16500	1976
2.16867	1936
2.17233	1903
2.17600	1861
2.17967	1811
2.18333	1763
2.18700	1716
2.19067	1665
2.19433	1612
2.19800	1557
2.20167	1498
2.20533	1448
2.20900	1409
2.21267	1378
2.21633	1355
2.22000	1337
2.22367	1315
2.22733	1286
2.23100	1254
2.23467	1223
2.23833	1196
2.24200	1174
2.24567	1156
2.24933	1140
2.25300	1126
2.25667	1108
2.26033	1085
2.26400	1064
2.26767	1043
2.27133	1024
2.27500	1011
2.27867	998
2.28233	989
2.28600	983
2.28967	974
2.29333	959
2.29700	941
2.30067	925
2.30433	910
2.30800	897
2.31167	882
2.31533	865
2.31900	847
2.32267	832
2.32633	820
2.33000	810
2.33367	802
2.33733	796
2.34100	791
2.34467	785
2.34833	777
2.35200	767
2.35567	759
2.35933	756
2.36300	752
2.36667	743
2.37033	731
2.37400	716
2.37767	704
2.38133	696
2.38500	693
2.38867	690
2.39233	689
2.39600	692
2.39967	691
2.40333	683
2.40700	671
2.41067	660
2.41433	652
2.41800	648
2.42167	647
2.42533	647
2.42900	647
2.43267	644
2.43633	638
2.44000	632
2.44367	630
2.44733	630
2.45100	625
2.45467	613
2.45833	595
2.46200	575
2.46567	558
2.46933	545
2.47300	535
2.47667	527
2.48033	522
2.48400	523
2.48767	527
2.49133	528
2.49500	528
2.49867	529
2.50233	527
2.50600	523
2.50967	521
2.51333	521
2.51700	524
2.52067	528
2.52433	537
2.52800	547
2.53167	552
2.53533	553
2.53900	551
2.54267	549
2.54633	550
2.55000	546
2.55367	535
2.55733	524
2.56100	520
2.56467	517
2.56833	514
2.57200	509
2.57567	504
2.57933	497
2.58300	491
2.58667	479
2.59033	465
2.59400	452
2.59767	442
2.60133	436
2.60500	434
2.60867	436
2.61233	433
2.61600	430
2.61967	435
2.62333	445
2.62700	456
2.63067	462
2.63433	460
2.63800	456
2.64167	453
2.64533	449
2.64900	447
2.65267	448
2.65633	450
2.66000	455
2.66367	461
2.66733	462
2.67100	455
2.67467	444
2.67833	433
2.68200	425
2.68567	422
2.68933	423
2.69300	426
2.69667	427
2.70033	422
2.70400	417
2.70767	416
2.71133	418
2.71500	424
2.71867	427
2.72233	427
2.72600	428
2.72967	426
2.73333	423
2.73700	419
2.74067	416
2.74433	414
2.74800	412
2.75167	410
2.75533	406
2.75900	404
2.76267	406
2.76633	407
2.77000	412
2.77367	414
2.77733	411
2.78100	406
2.78467	400
2.78833	395
2.79200	392
2.79567	389
2.79933	386
2.80300	388
2.80667	395
2.81033	403
2.81400	409
2.81767	409
2.82133	404
2.82500	398
2.82867	398
2.83233	400
2.83600	403
2.83967	402
2.84333	398
2.84700	392
2.85067	387
2.85433	381
2.85800	376
2.86167	374
2.86533	379
2.86900	389
2.87267	390
2.87633	386
2.88000	383
2.88367	379
2.88733	376
2.89100	374
2.89467	371
2.89833	365
2.90200	364
2.90567	366
2.90933	369
2.91300	373
2.91667	373
2.92033	367
2.92400	355
2.92767	342
2.93133	335
2.93500	337
2.93867	346
2.94233	357
2.94600	369
2.94967	378
2.95333	383
2.95700	383
2.96067	378
2.96433	371
2.96800	366
2.97167	360
2.97533	359
2.97900	364
2.98267	369
2.98633	373
2.99000	375
2.99367	376
2.99733	376
3.00100	379
3.00467	381
3.00833	378
3.01200	373
3.01567	366
3.01933	361
3.02300	359
3.02667	358
3.03033	359
3.03400	355
3.03767	350
3.04133	350
3.04500	355
3.04867	359
3.05233	361
3.05600	359
3.05967	359
3.06333	361
3.06700	364
3.07067	361
3.07433	352
3.07800	344
3.08167	338
3.08533	333
3.08900	329
3.09267	325
3.09633	324
3.10000	322
3.10367	317
3.10733	311
3.11100	310
3.11467	312
3.11833	316
3.12200	321
3.12567	327
3.12933	333
3.13300	342
3.13667	346
3.14033	343
3.14400	334
3.14767	324
3.15133	313
3.15500	304
3.15867	302
3.16233	302
3.16600	300
3.16967	299
3.17333	301
3.17700	302
3.18067	300
3.18433	300
3.18800	300
3.19167	299
3.19533	296
3.19900	294
3.20267	293
3.20633	293
3.21000	295
3.21367	300
3.21733	306
3.22100	312
3.22467	315
3.22833	314
3.23200	312
3.23567	313
3.23933	308
3.24300	299
3.24667	291
3.25033	283
3.25400	273
3.25767	267
3.26133	269
3.26500	276
3.26867	284
3.27233	291
3.27600	296
3.27967	300
3.28333	306
3.28700	313
3.29067	316
3.29433	311
3.29800	302
3.30167	293
3.30533	287
3.30900	283
3.31267	282
3.31633	280
3.32000	280
3.32367	279
3.32733	280
3.33100	277
3.33467	275
3.33833	274
3.34200	275
3.34567	274
3.34933	275
3.35300	278
3.35667	284
3.36033	288
3.36400	291
3.36767	294
3.37133	292
3.37500	285
3.37867	283
3.38233	283
3.38600	284
3.38967	286
3.39333	286
3.39700	286
3.40067	285
3.40433	282
3.40800	278
3.41167	272
3.41533	265
3.41900	262
3.42267	264
3.42633	267
3.43000	270
3.43367	273
3.43733	277
3.44100	276
3.44467	273
3.44833	270
3.45200	264
3.45567	260
3.45933	256
3.46300	249
3.46667	247
3.47033	248
3.47400	249
3.47767	249
3.48133	251
3.48500	256
3.48867	260
3.49233	262
3.49600	265
3.49967	270
3.50333	275
3.50700	279
3.51067	278
3.51433	274
3.51800	270
3.52167	266
3.52533	260
3.52900	254
3.53267	246
3.53633	240
3.54000	237
3.54367	235
3.54733	233
3.55100	230
3.55467	229
3.55833	229
3.56200	232
3.56567	238
3.56933	247
3.57300	256
3.57667	263
3.58033	270
3.58400	269
3.58767	257
3.59133	242
3.59500	232
3.59867	227
3.60233	222
3.60600	218
3.60967	216
3.61333	218
3.61700	223
3.62067	230
3.62433	230
3.62800	225
3.63167	221
3.63533	215
3.63900	210
3.64267	207
3.64633	208
3.65000	213
3.65367	218
3.65733	223
3.66100	230
3.66467	233
3.66833	234
3.67200	231
3.67567	229
3.67933	224
3.68300	219
3.68667	214
3.69033	209
3.69400	205
3.69767	205
3.70133	209
3.70500	214
3.70867	221
3.71233	227
3.71600	227
3.71967	221
3.72333	216
3.72700	210
3.73067	205
3.73433	206
3.73800	214
3.74167	222
3.74533	222
3.74900	217
3.75267	210
3.75633	206
3.76000	205
3.76367	210
3.76733	217
3.77100	218
3.77467	211
3.77833	207
3.78200	209
3.78567	211
3.78933	211
3.79300	215
3.79667	218
3.80033	219
3.80400	215
3.80767	210
3.81133	205
3.81500	199
3.81867	198
3.82233	200
3.82600	202
3.82967	204
3.83333	203
3.83700	206
3.84067	211
3.84433	211
3.84800	207
3.85167	205
3.85533	208
3.85900	213
3.86267	213
3.86633	213
3.87000	213
3.87367	207
3.87733	195
3.88100	185
3.88467	181
3.88833	184
3.89200	192
3.89567	194
3.89933	188
3.90300	184
3.90667	184
3.91033	185
3.91400	182
3.91767	177
3.92133	171
3.92500	166
3.92867	165
3.93233	168
3.93600	173
3.93967	178
3.94333	184
3.94700	190
3.95067	196
3.95433	201
3.95800	203
3.96167	199
3.96533	191
3.96900	178
3.97267	165
3.97633	156
3.98000	151
3.98367	152
3.98733	154
3.99100	155
3.99467	156
3.99833	156

[Chromatogram (Ch2)]
Interval(msec)	220
# of Points	1091
Start Time(min)	0.002
End Time(min)	3.998
R.Time (min)	Intensity
0.00167	-0
0.00533	-1
0.00900	-1
0.01267	-1
0.01633	-1
0.02000	-1
0.02367	-1
0.02733	-1
0.03100	-1
0.03467	-1
0.03833	-1
0.04200	-1
0.04567	-1
0.04933	-1
0.05300	-1
0.05667	-1
0.06033	-1
0.06400	-1
0.06767	-1
0.07133	-1
0.07500	-1
0.07867	-1
0.08233	-1
0.08600	-0
0.08967	0
0.09333	0
0.09700	0
0.10067	1
0.10433	1
0.10800	1
0.11167	1
0.11533	1
0.11900	1
0.12267	1
0.12633	0
0.13000	0
0.13367	-0
0.13733	-0
0.14100	-1
0.14467	-1
0.14833	-1
0.15200	-1
0.15567	-1
0.15933	-1
0.16300	-1
0.16667	-1
0.17033	-1
0.17400	-1
0.17767	-1
0.18133	-1
0.18500	-1
0.18867	-2
0.19233	-2
0.19600	-2
0.19967	-2
0.20333	-2
0.20700	-2
0.21067	-2
0.21433	-2
0.21800	-2
0.22167	-2
0.22533	-2
0.22900	-2
0.23267	-2
0.23633	-2
0.24000	-2
0.24367	-2
0.24733	-1
0.25100	-1
0.25467	-1
0.25833	-1
0.26200	-1
0.26567	-0
0.26933	-0
0.27300	-0
0.27667	-0
0.28033	-0
0.28400	-0
0.28767	-0
0.29133	-0
0.29500	-0
0.29867	-0
0.30233	0
0.30600	0
0.30967	1
0.31333	1
0.31700	1
0.32067	0
0.32433	0
0.32800	0
0.33167	-0
0.33533	-0
0.33900	-1
0.34267	-1
0.34633	-1
0.35000	-1
0.35367	-2
0.35733	-2
0.36100	-2
0.36467	-2
0.36833	-2
0.37200	-2
0.37567	-2
0.37933	-2
0.38300	-2
0.38667	-2
0.39033	-2
0.39400	-2
0.39767	-2
0.40133	-1
0.40500	-1
0.40867	-1
0.41233	-1
0.41600	-1
0.41967	-2
0.42333	-2
0.42700	-2
0.43067	-1
0.43433	-1
0.43800	-0
0.44167	0
0.44533	0
0.44900	1
0.45267	1
0.45633	1
0.46000	2
0.46367	2
0.46733	2
0.47100	2
0.47467	2
0.47833	2
0.48200	2
0.48567	2
0.48933	2
0.49300	2
0.49667	3
0.50033	3
0.50400	3
0.50767	3
0.51133	3
0.51500	3
0.51867	2
0.52233	2
0.52600	2
0.52967	2
0.53333	2
0.53700	2
0.54067	2
0.54433	1
0.54800	1
0.55167	1
0.55533	1
0.55900	1
0.56267	1
0.56633	1
0.57000	1
0.57367	0
0.57733	0
0.58100	0
0.58467	0
0.58833	0
0.59200	0
0.59567	0
0.59933	0
0.60300	0
0.60667	0
0.61033	0
0.61400	-0
0.61767	-0
0.62133	-0
0.62500	-0
0.62867	-0
0.63233	-1
0.63600	-1
0.63967	-1
0.64333	-2
0.64700	-2
0.65067	-2
0.65433	-2
0.65800	-2
0.66167	-2
0.66533	-2
0.66900	-2
0.67267	-2
0.67633	-2
0.68000	-1
0.68367	-1
0.68733	-1
0.69100	-1
0.69467	-1
0.69833	-1
0.70200	-1
0.70567	-1
0.70933	-2
0.71300	-2
0.71667	-2
0.72033	-2
0.72400	-2
0.72767	-3
0.73133	-3
0.73500	-3
0.73867	-3
0.74233	-3
0.74600	-3
0.74967	-4
0.75333	-4
0.75700	-4
0.76067	-4
0.76433	-4
0.76800	-5
0.77167	-5
0.77533	-5
0.77900	-5
0.78267	-5
0.78633	-5
0.79000	-4
0.79367	-4
0.79733	-3
0.80100	-3
0.80467	-2
0.80833	-2
0.81200	-2
0.81567	-2
0.81933	-2
0.82300	-2
0.82667	-1
0.83033	-1
0.83400	-1
0.83767	-1
0.84133	-1
0.84500	-1
0.84867	-1
0.85233	-1
0.85600	-2
0.85967	-2
0.86333	-2
0.86700	-1
0.87067	-1
0.87433	-1
0.87800	-1
0.88167	-0
0.88533	-0
0.88900	0
0.89267	0
0.89633	0
0.90000	0
0.90367	-0
0.90733	-0
0.91100	-1
0.91467	-1
0.91833	-1
0.92200	-2
0.92567	-2
0.92933	-2
0.93300	-2
0.93667	-3
0.94033	-3
0.94400	-3
0.94767	-3
0.95133	-3
0.95500	-3
0.95867	-3
0.96233	-4
0.96600	-4
0.96967	-4
0.97333	-4
0.97700	-4
0.98067	-5
0.98433	-5
0.98800	-5
0.99167	-5
0.99533	-5
0.99900	-5
1.00267	-5
1.00633	-5
1.01000	-5
1.01367	-5
1.01733	-5
1.02100	-4
1.02467	-4
1.02833	-4
1.03200	-3
1.03567	-3
1.03933	-3
1.04300	-3
1.04667	-3
1.05033	-3
1.05400	-3
1.05767	-3
1.06133	-3
1.06500	-3
1.06867	-3
1.07233	-2
1.07600	-2
1.07967	-2
1.08333	-2
1.08700	-2
1.09067	-2
1.09433	-2
1.09800	-3
1.10167	-3
1.10533	-3
1.10900	-3
1.11267	-3
1.11633	-3
1.12000	-3
1.12367	-2
1.12733	-2
1.13100	-2
1.13467	-2
1.13833	-2
1.14200	-2
1.14567	-2
1.14933	-2
1.15300	-2
1.15667	-2
1.16033	-2
1.16400	-2
1.16767	-2
1.17133	-2
1.17500	-2
1.17867	-2
1.18233	-2
1.18600	-2
1.18967	-2
1.19333	-3
1.19700	-3
1.20067	-3
1.20433	-3
1.20800	-3
1.21167	-3
1.21533	-2
1.21900	-2
1.22267	-2
1.22633	-2
1.23000	-2
1.23367	-2
1.23733	-2
1.24100	-2
1.24467	-2
1.24833	-2
1.25200	-2
1.25567	-2
1.25933	-2
1.26300	-2
1.26667	-2
1.27033	-3
1.27400	-3
1.27767	-4
1.28133	-4
1.28500	-5
1.28867	-5
1.29233	-5
1.29600	-5
1.29967	-5
1.30333	-5
1.30700	-5
1.31067	-5
1.31433	-5
1.31800	-5
1.32167	-5
1.32533	-5
1.32900	-5
1.33267	-5
1.33633	-5
1.34000	-5
1.34367	-4
1.34733	-4
1.35100	-4
1.35467	-4
1.35833	-4
1.36200	-3
1.36567	-3
1.36933	-3
1.37300	-2
1.37667	-2
1.38033	-2
1.38400	-2
1.38767	-3
1.39133	-3
1.39500	-3
1.39867	-4
1.40233	-4
1.40600	-3
1.40967	-3
1.41333	-3
1.41700	-3
1.42067	-3
1.42433	-2
1.42800	-2
1.43167	-2
1.43533	-2
1.43900	-2
1.44267	-2
1.44633	-1
1.45000	-1
1.45367	-1
1.45733	-2
1.46100	-2
1.46467	-2
1.46833	-2
1.47200	-3
1.47567	-3
1.47933	-3
1.48300	-3
1.48667	-3
1.49033	-4
1.49400	-4
1.49767	-4
1.50133	-4
1.50500	-4
1.50867	-4
1.51233	-4
1.51600	-4
1.51967	-4
1.52333	-4
1.52700	-4
1.53067	-4
1.53433	-4
1.53800	-5
1.54167	-5
1.54533	-5
1.54900	-5
1.55267	-5
1.55633	-5
1.56000	-5
1.56367	-5
1.56733	-5
1.57100	-5
1.57467	-5
1.57833	-5
1.58200	-5
1.58567	-4
1.58933	-4
1.59300	-5
1.59667	-5
1.60033	-6
1.60400	-7
1.60767	-8
1.61133	-10
1.61500	-12
1.61867	-14
1.62233	-17
1.62600	-19
1.62967	-22
1.63333	-26
1.63700	-29
1.64067	-33
1.64433	-36
1.64800	-40
1.65167	-44
1.65533	-47
1.65900	-51
1.66267	-54
1.66633	-57
1.67000	-61
1.67367	-65
1.67733	-69
1.68100	-74
1.68467	-78
1.68833	-83
1.69200	-87
1.69567	-92
1.69933	-96
1.70300	-99
1.70667	-101
1.71033	-104
1.71400	-105
1.71767	-106
1.72133	-107
1.72500	-108
1.72867	-108
1.73233	-108
1.73600	-108
1.73967	-107
1.74333	-107
1.74700	-107
1.75067	-106
1.75433	-106
1.75800	-106
1.76167	-106
1.76533	-107
1.76900	-109
1.77267	-110
1.77633	-112
1.78000	-113
1.78367	-113
1.78733	-114
1.79100	-114
1.79467	-115
1.79833	-115
1.80200	-115
1.80567	-114
1.80933	-114
1.81300	-115
1.81667	-115
1.82033	-114
1.82400	-114
1.82767	-115
1.83133	-115
1.83500	-115
1.83867	-116
1.84233	-116
1.84600	-117
1.84967	-117
1.85333	-116
1.85700	-115
1.86067	-114
1.86433	-113
1.86800	-112
1.87167	-111
1.87533	-111
1.87900	-111
1.88267	-111
1.88633	-112
1.89000	-113
1.89367	-113
1.89733	-114
1.90100	-114
1.90467	-114
1.90833	-114
1.91200	-113
1.91567	-113
1.91933	-113
1.92300	-112
1.92667	-112
1.93033	-113
1.93400	-112
1.93767	-112
1.94133	-112
1.94500	-111
1.94867	-111
1.95233	-111
1.95600	-112
1.95967	-112
1.96333	-113
1.96700	-113
1.97067	-113
1.97433	-112
1.97800	-112
1.98167	-111
1.98533	-111
1.98900	-111
1.99267	-111
1.99633	-111
2.00000	-111
2.00367	-110
2.00733	-110
2.01100	-110
2.01467	-110
2.01833	-109
2.02200	-108
2.02567	-107
2.02933	-107
2.03300	-106
2.03667	-105
2.04033	-106
2.04400	-106
2.04767	-106
2.05133	-106
2.05500	-106
2.05867	-105
2.06233	-105
2.06600	-104
2.06967	-104
2.07333	-103
2.07700	-103
2.08067	-103
2.08433	-103
2.08800	-103
2.09167	-102
2.09533	-101
2.09900	-100
2.10267	-100
2.10633	-99
2.11000	-99
2.11367	-99
2.11733	-98
2.12100	-98
2.12467	-98
2.12833	-97
2.13200	-97
2.13567	-96
2.13933	-96
2.14300	-95
2.14667	-95
2.15033	-95
2.15400	-95
2.15767	-95
2.16133	-95
2.16500	-94
2.16867	-94
2.17233	-93
2.17600	-93
2.17967	-93
2.18333	-93
2.18700	-93
2.19067	-93
2.19433	-93
2.19800	-93
2.20167	-93
2.20533	-93
2.20900	-93
2.21267	-92
2.21633	-92
2.22000	-92
2.22367	-91
2.22733	-90
2.23100	-89
2.23467	-89
2.23833	-88
2.24200	-88
2.24567	-87
2.24933	-87
2.25300	-87
2.25667	-86
2.26033	-86
2.26400	-86
2.26767	-86
2.27133	-85
2.27500	-85
2.27867	-84
2.28233	-84
2.28600	-84
2.28967	-84
2.29333	-84
2.29700	-84
2.30067	-84
2.30433	-84
2.30800	-84
2.31167	-83
2.31533	-83
2.31900	-83
2.32267	-82
2.32633	-82
2.33000	-81
2.33367	-81
2.33733	-80
2.34100	-79
2.34467	-78
2.34833	-78
2.35200	-77
2.35567	-77
2.35933	-77
2.36300	-77
2.36667	-76
2.37033	-75
2.37400	-73
2.37767	-71
2.38133	-67
2.38500	-64
2.38867	-59
2.39233	-55
2.39600	-50
2.39967	-45
2.40333	-41
2.40700	-36
2.41067	-32
2.41433	-28
2.41800	-25
2.42167	-22
2.42533	-19
2.42900	-17
2.43267	-15
2.43633	-14
2.44000	-13
2.44367	-12
2.44733	-11
2.45100	-10
2.45467	-9
2.45833	-8
2.46200	-7
2.46567	-6
2.46933	-6
2.47300	-5
2.47667	-4
2.48033	-4
2.48400	-3
2.48767	-1
2.49133	-0
2.49500	1
2.49867	2
2.50233	3
2.50600	4
2.50967	5
2.51333	6
2.51700	7
2.52067	8
2.52433	9
2.52800	10
2.53167	11
2.53533	11
2.53900	12
2.54267	12
2.54633	13
2.55000	13
2.55367	14
2.55733	15
2.56100	15
2.56467	16
2.56833	16
2.57200	15
2.57567	15
2.57933	14
2.58300	13
2.58667	13
2.59033	13
2.59400	13
2.59767	13
2.60133	13
2.60500	14
2.60867	14
2.61233	15
2.61600	15
2.61967	15
2.62333	15
2.62700	15
2.63067	15
2.63433	15
2.63800	15
2.64167	15
2.64533	16
2.64900	16
2.65267	17
2.65633	18
2.66000	19
2.66367	19
2.66733	20
2.67100	20
2.67467	20
2.67833	20
2.68200	19
2.68567	19
2.68933	19
2.69300	19
2.69667	19
2.70033	19
2.70400	19
2.70767	20
2.71133	20
2.71500	21
2.71867	21
2.72233	22
2.72600	22
2.72967	23
2.73333	23
2.73700	23
2.74067	24
2.74433	24
2.74800	25
2.75167	25
2.75533	25
2.75900	25
2.76267	25
2.76633	24
2.77000	24
2.77367	23
2.77733	23
2.78100	23
2.78467	22
2.78833	22
2.79200	22
2.79567	22
2.79933	22
2.80300	22
2.80667	22
2.81033	22
2.81400	23
2.81767	23
2.82133	23
2.82500	23
2.82867	24
2.83233	24
2.83600	24
2.83967	23
2.84333	21
2.84700	18
2.85067	12
2.85433	4
2.85800	-8
2.86167	-24
2.86533	-43
2.86900	-67
2.87267	-95
2.87633	-128
2.88000	-165
2.88367	-205
2.88733	-249
2.89100	-296
2.89467	-346
2.89833	-398
2.90200	-452
2.90567	-506
2.90933	-561
2.91300	-616
2.91667	-671
2.92033	-726
2.92400	-779
2.92767	-830
2.93133	-882
2.93500	-938
2.93867	-997
2.94233	-1051
2.94600	-1090
2.94967	-1105
2.95333	-1094
2.95700	-1058
2.96067	-1003
2.96433	-935
2.96800	-858
2.97167	-777
2.97533	-696
2.97900	-618
2.98267	-545
2.98633	-477
2.99000	-415
2.99367	-360
2.99733	-310
3.00100	-266
3.00467	-228
3.00833	-194
3.01200	-165
3.01567	-140
3.01933	-118
3.02300	-99
3.02667	-82
3.03033	-68
3.03400	-56
3.03767	-45
3.04133	-37
3.04500	-29
3.04867	-22
3.05233	-17
3.05600	-13
3.05967	-9
3.06333	-6
3.06700	-3
3.07067	-1
3.07433	1
3.07800	3
3.08167	5
3.08533	6
3.08900	7
3.09267	8
3.09633	9
3.10000	10
3.10367	11
3.10733	11
3.11100	12
3.11467	12
3.11833	13
3.12200	13
3.12567	13
3.12933	14
3.13300	14
3.13667	14
3.14033	14
3.14400	14
3.14767	14
3.15133	14
3.15500	14
3.15867	15
3.16233	15
3.16600	15
3.16967	16
3.17333	16
3.17700	16
3.18067	16
3.18433	16
3.18800	17
3.19167	17
3.19533	17
3.19900	18
3.20267	18
3.20633	18
3.21000	19
3.21367	19
3.21733	20
3.22100	20
3.22467	20
3.22833	21
3.23200	21
3.23567	21
3.23933	21
3.24300	21
3.24667	21
3.25033	21
3.25400	21
3.25767	21
3.26133	21
3.26500	21
3.26867	21
3.27233	21
3.27600	21
3.27967	21
3.28333	21
3.28700	21
3.29067	21
3.29433	21
3.29800	21
3.30167	21
3.30533	22
3.30900	22
3.31267	22
3.31633	22
3.32000	23
3.32367	23
3.32733	23
3.33100	24
3.33467	24
3.33833	24
3.34200	24
3.34567	24
3.34933	25
3.35300	24
3.35667	24
3.36033	24
3.36400	24
3.36767	25
3.37133	25
3.37500	25
3.37867	25
3.38233	25
3.38600	25
3.38967	25
3.39333	25
3.39700	25
3.40067	25
3.40433	25
3.40800	25
3.41167	24
3.41533	24
3.41900	24
3.42267	24
3.42633	24
3.43000	24
3.43367	24
3.43733	24
3.44100	24
3.44467	24
3.44833	24
3.45200	24
3.45567	24
3.45933	24
3.46300	24
3.46667	24
3.47033	24
3.47400	24
3.47767	24
3.48133	24
3.48500	24
3.48867	24
3.49233	25
3.49600	25
3.49967	25
3.50333	25
3.50700	25
3.51067	25
3.51433	25
3.51800	25
3.52167	25
3.52533	25
3.52900	25
3.53267	26
3.53633	26
3.54000	26
3.54367	26
3.54733	26
3.55100	25
3.55467	25
3.55833	25
3.56200	25
3.56567	26
3.56933	26
3.57300	26
3.57667	26
3.58033	26
3.58400	26
3.58767	26
3.59133	26
3.59500	26
3.59867	25
3.60233	25
3.60600	25
3.60967	26
3.61333	26
3.61700	26
3.62067	26
3.62433	26
3.62800	25
3.63167	25
3.63533	25
3.63900	25
3.64267	25
3.64633	25
3.65000	25
3.65367	25
3.65733	25
3.66100	25
3.66467	25
3.66833	25
3.67200	25
3.67567	25
3.67933	25
3.68300	25
3.68667	24
3.69033	24
3.69400	24
3.69767	24
3.70133	24
3.70500	24
3.70867	24
3.71233	24
3.71600	24
3.71967	24
3.72333	24
3.72700	23
3.73067	23
3.73433	23
3.73800	23
3.74167	23
3.74533	23
3.74900	23
3.75267	23
3.75633	24
3.76000	24
3.76367	24
3.76733	24
3.77100	24
3.77467	24
3.77833	24
3.78200	24
3.78567	24
3.78933	24
3.79300	24
3.79667	24
3.80033	23
3.80400	23
3.80767	23
3.81133	23
3.81500	23
3.81867	23
3.82233	23
3.82600	23
3.82967	23
3.83333	24
3.83700	24
3.84067	24
3.84433	24
3.84800	24
3.85167	24
3.85533	24
3.85900	24
3.86267	24
3.86633	23
3.87000	23
3.87367	23
3.87733	23
3.88100	23
3.88467	23
3.88833	23
3.89200	23
3.89567	23
3.89933	23
3.90300	23
3.90667	23
3.91033	23
3.91400	23
3.91767	24
3.92133	24
3.92500	23
3.92867	23
3.93233	23
3.93600	23
3.93967	23
3.94333	23
3.94700	23
3.95067	23
3.95433	23
3.95800	23
3.96167	23
3.96533	23
3.96900	23
3.97267	23
3.97633	23
3.98000	23
3.98367	23
3.98733	23
3.99100	23
3.99467	23
3.99833	23

[Chromatogram (Ch3)]
Interval(msec)	220
# of Points	1091
Start Time(min)	0.002
End Time(min)	3.998
R.Time (min)	Intensity
0.00167	-1
0.00533	-1
0.00900	-1
0.01267	-1
0.01633	-1
0.02000	0
0.02367	1
0.02733	-1
0.03100	-1
0.03467	-0
0.03833	1
0.04200	1
0.04567	3
0.04933	4
0.05300	3
0.05667	5
0.06033	7
0.06400	7
0.06767	7
0.07133	9
0.07500	9
0.07867	7
0.08233	5
0.08600	4
0.08967	4
0.09333	5
0.09700	6
0.10067	5
0.10433	4
0.10800	2
0.11167	1
0.11533	1
0.11900	2
0.12267	0
0.12633	0
0.13000	0
0.13367	0
0.13733	2
0.14100	4
0.14467	6
0.14833	6
0.15200	5
0.15567	4
0.15933	2
0.16300	2
0.16667	1
0.17033	0
0.17400	0
0.17767	-1
0.18133	-2
0.18500	1
0.18867	2
0.19233	3
0.19600	2
0.19967	3
0.20333	3
0.20700	2
0.21067	0
0.21433	-2
0.21800	-4
0.22167	-6
0.22533	-6
0.22900	-5
0.23267	-3
0.23633	-3
0.24000	-4
0.24367	-2
0.24733	2
0.25100	4
0.25467	5
0.25833	6
0.26200	5
0.26567	4
0.26933	3
0.27300	2
0.27667	2
0.28033	0
0.28400	-0
0.28767	-2
0.29133	-3
0.29500	-2
0.29867	-3
0.30233	-4
0.30600	-2
0.30967	-0
0.31333	2
0.31700	2
0.32067	4
0.32433	4
0.32800	2
0.33167	0
0.33533	-3
0.33900	1
0.34267	5
0.34633	8
0.35000	10
0.35367	10
0.35733	8
0.36100	6
0.36467	4
0.36833	2
0.37200	3
0.37567	5
0.37933	8
0.38300	8
0.38667	8
0.39033	5
0.39400	3
0.39767	2
0.40133	-0
0.40500	-1
0.40867	-0
0.41233	-2
0.41600	-3
0.41967	-1
0.42333	1
0.42700	3
0.43067	4
0.43433	3
0.43800	4
0.44167	5
0.44533	6
0.44900	6
0.45267	4
0.45633	3
0.46000	4
0.46367	6
0.46733	7
0.47100	7
0.47467	7
0.47833	7
0.48200	8
0.48567	10
0.48933	8
0.49300	9
0.49667	10
0.50033	11
0.50400	9
0.50767	7
0.51133	7
0.51500	8
0.51867	7
0.52233	8
0.52600	9
0.52967	10
0.53333	10
0.53700	11
0.54067	14
0.54433	16
0.54800	16
0.55167	17
0.55533	16
0.55900	14
0.56267	14
0.56633	14
0.57000	16
0.57367	17
0.57733	16
0.58100	13
0.58467	12
0.58833	13
0.59200	15
0.59567	16
0.59933	16
0.60300	17
0.60667	17
0.61033	15
0.61400	15
0.61767	18
0.62133	18
0.62500	17
0.62867	16
0.63233	16
0.63600	17
0.63967	18
0.64333	19
0.64700	21
0.65067	19
0.65433	16
0.65800	15
0.66167	14
0.66533	11
0.66900	12
0.67267	15
0.67633	16
0.68000	16
0.68367	16
0.68733	16
0.69100	17
0.69467	15
0.69833	15
0.70200	16
0.70567	18
0.70933	20
0.71300	23
0.71667	24
0.72033	23
0.72400	22
0.72767	21
0.73133	21
0.73500	21
0.73867	21
0.74233	21
0.74600	21
0.74967	19
0.75333	20
0.75700	18
0.76067	16
0.76433	14
0.76800	14
0.77167	16
0.77533	19
0.77900	19
0.78267	18
0.78633	19
0.79000	19
0.79367	18
0.79733	18
0.80100	20
0.80467	22
0.80833	23
0.81200	22
0.81567	21
0.81933	18
0.82300	17
0.82667	17
0.83033	17
0.83400	17
0.83767	19
0.84133	21
0.84500	22
0.84867	23
0.85233	22
0.85600	22
0.85967	21
0.86333	19
0.86700	18
0.87067	16
0.87433	15
0.87800	16
0.88167	18
0.88533	21
0.88900	22
0.89267	23
0.89633	25
0.90000	26
0.90367	25
0.90733	22
0.91100	19
0.91467	19
0.91833	21
0.92200	21
0.92567	21
0.92933	22
0.93300	22
0.93667	21
0.94033	20
0.94400	17
0.94767	18
0.95133	19
0.95500	21
0.95867	22
0.96233	20
0.96600	19
0.96967	20
0.97333	22
0.97700	24
0.98067	26
0.98433	28
0.98800	28
0.99167	25
0.99533	23
0.99900	21
1.00267	21
1.00633	22
1.01000	24
1.01367	25
1.01733	24
1.02100	22
1.02467	20
1.02833	22
1.03200	23
1.03567	24
1.03933	25
1.04300	25
1.04667	25
1.05033	25
1.05400	25
1.05767	25
1.06133	26
1.06500	26
1.06867	25
1.07233	24
1.07600	23
1.07967	24
1.08333	23
1.08700	23
1.09067	22
1.09433	21
1.09800	19
1.10167	17
1.10533	17
1.10900	17
1.11267	19
1.11633	21
1.12000	21
1.12367	20
1.12733	21
1.13100	18
1.13467	16
1.13833	15
1.14200	14
1.14567	15
1.14933	13
1.15300	12
1.15667	13
1.16033	13
1.16400	14
1.16767	12
1.17133	12
1.17500	12
1.17867	14
1.18233	15
1.18600	16
1.18967	15
1.19333	13
1.19700	10
1.20067	10
1.20433	11
1.20800	14
1.21167	15
1.21533	17
1.21900	16
1.22267	15
1.22633	14
1.23000	14
1.23367	13
1.23733	14
1.24100	15
1.24467	14
1.24833	13
1.25200	11
1.25567	9
1.25933	7
1.26300	7
1.26667	8
1.27033	9
1.27400	10
1.27767	10
1.28133	9
1.28500	7
1.28867	7
1.29233	7
1.29600	7
1.29967	5
1.30333	5
1.30700	5
1.31067	4
1.31433	3
1.31800	4
1.32167	6
1.32533	6
1.32900	6
1.33267	5
1.33633	5
1.34000	6
1.34367	5
1.34733	5
1.35100	7
1.35467	8
1.35833	8
1.36200	7
1.36567	6
1.36933	6
1.37300	5
1.37667	6
1.38033	7
1.38400	6
1.38767	7
1.39133	8
1.39500	8
1.39867	7
1.40233	6
1.40600	5
1.40967	2
1.41333	2
1.41700	3
1.42067	3
1.42433	4
1.42800	5
1.43167	6
1.43533	8
1.43900	9
1.44267	9
1.44633	9
1.45000	9
1.45367	9
1.45733	8
1.46100	6
1.46467	5
1.46833	5
1.47200	7
1.47567	7
1.47933	7
1.48300	6
1.48667	7
1.49033	7
1.49400	7
1.49767	8
1.50133	10
1.50500	11
1.50867	9
1.51233	8
1.51600	7
1.51967	6
1.52333	7
1.52700	7
1.53067	8
1.53433	9
1.53800	8
1.54167	7
1.54533	6
1.54900	7
1.55267	8
1.55633	10
1.56000	11
1.56367	12
1.56733	12
1.57100	11
1.57467	10
1.57833	8
1.58200	6
1.58567	6
1.58933	5
1.59300	3
1.59667	3
1.60033	4
1.60400	5
1.60767	6
1.61133	8
1.61500	7
1.61867	6
1.62233	7
1.62600	9
1.62967	10
1.63333	10
1.63700	9
1.64067	9
1.64433	9
1.64800	9
1.65167	11
1.65533	12
1.65900	12
1.66267	14
1.66633	15
1.67000	14
1.67367	16
1.67733	15
1.68100	16
1.68467	19
1.68833	22
1.69200	23
1.69567	22
1.69933	20
1.70300	18
1.70667	19
1.71033	21
1.71400	21
1.71767	24
1.72133	26
1.72500	26
1.72867	25
1.73233	25
1.73600	26
1.73967	28
1.74333	31
1.74700	32
1.75067	33
1.75433	33
1.75800	33
1.76167	35
1.76533	36
1.76900	38
1.77267	37
1.77633	36
1.78000	37
1.78367	37
1.78733	36
1.79100	36
1.79467	33
1.79833	31
1.80200	33
1.80567	35
1.80933	37
1.81300	39
1.81667	40
1.82033	39
1.82400	39
1.82767	38
1.83133	38
1.83500	40
1.83867	44
1.84233	45
1.84600	47
1.84967	49
1.85333	48
1.85700	49
1.86067	52
1.86433	54
1.86800	54
1.87167	54
1.87533	55
1.87900	55
1.88267	56
1.88633	56
1.89000	58
1.89367	58
1.89733	58
1.90100	58
1.90467	57
1.90833	55
1.91200	54
1.91567	56
1.91933	58
1.92300	60
1.92667	61
1.93033	62
1.93400	65
1.93767	65
1.94133	63
1.94500	63
1.94867	66
1.95233	68
1.95600	68
1.95967	67
1.96333	66
1.96700	67
1.97067	70
1.97433	73
1.97800	74
1.98167	75
1.98533	79
1.98900	83
1.99267	86
1.99633	87
2.00000	88
2.00367	90
2.00733	92
2.01100	95
2.01467	96
2.01833	96
2.02200	96
2.02567	97
2.02933	97
2.03300	99
2.03667	101
2.04033	104
2.04400	105
2.04767	106
2.05133	106
2.05500	105
2.05867	105
2.06233	107
2.06600	109
2.06967	110
2.07333	110
2.07700	110
2.08067	110
2.08433	110
2.08800	110
2.09167	110
2.09533	109
2.09900	107
2.10267	107
2.10633	108
2.11000	111
2.11367	115
2.11733	117
2.12100	121
2.12467	122
2.12833	122
2.13200	120
2.13567	122
2.13933	125
2.14300	127
2.14667	129
2.15033	131
2.15400	133
2.15767	134
2.16133	135
2.16500	138
2.16867	140
2.17233	141
2.17600	143
2.17967	143
2.18333	142
2.18700	142
2.19067	143
2.19433	145
2.19800	147
2.20167	151
2.20533	152
2.20900	153
2.21267	154
2.21633	155
2.22000	155
2.22367	155
2.22733	157
2.23100	158
2.23467	160
2.23833	163
2.24200	168
2.24567	171
2.24933	174
2.25300	177
2.25667	178
2.26033	179
2.26400	179
2.26767	179
2.27133	178
2.27500	177
2.27867	178
2.28233	180
2.28600	182
2.28967	184
2.29333	184
2.29700	183
2.30067	186
2.30433	188
2.30800	188
2.31167	189
2.31533	191
2.31900	193
2.32267	196
2.32633	198
2.33000	200
2.33367	199
2.33733	199
2.34100	201
2.34467	203
2.34833	205
2.35200	206
2.35567	208
2.35933	211
2.36300	212
2.36667	212
2.37033	212
2.37400	214
2.37767	217
2.38133	219
2.38500	218
2.38867	218
2.39233	219
2.39600	221
2.39967	224
2.40333	227
2.40700	232
2.41067	236
2.41433	240
2.41800	243
2.42167	246
2.42533	250
2.42900	254
2.43267	254
2.43633	256
2.44000	260
2.44367	322
2.44733	473
2.45100	632
2.45467	759
2.45833	827
2.46200	823
2.46567	770
2.46933	703
2.47300	648
2.47667	613
2.48033	587
2.48400	556
2.48767	512
2.49133	465
2.49500	420
2.49867	383
2.50233	355
2.50600	335
2.50967	321
2.51333	319
2.51700	328
2.52067	344
2.52433	363
2.52800	378
2.53167	386
2.53533	384
2.53900	372
2.54267	352
2.54633	324
2.55000	294
2.55367	267
2.55733	245
2.56100	226
2.56467	210
2.56833	198
2.57200	193
2.57567	190
2.57933	187
2.58300	184
2.58667	185
2.59033	188
2.59400	188
2.59767	186
2.60133	181
2.60500	174
2.60867	164
2.61233	155
2.61600	146
2.61967	139
2.62333	134
2.62700	131
2.63067	131
2.63433	131
2.63800	131
2.64167	133
2.64533	131
2.64900	129
2.65267	127
2.65633	123
2.66000	117
2.66367	110
2.66733	102
2.67100	93
2.67467	86
2.67833	77
2.68200	69
2.68567	66
2.68933	64
2.69300	60
2.69667	54
2.70033	49
2.70400	47
2.70767	45
2.71133	44
2.71500	44
2.71867	45
2.72233	47
2.72600	50
2.72967	50
2.73333	54
2.73700	58
2.74067	62
2.74433	64
2.74800	67
2.75167	68
2.75533	68
2.75900	69
2.76267	71
2.76633	74
2.77000	79
2.77367	82
2.77733	83
2.78100	83
2.78467	82
2.78833	85
2.79200	88
2.79567	92
2.79933	97
2.80300	102
2.80667	106
2.81033	109
2.81400	112
2.81767	118
2.82133	133
2.82500	163
2.82867	225
2.83233	339
2.83600	526
2.83967	806
2.84333	1198
2.84700	1695
2.85067	2271
2.85433	2891
2.85800	3507
2.86167	4071
2.86533	4536
2.86900	4870
2.87267	5055
2.87633	5089
2.88000	4991
2.88367	4785
2.88733	4505
2.89100	4178
2.89467	3822
2.89833	3459
2.90200	3105
2.90567	2771
2.90933	2465
2.91300	2188
2.91667	1934
2.92033	1705
2.92400	1504
2.92767	1329
2.93133	1177
2.93500	1041
2.93867	921
2.94233	817
2.94600	728
2.94967	650
2.95333	582
2.95700	501
2.96067	398
2.96433	297
2.96800	232
2.97167	204
2.97533	199
2.97900	212
2.98267	239
2.98633	273
2.99000	314
2.99367	353
2.99733	391
3.00100	424
3.00467	453
3.00833	479
3.01200	501
3.01567	521
3.01933	539
3.02300	552
3.02667	559
3.03033	567
3.03400	574
3.03767	577
3.04133	579
3.04500	583
3.04867	585
3.05233	585
3.05600	584
3.05967	584
3.06333	583
3.06700	582
3.07067	580
3.07433	578
3.07800	578
3.08167	579
3.08533	579
3.08900	580
3.09267	580
3.09633	580
3.10000	581
3.10367	581
3.10733	578
3.11100	578
3.11467	581
3.11833	583
3.12200	584
3.12567	587
3.12933	590
3.13300	594
3.13667	597
3.14033	601
3.14400	604
3.14767	607
3.15133	609
3.15500	611
3.15867	614
3.16233	618
3.16600	619
3.16967	620
3.17333	622
3.17700	623
3.18067	625
3.18433	631
3.18800	639
3.19167	646
3.19533	654
3.19900	658
3.20267	659
3.20633	661
3.21000	664
3.21367	669
3.21733	675
3.22100	681
3.22467	687
3.22833	691
3.23200	691
3.23567	692
3.23933	693
3.24300	694
3.24667	696
3.25033	695
3.25400	694
3.25767	693
3.26133	694
3.26500	697
3.26867	698
3.27233	699
3.27600	701
3.27967	702
3.28333	701
3.28700	700
3.29067	701
3.29433	699
3.29800	698
3.30167	695
3.30533	693
3.30900	693
3.31267	694
3.31633	693
3.32000	689
3.32367	687
3.32733	685
3.33100	684
3.33467	682
3.33833	681
3.34200	681
3.34567	681
3.34933	678
3.35300	675
3.35667	671
3.36033	671
3.36400	669
3.36767	666
3.37133	663
3.37500	661
3.37867	660
3.38233	657
3.38600	656
3.38967	656
3.39333	652
3.39700	648
3.40067	646
3.40433	646
3.40800	646
3.41167	646
3.41533	643
3.41900	638
3.42267	635
3.42633	634
3.43000	633
3.43367	633
3.43733	631
3.44100	632
3.44467	633
3.44833	634
3.45200	633
3.45567	632
3.45933	629
3.46300	627
3.46667	625
3.47033	623
3.47400	620
3.47767	619
3.48133	620
3.48500	620
3.48867	621
3.49233	620
3.49600	620
3.49967	619
3.50333	618
3.50700	618
3.51067	619
3.51433	620
3.51800	618
3.52167	617
3.52533	617
3.52900	617
3.53267	618
3.53633	618
3.54000	616
3.54367	614
3.54733	613
3.55100	611
3.55467	611
3.55833	611
3.56200	611
3.56567	611
3.56933	610
3.57300	610
3.57667	610
3.58033	611
3.58400	610
3.58767	611
3.59133	612
3.59500	612
3.59867	612
3.60233	612
3.60600	612
3.60967	611
3.61333	611
3.61700	609
3.62067	610
3.62433	611
3.62800	610
3.63167	610
3.63533	611
3.63900	612
3.64267	612
3.64633	611
3.65000	609
3.65367	609
3.65733	609
3.66100	610
3.66467	611
3.66833	613
3.67200	613
3.67567	613
3.67933	612
3.68300	610
3.68667	609
3.69033	608
3.69400	606
3.69767	604
3.70133	603
3.70500	603
3.70867	604
3.71233	604
3.71600	603
3.71967	601
3.72333	600
3.72700	598
3.73067	596
3.73433	595
3.73800	594
3.74167	593
3.74533	591
3.74900	591
3.75267	592
3.75633	593
3.76000	593
3.76367	592
3.76733	591
3.77100	590
3.77467	590
3.77833	588
3.78200	590
3.78567	592
3.78933	591
3.79300	590
3.79667	587
3.80033	585
3.80400	583
3.80767	582
3.81133	581
3.81500	581
3.81867	579
3.82233	575
3.82600	571
3.82967	569
3.83333	568
3.83700	567
3.84067	566
3.84433	566
3.84800	564
3.85167	561
3.85533	560
3.85900	560
3.86267	557
3.86633	558
3.87000	557
3.87367	557
3.87733	556
3.88100	555
3.88467	553
3.88833	551
3.89200	551
3.89567	550
3.89933	548
3.90300	546
3.90667	543
3.91033	543
3.91400	545
3.91767	548
3.92133	547
3.92500	544
3.92867	543
3.93233	541
3.93600	541
3.93967	540
3.94333	539
3.94700	537
3.95067	534
3.95433	532
3.95800	532
3.96167	531
3.96533	529
3.96900	529
3.97267	528
3.97633	527
3.98000	527
3.98367	526
3.98733	524
3.99100	523
3.99467	521
3.99833	518

[Status Trace (Column Oven Temperature)]
Interval(msec)	1000
# of Points	240
Start Time(min)	0.004
End Time(min)	3.987
Intensity Units	
Intensity Multiplier	1
R.Time (min)	Intensity
0.00395	35.04
0.02062	35.05
0.03728	35.06
0.05395	35.06
0.07062	35.06
0.08728	35.05
0.10395	35.05
0.12062	35.05
0.13728	35.05
0.15395	35.04
0.17062	35.04
0.18728	35.04
0.20395	35.04
0.22062	35.05
0.23728	35.06
0.25395	35.05
0.27062	35.04
0.28728	35.03
0.30395	35.02
0.32062	35.03
0.33728	35.04
0.35395	35.04
0.37062	35.05
0.38728	35.06
0.40395	35.06
0.42062	35.05
0.43728	35.04
0.45395	35.02
0.47062	35.01
0.48728	35.01
0.50395	35.00
0.52062	34.99
0.53728	34.98
0.55395	34.97
0.57062	34.97
0.58728	34.97
0.60395	34.98
0.62062	34.97
0.63728	34.97
0.65395	34.98
0.67062	34.97
0.68728	34.96
0.70395	34.96
0.72062	34.98
0.73728	34.99
0.75395	35.01
0.77062	35.01
0.78728	35.01
0.80395	35.01
0.82062	35.00
0.83728	35.00
0.85395	34.99
0.87062	34.98
0.88728	34.97
0.90395	34.97
0.92062	34.98
0.93728	34.99
0.95395	34.99
0.97062	35.00
0.98728	35.02
1.00395	35.02
1.02062	35.01
1.03728	35.01
1.05395	35.01
1.07062	35.00
1.08728	35.00
1.10395	35.00
1.12062	35.00
1.13728	34.99
1.15395	34.98
1.17062	34.99
1.18728	34.98
1.20395	34.99
1.22062	34.99
1.23728	34.97
1.25395	34.97
1.27062	34.98
1.28728	35.00
1.30395	35.01
1.32062	35.02
1.33728	35.02
1.35395	35.02
1.37062	35.02
1.38728	35.02
1.40395	35.01
1.42062	34.99
1.43728	34.97
1.45395	34.98
1.47062	34.99
1.48728	34.99
1.50395	34.99
1.52062	34.99
1.53728	35.00
1.55395	35.00
1.57062	35.00
1.58728	35.02
1.60395	35.07
1.62062	35.18
1.63728	35.35
1.65395	35.58
1.67062	35.87
1.68728	36.24
1.70395	36.61
1.72062	36.96
1.73728	37.28
1.75395	37.59
1.77062	37.94
1.78728	38.27
1.80395	38.60
1.82062	38.93
1.83728	39.28
1.85395	39.59
1.87062	39.89
1.88728	40.24
1.90395	40.56
1.92062	40.88
1.93728	41.21
1.95395	41.55
1.97062	41.89
1.98728	42.20
2.00395	42.53
2.02062	42.85
2.03728	43.18
2.05395	43.52
2.07062	43.84
2.08728	44.16
2.10395	44.48
2.12062	44.81
2.13728	45.14
2.15395	45.46
2.17062	45.78
2.18728	46.11
2.20395	46.45
2.22062	46.78
2.23728	47.11
2.25395	47.43
2.27062	47.76
2.28728	48.09
2.30395	48.42
2.32062	48.76
2.33728	49.07
2.35395	49.38
2.37062	49.63
2.38728	49.74
2.40395	49.73
2.42062	49.73
2.43728	49.74
2.45395	49.75
2.47062	49.77
2.48728	49.77
2.50395	49.78
2.52062	49.78
2.53728	49.80
2.55395	49.79
2.57062	49.82
2.58728	49.84
2.60395	49.84
2.62062	49.85
2.63728	49.86
2.65395	49.84
2.67062	49.85
2.68728	49.87
2.70395	49.87
2.72062	49.87
2.73728	49.85
2.75395	49.85
2.77062	49.86
2.78728	49.88
2.80395	49.88
2.82062	49.89
2.83728	49.89
2.85395	49.89
2.87062	49.89
2.88728	49.88
2.90395	49.90
2.92062	49.92
2.93728	49.95
2.95395	49.97
2.97062	49.99
2.98728	50.00
3.00395	50.00
3.02062	49.99
3.03728	49.98
3.05395	49.98
3.07062	49.99
3.08728	49.99
3.10395	50.00
3.12062	50.01
3.13728	50.04
3.15395	50.05
3.17062	50.06
3.18728	50.08
3.20395	50.07
3.22062	50.07
3.23728	50.08
3.25395	50.08
3.27062	50.09
3.28728	50.11
3.30395	50.11
3.32062	50.10
3.33728	50.09
3.35395	50.08
3.37062	50.08
3.38728	50.07
3.40395	50.08
3.42062	50.08
3.43728	50.08
3.45395	50.09
3.47062	50.09
3.48728	50.08
3.50395	50.09
3.52062	50.08
3.53728	50.07
3.55395	50.07
3.57062	50.06
3.58728	50.06
3.60395	50.06
3.62062	50.05
3.63728	50.05
3.65395	50.05
3.67062	50.05
3.68728	50.05
3.70395	50.06
3.72062	50.07
3.73728	50.07
3.75395	50.07
3.77062	50.08
3.78728	50.08
3.80395	50.08
3.82062	50.08
3.83728	50.08
3.85395	50.08
3.87062	50.08
3.88728	50.08
3.90395	50.07
3.92062	50.07
3.93728	50.07
3.95395	50.08
3.97062	50.08
3.98728	50.08

[Status Trace (Injection Unit Temperature)]
Interval(msec)	1000
# of Points	240
Start Time(min)	0.004
End Time(min)	3.987
Intensity Units	
Intensity Multiplier	1
R.Time (min)	Intensity
0.00395	99.98
0.02062	99.98
0.03728	99.98
0.05395	99.98
0.07062	99.98
0.08728	99.98
0.10395	99.98
0.12062	99.98
0.13728	99.98
0.15395	99.98
0.17062	99.98
0.18728	99.98
0.20395	99.98
0.22062	99.98
0.23728	99.98
0.25395	99.98
0.27062	99.98
0.28728	99.98
0.30395	99.98
0.32062	99.98
0.33728	99.98
0.35395	99.99
0.37062	99.98
0.38728	99.99
0.40395	99.99
0.42062	99.99
0.43728	99.99
0.45395	99.99
0.47062	99.99
0.48728	99.99
0.50395	99.99
0.52062	99.99
0.53728	99.99
0.55395	99.99
0.57062	99.99
0.58728	99.99
0.60395	99.99
0.62062	99.99
0.63728	99.99
0.65395	99.99
0.67062	99.99
0.68728	99.99
0.70395	99.99
0.72062	99.99
0.73728	99.99
0.75395	99.98
0.77062	99.99
0.78728	99.99
0.80395	99.99
0.82062	99.99
0.83728	99.98
0.85395	99.99
0.87062	99.99
0.88728	99.99
0.90395	99.98
0.92062	99.98
0.93728	99.98
0.95395	99.98
0.97062	99.98
0.98728	99.98
1.00395	99.98
1.02062	99.98
1.03728	99.98
1.05395	99.99
1.07062	99.98
1.08728	99.98
1.10395	99.98
1.12062	99.98
1.13728	99.98
1.15395	99.98
1.17062	99.98
1.18728	99.98
1.20395	99.98
1.22062	99.98
1.23728	99.98
1.25395	99.98
1.27062	99.98
1.28728	99.98
1.30395	99.98
1.32062	99.98
1.33728	99.98
1.35395	99.98
1.37062	99.98
1.38728	99.98
1.40395	99.98
1.42062	99.98
1.43728	99.98
1.45395	99.98
1.47062	99.98
1.48728	99.99
1.50395	99.98
1.52062	99.98
1.53728	99.98
1.55395	99.98
1.57062	99.98
1.58728	99.98
1.60395	99.98
1.62062	99.99
1.63728	99.98
1.65395	99.98
1.67062	99.99
1.68728	99.99
1.70395	99.98
1.72062	99.99
1.73728	99.99
1.75395	99.99
1.77062	99.99
1.78728	99.99
1.80395	99.99
1.82062	99.99
1.83728	99.98
1.85395	99.99
1.87062	99.99
1.88728	99.99
1.90395	99.99
1.92062	99.98
1.93728	99.98
1.95395	99.99
1.97062	99.98
1.98728	99.98
2.00395	99.98
2.02062	99.98
2.03728	99.98
2.05395	99.98
2.07062	99.98
2.08728	99.98
2.10395	99.98
2.12062	99.97
2.13728	99.97
2.15395	99.97
2.17062	99.97
2.18728	99.97
2.20395	99.97
2.22062	99.97
2.23728	99.97
2.25395	99.97
2.27062	99.97
2.28728	99.97
2.30395	99.96
2.32062	99.97
2.33728	99.97
2.35395	99.97
2.37062	99.96
2.38728	99.97
2.40395	99.97
2.42062	99.97
2.43728	99.96
2.45395	99.97
2.47062	99.96
2.48728	99.97
2.50395	99.97
2.52062	99.97
2.53728	99.96
2.55395	99.97
2.57062	99.97
2.58728	99.97
2.60395	99.97
2.62062	99.97
2.63728	99.97
2.65395	99.98
2.67062	99.97
2.68728	99.98
2.70395	99.98
2.72062	99.98
2.73728	99.98
2.75395	99.98
2.77062	99.98
2.78728	99.98
2.80395	99.99
2.82062	99.99
2.83728	99.99
2.85395	99.99
2.87062	100.00
2.88728	100.00
2.90395	100.00
2.92062	100.00
2.93728	100.00
2.95395	100.01
2.97062	100.01
2.98728	100.01
3.00395	100.01
3.02062	100.01
3.03728	100.01
3.05395	100.01
3.07062	100.02
3.08728	100.02
3.10395	100.02
3.12062	100.02
3.13728	100.02
3.15395	100.02
3.17062	100.02
3.18728	100.02
3.20395	100.03
3.22062	100.02
3.23728	100.02
3.25395	100.03
3.27062	100.03
3.28728	100.03
3.30395	100.03
3.32062	100.03
3.33728	100.02
3.35395	100.02
3.37062	100.03
3.38728	100.03
3.40395	100.03
3.42062	100.03
3.43728	100.03
3.45395	100.03
3.47062	100.03
3.48728	100.03
3.50395	100.03
3.52062	100.03
3.53728	100.03
3.55395	100.03
3.57062	100.03
3.58728	100.03
3.60395	100.03
3.62062	100.03
3.63728	100.04
3.65395	100.04
3.67062	100.03
3.68728	100.03
3.70395	100.03
3.72062	100.04
3.73728	100.04
3.75395	100.04
3.77062	100.04
3.78728	100.04
3.80395	100.04
3.82062	100.04
3.83728	100.04
3.85395	100.04
3.87062	100.04
3.88728	100.04
3.90395	100.04
3.92062	100.04
3.93728	100.04
3.95395	100.04
3.97062	100.04
3.98728	100.04

[Status Trace (Carrier Gas Pressure)]
Interval(msec)	1000
# of Points	240
Start Time(min)	0.004
End Time(min)	3.987
Intensity Units	
Intensity Multiplier	1
R.Time (min)	Intensity
0.00395	58.00
0.02062	55.92
0.03728	56.51
0.05395	58.78
0.07062	59.75
0.08728	58.22
0.10395	57.97
0.12062	58.01
0.13728	58.01
0.15395	58.01
0.17062	58.00
0.18728	58.00
0.20395	58.00
0.22062	58.00
0.23728	58.00
0.25395	58.00
0.27062	58.00
0.28728	58.00
0.30395	58.00
0.32062	58.00
0.33728	58.00
0.35395	58.00
0.37062	58.00
0.38728	58.00
0.40395	58.00
0.42062	58.00
0.43728	58.00
0.45395	58.00
0.47062	58.00
0.48728	58.00
0.50395	58.00
0.52062	58.00
0.53728	58.00
0.55395	58.00
0.57062	58.00
0.58728	58.00
0.60395	58.00
0.62062	58.00
0.63728	58.00
0.65395	58.00
0.67062	58.00
0.68728	58.00
0.70395	58.00
0.72062	58.00
0.73728	58.00
0.75395	58.00
0.77062	58.00
0.78728	58.00
0.80395	58.00
0.82062	58.00
0.83728	58.00
0.85395	58.00
0.87062	58.00
0.88728	58.00
0.90395	58.00
0.92062	58.00
0.93728	58.00
0.95395	58.00
0.97062	58.00
0.98728	58.00
1.00395	58.00
1.02062	58.00
1.03728	58.00
1.05395	58.00
1.07062	58.00
1.08728	58.00
1.10395	58.00
1.12062	58.00
1.13728	58.00
1.15395	58.00
1.17062	58.00
1.18728	58.00
1.20395	58.00
1.22062	58.00
1.23728	58.00
1.25395	58.00
1.27062	58.00
1.28728	58.00
1.30395	58.00
1.32062	58.00
1.33728	58.00
1.35395	58.00
1.37062	58.00
1.38728	58.00
1.40395	58.00
1.42062	58.00
1.43728	58.00
1.45395	58.00
1.47062	58.00
1.48728	58.00
1.50395	58.00
1.52062	58.00
1.53728	58.00
1.55395	58.00
1.57062	58.00
1.58728	58.00
1.60395	58.00
1.62062	58.00
1.63728	58.01
1.65395	58.00
1.67062	58.00
1.68728	58.01
1.70395	58.00
1.72062	58.00
1.73728	58.00
1.75395	58.00
1.77062	58.00
1.78728	58.00
1.80395	58.00
1.82062	58.00
1.83728	58.00
1.85395	58.00
1.87062	58.00
1.88728	58.00
1.90395	58.00
1.92062	58.00
1.93728	58.00
1.95395	58.00
1.97062	58.00
1.98728	58.00
2.00395	58.00
2.02062	58.00
2.03728	58.00
2.05395	58.00
2.07062	58.00
2.08728	58.00
2.10395	58.00
2.12062	58.00
2.13728	58.00
2.15395	58.00
2.17062	58.00
2.18728	58.00
2.20395	58.00
2.22062	58.00
2.23728	58.00
2.25395	58.00
2.27062	58.00
2.28728	58.00
2.30395	58.00
2.32062	58.00
2.33728	58.00
2.35395	58.00
2.37062	58.00
2.38728	57.99
2.40395	57.99
2.42062	58.00
2.43728	58.00
2.45395	58.00
2.47062	58.00
2.48728	58.00
2.50395	57.98
2.52062	57.99
2.53728	57.99
2.55395	58.00
2.57062	58.00
2.58728	58.00
2.60395	58.00
2.62062	58.00
2.63728	58.00
2.65395	58.00
2.67062	58.00
2.68728	58.00
2.70395	58.00
2.72062	58.00
2.73728	58.00
2.75395	58.00
2.77062	58.00
2.78728	58.00
2.80395	58.00
2.82062	58.00
2.83728	58.00
2.85395	58.00
2.87062	58.00
2.88728	58.00
2.90395	58.00
2.92062	58.00
2.93728	58.00
2.95395	58.00
2.97062	58.00
2.98728	58.00
3.00395	58.00
3.02062	58.00
3.03728	58.00
3.05395	58.00
3.07062	58.00
3.08728	58.00
3.10395	58.00
3.12062	58.00
3.13728	58.00
3.15395	58.00
3.17062	58.00
3.18728	58.00
3.20395	58.00
3.22062	58.00
3.23728	58.00
3.25395	58.00
3.27062	58.00
3.28728	58.00
3.30395	58.00
3.32062	58.00
3.33728	58.00
3.35395	58.00
3.37062	58.00
3.38728	58.00
3.40395	58.00
3.42062	58.00
3.43728	58.00
3.45395	58.00
3.47062	58.00
3.48728	58.00
3.50395	58.00
3.52062	58.00
3.53728	58.00
3.55395	58.00
3.57062	58.00
3.58728	58.00
3.60395	58.00
3.62062	58.00
3.63728	58.00
3.65395	58.00
3.67062	58.00
3.68728	58.00
3.70395	58.00
3.72062	58.00
3.73728	58.00
3.75395	58.00
3.77062	58.00
3.78728	58.00
3.80395	58.00
3.82062	58.00
3.83728	58.00
3.85395	58.00
3.87062	58.00
3.88728	58.00
3.90395	58.00
3.92062	58.00
3.93728	58.00
3.95395	58.00
3.97062	58.00
3.98728	58.00

[Status Trace (Carrier Gas Flow)]
Interval(msec)	1000
# of Points	240
Start Time(min)	0.004
End Time(min)	3.987
Intensity Units	
Intensity Multiplier	1
R.Time (min)	Intensity
0.00395	34.52
0.02062	34.57
0.03728	34.54
0.05395	34.55
0.07062	34.49
0.08728	34.52
0.10395	34.52
0.12062	34.51
0.13728	34.52
0.15395	34.52
0.17062	34.52
0.18728	34.52
0.20395	34.52
0.22062	34.52
0.23728	34.52
0.25395	34.52
0.27062	34.52
0.28728	34.52
0.30395	34.52
0.32062	34.52
0.33728	34.51
0.35395	34.52
0.37062	34.51
0.38728	34.51
0.40395	34.52
0.42062	34.52
0.43728	34.52
0.45395	34.52
0.47062	34.52
0.48728	34.52
0.50395	34.52
0.52062	34.52
0.53728	34.51
0.55395	34.51
0.57062	34.52
0.58728	34.52
0.60395	34.52
0.62062	34.52
0.63728	34.52
0.65395	34.52
0.67062	34.51
0.68728	34.52
0.70395	34.52
0.72062	34.52
0.73728	34.52
0.75395	34.52
0.77062	34.52
0.78728	34.52
0.80395	34.52
0.82062	34.52
0.83728	34.52
0.85395	34.52
0.87062	34.52
0.88728	34.52
0.90395	34.52
0.92062	34.52
0.93728	34.52
0.95395	34.52
0.97062	34.52
0.98728	34.52
1.00395	34.51
1.02062	34.52
1.03728	34.52
1.05395	34.52
1.07062	34.52
1.08728	34.52
1.10395	34.52
1.12062	34.52
1.13728	34.52
1.15395	34.52
1.17062	34.53
1.18728	34.53
1.20395	34.51
1.22062	34.52
1.23728	34.52
1.25395	34.52
1.27062	34.52
1.28728	34.52
1.30395	34.52
1.32062	34.52
1.33728	34.52
1.35395	34.52
1.37062	34.52
1.38728	34.52
1.40395	34.52
1.42062	34.52
1.43728	34.52
1.45395	34.52
1.47062	34.52
1.48728	34.52
1.50395	34.52
1.52062	34.51
1.53728	34.52
1.55395	34.52
1.57062	34.52
1.58728	34.52
1.60395	34.52
1.62062	34.52
1.63728	34.52
1.65395	34.51
1.67062	34.52
1.68728	34.52
1.70395	34.52
1.72062	34.51
1.73728	34.52
1.75395	34.52
1.77062	34.52
1.78728	34.52
1.80395	34.52
1.82062	34.51
1.83728	34.51
1.85395	34.51
1.87062	34.52
1.88728	34.52
1.90395	34.53
1.92062	34.52
1.93728	34.52
1.95395	34.52
1.97062	34.52
1.98728	34.52
2.00395	34.52
2.02062	34.52
2.03728	34.51
2.05395	34.52
2.07062	34.52
2.08728	34.52
2.10395	34.52
2.12062	34.52
2.13728	34.52
2.15395	34.51
2.17062	34.52
2.18728	34.52
2.20395	34.52
2.22062	34.52
2.23728	34.52
2.25395	34.52
2.27062	34.52
2.28728	34.52
2.30395	34.52
2.32062	34.52
2.33728	34.52
2.35395	34.52
2.37062	34.52
2.38728	34.52
2.40395	34.52
2.42062	34.52
2.43728	34.52
2.45395	34.52
2.47062	34.52
2.48728	34.52
2.50395	34.62
2.52062	34.52
2.53728	34.52
2.55395	34.52
2.57062	34.52
2.58728	34.52
2.60395	34.52
2.62062	34.52
2.63728	34.52
2.65395	34.51
2.67062	34.52
2.68728	34.52
2.70395	34.52
2.72062	34.52
2.73728	34.51
2.75395	34.52
2.77062	34.53
2.78728	34.51
2.80395	34.52
2.82062	34.52
2.83728	34.52
2.85395	34.52
2.87062	34.52
2.88728	34.52
2.90395	34.53
2.92062	34.51
2.93728	34.52
2.95395	34.52
2.97062	34.52
2.98728	34.52
3.00395	34.53
3.02062	34.52
3.03728	34.51
3.05395	34.52
3.07062	34.52
3.08728	34.52
3.10395	34.52
3.12062	34.52
3.13728	34.52
3.15395	34.52
3.17062	34.52
3.18728	34.52
3.20395	34.52
3.22062	34.53
3.23728	34.52
3.25395	34.52
3.27062	34.52
3.28728	34.52
3.30395	34.52
3.32062	34.52
3.33728	34.52
3.35395	34.52
3.37062	34.52
3.38728	34.52
3.40395	34.52
3.42062	34.52
3.43728	34.52
3.45395	34.52
3.47062	34.52
3.48728	34.52
3.50395	34.51
3.52062	34.52
3.53728	34.52
3.55395	34.51
3.57062	34.51
3.58728	34.52
3.60395	34.52
3.62062	34.52
3.63728	34.51
3.65395	34.52
3.67062	34.52
3.68728	34.52
3.70395	34.51
3.72062	34.52
3.73728	34.52
3.75395	34.51
3.77062	34.51
3.78728	34.53
3.80395	34.52
3.82062	34.52
3.83728	34.52
3.85395	34.51
3.87062	34.52
3.88728	34.52
3.90395	34.52
3.92062	34.52
3.93728	34.52
3.95395	34.52
3.97062	34.52
3.98728	34.52

[Status Trace (Column Flow)]
Interval(msec)	1000
# of Points	240
Start Time(min)	0.004
End Time(min)	3.987
Intensity Units	
Intensity Multiplier	1
R.Time (min)	Intensity
0.00395	5.52
0.02062	5.28
0.03728	5.35
0.05395	5.61
0.07062	5.73
0.08728	5.55
0.10395	5.52
0.12062	5.52
0.13728	5.52
0.15395	5.52
0.17062	5.52
0.18728	5.52
0.20395	5.52
0.22062	5.52
0.23728	5.52
0.25395	5.52
0.27062	5.52
0.28728	5.52
0.30395	5.52
0.32062	5.52
0.33728	5.52
0.35395	5.52
0.37062	5.52
0.38728	5.52
0.40395	5.52
0.42062	5.52
0.43728	5.52
0.45395	5.52
0.47062	5.52
0.48728	5.52
0.50395	5.52
0.52062	5.52
0.53728	5.52
0.55395	5.52
0.57062	5.52
0.58728	5.52
0.60395	5.52
0.62062	5.52
0.63728	5.52
0.65395	5.52
0.67062	5.52
0.68728	5.53
0.70395	5.53
0.72062	5.52
0.73728	5.52
0.75395	5.52
0.77062	5.52
0.78728	5.52
0.80395	5.52
0.82062	5.52
0.83728	5.52
0.85395	5.52
0.87062	5.52
0.88728	5.52
0.90395	5.52
0.92062	5.52
0.93728	5.52
0.95395	5.52
0.97062	5.52
0.98728	5.52
1.00395	5.52
1.02062	5.52
1.03728	5.52
1.05395	5.52
1.07062	5.52
1.08728	5.52
1.10395	5.52
1.12062	5.52
1.13728	5.52
1.15395	5.52
1.17062	5.52
1.18728	5.52
1.20395	5.52
1.22062	5.52
1.23728	5.52
1.25395	5.52
1.27062	5.52
1.28728	5.52
1.30395	5.52
1.32062	5.52
1.33728	5.52
1.35395	5.52
1.37062	5.52
1.38728	5.52
1.40395	5.52
1.42062	5.52
1.43728	5.52
1.45395	5.52
1.47062	5.52
1.48728	5.52
1.50395	5.52
1.52062	5.52
1.53728	5.52
1.55395	5.52
1.57062	5.52
1.58728	5.52
1.60395	5.52
1.62062	5.52
1.63728	5.51
1.65395	5.51
1.67062	5.50
1.68728	5.49
1.70395	5.47
1.72062	5.46
1.73728	5.45
1.75395	5.44
1.77062	5.43
1.78728	5.42
1.80395	5.41
1.82062	5.40
1.83728	5.39
1.85395	5.38
1.87062	5.37
1.88728	5.36
1.90395	5.35
1.92062	5.34
1.93728	5.33
1.95395	5.32
1.97062	5.31
1.98728	5.30
2.00395	5.29
2.02062	5.28
2.03728	5.28
2.05395	5.27
2.07062	5.26
2.08728	5.25
2.10395	5.24
2.12062	5.23
2.13728	5.22
2.15395	5.21
2.17062	5.20
2.18728	5.19
2.20395	5.18
2.22062	5.17
2.23728	5.16
2.25395	5.15
2.27062	5.14
2.28728	5.13
2.30395	5.12
2.32062	5.12
2.33728	5.11
2.35395	5.10
2.37062	5.09
2.38728	5.09
2.40395	5.09
2.42062	5.09
2.43728	5.09
2.45395	5.09
2.47062	5.09
2.48728	5.09
2.50395	5.08
2.52062	5.09
2.53728	5.09
2.55395	5.09
2.57062	5.09
2.58728	5.09
2.60395	5.08
2.62062	5.08
2.63728	5.08
2.65395	5.08
2.67062	5.08
2.68728	5.08
2.70395	5.08
2.72062	5.08
2.73728	5.08
2.75395	5.08
2.77062	5.08
2.78728	5.08
2.80395	5.08
2.82062	5.08
2.83728	5.08
2.85395	5.08
2.87062	5.08
2.88728	5.08
2.90395	5.08
2.92062	5.08
2.93728	5.08
2.95395	5.08
2.97062	5.08
2.98728	5.08
3.00395	5.08
3.02062	5.08
3.03728	5.08
3.05395	5.08
3.07062	5.08
3.08728	5.08
3.10395	5.08
3.12062	5.08
3.13728	5.08
3.15395	5.08
3.17062	5.08
3.18728	5.08
3.20395	5.08
3.22062	5.08
3.23728	5.08
3.25395	5.08
3.27062	5.08
3.28728	5.08
3.30395	5.08
3.32062	5.08
3.33728	5.08
3.35395	5.08
3.37062	5.08
3.38728	5.08
3.40395	5.08
3.42062	5.08
3.43728	5.08
3.45395	5.08
3.47062	5.08
3.48728	5.08
3.50395	5.08
3.52062	5.08
3.53728	5.08
3.55395	5.08
3.57062	5.08
3.58728	5.08
3.60395	5.08
3.62062	5.08
3.63728	5.08
3.65395	5.08
3.67062	5.08
3.68728	5.08
3.70395	5.08
3.72062	5.08
3.73728	5.08
3.75395	5.08
3.77062	5.08
3.78728	5.08
3.80395	5.08
3.82062	5.08
3.83728	5.08
3.85395	5.08
3.87062	5.08
3.88728	5.08
3.90395	5.08
3.92062	5.08
3.93728	5.08
3.95395	5.08
3.97062	5.08
3.98728	5.08

[Status Trace (Linear Velocity)]
Interval(msec)	1000
# of Points	240
Start Time(min)	0.004
End Time(min)	3.987
Intensity Units	
Intensity Multiplier	1
R.Time (min)	Intensity
0.00395	39.01
0.02062	37.65
0.03728	38.03
0.05395	39.52
0.07062	40.16
0.08728	39.16
0.10395	38.99
0.12062	39.02
0.13728	39.02
0.15395	39.02
0.17062	39.02
0.18728	39.02
0.20395	39.01
0.22062	39.01
0.23728	39.01
0.25395	39.01
0.27062	39.01
0.28728	39.02
0.30395	39.02
0.32062	39.02
0.33728	39.01
0.35395	39.01
0.37062	39.01
0.38728	39.01
0.40395	39.01
0.42062	39.01
0.43728	39.01
0.45395	39.01
0.47062	39.02
0.48728	39.02
0.50395	39.02
0.52062	39.02
0.53728	39.02
0.55395	39.02
0.57062	39.02
0.58728	39.02
0.60395	39.02
0.62062	39.02
0.63728	39.02
0.65395	39.02
0.67062	39.02
0.68728	39.02
0.70395	39.02
0.72062	39.02
0.73728	39.02
0.75395	39.02
0.77062	39.02
0.78728	39.02
0.80395	39.02
0.82062	39.02
0.83728	39.02
0.85395	39.02
0.87062	39.02
0.88728	39.02
0.90395	39.02
0.92062	39.02
0.93728	39.02
0.95395	39.02
0.97062	39.02
0.98728	39.02
1.00395	39.02
1.02062	39.02
1.03728	39.02
1.05395	39.02
1.07062	39.02
1.08728	39.02
1.10395	39.02
1.12062	39.02
1.13728	39.02
1.15395	39.02
1.17062	39.02
1.18728	39.02
1.20395	39.02
1.22062	39.02
1.23728	39.02
1.25395	39.02
1.27062	39.02
1.28728	39.02
1.30395	39.02
1.32062	39.02
1.33728	39.02
1.35395	39.02
1.37062	39.02
1.38728	39.02
1.40395	39.02
1.42062	39.02
1.43728	39.02
1.45395	39.02
1.47062	39.02
1.48728	39.02
1.50395	39.02
1.52062	39.02
1.53728	39.02
1.55395	39.02
1.57062	39.02
1.58728	39.02
1.60395	39.01
1.62062	39.00
1.63728	38.99
1.65395	38.96
1.67062	38.94
1.68728	38.91
1.70395	38.86
1.72062	38.83
1.73728	38.80
1.75395	38.77
1.77062	38.74
1.78728	38.71
1.80395	38.67
1.82062	38.64
1.83728	38.61
1.85395	38.58
1.87062	38.55
1.88728	38.53
1.90395	38.49
1.92062	38.46
1.93728	38.43
1.95395	38.40
1.97062	38.37
1.98728	38.34
2.00395	38.31
2.02062	38.28
2.03728	38.25
2.05395	38.22
2.07062	38.19
2.08728	38.16
2.10395	38.13
2.12062	38.10
2.13728	38.07
2.15395	38.04
2.17062	38.01
2.18728	37.98
2.20395	37.95
2.22062	37.92
2.23728	37.89
2.25395	37.86
2.27062	37.83
2.28728	37.81
2.30395	37.77
2.32062	37.74
2.33728	37.72
2.35395	37.69
2.37062	37.66
2.38728	37.65
2.40395	37.65
2.42062	37.66
2.43728	37.66
2.45395	37.65
2.47062	37.65
2.48728	37.65
2.50395	37.64
2.52062	37.64
2.53728	37.65
2.55395	37.65
2.57062	37.65
2.58728	37.65
2.60395	37.65
2.62062	37.65
2.63728	37.65
2.65395	37.65
2.67062	37.65
2.68728	37.65
2.70395	37.64
2.72062	37.64
2.73728	37.65
2.75395	37.65
2.77062	37.65
2.78728	37.64
2.80395	37.64
2.82062	37.64
2.83728	37.64
2.85395	37.64
2.87062	37.64
2.88728	37.64
2.90395	37.64
2.92062	37.64
2.93728	37.64
2.95395	37.64
2.97062	37.63
2.98728	37.63
3.00395	37.63
3.02062	37.63
3.03728	37.63
3.05395	37.64
3.07062	37.63
3.08728	37.63
3.10395	37.63
3.12062	37.63
3.13728	37.63
3.15395	37.63
3.17062	37.63
3.18728	37.63
3.20395	37.63
3.22062	37.63
3.23728	37.63
3.25395	37.63
3.27062	37.62
3.28728	37.62
3.30395	37.62
3.32062	37.62
3.33728	37.62
3.35395	37.63
3.37062	37.63
3.38728	37.63
3.40395	37.63
3.42062	37.63
3.43728	37.63
3.45395	37.63
3.47062	37.63
3.48728	37.63
3.50395	37.63
3.52062	37.63
3.53728	37.63
3.55395	37.63
3.57062	37.63
3.58728	37.63
3.60395	37.63
3.62062	37.63
3.63728	37.63
3.65395	37.63
3.67062	37.63
3.68728	37.63
3.70395	37.63
3.72062	37.63
3.73728	37.63
3.75395	37.63
3.77062	37.63
3.78728	37.63
3.80395	37.63
3.82062	37.63
3.83728	37.63
3.85395	37.63
3.87062	37.63
3.88728	37.63
3.90395	37.63
3.92062	37.63
3.93728	37.63
3.95395	37.63
3.97062	37.63
3.98728	37.63

