[Header]
Application Name	LabSolutions
Version	5.110
Data File Name	C:\Users\User\Desktop\GC Analyses\Jack\Nachusa Grasslands Sampling\T2 Timepoint July 12th\T2_07122022_065.gcd
Output Date	3/14/2023
Output Time	3:42:34 PM

[File Information]
Type	Data File
Generated	3/10/2023 7:40:15 PM
Generated by	System Administrator
Modified	3/10/2023 7:47:05 PM
Modified by	System Administrator

[Sample Information]
Operator Name	System Administrator
Acquired	3/10/2023 7:43:04 PM
Sample Type	0:Unknown
Level	0
Sample Name	065
Sample ID	065
ISTD Amount1	1
ISTD Amount2	1
ISTD Amount3	1
ISTD Amount4	1
ISTD Amount5	1
ISTD Amount6	1
ISTD Amount7	1
ISTD Amount8	1
ISTD Amount9	1
ISTD Amount10	1
ISTD Amount11	1
ISTD Amount12	1
ISTD Amount13	1
ISTD Amount14	1
ISTD Amount15	1
ISTD Amount16	1
ISTD Amount17	1
ISTD Amount18	1
ISTD Amount19	1
ISTD Amount20	1
ISTD Amount21	1
ISTD Amount22	1
ISTD Amount23	1
ISTD Amount24	1
ISTD Amount25	1
ISTD Amount26	1
ISTD Amount27	1
ISTD Amount28	1
ISTD Amount29	1
ISTD Amount30	1
ISTD Amount31	1
ISTD Amount32	1
Sample Amount	1
Dilution Factor	1
Vial#	64
Injection Volume	1
Injection Count	1
Bar Code	

[Original Files]
Data File	C:\Users\User\Desktop\GC Analyses\Jack\Nachusa Grasslands Sampling\T1 Timepoint July 12th\T2_07122022_065.gcd
Method File	C:\LabSolutions\Data\GHG_4min_2022\ghg3_togas_w_acet_4 min_new_int.gcm
Batch File	C:\LabSolutions\Data\AutoSamplerTesting\T2_07122022.gcb
Report Format File	c:\LabSolutions\System\DEFAULT.lsr

[File Description]


[Configuration]
Instrument Name	C0B7VH3-Instrument1
Instrument #	1
Line #	1
# of Detectors	3
Detector ID	DET#1	DET#2	DET#3
Detector Name	FID	PTCD	ECD
# of Channels	1	1	1

[Peak Table(Ch1)]
# of Peaks	3
Peak#	R.Time	I.Time	F.Time	Area	Height	A/H	Conc.	Mark	ID#	Name	k'	Plate #	Plate Ht.	Tailing	Resolution	Sep.Factor	Area Ratio	Height Ratio	Conc. %	Norm Conc.
1	1.479	1.439	1.531	2847	940	3.029	20.103	   	1	CO	0.000	5473	27.406	0.000	0.000	0.000	0	0	2.212	2.212
2	1.567	1.531	1.659	20058	10137	1.979	387.844	 V 	2	CH4	0.059	11485	13.061	1.193	1.271	0.000	0	0	42.668	42.668
3	1.996	1.945	2.594	1996379	949595	2.102	501.037	   	3	CO2	0.349	17383	8.629	1.238	7.206	5.875	0	0	55.121	55.121

[Peak Table(Ch2)]
# of Peaks	0

[Peak Table(Ch3)]
# of Peaks	7
Peak#	R.Time	I.Time	F.Time	Area	Height	A/H	Conc.	Mark	ID#	Name	k'	Plate #	Plate Ht.	Tailing	Resolution	Sep.Factor	Area Ratio	Height Ratio	Conc. %	Norm Conc.
1	0.973	0.731	1.094	222	20	11.181	0.000	   			0.000	432	347.279	0.747	0.000	0.000	0	0	0.000	0.000
2	2.462	2.440	2.510	1637	609	2.686	0.000	   			1.529	11973	12.528	0.000	10.736	0.000	0	0	0.000	0.000
3	2.535	2.510	2.634	1296	326	3.971	0.000	 V 			1.605	6420	23.364	0.000	0.677	1.049	0	0	0.000	0.000
4	2.649	2.634	2.708	212	83	2.570	0.000	 V 			1.722	4413	33.988	0.000	0.795	1.073	0	0	0.000	0.000
5	2.876	2.803	3.067	57407	14971	3.834	1.466	   	1	N2O	1.955	12665	11.843	1.581	1.737	1.136	0	0	100.000	100.000
6	3.192	3.078	3.206	212	64	3.307	0.000	   	2	SF6	2.279	19425	7.722	0.572	3.254	1.166	0	0	0.000	0.000
7	3.397	3.214	3.995	12763	455	28.030	0.000	   	2	SF6	2.490	298	502.527	2.093	0.468	1.093	0	0	0.000	0.000

[Compound Results(Ch1)]
# of IDs	6
ID#	Name	R.Time	Area	Height	Conc.	Curve	3rd	2nd	1st	Constant	Area Ratio	Height Ratio	Conc. %	Norm Conc.
1	CO	1.479	2847	940	20.103	Linear	0.000000e+00	0.000000e+00	1.416423e+002	0.000000e+00	0	0	2.212	2.212
2	CH4	1.567	20058	10137	387.844	Linear	0.000000e+00	0.000000e+00	5.171738e+001	0.000000e+00	0	0	42.668	42.668
3	CO2	1.996	1996379	949595	501.037	Linear	0.000000e+00	0.000000e+00	3.984494e+003	0.000000e+00	0	0	55.121	55.121
4	Ethylene	0.000	0	0	0.000	Linear	0.000000e+00	0.000000e+00	0.000000e+00	0.000000e+00	0	0	0.000	0.000
5	Acetylene	0.000	0	0	0.000	Linear	0.000000e+00	0.000000e+00	0.000000e+00	0.000000e+00	0	0	0.000	0.000
6	Ethane	0.000	0	0	0.000	Linear	0.000000e+00	0.000000e+00	0.000000e+00	0.000000e+00	0	0	0.000	0.000

[Compound Results(Ch2)]
# of IDs	5
ID#	Name	R.Time	Area	Height	Conc.	Curve	3rd	2nd	1st	Constant	Area Ratio	Height Ratio	Conc. %	Norm Conc.
1	Hydrogen	0.000	0	0	0.000	Linear	0.000000e+00	0.000000e+00	0.000000e+00	0.000000e+00	0	0	0.000	0.000
2	Oxygen	0.000	0	0	0.000	Linear	0.000000e+00	0.000000e+00	0.000000e+00	0.000000e+00	0	0	0.000	0.000
3	Nitrogen	0.000	0	0	0.000	Linear	0.000000e+00	0.000000e+00	0.000000e+00	0.000000e+00	0	0	0.000	0.000
4	Methane	0.000	0	0	0.000	Linear	0.000000e+00	0.000000e+00	0.000000e+00	0.000000e+00	0	0	0.000	0.000
5	Carbon Monoxide	0.000	0	0	0.000	Linear	0.000000e+00	0.000000e+00	0.000000e+00	0.000000e+00	0	0	0.000	0.000

[Compound Results(Ch3)]
# of IDs	2
ID#	Name	R.Time	Area	Height	Conc.	Curve	3rd	2nd	1st	Constant	Area Ratio	Height Ratio	Conc. %	Norm Conc.
1	N2O	2.876	57407	14971	1.466	Linear	0.000000e+00	0.000000e+00	3.915173e+004	0.000000e+00	0	0	100.000	100.000
2	SF6	3.397	12975	519	0.000	Linear	0.000000e+00	0.000000e+00	0.000000e+00	0.000000e+00	0	0	0.000	0.000

[Group Results(Ch1)]
# of Groups	0

[Group Results(Ch2)]
# of Groups	0

[Group Results(Ch3)]
# of Groups	0

[Chromatogram (Ch1)]
Interval(msec)	220
# of Points	1091
Start Time(min)	0.002
End Time(min)	3.998
R.Time (min)	Intensity
0.00167	4
0.00533	-2
0.00900	-3
0.01267	-2
0.01633	-1
0.02000	-1
0.02367	1
0.02733	3
0.03100	5
0.03467	9
0.03833	16
0.04200	26
0.04567	34
0.04933	38
0.05300	39
0.05667	38
0.06033	35
0.06400	28
0.06767	22
0.07133	20
0.07500	19
0.07867	18
0.08233	18
0.08600	22
0.08967	31
0.09333	42
0.09700	57
0.10067	71
0.10433	78
0.10800	76
0.11167	64
0.11533	49
0.11900	32
0.12267	19
0.12633	11
0.13000	6
0.13367	5
0.13733	10
0.14100	20
0.14467	33
0.14833	43
0.15200	47
0.15567	48
0.15933	46
0.16300	40
0.16667	33
0.17033	29
0.17400	30
0.17767	32
0.18133	33
0.18500	34
0.18867	38
0.19233	45
0.19600	48
0.19967	49
0.20333	51
0.20700	53
0.21067	54
0.21433	54
0.21800	52
0.22167	48
0.22533	43
0.22900	37
0.23267	29
0.23633	27
0.24000	26
0.24367	26
0.24733	27
0.25100	25
0.25467	24
0.25833	21
0.26200	18
0.26567	21
0.26933	26
0.27300	34
0.27667	40
0.28033	45
0.28400	48
0.28767	44
0.29133	36
0.29500	26
0.29867	20
0.30233	19
0.30600	17
0.30967	14
0.31333	10
0.31700	6
0.32067	2
0.32433	1
0.32800	5
0.33167	12
0.33533	18
0.33900	22
0.34267	24
0.34633	25
0.35000	28
0.35367	28
0.35733	25
0.36100	21
0.36467	19
0.36833	23
0.37200	26
0.37567	24
0.37933	22
0.38300	26
0.38667	34
0.39033	41
0.39400	40
0.39767	33
0.40133	23
0.40500	11
0.40867	1
0.41233	-6
0.41600	-7
0.41967	-1
0.42333	6
0.42700	12
0.43067	21
0.43433	34
0.43800	45
0.44167	50
0.44533	44
0.44900	35
0.45267	25
0.45633	18
0.46000	18
0.46367	21
0.46733	23
0.47100	22
0.47467	22
0.47833	21
0.48200	18
0.48567	14
0.48933	10
0.49300	9
0.49667	13
0.50033	21
0.50400	27
0.50767	28
0.51133	30
0.51500	35
0.51867	37
0.52233	34
0.52600	31
0.52967	26
0.53333	19
0.53700	11
0.54067	6
0.54433	7
0.54800	9
0.55167	9
0.55533	10
0.55900	15
0.56267	22
0.56633	23
0.57000	24
0.57367	28
0.57733	30
0.58100	31
0.58467	35
0.58833	42
0.59200	45
0.59567	43
0.59933	39
0.60300	37
0.60667	38
0.61033	34
0.61400	23
0.61767	13
0.62133	9
0.62500	14
0.62867	21
0.63233	24
0.63600	24
0.63967	23
0.64333	21
0.64700	23
0.65067	28
0.65433	34
0.65800	38
0.66167	40
0.66533	37
0.66900	35
0.67267	34
0.67633	36
0.68000	40
0.68367	46
0.68733	49
0.69100	48
0.69467	45
0.69833	41
0.70200	34
0.70567	29
0.70933	23
0.71300	16
0.71667	10
0.72033	7
0.72400	4
0.72767	5
0.73133	7
0.73500	10
0.73867	15
0.74233	24
0.74600	32
0.74967	35
0.75333	33
0.75700	29
0.76067	26
0.76433	24
0.76800	24
0.77167	27
0.77533	32
0.77900	32
0.78267	28
0.78633	20
0.79000	11
0.79367	3
0.79733	2
0.80100	9
0.80467	20
0.80833	31
0.81200	40
0.81567	45
0.81933	48
0.82300	47
0.82667	41
0.83033	32
0.83400	23
0.83767	17
0.84133	12
0.84500	6
0.84867	-0
0.85233	-5
0.85600	-11
0.85967	-16
0.86333	-18
0.86700	-14
0.87067	-2
0.87433	10
0.87800	20
0.88167	25
0.88533	24
0.88900	21
0.89267	20
0.89633	24
0.90000	26
0.90367	24
0.90733	24
0.91100	27
0.91467	27
0.91833	28
0.92200	31
0.92567	32
0.92933	30
0.93300	31
0.93667	33
0.94033	33
0.94400	34
0.94767	35
0.95133	32
0.95500	35
0.95867	40
0.96233	42
0.96600	47
0.96967	52
0.97333	55
0.97700	59
0.98067	61
0.98433	59
0.98800	55
0.99167	50
0.99533	48
0.99900	45
1.00267	42
1.00633	41
1.01000	44
1.01367	50
1.01733	57
1.02100	64
1.02467	75
1.02833	84
1.03200	90
1.03567	88
1.03933	80
1.04300	75
1.04667	77
1.05033	79
1.05400	78
1.05767	76
1.06133	73
1.06500	74
1.06867	77
1.07233	78
1.07600	79
1.07967	78
1.08333	73
1.08700	67
1.09067	59
1.09433	50
1.09800	47
1.10167	50
1.10533	51
1.10900	53
1.11267	56
1.11633	61
1.12000	64
1.12367	65
1.12733	66
1.13100	68
1.13467	70
1.13833	70
1.14200	69
1.14567	75
1.14933	82
1.15300	81
1.15667	74
1.16033	63
1.16400	53
1.16767	49
1.17133	49
1.17500	52
1.17867	55
1.18233	61
1.18600	72
1.18967	82
1.19333	86
1.19700	80
1.20067	73
1.20433	69
1.20800	65
1.21167	62
1.21533	57
1.21900	54
1.22267	56
1.22633	62
1.23000	63
1.23367	55
1.23733	41
1.24100	30
1.24467	24
1.24833	23
1.25200	25
1.25567	31
1.25933	39
1.26300	46
1.26667	50
1.27033	52
1.27400	53
1.27767	50
1.28133	47
1.28500	48
1.28867	53
1.29233	61
1.29600	67
1.29967	69
1.30333	69
1.30700	67
1.31067	64
1.31433	60
1.31800	58
1.32167	60
1.32533	68
1.32900	70
1.33267	66
1.33633	60
1.34000	57
1.34367	59
1.34733	61
1.35100	59
1.35467	58
1.35833	58
1.36200	57
1.36567	56
1.36933	55
1.37300	59
1.37667	63
1.38033	64
1.38400	66
1.38767	71
1.39133	75
1.39500	76
1.39867	77
1.40233	77
1.40600	78
1.40967	79
1.41333	73
1.41700	64
1.42067	57
1.42433	57
1.42800	57
1.43167	53
1.43533	53
1.43900	85
1.44267	198
1.44633	376
1.45000	549
1.45367	686
1.45733	783
1.46100	852
1.46467	900
1.46833	937
1.47200	973
1.47567	1005
1.47933	1021
1.48300	1002
1.48667	937
1.49033	840
1.49400	734
1.49767	628
1.50133	527
1.50500	435
1.50867	359
1.51233	299
1.51600	251
1.51967	211
1.52333	181
1.52700	160
1.53067	147
1.53433	163
1.53800	292
1.54167	760
1.54533	1839
1.54900	3540
1.55267	5525
1.55633	7383
1.56000	8864
1.56367	9848
1.56733	10210
1.57100	9829
1.57467	8732
1.57833	7173
1.58200	5509
1.58567	4018
1.58933	2828
1.59300	1947
1.59667	1325
1.60033	900
1.60400	618
1.60767	435
1.61133	318
1.61500	241
1.61867	191
1.62233	158
1.62600	134
1.62967	119
1.63333	108
1.63700	100
1.64067	95
1.64433	89
1.64800	82
1.65167	77
1.65533	72
1.65900	64
1.66267	61
1.66633	61
1.67000	58
1.67367	52
1.67733	50
1.68100	49
1.68467	50
1.68833	49
1.69200	50
1.69567	52
1.69933	54
1.70300	57
1.70667	59
1.71033	63
1.71400	71
1.71767	83
1.72133	85
1.72500	76
1.72867	64
1.73233	51
1.73600	41
1.73967	31
1.74333	21
1.74700	15
1.75067	14
1.75433	15
1.75800	17
1.76167	22
1.76533	30
1.76900	40
1.77267	47
1.77633	47
1.78000	46
1.78367	49
1.78733	48
1.79100	46
1.79467	46
1.79833	47
1.80200	45
1.80567	47
1.80933	55
1.81300	63
1.81667	67
1.82033	65
1.82400	62
1.82767	62
1.83133	62
1.83500	64
1.83867	63
1.84233	58
1.84600	55
1.84967	54
1.85333	57
1.85700	61
1.86067	68
1.86433	72
1.86800	70
1.87167	66
1.87533	61
1.87900	53
1.88267	44
1.88633	45
1.89000	51
1.89367	56
1.89733	58
1.90100	59
1.90467	62
1.90833	63
1.91200	67
1.91567	72
1.91933	74
1.92300	72
1.92667	65
1.93033	59
1.93400	54
1.93767	52
1.94133	56
1.94500	63
1.94867	72
1.95233	116
1.95600	402
1.95967	1956
1.96333	8529
1.96700	29589
1.97067	81465
1.97433	180324
1.97800	328226
1.98167	506454
1.98533	683934
1.98900	830137
1.99267	922786
1.99633	949694
2.00000	909736
2.00367	814000
2.00733	683250
2.01100	541682
2.01467	409473
2.01833	298436
2.02200	212136
2.02567	148693
2.02933	103821
2.03300	72879
2.03667	51870
2.04033	37701
2.04400	28134
2.04767	21626
2.05133	17144
2.05500	14000
2.05867	11740
2.06233	10070
2.06600	8804
2.06967	7824
2.07333	7047
2.07700	6416
2.08067	5892
2.08433	5449
2.08800	5073
2.09167	4751
2.09533	4470
2.09900	4220
2.10267	3993
2.10633	3786
2.11000	3597
2.11367	3426
2.11733	3272
2.12100	3128
2.12467	2999
2.12833	2885
2.13200	2780
2.13567	2682
2.13933	2587
2.14300	2496
2.14667	2409
2.15033	2326
2.15400	2248
2.15767	2173
2.16133	2102
2.16500	2035
2.16867	1977
2.17233	1926
2.17600	1878
2.17967	1828
2.18333	1781
2.18700	1739
2.19067	1699
2.19433	1658
2.19800	1617
2.20167	1582
2.20533	1547
2.20900	1510
2.21267	1474
2.21633	1441
2.22000	1410
2.22367	1382
2.22733	1356
2.23100	1332
2.23467	1309
2.23833	1283
2.24200	1255
2.24567	1229
2.24933	1204
2.25300	1178
2.25667	1155
2.26033	1139
2.26400	1128
2.26767	1119
2.27133	1106
2.27500	1090
2.27867	1074
2.28233	1063
2.28600	1051
2.28967	1034
2.29333	1014
2.29700	991
2.30067	967
2.30433	941
2.30800	920
2.31167	903
2.31533	889
2.31900	878
2.32267	871
2.32633	864
2.33000	857
2.33367	849
2.33733	842
2.34100	836
2.34467	825
2.34833	812
2.35200	802
2.35567	796
2.35933	791
2.36300	783
2.36667	776
2.37033	769
2.37400	764
2.37767	762
2.38133	760
2.38500	757
2.38867	753
2.39233	746
2.39600	742
2.39967	735
2.40333	728
2.40700	724
2.41067	720
2.41433	714
2.41800	708
2.42167	701
2.42533	695
2.42900	688
2.43267	680
2.43633	670
2.44000	663
2.44367	658
2.44733	654
2.45100	649
2.45467	645
2.45833	641
2.46200	643
2.46567	646
2.46933	644
2.47300	634
2.47667	625
2.48033	620
2.48400	619
2.48767	616
2.49133	608
2.49500	599
2.49867	591
2.50233	586
2.50600	583
2.50967	582
2.51333	583
2.51700	581
2.52067	578
2.52433	577
2.52800	583
2.53167	588
2.53533	590
2.53900	587
2.54267	580
2.54633	568
2.55000	552
2.55367	538
2.55733	527
2.56100	525
2.56467	529
2.56833	535
2.57200	539
2.57567	544
2.57933	548
2.58300	546
2.58667	537
2.59033	526
2.59400	515
2.59767	506
2.60133	505
2.60500	507
2.60867	509
2.61233	511
2.61600	514
2.61967	512
2.62333	506
2.62700	501
2.63067	504
2.63433	514
2.63800	523
2.64167	527
2.64533	526
2.64900	521
2.65267	515
2.65633	510
2.66000	503
2.66367	493
2.66733	485
2.67100	479
2.67467	479
2.67833	483
2.68200	486
2.68567	488
2.68933	487
2.69300	485
2.69667	481
2.70033	480
2.70400	480
2.70767	479
2.71133	478
2.71500	478
2.71867	480
2.72233	487
2.72600	491
2.72967	488
2.73333	482
2.73700	477
2.74067	470
2.74433	470
2.74800	471
2.75167	470
2.75533	471
2.75900	474
2.76267	476
2.76633	476
2.77000	474
2.77367	475
2.77733	473
2.78100	472
2.78467	475
2.78833	476
2.79200	477
2.79567	476
2.79933	478
2.80300	485
2.80667	493
2.81033	499
2.81400	497
2.81767	487
2.82133	478
2.82500	469
2.82867	460
2.83233	451
2.83600	445
2.83967	446
2.84333	452
2.84700	458
2.85067	464
2.85433	466
2.85800	463
2.86167	456
2.86533	449
2.86900	445
2.87267	447
2.87633	450
2.88000	453
2.88367	453
2.88733	453
2.89100	453
2.89467	454
2.89833	457
2.90200	458
2.90567	452
2.90933	443
2.91300	443
2.91667	447
2.92033	451
2.92400	452
2.92767	448
2.93133	443
2.93500	441
2.93867	442
2.94233	442
2.94600	443
2.94967	445
2.95333	446
2.95700	445
2.96067	440
2.96433	435
2.96800	433
2.97167	434
2.97533	438
2.97900	441
2.98267	441
2.98633	441
2.99000	440
2.99367	441
2.99733	444
3.00100	451
3.00467	461
3.00833	471
3.01200	475
3.01567	473
3.01933	465
3.02300	452
3.02667	440
3.03033	431
3.03400	425
3.03767	421
3.04133	419
3.04500	420
3.04867	422
3.05233	422
3.05600	424
3.05967	429
3.06333	435
3.06700	438
3.07067	433
3.07433	425
3.07800	416
3.08167	409
3.08533	406
3.08900	404
3.09267	398
3.09633	395
3.10000	394
3.10367	393
3.10733	388
3.11100	385
3.11467	385
3.11833	390
3.12200	404
3.12567	411
3.12933	405
3.13300	399
3.13667	397
3.14033	396
3.14400	396
3.14767	397
3.15133	397
3.15500	396
3.15867	400
3.16233	406
3.16600	407
3.16967	404
3.17333	404
3.17700	409
3.18067	413
3.18433	414
3.18800	411
3.19167	407
3.19533	406
3.19900	404
3.20267	400
3.20633	401
3.21000	402
3.21367	396
3.21733	391
3.22100	390
3.22467	388
3.22833	385
3.23200	382
3.23567	379
3.23933	374
3.24300	371
3.24667	371
3.25033	369
3.25400	365
3.25767	361
3.26133	360
3.26500	361
3.26867	364
3.27233	366
3.27600	367
3.27967	370
3.28333	374
3.28700	375
3.29067	376
3.29433	379
3.29800	378
3.30167	374
3.30533	367
3.30900	358
3.31267	353
3.31633	355
3.32000	359
3.32367	362
3.32733	365
3.33100	367
3.33467	370
3.33833	369
3.34200	363
3.34567	359
3.34933	357
3.35300	357
3.35667	356
3.36033	357
3.36400	353
3.36767	348
3.37133	346
3.37500	344
3.37867	344
3.38233	344
3.38600	341
3.38967	337
3.39333	335
3.39700	339
3.40067	347
3.40433	355
3.40800	359
3.41167	361
3.41533	362
3.41900	360
3.42267	359
3.42633	360
3.43000	358
3.43367	353
3.43733	349
3.44100	348
3.44467	348
3.44833	344
3.45200	334
3.45567	321
3.45933	310
3.46300	303
3.46667	300
3.47033	302
3.47400	304
3.47767	299
3.48133	294
3.48500	295
3.48867	301
3.49233	309
3.49600	313
3.49967	313
3.50333	312
3.50700	314
3.51067	317
3.51433	319
3.51800	318
3.52167	312
3.52533	305
3.52900	302
3.53267	307
3.53633	316
3.54000	324
3.54367	327
3.54733	327
3.55100	322
3.55467	316
3.55833	310
3.56200	306
3.56567	309
3.56933	315
3.57300	318
3.57667	319
3.58033	320
3.58400	316
3.58767	306
3.59133	295
3.59500	283
3.59867	275
3.60233	272
3.60600	278
3.60967	288
3.61333	297
3.61700	302
3.62067	301
3.62433	300
3.62800	298
3.63167	296
3.63533	289
3.63900	278
3.64267	266
3.64633	256
3.65000	248
3.65367	242
3.65733	242
3.66100	246
3.66467	254
3.66833	266
3.67200	275
3.67567	278
3.67933	277
3.68300	278
3.68667	278
3.69033	279
3.69400	281
3.69767	282
3.70133	280
3.70500	278
3.70867	278
3.71233	279
3.71600	278
3.71967	278
3.72333	279
3.72700	279
3.73067	276
3.73433	274
3.73800	277
3.74167	281
3.74533	283
3.74900	282
3.75267	277
3.75633	270
3.76000	265
3.76367	262
3.76733	261
3.77100	265
3.77467	269
3.77833	272
3.78200	274
3.78567	278
3.78933	283
3.79300	287
3.79667	285
3.80033	282
3.80400	276
3.80767	270
3.81133	266
3.81500	262
3.81867	258
3.82233	253
3.82600	246
3.82967	243
3.83333	246
3.83700	252
3.84067	256
3.84433	258
3.84800	260
3.85167	262
3.85533	265
3.85900	263
3.86267	256
3.86633	250
3.87000	244
3.87367	239
3.87733	236
3.88100	233
3.88467	231
3.88833	227
3.89200	228
3.89567	232
3.89933	235
3.90300	238
3.90667	242
3.91033	247
3.91400	250
3.91767	250
3.92133	248
3.92500	249
3.92867	246
3.93233	241
3.93600	235
3.93967	232
3.94333	234
3.94700	239
3.95067	246
3.95433	250
3.95800	252
3.96167	251
3.96533	252
3.96900	261
3.97267	267
3.97633	267
3.98000	256
3.98367	241
3.98733	229
3.99100	225
3.99467	222
3.99833	221

[Chromatogram (Ch2)]
Interval(msec)	220
# of Points	1091
Start Time(min)	0.002
End Time(min)	3.998
R.Time (min)	Intensity
0.00167	-1
0.00533	-1
0.00900	-1
0.01267	-1
0.01633	-1
0.02000	-0
0.02367	-0
0.02733	0
0.03100	0
0.03467	0
0.03833	0
0.04200	0
0.04567	0
0.04933	1
0.05300	1
0.05667	1
0.06033	1
0.06400	1
0.06767	1
0.07133	1
0.07500	1
0.07867	1
0.08233	1
0.08600	1
0.08967	1
0.09333	1
0.09700	1
0.10067	1
0.10433	2
0.10800	2
0.11167	2
0.11533	3
0.11900	3
0.12267	3
0.12633	3
0.13000	4
0.13367	4
0.13733	4
0.14100	4
0.14467	4
0.14833	4
0.15200	4
0.15567	3
0.15933	3
0.16300	3
0.16667	3
0.17033	3
0.17400	3
0.17767	3
0.18133	3
0.18500	3
0.18867	3
0.19233	3
0.19600	3
0.19967	3
0.20333	3
0.20700	3
0.21067	3
0.21433	2
0.21800	2
0.22167	2
0.22533	1
0.22900	1
0.23267	1
0.23633	1
0.24000	0
0.24367	0
0.24733	-0
0.25100	-0
0.25467	-1
0.25833	-1
0.26200	-1
0.26567	-1
0.26933	-1
0.27300	-1
0.27667	-1
0.28033	-1
0.28400	-1
0.28767	-0
0.29133	-0
0.29500	-1
0.29867	-1
0.30233	-1
0.30600	-0
0.30967	-0
0.31333	0
0.31700	0
0.32067	1
0.32433	1
0.32800	0
0.33167	0
0.33533	-0
0.33900	-0
0.34267	-0
0.34633	-0
0.35000	-0
0.35367	-0
0.35733	-0
0.36100	-1
0.36467	-1
0.36833	-1
0.37200	-1
0.37567	-0
0.37933	-0
0.38300	-0
0.38667	0
0.39033	0
0.39400	0
0.39767	0
0.40133	0
0.40500	0
0.40867	0
0.41233	0
0.41600	-0
0.41967	-0
0.42333	-0
0.42700	-1
0.43067	-0
0.43433	-0
0.43800	0
0.44167	0
0.44533	0
0.44900	1
0.45267	1
0.45633	0
0.46000	0
0.46367	0
0.46733	-0
0.47100	-0
0.47467	-0
0.47833	-1
0.48200	-1
0.48567	-0
0.48933	-0
0.49300	0
0.49667	0
0.50033	1
0.50400	1
0.50767	2
0.51133	2
0.51500	2
0.51867	2
0.52233	3
0.52600	3
0.52967	3
0.53333	3
0.53700	3
0.54067	2
0.54433	2
0.54800	2
0.55167	2
0.55533	2
0.55900	2
0.56267	2
0.56633	2
0.57000	2
0.57367	1
0.57733	1
0.58100	1
0.58467	1
0.58833	1
0.59200	0
0.59567	0
0.59933	0
0.60300	0
0.60667	-0
0.61033	-0
0.61400	-0
0.61767	-1
0.62133	-1
0.62500	-1
0.62867	-1
0.63233	-1
0.63600	-1
0.63967	-1
0.64333	-2
0.64700	-1
0.65067	-1
0.65433	-1
0.65800	-1
0.66167	-0
0.66533	0
0.66900	0
0.67267	0
0.67633	0
0.68000	0
0.68367	0
0.68733	0
0.69100	-0
0.69467	-1
0.69833	-1
0.70200	-1
0.70567	-1
0.70933	-2
0.71300	-2
0.71667	-2
0.72033	-2
0.72400	-2
0.72767	-2
0.73133	-2
0.73500	-2
0.73867	-1
0.74233	-1
0.74600	-0
0.74967	-0
0.75333	-0
0.75700	-0
0.76067	-0
0.76433	-0
0.76800	-0
0.77167	-0
0.77533	-0
0.77900	-1
0.78267	-1
0.78633	-1
0.79000	-1
0.79367	-1
0.79733	-1
0.80100	-1
0.80467	-1
0.80833	-1
0.81200	-1
0.81567	-1
0.81933	-1
0.82300	-1
0.82667	-1
0.83033	-1
0.83400	-1
0.83767	-1
0.84133	-1
0.84500	-1
0.84867	-0
0.85233	0
0.85600	0
0.85967	0
0.86333	0
0.86700	1
0.87067	1
0.87433	1
0.87800	1
0.88167	1
0.88533	1
0.88900	1
0.89267	1
0.89633	1
0.90000	0
0.90367	0
0.90733	0
0.91100	-0
0.91467	-0
0.91833	-1
0.92200	-1
0.92567	-1
0.92933	-1
0.93300	-1
0.93667	-1
0.94033	-1
0.94400	-1
0.94767	-1
0.95133	-1
0.95500	-1
0.95867	-0
0.96233	-0
0.96600	-0
0.96967	-0
0.97333	-0
0.97700	-0
0.98067	-1
0.98433	-1
0.98800	-1
0.99167	-2
0.99533	-2
0.99900	-3
1.00267	-3
1.00633	-3
1.01000	-3
1.01367	-3
1.01733	-3
1.02100	-3
1.02467	-3
1.02833	-3
1.03200	-3
1.03567	-3
1.03933	-3
1.04300	-3
1.04667	-3
1.05033	-3
1.05400	-4
1.05767	-3
1.06133	-3
1.06500	-3
1.06867	-3
1.07233	-3
1.07600	-2
1.07967	-2
1.08333	-1
1.08700	-1
1.09067	-1
1.09433	-0
1.09800	-0
1.10167	0
1.10533	0
1.10900	0
1.11267	0
1.11633	0
1.12000	0
1.12367	-0
1.12733	-0
1.13100	-1
1.13467	-1
1.13833	-1
1.14200	-2
1.14567	-2
1.14933	-2
1.15300	-3
1.15667	-3
1.16033	-3
1.16400	-3
1.16767	-3
1.17133	-3
1.17500	-2
1.17867	-2
1.18233	-2
1.18600	-2
1.18967	-2
1.19333	-2
1.19700	-2
1.20067	-2
1.20433	-2
1.20800	-2
1.21167	-2
1.21533	-2
1.21900	-2
1.22267	-3
1.22633	-3
1.23000	-3
1.23367	-3
1.23733	-4
1.24100	-4
1.24467	-4
1.24833	-3
1.25200	-3
1.25567	-3
1.25933	-2
1.26300	-2
1.26667	-2
1.27033	-1
1.27400	-1
1.27767	-1
1.28133	-1
1.28500	-1
1.28867	-1
1.29233	-1
1.29600	-2
1.29967	-2
1.30333	-1
1.30700	-1
1.31067	-1
1.31433	-1
1.31800	-1
1.32167	-1
1.32533	-1
1.32900	-1
1.33267	-1
1.33633	-1
1.34000	-0
1.34367	-0
1.34733	-0
1.35100	-0
1.35467	-1
1.35833	-1
1.36200	-1
1.36567	-1
1.36933	-1
1.37300	-1
1.37667	-1
1.38033	-0
1.38400	-0
1.38767	-0
1.39133	0
1.39500	0
1.39867	0
1.40233	0
1.40600	-0
1.40967	-0
1.41333	-1
1.41700	-1
1.42067	-2
1.42433	-3
1.42800	-3
1.43167	-4
1.43533	-4
1.43900	-4
1.44267	-4
1.44633	-4
1.45000	-4
1.45367	-4
1.45733	-4
1.46100	-4
1.46467	-4
1.46833	-4
1.47200	-4
1.47567	-4
1.47933	-4
1.48300	-4
1.48667	-4
1.49033	-3
1.49400	-3
1.49767	-3
1.50133	-3
1.50500	-3
1.50867	-3
1.51233	-3
1.51600	-3
1.51967	-3
1.52333	-3
1.52700	-3
1.53067	-2
1.53433	-2
1.53800	-3
1.54167	-3
1.54533	-2
1.54900	-2
1.55267	-2
1.55633	-2
1.56000	-2
1.56367	-2
1.56733	-2
1.57100	-2
1.57467	-2
1.57833	-2
1.58200	-2
1.58567	-2
1.58933	-2
1.59300	-3
1.59667	-3
1.60033	-4
1.60400	-5
1.60767	-6
1.61133	-8
1.61500	-10
1.61867	-13
1.62233	-15
1.62600	-18
1.62967	-21
1.63333	-24
1.63700	-28
1.64067	-31
1.64433	-35
1.64800	-38
1.65167	-42
1.65533	-46
1.65900	-50
1.66267	-54
1.66633	-58
1.67000	-62
1.67367	-67
1.67733	-71
1.68100	-75
1.68467	-79
1.68833	-83
1.69200	-87
1.69567	-90
1.69933	-93
1.70300	-96
1.70667	-98
1.71033	-100
1.71400	-102
1.71767	-103
1.72133	-104
1.72500	-106
1.72867	-106
1.73233	-107
1.73600	-108
1.73967	-109
1.74333	-109
1.74700	-110
1.75067	-111
1.75433	-111
1.75800	-111
1.76167	-111
1.76533	-110
1.76900	-110
1.77267	-110
1.77633	-110
1.78000	-110
1.78367	-111
1.78733	-111
1.79100	-112
1.79467	-113
1.79833	-114
1.80200	-115
1.80567	-115
1.80933	-116
1.81300	-116
1.81667	-116
1.82033	-116
1.82400	-116
1.82767	-116
1.83133	-116
1.83500	-116
1.83867	-115
1.84233	-115
1.84600	-116
1.84967	-116
1.85333	-116
1.85700	-116
1.86067	-116
1.86433	-115
1.86800	-114
1.87167	-113
1.87533	-113
1.87900	-112
1.88267	-111
1.88633	-111
1.89000	-111
1.89367	-111
1.89733	-112
1.90100	-113
1.90467	-113
1.90833	-113
1.91200	-114
1.91567	-114
1.91933	-114
1.92300	-114
1.92667	-113
1.93033	-113
1.93400	-112
1.93767	-112
1.94133	-111
1.94500	-111
1.94867	-111
1.95233	-110
1.95600	-110
1.95967	-110
1.96333	-110
1.96700	-109
1.97067	-109
1.97433	-109
1.97800	-109
1.98167	-110
1.98533	-111
1.98900	-111
1.99267	-111
1.99633	-111
2.00000	-110
2.00367	-109
2.00733	-109
2.01100	-108
2.01467	-108
2.01833	-108
2.02200	-107
2.02567	-107
2.02933	-107
2.03300	-107
2.03667	-106
2.04033	-106
2.04400	-107
2.04767	-107
2.05133	-106
2.05500	-106
2.05867	-106
2.06233	-105
2.06600	-104
2.06967	-104
2.07333	-103
2.07700	-103
2.08067	-102
2.08433	-102
2.08800	-102
2.09167	-102
2.09533	-101
2.09900	-101
2.10267	-101
2.10633	-100
2.11000	-99
2.11367	-99
2.11733	-99
2.12100	-98
2.12467	-98
2.12833	-97
2.13200	-97
2.13567	-96
2.13933	-96
2.14300	-96
2.14667	-96
2.15033	-95
2.15400	-95
2.15767	-95
2.16133	-95
2.16500	-95
2.16867	-94
2.17233	-94
2.17600	-94
2.17967	-93
2.18333	-93
2.18700	-92
2.19067	-91
2.19433	-91
2.19800	-90
2.20167	-90
2.20533	-90
2.20900	-90
2.21267	-89
2.21633	-89
2.22000	-89
2.22367	-89
2.22733	-90
2.23100	-89
2.23467	-89
2.23833	-89
2.24200	-88
2.24567	-87
2.24933	-86
2.25300	-85
2.25667	-84
2.26033	-84
2.26400	-83
2.26767	-83
2.27133	-83
2.27500	-84
2.27867	-84
2.28233	-85
2.28600	-85
2.28967	-86
2.29333	-86
2.29700	-85
2.30067	-84
2.30433	-83
2.30800	-81
2.31167	-81
2.31533	-80
2.31900	-79
2.32267	-79
2.32633	-78
2.33000	-78
2.33367	-77
2.33733	-77
2.34100	-76
2.34467	-76
2.34833	-76
2.35200	-76
2.35567	-76
2.35933	-76
2.36300	-75
2.36667	-74
2.37033	-72
2.37400	-70
2.37767	-66
2.38133	-63
2.38500	-58
2.38867	-54
2.39233	-49
2.39600	-44
2.39967	-39
2.40333	-34
2.40700	-30
2.41067	-25
2.41433	-22
2.41800	-19
2.42167	-16
2.42533	-15
2.42900	-14
2.43267	-12
2.43633	-11
2.44000	-10
2.44367	-9
2.44733	-7
2.45100	-6
2.45467	-6
2.45833	-6
2.46200	-5
2.46567	-4
2.46933	-3
2.47300	-2
2.47667	-1
2.48033	0
2.48400	2
2.48767	3
2.49133	3
2.49500	4
2.49867	4
2.50233	5
2.50600	5
2.50967	5
2.51333	6
2.51700	7
2.52067	8
2.52433	9
2.52800	9
2.53167	10
2.53533	10
2.53900	11
2.54267	12
2.54633	12
2.55000	13
2.55367	14
2.55733	15
2.56100	15
2.56467	16
2.56833	16
2.57200	16
2.57567	17
2.57933	17
2.58300	17
2.58667	18
2.59033	18
2.59400	18
2.59767	18
2.60133	18
2.60500	18
2.60867	18
2.61233	19
2.61600	19
2.61967	19
2.62333	19
2.62700	19
2.63067	19
2.63433	19
2.63800	20
2.64167	20
2.64533	20
2.64900	21
2.65267	21
2.65633	21
2.66000	22
2.66367	22
2.66733	22
2.67100	22
2.67467	22
2.67833	22
2.68200	22
2.68567	22
2.68933	22
2.69300	22
2.69667	22
2.70033	22
2.70400	22
2.70767	22
2.71133	23
2.71500	23
2.71867	23
2.72233	23
2.72600	23
2.72967	23
2.73333	23
2.73700	23
2.74067	23
2.74433	23
2.74800	23
2.75167	24
2.75533	24
2.75900	25
2.76267	25
2.76633	26
2.77000	26
2.77367	26
2.77733	26
2.78100	26
2.78467	25
2.78833	25
2.79200	25
2.79567	24
2.79933	24
2.80300	24
2.80667	24
2.81033	24
2.81400	24
2.81767	24
2.82133	25
2.82500	25
2.82867	25
2.83233	25
2.83600	25
2.83967	24
2.84333	21
2.84700	17
2.85067	11
2.85433	1
2.85800	-13
2.86167	-32
2.86533	-55
2.86900	-84
2.87267	-119
2.87633	-158
2.88000	-204
2.88367	-254
2.88733	-309
2.89100	-369
2.89467	-434
2.89833	-503
2.90200	-575
2.90567	-650
2.90933	-728
2.91300	-809
2.91667	-892
2.92033	-978
2.92400	-1065
2.92767	-1154
2.93133	-1245
2.93500	-1336
2.93867	-1423
2.94233	-1492
2.94600	-1531
2.94967	-1534
2.95333	-1502
2.95700	-1439
2.96067	-1352
2.96433	-1251
2.96800	-1142
2.97167	-1030
2.97533	-921
2.97900	-817
2.98267	-719
2.98633	-629
2.99000	-548
2.99367	-476
2.99733	-411
3.00100	-354
3.00467	-304
3.00833	-261
3.01200	-223
3.01567	-190
3.01933	-162
3.02300	-138
3.02667	-117
3.03033	-99
3.03400	-84
3.03767	-71
3.04133	-60
3.04500	-51
3.04867	-43
3.05233	-36
3.05600	-30
3.05967	-25
3.06333	-20
3.06700	-16
3.07067	-13
3.07433	-10
3.07800	-7
3.08167	-5
3.08533	-3
3.08900	-1
3.09267	0
3.09633	2
3.10000	3
3.10367	4
3.10733	5
3.11100	6
3.11467	7
3.11833	8
3.12200	9
3.12567	9
3.12933	10
3.13300	11
3.13667	11
3.14033	12
3.14400	12
3.14767	13
3.15133	13
3.15500	14
3.15867	15
3.16233	15
3.16600	16
3.16967	16
3.17333	16
3.17700	16
3.18067	16
3.18433	16
3.18800	16
3.19167	16
3.19533	16
3.19900	17
3.20267	17
3.20633	17
3.21000	18
3.21367	18
3.21733	18
3.22100	18
3.22467	19
3.22833	19
3.23200	19
3.23567	19
3.23933	19
3.24300	19
3.24667	20
3.25033	20
3.25400	20
3.25767	20
3.26133	20
3.26500	21
3.26867	21
3.27233	21
3.27600	22
3.27967	22
3.28333	23
3.28700	23
3.29067	23
3.29433	23
3.29800	24
3.30167	24
3.30533	24
3.30900	24
3.31267	25
3.31633	25
3.32000	25
3.32367	26
3.32733	26
3.33100	26
3.33467	26
3.33833	26
3.34200	26
3.34567	26
3.34933	25
3.35300	25
3.35667	24
3.36033	24
3.36400	24
3.36767	24
3.37133	24
3.37500	24
3.37867	24
3.38233	24
3.38600	24
3.38967	24
3.39333	24
3.39700	24
3.40067	25
3.40433	25
3.40800	25
3.41167	25
3.41533	25
3.41900	25
3.42267	25
3.42633	25
3.43000	25
3.43367	24
3.43733	24
3.44100	24
3.44467	24
3.44833	24
3.45200	24
3.45567	24
3.45933	24
3.46300	24
3.46667	24
3.47033	25
3.47400	25
3.47767	25
3.48133	24
3.48500	24
3.48867	24
3.49233	24
3.49600	24
3.49967	24
3.50333	24
3.50700	24
3.51067	24
3.51433	24
3.51800	24
3.52167	24
3.52533	24
3.52900	24
3.53267	25
3.53633	25
3.54000	25
3.54367	25
3.54733	25
3.55100	25
3.55467	26
3.55833	26
3.56200	26
3.56567	26
3.56933	25
3.57300	25
3.57667	25
3.58033	25
3.58400	25
3.58767	25
3.59133	24
3.59500	24
3.59867	24
3.60233	24
3.60600	24
3.60967	24
3.61333	23
3.61700	23
3.62067	23
3.62433	22
3.62800	22
3.63167	23
3.63533	23
3.63900	23
3.64267	24
3.64633	24
3.65000	24
3.65367	24
3.65733	25
3.66100	25
3.66467	25
3.66833	25
3.67200	25
3.67567	25
3.67933	25
3.68300	25
3.68667	25
3.69033	25
3.69400	24
3.69767	24
3.70133	24
3.70500	24
3.70867	24
3.71233	24
3.71600	25
3.71967	25
3.72333	25
3.72700	25
3.73067	25
3.73433	25
3.73800	25
3.74167	25
3.74533	25
3.74900	25
3.75267	25
3.75633	25
3.76000	25
3.76367	25
3.76733	25
3.77100	26
3.77467	26
3.77833	26
3.78200	26
3.78567	25
3.78933	25
3.79300	25
3.79667	25
3.80033	25
3.80400	25
3.80767	25
3.81133	25
3.81500	25
3.81867	25
3.82233	25
3.82600	26
3.82967	26
3.83333	26
3.83700	25
3.84067	25
3.84433	25
3.84800	25
3.85167	25
3.85533	25
3.85900	24
3.86267	24
3.86633	24
3.87000	24
3.87367	24
3.87733	24
3.88100	24
3.88467	25
3.88833	25
3.89200	25
3.89567	25
3.89933	25
3.90300	25
3.90667	25
3.91033	25
3.91400	25
3.91767	25
3.92133	25
3.92500	25
3.92867	25
3.93233	25
3.93600	25
3.93967	25
3.94333	25
3.94700	25
3.95067	24
3.95433	24
3.95800	24
3.96167	24
3.96533	24
3.96900	25
3.97267	25
3.97633	25
3.98000	25
3.98367	26
3.98733	25
3.99100	25
3.99467	25
3.99833	25

[Chromatogram (Ch3)]
Interval(msec)	220
# of Points	1091
Start Time(min)	0.002
End Time(min)	3.998
R.Time (min)	Intensity
0.00167	1
0.00533	1
0.00900	2
0.01267	5
0.01633	5
0.02000	3
0.02367	3
0.02733	4
0.03100	5
0.03467	4
0.03833	3
0.04200	0
0.04567	-0
0.04933	1
0.05300	2
0.05667	5
0.06033	5
0.06400	4
0.06767	2
0.07133	-0
0.07500	-0
0.07867	2
0.08233	4
0.08600	5
0.08967	5
0.09333	7
0.09700	8
0.10067	8
0.10433	7
0.10800	5
0.11167	3
0.11533	5
0.11900	7
0.12267	7
0.12633	6
0.13000	5
0.13367	3
0.13733	1
0.14100	1
0.14467	2
0.14833	3
0.15200	4
0.15567	5
0.15933	6
0.16300	5
0.16667	3
0.17033	3
0.17400	4
0.17767	4
0.18133	2
0.18500	2
0.18867	2
0.19233	3
0.19600	4
0.19967	5
0.20333	6
0.20700	8
0.21067	9
0.21433	9
0.21800	7
0.22167	6
0.22533	3
0.22900	1
0.23267	2
0.23633	5
0.24000	6
0.24367	6
0.24733	7
0.25100	8
0.25467	7
0.25833	5
0.26200	4
0.26567	4
0.26933	4
0.27300	6
0.27667	7
0.28033	9
0.28400	10
0.28767	9
0.29133	7
0.29500	7
0.29867	7
0.30233	7
0.30600	5
0.30967	3
0.31333	2
0.31700	0
0.32067	3
0.32433	5
0.32800	5
0.33167	6
0.33533	10
0.33900	12
0.34267	13
0.34633	10
0.35000	9
0.35367	8
0.35733	7
0.36100	4
0.36467	4
0.36833	7
0.37200	6
0.37567	5
0.37933	5
0.38300	4
0.38667	4
0.39033	6
0.39400	7
0.39767	7
0.40133	7
0.40500	6
0.40867	5
0.41233	5
0.41600	6
0.41967	4
0.42333	3
0.42700	4
0.43067	5
0.43433	7
0.43800	9
0.44167	9
0.44533	5
0.44900	4
0.45267	4
0.45633	5
0.46000	5
0.46367	4
0.46733	4
0.47100	2
0.47467	1
0.47833	3
0.48200	5
0.48567	7
0.48933	7
0.49300	5
0.49667	3
0.50033	3
0.50400	4
0.50767	5
0.51133	6
0.51500	6
0.51867	8
0.52233	10
0.52600	6
0.52967	3
0.53333	3
0.53700	3
0.54067	3
0.54433	4
0.54800	3
0.55167	3
0.55533	2
0.55900	4
0.56267	5
0.56633	7
0.57000	7
0.57367	6
0.57733	5
0.58100	4
0.58467	2
0.58833	2
0.59200	5
0.59567	6
0.59933	6
0.60300	6
0.60667	7
0.61033	7
0.61400	8
0.61767	10
0.62133	10
0.62500	8
0.62867	8
0.63233	7
0.63600	6
0.63967	7
0.64333	10
0.64700	9
0.65067	7
0.65433	6
0.65800	6
0.66167	4
0.66533	5
0.66900	6
0.67267	7
0.67633	7
0.68000	6
0.68367	6
0.68733	6
0.69100	7
0.69467	8
0.69833	8
0.70200	6
0.70567	8
0.70933	10
0.71300	8
0.71667	5
0.72033	3
0.72400	6
0.72767	8
0.73133	8
0.73500	10
0.73867	11
0.74233	12
0.74600	12
0.74967	12
0.75333	13
0.75700	13
0.76067	14
0.76433	16
0.76800	17
0.77167	18
0.77533	17
0.77900	16
0.78267	14
0.78633	15
0.79000	14
0.79367	15
0.79733	17
0.80100	17
0.80467	17
0.80833	19
0.81200	19
0.81567	21
0.81933	23
0.82300	23
0.82667	23
0.83033	24
0.83400	24
0.83767	23
0.84133	21
0.84500	20
0.84867	20
0.85233	20
0.85600	21
0.85967	22
0.86333	22
0.86700	22
0.87067	20
0.87433	20
0.87800	24
0.88167	25
0.88533	25
0.88900	27
0.89267	27
0.89633	25
0.90000	23
0.90367	24
0.90733	25
0.91100	27
0.91467	28
0.91833	28
0.92200	29
0.92567	29
0.92933	29
0.93300	30
0.93667	31
0.94033	30
0.94400	30
0.94767	30
0.95133	30
0.95500	28
0.95867	26
0.96233	28
0.96600	31
0.96967	34
0.97333	34
0.97700	33
0.98067	32
0.98433	29
0.98800	26
0.99167	23
0.99533	21
0.99900	22
1.00267	25
1.00633	27
1.01000	27
1.01367	26
1.01733	26
1.02100	27
1.02467	28
1.02833	28
1.03200	27
1.03567	26
1.03933	25
1.04300	24
1.04667	23
1.05033	24
1.05400	24
1.05767	23
1.06133	22
1.06500	21
1.06867	21
1.07233	22
1.07600	25
1.07967	25
1.08333	24
1.08700	21
1.09067	19
1.09433	18
1.09800	18
1.10167	17
1.10533	16
1.10900	17
1.11267	19
1.11633	18
1.12000	18
1.12367	19
1.12733	19
1.13100	17
1.13467	17
1.13833	16
1.14200	18
1.14567	18
1.14933	18
1.15300	19
1.15667	22
1.16033	22
1.16400	22
1.16767	23
1.17133	24
1.17500	24
1.17867	21
1.18233	21
1.18600	22
1.18967	22
1.19333	24
1.19700	26
1.20067	26
1.20433	26
1.20800	24
1.21167	23
1.21533	24
1.21900	25
1.22267	27
1.22633	27
1.23000	28
1.23367	28
1.23733	25
1.24100	23
1.24467	21
1.24833	18
1.25200	18
1.25567	18
1.25933	19
1.26300	20
1.26667	20
1.27033	19
1.27400	16
1.27767	16
1.28133	19
1.28500	22
1.28867	24
1.29233	25
1.29600	22
1.29967	18
1.30333	16
1.30700	16
1.31067	18
1.31433	20
1.31800	19
1.32167	19
1.32533	17
1.32900	16
1.33267	17
1.33633	18
1.34000	18
1.34367	18
1.34733	17
1.35100	15
1.35467	15
1.35833	16
1.36200	16
1.36567	16
1.36933	17
1.37300	17
1.37667	16
1.38033	16
1.38400	16
1.38767	16
1.39133	18
1.39500	19
1.39867	21
1.40233	22
1.40600	21
1.40967	19
1.41333	16
1.41700	18
1.42067	21
1.42433	21
1.42800	22
1.43167	22
1.43533	21
1.43900	21
1.44267	20
1.44633	18
1.45000	19
1.45367	19
1.45733	20
1.46100	20
1.46467	21
1.46833	22
1.47200	22
1.47567	22
1.47933	22
1.48300	22
1.48667	19
1.49033	19
1.49400	19
1.49767	19
1.50133	17
1.50500	18
1.50867	20
1.51233	20
1.51600	22
1.51967	24
1.52333	23
1.52700	22
1.53067	22
1.53433	23
1.53800	24
1.54167	24
1.54533	24
1.54900	24
1.55267	25
1.55633	26
1.56000	28
1.56367	29
1.56733	28
1.57100	27
1.57467	28
1.57833	30
1.58200	30
1.58567	30
1.58933	30
1.59300	29
1.59667	27
1.60033	26
1.60400	28
1.60767	28
1.61133	28
1.61500	30
1.61867	32
1.62233	33
1.62600	32
1.62967	31
1.63333	32
1.63700	33
1.64067	33
1.64433	34
1.64800	34
1.65167	32
1.65533	32
1.65900	34
1.66267	37
1.66633	39
1.67000	39
1.67367	39
1.67733	39
1.68100	38
1.68467	37
1.68833	39
1.69200	44
1.69567	46
1.69933	47
1.70300	50
1.70667	52
1.71033	52
1.71400	53
1.71767	54
1.72133	54
1.72500	52
1.72867	52
1.73233	52
1.73600	54
1.73967	55
1.74333	54
1.74700	57
1.75067	59
1.75433	60
1.75800	60
1.76167	60
1.76533	60
1.76900	60
1.77267	61
1.77633	60
1.78000	60
1.78367	60
1.78733	62
1.79100	62
1.79467	62
1.79833	62
1.80200	63
1.80567	64
1.80933	64
1.81300	63
1.81667	63
1.82033	64
1.82400	64
1.82767	66
1.83133	69
1.83500	71
1.83867	72
1.84233	72
1.84600	73
1.84967	72
1.85333	71
1.85700	74
1.86067	76
1.86433	76
1.86800	77
1.87167	80
1.87533	81
1.87900	80
1.88267	79
1.88633	81
1.89000	81
1.89367	81
1.89733	83
1.90100	84
1.90467	83
1.90833	81
1.91200	81
1.91567	83
1.91933	85
1.92300	87
1.92667	89
1.93033	90
1.93400	89
1.93767	88
1.94133	87
1.94500	88
1.94867	89
1.95233	90
1.95600	91
1.95967	93
1.96333	93
1.96700	92
1.97067	92
1.97433	92
1.97800	94
1.98167	96
1.98533	98
1.98900	101
1.99267	103
1.99633	106
2.00000	108
2.00367	110
2.00733	110
2.01100	111
2.01467	113
2.01833	116
2.02200	117
2.02567	119
2.02933	120
2.03300	119
2.03667	118
2.04033	118
2.04400	119
2.04767	121
2.05133	123
2.05500	125
2.05867	126
2.06233	125
2.06600	125
2.06967	126
2.07333	129
2.07700	130
2.08067	133
2.08433	135
2.08800	136
2.09167	138
2.09533	138
2.09900	137
2.10267	137
2.10633	136
2.11000	139
2.11367	142
2.11733	143
2.12100	143
2.12467	142
2.12833	143
2.13200	145
2.13567	148
2.13933	149
2.14300	150
2.14667	153
2.15033	152
2.15400	152
2.15767	152
2.16133	153
2.16500	157
2.16867	160
2.17233	164
2.17600	166
2.17967	167
2.18333	168
2.18700	169
2.19067	169
2.19433	167
2.19800	166
2.20167	168
2.20533	173
2.20900	177
2.21267	180
2.21633	181
2.22000	182
2.22367	182
2.22733	185
2.23100	188
2.23467	192
2.23833	194
2.24200	196
2.24567	194
2.24933	194
2.25300	196
2.25667	198
2.26033	200
2.26400	200
2.26767	199
2.27133	200
2.27500	200
2.27867	200
2.28233	202
2.28600	205
2.28967	208
2.29333	208
2.29700	207
2.30067	207
2.30433	207
2.30800	209
2.31167	211
2.31533	213
2.31900	215
2.32267	216
2.32633	215
2.33000	215
2.33367	217
2.33733	219
2.34100	222
2.34467	222
2.34833	221
2.35200	224
2.35567	227
2.35933	229
2.36300	230
2.36667	230
2.37033	232
2.37400	234
2.37767	236
2.38133	237
2.38500	237
2.38867	236
2.39233	238
2.39600	240
2.39967	243
2.40333	246
2.40700	253
2.41067	259
2.41433	265
2.41800	270
2.42167	272
2.42533	273
2.42900	276
2.43267	276
2.43633	273
2.44000	274
2.44367	333
2.44733	487
2.45100	652
2.45467	789
2.45833	869
2.46200	877
2.46567	844
2.46933	803
2.47300	770
2.47667	750
2.48033	737
2.48400	713
2.48767	676
2.49133	632
2.49500	588
2.49867	549
2.50233	517
2.50600	498
2.50967	490
2.51333	491
2.51700	501
2.52067	520
2.52433	540
2.52800	559
2.53167	572
2.53533	575
2.53900	563
2.54267	540
2.54633	511
2.55000	482
2.55367	453
2.55733	427
2.56100	405
2.56467	388
2.56833	376
2.57200	365
2.57567	360
2.57933	356
2.58300	355
2.58667	356
2.59033	356
2.59400	356
2.59767	355
2.60133	349
2.60500	344
2.60867	335
2.61233	324
2.61600	315
2.61967	307
2.62333	298
2.62700	294
2.63067	295
2.63433	295
2.63800	296
2.64167	298
2.64533	301
2.64900	301
2.65267	300
2.65633	296
2.66000	292
2.66367	286
2.66733	279
2.67100	271
2.67467	259
2.67833	247
2.68200	239
2.68567	233
2.68933	225
2.69300	218
2.69667	213
2.70033	210
2.70400	207
2.70767	203
2.71133	201
2.71500	199
2.71867	198
2.72233	197
2.72600	197
2.72967	199
2.73333	204
2.73700	210
2.74067	212
2.74433	212
2.74800	212
2.75167	214
2.75533	217
2.75900	218
2.76267	220
2.76633	221
2.77000	224
2.77367	226
2.77733	228
2.78100	230
2.78467	231
2.78833	232
2.79200	234
2.79567	239
2.79933	242
2.80300	245
2.80667	248
2.81033	252
2.81400	262
2.81767	279
2.82133	319
2.82500	413
2.82867	610
2.83233	969
2.83600	1553
2.83967	2418
2.84333	3596
2.84700	5063
2.85067	6758
2.85433	8578
2.85800	10391
2.86167	12056
2.86533	13443
2.86900	14460
2.87267	15050
2.87633	15215
2.88000	14993
2.88367	14452
2.88733	13667
2.89100	12728
2.89467	11707
2.89833	10658
2.90200	9623
2.90567	8632
2.90933	7706
2.91300	6855
2.91667	6079
2.92033	5379
2.92400	4751
2.92767	4190
2.93133	3690
2.93500	3248
2.93867	2860
2.94233	2521
2.94600	2225
2.94967	1965
2.95333	1739
2.95700	1541
2.96067	1368
2.96433	1218
2.96800	1088
2.97167	974
2.97533	876
2.97900	790
2.98267	716
2.98633	652
2.99000	595
2.99367	545
2.99733	502
3.00100	465
3.00467	435
3.00833	408
3.01200	384
3.01567	365
3.01933	348
3.02300	333
3.02667	318
3.03033	305
3.03400	295
3.03767	288
3.04133	280
3.04500	270
3.04867	260
3.05233	252
3.05600	248
3.05967	246
3.06333	244
3.06700	241
3.07067	239
3.07433	237
3.07800	235
3.08167	233
3.08533	231
3.08900	229
3.09267	228
3.09633	228
3.10000	227
3.10367	227
3.10733	226
3.11100	226
3.11467	226
3.11833	226
3.12200	227
3.12567	226
3.12933	224
3.13300	224
3.13667	226
3.14033	226
3.14400	225
3.14767	225
3.15133	224
3.15500	222
3.15867	220
3.16233	222
3.16600	225
3.16967	228
3.17333	228
3.17700	227
3.18067	227
3.18433	229
3.18800	230
3.19167	229
3.19533	223
3.19900	200
3.20267	173
3.20633	156
3.21000	154
3.21367	164
3.21733	185
3.22100	215
3.22467	250
3.22833	286
3.23200	323
3.23567	358
3.23933	391
3.24300	421
3.24667	450
3.25033	475
3.25400	497
3.25767	514
3.26133	529
3.26500	543
3.26867	558
3.27233	574
3.27600	587
3.27967	596
3.28333	602
3.28700	611
3.29067	618
3.29433	623
3.29800	627
3.30167	629
3.30533	631
3.30900	638
3.31267	643
3.31633	647
3.32000	652
3.32367	657
3.32733	661
3.33100	666
3.33467	671
3.33833	675
3.34200	679
3.34567	682
3.34933	685
3.35300	689
3.35667	690
3.36033	694
3.36400	699
3.36767	703
3.37133	704
3.37500	707
3.37867	710
3.38233	713
3.38600	715
3.38967	718
3.39333	722
3.39700	725
3.40067	725
3.40433	726
3.40800	728
3.41167	730
3.41533	731
3.41900	732
3.42267	733
3.42633	733
3.43000	732
3.43367	733
3.43733	735
3.44100	737
3.44467	739
3.44833	739
3.45200	740
3.45567	737
3.45933	736
3.46300	737
3.46667	736
3.47033	735
3.47400	735
3.47767	735
3.48133	735
3.48500	733
3.48867	731
3.49233	728
3.49600	725
3.49967	724
3.50333	725
3.50700	727
3.51067	727
3.51433	725
3.51800	722
3.52167	720
3.52533	719
3.52900	717
3.53267	716
3.53633	714
3.54000	712
3.54367	711
3.54733	707
3.55100	705
3.55467	703
3.55833	702
3.56200	701
3.56567	700
3.56933	697
3.57300	695
3.57667	693
3.58033	693
3.58400	693
3.58767	692
3.59133	691
3.59500	691
3.59867	691
3.60233	690
3.60600	689
3.60967	689
3.61333	691
3.61700	694
3.62067	695
3.62433	695
3.62800	694
3.63167	694
3.63533	695
3.63900	693
3.64267	690
3.64633	689
3.65000	690
3.65367	691
3.65733	692
3.66100	693
3.66467	691
3.66833	690
3.67200	690
3.67567	693
3.67933	693
3.68300	691
3.68667	691
3.69033	689
3.69400	689
3.69767	690
3.70133	692
3.70500	691
3.70867	690
3.71233	690
3.71600	689
3.71967	690
3.72333	691
3.72700	691
3.73067	691
3.73433	689
3.73800	690
3.74167	690
3.74533	688
3.74900	689
3.75267	689
3.75633	687
3.76000	684
3.76367	682
3.76733	681
3.77100	681
3.77467	683
3.77833	684
3.78200	682
3.78567	681
3.78933	682
3.79300	681
3.79667	679
3.80033	678
3.80400	677
3.80767	674
3.81133	672
3.81500	671
3.81867	670
3.82233	668
3.82600	666
3.82967	664
3.83333	663
3.83700	664
3.84067	665
3.84433	664
3.84800	663
3.85167	666
3.85533	667
3.85900	666
3.86267	663
3.86633	659
3.87000	656
3.87367	654
3.87733	652
3.88100	651
3.88467	650
3.88833	649
3.89200	650
3.89567	650
3.89933	651
3.90300	650
3.90667	649
3.91033	648
3.91400	645
3.91767	640
3.92133	637
3.92500	636
3.92867	636
3.93233	636
3.93600	636
3.93967	634
3.94333	632
3.94700	631
3.95067	631
3.95433	631
3.95800	628
3.96167	624
3.96533	622
3.96900	619
3.97267	618
3.97633	617
3.98000	619
3.98367	619
3.98733	619
3.99100	618
3.99467	613
3.99833	606

[Status Trace (Column Oven Temperature)]
Interval(msec)	1000
# of Points	240
Start Time(min)	0.009
End Time(min)	3.992
Intensity Units	
Intensity Multiplier	1
R.Time (min)	Intensity
0.00862	35.06
0.02528	35.06
0.04195	35.07
0.05862	35.06
0.07528	35.06
0.09195	35.05
0.10862	35.05
0.12528	35.03
0.14195	35.02
0.15862	35.01
0.17528	35.01
0.19195	35.01
0.20862	35.01
0.22528	35.01
0.24195	35.02
0.25862	35.02
0.27528	35.02
0.29195	35.01
0.30862	35.00
0.32528	35.00
0.34195	35.01
0.35862	35.01
0.37528	35.01
0.39195	35.01
0.40862	35.01
0.42528	35.02
0.44195	35.02
0.45862	35.02
0.47528	35.02
0.49195	35.01
0.50862	34.99
0.52528	34.99
0.54195	34.98
0.55862	34.99
0.57528	34.98
0.59195	34.98
0.60862	34.98
0.62528	34.98
0.64195	34.99
0.65862	34.98
0.67528	34.98
0.69195	34.99
0.70862	35.01
0.72528	35.01
0.74195	35.00
0.75862	35.01
0.77528	35.00
0.79195	35.00
0.80862	35.00
0.82528	35.00
0.84195	34.99
0.85862	34.99
0.87528	34.99
0.89195	34.99
0.90862	34.99
0.92528	35.00
0.94195	34.99
0.95862	34.99
0.97528	35.00
0.99195	35.00
1.00862	35.00
1.02528	35.01
1.04195	35.02
1.05862	35.02
1.07528	35.01
1.09195	35.00
1.10862	34.99
1.12528	35.00
1.14195	35.00
1.15862	35.00
1.17528	35.00
1.19195	35.00
1.20862	34.99
1.22528	35.00
1.24195	35.00
1.25862	34.99
1.27528	34.99
1.29195	34.99
1.30862	34.99
1.32528	34.99
1.34195	34.98
1.35862	34.98
1.37528	34.98
1.39195	34.98
1.40862	34.97
1.42528	34.98
1.44195	34.98
1.45862	34.99
1.47528	35.00
1.49195	35.01
1.50862	35.02
1.52528	35.02
1.54195	35.01
1.55862	35.00
1.57528	34.99
1.59195	35.01
1.60862	35.07
1.62528	35.20
1.64195	35.39
1.65862	35.65
1.67528	35.98
1.69195	36.33
1.70862	36.68
1.72528	37.01
1.74195	37.36
1.75862	37.69
1.77528	38.02
1.79195	38.35
1.80862	38.69
1.82528	39.02
1.84195	39.35
1.85862	39.69
1.87528	40.00
1.89195	40.34
1.90862	40.67
1.92528	41.01
1.94195	41.34
1.95862	41.65
1.97528	42.00
1.99195	42.33
2.00862	42.65
2.02528	42.98
2.04195	43.31
2.05862	43.64
2.07528	43.95
2.09195	44.30
2.10862	44.63
2.12528	44.95
2.14195	45.29
2.15862	45.60
2.17528	45.92
2.19195	46.25
2.20862	46.56
2.22528	46.90
2.24195	47.21
2.25862	47.53
2.27528	47.86
2.29195	48.19
2.30862	48.51
2.32528	48.84
2.34195	49.15
2.35862	49.49
2.37528	49.67
2.39195	49.71
2.40862	49.69
2.42528	49.71
2.44195	49.70
2.45862	49.71
2.47528	49.71
2.49195	49.72
2.50862	49.73
2.52528	49.74
2.54195	49.75
2.55862	49.76
2.57528	49.77
2.59195	49.79
2.60862	49.80
2.62528	49.81
2.64195	49.81
2.65862	49.82
2.67528	49.82
2.69195	49.83
2.70862	49.84
2.72528	49.86
2.74195	49.86
2.75862	49.85
2.77528	49.85
2.79195	49.87
2.80862	49.88
2.82528	49.87
2.84195	49.87
2.85862	49.86
2.87528	49.86
2.89195	49.87
2.90862	49.86
2.92528	49.87
2.94195	49.89
2.95862	49.89
2.97528	49.92
2.99195	49.94
3.00862	49.96
3.02528	49.97
3.04195	49.99
3.05862	50.01
3.07528	50.02
3.09195	50.03
3.10862	50.04
3.12528	50.05
3.14195	50.05
3.15862	50.05
3.17528	50.07
3.19195	50.08
3.20862	50.08
3.22528	50.09
3.24195	50.10
3.25862	50.10
3.27528	50.10
3.29195	50.09
3.30862	50.08
3.32528	50.06
3.34195	50.05
3.35862	50.05
3.37528	50.05
3.39195	50.04
3.40862	50.04
3.42528	50.04
3.44195	50.04
3.45862	50.03
3.47528	50.04
3.49195	50.05
3.50862	50.06
3.52528	50.06
3.54195	50.05
3.55862	50.05
3.57528	50.05
3.59195	50.06
3.60862	50.08
3.62528	50.08
3.64195	50.07
3.65862	50.07
3.67528	50.08
3.69195	50.08
3.70862	50.08
3.72528	50.08
3.74195	50.09
3.75862	50.09
3.77528	50.08
3.79195	50.09
3.80862	50.08
3.82528	50.08
3.84195	50.08
3.85862	50.09
3.87528	50.08
3.89195	50.07
3.90862	50.07
3.92528	50.07
3.94195	50.08
3.95862	50.08
3.97528	50.08
3.99195	50.08

[Status Trace (Injection Unit Temperature)]
Interval(msec)	1000
# of Points	240
Start Time(min)	0.009
End Time(min)	3.992
Intensity Units	
Intensity Multiplier	1
R.Time (min)	Intensity
0.00862	99.98
0.02528	99.98
0.04195	99.98
0.05862	99.97
0.07528	99.98
0.09195	99.98
0.10862	99.98
0.12528	99.98
0.14195	99.98
0.15862	99.98
0.17528	99.98
0.19195	99.98
0.20862	99.98
0.22528	99.98
0.24195	99.98
0.25862	99.98
0.27528	99.98
0.29195	99.98
0.30862	99.97
0.32528	99.98
0.34195	99.98
0.35862	99.98
0.37528	99.98
0.39195	99.98
0.40862	99.98
0.42528	99.98
0.44195	99.98
0.45862	99.98
0.47528	99.98
0.49195	99.98
0.50862	99.98
0.52528	99.98
0.54195	99.98
0.55862	99.98
0.57528	99.98
0.59195	99.97
0.60862	99.98
0.62528	99.97
0.64195	99.97
0.65862	99.97
0.67528	99.98
0.69195	99.98
0.70862	99.98
0.72528	99.98
0.74195	99.98
0.75862	99.98
0.77528	99.98
0.79195	99.98
0.80862	99.98
0.82528	99.98
0.84195	99.98
0.85862	99.98
0.87528	99.98
0.89195	99.98
0.90862	99.97
0.92528	99.98
0.94195	99.98
0.95862	99.97
0.97528	99.98
0.99195	99.98
1.00862	99.98
1.02528	99.97
1.04195	99.98
1.05862	99.98
1.07528	99.98
1.09195	99.98
1.10862	99.98
1.12528	99.98
1.14195	99.98
1.15862	99.98
1.17528	99.98
1.19195	99.98
1.20862	99.98
1.22528	99.98
1.24195	99.99
1.25862	99.98
1.27528	99.98
1.29195	99.98
1.30862	99.98
1.32528	99.98
1.34195	99.98
1.35862	99.99
1.37528	99.99
1.39195	99.98
1.40862	99.98
1.42528	99.98
1.44195	99.99
1.45862	99.99
1.47528	99.99
1.49195	99.99
1.50862	99.99
1.52528	99.99
1.54195	99.99
1.55862	99.99
1.57528	99.99
1.59195	99.99
1.60862	99.99
1.62528	99.99
1.64195	99.98
1.65862	99.99
1.67528	99.99
1.69195	99.99
1.70862	99.99
1.72528	99.99
1.74195	99.99
1.75862	99.99
1.77528	99.98
1.79195	99.98
1.80862	99.98
1.82528	99.98
1.84195	99.98
1.85862	99.98
1.87528	99.98
1.89195	99.98
1.90862	99.98
1.92528	99.98
1.94195	99.98
1.95862	99.98
1.97528	99.97
1.99195	99.98
2.00862	99.98
2.02528	99.97
2.04195	99.97
2.05862	99.97
2.07528	99.97
2.09195	99.97
2.10862	99.97
2.12528	99.97
2.14195	99.97
2.15862	99.97
2.17528	99.97
2.19195	99.97
2.20862	99.97
2.22528	99.97
2.24195	99.97
2.25862	99.97
2.27528	99.96
2.29195	99.97
2.30862	99.96
2.32528	99.96
2.34195	99.96
2.35862	99.96
2.37528	99.96
2.39195	99.96
2.40862	99.96
2.42528	99.96
2.44195	99.96
2.45862	99.96
2.47528	99.97
2.49195	99.97
2.50862	99.97
2.52528	99.97
2.54195	99.97
2.55862	99.97
2.57528	99.97
2.59195	99.98
2.60862	99.98
2.62528	99.98
2.64195	99.98
2.65862	99.98
2.67528	99.98
2.69195	99.98
2.70862	99.99
2.72528	99.99
2.74195	99.99
2.75862	99.99
2.77528	99.99
2.79195	99.99
2.80862	100.00
2.82528	99.99
2.84195	100.00
2.85862	100.00
2.87528	100.00
2.89195	100.00
2.90862	100.01
2.92528	100.01
2.94195	100.01
2.95862	100.01
2.97528	100.01
2.99195	100.01
3.00862	100.01
3.02528	100.01
3.04195	100.01
3.05862	100.02
3.07528	100.02
3.09195	100.02
3.10862	100.02
3.12528	100.01
3.14195	100.02
3.15862	100.02
3.17528	100.02
3.19195	100.03
3.20862	100.03
3.22528	100.02
3.24195	100.02
3.25862	100.03
3.27528	100.02
3.29195	100.03
3.30862	100.03
3.32528	100.03
3.34195	100.02
3.35862	100.03
3.37528	100.03
3.39195	100.03
3.40862	100.03
3.42528	100.03
3.44195	100.03
3.45862	100.03
3.47528	100.04
3.49195	100.03
3.50862	100.03
3.52528	100.03
3.54195	100.04
3.55862	100.03
3.57528	100.04
3.59195	100.04
3.60862	100.04
3.62528	100.04
3.64195	100.04
3.65862	100.04
3.67528	100.04
3.69195	100.04
3.70862	100.04
3.72528	100.04
3.74195	100.04
3.75862	100.04
3.77528	100.04
3.79195	100.04
3.80862	100.04
3.82528	100.04
3.84195	100.04
3.85862	100.04
3.87528	100.05
3.89195	100.04
3.90862	100.04
3.92528	100.04
3.94195	100.04
3.95862	100.04
3.97528	100.04
3.99195	100.04

[Status Trace (Carrier Gas Pressure)]
Interval(msec)	1000
# of Points	240
Start Time(min)	0.009
End Time(min)	3.992
Intensity Units	
Intensity Multiplier	1
R.Time (min)	Intensity
0.00862	58.00
0.02528	55.29
0.04195	57.27
0.05862	59.31
0.07528	59.31
0.09195	58.04
0.10862	57.98
0.12528	58.01
0.14195	58.01
0.15862	58.00
0.17528	58.00
0.19195	58.00
0.20862	58.00
0.22528	58.00
0.24195	58.00
0.25862	58.00
0.27528	58.00
0.29195	58.00
0.30862	58.00
0.32528	58.00
0.34195	58.00
0.35862	58.00
0.37528	58.00
0.39195	58.00
0.40862	58.00
0.42528	58.00
0.44195	58.00
0.45862	58.00
0.47528	58.00
0.49195	58.00
0.50862	58.00
0.52528	58.00
0.54195	58.00
0.55862	58.00
0.57528	58.00
0.59195	58.00
0.60862	58.00
0.62528	58.00
0.64195	58.00
0.65862	58.00
0.67528	58.00
0.69195	58.00
0.70862	58.00
0.72528	58.00
0.74195	58.00
0.75862	58.00
0.77528	58.00
0.79195	58.00
0.80862	58.00
0.82528	58.00
0.84195	58.00
0.85862	58.00
0.87528	58.00
0.89195	58.00
0.90862	58.00
0.92528	58.00
0.94195	58.00
0.95862	58.00
0.97528	58.00
0.99195	58.00
1.00862	58.00
1.02528	58.00
1.04195	58.00
1.05862	58.00
1.07528	58.00
1.09195	58.00
1.10862	58.00
1.12528	58.00
1.14195	58.00
1.15862	58.00
1.17528	58.00
1.19195	58.00
1.20862	58.00
1.22528	58.00
1.24195	58.00
1.25862	58.00
1.27528	58.00
1.29195	58.00
1.30862	58.00
1.32528	58.00
1.34195	58.00
1.35862	58.00
1.37528	58.00
1.39195	58.00
1.40862	58.00
1.42528	58.00
1.44195	58.00
1.45862	58.00
1.47528	58.00
1.49195	58.00
1.50862	58.00
1.52528	58.00
1.54195	58.00
1.55862	58.00
1.57528	58.00
1.59195	58.00
1.60862	58.00
1.62528	58.00
1.64195	58.01
1.65862	58.00
1.67528	58.01
1.69195	58.00
1.70862	58.00
1.72528	58.00
1.74195	58.00
1.75862	58.00
1.77528	58.00
1.79195	58.00
1.80862	58.00
1.82528	58.00
1.84195	58.00
1.85862	58.00
1.87528	58.00
1.89195	58.00
1.90862	58.00
1.92528	58.00
1.94195	58.00
1.95862	58.00
1.97528	58.00
1.99195	58.00
2.00862	58.00
2.02528	58.00
2.04195	58.00
2.05862	58.00
2.07528	58.00
2.09195	58.00
2.10862	58.00
2.12528	58.00
2.14195	58.00
2.15862	58.00
2.17528	58.00
2.19195	58.00
2.20862	58.00
2.22528	58.00
2.24195	58.00
2.25862	58.00
2.27528	58.00
2.29195	58.00
2.30862	58.00
2.32528	58.00
2.34195	58.00
2.35862	58.00
2.37528	58.00
2.39195	57.99
2.40862	57.99
2.42528	58.00
2.44195	58.00
2.45862	58.00
2.47528	58.00
2.49195	58.00
2.50862	58.00
2.52528	57.98
2.54195	58.00
2.55862	58.00
2.57528	58.00
2.59195	58.00
2.60862	58.00
2.62528	58.00
2.64195	58.00
2.65862	58.00
2.67528	58.00
2.69195	58.00
2.70862	58.00
2.72528	58.00
2.74195	58.00
2.75862	58.00
2.77528	58.00
2.79195	58.00
2.80862	58.00
2.82528	58.00
2.84195	58.00
2.85862	58.00
2.87528	58.00
2.89195	58.00
2.90862	58.00
2.92528	58.00
2.94195	58.00
2.95862	58.00
2.97528	58.00
2.99195	58.00
3.00862	58.00
3.02528	58.00
3.04195	58.00
3.05862	58.00
3.07528	58.00
3.09195	58.00
3.10862	58.00
3.12528	58.00
3.14195	58.00
3.15862	58.00
3.17528	58.00
3.19195	58.00
3.20862	58.00
3.22528	58.00
3.24195	58.00
3.25862	58.00
3.27528	58.00
3.29195	58.00
3.30862	58.00
3.32528	58.00
3.34195	58.00
3.35862	58.00
3.37528	58.00
3.39195	58.00
3.40862	58.00
3.42528	58.00
3.44195	58.00
3.45862	58.00
3.47528	58.00
3.49195	58.00
3.50862	58.00
3.52528	58.00
3.54195	58.00
3.55862	58.00
3.57528	58.00
3.59195	58.00
3.60862	58.00
3.62528	58.00
3.64195	58.00
3.65862	58.00
3.67528	58.00
3.69195	58.00
3.70862	58.00
3.72528	58.00
3.74195	58.00
3.75862	58.00
3.77528	58.00
3.79195	58.00
3.80862	58.00
3.82528	58.00
3.84195	58.00
3.85862	58.00
3.87528	58.00
3.89195	58.00
3.90862	58.00
3.92528	58.00
3.94195	58.00
3.95862	58.00
3.97528	58.00
3.99195	58.00

[Status Trace (Carrier Gas Flow)]
Interval(msec)	1000
# of Points	240
Start Time(min)	0.009
End Time(min)	3.992
Intensity Units	
Intensity Multiplier	1
R.Time (min)	Intensity
0.00862	34.52
0.02528	34.53
0.04195	34.54
0.05862	34.55
0.07528	34.50
0.09195	34.51
0.10862	34.52
0.12528	34.52
0.14195	34.52
0.15862	34.52
0.17528	34.52
0.19195	34.52
0.20862	34.52
0.22528	34.52
0.24195	34.52
0.25862	34.52
0.27528	34.52
0.29195	34.52
0.30862	34.52
0.32528	34.52
0.34195	34.52
0.35862	34.52
0.37528	34.52
0.39195	34.52
0.40862	34.52
0.42528	34.51
0.44195	34.52
0.45862	34.52
0.47528	34.52
0.49195	34.52
0.50862	34.52
0.52528	34.52
0.54195	34.52
0.55862	34.52
0.57528	34.52
0.59195	34.52
0.60862	34.51
0.62528	34.52
0.64195	34.52
0.65862	34.52
0.67528	34.52
0.69195	34.52
0.70862	34.52
0.72528	34.52
0.74195	34.52
0.75862	34.52
0.77528	34.52
0.79195	34.52
0.80862	34.52
0.82528	34.52
0.84195	34.52
0.85862	34.52
0.87528	34.52
0.89195	34.52
0.90862	34.52
0.92528	34.52
0.94195	34.52
0.95862	34.52
0.97528	34.52
0.99195	34.52
1.00862	34.52
1.02528	34.53
1.04195	34.52
1.05862	34.52
1.07528	34.52
1.09195	34.52
1.10862	34.52
1.12528	34.52
1.14195	34.52
1.15862	34.52
1.17528	34.52
1.19195	34.52
1.20862	34.52
1.22528	34.52
1.24195	34.52
1.25862	34.52
1.27528	34.52
1.29195	34.52
1.30862	34.52
1.32528	34.52
1.34195	34.52
1.35862	34.52
1.37528	34.52
1.39195	34.52
1.40862	34.53
1.42528	34.52
1.44195	34.52
1.45862	34.52
1.47528	34.51
1.49195	34.52
1.50862	34.52
1.52528	34.52
1.54195	34.52
1.55862	34.52
1.57528	34.52
1.59195	34.52
1.60862	34.52
1.62528	34.52
1.64195	34.52
1.65862	34.51
1.67528	34.52
1.69195	34.52
1.70862	34.52
1.72528	34.52
1.74195	34.52
1.75862	34.52
1.77528	34.52
1.79195	34.52
1.80862	34.52
1.82528	34.52
1.84195	34.52
1.85862	34.52
1.87528	34.52
1.89195	34.52
1.90862	34.52
1.92528	34.52
1.94195	34.52
1.95862	34.52
1.97528	34.52
1.99195	34.52
2.00862	34.52
2.02528	34.52
2.04195	34.52
2.05862	34.52
2.07528	34.51
2.09195	34.52
2.10862	34.52
2.12528	34.51
2.14195	34.52
2.15862	34.52
2.17528	34.52
2.19195	34.52
2.20862	34.52
2.22528	34.52
2.24195	34.52
2.25862	34.52
2.27528	34.52
2.29195	34.52
2.30862	34.51
2.32528	34.52
2.34195	34.52
2.35862	34.52
2.37528	34.51
2.39195	34.52
2.40862	34.52
2.42528	34.52
2.44195	34.53
2.45862	34.51
2.47528	34.52
2.49195	34.52
2.50862	34.44
2.52528	34.52
2.54195	34.52
2.55862	34.52
2.57528	34.52
2.59195	34.52
2.60862	34.52
2.62528	34.52
2.64195	34.52
2.65862	34.51
2.67528	34.52
2.69195	34.52
2.70862	34.52
2.72528	34.52
2.74195	34.51
2.75862	34.51
2.77528	34.53
2.79195	34.53
2.80862	34.52
2.82528	34.52
2.84195	34.52
2.85862	34.53
2.87528	34.51
2.89195	34.51
2.90862	34.51
2.92528	34.52
2.94195	34.52
2.95862	34.51
2.97528	34.52
2.99195	34.52
3.00862	34.52
3.02528	34.52
3.04195	34.52
3.05862	34.52
3.07528	34.52
3.09195	34.52
3.10862	34.52
3.12528	34.52
3.14195	34.52
3.15862	34.52
3.17528	34.51
3.19195	34.52
3.20862	34.52
3.22528	34.52
3.24195	34.52
3.25862	34.52
3.27528	34.52
3.29195	34.52
3.30862	34.52
3.32528	34.52
3.34195	34.52
3.35862	34.52
3.37528	34.52
3.39195	34.52
3.40862	34.52
3.42528	34.52
3.44195	34.52
3.45862	34.52
3.47528	34.52
3.49195	34.52
3.50862	34.51
3.52528	34.51
3.54195	34.52
3.55862	34.52
3.57528	34.52
3.59195	34.51
3.60862	34.52
3.62528	34.52
3.64195	34.52
3.65862	34.52
3.67528	34.52
3.69195	34.52
3.70862	34.52
3.72528	34.51
3.74195	34.52
3.75862	34.52
3.77528	34.53
3.79195	34.52
3.80862	34.52
3.82528	34.52
3.84195	34.52
3.85862	34.52
3.87528	34.52
3.89195	34.52
3.90862	34.52
3.92528	34.52
3.94195	34.52
3.95862	34.52
3.97528	34.52
3.99195	34.52

[Status Trace (Column Flow)]
Interval(msec)	1000
# of Points	240
Start Time(min)	0.009
End Time(min)	3.992
Intensity Units	
Intensity Multiplier	1
R.Time (min)	Intensity
0.00862	5.52
0.02528	5.21
0.04195	5.44
0.05862	5.67
0.07528	5.67
0.09195	5.53
0.10862	5.52
0.12528	5.52
0.14195	5.52
0.15862	5.52
0.17528	5.52
0.19195	5.52
0.20862	5.52
0.22528	5.52
0.24195	5.52
0.25862	5.52
0.27528	5.52
0.29195	5.52
0.30862	5.52
0.32528	5.52
0.34195	5.52
0.35862	5.52
0.37528	5.52
0.39195	5.52
0.40862	5.52
0.42528	5.52
0.44195	5.52
0.45862	5.52
0.47528	5.52
0.49195	5.52
0.50862	5.52
0.52528	5.52
0.54195	5.52
0.55862	5.52
0.57528	5.52
0.59195	5.52
0.60862	5.52
0.62528	5.52
0.64195	5.52
0.65862	5.52
0.67528	5.52
0.69195	5.52
0.70862	5.52
0.72528	5.52
0.74195	5.52
0.75862	5.52
0.77528	5.52
0.79195	5.52
0.80862	5.52
0.82528	5.52
0.84195	5.52
0.85862	5.52
0.87528	5.52
0.89195	5.52
0.90862	5.52
0.92528	5.52
0.94195	5.52
0.95862	5.52
0.97528	5.52
0.99195	5.52
1.00862	5.52
1.02528	5.52
1.04195	5.52
1.05862	5.52
1.07528	5.52
1.09195	5.52
1.10862	5.52
1.12528	5.52
1.14195	5.52
1.15862	5.52
1.17528	5.52
1.19195	5.52
1.20862	5.52
1.22528	5.52
1.24195	5.52
1.25862	5.52
1.27528	5.52
1.29195	5.52
1.30862	5.52
1.32528	5.52
1.34195	5.52
1.35862	5.52
1.37528	5.52
1.39195	5.52
1.40862	5.52
1.42528	5.52
1.44195	5.52
1.45862	5.52
1.47528	5.52
1.49195	5.52
1.50862	5.52
1.52528	5.52
1.54195	5.52
1.55862	5.52
1.57528	5.52
1.59195	5.52
1.60862	5.52
1.62528	5.52
1.64195	5.51
1.65862	5.50
1.67528	5.49
1.69195	5.48
1.70862	5.47
1.72528	5.46
1.74195	5.45
1.75862	5.44
1.77528	5.43
1.79195	5.42
1.80862	5.41
1.82528	5.40
1.84195	5.39
1.85862	5.38
1.87528	5.37
1.89195	5.36
1.90862	5.35
1.92528	5.34
1.94195	5.33
1.95862	5.32
1.97528	5.31
1.99195	5.30
2.00862	5.29
2.02528	5.28
2.04195	5.27
2.05862	5.26
2.07528	5.25
2.09195	5.24
2.10862	5.23
2.12528	5.22
2.14195	5.21
2.15862	5.20
2.17528	5.19
2.19195	5.18
2.20862	5.18
2.22528	5.17
2.24195	5.16
2.25862	5.15
2.27528	5.14
2.29195	5.13
2.30862	5.12
2.32528	5.11
2.34195	5.10
2.35862	5.09
2.37528	5.09
2.39195	5.09
2.40862	5.09
2.42528	5.09
2.44195	5.09
2.45862	5.09
2.47528	5.09
2.49195	5.09
2.50862	5.09
2.52528	5.08
2.54195	5.09
2.55862	5.09
2.57528	5.09
2.59195	5.08
2.60862	5.08
2.62528	5.08
2.64195	5.08
2.65862	5.08
2.67528	5.08
2.69195	5.08
2.70862	5.08
2.72528	5.08
2.74195	5.08
2.75862	5.08
2.77528	5.08
2.79195	5.08
2.80862	5.08
2.82528	5.08
2.84195	5.08
2.85862	5.08
2.87528	5.08
2.89195	5.08
2.90862	5.08
2.92528	5.08
2.94195	5.08
2.95862	5.08
2.97528	5.08
2.99195	5.08
3.00862	5.08
3.02528	5.08
3.04195	5.08
3.05862	5.08
3.07528	5.08
3.09195	5.08
3.10862	5.08
3.12528	5.08
3.14195	5.08
3.15862	5.08
3.17528	5.08
3.19195	5.08
3.20862	5.08
3.22528	5.08
3.24195	5.08
3.25862	5.08
3.27528	5.08
3.29195	5.08
3.30862	5.08
3.32528	5.08
3.34195	5.08
3.35862	5.08
3.37528	5.08
3.39195	5.08
3.40862	5.08
3.42528	5.08
3.44195	5.08
3.45862	5.08
3.47528	5.08
3.49195	5.08
3.50862	5.08
3.52528	5.08
3.54195	5.08
3.55862	5.08
3.57528	5.08
3.59195	5.08
3.60862	5.08
3.62528	5.08
3.64195	5.08
3.65862	5.08
3.67528	5.08
3.69195	5.08
3.70862	5.08
3.72528	5.08
3.74195	5.08
3.75862	5.08
3.77528	5.08
3.79195	5.08
3.80862	5.08
3.82528	5.08
3.84195	5.08
3.85862	5.08
3.87528	5.08
3.89195	5.08
3.90862	5.08
3.92528	5.08
3.94195	5.08
3.95862	5.08
3.97528	5.08
3.99195	5.08

[Status Trace (Linear Velocity)]
Interval(msec)	1000
# of Points	240
Start Time(min)	0.009
End Time(min)	3.992
Intensity Units	
Intensity Multiplier	1
R.Time (min)	Intensity
0.00862	39.01
0.02528	37.23
0.04195	38.53
0.05862	39.87
0.07528	39.87
0.09195	39.04
0.10862	39.00
0.12528	39.02
0.14195	39.02
0.15862	39.02
0.17528	39.02
0.19195	39.02
0.20862	39.02
0.22528	39.02
0.24195	39.02
0.25862	39.02
0.27528	39.02
0.29195	39.02
0.30862	39.02
0.32528	39.02
0.34195	39.02
0.35862	39.02
0.37528	39.02
0.39195	39.02
0.40862	39.02
0.42528	39.02
0.44195	39.01
0.45862	39.01
0.47528	39.02
0.49195	39.02
0.50862	39.02
0.52528	39.02
0.54195	39.02
0.55862	39.02
0.57528	39.02
0.59195	39.02
0.60862	39.02
0.62528	39.02
0.64195	39.02
0.65862	39.02
0.67528	39.02
0.69195	39.02
0.70862	39.02
0.72528	39.02
0.74195	39.02
0.75862	39.02
0.77528	39.02
0.79195	39.02
0.80862	39.02
0.82528	39.02
0.84195	39.02
0.85862	39.02
0.87528	39.02
0.89195	39.02
0.90862	39.02
0.92528	39.02
0.94195	39.02
0.95862	39.02
0.97528	39.02
0.99195	39.02
1.00862	39.02
1.02528	39.02
1.04195	39.02
1.05862	39.01
1.07528	39.02
1.09195	39.02
1.10862	39.02
1.12528	39.02
1.14195	39.02
1.15862	39.02
1.17528	39.02
1.19195	39.02
1.20862	39.02
1.22528	39.02
1.24195	39.02
1.25862	39.02
1.27528	39.02
1.29195	39.02
1.30862	39.02
1.32528	39.02
1.34195	39.02
1.35862	39.02
1.37528	39.02
1.39195	39.02
1.40862	39.02
1.42528	39.02
1.44195	39.02
1.45862	39.02
1.47528	39.02
1.49195	39.02
1.50862	39.02
1.52528	39.02
1.54195	39.02
1.55862	39.02
1.57528	39.02
1.59195	39.02
1.60862	39.01
1.62528	39.00
1.64195	38.98
1.65862	38.96
1.67528	38.93
1.69195	38.89
1.70862	38.86
1.72528	38.82
1.74195	38.79
1.75862	38.76
1.77528	38.73
1.79195	38.70
1.80862	38.67
1.82528	38.63
1.84195	38.60
1.85862	38.57
1.87528	38.54
1.89195	38.51
1.90862	38.48
1.92528	38.45
1.94195	38.42
1.95862	38.39
1.97528	38.36
1.99195	38.33
2.00862	38.30
2.02528	38.27
2.04195	38.23
2.05862	38.21
2.07528	38.18
2.09195	38.15
2.10862	38.12
2.12528	38.09
2.14195	38.05
2.15862	38.03
2.17528	38.00
2.19195	37.97
2.20862	37.94
2.22528	37.91
2.24195	37.88
2.25862	37.85
2.27528	37.82
2.29195	37.79
2.30862	37.77
2.32528	37.74
2.34195	37.71
2.35862	37.68
2.37528	37.66
2.39195	37.65
2.40862	37.66
2.42528	37.66
2.44195	37.66
2.45862	37.66
2.47528	37.66
2.49195	37.66
2.50862	37.65
2.52528	37.64
2.54195	37.65
2.55862	37.65
2.57528	37.65
2.59195	37.65
2.60862	37.65
2.62528	37.65
2.64195	37.65
2.65862	37.65
2.67528	37.65
2.69195	37.65
2.70862	37.65
2.72528	37.64
2.74195	37.64
2.75862	37.65
2.77528	37.65
2.79195	37.64
2.80862	37.64
2.82528	37.64
2.84195	37.64
2.85862	37.65
2.87528	37.64
2.89195	37.64
2.90862	37.65
2.92528	37.64
2.94195	37.64
2.95862	37.64
2.97528	37.64
2.99195	37.64
3.00862	37.64
3.02528	37.64
3.04195	37.63
3.05862	37.63
3.07528	37.63
3.09195	37.63
3.10862	37.63
3.12528	37.63
3.14195	37.63
3.15862	37.63
3.17528	37.63
3.19195	37.63
3.20862	37.63
3.22528	37.63
3.24195	37.62
3.25862	37.62
3.27528	37.62
3.29195	37.62
3.30862	37.63
3.32528	37.63
3.34195	37.63
3.35862	37.63
3.37528	37.63
3.39195	37.63
3.40862	37.63
3.42528	37.63
3.44195	37.63
3.45862	37.63
3.47528	37.63
3.49195	37.63
3.50862	37.63
3.52528	37.63
3.54195	37.63
3.55862	37.63
3.57528	37.63
3.59195	37.63
3.60862	37.63
3.62528	37.63
3.64195	37.63
3.65862	37.63
3.67528	37.63
3.69195	37.63
3.70862	37.63
3.72528	37.63
3.74195	37.62
3.75862	37.62
3.77528	37.63
3.79195	37.63
3.80862	37.63
3.82528	37.63
3.84195	37.63
3.85862	37.62
3.87528	37.63
3.89195	37.63
3.90862	37.63
3.92528	37.63
3.94195	37.63
3.95862	37.63
3.97528	37.63
3.99195	37.63

