[Header]
Application Name	LabSolutions
Version	5.110
Data File Name	C:\Users\User\Desktop\GC Analyses\Jack\Nachusa Grasslands Sampling\T2 Timepoint July 12th\T2_07122022_019.gcd
Output Date	3/14/2023
Output Time	3:42:30 PM

[File Information]
Type	Data File
Generated	3/10/2023 2:25:28 PM
Generated by	System Administrator
Modified	3/10/2023 2:32:09 PM
Modified by	System Administrator

[Sample Information]
Operator Name	System Administrator
Acquired	3/10/2023 2:28:08 PM
Sample Type	0:Unknown
Level	0
Sample Name	019
Sample ID	019
ISTD Amount1	1
ISTD Amount2	1
ISTD Amount3	1
ISTD Amount4	1
ISTD Amount5	1
ISTD Amount6	1
ISTD Amount7	1
ISTD Amount8	1
ISTD Amount9	1
ISTD Amount10	1
ISTD Amount11	1
ISTD Amount12	1
ISTD Amount13	1
ISTD Amount14	1
ISTD Amount15	1
ISTD Amount16	1
ISTD Amount17	1
ISTD Amount18	1
ISTD Amount19	1
ISTD Amount20	1
ISTD Amount21	1
ISTD Amount22	1
ISTD Amount23	1
ISTD Amount24	1
ISTD Amount25	1
ISTD Amount26	1
ISTD Amount27	1
ISTD Amount28	1
ISTD Amount29	1
ISTD Amount30	1
ISTD Amount31	1
ISTD Amount32	1
Sample Amount	1
Dilution Factor	1
Vial#	18
Injection Volume	1
Injection Count	1
Bar Code	

[Original Files]
Data File	C:\Users\User\Desktop\GC Analyses\Jack\Nachusa Grasslands Sampling\T1 Timepoint July 12th\T2_07122022_019.gcd
Method File	C:\LabSolutions\Data\GHG_4min_2022\ghg3_togas_w_acet_4 min_new_int.gcm
Batch File	C:\LabSolutions\Data\AutoSamplerTesting\T2_07122022.gcb
Report Format File	c:\LabSolutions\System\DEFAULT.lsr

[File Description]


[Configuration]
Instrument Name	C0B7VH3-Instrument1
Instrument #	1
Line #	1
# of Detectors	3
Detector ID	DET#1	DET#2	DET#3
Detector Name	FID	PTCD	ECD
# of Channels	1	1	1

[Peak Table(Ch1)]
# of Peaks	3
Peak#	R.Time	I.Time	F.Time	Area	Height	A/H	Conc.	Mark	ID#	Name	k'	Plate #	Plate Ht.	Tailing	Resolution	Sep.Factor	Area Ratio	Height Ratio	Conc. %	Norm Conc.
1	1.476	1.432	1.538	46077	22331	2.063	325.303	   	1	CO	0.000	9550	15.706	1.285	0.000	0.000	0	0	41.253	41.253
2	1.567	1.538	1.626	4806	2355	2.040	92.924	 V 	2	CH4	0.062	10089	14.868	0.000	1.493	0.000	0	0	11.784	11.784
3	1.996	1.949	2.425	1475566	707463	2.086	370.327	   	3	CO2	0.353	17306	8.667	1.257	6.969	5.680	0	0	46.963	46.963

[Peak Table(Ch2)]
# of Peaks	0

[Peak Table(Ch3)]
# of Peaks	5
Peak#	R.Time	I.Time	F.Time	Area	Height	A/H	Conc.	Mark	ID#	Name	k'	Plate #	Plate Ht.	Tailing	Resolution	Sep.Factor	Area Ratio	Height Ratio	Conc. %	Norm Conc.
1	2.462	2.323	2.513	2030	580	3.502	0.000	   			0.000	7642	19.627	0.000	0.000	0.000	0	0	0.000	0.000
2	2.535	2.513	2.638	1816	363	5.000	0.000	 V 			0.030	2469	60.746	0.000	0.463	0.000	0	0	0.000	0.000
3	2.671	2.638	2.807	1071	151	7.100	0.000	 V 			0.085	2368	63.351	0.000	0.640	2.850	0	0	0.000	0.000
4	2.876	2.807	3.122	20038	5119	3.914	0.512	 V 	1	N2O	0.168	13141	11.415	1.649	1.284	1.982	0	0	100.000	100.000
5	3.353	3.129	3.976	12079	410	29.474	0.000	   	2	SF6	0.362	309	485.163	1.865	1.105	2.150	0	0	0.000	0.000

[Compound Results(Ch1)]
# of IDs	6
ID#	Name	R.Time	Area	Height	Conc.	Curve	3rd	2nd	1st	Constant	Area Ratio	Height Ratio	Conc. %	Norm Conc.
1	CO	1.476	46077	22331	325.303	Linear	0.000000e+00	0.000000e+00	1.416423e+002	0.000000e+00	0	0	41.253	41.253
2	CH4	1.567	4806	2355	92.924	Linear	0.000000e+00	0.000000e+00	5.171738e+001	0.000000e+00	0	0	11.784	11.784
3	CO2	1.996	1475566	707463	370.327	Linear	0.000000e+00	0.000000e+00	3.984494e+003	0.000000e+00	0	0	46.963	46.963
4	Ethylene	0.000	0	0	0.000	Linear	0.000000e+00	0.000000e+00	0.000000e+00	0.000000e+00	0	0	0.000	0.000
5	Acetylene	0.000	0	0	0.000	Linear	0.000000e+00	0.000000e+00	0.000000e+00	0.000000e+00	0	0	0.000	0.000
6	Ethane	0.000	0	0	0.000	Linear	0.000000e+00	0.000000e+00	0.000000e+00	0.000000e+00	0	0	0.000	0.000

[Compound Results(Ch2)]
# of IDs	5
ID#	Name	R.Time	Area	Height	Conc.	Curve	3rd	2nd	1st	Constant	Area Ratio	Height Ratio	Conc. %	Norm Conc.
1	Hydrogen	0.000	0	0	0.000	Linear	0.000000e+00	0.000000e+00	0.000000e+00	0.000000e+00	0	0	0.000	0.000
2	Oxygen	0.000	0	0	0.000	Linear	0.000000e+00	0.000000e+00	0.000000e+00	0.000000e+00	0	0	0.000	0.000
3	Nitrogen	0.000	0	0	0.000	Linear	0.000000e+00	0.000000e+00	0.000000e+00	0.000000e+00	0	0	0.000	0.000
4	Methane	0.000	0	0	0.000	Linear	0.000000e+00	0.000000e+00	0.000000e+00	0.000000e+00	0	0	0.000	0.000
5	Carbon Monoxide	0.000	0	0	0.000	Linear	0.000000e+00	0.000000e+00	0.000000e+00	0.000000e+00	0	0	0.000	0.000

[Compound Results(Ch3)]
# of IDs	2
ID#	Name	R.Time	Area	Height	Conc.	Curve	3rd	2nd	1st	Constant	Area Ratio	Height Ratio	Conc. %	Norm Conc.
1	N2O	2.876	20038	5119	0.512	Linear	0.000000e+00	0.000000e+00	3.915173e+004	0.000000e+00	0	0	100.000	100.000
2	SF6	3.353	12079	410	0.000	Linear	0.000000e+00	0.000000e+00	0.000000e+00	0.000000e+00	0	0	0.000	0.000

[Group Results(Ch1)]
# of Groups	0

[Group Results(Ch2)]
# of Groups	0

[Group Results(Ch3)]
# of Groups	0

[Chromatogram (Ch1)]
Interval(msec)	220
# of Points	1091
Start Time(min)	0.002
End Time(min)	3.998
R.Time (min)	Intensity
0.00167	28
0.00533	31
0.00900	33
0.01267	34
0.01633	35
0.02000	39
0.02367	46
0.02733	52
0.03100	55
0.03467	57
0.03833	61
0.04200	66
0.04567	70
0.04933	68
0.05300	62
0.05667	58
0.06033	52
0.06400	44
0.06767	38
0.07133	34
0.07500	31
0.07867	31
0.08233	33
0.08600	35
0.08967	36
0.09333	37
0.09700	40
0.10067	47
0.10433	49
0.10800	48
0.11167	46
0.11533	45
0.11900	46
0.12267	46
0.12633	45
0.13000	44
0.13367	44
0.13733	43
0.14100	42
0.14467	45
0.14833	50
0.15200	52
0.15567	52
0.15933	53
0.16300	58
0.16667	66
0.17033	70
0.17400	71
0.17767	70
0.18133	68
0.18500	66
0.18867	64
0.19233	61
0.19600	61
0.19967	66
0.20333	67
0.20700	67
0.21067	68
0.21433	73
0.21800	78
0.22167	76
0.22533	74
0.22900	74
0.23267	76
0.23633	81
0.24000	89
0.24367	100
0.24733	113
0.25100	121
0.25467	127
0.25833	132
0.26200	132
0.26567	126
0.26933	116
0.27300	110
0.27667	111
0.28033	117
0.28400	120
0.28767	119
0.29133	118
0.29500	117
0.29867	117
0.30233	118
0.30600	111
0.30967	100
0.31333	94
0.31700	89
0.32067	86
0.32433	82
0.32800	80
0.33167	78
0.33533	78
0.33900	78
0.34267	77
0.34633	79
0.35000	79
0.35367	74
0.35733	69
0.36100	66
0.36467	67
0.36833	68
0.37200	68
0.37567	67
0.37933	65
0.38300	62
0.38667	60
0.39033	59
0.39400	57
0.39767	60
0.40133	65
0.40500	70
0.40867	72
0.41233	71
0.41600	71
0.41967	72
0.42333	72
0.42700	71
0.43067	70
0.43433	71
0.43800	70
0.44167	66
0.44533	61
0.44900	57
0.45267	51
0.45633	47
0.46000	46
0.46367	46
0.46733	45
0.47100	45
0.47467	49
0.47833	52
0.48200	54
0.48567	57
0.48933	60
0.49300	60
0.49667	55
0.50033	47
0.50400	41
0.50767	39
0.51133	45
0.51500	54
0.51867	61
0.52233	60
0.52600	56
0.52967	53
0.53333	48
0.53700	43
0.54067	37
0.54433	35
0.54800	34
0.55167	34
0.55533	34
0.55900	34
0.56267	34
0.56633	38
0.57000	42
0.57367	44
0.57733	46
0.58100	48
0.58467	47
0.58833	45
0.59200	46
0.59567	51
0.59933	59
0.60300	65
0.60667	66
0.61033	64
0.61400	57
0.61767	48
0.62133	42
0.62500	40
0.62867	40
0.63233	44
0.63600	43
0.63967	36
0.64333	25
0.64700	18
0.65067	16
0.65433	18
0.65800	23
0.66167	27
0.66533	33
0.66900	39
0.67267	43
0.67633	46
0.68000	52
0.68367	58
0.68733	60
0.69100	58
0.69467	54
0.69833	52
0.70200	56
0.70567	61
0.70933	65
0.71300	66
0.71667	60
0.72033	49
0.72400	40
0.72767	34
0.73133	34
0.73500	36
0.73867	40
0.74233	42
0.74600	43
0.74967	41
0.75333	43
0.75700	47
0.76067	46
0.76433	43
0.76800	42
0.77167	43
0.77533	42
0.77900	42
0.78267	43
0.78633	44
0.79000	45
0.79367	48
0.79733	55
0.80100	62
0.80467	66
0.80833	63
0.81200	58
0.81567	55
0.81933	53
0.82300	51
0.82667	53
0.83033	56
0.83400	59
0.83767	60
0.84133	60
0.84500	58
0.84867	53
0.85233	45
0.85600	34
0.85967	23
0.86333	15
0.86700	11
0.87067	12
0.87433	14
0.87800	16
0.88167	18
0.88533	19
0.88900	17
0.89267	20
0.89633	25
0.90000	28
0.90367	34
0.90733	40
0.91100	40
0.91467	38
0.91833	38
0.92200	38
0.92567	34
0.92933	31
0.93300	31
0.93667	38
0.94033	45
0.94400	47
0.94767	46
0.95133	41
0.95500	36
0.95867	33
0.96233	32
0.96600	33
0.96967	33
0.97333	30
0.97700	28
0.98067	28
0.98433	30
0.98800	34
0.99167	37
0.99533	43
0.99900	50
1.00267	58
1.00633	66
1.01000	67
1.01367	59
1.01733	49
1.02100	41
1.02467	33
1.02833	30
1.03200	30
1.03567	29
1.03933	26
1.04300	24
1.04667	22
1.05033	20
1.05400	22
1.05767	26
1.06133	30
1.06500	30
1.06867	27
1.07233	23
1.07600	20
1.07967	17
1.08333	12
1.08700	8
1.09067	10
1.09433	15
1.09800	18
1.10167	21
1.10533	25
1.10900	29
1.11267	33
1.11633	34
1.12000	34
1.12367	39
1.12733	46
1.13100	52
1.13467	55
1.13833	51
1.14200	44
1.14567	39
1.14933	36
1.15300	36
1.15667	35
1.16033	36
1.16400	33
1.16767	31
1.17133	32
1.17500	35
1.17867	35
1.18233	33
1.18600	34
1.18967	32
1.19333	24
1.19700	17
1.20067	12
1.20433	10
1.20800	14
1.21167	18
1.21533	21
1.21900	24
1.22267	25
1.22633	25
1.23000	27
1.23367	30
1.23733	33
1.24100	34
1.24467	33
1.24833	28
1.25200	26
1.25567	31
1.25933	37
1.26300	34
1.26667	22
1.27033	11
1.27400	10
1.27767	16
1.28133	21
1.28500	23
1.28867	28
1.29233	31
1.29600	29
1.29967	24
1.30333	19
1.30700	17
1.31067	17
1.31433	20
1.31800	25
1.32167	33
1.32533	41
1.32900	43
1.33267	35
1.33633	22
1.34000	16
1.34367	12
1.34733	8
1.35100	8
1.35467	12
1.35833	22
1.36200	29
1.36567	27
1.36933	24
1.37300	22
1.37667	23
1.38033	25
1.38400	26
1.38767	31
1.39133	36
1.39500	36
1.39867	35
1.40233	32
1.40600	26
1.40967	21
1.41333	16
1.41700	11
1.42067	9
1.42433	10
1.42800	13
1.43167	22
1.43533	34
1.43900	61
1.44267	165
1.44633	484
1.45000	1504
1.45367	3941
1.45733	7803
1.46100	12245
1.46467	16345
1.46833	19573
1.47200	21657
1.47567	22374
1.47933	21568
1.48300	19357
1.48667	16214
1.49033	12796
1.49400	9645
1.49767	7042
1.50133	5045
1.50500	3589
1.50867	2563
1.51233	1853
1.51600	1364
1.51967	1025
1.52333	791
1.52700	629
1.53067	515
1.53433	437
1.53800	403
1.54167	446
1.54533	627
1.54900	961
1.55267	1380
1.55633	1789
1.56000	2123
1.56367	2349
1.56733	2444
1.57100	2376
1.57467	2138
1.57833	1789
1.58200	1408
1.58567	1061
1.58933	780
1.59300	566
1.59667	409
1.60033	300
1.60400	227
1.60767	184
1.61133	155
1.61500	136
1.61867	128
1.62233	122
1.62600	118
1.62967	118
1.63333	122
1.63700	124
1.64067	116
1.64433	104
1.64800	91
1.65167	79
1.65533	69
1.65900	62
1.66267	56
1.66633	52
1.67000	48
1.67367	42
1.67733	41
1.68100	43
1.68467	49
1.68833	54
1.69200	54
1.69567	52
1.69933	52
1.70300	55
1.70667	57
1.71033	57
1.71400	57
1.71767	56
1.72133	56
1.72500	55
1.72867	53
1.73233	53
1.73600	59
1.73967	65
1.74333	72
1.74700	80
1.75067	87
1.75433	87
1.75800	81
1.76167	72
1.76533	65
1.76900	59
1.77267	56
1.77633	57
1.78000	57
1.78367	53
1.78733	47
1.79100	44
1.79467	44
1.79833	46
1.80200	50
1.80567	55
1.80933	58
1.81300	60
1.81667	58
1.82033	55
1.82400	54
1.82767	53
1.83133	51
1.83500	47
1.83867	43
1.84233	39
1.84600	38
1.84967	39
1.85333	41
1.85700	43
1.86067	49
1.86433	55
1.86800	58
1.87167	63
1.87533	71
1.87900	77
1.88267	79
1.88633	72
1.89000	61
1.89367	48
1.89733	38
1.90100	28
1.90467	20
1.90833	17
1.91200	20
1.91567	25
1.91933	29
1.92300	33
1.92667	41
1.93033	48
1.93400	53
1.93767	56
1.94133	54
1.94500	53
1.94867	62
1.95233	94
1.95600	274
1.95967	1246
1.96333	5436
1.96700	19147
1.97067	53601
1.97433	121094
1.97800	225333
1.98167	355104
1.98533	488598
1.98900	602730
1.99267	679379
1.99633	707574
2.00000	684808
2.00367	617974
2.00733	522142
2.01100	415939
2.01467	315434
2.01833	230337
2.02200	163866
2.02567	114849
2.02933	80115
2.03300	56144
2.03667	39860
2.04033	28880
2.04400	21480
2.04767	16454
2.05133	12995
2.05500	10568
2.05867	8828
2.06233	7549
2.06600	6585
2.06967	5841
2.07333	5254
2.07700	4780
2.08067	4388
2.08433	4056
2.08800	3780
2.09167	3547
2.09533	3335
2.09900	3141
2.10267	2966
2.10633	2806
2.11000	2661
2.11367	2529
2.11733	2413
2.12100	2308
2.12467	2212
2.12833	2122
2.13200	2037
2.13567	1954
2.13933	1879
2.14300	1816
2.14667	1761
2.15033	1705
2.15400	1650
2.15767	1601
2.16133	1557
2.16500	1510
2.16867	1464
2.17233	1428
2.17600	1399
2.17967	1367
2.18333	1329
2.18700	1287
2.19067	1246
2.19433	1215
2.19800	1193
2.20167	1174
2.20533	1151
2.20900	1122
2.21267	1087
2.21633	1051
2.22000	1021
2.22367	996
2.22733	973
2.23100	948
2.23467	921
2.23833	898
2.24200	880
2.24567	867
2.24933	859
2.25300	855
2.25667	849
2.26033	839
2.26400	828
2.26767	816
2.27133	804
2.27500	789
2.27867	777
2.28233	765
2.28600	750
2.28967	735
2.29333	727
2.29700	719
2.30067	711
2.30433	704
2.30800	698
2.31167	692
2.31533	684
2.31900	676
2.32267	668
2.32633	661
2.33000	653
2.33367	645
2.33733	637
2.34100	626
2.34467	614
2.34833	604
2.35200	596
2.35567	588
2.35933	582
2.36300	578
2.36667	575
2.37033	569
2.37400	561
2.37767	557
2.38133	556
2.38500	553
2.38867	550
2.39233	549
2.39600	553
2.39967	556
2.40333	554
2.40700	553
2.41067	556
2.41433	559
2.41800	559
2.42167	556
2.42533	552
2.42900	548
2.43267	544
2.43633	541
2.44000	540
2.44367	540
2.44733	542
2.45100	545
2.45467	547
2.45833	546
2.46200	546
2.46567	543
2.46933	537
2.47300	529
2.47667	518
2.48033	508
2.48400	502
2.48767	500
2.49133	498
2.49500	496
2.49867	497
2.50233	494
2.50600	490
2.50967	488
2.51333	488
2.51700	491
2.52067	498
2.52433	503
2.52800	505
2.53167	508
2.53533	511
2.53900	512
2.54267	508
2.54633	504
2.55000	503
2.55367	506
2.55733	509
2.56100	505
2.56467	499
2.56833	492
2.57200	484
2.57567	479
2.57933	476
2.58300	473
2.58667	471
2.59033	472
2.59400	471
2.59767	471
2.60133	469
2.60500	468
2.60867	469
2.61233	473
2.61600	475
2.61967	478
2.62333	477
2.62700	472
2.63067	468
2.63433	467
2.63800	466
2.64167	471
2.64533	476
2.64900	482
2.65267	486
2.65633	488
2.66000	484
2.66367	472
2.66733	459
2.67100	451
2.67467	448
2.67833	444
2.68200	439
2.68567	436
2.68933	436
2.69300	438
2.69667	438
2.70033	438
2.70400	442
2.70767	448
2.71133	451
2.71500	455
2.71867	460
2.72233	462
2.72600	461
2.72967	459
2.73333	458
2.73700	461
2.74067	462
2.74433	464
2.74800	463
2.75167	458
2.75533	450
2.75900	443
2.76267	440
2.76633	440
2.77000	446
2.77367	458
2.77733	470
2.78100	478
2.78467	473
2.78833	457
2.79200	441
2.79567	429
2.79933	425
2.80300	426
2.80667	427
2.81033	427
2.81400	428
2.81767	430
2.82133	434
2.82500	440
2.82867	444
2.83233	444
2.83600	443
2.83967	446
2.84333	450
2.84700	453
2.85067	454
2.85433	456
2.85800	462
2.86167	463
2.86533	461
2.86900	456
2.87267	453
2.87633	454
2.88000	453
2.88367	456
2.88733	462
2.89100	470
2.89467	478
2.89833	482
2.90200	480
2.90567	470
2.90933	458
2.91300	450
2.91667	449
2.92033	452
2.92400	448
2.92767	435
2.93133	425
2.93500	423
2.93867	425
2.94233	428
2.94600	434
2.94967	441
2.95333	443
2.95700	444
2.96067	444
2.96433	442
2.96800	444
2.97167	448
2.97533	450
2.97900	452
2.98267	456
2.98633	459
2.99000	462
2.99367	468
2.99733	474
3.00100	478
3.00467	485
3.00833	495
3.01200	505
3.01567	509
3.01933	505
3.02300	494
3.02667	481
3.03033	472
3.03400	468
3.03767	462
3.04133	455
3.04500	449
3.04867	449
3.05233	455
3.05600	461
3.05967	466
3.06333	466
3.06700	463
3.07067	458
3.07433	449
3.07800	439
3.08167	430
3.08533	424
3.08900	427
3.09267	435
3.09633	442
3.10000	449
3.10367	454
3.10733	456
3.11100	461
3.11467	466
3.11833	467
3.12200	462
3.12567	454
3.12933	446
3.13300	439
3.13667	431
3.14033	428
3.14400	432
3.14767	438
3.15133	447
3.15500	451
3.15867	453
3.16233	458
3.16600	462
3.16967	462
3.17333	462
3.17700	462
3.18067	462
3.18433	464
3.18800	466
3.19167	469
3.19533	470
3.19900	467
3.20267	461
3.20633	455
3.21000	449
3.21367	445
3.21733	445
3.22100	443
3.22467	437
3.22833	431
3.23200	425
3.23567	423
3.23933	422
3.24300	425
3.24667	434
3.25033	443
3.25400	448
3.25767	451
3.26133	453
3.26500	454
3.26867	456
3.27233	458
3.27600	457
3.27967	451
3.28333	441
3.28700	432
3.29067	431
3.29433	436
3.29800	443
3.30167	450
3.30533	453
3.30900	453
3.31267	451
3.31633	448
3.32000	444
3.32367	441
3.32733	437
3.33100	434
3.33467	435
3.33833	437
3.34200	437
3.34567	439
3.34933	440
3.35300	443
3.35667	452
3.36033	457
3.36400	453
3.36767	445
3.37133	438
3.37500	434
3.37867	433
3.38233	427
3.38600	421
3.38967	419
3.39333	423
3.39700	425
3.40067	428
3.40433	429
3.40800	430
3.41167	428
3.41533	422
3.41900	419
3.42267	418
3.42633	423
3.43000	428
3.43367	430
3.43733	431
3.44100	431
3.44467	430
3.44833	429
3.45200	425
3.45567	420
3.45933	418
3.46300	421
3.46667	427
3.47033	430
3.47400	430
3.47767	431
3.48133	431
3.48500	429
3.48867	423
3.49233	415
3.49600	408
3.49967	403
3.50333	403
3.50700	409
3.51067	413
3.51433	411
3.51800	413
3.52167	419
3.52533	425
3.52900	426
3.53267	424
3.53633	419
3.54000	411
3.54367	403
3.54733	394
3.55100	388
3.55467	387
3.55833	389
3.56200	390
3.56567	390
3.56933	393
3.57300	398
3.57667	404
3.58033	406
3.58400	405
3.58767	404
3.59133	404
3.59500	404
3.59867	403
3.60233	401
3.60600	399
3.60967	396
3.61333	393
3.61700	394
3.62067	396
3.62433	397
3.62800	393
3.63167	389
3.63533	387
3.63900	385
3.64267	385
3.64633	386
3.65000	384
3.65367	383
3.65733	386
3.66100	390
3.66467	395
3.66833	394
3.67200	391
3.67567	388
3.67933	386
3.68300	390
3.68667	395
3.69033	401
3.69400	404
3.69767	406
3.70133	409
3.70500	410
3.70867	410
3.71233	409
3.71600	407
3.71967	403
3.72333	396
3.72700	386
3.73067	375
3.73433	363
3.73800	355
3.74167	351
3.74533	352
3.74900	355
3.75267	359
3.75633	362
3.76000	361
3.76367	358
3.76733	354
3.77100	354
3.77467	357
3.77833	359
3.78200	363
3.78567	367
3.78933	370
3.79300	373
3.79667	375
3.80033	377
3.80400	378
3.80767	378
3.81133	375
3.81500	370
3.81867	367
3.82233	367
3.82600	371
3.82967	377
3.83333	379
3.83700	375
3.84067	369
3.84433	364
3.84800	359
3.85167	354
3.85533	352
3.85900	352
3.86267	352
3.86633	349
3.87000	348
3.87367	348
3.87733	351
3.88100	357
3.88467	359
3.88833	358
3.89200	355
3.89567	353
3.89933	352
3.90300	352
3.90667	353
3.91033	352
3.91400	348
3.91767	345
3.92133	345
3.92500	347
3.92867	347
3.93233	343
3.93600	340
3.93967	342
3.94333	344
3.94700	349
3.95067	351
3.95433	349
3.95800	347
3.96167	347
3.96533	343
3.96900	333
3.97267	325
3.97633	325
3.98000	329
3.98367	333
3.98733	332
3.99100	333
3.99467	334
3.99833	326

[Chromatogram (Ch2)]
Interval(msec)	220
# of Points	1091
Start Time(min)	0.002
End Time(min)	3.998
R.Time (min)	Intensity
0.00167	0
0.00533	1
0.00900	1
0.01267	1
0.01633	1
0.02000	1
0.02367	0
0.02733	0
0.03100	0
0.03467	0
0.03833	0
0.04200	-0
0.04567	-0
0.04933	-1
0.05300	-1
0.05667	-1
0.06033	-1
0.06400	-1
0.06767	-1
0.07133	-1
0.07500	-1
0.07867	-1
0.08233	-0
0.08600	0
0.08967	1
0.09333	1
0.09700	1
0.10067	1
0.10433	1
0.10800	2
0.11167	2
0.11533	3
0.11900	3
0.12267	4
0.12633	4
0.13000	3
0.13367	3
0.13733	3
0.14100	3
0.14467	3
0.14833	4
0.15200	4
0.15567	4
0.15933	4
0.16300	4
0.16667	4
0.17033	3
0.17400	3
0.17767	3
0.18133	3
0.18500	3
0.18867	3
0.19233	3
0.19600	3
0.19967	3
0.20333	2
0.20700	2
0.21067	2
0.21433	1
0.21800	1
0.22167	-0
0.22533	-1
0.22900	-1
0.23267	-1
0.23633	-2
0.24000	-2
0.24367	-1
0.24733	-1
0.25100	-1
0.25467	-1
0.25833	-1
0.26200	-1
0.26567	-1
0.26933	-1
0.27300	-1
0.27667	-1
0.28033	-1
0.28400	-1
0.28767	-2
0.29133	-2
0.29500	-1
0.29867	-1
0.30233	-1
0.30600	-1
0.30967	-1
0.31333	-1
0.31700	-1
0.32067	-1
0.32433	-1
0.32800	-1
0.33167	-1
0.33533	-1
0.33900	-1
0.34267	-2
0.34633	-2
0.35000	-2
0.35367	-2
0.35733	-2
0.36100	-2
0.36467	-1
0.36833	-1
0.37200	-1
0.37567	-1
0.37933	-1
0.38300	-0
0.38667	0
0.39033	0
0.39400	1
0.39767	1
0.40133	1
0.40500	1
0.40867	1
0.41233	1
0.41600	1
0.41967	1
0.42333	2
0.42700	2
0.43067	2
0.43433	2
0.43800	2
0.44167	2
0.44533	2
0.44900	2
0.45267	3
0.45633	3
0.46000	3
0.46367	3
0.46733	3
0.47100	3
0.47467	3
0.47833	3
0.48200	3
0.48567	3
0.48933	3
0.49300	4
0.49667	4
0.50033	4
0.50400	4
0.50767	4
0.51133	3
0.51500	3
0.51867	3
0.52233	2
0.52600	2
0.52967	1
0.53333	1
0.53700	0
0.54067	-0
0.54433	-1
0.54800	-1
0.55167	-2
0.55533	-2
0.55900	-2
0.56267	-2
0.56633	-2
0.57000	-2
0.57367	-2
0.57733	-2
0.58100	-2
0.58467	-1
0.58833	-1
0.59200	-1
0.59567	-1
0.59933	-1
0.60300	-2
0.60667	-2
0.61033	-2
0.61400	-2
0.61767	-2
0.62133	-2
0.62500	-2
0.62867	-2
0.63233	-2
0.63600	-2
0.63967	-1
0.64333	-1
0.64700	-0
0.65067	0
0.65433	0
0.65800	1
0.66167	1
0.66533	1
0.66900	1
0.67267	2
0.67633	2
0.68000	2
0.68367	2
0.68733	2
0.69100	2
0.69467	2
0.69833	2
0.70200	1
0.70567	1
0.70933	1
0.71300	0
0.71667	0
0.72033	-0
0.72400	-0
0.72767	-1
0.73133	-1
0.73500	-1
0.73867	-1
0.74233	-1
0.74600	-1
0.74967	-1
0.75333	-1
0.75700	-1
0.76067	-1
0.76433	-1
0.76800	-2
0.77167	-2
0.77533	-2
0.77900	-3
0.78267	-3
0.78633	-3
0.79000	-3
0.79367	-3
0.79733	-2
0.80100	-2
0.80467	-2
0.80833	-2
0.81200	-2
0.81567	-2
0.81933	-2
0.82300	-2
0.82667	-1
0.83033	-1
0.83400	-1
0.83767	-1
0.84133	-1
0.84500	-0
0.84867	-0
0.85233	-0
0.85600	-1
0.85967	-1
0.86333	-1
0.86700	-1
0.87067	-1
0.87433	-2
0.87800	-2
0.88167	-2
0.88533	-2
0.88900	-2
0.89267	-2
0.89633	-2
0.90000	-1
0.90367	-1
0.90733	-1
0.91100	-1
0.91467	-1
0.91833	-1
0.92200	-0
0.92567	-0
0.92933	0
0.93300	0
0.93667	1
0.94033	1
0.94400	1
0.94767	2
0.95133	2
0.95500	1
0.95867	1
0.96233	1
0.96600	1
0.96967	1
0.97333	1
0.97700	1
0.98067	1
0.98433	0
0.98800	0
0.99167	0
0.99533	0
0.99900	0
1.00267	0
1.00633	0
1.01000	0
1.01367	0
1.01733	0
1.02100	0
1.02467	0
1.02833	0
1.03200	0
1.03567	-0
1.03933	-0
1.04300	-0
1.04667	-0
1.05033	-0
1.05400	-1
1.05767	-1
1.06133	-1
1.06500	-0
1.06867	-0
1.07233	0
1.07600	0
1.07967	-0
1.08333	-0
1.08700	-1
1.09067	-1
1.09433	-1
1.09800	-1
1.10167	-1
1.10533	-1
1.10900	-1
1.11267	-0
1.11633	-0
1.12000	-0
1.12367	-0
1.12733	-0
1.13100	-0
1.13467	-1
1.13833	-1
1.14200	-1
1.14567	-1
1.14933	-1
1.15300	-1
1.15667	-1
1.16033	-2
1.16400	-2
1.16767	-2
1.17133	-2
1.17500	-2
1.17867	-1
1.18233	-1
1.18600	-1
1.18967	-1
1.19333	-1
1.19700	-1
1.20067	-1
1.20433	-0
1.20800	-0
1.21167	-0
1.21533	-0
1.21900	-0
1.22267	-0
1.22633	-1
1.23000	-1
1.23367	-0
1.23733	-0
1.24100	-0
1.24467	-0
1.24833	-0
1.25200	-1
1.25567	-1
1.25933	-1
1.26300	-1
1.26667	-2
1.27033	-2
1.27400	-2
1.27767	-3
1.28133	-3
1.28500	-3
1.28867	-3
1.29233	-3
1.29600	-3
1.29967	-3
1.30333	-3
1.30700	-3
1.31067	-3
1.31433	-2
1.31800	-2
1.32167	-2
1.32533	-2
1.32900	-1
1.33267	-1
1.33633	-1
1.34000	-1
1.34367	-1
1.34733	-2
1.35100	-2
1.35467	-2
1.35833	-2
1.36200	-3
1.36567	-3
1.36933	-3
1.37300	-3
1.37667	-2
1.38033	-2
1.38400	-2
1.38767	-2
1.39133	-2
1.39500	-2
1.39867	-2
1.40233	-2
1.40600	-3
1.40967	-3
1.41333	-3
1.41700	-3
1.42067	-3
1.42433	-2
1.42800	-2
1.43167	-2
1.43533	-1
1.43900	-1
1.44267	-1
1.44633	-1
1.45000	-1
1.45367	-1
1.45733	-1
1.46100	-0
1.46467	0
1.46833	0
1.47200	1
1.47567	1
1.47933	1
1.48300	2
1.48667	2
1.49033	2
1.49400	2
1.49767	2
1.50133	2
1.50500	2
1.50867	2
1.51233	2
1.51600	1
1.51967	0
1.52333	-0
1.52700	-1
1.53067	-2
1.53433	-2
1.53800	-3
1.54167	-3
1.54533	-3
1.54900	-3
1.55267	-2
1.55633	-2
1.56000	-2
1.56367	-1
1.56733	-1
1.57100	-1
1.57467	-1
1.57833	-1
1.58200	-1
1.58567	-2
1.58933	-3
1.59300	-3
1.59667	-4
1.60033	-5
1.60400	-6
1.60767	-7
1.61133	-9
1.61500	-11
1.61867	-13
1.62233	-16
1.62600	-19
1.62967	-21
1.63333	-25
1.63700	-28
1.64067	-31
1.64433	-35
1.64800	-39
1.65167	-42
1.65533	-46
1.65900	-49
1.66267	-52
1.66633	-56
1.67000	-60
1.67367	-64
1.67733	-68
1.68100	-73
1.68467	-78
1.68833	-83
1.69200	-87
1.69567	-91
1.69933	-94
1.70300	-97
1.70667	-99
1.71033	-101
1.71400	-103
1.71767	-104
1.72133	-105
1.72500	-105
1.72867	-105
1.73233	-106
1.73600	-106
1.73967	-106
1.74333	-107
1.74700	-107
1.75067	-108
1.75433	-108
1.75800	-108
1.76167	-109
1.76533	-109
1.76900	-109
1.77267	-108
1.77633	-108
1.78000	-108
1.78367	-108
1.78733	-108
1.79100	-109
1.79467	-110
1.79833	-112
1.80200	-113
1.80567	-114
1.80933	-115
1.81300	-115
1.81667	-115
1.82033	-115
1.82400	-115
1.82767	-115
1.83133	-114
1.83500	-114
1.83867	-113
1.84233	-113
1.84600	-113
1.84967	-113
1.85333	-113
1.85700	-113
1.86067	-113
1.86433	-114
1.86800	-114
1.87167	-115
1.87533	-115
1.87900	-115
1.88267	-114
1.88633	-114
1.89000	-113
1.89367	-113
1.89733	-112
1.90100	-112
1.90467	-112
1.90833	-111
1.91200	-111
1.91567	-111
1.91933	-110
1.92300	-110
1.92667	-110
1.93033	-109
1.93400	-108
1.93767	-108
1.94133	-107
1.94500	-107
1.94867	-107
1.95233	-107
1.95600	-107
1.95967	-107
1.96333	-107
1.96700	-107
1.97067	-107
1.97433	-107
1.97800	-107
1.98167	-106
1.98533	-106
1.98900	-106
1.99267	-105
1.99633	-105
2.00000	-105
2.00367	-104
2.00733	-104
2.01100	-104
2.01467	-103
2.01833	-103
2.02200	-103
2.02567	-103
2.02933	-103
2.03300	-103
2.03667	-103
2.04033	-102
2.04400	-102
2.04767	-102
2.05133	-101
2.05500	-101
2.05867	-100
2.06233	-100
2.06600	-99
2.06967	-99
2.07333	-99
2.07700	-98
2.08067	-98
2.08433	-97
2.08800	-97
2.09167	-98
2.09533	-98
2.09900	-98
2.10267	-98
2.10633	-99
2.11000	-99
2.11367	-99
2.11733	-99
2.12100	-99
2.12467	-99
2.12833	-98
2.13200	-98
2.13567	-97
2.13933	-96
2.14300	-95
2.14667	-95
2.15033	-94
2.15400	-93
2.15767	-92
2.16133	-92
2.16500	-91
2.16867	-90
2.17233	-89
2.17600	-89
2.17967	-89
2.18333	-89
2.18700	-90
2.19067	-90
2.19433	-90
2.19800	-90
2.20167	-91
2.20533	-91
2.20900	-91
2.21267	-91
2.21633	-90
2.22000	-90
2.22367	-89
2.22733	-88
2.23100	-86
2.23467	-86
2.23833	-85
2.24200	-85
2.24567	-85
2.24933	-86
2.25300	-87
2.25667	-87
2.26033	-88
2.26400	-88
2.26767	-87
2.27133	-87
2.27500	-86
2.27867	-85
2.28233	-84
2.28600	-83
2.28967	-82
2.29333	-82
2.29700	-82
2.30067	-82
2.30433	-82
2.30800	-81
2.31167	-80
2.31533	-80
2.31900	-79
2.32267	-78
2.32633	-78
2.33000	-77
2.33367	-77
2.33733	-76
2.34100	-76
2.34467	-75
2.34833	-74
2.35200	-74
2.35567	-74
2.35933	-73
2.36300	-73
2.36667	-73
2.37033	-72
2.37400	-70
2.37767	-68
2.38133	-65
2.38500	-61
2.38867	-57
2.39233	-53
2.39600	-48
2.39967	-43
2.40333	-39
2.40700	-34
2.41067	-29
2.41433	-25
2.41800	-21
2.42167	-17
2.42533	-15
2.42900	-13
2.43267	-12
2.43633	-11
2.44000	-9
2.44367	-8
2.44733	-7
2.45100	-6
2.45467	-5
2.45833	-4
2.46200	-3
2.46567	-2
2.46933	-1
2.47300	1
2.47667	2
2.48033	3
2.48400	3
2.48767	4
2.49133	5
2.49500	5
2.49867	6
2.50233	7
2.50600	8
2.50967	9
2.51333	10
2.51700	10
2.52067	11
2.52433	12
2.52800	13
2.53167	14
2.53533	15
2.53900	15
2.54267	16
2.54633	16
2.55000	15
2.55367	15
2.55733	15
2.56100	15
2.56467	15
2.56833	15
2.57200	15
2.57567	15
2.57933	15
2.58300	16
2.58667	16
2.59033	16
2.59400	16
2.59767	17
2.60133	17
2.60500	17
2.60867	17
2.61233	18
2.61600	18
2.61967	18
2.62333	17
2.62700	17
2.63067	17
2.63433	17
2.63800	17
2.64167	17
2.64533	17
2.64900	17
2.65267	18
2.65633	18
2.66000	19
2.66367	19
2.66733	19
2.67100	19
2.67467	20
2.67833	20
2.68200	21
2.68567	21
2.68933	22
2.69300	22
2.69667	23
2.70033	23
2.70400	24
2.70767	25
2.71133	25
2.71500	26
2.71867	26
2.72233	26
2.72600	26
2.72967	26
2.73333	25
2.73700	25
2.74067	25
2.74433	25
2.74800	25
2.75167	25
2.75533	25
2.75900	25
2.76267	25
2.76633	26
2.77000	26
2.77367	26
2.77733	26
2.78100	26
2.78467	26
2.78833	26
2.79200	26
2.79567	26
2.79933	26
2.80300	26
2.80667	26
2.81033	26
2.81400	27
2.81767	27
2.82133	27
2.82500	27
2.82867	27
2.83233	27
2.83600	27
2.83967	26
2.84333	24
2.84700	21
2.85067	15
2.85433	7
2.85800	-5
2.86167	-20
2.86533	-40
2.86900	-63
2.87267	-92
2.87633	-124
2.88000	-161
2.88367	-202
2.88733	-246
2.89100	-293
2.89467	-343
2.89833	-395
2.90200	-449
2.90567	-503
2.90933	-558
2.91300	-613
2.91667	-668
2.92033	-723
2.92400	-775
2.92767	-826
2.93133	-878
2.93500	-934
2.93867	-992
2.94233	-1046
2.94600	-1085
2.94967	-1099
2.95333	-1088
2.95700	-1053
2.96067	-998
2.96433	-929
2.96800	-852
2.97167	-771
2.97533	-690
2.97900	-612
2.98267	-539
2.98633	-471
2.99000	-409
2.99367	-354
2.99733	-305
3.00100	-261
3.00467	-223
3.00833	-189
3.01200	-160
3.01567	-135
3.01933	-113
3.02300	-94
3.02667	-78
3.03033	-65
3.03400	-53
3.03767	-44
3.04133	-35
3.04500	-28
3.04867	-22
3.05233	-16
3.05600	-11
3.05967	-7
3.06333	-4
3.06700	-1
3.07067	2
3.07433	4
3.07800	6
3.08167	8
3.08533	9
3.08900	10
3.09267	12
3.09633	12
3.10000	13
3.10367	13
3.10733	14
3.11100	14
3.11467	14
3.11833	14
3.12200	15
3.12567	15
3.12933	15
3.13300	15
3.13667	16
3.14033	16
3.14400	17
3.14767	17
3.15133	17
3.15500	18
3.15867	18
3.16233	19
3.16600	19
3.16967	20
3.17333	20
3.17700	20
3.18067	20
3.18433	20
3.18800	20
3.19167	20
3.19533	21
3.19900	21
3.20267	21
3.20633	21
3.21000	21
3.21367	21
3.21733	22
3.22100	22
3.22467	22
3.22833	22
3.23200	22
3.23567	22
3.23933	23
3.24300	23
3.24667	23
3.25033	23
3.25400	23
3.25767	23
3.26133	24
3.26500	24
3.26867	24
3.27233	24
3.27600	24
3.27967	24
3.28333	24
3.28700	24
3.29067	24
3.29433	25
3.29800	25
3.30167	25
3.30533	25
3.30900	26
3.31267	26
3.31633	27
3.32000	27
3.32367	27
3.32733	28
3.33100	28
3.33467	28
3.33833	28
3.34200	28
3.34567	28
3.34933	28
3.35300	29
3.35667	29
3.36033	29
3.36400	29
3.36767	29
3.37133	29
3.37500	29
3.37867	29
3.38233	30
3.38600	30
3.38967	30
3.39333	30
3.39700	30
3.40067	30
3.40433	30
3.40800	30
3.41167	30
3.41533	30
3.41900	30
3.42267	30
3.42633	30
3.43000	30
3.43367	29
3.43733	29
3.44100	29
3.44467	29
3.44833	28
3.45200	28
3.45567	28
3.45933	28
3.46300	28
3.46667	28
3.47033	28
3.47400	28
3.47767	28
3.48133	28
3.48500	28
3.48867	28
3.49233	28
3.49600	28
3.49967	28
3.50333	28
3.50700	28
3.51067	28
3.51433	28
3.51800	28
3.52167	27
3.52533	27
3.52900	27
3.53267	27
3.53633	27
3.54000	27
3.54367	27
3.54733	27
3.55100	27
3.55467	27
3.55833	27
3.56200	27
3.56567	27
3.56933	27
3.57300	27
3.57667	27
3.58033	27
3.58400	27
3.58767	27
3.59133	27
3.59500	27
3.59867	27
3.60233	27
3.60600	27
3.60967	27
3.61333	27
3.61700	27
3.62067	27
3.62433	27
3.62800	27
3.63167	27
3.63533	27
3.63900	27
3.64267	26
3.64633	26
3.65000	26
3.65367	26
3.65733	26
3.66100	25
3.66467	25
3.66833	25
3.67200	25
3.67567	26
3.67933	26
3.68300	26
3.68667	26
3.69033	26
3.69400	26
3.69767	26
3.70133	26
3.70500	26
3.70867	26
3.71233	26
3.71600	26
3.71967	26
3.72333	26
3.72700	26
3.73067	26
3.73433	26
3.73800	26
3.74167	26
3.74533	26
3.74900	26
3.75267	26
3.75633	26
3.76000	27
3.76367	27
3.76733	27
3.77100	27
3.77467	27
3.77833	27
3.78200	27
3.78567	27
3.78933	27
3.79300	27
3.79667	27
3.80033	27
3.80400	27
3.80767	27
3.81133	27
3.81500	27
3.81867	27
3.82233	27
3.82600	27
3.82967	27
3.83333	27
3.83700	27
3.84067	27
3.84433	27
3.84800	27
3.85167	27
3.85533	27
3.85900	27
3.86267	27
3.86633	27
3.87000	27
3.87367	27
3.87733	27
3.88100	27
3.88467	27
3.88833	27
3.89200	27
3.89567	27
3.89933	27
3.90300	27
3.90667	28
3.91033	28
3.91400	28
3.91767	28
3.92133	28
3.92500	27
3.92867	27
3.93233	27
3.93600	27
3.93967	27
3.94333	27
3.94700	27
3.95067	27
3.95433	27
3.95800	27
3.96167	27
3.96533	28
3.96900	28
3.97267	27
3.97633	27
3.98000	27
3.98367	27
3.98733	27
3.99100	27
3.99467	27
3.99833	27

[Chromatogram (Ch3)]
Interval(msec)	220
# of Points	1091
Start Time(min)	0.002
End Time(min)	3.998
R.Time (min)	Intensity
0.00167	1
0.00533	1
0.00900	-1
0.01267	-3
0.01633	-3
0.02000	-5
0.02367	-7
0.02733	-9
0.03100	-8
0.03467	-6
0.03833	-3
0.04200	-3
0.04567	-2
0.04933	-1
0.05300	-1
0.05667	-1
0.06033	-1
0.06400	-2
0.06767	-4
0.07133	-5
0.07500	-6
0.07867	-4
0.08233	-2
0.08600	-2
0.08967	-1
0.09333	-2
0.09700	-3
0.10067	-4
0.10433	-5
0.10800	-4
0.11167	-4
0.11533	-5
0.11900	-4
0.12267	-4
0.12633	-5
0.13000	-7
0.13367	-9
0.13733	-9
0.14100	-8
0.14467	-7
0.14833	-7
0.15200	-6
0.15567	-5
0.15933	-6
0.16300	-8
0.16667	-11
0.17033	-12
0.17400	-12
0.17767	-10
0.18133	-9
0.18500	-9
0.18867	-7
0.19233	-4
0.19600	-3
0.19967	-1
0.20333	0
0.20700	-1
0.21067	-3
0.21433	-4
0.21800	-4
0.22167	-6
0.22533	-6
0.22900	-5
0.23267	-3
0.23633	-2
0.24000	-2
0.24367	-1
0.24733	-4
0.25100	-7
0.25467	-7
0.25833	-4
0.26200	-2
0.26567	-2
0.26933	-2
0.27300	-1
0.27667	0
0.28033	2
0.28400	3
0.28767	2
0.29133	3
0.29500	7
0.29867	8
0.30233	6
0.30600	2
0.30967	-1
0.31333	-3
0.31700	-3
0.32067	-4
0.32433	-5
0.32800	-4
0.33167	-2
0.33533	-3
0.33900	-4
0.34267	-3
0.34633	-3
0.35000	-2
0.35367	-1
0.35733	0
0.36100	0
0.36467	1
0.36833	1
0.37200	1
0.37567	3
0.37933	4
0.38300	1
0.38667	-1
0.39033	-2
0.39400	-3
0.39767	-3
0.40133	-2
0.40500	-0
0.40867	1
0.41233	4
0.41600	6
0.41967	7
0.42333	6
0.42700	3
0.43067	1
0.43433	-2
0.43800	-3
0.44167	-4
0.44533	-3
0.44900	-1
0.45267	-1
0.45633	-0
0.46000	0
0.46367	-0
0.46733	-1
0.47100	-0
0.47467	1
0.47833	1
0.48200	-0
0.48567	0
0.48933	-0
0.49300	-1
0.49667	-2
0.50033	-2
0.50400	-2
0.50767	-0
0.51133	2
0.51500	1
0.51867	1
0.52233	0
0.52600	-1
0.52967	-3
0.53333	-3
0.53700	-3
0.54067	-3
0.54433	-3
0.54800	-1
0.55167	1
0.55533	4
0.55900	6
0.56267	6
0.56633	6
0.57000	6
0.57367	6
0.57733	5
0.58100	4
0.58467	3
0.58833	2
0.59200	2
0.59567	3
0.59933	2
0.60300	2
0.60667	2
0.61033	3
0.61400	5
0.61767	6
0.62133	6
0.62500	7
0.62867	6
0.63233	6
0.63600	5
0.63967	5
0.64333	4
0.64700	2
0.65067	4
0.65433	6
0.65800	8
0.66167	7
0.66533	3
0.66900	-0
0.67267	1
0.67633	2
0.68000	2
0.68367	2
0.68733	1
0.69100	1
0.69467	1
0.69833	1
0.70200	0
0.70567	0
0.70933	-0
0.71300	0
0.71667	0
0.72033	-0
0.72400	-2
0.72767	-2
0.73133	-1
0.73500	-0
0.73867	1
0.74233	1
0.74600	1
0.74967	1
0.75333	-1
0.75700	-3
0.76067	-1
0.76433	-0
0.76800	0
0.77167	2
0.77533	4
0.77900	4
0.78267	6
0.78633	7
0.79000	10
0.79367	10
0.79733	9
0.80100	7
0.80467	7
0.80833	5
0.81200	3
0.81567	3
0.81933	4
0.82300	3
0.82667	4
0.83033	3
0.83400	5
0.83767	8
0.84133	10
0.84500	9
0.84867	7
0.85233	5
0.85600	3
0.85967	4
0.86333	6
0.86700	6
0.87067	7
0.87433	9
0.87800	10
0.88167	13
0.88533	14
0.88900	13
0.89267	11
0.89633	11
0.90000	11
0.90367	11
0.90733	10
0.91100	9
0.91467	6
0.91833	3
0.92200	5
0.92567	7
0.92933	8
0.93300	11
0.93667	11
0.94033	10
0.94400	11
0.94767	12
0.95133	12
0.95500	10
0.95867	9
0.96233	8
0.96600	8
0.96967	8
0.97333	10
0.97700	12
0.98067	13
0.98433	13
0.98800	12
0.99167	11
0.99533	11
0.99900	9
1.00267	9
1.00633	9
1.01000	11
1.01367	10
1.01733	9
1.02100	8
1.02467	9
1.02833	8
1.03200	9
1.03567	11
1.03933	9
1.04300	7
1.04667	7
1.05033	7
1.05400	8
1.05767	9
1.06133	10
1.06500	10
1.06867	9
1.07233	10
1.07600	12
1.07967	13
1.08333	13
1.08700	14
1.09067	15
1.09433	16
1.09800	16
1.10167	16
1.10533	15
1.10900	13
1.11267	14
1.11633	13
1.12000	11
1.12367	10
1.12733	11
1.13100	12
1.13467	12
1.13833	13
1.14200	16
1.14567	18
1.14933	18
1.15300	16
1.15667	12
1.16033	8
1.16400	5
1.16767	7
1.17133	10
1.17500	11
1.17867	12
1.18233	13
1.18600	13
1.18967	12
1.19333	14
1.19700	15
1.20067	14
1.20433	13
1.20800	11
1.21167	9
1.21533	9
1.21900	9
1.22267	9
1.22633	8
1.23000	10
1.23367	11
1.23733	12
1.24100	11
1.24467	11
1.24833	12
1.25200	10
1.25567	10
1.25933	11
1.26300	10
1.26667	10
1.27033	9
1.27400	9
1.27767	9
1.28133	9
1.28500	10
1.28867	10
1.29233	10
1.29600	10
1.29967	8
1.30333	7
1.30700	8
1.31067	9
1.31433	11
1.31800	10
1.32167	10
1.32533	10
1.32900	11
1.33267	11
1.33633	11
1.34000	10
1.34367	9
1.34733	10
1.35100	11
1.35467	12
1.35833	10
1.36200	7
1.36567	8
1.36933	10
1.37300	13
1.37667	15
1.38033	15
1.38400	14
1.38767	10
1.39133	9
1.39500	9
1.39867	9
1.40233	12
1.40600	12
1.40967	11
1.41333	10
1.41700	10
1.42067	12
1.42433	13
1.42800	12
1.43167	12
1.43533	12
1.43900	13
1.44267	15
1.44633	16
1.45000	16
1.45367	16
1.45733	17
1.46100	18
1.46467	19
1.46833	20
1.47200	19
1.47567	18
1.47933	20
1.48300	20
1.48667	17
1.49033	14
1.49400	11
1.49767	11
1.50133	11
1.50500	11
1.50867	11
1.51233	11
1.51600	12
1.51967	14
1.52333	16
1.52700	16
1.53067	16
1.53433	14
1.53800	14
1.54167	15
1.54533	17
1.54900	17
1.55267	17
1.55633	15
1.56000	14
1.56367	15
1.56733	18
1.57100	20
1.57467	21
1.57833	22
1.58200	22
1.58567	19
1.58933	19
1.59300	20
1.59667	20
1.60033	20
1.60400	20
1.60767	21
1.61133	22
1.61500	23
1.61867	22
1.62233	20
1.62600	19
1.62967	17
1.63333	15
1.63700	15
1.64067	17
1.64433	19
1.64800	20
1.65167	19
1.65533	20
1.65900	22
1.66267	24
1.66633	24
1.67000	24
1.67367	27
1.67733	27
1.68100	27
1.68467	27
1.68833	26
1.69200	25
1.69567	26
1.69933	26
1.70300	25
1.70667	25
1.71033	26
1.71400	25
1.71767	25
1.72133	25
1.72500	28
1.72867	31
1.73233	32
1.73600	34
1.73967	35
1.74333	37
1.74700	40
1.75067	42
1.75433	40
1.75800	35
1.76167	34
1.76533	34
1.76900	34
1.77267	35
1.77633	37
1.78000	38
1.78367	37
1.78733	34
1.79100	33
1.79467	31
1.79833	29
1.80200	29
1.80567	29
1.80933	31
1.81300	33
1.81667	35
1.82033	36
1.82400	38
1.82767	39
1.83133	40
1.83500	41
1.83867	43
1.84233	44
1.84600	43
1.84967	41
1.85333	40
1.85700	39
1.86067	37
1.86433	36
1.86800	37
1.87167	38
1.87533	38
1.87900	39
1.88267	39
1.88633	40
1.89000	42
1.89367	45
1.89733	48
1.90100	48
1.90467	46
1.90833	44
1.91200	44
1.91567	44
1.91933	45
1.92300	46
1.92667	46
1.93033	47
1.93400	50
1.93767	53
1.94133	54
1.94500	54
1.94867	54
1.95233	52
1.95600	54
1.95967	56
1.96333	56
1.96700	54
1.97067	52
1.97433	52
1.97800	55
1.98167	56
1.98533	55
1.98900	56
1.99267	56
1.99633	57
2.00000	58
2.00367	58
2.00733	59
2.01100	61
2.01467	62
2.01833	63
2.02200	64
2.02567	64
2.02933	65
2.03300	67
2.03667	70
2.04033	71
2.04400	73
2.04767	75
2.05133	76
2.05500	77
2.05867	77
2.06233	77
2.06600	77
2.06967	80
2.07333	81
2.07700	81
2.08067	80
2.08433	80
2.08800	81
2.09167	81
2.09533	81
2.09900	82
2.10267	83
2.10633	85
2.11000	86
2.11367	87
2.11733	90
2.12100	92
2.12467	92
2.12833	92
2.13200	93
2.13567	95
2.13933	96
2.14300	98
2.14667	99
2.15033	102
2.15400	104
2.15767	107
2.16133	111
2.16500	112
2.16867	110
2.17233	109
2.17600	108
2.17967	107
2.18333	107
2.18700	110
2.19067	112
2.19433	114
2.19800	116
2.20167	119
2.20533	118
2.20900	118
2.21267	119
2.21633	120
2.22000	121
2.22367	122
2.22733	124
2.23100	127
2.23467	128
2.23833	129
2.24200	130
2.24567	133
2.24933	135
2.25300	137
2.25667	138
2.26033	138
2.26400	141
2.26767	145
2.27133	150
2.27500	154
2.27867	154
2.28233	155
2.28600	156
2.28967	158
2.29333	161
2.29700	163
2.30067	164
2.30433	165
2.30800	165
2.31167	165
2.31533	166
2.31900	165
2.32267	164
2.32633	165
2.33000	167
2.33367	169
2.33733	172
2.34100	176
2.34467	179
2.34833	182
2.35200	185
2.35567	186
2.35933	189
2.36300	191
2.36667	193
2.37033	196
2.37400	198
2.37767	201
2.38133	202
2.38500	202
2.38867	201
2.39233	203
2.39600	206
2.39967	210
2.40333	215
2.40700	218
2.41067	222
2.41433	226
2.41800	229
2.42167	232
2.42533	233
2.42900	236
2.43267	238
2.43633	240
2.44000	244
2.44367	292
2.44733	416
2.45100	551
2.45467	667
2.45833	740
2.46200	758
2.46567	740
2.46933	714
2.47300	692
2.47667	682
2.48033	675
2.48400	662
2.48767	635
2.49133	601
2.49500	568
2.49867	536
2.50233	510
2.50600	495
2.50967	488
2.51333	484
2.51700	488
2.52067	498
2.52433	512
2.52800	527
2.53167	539
2.53533	548
2.53900	548
2.54267	539
2.54633	526
2.55000	510
2.55367	490
2.55733	470
2.56100	452
2.56467	438
2.56833	428
2.57200	421
2.57567	416
2.57933	412
2.58300	411
2.58667	409
2.59033	409
2.59400	410
2.59767	406
2.60133	398
2.60500	389
2.60867	378
2.61233	364
2.61600	349
2.61967	335
2.62333	323
2.62700	314
2.63067	310
2.63433	309
2.63800	310
2.64167	312
2.64533	316
2.64900	323
2.65267	330
2.65633	336
2.66000	339
2.66367	343
2.66733	348
2.67100	349
2.67467	346
2.67833	340
2.68200	335
2.68567	331
2.68933	325
2.69300	322
2.69667	317
2.70033	311
2.70400	305
2.70767	300
2.71133	295
2.71500	292
2.71867	291
2.72233	289
2.72600	287
2.72967	287
2.73333	290
2.73700	292
2.74067	293
2.74433	296
2.74800	297
2.75167	297
2.75533	296
2.75900	295
2.76267	295
2.76633	297
2.77000	297
2.77367	299
2.77733	300
2.78100	300
2.78467	298
2.78833	297
2.79200	298
2.79567	297
2.79933	297
2.80300	296
2.80667	296
2.81033	297
2.81400	299
2.81767	304
2.82133	316
2.82500	342
2.82867	392
2.83233	486
2.83600	651
2.83967	910
2.84333	1276
2.84700	1751
2.85067	2315
2.85433	2936
2.85800	3567
2.86167	4159
2.86533	4664
2.86900	5039
2.87267	5265
2.87633	5337
2.88000	5267
2.88367	5080
2.88733	4809
2.89100	4480
2.89467	4121
2.89833	3755
2.90200	3394
2.90567	3050
2.90933	2729
2.91300	2437
2.91667	2175
2.92033	1941
2.92400	1734
2.92767	1548
2.93133	1385
2.93500	1246
2.93867	1124
2.94233	1018
2.94600	927
2.94967	847
2.95333	776
2.95700	714
2.96067	660
2.96433	615
2.96800	576
2.97167	542
2.97533	510
2.97900	483
2.98267	460
2.98633	439
2.99000	421
2.99367	407
2.99733	394
3.00100	381
3.00467	368
3.00833	357
3.01200	347
3.01567	338
3.01933	330
3.02300	323
3.02667	318
3.03033	315
3.03400	311
3.03767	307
3.04133	305
3.04500	304
3.04867	300
3.05233	296
3.05600	293
3.05967	292
3.06333	292
3.06700	292
3.07067	288
3.07433	284
3.07800	281
3.08167	278
3.08533	275
3.08900	272
3.09267	272
3.09633	272
3.10000	271
3.10367	269
3.10733	266
3.11100	263
3.11467	262
3.11833	255
3.12200	241
3.12567	235
3.12933	241
3.13300	256
3.13667	279
3.14033	305
3.14400	334
3.14767	364
3.15133	394
3.15500	424
3.15867	452
3.16233	477
3.16600	503
3.16967	526
3.17333	545
3.17700	563
3.18067	578
3.18433	591
3.18800	601
3.19167	609
3.19533	616
3.19900	623
3.20267	632
3.20633	638
3.21000	642
3.21367	647
3.21733	651
3.22100	656
3.22467	661
3.22833	664
3.23200	666
3.23567	669
3.23933	673
3.24300	676
3.24667	678
3.25033	682
3.25400	684
3.25767	687
3.26133	689
3.26500	690
3.26867	691
3.27233	693
3.27600	696
3.27967	697
3.28333	697
3.28700	697
3.29067	700
3.29433	704
3.29800	705
3.30167	708
3.30533	710
3.30900	714
3.31267	719
3.31633	722
3.32000	722
3.32367	723
3.32733	723
3.33100	724
3.33467	727
3.33833	729
3.34200	732
3.34567	737
3.34933	742
3.35300	744
3.35667	742
3.36033	741
3.36400	742
3.36767	742
3.37133	742
3.37500	742
3.37867	741
3.38233	743
3.38600	745
3.38967	747
3.39333	747
3.39700	743
3.40067	741
3.40433	739
3.40800	738
3.41167	736
3.41533	736
3.41900	736
3.42267	734
3.42633	731
3.43000	729
3.43367	728
3.43733	727
3.44100	725
3.44467	724
3.44833	724
3.45200	722
3.45567	720
3.45933	720
3.46300	719
3.46667	716
3.47033	713
3.47400	711
3.47767	710
3.48133	711
3.48500	713
3.48867	713
3.49233	711
3.49600	708
3.49967	703
3.50333	702
3.50700	700
3.51067	698
3.51433	696
3.51800	695
3.52167	695
3.52533	693
3.52900	691
3.53267	690
3.53633	689
3.54000	688
3.54367	687
3.54733	684
3.55100	681
3.55467	680
3.55833	679
3.56200	677
3.56567	677
3.56933	676
3.57300	673
3.57667	671
3.58033	670
3.58400	670
3.58767	670
3.59133	671
3.59500	672
3.59867	672
3.60233	672
3.60600	669
3.60967	665
3.61333	662
3.61700	660
3.62067	658
3.62433	660
3.62800	662
3.63167	664
3.63533	664
3.63900	663
3.64267	662
3.64633	662
3.65000	662
3.65367	662
3.65733	662
3.66100	663
3.66467	662
3.66833	658
3.67200	656
3.67567	655
3.67933	657
3.68300	657
3.68667	657
3.69033	657
3.69400	656
3.69767	656
3.70133	654
3.70500	654
3.70867	655
3.71233	654
3.71600	655
3.71967	654
3.72333	652
3.72700	648
3.73067	648
3.73433	648
3.73800	649
3.74167	651
3.74533	652
3.74900	652
3.75267	652
3.75633	652
3.76000	652
3.76367	650
3.76733	649
3.77100	650
3.77467	651
3.77833	651
3.78200	650
3.78567	647
3.78933	645
3.79300	644
3.79667	643
3.80033	641
3.80400	640
3.80767	640
3.81133	640
3.81500	641
3.81867	641
3.82233	642
3.82600	641
3.82967	640
3.83333	640
3.83700	639
3.84067	635
3.84433	632
3.84800	630
3.85167	630
3.85533	629
3.85900	628
3.86267	625
3.86633	624
3.87000	624
3.87367	625
3.87733	625
3.88100	626
3.88467	626
3.88833	626
3.89200	626
3.89567	626
3.89933	623
3.90300	621
3.90667	619
3.91033	617
3.91400	614
3.91767	611
3.92133	609
3.92500	606
3.92867	605
3.93233	603
3.93600	603
3.93967	604
3.94333	604
3.94700	604
3.95067	604
3.95433	602
3.95800	601
3.96167	595
3.96533	593
3.96900	593
3.97267	593
3.97633	595
3.98000	594
3.98367	595
3.98733	594
3.99100	592
3.99467	590
3.99833	585

[Status Trace (Column Oven Temperature)]
Interval(msec)	1000
# of Points	240
Start Time(min)	0.016
End Time(min)	3.999
Intensity Units	
Intensity Multiplier	1
R.Time (min)	Intensity
0.01602	35.05
0.03268	35.06
0.04935	35.06
0.06602	35.06
0.08268	35.05
0.09935	35.05
0.11602	35.04
0.13268	35.03
0.14935	35.02
0.16602	35.00
0.18268	35.00
0.19935	34.99
0.21602	35.00
0.23268	35.01
0.24935	35.02
0.26602	35.02
0.28268	35.02
0.29935	35.02
0.31602	35.04
0.33268	35.03
0.34935	35.04
0.36602	35.05
0.38268	35.03
0.39935	35.03
0.41602	35.02
0.43268	35.02
0.44935	35.01
0.46602	35.00
0.48268	35.00
0.49935	34.99
0.51602	35.00
0.53268	34.99
0.54935	35.00
0.56602	35.00
0.58268	35.01
0.59935	35.02
0.61602	35.03
0.63268	35.03
0.64935	35.01
0.66602	34.99
0.68268	34.98
0.69935	34.98
0.71602	34.98
0.73268	35.00
0.74935	35.00
0.76602	35.01
0.78268	35.03
0.79935	35.02
0.81602	35.02
0.83268	35.02
0.84935	35.03
0.86602	35.03
0.88268	35.03
0.89935	35.04
0.91602	35.04
0.93268	35.03
0.94935	35.02
0.96602	35.01
0.98268	35.01
0.99935	35.00
1.01602	35.00
1.03268	35.00
1.04935	34.99
1.06602	34.99
1.08268	35.00
1.09935	35.00
1.11602	34.99
1.13268	34.99
1.14935	35.00
1.16602	34.99
1.18268	34.98
1.19935	34.98
1.21602	34.98
1.23268	34.99
1.24935	34.99
1.26602	35.00
1.28268	35.01
1.29935	35.01
1.31602	35.01
1.33268	35.00
1.34935	35.01
1.36602	35.02
1.38268	35.02
1.39935	35.02
1.41602	35.03
1.43268	35.02
1.44935	35.01
1.46602	35.00
1.48268	34.98
1.49935	34.97
1.51602	34.98
1.53268	34.99
1.54935	34.99
1.56602	34.99
1.58268	34.99
1.59935	35.02
1.61602	35.12
1.63268	35.28
1.64935	35.50
1.66602	35.78
1.68268	36.15
1.69935	36.52
1.71602	36.86
1.73268	37.18
1.74935	37.52
1.76602	37.84
1.78268	38.15
1.79935	38.51
1.81602	38.83
1.83268	39.16
1.84935	39.50
1.86602	39.84
1.88268	40.16
1.89935	40.48
1.91602	40.81
1.93268	41.12
1.94935	41.45
1.96602	41.79
1.98268	42.10
1.99935	42.44
2.01602	42.75
2.03268	43.09
2.04935	43.40
2.06602	43.73
2.08268	44.06
2.09935	44.39
2.11602	44.72
2.13268	45.05
2.14935	45.37
2.16602	45.66
2.18268	45.99
2.19935	46.34
2.21602	46.68
2.23268	46.97
2.24935	47.35
2.26602	47.69
2.28268	48.01
2.29935	48.34
2.31602	48.66
2.33268	48.99
2.34935	49.29
2.36602	49.58
2.38268	49.72
2.39935	49.74
2.41602	49.71
2.43268	49.73
2.44935	49.72
2.46602	49.72
2.48268	49.74
2.49935	49.75
2.51602	49.76
2.53268	49.76
2.54935	49.79
2.56602	49.81
2.58268	49.82
2.59935	49.81
2.61602	49.82
2.63268	49.85
2.64935	49.85
2.66602	49.85
2.68268	49.85
2.69935	49.85
2.71602	49.83
2.73268	49.86
2.74935	49.87
2.76602	49.87
2.78268	49.87
2.79935	49.87
2.81602	49.88
2.83268	49.88
2.84935	49.88
2.86602	49.89
2.88268	49.90
2.89935	49.91
2.91602	49.91
2.93268	49.93
2.94935	49.95
2.96602	49.97
2.98268	49.97
2.99935	49.99
3.01602	50.00
3.03268	50.01
3.04935	50.01
3.06602	50.02
3.08268	50.02
3.09935	50.03
3.11602	50.04
3.13268	50.05
3.14935	50.06
3.16602	50.06
3.18268	50.07
3.19935	50.08
3.21602	50.09
3.23268	50.10
3.24935	50.10
3.26602	50.10
3.28268	50.11
3.29935	50.10
3.31602	50.09
3.33268	50.08
3.34935	50.08
3.36602	50.06
3.38268	50.04
3.39935	50.03
3.41602	50.03
3.43268	50.02
3.44935	50.03
3.46602	50.03
3.48268	50.02
3.49935	50.01
3.51602	50.02
3.53268	50.02
3.54935	50.02
3.56602	50.03
3.58268	50.02
3.59935	50.03
3.61602	50.03
3.63268	50.04
3.64935	50.05
3.66602	50.05
3.68268	50.06
3.69935	50.07
3.71602	50.07
3.73268	50.07
3.74935	50.08
3.76602	50.07
3.78268	50.06
3.79935	50.06
3.81602	50.07
3.83268	50.07
3.84935	50.07
3.86602	50.07
3.88268	50.07
3.89935	50.07
3.91602	50.07
3.93268	50.07
3.94935	50.07
3.96602	50.07
3.98268	50.08
3.99935	50.08

[Status Trace (Injection Unit Temperature)]
Interval(msec)	1000
# of Points	240
Start Time(min)	0.016
End Time(min)	3.999
Intensity Units	
Intensity Multiplier	1
R.Time (min)	Intensity
0.01602	99.97
0.03268	99.98
0.04935	99.98
0.06602	99.98
0.08268	99.98
0.09935	99.98
0.11602	99.98
0.13268	99.98
0.14935	99.98
0.16602	99.98
0.18268	99.98
0.19935	99.99
0.21602	99.99
0.23268	99.98
0.24935	99.98
0.26602	99.98
0.28268	99.99
0.29935	99.99
0.31602	99.99
0.33268	99.98
0.34935	99.99
0.36602	99.99
0.38268	99.99
0.39935	99.99
0.41602	99.98
0.43268	99.98
0.44935	99.98
0.46602	99.98
0.48268	99.98
0.49935	99.99
0.51602	99.98
0.53268	99.98
0.54935	99.98
0.56602	99.98
0.58268	99.99
0.59935	99.98
0.61602	99.98
0.63268	99.98
0.64935	99.98
0.66602	99.98
0.68268	99.98
0.69935	99.98
0.71602	99.98
0.73268	99.98
0.74935	99.98
0.76602	99.98
0.78268	99.98
0.79935	99.98
0.81602	99.98
0.83268	99.98
0.84935	99.98
0.86602	99.98
0.88268	99.98
0.89935	99.98
0.91602	99.98
0.93268	99.98
0.94935	99.98
0.96602	99.98
0.98268	99.98
0.99935	99.98
1.01602	99.98
1.03268	99.98
1.04935	99.98
1.06602	99.98
1.08268	99.98
1.09935	99.98
1.11602	99.98
1.13268	99.98
1.14935	99.99
1.16602	99.98
1.18268	99.98
1.19935	99.98
1.21602	99.98
1.23268	99.98
1.24935	99.98
1.26602	99.98
1.28268	99.99
1.29935	99.98
1.31602	99.99
1.33268	99.98
1.34935	99.98
1.36602	99.98
1.38268	99.98
1.39935	99.99
1.41602	99.99
1.43268	99.99
1.44935	99.98
1.46602	99.99
1.48268	99.99
1.49935	99.99
1.51602	99.99
1.53268	99.99
1.54935	99.99
1.56602	99.99
1.58268	99.99
1.59935	99.99
1.61602	99.99
1.63268	99.99
1.64935	99.99
1.66602	99.99
1.68268	99.99
1.69935	99.99
1.71602	99.99
1.73268	99.99
1.74935	99.99
1.76602	99.99
1.78268	99.99
1.79935	99.99
1.81602	99.99
1.83268	99.99
1.84935	99.98
1.86602	99.99
1.88268	99.99
1.89935	99.99
1.91602	99.98
1.93268	99.99
1.94935	99.98
1.96602	99.98
1.98268	99.99
1.99935	99.98
2.01602	99.98
2.03268	99.98
2.04935	99.98
2.06602	99.98
2.08268	99.98
2.09935	99.98
2.11602	99.98
2.13268	99.97
2.14935	99.97
2.16602	99.97
2.18268	99.98
2.19935	99.98
2.21602	99.97
2.23268	99.97
2.24935	99.97
2.26602	99.97
2.28268	99.97
2.29935	99.97
2.31602	99.97
2.33268	99.96
2.34935	99.97
2.36602	99.97
2.38268	99.96
2.39935	99.96
2.41602	99.97
2.43268	99.97
2.44935	99.96
2.46602	99.96
2.48268	99.96
2.49935	99.97
2.51602	99.97
2.53268	99.97
2.54935	99.96
2.56602	99.97
2.58268	99.97
2.59935	99.97
2.61602	99.97
2.63268	99.97
2.64935	99.97
2.66602	99.98
2.68268	99.98
2.69935	99.98
2.71602	99.98
2.73268	99.98
2.74935	99.98
2.76602	99.99
2.78268	99.99
2.79935	99.99
2.81602	99.99
2.83268	100.00
2.84935	100.00
2.86602	100.00
2.88268	100.00
2.89935	100.00
2.91602	100.00
2.93268	100.01
2.94935	100.00
2.96602	100.01
2.98268	100.01
2.99935	100.01
3.01602	100.01
3.03268	100.01
3.04935	100.01
3.06602	100.02
3.08268	100.02
3.09935	100.02
3.11602	100.02
3.13268	100.02
3.14935	100.02
3.16602	100.02
3.18268	100.02
3.19935	100.02
3.21602	100.03
3.23268	100.03
3.24935	100.03
3.26602	100.03
3.28268	100.03
3.29935	100.03
3.31602	100.03
3.33268	100.03
3.34935	100.03
3.36602	100.03
3.38268	100.04
3.39935	100.03
3.41602	100.04
3.43268	100.04
3.44935	100.04
3.46602	100.04
3.48268	100.03
3.49935	100.04
3.51602	100.04
3.53268	100.04
3.54935	100.04
3.56602	100.04
3.58268	100.04
3.59935	100.04
3.61602	100.04
3.63268	100.05
3.64935	100.04
3.66602	100.05
3.68268	100.04
3.69935	100.04
3.71602	100.05
3.73268	100.05
3.74935	100.05
3.76602	100.05
3.78268	100.05
3.79935	100.05
3.81602	100.05
3.83268	100.05
3.84935	100.05
3.86602	100.05
3.88268	100.05
3.89935	100.05
3.91602	100.05
3.93268	100.05
3.94935	100.05
3.96602	100.06
3.98268	100.05
3.99935	100.06

[Status Trace (Carrier Gas Pressure)]
Interval(msec)	1000
# of Points	240
Start Time(min)	0.016
End Time(min)	3.999
Intensity Units	
Intensity Multiplier	1
R.Time (min)	Intensity
0.01602	56.86
0.03268	55.78
0.04935	58.19
0.06602	59.90
0.08268	58.53
0.09935	57.97
0.11602	58.00
0.13268	58.01
0.14935	58.01
0.16602	58.00
0.18268	58.00
0.19935	58.00
0.21602	58.00
0.23268	58.00
0.24935	58.00
0.26602	58.00
0.28268	58.00
0.29935	58.00
0.31602	58.00
0.33268	58.00
0.34935	58.00
0.36602	58.00
0.38268	58.00
0.39935	58.00
0.41602	58.00
0.43268	58.00
0.44935	58.00
0.46602	58.00
0.48268	58.00
0.49935	58.00
0.51602	58.00
0.53268	58.00
0.54935	58.00
0.56602	58.00
0.58268	58.00
0.59935	58.00
0.61602	58.00
0.63268	58.00
0.64935	58.00
0.66602	58.00
0.68268	58.00
0.69935	58.00
0.71602	58.00
0.73268	58.00
0.74935	58.00
0.76602	58.00
0.78268	58.00
0.79935	58.00
0.81602	58.00
0.83268	58.00
0.84935	58.00
0.86602	58.00
0.88268	58.00
0.89935	58.00
0.91602	58.00
0.93268	58.00
0.94935	58.00
0.96602	58.00
0.98268	58.00
0.99935	58.00
1.01602	58.00
1.03268	58.00
1.04935	58.00
1.06602	58.00
1.08268	58.00
1.09935	58.00
1.11602	58.00
1.13268	58.00
1.14935	58.00
1.16602	58.00
1.18268	58.00
1.19935	58.00
1.21602	58.00
1.23268	58.00
1.24935	58.00
1.26602	58.00
1.28268	58.00
1.29935	58.00
1.31602	58.00
1.33268	58.00
1.34935	58.00
1.36602	58.00
1.38268	58.00
1.39935	58.00
1.41602	58.00
1.43268	58.00
1.44935	58.00
1.46602	58.00
1.48268	58.00
1.49935	58.00
1.51602	58.00
1.53268	58.00
1.54935	58.00
1.56602	58.00
1.58268	58.00
1.59935	58.00
1.61602	58.00
1.63268	58.01
1.64935	58.00
1.66602	58.00
1.68268	58.01
1.69935	58.00
1.71602	58.00
1.73268	58.00
1.74935	58.00
1.76602	58.00
1.78268	58.00
1.79935	58.00
1.81602	58.00
1.83268	58.00
1.84935	58.00
1.86602	58.00
1.88268	58.00
1.89935	58.00
1.91602	58.00
1.93268	58.00
1.94935	58.00
1.96602	58.00
1.98268	58.00
1.99935	58.00
2.01602	58.00
2.03268	58.00
2.04935	58.00
2.06602	58.00
2.08268	58.00
2.09935	58.00
2.11602	58.00
2.13268	58.00
2.14935	58.00
2.16602	58.00
2.18268	58.00
2.19935	58.00
2.21602	58.00
2.23268	58.00
2.24935	58.00
2.26602	58.00
2.28268	58.00
2.29935	58.00
2.31602	58.00
2.33268	58.00
2.34935	58.00
2.36602	58.00
2.38268	57.99
2.39935	57.99
2.41602	58.00
2.43268	58.00
2.44935	58.00
2.46602	58.00
2.48268	58.00
2.49935	58.00
2.51602	57.99
2.53268	57.99
2.54935	58.00
2.56602	58.00
2.58268	58.00
2.59935	58.00
2.61602	58.00
2.63268	58.00
2.64935	58.00
2.66602	58.00
2.68268	58.00
2.69935	58.00
2.71602	58.00
2.73268	58.00
2.74935	58.00
2.76602	58.00
2.78268	58.00
2.79935	58.00
2.81602	58.00
2.83268	58.00
2.84935	58.00
2.86602	58.00
2.88268	58.00
2.89935	58.00
2.91602	58.00
2.93268	58.00
2.94935	58.00
2.96602	58.00
2.98268	58.00
2.99935	58.00
3.01602	58.00
3.03268	58.00
3.04935	58.00
3.06602	58.00
3.08268	58.00
3.09935	58.00
3.11602	58.00
3.13268	58.00
3.14935	58.00
3.16602	58.00
3.18268	58.00
3.19935	58.00
3.21602	58.00
3.23268	58.00
3.24935	58.00
3.26602	58.00
3.28268	58.00
3.29935	58.00
3.31602	58.00
3.33268	58.00
3.34935	58.00
3.36602	58.00
3.38268	58.00
3.39935	58.00
3.41602	58.00
3.43268	58.00
3.44935	58.00
3.46602	58.00
3.48268	58.00
3.49935	58.00
3.51602	58.00
3.53268	58.00
3.54935	58.00
3.56602	58.00
3.58268	58.00
3.59935	58.00
3.61602	58.00
3.63268	58.00
3.64935	58.00
3.66602	58.00
3.68268	58.00
3.69935	58.00
3.71602	58.00
3.73268	58.00
3.74935	58.00
3.76602	58.00
3.78268	58.00
3.79935	58.00
3.81602	58.00
3.83268	58.00
3.84935	58.00
3.86602	58.00
3.88268	58.00
3.89935	58.00
3.91602	58.00
3.93268	58.00
3.94935	58.00
3.96602	58.00
3.98268	58.00
3.99935	58.00

[Status Trace (Carrier Gas Flow)]
Interval(msec)	1000
# of Points	240
Start Time(min)	0.016
End Time(min)	3.999
Intensity Units	
Intensity Multiplier	1
R.Time (min)	Intensity
0.01602	33.81
0.03268	34.54
0.04935	34.55
0.06602	34.51
0.08268	34.51
0.09935	34.52
0.11602	34.52
0.13268	34.52
0.14935	34.51
0.16602	34.52
0.18268	34.53
0.19935	34.52
0.21602	34.52
0.23268	34.52
0.24935	34.51
0.26602	34.52
0.28268	34.51
0.29935	34.52
0.31602	34.52
0.33268	34.52
0.34935	34.51
0.36602	34.51
0.38268	34.52
0.39935	34.52
0.41602	34.52
0.43268	34.52
0.44935	34.52
0.46602	34.52
0.48268	34.52
0.49935	34.52
0.51602	34.52
0.53268	34.52
0.54935	34.52
0.56602	34.52
0.58268	34.52
0.59935	34.52
0.61602	34.52
0.63268	34.52
0.64935	34.52
0.66602	34.51
0.68268	34.52
0.69935	34.52
0.71602	34.51
0.73268	34.52
0.74935	34.52
0.76602	34.52
0.78268	34.52
0.79935	34.51
0.81602	34.51
0.83268	34.52
0.84935	34.52
0.86602	34.52
0.88268	34.52
0.89935	34.52
0.91602	34.52
0.93268	34.51
0.94935	34.52
0.96602	34.52
0.98268	34.52
0.99935	34.52
1.01602	34.51
1.03268	34.52
1.04935	34.52
1.06602	34.52
1.08268	34.52
1.09935	34.52
1.11602	34.52
1.13268	34.52
1.14935	34.52
1.16602	34.52
1.18268	34.52
1.19935	34.52
1.21602	34.52
1.23268	34.52
1.24935	34.52
1.26602	34.52
1.28268	34.52
1.29935	34.51
1.31602	34.52
1.33268	34.52
1.34935	34.52
1.36602	34.52
1.38268	34.52
1.39935	34.52
1.41602	34.52
1.43268	34.51
1.44935	34.52
1.46602	34.52
1.48268	34.52
1.49935	34.51
1.51602	34.51
1.53268	34.52
1.54935	34.51
1.56602	34.52
1.58268	34.52
1.59935	34.52
1.61602	34.52
1.63268	34.52
1.64935	34.52
1.66602	34.51
1.68268	34.52
1.69935	34.52
1.71602	34.52
1.73268	34.52
1.74935	34.53
1.76602	34.52
1.78268	34.51
1.79935	34.52
1.81602	34.52
1.83268	34.52
1.84935	34.51
1.86602	34.52
1.88268	34.52
1.89935	34.52
1.91602	34.53
1.93268	34.51
1.94935	34.51
1.96602	34.52
1.98268	34.52
1.99935	34.52
2.01602	34.52
2.03268	34.52
2.04935	34.52
2.06602	34.52
2.08268	34.52
2.09935	34.52
2.11602	34.52
2.13268	34.52
2.14935	34.52
2.16602	34.52
2.18268	34.52
2.19935	34.52
2.21602	34.51
2.23268	34.51
2.24935	34.52
2.26602	34.52
2.28268	34.52
2.29935	34.52
2.31602	34.52
2.33268	34.52
2.34935	34.52
2.36602	34.52
2.38268	34.51
2.39935	34.52
2.41602	34.51
2.43268	34.52
2.44935	34.52
2.46602	34.53
2.48268	34.52
2.49935	34.52
2.51602	34.51
2.53268	34.53
2.54935	34.52
2.56602	34.51
2.58268	34.52
2.59935	34.52
2.61602	34.52
2.63268	34.51
2.64935	34.52
2.66602	34.52
2.68268	34.52
2.69935	34.52
2.71602	34.52
2.73268	34.52
2.74935	34.52
2.76602	34.52
2.78268	34.52
2.79935	34.52
2.81602	34.52
2.83268	34.51
2.84935	34.51
2.86602	34.52
2.88268	34.52
2.89935	34.51
2.91602	34.52
2.93268	34.52
2.94935	34.52
2.96602	34.52
2.98268	34.52
2.99935	34.52
3.01602	34.52
3.03268	34.51
3.04935	34.52
3.06602	34.51
3.08268	34.52
3.09935	34.52
3.11602	34.52
3.13268	34.52
3.14935	34.52
3.16602	34.52
3.18268	34.52
3.19935	34.52
3.21602	34.52
3.23268	34.52
3.24935	34.52
3.26602	34.52
3.28268	34.52
3.29935	34.52
3.31602	34.52
3.33268	34.52
3.34935	34.52
3.36602	34.52
3.38268	34.52
3.39935	34.52
3.41602	34.52
3.43268	34.52
3.44935	34.52
3.46602	34.52
3.48268	34.51
3.49935	34.52
3.51602	34.52
3.53268	34.52
3.54935	34.51
3.56602	34.52
3.58268	34.51
3.59935	34.52
3.61602	34.52
3.63268	34.52
3.64935	34.52
3.66602	34.52
3.68268	34.52
3.69935	34.52
3.71602	34.52
3.73268	34.52
3.74935	34.52
3.76602	34.52
3.78268	34.52
3.79935	34.52
3.81602	34.52
3.83268	34.51
3.84935	34.52
3.86602	34.52
3.88268	34.52
3.89935	34.52
3.91602	34.51
3.93268	34.52
3.94935	34.52
3.96602	34.52
3.98268	34.52
3.99935	34.52

[Status Trace (Column Flow)]
Interval(msec)	1000
# of Points	240
Start Time(min)	0.016
End Time(min)	3.999
Intensity Units	
Intensity Multiplier	1
R.Time (min)	Intensity
0.01602	5.38
0.03268	5.26
0.04935	5.54
0.06602	5.74
0.08268	5.58
0.09935	5.51
0.11602	5.51
0.13268	5.51
0.14935	5.51
0.16602	5.51
0.18268	5.52
0.19935	5.52
0.21602	5.52
0.23268	5.51
0.24935	5.51
0.26602	5.51
0.28268	5.51
0.29935	5.51
0.31602	5.51
0.33268	5.51
0.34935	5.51
0.36602	5.51
0.38268	5.51
0.39935	5.51
0.41602	5.51
0.43268	5.51
0.44935	5.51
0.46602	5.51
0.48268	5.51
0.49935	5.52
0.51602	5.51
0.53268	5.51
0.54935	5.51
0.56602	5.51
0.58268	5.51
0.59935	5.51
0.61602	5.51
0.63268	5.51
0.64935	5.51
0.66602	5.51
0.68268	5.51
0.69935	5.51
0.71602	5.51
0.73268	5.51
0.74935	5.51
0.76602	5.51
0.78268	5.51
0.79935	5.51
0.81602	5.51
0.83268	5.51
0.84935	5.51
0.86602	5.51
0.88268	5.51
0.89935	5.51
0.91602	5.51
0.93268	5.51
0.94935	5.51
0.96602	5.51
0.98268	5.51
0.99935	5.51
1.01602	5.51
1.03268	5.51
1.04935	5.51
1.06602	5.51
1.08268	5.51
1.09935	5.51
1.11602	5.51
1.13268	5.51
1.14935	5.51
1.16602	5.51
1.18268	5.51
1.19935	5.52
1.21602	5.52
1.23268	5.52
1.24935	5.51
1.26602	5.51
1.28268	5.51
1.29935	5.51
1.31602	5.51
1.33268	5.51
1.34935	5.51
1.36602	5.51
1.38268	5.51
1.39935	5.51
1.41602	5.51
1.43268	5.51
1.44935	5.51
1.46602	5.51
1.48268	5.52
1.49935	5.52
1.51602	5.52
1.53268	5.52
1.54935	5.52
1.56602	5.51
1.58268	5.52
1.59935	5.51
1.61602	5.51
1.63268	5.51
1.64935	5.50
1.66602	5.49
1.68268	5.48
1.69935	5.47
1.71602	5.46
1.73268	5.45
1.74935	5.44
1.76602	5.43
1.78268	5.42
1.79935	5.41
1.81602	5.40
1.83268	5.39
1.84935	5.38
1.86602	5.37
1.88268	5.36
1.89935	5.35
1.91602	5.34
1.93268	5.33
1.94935	5.32
1.96602	5.31
1.98268	5.30
1.99935	5.29
2.01602	5.28
2.03268	5.27
2.04935	5.26
2.06602	5.25
2.08268	5.24
2.09935	5.23
2.11602	5.22
2.13268	5.21
2.14935	5.20
2.16602	5.19
2.18268	5.19
2.19935	5.17
2.21602	5.16
2.23268	5.16
2.24935	5.15
2.26602	5.14
2.28268	5.13
2.29935	5.12
2.31602	5.11
2.33268	5.10
2.34935	5.09
2.36602	5.08
2.38268	5.08
2.39935	5.08
2.41602	5.08
2.43268	5.08
2.44935	5.08
2.46602	5.08
2.48268	5.08
2.49935	5.08
2.51602	5.08
2.53268	5.08
2.54935	5.08
2.56602	5.08
2.58268	5.08
2.59935	5.08
2.61602	5.08
2.63268	5.08
2.64935	5.08
2.66602	5.08
2.68268	5.08
2.69935	5.08
2.71602	5.08
2.73268	5.08
2.74935	5.08
2.76602	5.08
2.78268	5.08
2.79935	5.08
2.81602	5.08
2.83268	5.08
2.84935	5.08
2.86602	5.08
2.88268	5.07
2.89935	5.07
2.91602	5.07
2.93268	5.07
2.94935	5.07
2.96602	5.07
2.98268	5.07
2.99935	5.07
3.01602	5.07
3.03268	5.07
3.04935	5.07
3.06602	5.07
3.08268	5.07
3.09935	5.07
3.11602	5.07
3.13268	5.07
3.14935	5.07
3.16602	5.07
3.18268	5.07
3.19935	5.07
3.21602	5.07
3.23268	5.07
3.24935	5.07
3.26602	5.07
3.28268	5.07
3.29935	5.07
3.31602	5.07
3.33268	5.07
3.34935	5.07
3.36602	5.07
3.38268	5.07
3.39935	5.07
3.41602	5.07
3.43268	5.07
3.44935	5.07
3.46602	5.07
3.48268	5.07
3.49935	5.07
3.51602	5.07
3.53268	5.07
3.54935	5.07
3.56602	5.07
3.58268	5.07
3.59935	5.07
3.61602	5.07
3.63268	5.07
3.64935	5.07
3.66602	5.07
3.68268	5.07
3.69935	5.07
3.71602	5.07
3.73268	5.07
3.74935	5.07
3.76602	5.07
3.78268	5.07
3.79935	5.07
3.81602	5.07
3.83268	5.07
3.84935	5.07
3.86602	5.07
3.88268	5.07
3.89935	5.07
3.91602	5.07
3.93268	5.07
3.94935	5.07
3.96602	5.07
3.98268	5.07
3.99935	5.07

[Status Trace (Linear Velocity)]
Interval(msec)	1000
# of Points	240
Start Time(min)	0.016
End Time(min)	3.999
Intensity Units	
Intensity Multiplier	1
R.Time (min)	Intensity
0.01602	38.26
0.03268	37.55
0.04935	39.14
0.06602	40.25
0.08268	39.36
0.09935	38.99
0.11602	39.01
0.13268	39.02
0.14935	39.02
0.16602	39.02
0.18268	39.02
0.19935	39.02
0.21602	39.02
0.23268	39.02
0.24935	39.01
0.26602	39.01
0.28268	39.01
0.29935	39.01
0.31602	39.01
0.33268	39.01
0.34935	39.01
0.36602	39.01
0.38268	39.01
0.39935	39.01
0.41602	39.01
0.43268	39.01
0.44935	39.01
0.46602	39.01
0.48268	39.02
0.49935	39.02
0.51602	39.02
0.53268	39.02
0.54935	39.02
0.56602	39.02
0.58268	39.01
0.59935	39.01
0.61602	39.01
0.63268	39.01
0.64935	39.01
0.66602	39.02
0.68268	39.02
0.69935	39.02
0.71602	39.02
0.73268	39.02
0.74935	39.01
0.76602	39.01
0.78268	39.01
0.79935	39.01
0.81602	39.01
0.83268	39.01
0.84935	39.01
0.86602	39.01
0.88268	39.01
0.89935	39.01
0.91602	39.01
0.93268	39.01
0.94935	39.01
0.96602	39.01
0.98268	39.01
0.99935	39.01
1.01602	39.01
1.03268	39.02
1.04935	39.02
1.06602	39.02
1.08268	39.01
1.09935	39.01
1.11602	39.02
1.13268	39.02
1.14935	39.02
1.16602	39.02
1.18268	39.02
1.19935	39.02
1.21602	39.02
1.23268	39.02
1.24935	39.02
1.26602	39.02
1.28268	39.01
1.29935	39.01
1.31602	39.01
1.33268	39.01
1.34935	39.01
1.36602	39.01
1.38268	39.01
1.39935	39.01
1.41602	39.01
1.43268	39.01
1.44935	39.01
1.46602	39.01
1.48268	39.02
1.49935	39.02
1.51602	39.02
1.53268	39.02
1.54935	39.02
1.56602	39.02
1.58268	39.02
1.59935	39.01
1.61602	39.01
1.63268	38.99
1.64935	38.97
1.66602	38.94
1.68268	38.91
1.69935	38.88
1.71602	38.84
1.73268	38.81
1.74935	38.78
1.76602	38.74
1.78268	38.72
1.79935	38.68
1.81602	38.65
1.83268	38.62
1.84935	38.59
1.86602	38.56
1.88268	38.53
1.89935	38.49
1.91602	38.46
1.93268	38.44
1.94935	38.41
1.96602	38.37
1.98268	38.35
1.99935	38.31
2.01602	38.28
2.03268	38.26
2.04935	38.22
2.06602	38.19
2.08268	38.17
2.09935	38.13
2.11602	38.11
2.13268	38.08
2.14935	38.05
2.16602	38.02
2.18268	37.99
2.19935	37.96
2.21602	37.93
2.23268	37.90
2.24935	37.87
2.26602	37.84
2.28268	37.81
2.29935	37.78
2.31602	37.75
2.33268	37.72
2.34935	37.69
2.36602	37.67
2.38268	37.65
2.39935	37.65
2.41602	37.65
2.43268	37.66
2.44935	37.65
2.46602	37.65
2.48268	37.65
2.49935	37.65
2.51602	37.64
2.53268	37.64
2.54935	37.65
2.56602	37.65
2.58268	37.65
2.59935	37.65
2.61602	37.65
2.63268	37.64
2.64935	37.64
2.66602	37.64
2.68268	37.64
2.69935	37.64
2.71602	37.65
2.73268	37.64
2.74935	37.64
2.76602	37.64
2.78268	37.64
2.79935	37.64
2.81602	37.64
2.83268	37.64
2.84935	37.64
2.86602	37.64
2.88268	37.64
2.89935	37.64
2.91602	37.64
2.93268	37.64
2.94935	37.64
2.96602	37.63
2.98268	37.63
2.99935	37.63
3.01602	37.63
3.03268	37.63
3.04935	37.63
3.06602	37.63
3.08268	37.63
3.09935	37.63
3.11602	37.63
3.13268	37.63
3.14935	37.63
3.16602	37.63
3.18268	37.62
3.19935	37.62
3.21602	37.62
3.23268	37.62
3.24935	37.62
3.26602	37.62
3.28268	37.62
3.29935	37.62
3.31602	37.62
3.33268	37.62
3.34935	37.62
3.36602	37.63
3.38268	37.63
3.39935	37.63
3.41602	37.63
3.43268	37.63
3.44935	37.63
3.46602	37.63
3.48268	37.63
3.49935	37.63
3.51602	37.63
3.53268	37.63
3.54935	37.63
3.56602	37.63
3.58268	37.63
3.59935	37.63
3.61602	37.63
3.63268	37.63
3.64935	37.63
3.66602	37.63
3.68268	37.63
3.69935	37.63
3.71602	37.62
3.73268	37.62
3.74935	37.62
3.76602	37.63
3.78268	37.63
3.79935	37.63
3.81602	37.62
3.83268	37.63
3.84935	37.62
3.86602	37.62
3.88268	37.62
3.89935	37.63
3.91602	37.63
3.93268	37.62
3.94935	37.62
3.96602	37.63
3.98268	37.62
3.99935	37.63

