[Header]
Application Name	LabSolutions
Version	5.110
Data File Name	C:\Users\User\Desktop\GC Analyses\Jack\Nachusa Grasslands Sampling\T2 Timepoint July 12th\T2_07122022_089.gcd
Output Date	3/14/2023
Output Time	3:42:35 PM

[File Information]
Type	Data File
Generated	3/10/2023 10:24:37 PM
Generated by	System Administrator
Modified	3/10/2023 10:31:30 PM
Modified by	System Administrator

[Sample Information]
Operator Name	System Administrator
Acquired	3/10/2023 10:27:28 PM
Sample Type	0:Unknown
Level	0
Sample Name	089
Sample ID	089
ISTD Amount1	1
ISTD Amount2	1
ISTD Amount3	1
ISTD Amount4	1
ISTD Amount5	1
ISTD Amount6	1
ISTD Amount7	1
ISTD Amount8	1
ISTD Amount9	1
ISTD Amount10	1
ISTD Amount11	1
ISTD Amount12	1
ISTD Amount13	1
ISTD Amount14	1
ISTD Amount15	1
ISTD Amount16	1
ISTD Amount17	1
ISTD Amount18	1
ISTD Amount19	1
ISTD Amount20	1
ISTD Amount21	1
ISTD Amount22	1
ISTD Amount23	1
ISTD Amount24	1
ISTD Amount25	1
ISTD Amount26	1
ISTD Amount27	1
ISTD Amount28	1
ISTD Amount29	1
ISTD Amount30	1
ISTD Amount31	1
ISTD Amount32	1
Sample Amount	1
Dilution Factor	1
Vial#	88
Injection Volume	1
Injection Count	1
Bar Code	

[Original Files]
Data File	C:\Users\User\Desktop\GC Analyses\Jack\Nachusa Grasslands Sampling\T1 Timepoint July 12th\T2_07122022_089.gcd
Method File	C:\LabSolutions\Data\GHG_4min_2022\ghg3_togas_w_acet_4 min_new_int.gcm
Batch File	C:\LabSolutions\Data\AutoSamplerTesting\T2_07122022.gcb
Report Format File	c:\LabSolutions\System\DEFAULT.lsr

[File Description]


[Configuration]
Instrument Name	C0B7VH3-Instrument1
Instrument #	1
Line #	1
# of Detectors	3
Detector ID	DET#1	DET#2	DET#3
Detector Name	FID	PTCD	ECD
# of Channels	1	1	1

[Peak Table(Ch1)]
# of Peaks	3
Peak#	R.Time	I.Time	F.Time	Area	Height	A/H	Conc.	Mark	ID#	Name	k'	Plate #	Plate Ht.	Tailing	Resolution	Sep.Factor	Area Ratio	Height Ratio	Conc. %	Norm Conc.
1	1.483	1.439	1.531	2283	667	3.422	16.118	   	1	CO	0.000	4942	30.353	0.000	0.000	0.000	0	0	1.842	1.842
2	1.567	1.531	1.652	18893	9581	1.972	365.310	 V 	2	CH4	0.057	11551	12.986	1.187	1.182	0.000	0	0	41.758	41.758
3	1.996	1.938	2.539	1965903	936868	2.098	493.388	   	3	CO2	0.346	17450	8.596	1.235	7.223	6.087	0	0	56.399	56.399

[Peak Table(Ch2)]
# of Peaks	0

[Peak Table(Ch3)]
# of Peaks	5
Peak#	R.Time	I.Time	F.Time	Area	Height	A/H	Conc.	Mark	ID#	Name	k'	Plate #	Plate Ht.	Tailing	Resolution	Sep.Factor	Area Ratio	Height Ratio	Conc. %	Norm Conc.
1	2.458	2.345	2.513	1623	610	2.659	0.000	   			0.000	18021	8.323	0.000	0.000	0.000	0	0	0.000	0.000
2	2.532	2.513	2.572	397	189	2.103	0.000	 V 			0.030	15858	9.459	0.000	0.954	0.000	0	0	0.000	0.000
3	2.876	2.741	2.994	54945	14519	3.784	1.403	   	1	N2O	0.170	12769	11.747	1.559	3.783	5.700	0	0	100.000	100.000
4	3.060	2.994	3.129	2989	404	7.406	0.000	 V 			0.245	199	753.115	0.000	0.378	1.439	0	0	0.000	0.000
5	3.236	3.129	3.995	12650	420	30.124	0.000	 V 	2	SF6	0.316	75	2001.810	0.000	0.149	1.293	0	0	0.000	0.000

[Compound Results(Ch1)]
# of IDs	6
ID#	Name	R.Time	Area	Height	Conc.	Curve	3rd	2nd	1st	Constant	Area Ratio	Height Ratio	Conc. %	Norm Conc.
1	CO	1.483	2283	667	16.118	Linear	0.000000e+00	0.000000e+00	1.416423e+002	0.000000e+00	0	0	1.842	1.842
2	CH4	1.567	18893	9581	365.310	Linear	0.000000e+00	0.000000e+00	5.171738e+001	0.000000e+00	0	0	41.758	41.758
3	CO2	1.996	1965903	936868	493.388	Linear	0.000000e+00	0.000000e+00	3.984494e+003	0.000000e+00	0	0	56.399	56.399
4	Ethylene	0.000	0	0	0.000	Linear	0.000000e+00	0.000000e+00	0.000000e+00	0.000000e+00	0	0	0.000	0.000
5	Acetylene	0.000	0	0	0.000	Linear	0.000000e+00	0.000000e+00	0.000000e+00	0.000000e+00	0	0	0.000	0.000
6	Ethane	0.000	0	0	0.000	Linear	0.000000e+00	0.000000e+00	0.000000e+00	0.000000e+00	0	0	0.000	0.000

[Compound Results(Ch2)]
# of IDs	5
ID#	Name	R.Time	Area	Height	Conc.	Curve	3rd	2nd	1st	Constant	Area Ratio	Height Ratio	Conc. %	Norm Conc.
1	Hydrogen	0.000	0	0	0.000	Linear	0.000000e+00	0.000000e+00	0.000000e+00	0.000000e+00	0	0	0.000	0.000
2	Oxygen	0.000	0	0	0.000	Linear	0.000000e+00	0.000000e+00	0.000000e+00	0.000000e+00	0	0	0.000	0.000
3	Nitrogen	0.000	0	0	0.000	Linear	0.000000e+00	0.000000e+00	0.000000e+00	0.000000e+00	0	0	0.000	0.000
4	Methane	0.000	0	0	0.000	Linear	0.000000e+00	0.000000e+00	0.000000e+00	0.000000e+00	0	0	0.000	0.000
5	Carbon Monoxide	0.000	0	0	0.000	Linear	0.000000e+00	0.000000e+00	0.000000e+00	0.000000e+00	0	0	0.000	0.000

[Compound Results(Ch3)]
# of IDs	2
ID#	Name	R.Time	Area	Height	Conc.	Curve	3rd	2nd	1st	Constant	Area Ratio	Height Ratio	Conc. %	Norm Conc.
1	N2O	2.876	54945	14519	1.403	Linear	0.000000e+00	0.000000e+00	3.915173e+004	0.000000e+00	0	0	100.000	100.000
2	SF6	3.236	12650	420	0.000	Linear	0.000000e+00	0.000000e+00	0.000000e+00	0.000000e+00	0	0	0.000	0.000

[Group Results(Ch1)]
# of Groups	0

[Group Results(Ch2)]
# of Groups	0

[Group Results(Ch3)]
# of Groups	0

[Chromatogram (Ch1)]
Interval(msec)	220
# of Points	1091
Start Time(min)	0.002
End Time(min)	3.998
R.Time (min)	Intensity
0.00167	52
0.00533	50
0.00900	43
0.01267	35
0.01633	24
0.02000	13
0.02367	9
0.02733	15
0.03100	26
0.03467	35
0.03833	42
0.04200	49
0.04567	56
0.04933	62
0.05300	69
0.05667	80
0.06033	91
0.06400	92
0.06767	85
0.07133	79
0.07500	78
0.07867	82
0.08233	86
0.08600	88
0.08967	89
0.09333	85
0.09700	79
0.10067	74
0.10433	74
0.10800	74
0.11167	75
0.11533	73
0.11900	64
0.12267	55
0.12633	48
0.13000	43
0.13367	41
0.13733	41
0.14100	37
0.14467	32
0.14833	29
0.15200	29
0.15567	32
0.15933	37
0.16300	39
0.16667	35
0.17033	26
0.17400	20
0.17767	16
0.18133	13
0.18500	10
0.18867	6
0.19233	1
0.19600	-4
0.19967	-5
0.20333	-7
0.20700	-9
0.21067	-11
0.21433	-11
0.21800	-10
0.22167	-9
0.22533	-9
0.22900	-11
0.23267	-16
0.23633	-18
0.24000	-14
0.24367	-8
0.24733	-6
0.25100	-8
0.25467	-13
0.25833	-15
0.26200	-14
0.26567	-11
0.26933	-5
0.27300	5
0.27667	10
0.28033	9
0.28400	8
0.28767	3
0.29133	-3
0.29500	-3
0.29867	-1
0.30233	-4
0.30600	-10
0.30967	-17
0.31333	-20
0.31700	-19
0.32067	-14
0.32433	-8
0.32800	-6
0.33167	-8
0.33533	-13
0.33900	-18
0.34267	-20
0.34633	-19
0.35000	-18
0.35367	-17
0.35733	-16
0.36100	-18
0.36467	-21
0.36833	-24
0.37200	-24
0.37567	-20
0.37933	-14
0.38300	-8
0.38667	-3
0.39033	0
0.39400	4
0.39767	1
0.40133	-7
0.40500	-12
0.40867	-13
0.41233	-11
0.41600	-4
0.41967	2
0.42333	5
0.42700	0
0.43067	-13
0.43433	-26
0.43800	-33
0.44167	-31
0.44533	-26
0.44900	-25
0.45267	-26
0.45633	-25
0.46000	-24
0.46367	-22
0.46733	-19
0.47100	-17
0.47467	-15
0.47833	-10
0.48200	-5
0.48567	4
0.48933	16
0.49300	25
0.49667	28
0.50033	27
0.50400	25
0.50767	25
0.51133	28
0.51500	35
0.51867	40
0.52233	36
0.52600	30
0.52967	26
0.53333	27
0.53700	26
0.54067	21
0.54433	16
0.54800	11
0.55167	8
0.55533	2
0.55900	-5
0.56267	-9
0.56633	-10
0.57000	-5
0.57367	2
0.57733	5
0.58100	9
0.58467	13
0.58833	20
0.59200	29
0.59567	41
0.59933	50
0.60300	49
0.60667	40
0.61033	27
0.61400	20
0.61767	21
0.62133	28
0.62500	40
0.62867	48
0.63233	47
0.63600	39
0.63967	28
0.64333	21
0.64700	21
0.65067	25
0.65433	34
0.65800	40
0.66167	42
0.66533	40
0.66900	37
0.67267	34
0.67633	33
0.68000	32
0.68367	36
0.68733	40
0.69100	36
0.69467	32
0.69833	34
0.70200	38
0.70567	43
0.70933	44
0.71300	42
0.71667	42
0.72033	43
0.72400	41
0.72767	34
0.73133	28
0.73500	25
0.73867	22
0.74233	19
0.74600	19
0.74967	20
0.75333	22
0.75700	21
0.76067	25
0.76433	30
0.76800	34
0.77167	37
0.77533	37
0.77900	33
0.78267	30
0.78633	31
0.79000	31
0.79367	28
0.79733	26
0.80100	21
0.80467	20
0.80833	23
0.81200	29
0.81567	32
0.81933	28
0.82300	22
0.82667	15
0.83033	8
0.83400	5
0.83767	8
0.84133	12
0.84500	12
0.84867	11
0.85233	10
0.85600	8
0.85967	10
0.86333	15
0.86700	18
0.87067	24
0.87433	33
0.87800	37
0.88167	36
0.88533	33
0.88900	32
0.89267	36
0.89633	40
0.90000	40
0.90367	40
0.90733	41
0.91100	41
0.91467	41
0.91833	37
0.92200	28
0.92567	22
0.92933	19
0.93300	24
0.93667	36
0.94033	48
0.94400	51
0.94767	46
0.95133	37
0.95500	28
0.95867	27
0.96233	30
0.96600	31
0.96967	32
0.97333	30
0.97700	21
0.98067	11
0.98433	4
0.98800	4
0.99167	6
0.99533	3
0.99900	0
1.00267	-2
1.00633	-5
1.01000	-6
1.01367	-3
1.01733	-1
1.02100	-2
1.02467	-6
1.02833	-10
1.03200	-9
1.03567	-6
1.03933	-6
1.04300	-8
1.04667	-8
1.05033	-6
1.05400	-0
1.05767	9
1.06133	24
1.06500	36
1.06867	41
1.07233	41
1.07600	35
1.07967	25
1.08333	17
1.08700	8
1.09067	6
1.09433	9
1.09800	14
1.10167	17
1.10533	19
1.10900	21
1.11267	19
1.11633	12
1.12000	6
1.12367	5
1.12733	4
1.13100	2
1.13467	3
1.13833	11
1.14200	19
1.14567	20
1.14933	16
1.15300	11
1.15667	6
1.16033	1
1.16400	-3
1.16767	-3
1.17133	0
1.17500	4
1.17867	4
1.18233	6
1.18600	8
1.18967	12
1.19333	18
1.19700	25
1.20067	28
1.20433	31
1.20800	31
1.21167	30
1.21533	24
1.21900	11
1.22267	-2
1.22633	-11
1.23000	-12
1.23367	-9
1.23733	-3
1.24100	3
1.24467	2
1.24833	-4
1.25200	-7
1.25567	-7
1.25933	-6
1.26300	-1
1.26667	2
1.27033	6
1.27400	8
1.27767	4
1.28133	-5
1.28500	-10
1.28867	-8
1.29233	-5
1.29600	-7
1.29967	-7
1.30333	-1
1.30700	2
1.31067	-1
1.31433	-1
1.31800	-2
1.32167	-1
1.32533	4
1.32900	6
1.33267	11
1.33633	14
1.34000	12
1.34367	5
1.34733	-2
1.35100	-6
1.35467	-8
1.35833	-7
1.36200	-2
1.36567	-3
1.36933	-9
1.37300	-15
1.37667	-14
1.38033	-9
1.38400	-5
1.38767	-6
1.39133	-8
1.39500	-5
1.39867	-2
1.40233	0
1.40600	4
1.40967	9
1.41333	16
1.41700	22
1.42067	18
1.42433	10
1.42800	-0
1.43167	-12
1.43533	-12
1.43900	24
1.44267	138
1.44633	314
1.45000	472
1.45367	573
1.45733	622
1.46100	637
1.46467	633
1.46833	632
1.47200	640
1.47567	660
1.47933	681
1.48300	686
1.48667	662
1.49033	605
1.49400	531
1.49767	463
1.50133	398
1.50500	331
1.50867	271
1.51233	223
1.51600	187
1.51967	160
1.52333	138
1.52700	123
1.53067	113
1.53433	124
1.53800	239
1.54167	670
1.54533	1675
1.54900	3271
1.55267	5144
1.55633	6904
1.56000	8312
1.56367	9248
1.56733	9591
1.57100	9218
1.57467	8162
1.57833	6677
1.58200	5104
1.58567	3701
1.58933	2584
1.59300	1759
1.59667	1180
1.60033	784
1.60400	519
1.60767	344
1.61133	230
1.61500	158
1.61867	112
1.62233	82
1.62600	64
1.62967	57
1.63333	52
1.63700	46
1.64067	34
1.64433	21
1.64800	9
1.65167	1
1.65533	-1
1.65900	-1
1.66267	3
1.66633	9
1.67000	14
1.67367	15
1.67733	14
1.68100	11
1.68467	11
1.68833	8
1.69200	3
1.69567	0
1.69933	-2
1.70300	-2
1.70667	3
1.71033	10
1.71400	19
1.71767	26
1.72133	26
1.72500	22
1.72867	18
1.73233	18
1.73600	18
1.73967	16
1.74333	13
1.74700	10
1.75067	7
1.75433	6
1.75800	10
1.76167	17
1.76533	24
1.76900	25
1.77267	20
1.77633	13
1.78000	7
1.78367	1
1.78733	-4
1.79100	-5
1.79467	-5
1.79833	-8
1.80200	-11
1.80567	-15
1.80933	-18
1.81300	-14
1.81667	-6
1.82033	2
1.82400	6
1.82767	6
1.83133	6
1.83500	2
1.83867	-1
1.84233	-1
1.84600	2
1.84967	7
1.85333	11
1.85700	14
1.86067	16
1.86433	18
1.86800	17
1.87167	16
1.87533	15
1.87900	16
1.88267	20
1.88633	24
1.89000	25
1.89367	24
1.89733	23
1.90100	21
1.90467	17
1.90833	14
1.91200	9
1.91567	9
1.91933	10
1.92300	10
1.92667	9
1.93033	9
1.93400	9
1.93767	16
1.94133	28
1.94500	39
1.94867	49
1.95233	96
1.95600	388
1.95967	1974
1.96333	8605
1.96700	29695
1.97067	81380
1.97433	179472
1.97800	326007
1.98167	502418
1.98533	677676
1.98900	821519
1.99267	911965
1.99633	936933
2.00000	895775
2.00367	799906
2.00733	670146
2.01100	530425
2.01467	400452
2.01833	291606
2.02200	207180
2.02567	145202
2.02933	101409
2.03300	71230
2.03667	50736
2.04033	36909
2.04400	27574
2.04767	21222
2.05133	16844
2.05500	13769
2.05867	11556
2.06233	9921
2.06600	8681
2.06967	7717
2.07333	6950
2.07700	6327
2.08067	5814
2.08433	5382
2.08800	5012
2.09167	4688
2.09533	4398
2.09900	4142
2.10267	3918
2.10633	3720
2.11000	3542
2.11367	3380
2.11733	3231
2.12100	3096
2.12467	2966
2.12833	2842
2.13200	2728
2.13567	2624
2.13933	2521
2.14300	2425
2.14667	2339
2.15033	2260
2.15400	2186
2.15767	2118
2.16133	2055
2.16500	2000
2.16867	1947
2.17233	1893
2.17600	1837
2.17967	1786
2.18333	1740
2.18700	1700
2.19067	1661
2.19433	1618
2.19800	1574
2.20167	1532
2.20533	1495
2.20900	1458
2.21267	1421
2.21633	1384
2.22000	1352
2.22367	1320
2.22733	1289
2.23100	1261
2.23467	1232
2.23833	1204
2.24200	1181
2.24567	1161
2.24933	1143
2.25300	1125
2.25667	1108
2.26033	1086
2.26400	1065
2.26767	1048
2.27133	1033
2.27500	1020
2.27867	1005
2.28233	987
2.28600	970
2.28967	955
2.29333	947
2.29700	940
2.30067	931
2.30433	917
2.30800	905
2.31167	894
2.31533	880
2.31900	863
2.32267	844
2.32633	827
2.33000	811
2.33367	799
2.33733	791
2.34100	785
2.34467	775
2.34833	765
2.35200	760
2.35567	756
2.35933	750
2.36300	742
2.36667	731
2.37033	723
2.37400	715
2.37767	708
2.38133	700
2.38500	693
2.38867	686
2.39233	677
2.39600	672
2.39967	674
2.40333	679
2.40700	681
2.41067	676
2.41433	665
2.41800	653
2.42167	644
2.42533	639
2.42900	636
2.43267	632
2.43633	623
2.44000	611
2.44367	598
2.44733	586
2.45100	580
2.45467	582
2.45833	587
2.46200	588
2.46567	583
2.46933	575
2.47300	566
2.47667	553
2.48033	543
2.48400	539
2.48767	534
2.49133	528
2.49500	523
2.49867	519
2.50233	518
2.50600	518
2.50967	514
2.51333	508
2.51700	508
2.52067	511
2.52433	516
2.52800	522
2.53167	526
2.53533	524
2.53900	521
2.54267	517
2.54633	514
2.55000	512
2.55367	503
2.55733	492
2.56100	480
2.56467	469
2.56833	465
2.57200	467
2.57567	472
2.57933	478
2.58300	480
2.58667	477
2.59033	472
2.59400	466
2.59767	461
2.60133	458
2.60500	458
2.60867	458
2.61233	459
2.61600	463
2.61967	468
2.62333	470
2.62700	466
2.63067	455
2.63433	441
2.63800	432
2.64167	424
2.64533	412
2.64900	402
2.65267	399
2.65633	402
2.66000	407
2.66367	414
2.66733	418
2.67100	420
2.67467	420
2.67833	421
2.68200	420
2.68567	421
2.68933	426
2.69300	431
2.69667	430
2.70033	429
2.70400	429
2.70767	430
2.71133	434
2.71500	440
2.71867	444
2.72233	448
2.72600	452
2.72967	455
2.73333	455
2.73700	451
2.74067	444
2.74433	436
2.74800	431
2.75167	427
2.75533	425
2.75900	427
2.76267	427
2.76633	427
2.77000	429
2.77367	428
2.77733	424
2.78100	416
2.78467	407
2.78833	403
2.79200	403
2.79567	400
2.79933	395
2.80300	392
2.80667	391
2.81033	395
2.81400	401
2.81767	405
2.82133	411
2.82500	417
2.82867	418
2.83233	414
2.83600	408
2.83967	402
2.84333	396
2.84700	395
2.85067	399
2.85433	404
2.85800	405
2.86167	405
2.86533	398
2.86900	392
2.87267	392
2.87633	392
2.88000	389
2.88367	385
2.88733	383
2.89100	387
2.89467	390
2.89833	392
2.90200	393
2.90567	394
2.90933	396
2.91300	399
2.91667	397
2.92033	393
2.92400	393
2.92767	394
2.93133	394
2.93500	394
2.93867	394
2.94233	394
2.94600	389
2.94967	384
2.95333	382
2.95700	389
2.96067	394
2.96433	393
2.96800	389
2.97167	383
2.97533	376
2.97900	367
2.98267	359
2.98633	352
2.99000	348
2.99367	351
2.99733	357
3.00100	364
3.00467	372
3.00833	376
3.01200	377
3.01567	375
3.01933	372
3.02300	368
3.02667	367
3.03033	369
3.03400	372
3.03767	372
3.04133	369
3.04500	358
3.04867	345
3.05233	334
3.05600	333
3.05967	336
3.06333	337
3.06700	339
3.07067	339
3.07433	338
3.07800	341
3.08167	346
3.08533	352
3.08900	351
3.09267	344
3.09633	338
3.10000	335
3.10367	335
3.10733	337
3.11100	341
3.11467	347
3.11833	351
3.12200	349
3.12567	345
3.12933	338
3.13300	338
3.13667	338
3.14033	338
3.14400	337
3.14767	331
3.15133	323
3.15500	320
3.15867	324
3.16233	331
3.16600	334
3.16967	338
3.17333	347
3.17700	352
3.18067	349
3.18433	341
3.18800	331
3.19167	322
3.19533	316
3.19900	314
3.20267	314
3.20633	315
3.21000	315
3.21367	315
3.21733	316
3.22100	315
3.22467	310
3.22833	303
3.23200	298
3.23567	293
3.23933	293
3.24300	299
3.24667	310
3.25033	319
3.25400	318
3.25767	309
3.26133	296
3.26500	286
3.26867	285
3.27233	286
3.27600	287
3.27967	288
3.28333	287
3.28700	289
3.29067	291
3.29433	293
3.29800	296
3.30167	300
3.30533	300
3.30900	294
3.31267	287
3.31633	285
3.32000	288
3.32367	289
3.32733	289
3.33100	290
3.33467	290
3.33833	288
3.34200	282
3.34567	276
3.34933	273
3.35300	277
3.35667	280
3.36033	276
3.36400	268
3.36767	261
3.37133	258
3.37500	262
3.37867	268
3.38233	273
3.38600	278
3.38967	280
3.39333	278
3.39700	273
3.40067	269
3.40433	266
3.40800	265
3.41167	266
3.41533	268
3.41900	271
3.42267	274
3.42633	276
3.43000	277
3.43367	275
3.43733	269
3.44100	263
3.44467	258
3.44833	257
3.45200	254
3.45567	248
3.45933	238
3.46300	233
3.46667	237
3.47033	242
3.47400	249
3.47767	257
3.48133	258
3.48500	255
3.48867	249
3.49233	246
3.49600	246
3.49967	250
3.50333	255
3.50700	263
3.51067	273
3.51433	276
3.51800	274
3.52167	271
3.52533	267
3.52900	262
3.53267	258
3.53633	253
3.54000	251
3.54367	248
3.54733	244
3.55100	245
3.55467	250
3.55833	255
3.56200	259
3.56567	260
3.56933	258
3.57300	252
3.57667	246
3.58033	242
3.58400	246
3.58767	252
3.59133	253
3.59500	252
3.59867	249
3.60233	242
3.60600	229
3.60967	216
3.61333	211
3.61700	215
3.62067	217
3.62433	218
3.62800	215
3.63167	215
3.63533	217
3.63900	225
3.64267	231
3.64633	237
3.65000	244
3.65367	248
3.65733	246
3.66100	238
3.66467	228
3.66833	220
3.67200	216
3.67567	213
3.67933	211
3.68300	210
3.68667	209
3.69033	208
3.69400	209
3.69767	212
3.70133	216
3.70500	223
3.70867	231
3.71233	237
3.71600	240
3.71967	241
3.72333	244
3.72700	248
3.73067	252
3.73433	250
3.73800	243
3.74167	235
3.74533	231
3.74900	230
3.75267	226
3.75633	219
3.76000	215
3.76367	212
3.76733	206
3.77100	203
3.77467	203
3.77833	203
3.78200	202
3.78567	199
3.78933	198
3.79300	197
3.79667	197
3.80033	200
3.80400	200
3.80767	201
3.81133	199
3.81500	195
3.81867	193
3.82233	193
3.82600	195
3.82967	198
3.83333	200
3.83700	200
3.84067	201
3.84433	202
3.84800	207
3.85167	213
3.85533	218
3.85900	221
3.86267	222
3.86633	225
3.87000	226
3.87367	223
3.87733	213
3.88100	201
3.88467	192
3.88833	193
3.89200	197
3.89567	195
3.89933	188
3.90300	181
3.90667	181
3.91033	184
3.91400	189
3.91767	191
3.92133	192
3.92500	191
3.92867	187
3.93233	182
3.93600	179
3.93967	181
3.94333	186
3.94700	190
3.95067	192
3.95433	194
3.95800	195
3.96167	197
3.96533	197
3.96900	193
3.97267	189
3.97633	185
3.98000	184
3.98367	186
3.98733	185
3.99100	185
3.99467	187
3.99833	188

[Chromatogram (Ch2)]
Interval(msec)	220
# of Points	1091
Start Time(min)	0.002
End Time(min)	3.998
R.Time (min)	Intensity
0.00167	-0
0.00533	-0
0.00900	-0
0.01267	-0
0.01633	-0
0.02000	-0
0.02367	-0
0.02733	0
0.03100	0
0.03467	0
0.03833	0
0.04200	0
0.04567	0
0.04933	-0
0.05300	-0
0.05667	-1
0.06033	-1
0.06400	-2
0.06767	-2
0.07133	-3
0.07500	-3
0.07867	-3
0.08233	-3
0.08600	-3
0.08967	-3
0.09333	-3
0.09700	-3
0.10067	-3
0.10433	-3
0.10800	-2
0.11167	-2
0.11533	-1
0.11900	-1
0.12267	-1
0.12633	-0
0.13000	0
0.13367	0
0.13733	0
0.14100	0
0.14467	1
0.14833	1
0.15200	1
0.15567	1
0.15933	2
0.16300	2
0.16667	2
0.17033	2
0.17400	2
0.17767	2
0.18133	1
0.18500	1
0.18867	1
0.19233	1
0.19600	1
0.19967	1
0.20333	1
0.20700	2
0.21067	2
0.21433	2
0.21800	2
0.22167	1
0.22533	1
0.22900	1
0.23267	1
0.23633	1
0.24000	1
0.24367	1
0.24733	0
0.25100	0
0.25467	-0
0.25833	-0
0.26200	-1
0.26567	-1
0.26933	-1
0.27300	-1
0.27667	-1
0.28033	-1
0.28400	-1
0.28767	-1
0.29133	-1
0.29500	-1
0.29867	-1
0.30233	-1
0.30600	-1
0.30967	-1
0.31333	-1
0.31700	-1
0.32067	-1
0.32433	-1
0.32800	-1
0.33167	-1
0.33533	-0
0.33900	-0
0.34267	0
0.34633	0
0.35000	0
0.35367	1
0.35733	0
0.36100	0
0.36467	0
0.36833	0
0.37200	1
0.37567	1
0.37933	1
0.38300	1
0.38667	1
0.39033	1
0.39400	1
0.39767	1
0.40133	1
0.40500	0
0.40867	0
0.41233	0
0.41600	1
0.41967	1
0.42333	1
0.42700	1
0.43067	1
0.43433	1
0.43800	0
0.44167	-0
0.44533	-0
0.44900	-1
0.45267	-1
0.45633	-1
0.46000	-2
0.46367	-2
0.46733	-2
0.47100	-2
0.47467	-2
0.47833	-2
0.48200	-2
0.48567	-2
0.48933	-2
0.49300	-2
0.49667	-3
0.50033	-2
0.50400	-2
0.50767	-2
0.51133	-2
0.51500	-1
0.51867	-1
0.52233	-1
0.52600	-1
0.52967	-1
0.53333	-1
0.53700	-2
0.54067	-2
0.54433	-2
0.54800	-2
0.55167	-2
0.55533	-2
0.55900	-2
0.56267	-2
0.56633	-2
0.57000	-2
0.57367	-2
0.57733	-2
0.58100	-2
0.58467	-1
0.58833	-1
0.59200	-0
0.59567	0
0.59933	1
0.60300	2
0.60667	2
0.61033	3
0.61400	3
0.61767	4
0.62133	4
0.62500	4
0.62867	4
0.63233	4
0.63600	4
0.63967	3
0.64333	3
0.64700	3
0.65067	2
0.65433	2
0.65800	2
0.66167	1
0.66533	1
0.66900	0
0.67267	-0
0.67633	-1
0.68000	-1
0.68367	-1
0.68733	-1
0.69100	-1
0.69467	-1
0.69833	-2
0.70200	-2
0.70567	-2
0.70933	-2
0.71300	-2
0.71667	-2
0.72033	-2
0.72400	-2
0.72767	-2
0.73133	-3
0.73500	-3
0.73867	-3
0.74233	-3
0.74600	-3
0.74967	-3
0.75333	-3
0.75700	-3
0.76067	-3
0.76433	-3
0.76800	-3
0.77167	-3
0.77533	-2
0.77900	-2
0.78267	-2
0.78633	-1
0.79000	-1
0.79367	-1
0.79733	-1
0.80100	-1
0.80467	-1
0.80833	-2
0.81200	-2
0.81567	-2
0.81933	-2
0.82300	-2
0.82667	-2
0.83033	-2
0.83400	-2
0.83767	-2
0.84133	-2
0.84500	-2
0.84867	-2
0.85233	-2
0.85600	-2
0.85967	-2
0.86333	-2
0.86700	-2
0.87067	-2
0.87433	-2
0.87800	-2
0.88167	-2
0.88533	-2
0.88900	-2
0.89267	-3
0.89633	-3
0.90000	-2
0.90367	-2
0.90733	-1
0.91100	-1
0.91467	-1
0.91833	-1
0.92200	-1
0.92567	-0
0.92933	-0
0.93300	-1
0.93667	-1
0.94033	-1
0.94400	-1
0.94767	-1
0.95133	-2
0.95500	-2
0.95867	-2
0.96233	-2
0.96600	-2
0.96967	-2
0.97333	-2
0.97700	-2
0.98067	-2
0.98433	-2
0.98800	-2
0.99167	-2
0.99533	-2
0.99900	-2
1.00267	-2
1.00633	-2
1.01000	-2
1.01367	-2
1.01733	-1
1.02100	-1
1.02467	-1
1.02833	-1
1.03200	-1
1.03567	-1
1.03933	-1
1.04300	-1
1.04667	-1
1.05033	-2
1.05400	-2
1.05767	-2
1.06133	-2
1.06500	-1
1.06867	-1
1.07233	-1
1.07600	-1
1.07967	-1
1.08333	-1
1.08700	-1
1.09067	-2
1.09433	-2
1.09800	-2
1.10167	-2
1.10533	-2
1.10900	-1
1.11267	-1
1.11633	-2
1.12000	-2
1.12367	-1
1.12733	-1
1.13100	-1
1.13467	-1
1.13833	-1
1.14200	-1
1.14567	-2
1.14933	-2
1.15300	-2
1.15667	-2
1.16033	-2
1.16400	-3
1.16767	-3
1.17133	-3
1.17500	-3
1.17867	-3
1.18233	-3
1.18600	-3
1.18967	-3
1.19333	-3
1.19700	-3
1.20067	-3
1.20433	-3
1.20800	-3
1.21167	-3
1.21533	-3
1.21900	-4
1.22267	-4
1.22633	-4
1.23000	-4
1.23367	-4
1.23733	-4
1.24100	-4
1.24467	-3
1.24833	-3
1.25200	-3
1.25567	-3
1.25933	-3
1.26300	-3
1.26667	-3
1.27033	-3
1.27400	-3
1.27767	-3
1.28133	-3
1.28500	-3
1.28867	-3
1.29233	-3
1.29600	-3
1.29967	-3
1.30333	-3
1.30700	-3
1.31067	-3
1.31433	-3
1.31800	-3
1.32167	-3
1.32533	-3
1.32900	-2
1.33267	-2
1.33633	-2
1.34000	-2
1.34367	-2
1.34733	-2
1.35100	-2
1.35467	-2
1.35833	-2
1.36200	-2
1.36567	-3
1.36933	-3
1.37300	-3
1.37667	-3
1.38033	-3
1.38400	-4
1.38767	-4
1.39133	-4
1.39500	-4
1.39867	-4
1.40233	-4
1.40600	-4
1.40967	-4
1.41333	-4
1.41700	-5
1.42067	-5
1.42433	-5
1.42800	-5
1.43167	-5
1.43533	-4
1.43900	-4
1.44267	-4
1.44633	-4
1.45000	-4
1.45367	-3
1.45733	-3
1.46100	-2
1.46467	-2
1.46833	-2
1.47200	-2
1.47567	-2
1.47933	-2
1.48300	-3
1.48667	-3
1.49033	-3
1.49400	-4
1.49767	-4
1.50133	-4
1.50500	-4
1.50867	-5
1.51233	-5
1.51600	-5
1.51967	-5
1.52333	-5
1.52700	-5
1.53067	-5
1.53433	-5
1.53800	-5
1.54167	-5
1.54533	-4
1.54900	-4
1.55267	-4
1.55633	-3
1.56000	-3
1.56367	-3
1.56733	-2
1.57100	-2
1.57467	-1
1.57833	-1
1.58200	-1
1.58567	-1
1.58933	-1
1.59300	-1
1.59667	-2
1.60033	-2
1.60400	-4
1.60767	-5
1.61133	-7
1.61500	-9
1.61867	-12
1.62233	-14
1.62600	-17
1.62967	-21
1.63333	-24
1.63700	-28
1.64067	-32
1.64433	-35
1.64800	-39
1.65167	-43
1.65533	-46
1.65900	-50
1.66267	-53
1.66633	-57
1.67000	-62
1.67367	-66
1.67733	-71
1.68100	-76
1.68467	-81
1.68833	-85
1.69200	-89
1.69567	-93
1.69933	-96
1.70300	-99
1.70667	-101
1.71033	-103
1.71400	-104
1.71767	-105
1.72133	-106
1.72500	-107
1.72867	-107
1.73233	-107
1.73600	-106
1.73967	-106
1.74333	-105
1.74700	-105
1.75067	-105
1.75433	-105
1.75800	-105
1.76167	-106
1.76533	-107
1.76900	-108
1.77267	-110
1.77633	-111
1.78000	-112
1.78367	-113
1.78733	-114
1.79100	-115
1.79467	-115
1.79833	-115
1.80200	-115
1.80567	-115
1.80933	-114
1.81300	-114
1.81667	-113
1.82033	-113
1.82400	-113
1.82767	-112
1.83133	-112
1.83500	-112
1.83867	-112
1.84233	-113
1.84600	-113
1.84967	-113
1.85333	-114
1.85700	-114
1.86067	-115
1.86433	-115
1.86800	-115
1.87167	-115
1.87533	-114
1.87900	-114
1.88267	-114
1.88633	-113
1.89000	-113
1.89367	-113
1.89733	-113
1.90100	-112
1.90467	-112
1.90833	-112
1.91200	-112
1.91567	-112
1.91933	-111
1.92300	-111
1.92667	-111
1.93033	-111
1.93400	-111
1.93767	-112
1.94133	-112
1.94500	-112
1.94867	-113
1.95233	-113
1.95600	-113
1.95967	-112
1.96333	-111
1.96700	-110
1.97067	-110
1.97433	-109
1.97800	-108
1.98167	-108
1.98533	-108
1.98900	-108
1.99267	-108
1.99633	-108
2.00000	-108
2.00367	-107
2.00733	-107
2.01100	-106
2.01467	-106
2.01833	-106
2.02200	-105
2.02567	-105
2.02933	-105
2.03300	-106
2.03667	-106
2.04033	-106
2.04400	-106
2.04767	-105
2.05133	-105
2.05500	-104
2.05867	-103
2.06233	-102
2.06600	-101
2.06967	-101
2.07333	-101
2.07700	-101
2.08067	-101
2.08433	-100
2.08800	-99
2.09167	-98
2.09533	-97
2.09900	-97
2.10267	-97
2.10633	-96
2.11000	-97
2.11367	-97
2.11733	-97
2.12100	-97
2.12467	-97
2.12833	-97
2.13200	-97
2.13567	-97
2.13933	-97
2.14300	-96
2.14667	-96
2.15033	-96
2.15400	-95
2.15767	-95
2.16133	-94
2.16500	-94
2.16867	-94
2.17233	-93
2.17600	-93
2.17967	-92
2.18333	-92
2.18700	-92
2.19067	-92
2.19433	-92
2.19800	-91
2.20167	-91
2.20533	-91
2.20900	-90
2.21267	-90
2.21633	-90
2.22000	-89
2.22367	-89
2.22733	-88
2.23100	-88
2.23467	-87
2.23833	-86
2.24200	-86
2.24567	-86
2.24933	-86
2.25300	-86
2.25667	-85
2.26033	-85
2.26400	-85
2.26767	-84
2.27133	-84
2.27500	-84
2.27867	-84
2.28233	-84
2.28600	-84
2.28967	-84
2.29333	-83
2.29700	-83
2.30067	-83
2.30433	-84
2.30800	-84
2.31167	-84
2.31533	-84
2.31900	-84
2.32267	-83
2.32633	-82
2.33000	-81
2.33367	-80
2.33733	-80
2.34100	-79
2.34467	-79
2.34833	-78
2.35200	-78
2.35567	-78
2.35933	-77
2.36300	-76
2.36667	-74
2.37033	-72
2.37400	-69
2.37767	-65
2.38133	-61
2.38500	-56
2.38867	-51
2.39233	-47
2.39600	-42
2.39967	-38
2.40333	-33
2.40700	-29
2.41067	-25
2.41433	-22
2.41800	-19
2.42167	-17
2.42533	-15
2.42900	-14
2.43267	-12
2.43633	-12
2.44000	-11
2.44367	-11
2.44733	-10
2.45100	-10
2.45467	-9
2.45833	-8
2.46200	-7
2.46567	-6
2.46933	-5
2.47300	-4
2.47667	-2
2.48033	-1
2.48400	0
2.48767	1
2.49133	2
2.49500	3
2.49867	4
2.50233	5
2.50600	5
2.50967	6
2.51333	7
2.51700	8
2.52067	9
2.52433	10
2.52800	10
2.53167	11
2.53533	11
2.53900	12
2.54267	12
2.54633	13
2.55000	13
2.55367	13
2.55733	14
2.56100	14
2.56467	14
2.56833	14
2.57200	14
2.57567	15
2.57933	15
2.58300	15
2.58667	16
2.59033	16
2.59400	17
2.59767	17
2.60133	17
2.60500	17
2.60867	18
2.61233	18
2.61600	18
2.61967	18
2.62333	18
2.62700	17
2.63067	17
2.63433	17
2.63800	17
2.64167	18
2.64533	18
2.64900	18
2.65267	19
2.65633	19
2.66000	20
2.66367	20
2.66733	21
2.67100	21
2.67467	21
2.67833	21
2.68200	21
2.68567	20
2.68933	20
2.69300	21
2.69667	21
2.70033	21
2.70400	21
2.70767	22
2.71133	22
2.71500	22
2.71867	23
2.72233	23
2.72600	24
2.72967	24
2.73333	25
2.73700	25
2.74067	25
2.74433	25
2.74800	24
2.75167	24
2.75533	24
2.75900	24
2.76267	24
2.76633	24
2.77000	25
2.77367	25
2.77733	25
2.78100	25
2.78467	25
2.78833	25
2.79200	26
2.79567	26
2.79933	26
2.80300	26
2.80667	26
2.81033	26
2.81400	26
2.81767	26
2.82133	26
2.82500	26
2.82867	25
2.83233	25
2.83600	25
2.83967	23
2.84333	21
2.84700	17
2.85067	10
2.85433	0
2.85800	-14
2.86167	-32
2.86533	-55
2.86900	-84
2.87267	-119
2.87633	-158
2.88000	-204
2.88367	-254
2.88733	-310
2.89100	-370
2.89467	-434
2.89833	-502
2.90200	-574
2.90567	-648
2.90933	-725
2.91300	-805
2.91667	-887
2.92033	-972
2.92400	-1057
2.92767	-1144
2.93133	-1233
2.93500	-1323
2.93867	-1407
2.94233	-1472
2.94600	-1507
2.94967	-1506
2.95333	-1470
2.95700	-1405
2.96067	-1319
2.96433	-1218
2.96800	-1110
2.97167	-1001
2.97533	-893
2.97900	-791
2.98267	-696
2.98633	-608
2.99000	-529
2.99367	-458
2.99733	-395
3.00100	-340
3.00467	-292
3.00833	-249
3.01200	-213
3.01567	-182
3.01933	-154
3.02300	-131
3.02667	-111
3.03033	-94
3.03400	-79
3.03767	-66
3.04133	-55
3.04500	-45
3.04867	-37
3.05233	-30
3.05600	-24
3.05967	-19
3.06333	-15
3.06700	-11
3.07067	-8
3.07433	-5
3.07800	-3
3.08167	-1
3.08533	1
3.08900	3
3.09267	4
3.09633	5
3.10000	6
3.10367	7
3.10733	8
3.11100	9
3.11467	10
3.11833	10
3.12200	11
3.12567	11
3.12933	12
3.13300	12
3.13667	13
3.14033	14
3.14400	14
3.14767	15
3.15133	15
3.15500	15
3.15867	16
3.16233	16
3.16600	16
3.16967	16
3.17333	17
3.17700	17
3.18067	16
3.18433	17
3.18800	17
3.19167	17
3.19533	17
3.19900	17
3.20267	18
3.20633	18
3.21000	19
3.21367	19
3.21733	19
3.22100	19
3.22467	19
3.22833	19
3.23200	20
3.23567	20
3.23933	20
3.24300	20
3.24667	20
3.25033	20
3.25400	20
3.25767	20
3.26133	20
3.26500	19
3.26867	19
3.27233	19
3.27600	19
3.27967	19
3.28333	19
3.28700	19
3.29067	19
3.29433	20
3.29800	20
3.30167	20
3.30533	20
3.30900	20
3.31267	20
3.31633	20
3.32000	20
3.32367	20
3.32733	21
3.33100	21
3.33467	21
3.33833	21
3.34200	22
3.34567	22
3.34933	22
3.35300	22
3.35667	22
3.36033	23
3.36400	23
3.36767	23
3.37133	24
3.37500	24
3.37867	25
3.38233	25
3.38600	26
3.38967	26
3.39333	27
3.39700	27
3.40067	27
3.40433	27
3.40800	28
3.41167	28
3.41533	28
3.41900	28
3.42267	28
3.42633	28
3.43000	28
3.43367	28
3.43733	28
3.44100	28
3.44467	28
3.44833	27
3.45200	27
3.45567	27
3.45933	27
3.46300	27
3.46667	27
3.47033	27
3.47400	27
3.47767	27
3.48133	27
3.48500	27
3.48867	26
3.49233	26
3.49600	26
3.49967	25
3.50333	25
3.50700	25
3.51067	25
3.51433	25
3.51800	25
3.52167	25
3.52533	25
3.52900	26
3.53267	26
3.53633	26
3.54000	26
3.54367	25
3.54733	25
3.55100	25
3.55467	25
3.55833	25
3.56200	25
3.56567	25
3.56933	25
3.57300	25
3.57667	25
3.58033	25
3.58400	25
3.58767	25
3.59133	25
3.59500	25
3.59867	25
3.60233	25
3.60600	26
3.60967	26
3.61333	26
3.61700	26
3.62067	26
3.62433	26
3.62800	26
3.63167	26
3.63533	26
3.63900	26
3.64267	26
3.64633	26
3.65000	26
3.65367	25
3.65733	25
3.66100	25
3.66467	25
3.66833	25
3.67200	26
3.67567	26
3.67933	25
3.68300	25
3.68667	25
3.69033	24
3.69400	24
3.69767	24
3.70133	23
3.70500	23
3.70867	23
3.71233	23
3.71600	23
3.71967	24
3.72333	24
3.72700	24
3.73067	25
3.73433	25
3.73800	25
3.74167	25
3.74533	25
3.74900	25
3.75267	25
3.75633	26
3.76000	26
3.76367	26
3.76733	26
3.77100	26
3.77467	26
3.77833	26
3.78200	25
3.78567	25
3.78933	25
3.79300	24
3.79667	24
3.80033	24
3.80400	24
3.80767	24
3.81133	24
3.81500	24
3.81867	24
3.82233	24
3.82600	24
3.82967	24
3.83333	24
3.83700	24
3.84067	24
3.84433	23
3.84800	24
3.85167	24
3.85533	24
3.85900	24
3.86267	24
3.86633	24
3.87000	24
3.87367	24
3.87733	24
3.88100	24
3.88467	24
3.88833	24
3.89200	24
3.89567	24
3.89933	24
3.90300	24
3.90667	24
3.91033	24
3.91400	24
3.91767	24
3.92133	24
3.92500	24
3.92867	24
3.93233	25
3.93600	25
3.93967	25
3.94333	26
3.94700	26
3.95067	26
3.95433	26
3.95800	26
3.96167	26
3.96533	26
3.96900	26
3.97267	26
3.97633	26
3.98000	26
3.98367	27
3.98733	27
3.99100	27
3.99467	27
3.99833	27

[Chromatogram (Ch3)]
Interval(msec)	220
# of Points	1091
Start Time(min)	0.002
End Time(min)	3.998
R.Time (min)	Intensity
0.00167	0
0.00533	-0
0.00900	-2
0.01267	-1
0.01633	-0
0.02000	0
0.02367	0
0.02733	-0
0.03100	0
0.03467	1
0.03833	-0
0.04200	-2
0.04567	-2
0.04933	-1
0.05300	-1
0.05667	-4
0.06033	-5
0.06400	-4
0.06767	-3
0.07133	-1
0.07500	-1
0.07867	0
0.08233	2
0.08600	1
0.08967	1
0.09333	-0
0.09700	-0
0.10067	-1
0.10433	-0
0.10800	1
0.11167	-2
0.11533	-5
0.11900	-5
0.12267	-2
0.12633	-0
0.13000	1
0.13367	-0
0.13733	-1
0.14100	-1
0.14467	-1
0.14833	-0
0.15200	1
0.15567	2
0.15933	1
0.16300	-1
0.16667	-3
0.17033	-4
0.17400	-4
0.17767	-4
0.18133	-5
0.18500	-4
0.18867	-4
0.19233	-3
0.19600	-3
0.19967	-5
0.20333	-5
0.20700	-5
0.21067	-7
0.21433	-8
0.21800	-7
0.22167	-8
0.22533	-10
0.22900	-8
0.23267	-8
0.23633	-9
0.24000	-9
0.24367	-10
0.24733	-12
0.25100	-12
0.25467	-9
0.25833	-8
0.26200	-7
0.26567	-6
0.26933	-3
0.27300	-2
0.27667	-3
0.28033	-5
0.28400	-6
0.28767	-6
0.29133	-6
0.29500	-8
0.29867	-9
0.30233	-11
0.30600	-10
0.30967	-7
0.31333	-5
0.31700	-3
0.32067	-4
0.32433	-5
0.32800	-4
0.33167	-3
0.33533	-3
0.33900	-5
0.34267	-5
0.34633	-6
0.35000	-7
0.35367	-9
0.35733	-10
0.36100	-10
0.36467	-10
0.36833	-9
0.37200	-8
0.37567	-5
0.37933	-5
0.38300	-6
0.38667	-6
0.39033	-7
0.39400	-7
0.39767	-7
0.40133	-7
0.40500	-8
0.40867	-8
0.41233	-8
0.41600	-8
0.41967	-9
0.42333	-10
0.42700	-11
0.43067	-11
0.43433	-11
0.43800	-11
0.44167	-9
0.44533	-8
0.44900	-8
0.45267	-8
0.45633	-8
0.46000	-8
0.46367	-7
0.46733	-6
0.47100	-7
0.47467	-9
0.47833	-9
0.48200	-8
0.48567	-8
0.48933	-9
0.49300	-9
0.49667	-9
0.50033	-8
0.50400	-8
0.50767	-6
0.51133	-4
0.51500	-5
0.51867	-7
0.52233	-7
0.52600	-6
0.52967	-3
0.53333	-1
0.53700	-0
0.54067	-0
0.54433	-1
0.54800	-3
0.55167	-5
0.55533	-6
0.55900	-8
0.56267	-11
0.56633	-11
0.57000	-10
0.57367	-9
0.57733	-8
0.58100	-8
0.58467	-8
0.58833	-7
0.59200	-6
0.59567	-7
0.59933	-7
0.60300	-6
0.60667	-3
0.61033	-3
0.61400	-1
0.61767	1
0.62133	1
0.62500	-0
0.62867	-3
0.63233	-7
0.63600	-9
0.63967	-10
0.64333	-8
0.64700	-7
0.65067	-6
0.65433	-4
0.65800	-3
0.66167	-2
0.66533	-5
0.66900	-6
0.67267	-7
0.67633	-8
0.68000	-11
0.68367	-13
0.68733	-13
0.69100	-11
0.69467	-8
0.69833	-5
0.70200	-4
0.70567	-3
0.70933	-1
0.71300	0
0.71667	1
0.72033	-1
0.72400	0
0.72767	0
0.73133	-1
0.73500	-3
0.73867	-5
0.74233	-4
0.74600	-2
0.74967	-1
0.75333	-2
0.75700	-3
0.76067	-3
0.76433	-2
0.76800	-0
0.77167	0
0.77533	2
0.77900	4
0.78267	3
0.78633	1
0.79000	1
0.79367	2
0.79733	3
0.80100	1
0.80467	-1
0.80833	-3
0.81200	-6
0.81567	-8
0.81933	-5
0.82300	-0
0.82667	3
0.83033	4
0.83400	5
0.83767	6
0.84133	7
0.84500	8
0.84867	7
0.85233	6
0.85600	5
0.85967	3
0.86333	0
0.86700	-1
0.87067	-1
0.87433	-1
0.87800	-2
0.88167	-2
0.88533	-3
0.88900	-3
0.89267	-2
0.89633	-2
0.90000	-2
0.90367	-1
0.90733	0
0.91100	1
0.91467	1
0.91833	3
0.92200	3
0.92567	1
0.92933	-2
0.93300	-1
0.93667	0
0.94033	-1
0.94400	-1
0.94767	-1
0.95133	2
0.95500	4
0.95867	3
0.96233	2
0.96600	1
0.96967	-0
0.97333	-2
0.97700	0
0.98067	2
0.98433	2
0.98800	4
0.99167	5
0.99533	4
0.99900	2
1.00267	1
1.00633	1
1.01000	3
1.01367	4
1.01733	1
1.02100	-0
1.02467	1
1.02833	1
1.03200	1
1.03567	2
1.03933	3
1.04300	4
1.04667	6
1.05033	8
1.05400	10
1.05767	9
1.06133	8
1.06500	9
1.06867	7
1.07233	6
1.07600	7
1.07967	8
1.08333	6
1.08700	5
1.09067	4
1.09433	4
1.09800	4
1.10167	3
1.10533	1
1.10900	3
1.11267	6
1.11633	9
1.12000	13
1.12367	15
1.12733	13
1.13100	11
1.13467	10
1.13833	9
1.14200	9
1.14567	10
1.14933	11
1.15300	11
1.15667	10
1.16033	10
1.16400	9
1.16767	9
1.17133	9
1.17500	10
1.17867	9
1.18233	9
1.18600	10
1.18967	10
1.19333	10
1.19700	10
1.20067	9
1.20433	7
1.20800	7
1.21167	7
1.21533	8
1.21900	10
1.22267	12
1.22633	11
1.23000	11
1.23367	10
1.23733	8
1.24100	10
1.24467	12
1.24833	12
1.25200	10
1.25567	9
1.25933	10
1.26300	11
1.26667	12
1.27033	15
1.27400	18
1.27767	18
1.28133	17
1.28500	17
1.28867	17
1.29233	16
1.29600	16
1.29967	15
1.30333	13
1.30700	12
1.31067	12
1.31433	12
1.31800	11
1.32167	12
1.32533	11
1.32900	13
1.33267	15
1.33633	15
1.34000	16
1.34367	18
1.34733	20
1.35100	19
1.35467	17
1.35833	15
1.36200	15
1.36567	16
1.36933	16
1.37300	15
1.37667	15
1.38033	14
1.38400	12
1.38767	13
1.39133	14
1.39500	16
1.39867	17
1.40233	17
1.40600	17
1.40967	17
1.41333	16
1.41700	16
1.42067	15
1.42433	14
1.42800	16
1.43167	20
1.43533	21
1.43900	19
1.44267	18
1.44633	16
1.45000	14
1.45367	14
1.45733	15
1.46100	16
1.46467	19
1.46833	24
1.47200	24
1.47567	20
1.47933	15
1.48300	13
1.48667	14
1.49033	15
1.49400	17
1.49767	19
1.50133	19
1.50500	20
1.50867	22
1.51233	23
1.51600	23
1.51967	23
1.52333	22
1.52700	20
1.53067	17
1.53433	16
1.53800	16
1.54167	17
1.54533	17
1.54900	17
1.55267	16
1.55633	16
1.56000	18
1.56367	19
1.56733	18
1.57100	20
1.57467	21
1.57833	20
1.58200	20
1.58567	23
1.58933	23
1.59300	21
1.59667	21
1.60033	23
1.60400	24
1.60767	23
1.61133	22
1.61500	21
1.61867	18
1.62233	17
1.62600	17
1.62967	19
1.63333	20
1.63700	22
1.64067	26
1.64433	28
1.64800	29
1.65167	28
1.65533	27
1.65900	25
1.66267	25
1.66633	25
1.67000	26
1.67367	27
1.67733	30
1.68100	31
1.68467	30
1.68833	30
1.69200	29
1.69567	30
1.69933	34
1.70300	36
1.70667	38
1.71033	39
1.71400	39
1.71767	38
1.72133	36
1.72500	34
1.72867	35
1.73233	38
1.73600	41
1.73967	44
1.74333	45
1.74700	46
1.75067	45
1.75433	47
1.75800	50
1.76167	50
1.76533	49
1.76900	47
1.77267	46
1.77633	45
1.78000	48
1.78367	49
1.78733	49
1.79100	50
1.79467	51
1.79833	53
1.80200	54
1.80567	52
1.80933	51
1.81300	51
1.81667	51
1.82033	52
1.82400	55
1.82767	55
1.83133	55
1.83500	55
1.83867	54
1.84233	55
1.84600	57
1.84967	59
1.85333	60
1.85700	60
1.86067	61
1.86433	63
1.86800	63
1.87167	64
1.87533	66
1.87900	66
1.88267	66
1.88633	67
1.89000	69
1.89367	70
1.89733	67
1.90100	66
1.90467	69
1.90833	73
1.91200	75
1.91567	76
1.91933	75
1.92300	73
1.92667	73
1.93033	73
1.93400	74
1.93767	79
1.94133	85
1.94500	90
1.94867	92
1.95233	93
1.95600	92
1.95967	90
1.96333	89
1.96700	90
1.97067	91
1.97433	94
1.97800	93
1.98167	92
1.98533	92
1.98900	92
1.99267	95
1.99633	98
2.00000	100
2.00367	102
2.00733	103
2.01100	104
2.01467	102
2.01833	101
2.02200	104
2.02567	106
2.02933	107
2.03300	111
2.03667	116
2.04033	118
2.04400	119
2.04767	120
2.05133	121
2.05500	120
2.05867	119
2.06233	120
2.06600	120
2.06967	120
2.07333	120
2.07700	121
2.08067	121
2.08433	121
2.08800	122
2.09167	123
2.09533	125
2.09900	125
2.10267	123
2.10633	122
2.11000	123
2.11367	125
2.11733	129
2.12100	131
2.12467	132
2.12833	132
2.13200	132
2.13567	135
2.13933	136
2.14300	136
2.14667	139
2.15033	142
2.15400	145
2.15767	147
2.16133	151
2.16500	152
2.16867	154
2.17233	156
2.17600	157
2.17967	156
2.18333	157
2.18700	157
2.19067	157
2.19433	157
2.19800	159
2.20167	162
2.20533	166
2.20900	169
2.21267	171
2.21633	174
2.22000	175
2.22367	177
2.22733	177
2.23100	177
2.23467	177
2.23833	176
2.24200	175
2.24567	174
2.24933	175
2.25300	177
2.25667	180
2.26033	181
2.26400	181
2.26767	180
2.27133	181
2.27500	183
2.27867	185
2.28233	186
2.28600	189
2.28967	191
2.29333	193
2.29700	194
2.30067	193
2.30433	193
2.30800	193
2.31167	197
2.31533	199
2.31900	199
2.32267	200
2.32633	202
2.33000	205
2.33367	208
2.33733	208
2.34100	210
2.34467	212
2.34833	215
2.35200	216
2.35567	214
2.35933	213
2.36300	213
2.36667	215
2.37033	215
2.37400	215
2.37767	216
2.38133	218
2.38500	220
2.38867	221
2.39233	223
2.39600	227
2.39967	228
2.40333	230
2.40700	234
2.41067	239
2.41433	242
2.41800	246
2.42167	250
2.42533	252
2.42900	255
2.43267	257
2.43633	257
2.44000	260
2.44367	316
2.44733	458
2.45100	606
2.45467	727
2.45833	790
2.46200	784
2.46567	731
2.46933	666
2.47300	609
2.47667	569
2.48033	541
2.48400	510
2.48767	468
2.49133	423
2.49500	378
2.49867	340
2.50233	311
2.50600	291
2.50967	283
2.51333	283
2.51700	292
2.52067	304
2.52433	321
2.52800	339
2.53167	348
2.53533	346
2.53900	334
2.54267	312
2.54633	285
2.55000	257
2.55367	230
2.55733	208
2.56100	188
2.56467	170
2.56833	157
2.57200	148
2.57567	143
2.57933	142
2.58300	144
2.58667	145
2.59033	144
2.59400	144
2.59767	141
2.60133	135
2.60500	127
2.60867	117
2.61233	107
2.61600	95
2.61967	83
2.62333	75
2.62700	71
2.63067	70
2.63433	70
2.63800	71
2.64167	71
2.64533	74
2.64900	76
2.65267	79
2.65633	77
2.66000	71
2.66367	65
2.66733	60
2.67100	55
2.67467	47
2.67833	38
2.68200	29
2.68567	20
2.68933	13
2.69300	6
2.69667	3
2.70033	-1
2.70400	-1
2.70767	-4
2.71133	-7
2.71500	-8
2.71867	-8
2.72233	-7
2.72600	-4
2.72967	-0
2.73333	2
2.73700	2
2.74067	3
2.74433	5
2.74800	10
2.75167	14
2.75533	18
2.75900	20
2.76267	21
2.76633	23
2.77000	23
2.77367	25
2.77733	25
2.78100	26
2.78467	28
2.78833	31
2.79200	34
2.79567	38
2.79933	41
2.80300	43
2.80667	44
2.81033	47
2.81400	54
2.81767	70
2.82133	110
2.82500	204
2.82867	397
2.83233	747
2.83600	1318
2.83967	2164
2.84333	3309
2.84700	4739
2.85067	6387
2.85433	8156
2.85800	9918
2.86167	11538
2.86533	12885
2.86900	13862
2.87267	14425
2.87633	14571
2.88000	14339
2.88367	13803
2.88733	13040
2.89100	12123
2.89467	11127
2.89833	10108
2.90200	9104
2.90567	8143
2.90933	7245
2.91300	6420
2.91667	5668
2.92033	4990
2.92400	4382
2.92767	3841
2.93133	3361
2.93500	2938
2.93867	2563
2.94233	2235
2.94600	1949
2.94967	1700
2.95333	1485
2.95700	1296
2.96067	1131
2.96433	988
2.96800	861
2.97167	725
2.97533	582
2.97900	457
2.98267	372
2.98633	323
2.99000	302
2.99367	299
2.99733	310
3.00100	331
3.00467	355
3.00833	378
3.01200	401
3.01567	423
3.01933	445
3.02300	463
3.02667	477
3.03033	487
3.03400	496
3.03767	505
3.04133	513
3.04500	517
3.04867	519
3.05233	520
3.05600	521
3.05967	523
3.06333	523
3.06700	521
3.07067	521
3.07433	522
3.07800	523
3.08167	523
3.08533	524
3.08900	525
3.09267	527
3.09633	527
3.10000	527
3.10367	526
3.10733	524
3.11100	523
3.11467	522
3.11833	522
3.12200	524
3.12567	526
3.12933	527
3.13300	526
3.13667	525
3.14033	528
3.14400	531
3.14767	535
3.15133	538
3.15500	543
3.15867	546
3.16233	548
3.16600	550
3.16967	552
3.17333	557
3.17700	561
3.18067	564
3.18433	567
3.18800	569
3.19167	570
3.19533	572
3.19900	574
3.20267	575
3.20633	577
3.21000	582
3.21367	588
3.21733	591
3.22100	592
3.22467	595
3.22833	599
3.23200	602
3.23567	604
3.23933	604
3.24300	605
3.24667	606
3.25033	607
3.25400	606
3.25767	607
3.26133	608
3.26500	611
3.26867	613
3.27233	616
3.27600	615
3.27967	614
3.28333	612
3.28700	612
3.29067	612
3.29433	610
3.29800	608
3.30167	608
3.30533	611
3.30900	613
3.31267	614
3.31633	612
3.32000	609
3.32367	609
3.32733	608
3.33100	607
3.33467	604
3.33833	605
3.34200	606
3.34567	604
3.34933	601
3.35300	598
3.35667	596
3.36033	594
3.36400	594
3.36767	593
3.37133	592
3.37500	591
3.37867	593
3.38233	593
3.38600	593
3.38967	588
3.39333	585
3.39700	582
3.40067	581
3.40433	579
3.40800	576
3.41167	573
3.41533	571
3.41900	569
3.42267	569
3.42633	568
3.43000	568
3.43367	569
3.43733	568
3.44100	565
3.44467	564
3.44833	562
3.45200	562
3.45567	560
3.45933	556
3.46300	553
3.46667	551
3.47033	550
3.47400	549
3.47767	548
3.48133	548
3.48500	549
3.48867	549
3.49233	550
3.49600	551
3.49967	553
3.50333	556
3.50700	556
3.51067	553
3.51433	550
3.51800	548
3.52167	546
3.52533	545
3.52900	545
3.53267	545
3.53633	546
3.54000	547
3.54367	548
3.54733	549
3.55100	548
3.55467	549
3.55833	550
3.56200	548
3.56567	546
3.56933	545
3.57300	545
3.57667	544
3.58033	543
3.58400	543
3.58767	544
3.59133	545
3.59500	546
3.59867	548
3.60233	548
3.60600	549
3.60967	547
3.61333	544
3.61700	542
3.62067	542
3.62433	544
3.62800	548
3.63167	549
3.63533	550
3.63900	549
3.64267	548
3.64633	547
3.65000	548
3.65367	548
3.65733	544
3.66100	545
3.66467	547
3.66833	547
3.67200	545
3.67567	544
3.67933	543
3.68300	545
3.68667	547
3.69033	547
3.69400	545
3.69767	542
3.70133	538
3.70500	536
3.70867	537
3.71233	539
3.71600	538
3.71967	538
3.72333	536
3.72700	533
3.73067	531
3.73433	530
3.73800	529
3.74167	530
3.74533	531
3.74900	529
3.75267	528
3.75633	527
3.76000	527
3.76367	529
3.76733	531
3.77100	532
3.77467	529
3.77833	527
3.78200	524
3.78567	520
3.78933	518
3.79300	518
3.79667	518
3.80033	520
3.80400	520
3.80767	518
3.81133	515
3.81500	515
3.81867	514
3.82233	515
3.82600	515
3.82967	514
3.83333	513
3.83700	510
3.84067	506
3.84433	503
3.84800	501
3.85167	502
3.85533	501
3.85900	502
3.86267	501
3.86633	501
3.87000	501
3.87367	500
3.87733	498
3.88100	495
3.88467	492
3.88833	491
3.89200	491
3.89567	491
3.89933	491
3.90300	491
3.90667	489
3.91033	487
3.91400	485
3.91767	482
3.92133	481
3.92500	482
3.92867	485
3.93233	485
3.93600	483
3.93967	482
3.94333	480
3.94700	478
3.95067	478
3.95433	478
3.95800	478
3.96167	476
3.96533	474
3.96900	472
3.97267	471
3.97633	470
3.98000	468
3.98367	466
3.98733	464
3.99100	462
3.99467	461
3.99833	460

[Status Trace (Column Oven Temperature)]
Interval(msec)	1000
# of Points	240
Start Time(min)	0.001
End Time(min)	3.984
Intensity Units	
Intensity Multiplier	1
R.Time (min)	Intensity
0.00060	35.03
0.01727	35.04
0.03393	35.03
0.05060	35.04
0.06727	35.05
0.08393	35.06
0.10060	35.07
0.11727	35.07
0.13393	35.07
0.15060	35.06
0.16727	35.04
0.18393	35.04
0.20060	35.03
0.21727	35.03
0.23393	35.03
0.25060	35.03
0.26727	35.03
0.28393	35.04
0.30060	35.04
0.31727	35.04
0.33393	35.03
0.35060	35.03
0.36727	35.02
0.38393	35.01
0.40060	35.01
0.41727	35.00
0.43393	35.00
0.45060	35.00
0.46727	35.01
0.48393	35.02
0.50060	35.01
0.51727	35.03
0.53393	35.03
0.55060	35.03
0.56727	35.03
0.58393	35.01
0.60060	34.99
0.61727	34.98
0.63393	34.98
0.65060	34.98
0.66727	34.98
0.68393	34.99
0.70060	35.00
0.71727	35.00
0.73393	35.01
0.75060	35.02
0.76727	35.01
0.78393	35.01
0.80060	35.01
0.81727	35.01
0.83393	35.02
0.85060	35.02
0.86727	35.03
0.88393	35.03
0.90060	35.01
0.91727	34.99
0.93393	35.00
0.95060	35.00
0.96727	34.99
0.98393	34.99
1.00060	35.00
1.01727	34.99
1.03393	34.99
1.05060	34.99
1.06727	34.99
1.08393	34.99
1.10060	34.99
1.11727	34.99
1.13393	34.98
1.15060	34.99
1.16727	34.99
1.18393	34.99
1.20060	34.99
1.21727	35.00
1.23393	35.00
1.25060	35.00
1.26727	35.00
1.28393	35.01
1.30060	35.00
1.31727	35.00
1.33393	35.00
1.35060	34.99
1.36727	34.99
1.38393	34.99
1.40060	35.00
1.41727	35.01
1.43393	35.00
1.45060	34.99
1.46727	34.99
1.48393	35.00
1.50060	35.01
1.51727	35.02
1.53393	35.01
1.55060	35.01
1.56727	35.01
1.58393	35.00
1.60060	35.03
1.61727	35.12
1.63393	35.29
1.65060	35.50
1.66727	35.81
1.68393	36.18
1.70060	36.54
1.71727	36.89
1.73393	37.20
1.75060	37.51
1.76727	37.85
1.78393	38.20
1.80060	38.53
1.81727	38.86
1.83393	39.18
1.85060	39.51
1.86727	39.86
1.88393	40.18
1.90060	40.51
1.91727	40.82
1.93393	41.14
1.95060	41.49
1.96727	41.79
1.98393	42.13
2.00060	42.45
2.01727	42.78
2.03393	43.11
2.05060	43.44
2.06727	43.76
2.08393	44.08
2.10060	44.40
2.11727	44.73
2.13393	45.07
2.15060	45.40
2.16727	45.73
2.18393	46.05
2.20060	46.37
2.21727	46.69
2.23393	47.02
2.25060	47.34
2.26727	47.68
2.28393	48.00
2.30060	48.36
2.31727	48.69
2.33393	49.01
2.35060	49.33
2.36727	49.58
2.38393	49.66
2.40060	49.65
2.41727	49.65
2.43393	49.67
2.45060	49.67
2.46727	49.69
2.48393	49.70
2.50060	49.72
2.51727	49.72
2.53393	49.73
2.55060	49.74
2.56727	49.76
2.58393	49.77
2.60060	49.77
2.61727	49.80
2.63393	49.82
2.65060	49.82
2.66727	49.82
2.68393	49.84
2.70060	49.86
2.71727	49.85
2.73393	49.85
2.75060	49.87
2.76727	49.87
2.78393	49.86
2.80060	49.85
2.81727	49.86
2.83393	49.87
2.85060	49.88
2.86727	49.88
2.88393	49.90
2.90060	49.91
2.91727	49.92
2.93393	49.93
2.95060	49.94
2.96727	49.96
2.98393	49.96
3.00060	49.97
3.01727	49.98
3.03393	49.98
3.05060	49.98
3.06727	49.98
3.08393	49.99
3.10060	49.99
3.11727	50.00
3.13393	50.01
3.15060	50.00
3.16727	50.02
3.18393	50.03
3.20060	50.03
3.21727	50.04
3.23393	50.04
3.25060	50.06
3.26727	50.08
3.28393	50.09
3.30060	50.10
3.31727	50.11
3.33393	50.10
3.35060	50.11
3.36727	50.10
3.38393	50.08
3.40060	50.06
3.41727	50.04
3.43393	50.02
3.45060	50.02
3.46727	50.01
3.48393	50.02
3.50060	50.02
3.51727	50.01
3.53393	50.02
3.55060	50.02
3.56727	50.02
3.58393	50.02
3.60060	50.02
3.61727	50.01
3.63393	50.02
3.65060	50.02
3.66727	50.02
3.68393	50.02
3.70060	50.03
3.71727	50.04
3.73393	50.03
3.75060	50.04
3.76727	50.04
3.78393	50.05
3.80060	50.05
3.81727	50.05
3.83393	50.05
3.85060	50.06
3.86727	50.06
3.88393	50.06
3.90060	50.06
3.91727	50.07
3.93393	50.07
3.95060	50.07
3.96727	50.07
3.98393	50.07

[Status Trace (Injection Unit Temperature)]
Interval(msec)	1000
# of Points	240
Start Time(min)	0.001
End Time(min)	3.984
Intensity Units	
Intensity Multiplier	1
R.Time (min)	Intensity
0.00060	99.98
0.01727	99.98
0.03393	99.98
0.05060	99.98
0.06727	99.98
0.08393	99.98
0.10060	99.98
0.11727	99.98
0.13393	99.98
0.15060	99.98
0.16727	99.98
0.18393	99.98
0.20060	99.98
0.21727	99.98
0.23393	99.98
0.25060	99.98
0.26727	99.98
0.28393	99.98
0.30060	99.98
0.31727	99.98
0.33393	99.98
0.35060	99.98
0.36727	99.98
0.38393	99.98
0.40060	99.98
0.41727	99.98
0.43393	99.98
0.45060	99.98
0.46727	99.98
0.48393	99.98
0.50060	99.97
0.51727	99.98
0.53393	99.98
0.55060	99.98
0.56727	99.97
0.58393	99.98
0.60060	99.98
0.61727	99.98
0.63393	99.98
0.65060	99.98
0.66727	99.98
0.68393	99.98
0.70060	99.98
0.71727	99.98
0.73393	99.98
0.75060	99.98
0.76727	99.98
0.78393	99.98
0.80060	99.98
0.81727	99.98
0.83393	99.99
0.85060	99.98
0.86727	99.99
0.88393	99.98
0.90060	99.98
0.91727	99.99
0.93393	99.98
0.95060	99.98
0.96727	99.98
0.98393	99.99
1.00060	99.98
1.01727	99.98
1.03393	99.98
1.05060	99.99
1.06727	99.98
1.08393	99.98
1.10060	99.98
1.11727	99.98
1.13393	99.99
1.15060	99.99
1.16727	99.99
1.18393	99.99
1.20060	99.99
1.21727	99.98
1.23393	99.98
1.25060	99.98
1.26727	99.99
1.28393	99.99
1.30060	99.98
1.31727	99.99
1.33393	99.98
1.35060	99.99
1.36727	99.99
1.38393	99.99
1.40060	99.99
1.41727	99.99
1.43393	99.99
1.45060	99.99
1.46727	99.99
1.48393	99.99
1.50060	99.99
1.51727	99.99
1.53393	99.99
1.55060	99.99
1.56727	99.99
1.58393	99.99
1.60060	99.99
1.61727	99.99
1.63393	99.99
1.65060	99.99
1.66727	100.00
1.68393	100.00
1.70060	99.99
1.71727	99.99
1.73393	99.99
1.75060	99.99
1.76727	99.99
1.78393	99.99
1.80060	99.99
1.81727	99.99
1.83393	99.99
1.85060	99.99
1.86727	99.99
1.88393	99.99
1.90060	99.99
1.91727	99.99
1.93393	99.98
1.95060	99.98
1.96727	99.98
1.98393	99.98
2.00060	99.98
2.01727	99.98
2.03393	99.98
2.05060	99.97
2.06727	99.97
2.08393	99.97
2.10060	99.98
2.11727	99.97
2.13393	99.97
2.15060	99.97
2.16727	99.97
2.18393	99.97
2.20060	99.97
2.21727	99.97
2.23393	99.97
2.25060	99.96
2.26727	99.96
2.28393	99.97
2.30060	99.97
2.31727	99.96
2.33393	99.96
2.35060	99.96
2.36727	99.96
2.38393	99.96
2.40060	99.96
2.41727	99.96
2.43393	99.96
2.45060	99.97
2.46727	99.96
2.48393	99.96
2.50060	99.96
2.51727	99.97
2.53393	99.96
2.55060	99.96
2.56727	99.97
2.58393	99.97
2.60060	99.97
2.61727	99.97
2.63393	99.97
2.65060	99.97
2.66727	99.98
2.68393	99.98
2.70060	99.98
2.71727	99.98
2.73393	99.99
2.75060	99.98
2.76727	99.99
2.78393	99.99
2.80060	99.99
2.81727	99.99
2.83393	100.00
2.85060	100.00
2.86727	100.00
2.88393	100.00
2.90060	100.00
2.91727	100.01
2.93393	100.00
2.95060	100.01
2.96727	100.01
2.98393	100.01
3.00060	100.01
3.01727	100.01
3.03393	100.02
3.05060	100.02
3.06727	100.02
3.08393	100.02
3.10060	100.02
3.11727	100.03
3.13393	100.02
3.15060	100.03
3.16727	100.02
3.18393	100.03
3.20060	100.03
3.21727	100.03
3.23393	100.03
3.25060	100.03
3.26727	100.03
3.28393	100.03
3.30060	100.04
3.31727	100.03
3.33393	100.03
3.35060	100.04
3.36727	100.03
3.38393	100.04
3.40060	100.04
3.41727	100.04
3.43393	100.04
3.45060	100.04
3.46727	100.04
3.48393	100.04
3.50060	100.04
3.51727	100.04
3.53393	100.04
3.55060	100.04
3.56727	100.04
3.58393	100.04
3.60060	100.04
3.61727	100.04
3.63393	100.04
3.65060	100.04
3.66727	100.04
3.68393	100.04
3.70060	100.04
3.71727	100.04
3.73393	100.04
3.75060	100.04
3.76727	100.05
3.78393	100.04
3.80060	100.04
3.81727	100.04
3.83393	100.05
3.85060	100.04
3.86727	100.04
3.88393	100.05
3.90060	100.04
3.91727	100.04
3.93393	100.05
3.95060	100.04
3.96727	100.04
3.98393	100.04

[Status Trace (Carrier Gas Pressure)]
Interval(msec)	1000
# of Points	240
Start Time(min)	0.001
End Time(min)	3.984
Intensity Units	
Intensity Multiplier	1
R.Time (min)	Intensity
0.00060	58.00
0.01727	56.58
0.03393	55.97
0.05060	58.34
0.06727	59.90
0.08393	58.44
0.10060	57.97
0.11727	58.00
0.13393	58.01
0.15060	58.01
0.16727	58.00
0.18393	58.00
0.20060	58.00
0.21727	58.00
0.23393	58.00
0.25060	58.00
0.26727	58.00
0.28393	58.00
0.30060	58.00
0.31727	58.00
0.33393	58.00
0.35060	58.00
0.36727	58.00
0.38393	58.00
0.40060	58.00
0.41727	58.00
0.43393	58.00
0.45060	58.00
0.46727	58.00
0.48393	58.00
0.50060	58.00
0.51727	58.00
0.53393	58.00
0.55060	58.00
0.56727	58.00
0.58393	58.00
0.60060	58.00
0.61727	58.00
0.63393	58.00
0.65060	58.00
0.66727	58.00
0.68393	58.00
0.70060	58.00
0.71727	58.00
0.73393	58.00
0.75060	58.00
0.76727	58.00
0.78393	58.00
0.80060	58.00
0.81727	58.00
0.83393	58.00
0.85060	58.00
0.86727	58.00
0.88393	58.00
0.90060	58.00
0.91727	58.00
0.93393	58.00
0.95060	58.00
0.96727	58.00
0.98393	58.00
1.00060	58.00
1.01727	58.00
1.03393	58.00
1.05060	58.00
1.06727	58.00
1.08393	58.00
1.10060	58.00
1.11727	58.00
1.13393	58.00
1.15060	58.00
1.16727	58.00
1.18393	58.00
1.20060	58.00
1.21727	58.00
1.23393	58.00
1.25060	58.00
1.26727	58.00
1.28393	58.00
1.30060	58.00
1.31727	58.00
1.33393	58.00
1.35060	58.00
1.36727	58.00
1.38393	58.00
1.40060	58.00
1.41727	58.00
1.43393	58.00
1.45060	58.00
1.46727	58.00
1.48393	58.00
1.50060	58.00
1.51727	58.00
1.53393	58.00
1.55060	58.00
1.56727	58.00
1.58393	58.00
1.60060	58.00
1.61727	58.00
1.63393	58.01
1.65060	58.00
1.66727	58.01
1.68393	58.01
1.70060	58.00
1.71727	58.00
1.73393	58.00
1.75060	58.00
1.76727	58.00
1.78393	58.00
1.80060	58.00
1.81727	58.00
1.83393	58.00
1.85060	58.00
1.86727	58.00
1.88393	58.00
1.90060	58.00
1.91727	58.00
1.93393	58.00
1.95060	58.00
1.96727	58.00
1.98393	58.00
2.00060	58.00
2.01727	58.00
2.03393	58.00
2.05060	58.00
2.06727	58.00
2.08393	58.00
2.10060	58.00
2.11727	58.00
2.13393	58.00
2.15060	58.00
2.16727	58.00
2.18393	58.00
2.20060	58.00
2.21727	58.00
2.23393	58.00
2.25060	58.00
2.26727	58.00
2.28393	58.00
2.30060	58.00
2.31727	58.00
2.33393	58.00
2.35060	58.00
2.36727	58.00
2.38393	57.99
2.40060	57.99
2.41727	58.00
2.43393	58.00
2.45060	58.00
2.46727	58.00
2.48393	58.00
2.50060	58.00
2.51727	57.99
2.53393	57.99
2.55060	58.00
2.56727	58.00
2.58393	58.00
2.60060	58.00
2.61727	58.00
2.63393	58.00
2.65060	58.00
2.66727	58.00
2.68393	58.00
2.70060	58.00
2.71727	58.00
2.73393	58.00
2.75060	58.00
2.76727	58.00
2.78393	58.00
2.80060	58.00
2.81727	58.00
2.83393	58.00
2.85060	58.00
2.86727	58.00
2.88393	58.00
2.90060	58.00
2.91727	58.00
2.93393	58.00
2.95060	58.00
2.96727	58.00
2.98393	58.00
3.00060	58.00
3.01727	58.00
3.03393	58.00
3.05060	58.00
3.06727	58.00
3.08393	58.00
3.10060	58.00
3.11727	58.00
3.13393	58.00
3.15060	58.00
3.16727	58.00
3.18393	58.00
3.20060	58.00
3.21727	58.00
3.23393	58.00
3.25060	58.00
3.26727	58.00
3.28393	58.00
3.30060	58.00
3.31727	58.00
3.33393	58.00
3.35060	58.00
3.36727	58.00
3.38393	58.00
3.40060	58.00
3.41727	58.00
3.43393	58.00
3.45060	58.00
3.46727	58.00
3.48393	58.00
3.50060	58.00
3.51727	58.00
3.53393	58.00
3.55060	58.00
3.56727	58.00
3.58393	58.00
3.60060	58.00
3.61727	58.00
3.63393	58.00
3.65060	58.00
3.66727	58.00
3.68393	58.00
3.70060	58.00
3.71727	58.00
3.73393	58.00
3.75060	58.00
3.76727	58.00
3.78393	58.00
3.80060	58.00
3.81727	58.00
3.83393	58.00
3.85060	58.00
3.86727	58.00
3.88393	58.00
3.90060	58.00
3.91727	58.00
3.93393	58.00
3.95060	58.00
3.96727	58.00
3.98393	58.00

[Status Trace (Carrier Gas Flow)]
Interval(msec)	1000
# of Points	240
Start Time(min)	0.001
End Time(min)	3.984
Intensity Units	
Intensity Multiplier	1
R.Time (min)	Intensity
0.00060	34.52
0.01727	33.85
0.03393	34.54
0.05060	34.55
0.06727	34.49
0.08393	34.51
0.10060	34.51
0.11727	34.52
0.13393	34.52
0.15060	34.52
0.16727	34.52
0.18393	34.52
0.20060	34.52
0.21727	34.52
0.23393	34.51
0.25060	34.52
0.26727	34.52
0.28393	34.52
0.30060	34.52
0.31727	34.52
0.33393	34.52
0.35060	34.52
0.36727	34.52
0.38393	34.52
0.40060	34.52
0.41727	34.52
0.43393	34.52
0.45060	34.52
0.46727	34.52
0.48393	34.51
0.50060	34.52
0.51727	34.52
0.53393	34.52
0.55060	34.52
0.56727	34.52
0.58393	34.52
0.60060	34.52
0.61727	34.52
0.63393	34.52
0.65060	34.52
0.66727	34.52
0.68393	34.52
0.70060	34.52
0.71727	34.52
0.73393	34.52
0.75060	34.51
0.76727	34.52
0.78393	34.52
0.80060	34.52
0.81727	34.52
0.83393	34.52
0.85060	34.52
0.86727	34.52
0.88393	34.51
0.90060	34.52
0.91727	34.52
0.93393	34.52
0.95060	34.52
0.96727	34.53
0.98393	34.52
1.00060	34.52
1.01727	34.52
1.03393	34.52
1.05060	34.52
1.06727	34.51
1.08393	34.52
1.10060	34.52
1.11727	34.52
1.13393	34.52
1.15060	34.52
1.16727	34.52
1.18393	34.52
1.20060	34.52
1.21727	34.52
1.23393	34.52
1.25060	34.52
1.26727	34.51
1.28393	34.52
1.30060	34.52
1.31727	34.52
1.33393	34.52
1.35060	34.51
1.36727	34.53
1.38393	34.51
1.40060	34.52
1.41727	34.52
1.43393	34.52
1.45060	34.52
1.46727	34.51
1.48393	34.53
1.50060	34.53
1.51727	34.51
1.53393	34.52
1.55060	34.52
1.56727	34.52
1.58393	34.52
1.60060	34.51
1.61727	34.52
1.63393	34.52
1.65060	34.51
1.66727	34.52
1.68393	34.53
1.70060	34.52
1.71727	34.53
1.73393	34.52
1.75060	34.52
1.76727	34.52
1.78393	34.51
1.80060	34.52
1.81727	34.52
1.83393	34.52
1.85060	34.52
1.86727	34.52
1.88393	34.52
1.90060	34.52
1.91727	34.52
1.93393	34.52
1.95060	34.52
1.96727	34.52
1.98393	34.52
2.00060	34.52
2.01727	34.52
2.03393	34.52
2.05060	34.51
2.06727	34.52
2.08393	34.52
2.10060	34.52
2.11727	34.51
2.13393	34.52
2.15060	34.52
2.16727	34.52
2.18393	34.51
2.20060	34.52
2.21727	34.52
2.23393	34.52
2.25060	34.52
2.26727	34.52
2.28393	34.52
2.30060	34.52
2.31727	34.52
2.33393	34.52
2.35060	34.52
2.36727	34.52
2.38393	34.52
2.40060	34.52
2.41727	34.52
2.43393	34.52
2.45060	34.51
2.46727	34.52
2.48393	34.52
2.50060	34.52
2.51727	34.51
2.53393	34.52
2.55060	34.52
2.56727	34.52
2.58393	34.53
2.60060	34.52
2.61727	34.52
2.63393	34.52
2.65060	34.52
2.66727	34.52
2.68393	34.52
2.70060	34.52
2.71727	34.52
2.73393	34.52
2.75060	34.52
2.76727	34.52
2.78393	34.53
2.80060	34.52
2.81727	34.52
2.83393	34.52
2.85060	34.52
2.86727	34.52
2.88393	34.52
2.90060	34.52
2.91727	34.52
2.93393	34.52
2.95060	34.51
2.96727	34.52
2.98393	34.52
3.00060	34.52
3.01727	34.51
3.03393	34.52
3.05060	34.52
3.06727	34.52
3.08393	34.52
3.10060	34.52
3.11727	34.52
3.13393	34.52
3.15060	34.51
3.16727	34.51
3.18393	34.52
3.20060	34.52
3.21727	34.52
3.23393	34.52
3.25060	34.52
3.26727	34.52
3.28393	34.52
3.30060	34.52
3.31727	34.52
3.33393	34.52
3.35060	34.51
3.36727	34.52
3.38393	34.52
3.40060	34.52
3.41727	34.52
3.43393	34.52
3.45060	34.52
3.46727	34.52
3.48393	34.52
3.50060	34.52
3.51727	34.52
3.53393	34.51
3.55060	34.52
3.56727	34.52
3.58393	34.52
3.60060	34.52
3.61727	34.52
3.63393	34.52
3.65060	34.52
3.66727	34.51
3.68393	34.52
3.70060	34.52
3.71727	34.52
3.73393	34.52
3.75060	34.52
3.76727	34.52
3.78393	34.52
3.80060	34.52
3.81727	34.52
3.83393	34.52
3.85060	34.52
3.86727	34.52
3.88393	34.52
3.90060	34.52
3.91727	34.52
3.93393	34.52
3.95060	34.52
3.96727	34.52
3.98393	34.52

[Status Trace (Column Flow)]
Interval(msec)	1000
# of Points	240
Start Time(min)	0.001
End Time(min)	3.984
Intensity Units	
Intensity Multiplier	1
R.Time (min)	Intensity
0.00060	5.52
0.01727	5.36
0.03393	5.29
0.05060	5.56
0.06727	5.74
0.08393	5.57
0.10060	5.51
0.11727	5.52
0.13393	5.52
0.15060	5.52
0.16727	5.52
0.18393	5.52
0.20060	5.52
0.21727	5.52
0.23393	5.52
0.25060	5.52
0.26727	5.52
0.28393	5.52
0.30060	5.52
0.31727	5.52
0.33393	5.52
0.35060	5.52
0.36727	5.52
0.38393	5.52
0.40060	5.52
0.41727	5.52
0.43393	5.52
0.45060	5.52
0.46727	5.52
0.48393	5.52
0.50060	5.52
0.51727	5.52
0.53393	5.52
0.55060	5.52
0.56727	5.52
0.58393	5.52
0.60060	5.52
0.61727	5.52
0.63393	5.52
0.65060	5.52
0.66727	5.52
0.68393	5.52
0.70060	5.52
0.71727	5.52
0.73393	5.52
0.75060	5.52
0.76727	5.52
0.78393	5.52
0.80060	5.52
0.81727	5.52
0.83393	5.52
0.85060	5.52
0.86727	5.52
0.88393	5.52
0.90060	5.52
0.91727	5.52
0.93393	5.52
0.95060	5.52
0.96727	5.52
0.98393	5.52
1.00060	5.52
1.01727	5.52
1.03393	5.52
1.05060	5.52
1.06727	5.52
1.08393	5.52
1.10060	5.52
1.11727	5.52
1.13393	5.52
1.15060	5.52
1.16727	5.52
1.18393	5.52
1.20060	5.52
1.21727	5.52
1.23393	5.52
1.25060	5.52
1.26727	5.52
1.28393	5.52
1.30060	5.52
1.31727	5.52
1.33393	5.52
1.35060	5.52
1.36727	5.52
1.38393	5.52
1.40060	5.52
1.41727	5.52
1.43393	5.52
1.45060	5.52
1.46727	5.52
1.48393	5.52
1.50060	5.52
1.51727	5.52
1.53393	5.52
1.55060	5.52
1.56727	5.52
1.58393	5.52
1.60060	5.52
1.61727	5.52
1.63393	5.51
1.65060	5.51
1.66727	5.50
1.68393	5.49
1.70060	5.47
1.71727	5.46
1.73393	5.45
1.75060	5.44
1.76727	5.43
1.78393	5.42
1.80060	5.41
1.81727	5.40
1.83393	5.39
1.85060	5.38
1.86727	5.37
1.88393	5.36
1.90060	5.35
1.91727	5.34
1.93393	5.33
1.95060	5.32
1.96727	5.31
1.98393	5.30
2.00060	5.29
2.01727	5.28
2.03393	5.28
2.05060	5.26
2.06727	5.26
2.08393	5.25
2.10060	5.24
2.11727	5.23
2.13393	5.22
2.15060	5.21
2.16727	5.20
2.18393	5.19
2.20060	5.18
2.21727	5.17
2.23393	5.16
2.25060	5.15
2.26727	5.14
2.28393	5.13
2.30060	5.12
2.31727	5.11
2.33393	5.11
2.35060	5.10
2.36727	5.09
2.38393	5.09
2.40060	5.09
2.41727	5.09
2.43393	5.09
2.45060	5.09
2.46727	5.09
2.48393	5.09
2.50060	5.09
2.51727	5.08
2.53393	5.08
2.55060	5.09
2.56727	5.08
2.58393	5.08
2.60060	5.08
2.61727	5.08
2.63393	5.08
2.65060	5.08
2.66727	5.08
2.68393	5.08
2.70060	5.08
2.71727	5.08
2.73393	5.08
2.75060	5.08
2.76727	5.08
2.78393	5.08
2.80060	5.08
2.81727	5.08
2.83393	5.08
2.85060	5.08
2.86727	5.08
2.88393	5.08
2.90060	5.08
2.91727	5.08
2.93393	5.08
2.95060	5.08
2.96727	5.08
2.98393	5.08
3.00060	5.08
3.01727	5.08
3.03393	5.08
3.05060	5.08
3.06727	5.08
3.08393	5.08
3.10060	5.08
3.11727	5.08
3.13393	5.08
3.15060	5.08
3.16727	5.08
3.18393	5.08
3.20060	5.08
3.21727	5.08
3.23393	5.08
3.25060	5.08
3.26727	5.08
3.28393	5.08
3.30060	5.08
3.31727	5.07
3.33393	5.08
3.35060	5.07
3.36727	5.08
3.38393	5.08
3.40060	5.08
3.41727	5.08
3.43393	5.08
3.45060	5.08
3.46727	5.08
3.48393	5.08
3.50060	5.08
3.51727	5.08
3.53393	5.08
3.55060	5.08
3.56727	5.08
3.58393	5.08
3.60060	5.08
3.61727	5.08
3.63393	5.08
3.65060	5.08
3.66727	5.08
3.68393	5.08
3.70060	5.08
3.71727	5.08
3.73393	5.08
3.75060	5.08
3.76727	5.08
3.78393	5.08
3.80060	5.08
3.81727	5.08
3.83393	5.08
3.85060	5.08
3.86727	5.08
3.88393	5.08
3.90060	5.08
3.91727	5.08
3.93393	5.08
3.95060	5.08
3.96727	5.08
3.98393	5.08

[Status Trace (Linear Velocity)]
Interval(msec)	1000
# of Points	240
Start Time(min)	0.001
End Time(min)	3.984
Intensity Units	
Intensity Multiplier	1
R.Time (min)	Intensity
0.00060	39.01
0.01727	38.08
0.03393	37.68
0.05060	39.23
0.06727	40.26
0.08393	39.30
0.10060	38.99
0.11727	39.01
0.13393	39.02
0.15060	39.01
0.16727	39.01
0.18393	39.01
0.20060	39.02
0.21727	39.02
0.23393	39.02
0.25060	39.01
0.26727	39.01
0.28393	39.01
0.30060	39.01
0.31727	39.01
0.33393	39.01
0.35060	39.01
0.36727	39.01
0.38393	39.02
0.40060	39.02
0.41727	39.02
0.43393	39.02
0.45060	39.02
0.46727	39.02
0.48393	39.02
0.50060	39.02
0.51727	39.01
0.53393	39.01
0.55060	39.01
0.56727	39.01
0.58393	39.01
0.60060	39.02
0.61727	39.02
0.63393	39.02
0.65060	39.02
0.66727	39.02
0.68393	39.02
0.70060	39.02
0.71727	39.02
0.73393	39.02
0.75060	39.01
0.76727	39.02
0.78393	39.02
0.80060	39.02
0.81727	39.02
0.83393	39.02
0.85060	39.01
0.86727	39.01
0.88393	39.01
0.90060	39.02
0.91727	39.02
0.93393	39.02
0.95060	39.02
0.96727	39.02
0.98393	39.02
1.00060	39.02
1.01727	39.02
1.03393	39.02
1.05060	39.02
1.06727	39.02
1.08393	39.02
1.10060	39.02
1.11727	39.02
1.13393	39.02
1.15060	39.02
1.16727	39.02
1.18393	39.02
1.20060	39.02
1.21727	39.02
1.23393	39.02
1.25060	39.02
1.26727	39.02
1.28393	39.02
1.30060	39.02
1.31727	39.02
1.33393	39.02
1.35060	39.02
1.36727	39.02
1.38393	39.02
1.40060	39.02
1.41727	39.02
1.43393	39.02
1.45060	39.02
1.46727	39.02
1.48393	39.02
1.50060	39.02
1.51727	39.02
1.53393	39.01
1.55060	39.02
1.56727	39.02
1.58393	39.02
1.60060	39.01
1.61727	39.01
1.63393	38.99
1.65060	38.97
1.66727	38.94
1.68393	38.91
1.70060	38.87
1.71727	38.84
1.73393	38.81
1.75060	38.78
1.76727	38.75
1.78393	38.72
1.80060	38.68
1.81727	38.65
1.83393	38.62
1.85060	38.59
1.86727	38.56
1.88393	38.53
1.90060	38.49
1.91727	38.46
1.93393	38.44
1.95060	38.40
1.96727	38.37
1.98393	38.35
2.00060	38.31
2.01727	38.28
2.03393	38.26
2.05060	38.22
2.06727	38.19
2.08393	38.17
2.10060	38.13
2.11727	38.11
2.13393	38.08
2.15060	38.04
2.16727	38.01
2.18393	37.99
2.20060	37.96
2.21727	37.93
2.23393	37.90
2.25060	37.87
2.26727	37.84
2.28393	37.81
2.30060	37.78
2.31727	37.75
2.33393	37.72
2.35060	37.69
2.36727	37.67
2.38393	37.66
2.40060	37.66
2.41727	37.66
2.43393	37.66
2.45060	37.66
2.46727	37.66
2.48393	37.66
2.50060	37.66
2.51727	37.65
2.53393	37.65
2.55060	37.66
2.56727	37.65
2.58393	37.65
2.60060	37.65
2.61727	37.65
2.63393	37.65
2.65060	37.65
2.66727	37.65
2.68393	37.65
2.70060	37.64
2.71727	37.65
2.73393	37.65
2.75060	37.64
2.76727	37.64
2.78393	37.64
2.80060	37.65
2.81727	37.64
2.83393	37.64
2.85060	37.64
2.86727	37.64
2.88393	37.64
2.90060	37.64
2.91727	37.64
2.93393	37.64
2.95060	37.64
2.96727	37.64
2.98393	37.64
3.00060	37.64
3.01727	37.63
3.03393	37.63
3.05060	37.63
3.06727	37.63
3.08393	37.63
3.10060	37.63
3.11727	37.63
3.13393	37.63
3.15060	37.63
3.16727	37.63
3.18393	37.63
3.20060	37.63
3.21727	37.63
3.23393	37.63
3.25060	37.63
3.26727	37.63
3.28393	37.62
3.30060	37.62
3.31727	37.62
3.33393	37.62
3.35060	37.62
3.36727	37.62
3.38393	37.63
3.40060	37.63
3.41727	37.63
3.43393	37.63
3.45060	37.63
3.46727	37.63
3.48393	37.63
3.50060	37.63
3.51727	37.63
3.53393	37.63
3.55060	37.63
3.56727	37.63
3.58393	37.63
3.60060	37.63
3.61727	37.63
3.63393	37.63
3.65060	37.63
3.66727	37.63
3.68393	37.63
3.70060	37.63
3.71727	37.63
3.73393	37.63
3.75060	37.63
3.76727	37.63
3.78393	37.63
3.80060	37.63
3.81727	37.63
3.83393	37.63
3.85060	37.63
3.86727	37.63
3.88393	37.63
3.90060	37.63
3.91727	37.63
3.93393	37.63
3.95060	37.63
3.96727	37.63
3.98393	37.63

