[Header]
Application Name	LabSolutions
Version	5.110
Data File Name	C:\Users\User\Desktop\GC Analyses\Jack\Nachusa Grasslands Sampling\T2 Timepoint July 12th\T2_07122022_011.gcd
Output Date	3/14/2023
Output Time	3:42:30 PM

[File Information]
Type	Data File
Generated	3/10/2023 1:30:52 PM
Generated by	System Administrator
Modified	3/10/2023 1:37:28 PM
Modified by	System Administrator

[Sample Information]
Operator Name	System Administrator
Acquired	3/10/2023 1:33:27 PM
Sample Type	0:Unknown
Level	0
Sample Name	011
Sample ID	011
ISTD Amount1	1
ISTD Amount2	1
ISTD Amount3	1
ISTD Amount4	1
ISTD Amount5	1
ISTD Amount6	1
ISTD Amount7	1
ISTD Amount8	1
ISTD Amount9	1
ISTD Amount10	1
ISTD Amount11	1
ISTD Amount12	1
ISTD Amount13	1
ISTD Amount14	1
ISTD Amount15	1
ISTD Amount16	1
ISTD Amount17	1
ISTD Amount18	1
ISTD Amount19	1
ISTD Amount20	1
ISTD Amount21	1
ISTD Amount22	1
ISTD Amount23	1
ISTD Amount24	1
ISTD Amount25	1
ISTD Amount26	1
ISTD Amount27	1
ISTD Amount28	1
ISTD Amount29	1
ISTD Amount30	1
ISTD Amount31	1
ISTD Amount32	1
Sample Amount	1
Dilution Factor	1
Vial#	10
Injection Volume	1
Injection Count	1
Bar Code	

[Original Files]
Data File	C:\Users\User\Desktop\GC Analyses\Jack\Nachusa Grasslands Sampling\T1 Timepoint July 12th\T2_07122022_011.gcd
Method File	C:\LabSolutions\Data\GHG_4min_2022\ghg3_togas_w_acet_4 min_new_int.gcm
Batch File	C:\LabSolutions\Data\AutoSamplerTesting\T2_07122022.gcb
Report Format File	c:\LabSolutions\System\DEFAULT.lsr

[File Description]


[Configuration]
Instrument Name	C0B7VH3-Instrument1
Instrument #	1
Line #	1
# of Detectors	3
Detector ID	DET#1	DET#2	DET#3
Detector Name	FID	PTCD	ECD
# of Channels	1	1	1

[Peak Table(Ch1)]
# of Peaks	3
Peak#	R.Time	I.Time	F.Time	Area	Height	A/H	Conc.	Mark	ID#	Name	k'	Plate #	Plate Ht.	Tailing	Resolution	Sep.Factor	Area Ratio	Height Ratio	Conc. %	Norm Conc.
1	1.479	1.439	1.531	2720	821	3.314	19.204	   	1	CO	0.000	4908	30.564	0.000	0.000	0.000	0	0	2.105	2.105
2	1.567	1.531	1.655	19826	9971	1.988	383.346	 V 	2	CH4	0.059	11298	13.277	1.227	1.227	0.000	0	0	42.017	42.017
3	1.996	1.949	2.590	2031345	968614	2.097	509.813	   	3	CO2	0.349	17146	8.748	1.255	7.152	5.875	0	0	55.878	55.878

[Peak Table(Ch2)]
# of Peaks	0

[Peak Table(Ch3)]
# of Peaks	5
Peak#	R.Time	I.Time	F.Time	Area	Height	A/H	Conc.	Mark	ID#	Name	k'	Plate #	Plate Ht.	Tailing	Resolution	Sep.Factor	Area Ratio	Height Ratio	Conc. %	Norm Conc.
1	2.462	2.297	2.513	1891	572	3.304	0.000	   			0.000	8333	18.001	0.000	0.000	0.000	0	0	0.000	0.000
2	2.535	2.513	2.642	1496	345	4.340	0.000	 V 			0.030	3128	47.949	0.000	0.507	0.000	0	0	0.000	0.000
3	2.660	2.642	2.730	163	56	2.883	0.000	 V 			0.080	12267	12.228	0.000	0.899	2.700	0	0	0.000	0.000
4	2.876	2.810	3.107	58927	15378	3.832	1.505	   	1	N2O	0.168	12769	11.747	1.620	2.186	2.093	0	0	100.000	100.000
5	3.386	3.177	3.965	11165	415	26.935	0.000	   	2	SF6	0.375	359	417.525	1.874	1.249	2.230	0	0	0.000	0.000

[Compound Results(Ch1)]
# of IDs	6
ID#	Name	R.Time	Area	Height	Conc.	Curve	3rd	2nd	1st	Constant	Area Ratio	Height Ratio	Conc. %	Norm Conc.
1	CO	1.479	2720	821	19.204	Linear	0.000000e+00	0.000000e+00	1.416423e+002	0.000000e+00	0	0	2.105	2.105
2	CH4	1.567	19826	9971	383.346	Linear	0.000000e+00	0.000000e+00	5.171738e+001	0.000000e+00	0	0	42.017	42.017
3	CO2	1.996	2031345	968614	509.813	Linear	0.000000e+00	0.000000e+00	3.984494e+003	0.000000e+00	0	0	55.878	55.878
4	Ethylene	0.000	0	0	0.000	Linear	0.000000e+00	0.000000e+00	0.000000e+00	0.000000e+00	0	0	0.000	0.000
5	Acetylene	0.000	0	0	0.000	Linear	0.000000e+00	0.000000e+00	0.000000e+00	0.000000e+00	0	0	0.000	0.000
6	Ethane	0.000	0	0	0.000	Linear	0.000000e+00	0.000000e+00	0.000000e+00	0.000000e+00	0	0	0.000	0.000

[Compound Results(Ch2)]
# of IDs	5
ID#	Name	R.Time	Area	Height	Conc.	Curve	3rd	2nd	1st	Constant	Area Ratio	Height Ratio	Conc. %	Norm Conc.
1	Hydrogen	0.000	0	0	0.000	Linear	0.000000e+00	0.000000e+00	0.000000e+00	0.000000e+00	0	0	0.000	0.000
2	Oxygen	0.000	0	0	0.000	Linear	0.000000e+00	0.000000e+00	0.000000e+00	0.000000e+00	0	0	0.000	0.000
3	Nitrogen	0.000	0	0	0.000	Linear	0.000000e+00	0.000000e+00	0.000000e+00	0.000000e+00	0	0	0.000	0.000
4	Methane	0.000	0	0	0.000	Linear	0.000000e+00	0.000000e+00	0.000000e+00	0.000000e+00	0	0	0.000	0.000
5	Carbon Monoxide	0.000	0	0	0.000	Linear	0.000000e+00	0.000000e+00	0.000000e+00	0.000000e+00	0	0	0.000	0.000

[Compound Results(Ch3)]
# of IDs	2
ID#	Name	R.Time	Area	Height	Conc.	Curve	3rd	2nd	1st	Constant	Area Ratio	Height Ratio	Conc. %	Norm Conc.
1	N2O	2.876	58927	15378	1.505	Linear	0.000000e+00	0.000000e+00	3.915173e+004	0.000000e+00	0	0	100.000	100.000
2	SF6	3.386	11165	415	0.000	Linear	0.000000e+00	0.000000e+00	0.000000e+00	0.000000e+00	0	0	0.000	0.000

[Group Results(Ch1)]
# of Groups	0

[Group Results(Ch2)]
# of Groups	0

[Group Results(Ch3)]
# of Groups	0

[Chromatogram (Ch1)]
Interval(msec)	220
# of Points	1091
Start Time(min)	0.002
End Time(min)	3.998
R.Time (min)	Intensity
0.00167	-7
0.00533	2
0.00900	19
0.01267	30
0.01633	33
0.02000	32
0.02367	28
0.02733	26
0.03100	24
0.03467	18
0.03833	8
0.04200	-5
0.04567	-19
0.04933	-28
0.05300	-31
0.05667	-27
0.06033	-17
0.06400	-10
0.06767	-8
0.07133	-10
0.07500	-13
0.07867	-14
0.08233	-14
0.08600	-12
0.08967	-9
0.09333	-6
0.09700	-1
0.10067	3
0.10433	6
0.10800	6
0.11167	3
0.11533	1
0.11900	0
0.12267	-1
0.12633	-0
0.13000	1
0.13367	0
0.13733	-2
0.14100	-1
0.14467	4
0.14833	12
0.15200	20
0.15567	21
0.15933	19
0.16300	19
0.16667	18
0.17033	11
0.17400	1
0.17767	-4
0.18133	-7
0.18500	-10
0.18867	-10
0.19233	-7
0.19600	-1
0.19967	4
0.20333	8
0.20700	15
0.21067	29
0.21433	40
0.21800	40
0.22167	32
0.22533	22
0.22900	15
0.23267	10
0.23633	5
0.24000	2
0.24367	3
0.24733	7
0.25100	12
0.25467	17
0.25833	21
0.26200	24
0.26567	24
0.26933	19
0.27300	15
0.27667	16
0.28033	22
0.28400	25
0.28767	25
0.29133	25
0.29500	31
0.29867	40
0.30233	47
0.30600	51
0.30967	54
0.31333	51
0.31700	52
0.32067	55
0.32433	58
0.32800	59
0.33167	61
0.33533	66
0.33900	73
0.34267	86
0.34633	96
0.35000	95
0.35367	86
0.35733	76
0.36100	68
0.36467	68
0.36833	71
0.37200	74
0.37567	74
0.37933	73
0.38300	73
0.38667	72
0.39033	70
0.39400	65
0.39767	61
0.40133	56
0.40500	50
0.40867	41
0.41233	34
0.41600	32
0.41967	35
0.42333	44
0.42700	55
0.43067	63
0.43433	61
0.43800	54
0.44167	47
0.44533	41
0.44900	35
0.45267	29
0.45633	22
0.46000	12
0.46367	2
0.46733	-3
0.47100	-4
0.47467	-2
0.47833	2
0.48200	6
0.48567	7
0.48933	4
0.49300	-1
0.49667	-9
0.50033	-11
0.50400	-7
0.50767	-4
0.51133	-3
0.51500	-3
0.51867	-5
0.52233	-9
0.52600	-14
0.52967	-18
0.53333	-19
0.53700	-15
0.54067	-9
0.54433	-2
0.54800	4
0.55167	7
0.55533	8
0.55900	5
0.56267	-4
0.56633	-12
0.57000	-16
0.57367	-19
0.57733	-15
0.58100	-7
0.58467	0
0.58833	6
0.59200	7
0.59567	2
0.59933	-2
0.60300	-4
0.60667	-4
0.61033	-5
0.61400	-6
0.61767	-8
0.62133	-6
0.62500	-3
0.62867	2
0.63233	7
0.63600	6
0.63967	0
0.64333	-7
0.64700	-12
0.65067	-13
0.65433	-10
0.65800	-9
0.66167	-15
0.66533	-21
0.66900	-26
0.67267	-28
0.67633	-22
0.68000	-14
0.68367	-9
0.68733	-5
0.69100	3
0.69467	9
0.69833	4
0.70200	-4
0.70567	-12
0.70933	-17
0.71300	-19
0.71667	-17
0.72033	-14
0.72400	-13
0.72767	-16
0.73133	-18
0.73500	-22
0.73867	-25
0.74233	-28
0.74600	-29
0.74967	-26
0.75333	-23
0.75700	-21
0.76067	-25
0.76433	-27
0.76800	-29
0.77167	-32
0.77533	-31
0.77900	-27
0.78267	-21
0.78633	-12
0.79000	-3
0.79367	4
0.79733	17
0.80100	33
0.80467	41
0.80833	36
0.81200	23
0.81567	6
0.81933	-11
0.82300	-28
0.82667	-44
0.83033	-56
0.83400	-63
0.83767	-65
0.84133	-62
0.84500	-57
0.84867	-49
0.85233	-38
0.85600	-25
0.85967	-14
0.86333	-10
0.86700	-13
0.87067	-18
0.87433	-22
0.87800	-22
0.88167	-20
0.88533	-16
0.88900	-11
0.89267	-9
0.89633	-13
0.90000	-22
0.90367	-32
0.90733	-36
0.91100	-31
0.91467	-28
0.91833	-28
0.92200	-26
0.92567	-21
0.92933	-18
0.93300	-19
0.93667	-23
0.94033	-26
0.94400	-28
0.94767	-28
0.95133	-28
0.95500	-26
0.95867	-23
0.96233	-23
0.96600	-26
0.96967	-27
0.97333	-25
0.97700	-20
0.98067	-14
0.98433	-10
0.98800	-10
0.99167	-10
0.99533	-12
0.99900	-18
1.00267	-25
1.00633	-28
1.01000	-27
1.01367	-24
1.01733	-27
1.02100	-33
1.02467	-39
1.02833	-47
1.03200	-56
1.03567	-63
1.03933	-66
1.04300	-56
1.04667	-48
1.05033	-39
1.05400	-33
1.05767	-28
1.06133	-24
1.06500	-20
1.06867	-16
1.07233	-16
1.07600	-22
1.07967	-30
1.08333	-35
1.08700	-37
1.09067	-37
1.09433	-39
1.09800	-41
1.10167	-43
1.10533	-41
1.10900	-38
1.11267	-36
1.11633	-36
1.12000	-37
1.12367	-35
1.12733	-32
1.13100	-28
1.13467	-24
1.13833	-21
1.14200	-18
1.14567	-17
1.14933	-18
1.15300	-17
1.15667	-17
1.16033	-26
1.16400	-36
1.16767	-42
1.17133	-45
1.17500	-48
1.17867	-51
1.18233	-51
1.18600	-49
1.18967	-46
1.19333	-42
1.19700	-43
1.20067	-46
1.20433	-47
1.20800	-47
1.21167	-46
1.21533	-46
1.21900	-45
1.22267	-44
1.22633	-43
1.23000	-42
1.23367	-38
1.23733	-35
1.24100	-34
1.24467	-38
1.24833	-40
1.25200	-41
1.25567	-44
1.25933	-50
1.26300	-53
1.26667	-51
1.27033	-48
1.27400	-45
1.27767	-42
1.28133	-39
1.28500	-38
1.28867	-37
1.29233	-34
1.29600	-31
1.29967	-31
1.30333	-33
1.30700	-35
1.31067	-37
1.31433	-38
1.31800	-39
1.32167	-41
1.32533	-42
1.32900	-40
1.33267	-39
1.33633	-38
1.34000	-41
1.34367	-47
1.34733	-54
1.35100	-61
1.35467	-66
1.35833	-68
1.36200	-63
1.36567	-56
1.36933	-49
1.37300	-45
1.37667	-47
1.38033	-50
1.38400	-49
1.38767	-41
1.39133	-30
1.39500	-22
1.39867	-22
1.40233	-26
1.40600	-32
1.40967	-40
1.41333	-49
1.41700	-54
1.42067	-56
1.42433	-58
1.42800	-60
1.43167	-60
1.43533	-55
1.43900	-32
1.44267	55
1.44633	217
1.45000	399
1.45367	555
1.45733	654
1.46100	705
1.46467	725
1.46833	733
1.47200	745
1.47567	768
1.47933	791
1.48300	790
1.48667	753
1.49033	686
1.49400	603
1.49767	516
1.50133	431
1.50500	356
1.50867	296
1.51233	242
1.51600	193
1.51967	155
1.52333	129
1.52700	110
1.53067	93
1.53433	90
1.53800	176
1.54167	546
1.54533	1485
1.54900	3063
1.55267	4994
1.55633	6868
1.56000	8407
1.56367	9474
1.56733	9946
1.57100	9698
1.57467	8723
1.57833	7241
1.58200	5599
1.58567	4092
1.58933	2869
1.59300	1954
1.59667	1305
1.60033	861
1.60400	566
1.60767	374
1.61133	248
1.61500	169
1.61867	122
1.62233	97
1.62600	84
1.62967	75
1.63333	64
1.63700	51
1.64067	39
1.64433	24
1.64800	6
1.65167	-10
1.65533	-19
1.65900	-20
1.66267	-20
1.66633	-20
1.67000	-19
1.67367	-16
1.67733	-15
1.68100	-15
1.68467	-16
1.68833	-15
1.69200	-13
1.69567	-11
1.69933	-8
1.70300	-7
1.70667	-7
1.71033	-3
1.71400	-0
1.71767	2
1.72133	6
1.72500	7
1.72867	8
1.73233	12
1.73600	20
1.73967	28
1.74333	35
1.74700	34
1.75067	22
1.75433	5
1.75800	-13
1.76167	-28
1.76533	-36
1.76900	-32
1.77267	-23
1.77633	-20
1.78000	-23
1.78367	-27
1.78733	-33
1.79100	-41
1.79467	-50
1.79833	-58
1.80200	-62
1.80567	-61
1.80933	-60
1.81300	-59
1.81667	-54
1.82033	-50
1.82400	-43
1.82767	-34
1.83133	-27
1.83500	-21
1.83867	-19
1.84233	-20
1.84600	-21
1.84967	-25
1.85333	-27
1.85700	-29
1.86067	-33
1.86433	-35
1.86800	-34
1.87167	-29
1.87533	-25
1.87900	-22
1.88267	-17
1.88633	-15
1.89000	-21
1.89367	-29
1.89733	-31
1.90100	-29
1.90467	-30
1.90833	-33
1.91200	-33
1.91567	-31
1.91933	-28
1.92300	-27
1.92667	-23
1.93033	-22
1.93400	-20
1.93767	-15
1.94133	-11
1.94500	-11
1.94867	-10
1.95233	20
1.95600	250
1.95967	1556
1.96333	7259
1.96700	26153
1.97067	74231
1.97433	168816
1.97800	314655
1.98167	495125
1.98533	678239
1.98900	832080
1.99267	933352
1.99633	968633
2.00000	935547
2.00367	843924
2.00733	713729
2.01100	569437
2.01467	432472
2.01833	316103
2.02200	224921
2.02567	157524
2.02933	109701
2.03300	76678
2.03667	54249
2.04033	39133
2.04400	28951
2.04767	22050
2.05133	17318
2.05500	14017
2.05867	11656
2.06233	9925
2.06600	8626
2.06967	7627
2.07333	6838
2.07700	6200
2.08067	5669
2.08433	5220
2.08800	4840
2.09167	4513
2.09533	4224
2.09900	3964
2.10267	3731
2.10633	3527
2.11000	3344
2.11367	3175
2.11733	3017
2.12100	2878
2.12467	2752
2.12833	2637
2.13200	2530
2.13567	2427
2.13933	2328
2.14300	2238
2.14667	2156
2.15033	2081
2.15400	2014
2.15767	1952
2.16133	1895
2.16500	1837
2.16867	1780
2.17233	1725
2.17600	1671
2.17967	1622
2.18333	1575
2.18700	1531
2.19067	1490
2.19433	1453
2.19800	1419
2.20167	1385
2.20533	1349
2.20900	1314
2.21267	1284
2.21633	1254
2.22000	1224
2.22367	1192
2.22733	1163
2.23100	1134
2.23467	1108
2.23833	1087
2.24200	1070
2.24567	1054
2.24933	1033
2.25300	1010
2.25667	985
2.26033	959
2.26400	933
2.26767	913
2.27133	900
2.27500	888
2.27867	874
2.28233	858
2.28600	841
2.28967	824
2.29333	809
2.29700	791
2.30067	774
2.30433	758
2.30800	747
2.31167	739
2.31533	730
2.31900	715
2.32267	699
2.32633	689
2.33000	686
2.33367	686
2.33733	683
2.34100	673
2.34467	659
2.34833	647
2.35200	642
2.35567	639
2.35933	632
2.36300	625
2.36667	613
2.37033	597
2.37400	579
2.37767	565
2.38133	558
2.38500	558
2.38867	561
2.39233	561
2.39600	562
2.39967	556
2.40333	541
2.40700	527
2.41067	517
2.41433	510
2.41800	508
2.42167	507
2.42533	508
2.42900	511
2.43267	512
2.43633	512
2.44000	511
2.44367	504
2.44733	493
2.45100	478
2.45467	470
2.45833	460
2.46200	453
2.46567	450
2.46933	449
2.47300	447
2.47667	445
2.48033	443
2.48400	440
2.48767	437
2.49133	437
2.49500	436
2.49867	434
2.50233	435
2.50600	436
2.50967	434
2.51333	431
2.51700	426
2.52067	418
2.52433	410
2.52800	401
2.53167	398
2.53533	401
2.53900	396
2.54267	398
2.54633	402
2.55000	408
2.55367	411
2.55733	409
2.56100	404
2.56467	399
2.56833	393
2.57200	387
2.57567	386
2.57933	384
2.58300	383
2.58667	381
2.59033	376
2.59400	369
2.59767	365
2.60133	366
2.60500	370
2.60867	373
2.61233	372
2.61600	370
2.61967	371
2.62333	373
2.62700	374
2.63067	375
2.63433	376
2.63800	376
2.64167	374
2.64533	374
2.64900	373
2.65267	369
2.65633	367
2.66000	364
2.66367	362
2.66733	360
2.67100	361
2.67467	363
2.67833	361
2.68200	356
2.68567	354
2.68933	353
2.69300	352
2.69667	352
2.70033	349
2.70400	345
2.70767	348
2.71133	353
2.71500	354
2.71867	350
2.72233	340
2.72600	330
2.72967	324
2.73333	318
2.73700	316
2.74067	322
2.74433	333
2.74800	340
2.75167	342
2.75533	346
2.75900	352
2.76267	358
2.76633	360
2.77000	364
2.77367	362
2.77733	351
2.78100	342
2.78467	340
2.78833	340
2.79200	339
2.79567	333
2.79933	331
2.80300	339
2.80667	345
2.81033	344
2.81400	338
2.81767	335
2.82133	337
2.82500	338
2.82867	338
2.83233	335
2.83600	332
2.83967	329
2.84333	331
2.84700	337
2.85067	341
2.85433	348
2.85800	356
2.86167	362
2.86533	364
2.86900	365
2.87267	360
2.87633	354
2.88000	355
2.88367	362
2.88733	366
2.89100	361
2.89467	354
2.89833	351
2.90200	350
2.90567	351
2.90933	353
2.91300	359
2.91667	364
2.92033	366
2.92400	364
2.92767	363
2.93133	362
2.93500	354
2.93867	348
2.94233	349
2.94600	354
2.94967	360
2.95333	363
2.95700	364
2.96067	366
2.96433	369
2.96800	373
2.97167	373
2.97533	374
2.97900	375
2.98267	376
2.98633	375
2.99000	367
2.99367	355
2.99733	346
3.00100	343
3.00467	347
3.00833	353
3.01200	361
3.01567	374
3.01933	386
3.02300	396
3.02667	403
3.03033	401
3.03400	393
3.03767	387
3.04133	384
3.04500	378
3.04867	369
3.05233	360
3.05600	354
3.05967	351
3.06333	347
3.06700	346
3.07067	351
3.07433	359
3.07800	363
3.08167	362
3.08533	361
3.08900	363
3.09267	362
3.09633	357
3.10000	352
3.10367	351
3.10733	359
3.11100	371
3.11467	387
3.11833	402
3.12200	408
3.12567	402
3.12933	392
3.13300	379
3.13667	365
3.14033	352
3.14400	344
3.14767	342
3.15133	341
3.15500	342
3.15867	345
3.16233	351
3.16600	361
3.16967	370
3.17333	379
3.17700	385
3.18067	389
3.18433	388
3.18800	381
3.19167	372
3.19533	363
3.19900	358
3.20267	359
3.20633	363
3.21000	367
3.21367	373
3.21733	381
3.22100	389
3.22467	393
3.22833	390
3.23200	384
3.23567	377
3.23933	369
3.24300	363
3.24667	360
3.25033	359
3.25400	357
3.25767	355
3.26133	353
3.26500	350
3.26867	350
3.27233	353
3.27600	356
3.27967	356
3.28333	353
3.28700	350
3.29067	351
3.29433	357
3.29800	364
3.30167	367
3.30533	369
3.30900	373
3.31267	377
3.31633	378
3.32000	375
3.32367	370
3.32733	366
3.33100	365
3.33467	366
3.33833	367
3.34200	366
3.34567	362
3.34933	360
3.35300	356
3.35667	354
3.36033	353
3.36400	358
3.36767	365
3.37133	371
3.37500	372
3.37867	371
3.38233	372
3.38600	376
3.38967	382
3.39333	383
3.39700	379
3.40067	371
3.40433	362
3.40800	351
3.41167	341
3.41533	335
3.41900	330
3.42267	329
3.42633	330
3.43000	337
3.43367	343
3.43733	348
3.44100	351
3.44467	345
3.44833	338
3.45200	335
3.45567	335
3.45933	335
3.46300	335
3.46667	338
3.47033	344
3.47400	350
3.47767	354
3.48133	358
3.48500	361
3.48867	359
3.49233	357
3.49600	354
3.49967	350
3.50333	349
3.50700	351
3.51067	356
3.51433	361
3.51800	359
3.52167	349
3.52533	340
3.52900	335
3.53267	334
3.53633	335
3.54000	337
3.54367	341
3.54733	348
3.55100	350
3.55467	347
3.55833	345
3.56200	340
3.56567	335
3.56933	331
3.57300	327
3.57667	324
3.58033	320
3.58400	312
3.58767	307
3.59133	306
3.59500	313
3.59867	322
3.60233	325
3.60600	325
3.60967	324
3.61333	326
3.61700	332
3.62067	336
3.62433	335
3.62800	332
3.63167	330
3.63533	328
3.63900	325
3.64267	323
3.64633	321
3.65000	319
3.65367	319
3.65733	322
3.66100	320
3.66467	313
3.66833	309
3.67200	314
3.67567	321
3.67933	324
3.68300	329
3.68667	336
3.69033	339
3.69400	333
3.69767	324
3.70133	319
3.70500	318
3.70867	318
3.71233	318
3.71600	321
3.71967	319
3.72333	315
3.72700	310
3.73067	304
3.73433	298
3.73800	297
3.74167	299
3.74533	300
3.74900	303
3.75267	310
3.75633	318
3.76000	319
3.76367	314
3.76733	308
3.77100	306
3.77467	308
3.77833	311
3.78200	314
3.78567	317
3.78933	314
3.79300	305
3.79667	297
3.80033	292
3.80400	290
3.80767	290
3.81133	291
3.81500	292
3.81867	294
3.82233	294
3.82600	294
3.82967	292
3.83333	291
3.83700	289
3.84067	287
3.84433	285
3.84800	285
3.85167	290
3.85533	294
3.85900	294
3.86267	289
3.86633	288
3.87000	291
3.87367	291
3.87733	290
3.88100	286
3.88467	284
3.88833	284
3.89200	281
3.89567	277
3.89933	270
3.90300	263
3.90667	261
3.91033	260
3.91400	263
3.91767	271
3.92133	276
3.92500	276
3.92867	272
3.93233	270
3.93600	269
3.93967	271
3.94333	273
3.94700	276
3.95067	282
3.95433	284
3.95800	281
3.96167	276
3.96533	272
3.96900	269
3.97267	269
3.97633	272
3.98000	269
3.98367	268
3.98733	270
3.99100	271
3.99467	268
3.99833	269

[Chromatogram (Ch2)]
Interval(msec)	220
# of Points	1091
Start Time(min)	0.002
End Time(min)	3.998
R.Time (min)	Intensity
0.00167	-0
0.00533	-0
0.00900	-1
0.01267	-1
0.01633	-1
0.02000	-1
0.02367	-1
0.02733	-1
0.03100	-1
0.03467	-1
0.03833	-1
0.04200	-1
0.04567	-0
0.04933	-0
0.05300	-0
0.05667	0
0.06033	0
0.06400	0
0.06767	0
0.07133	0
0.07500	0
0.07867	0
0.08233	0
0.08600	1
0.08967	1
0.09333	1
0.09700	1
0.10067	1
0.10433	0
0.10800	0
0.11167	0
0.11533	0
0.11900	1
0.12267	1
0.12633	1
0.13000	1
0.13367	2
0.13733	2
0.14100	3
0.14467	3
0.14833	3
0.15200	3
0.15567	2
0.15933	2
0.16300	2
0.16667	2
0.17033	2
0.17400	2
0.17767	2
0.18133	2
0.18500	2
0.18867	2
0.19233	2
0.19600	1
0.19967	1
0.20333	1
0.20700	1
0.21067	1
0.21433	2
0.21800	2
0.22167	2
0.22533	2
0.22900	2
0.23267	2
0.23633	2
0.24000	2
0.24367	2
0.24733	2
0.25100	2
0.25467	2
0.25833	1
0.26200	1
0.26567	1
0.26933	1
0.27300	1
0.27667	1
0.28033	1
0.28400	1
0.28767	1
0.29133	1
0.29500	1
0.29867	1
0.30233	1
0.30600	2
0.30967	2
0.31333	2
0.31700	2
0.32067	2
0.32433	3
0.32800	3
0.33167	3
0.33533	3
0.33900	3
0.34267	3
0.34633	3
0.35000	3
0.35367	3
0.35733	3
0.36100	2
0.36467	2
0.36833	2
0.37200	2
0.37567	2
0.37933	2
0.38300	2
0.38667	2
0.39033	2
0.39400	2
0.39767	2
0.40133	2
0.40500	2
0.40867	1
0.41233	1
0.41600	1
0.41967	2
0.42333	2
0.42700	2
0.43067	2
0.43433	2
0.43800	3
0.44167	3
0.44533	3
0.44900	3
0.45267	3
0.45633	3
0.46000	3
0.46367	3
0.46733	3
0.47100	4
0.47467	3
0.47833	3
0.48200	3
0.48567	3
0.48933	2
0.49300	2
0.49667	2
0.50033	2
0.50400	1
0.50767	1
0.51133	1
0.51500	1
0.51867	1
0.52233	1
0.52600	2
0.52967	2
0.53333	2
0.53700	2
0.54067	2
0.54433	2
0.54800	2
0.55167	2
0.55533	2
0.55900	3
0.56267	3
0.56633	3
0.57000	4
0.57367	4
0.57733	4
0.58100	4
0.58467	4
0.58833	4
0.59200	4
0.59567	4
0.59933	4
0.60300	3
0.60667	3
0.61033	3
0.61400	3
0.61767	2
0.62133	2
0.62500	2
0.62867	2
0.63233	1
0.63600	1
0.63967	0
0.64333	0
0.64700	-0
0.65067	-0
0.65433	-1
0.65800	-1
0.66167	-1
0.66533	-2
0.66900	-2
0.67267	-2
0.67633	-2
0.68000	-3
0.68367	-3
0.68733	-3
0.69100	-3
0.69467	-3
0.69833	-3
0.70200	-3
0.70567	-2
0.70933	-2
0.71300	-1
0.71667	-1
0.72033	-1
0.72400	-1
0.72767	-1
0.73133	-0
0.73500	-0
0.73867	0
0.74233	0
0.74600	0
0.74967	0
0.75333	0
0.75700	-0
0.76067	-0
0.76433	-1
0.76800	-1
0.77167	-0
0.77533	-0
0.77900	-0
0.78267	-0
0.78633	-0
0.79000	0
0.79367	0
0.79733	0
0.80100	0
0.80467	1
0.80833	1
0.81200	1
0.81567	1
0.81933	1
0.82300	1
0.82667	1
0.83033	1
0.83400	1
0.83767	2
0.84133	2
0.84500	2
0.84867	2
0.85233	2
0.85600	2
0.85967	2
0.86333	1
0.86700	1
0.87067	1
0.87433	1
0.87800	1
0.88167	1
0.88533	2
0.88900	2
0.89267	2
0.89633	2
0.90000	2
0.90367	2
0.90733	2
0.91100	2
0.91467	2
0.91833	2
0.92200	2
0.92567	1
0.92933	1
0.93300	0
0.93667	0
0.94033	0
0.94400	-0
0.94767	-1
0.95133	-1
0.95500	-2
0.95867	-2
0.96233	-2
0.96600	-2
0.96967	-3
0.97333	-3
0.97700	-3
0.98067	-3
0.98433	-3
0.98800	-3
0.99167	-2
0.99533	-2
0.99900	-2
1.00267	-2
1.00633	-2
1.01000	-2
1.01367	-2
1.01733	-2
1.02100	-2
1.02467	-2
1.02833	-2
1.03200	-2
1.03567	-2
1.03933	-2
1.04300	-2
1.04667	-2
1.05033	-2
1.05400	-1
1.05767	-1
1.06133	-1
1.06500	-1
1.06867	-1
1.07233	-1
1.07600	-0
1.07967	-0
1.08333	-0
1.08700	-0
1.09067	-0
1.09433	-0
1.09800	0
1.10167	1
1.10533	1
1.10900	1
1.11267	2
1.11633	2
1.12000	2
1.12367	2
1.12733	2
1.13100	3
1.13467	3
1.13833	3
1.14200	3
1.14567	2
1.14933	2
1.15300	2
1.15667	2
1.16033	2
1.16400	2
1.16767	2
1.17133	2
1.17500	2
1.17867	1
1.18233	1
1.18600	1
1.18967	1
1.19333	2
1.19700	1
1.20067	1
1.20433	1
1.20800	1
1.21167	1
1.21533	1
1.21900	0
1.22267	0
1.22633	0
1.23000	0
1.23367	0
1.23733	1
1.24100	1
1.24467	1
1.24833	1
1.25200	1
1.25567	1
1.25933	1
1.26300	1
1.26667	0
1.27033	-0
1.27400	-0
1.27767	-1
1.28133	-1
1.28500	-1
1.28867	-1
1.29233	-1
1.29600	-1
1.29967	-1
1.30333	-1
1.30700	-0
1.31067	0
1.31433	0
1.31800	1
1.32167	1
1.32533	1
1.32900	1
1.33267	1
1.33633	1
1.34000	1
1.34367	0
1.34733	-0
1.35100	-1
1.35467	-1
1.35833	-2
1.36200	-2
1.36567	-2
1.36933	-2
1.37300	-2
1.37667	-2
1.38033	-2
1.38400	-2
1.38767	-2
1.39133	-2
1.39500	-2
1.39867	-1
1.40233	-1
1.40600	-1
1.40967	-0
1.41333	-0
1.41700	0
1.42067	1
1.42433	1
1.42800	1
1.43167	2
1.43533	2
1.43900	2
1.44267	1
1.44633	1
1.45000	1
1.45367	0
1.45733	0
1.46100	-0
1.46467	-1
1.46833	-1
1.47200	-1
1.47567	-1
1.47933	-1
1.48300	-0
1.48667	-0
1.49033	0
1.49400	0
1.49767	0
1.50133	0
1.50500	1
1.50867	1
1.51233	1
1.51600	1
1.51967	1
1.52333	1
1.52700	1
1.53067	1
1.53433	1
1.53800	1
1.54167	1
1.54533	1
1.54900	0
1.55267	-1
1.55633	-1
1.56000	-2
1.56367	-3
1.56733	-3
1.57100	-4
1.57467	-4
1.57833	-4
1.58200	-4
1.58567	-4
1.58933	-4
1.59300	-4
1.59667	-4
1.60033	-5
1.60400	-6
1.60767	-7
1.61133	-9
1.61500	-11
1.61867	-13
1.62233	-15
1.62600	-17
1.62967	-20
1.63333	-23
1.63700	-26
1.64067	-30
1.64433	-33
1.64800	-37
1.65167	-40
1.65533	-44
1.65900	-47
1.66267	-51
1.66633	-55
1.67000	-60
1.67367	-64
1.67733	-69
1.68100	-74
1.68467	-78
1.68833	-82
1.69200	-86
1.69567	-89
1.69933	-92
1.70300	-94
1.70667	-96
1.71033	-98
1.71400	-100
1.71767	-102
1.72133	-103
1.72500	-104
1.72867	-105
1.73233	-106
1.73600	-106
1.73967	-107
1.74333	-107
1.74700	-108
1.75067	-108
1.75433	-108
1.75800	-109
1.76167	-109
1.76533	-109
1.76900	-109
1.77267	-110
1.77633	-111
1.78000	-112
1.78367	-112
1.78733	-113
1.79100	-113
1.79467	-114
1.79833	-114
1.80200	-113
1.80567	-113
1.80933	-113
1.81300	-112
1.81667	-112
1.82033	-111
1.82400	-111
1.82767	-111
1.83133	-111
1.83500	-111
1.83867	-111
1.84233	-112
1.84600	-112
1.84967	-112
1.85333	-112
1.85700	-112
1.86067	-112
1.86433	-112
1.86800	-112
1.87167	-112
1.87533	-112
1.87900	-112
1.88267	-112
1.88633	-112
1.89000	-112
1.89367	-112
1.89733	-112
1.90100	-112
1.90467	-112
1.90833	-111
1.91200	-111
1.91567	-111
1.91933	-111
1.92300	-111
1.92667	-111
1.93033	-111
1.93400	-111
1.93767	-110
1.94133	-110
1.94500	-110
1.94867	-109
1.95233	-109
1.95600	-108
1.95967	-108
1.96333	-107
1.96700	-107
1.97067	-107
1.97433	-107
1.97800	-107
1.98167	-107
1.98533	-106
1.98900	-106
1.99267	-106
1.99633	-105
2.00000	-105
2.00367	-105
2.00733	-105
2.01100	-105
2.01467	-106
2.01833	-106
2.02200	-106
2.02567	-106
2.02933	-105
2.03300	-104
2.03667	-103
2.04033	-103
2.04400	-102
2.04767	-102
2.05133	-101
2.05500	-101
2.05867	-100
2.06233	-99
2.06600	-98
2.06967	-97
2.07333	-96
2.07700	-96
2.08067	-96
2.08433	-96
2.08800	-96
2.09167	-96
2.09533	-96
2.09900	-96
2.10267	-96
2.10633	-96
2.11000	-96
2.11367	-95
2.11733	-95
2.12100	-95
2.12467	-94
2.12833	-94
2.13200	-94
2.13567	-93
2.13933	-93
2.14300	-93
2.14667	-93
2.15033	-94
2.15400	-94
2.15767	-95
2.16133	-95
2.16500	-94
2.16867	-94
2.17233	-94
2.17600	-93
2.17967	-92
2.18333	-91
2.18700	-91
2.19067	-91
2.19433	-91
2.19800	-91
2.20167	-91
2.20533	-90
2.20900	-90
2.21267	-89
2.21633	-88
2.22000	-87
2.22367	-88
2.22733	-88
2.23100	-89
2.23467	-90
2.23833	-91
2.24200	-91
2.24567	-90
2.24933	-89
2.25300	-88
2.25667	-87
2.26033	-86
2.26400	-85
2.26767	-85
2.27133	-84
2.27500	-84
2.27867	-84
2.28233	-84
2.28600	-84
2.28967	-84
2.29333	-84
2.29700	-83
2.30067	-82
2.30433	-81
2.30800	-81
2.31167	-80
2.31533	-79
2.31900	-79
2.32267	-78
2.32633	-77
2.33000	-77
2.33367	-76
2.33733	-76
2.34100	-76
2.34467	-75
2.34833	-74
2.35200	-74
2.35567	-73
2.35933	-72
2.36300	-72
2.36667	-71
2.37033	-69
2.37400	-68
2.37767	-65
2.38133	-62
2.38500	-58
2.38867	-54
2.39233	-50
2.39600	-46
2.39967	-42
2.40333	-37
2.40700	-33
2.41067	-29
2.41433	-24
2.41800	-21
2.42167	-17
2.42533	-15
2.42900	-13
2.43267	-12
2.43633	-11
2.44000	-10
2.44367	-9
2.44733	-8
2.45100	-7
2.45467	-6
2.45833	-5
2.46200	-4
2.46567	-3
2.46933	-2
2.47300	-1
2.47667	1
2.48033	2
2.48400	3
2.48767	3
2.49133	4
2.49500	5
2.49867	6
2.50233	7
2.50600	8
2.50967	9
2.51333	9
2.51700	9
2.52067	9
2.52433	10
2.52800	11
2.53167	12
2.53533	13
2.53900	13
2.54267	14
2.54633	14
2.55000	14
2.55367	14
2.55733	14
2.56100	15
2.56467	16
2.56833	17
2.57200	18
2.57567	19
2.57933	20
2.58300	20
2.58667	21
2.59033	21
2.59400	21
2.59767	21
2.60133	21
2.60500	22
2.60867	22
2.61233	22
2.61600	23
2.61967	23
2.62333	24
2.62700	24
2.63067	24
2.63433	23
2.63800	23
2.64167	23
2.64533	23
2.64900	23
2.65267	23
2.65633	23
2.66000	23
2.66367	23
2.66733	24
2.67100	24
2.67467	24
2.67833	24
2.68200	24
2.68567	24
2.68933	24
2.69300	25
2.69667	25
2.70033	25
2.70400	25
2.70767	25
2.71133	25
2.71500	25
2.71867	25
2.72233	25
2.72600	25
2.72967	25
2.73333	26
2.73700	26
2.74067	26
2.74433	27
2.74800	27
2.75167	28
2.75533	28
2.75900	28
2.76267	28
2.76633	28
2.77000	28
2.77367	28
2.77733	28
2.78100	29
2.78467	29
2.78833	29
2.79200	29
2.79567	29
2.79933	29
2.80300	29
2.80667	29
2.81033	29
2.81400	29
2.81767	29
2.82133	29
2.82500	29
2.82867	29
2.83233	29
2.83600	28
2.83967	26
2.84333	24
2.84700	20
2.85067	14
2.85433	4
2.85800	-10
2.86167	-28
2.86533	-51
2.86900	-79
2.87267	-113
2.87633	-152
2.88000	-197
2.88367	-247
2.88733	-302
2.89100	-362
2.89467	-427
2.89833	-495
2.90200	-567
2.90567	-642
2.90933	-720
2.91300	-801
2.91667	-885
2.92033	-970
2.92400	-1058
2.92767	-1147
2.93133	-1238
2.93500	-1330
2.93867	-1417
2.94233	-1486
2.94600	-1526
2.94967	-1530
2.95333	-1499
2.95700	-1436
2.96067	-1351
2.96433	-1249
2.96800	-1140
2.97167	-1028
2.97533	-918
2.97900	-813
2.98267	-716
2.98633	-626
2.99000	-544
2.99367	-471
2.99733	-407
3.00100	-349
3.00467	-299
3.00833	-256
3.01200	-218
3.01567	-185
3.01933	-157
3.02300	-132
3.02667	-112
3.03033	-94
3.03400	-79
3.03767	-66
3.04133	-55
3.04500	-45
3.04867	-37
3.05233	-31
3.05600	-25
3.05967	-20
3.06333	-15
3.06700	-11
3.07067	-8
3.07433	-5
3.07800	-2
3.08167	-0
3.08533	2
3.08900	3
3.09267	5
3.09633	6
3.10000	7
3.10367	8
3.10733	9
3.11100	10
3.11467	11
3.11833	11
3.12200	12
3.12567	13
3.12933	14
3.13300	14
3.13667	15
3.14033	16
3.14400	16
3.14767	17
3.15133	17
3.15500	17
3.15867	18
3.16233	18
3.16600	18
3.16967	19
3.17333	19
3.17700	19
3.18067	19
3.18433	20
3.18800	20
3.19167	20
3.19533	20
3.19900	21
3.20267	21
3.20633	21
3.21000	22
3.21367	22
3.21733	22
3.22100	23
3.22467	23
3.22833	23
3.23200	23
3.23567	23
3.23933	24
3.24300	24
3.24667	24
3.25033	24
3.25400	24
3.25767	24
3.26133	25
3.26500	25
3.26867	25
3.27233	25
3.27600	26
3.27967	26
3.28333	26
3.28700	27
3.29067	27
3.29433	28
3.29800	28
3.30167	28
3.30533	29
3.30900	29
3.31267	29
3.31633	29
3.32000	30
3.32367	30
3.32733	30
3.33100	30
3.33467	30
3.33833	30
3.34200	30
3.34567	30
3.34933	30
3.35300	31
3.35667	30
3.36033	30
3.36400	30
3.36767	30
3.37133	30
3.37500	30
3.37867	29
3.38233	29
3.38600	29
3.38967	29
3.39333	29
3.39700	29
3.40067	28
3.40433	28
3.40800	28
3.41167	28
3.41533	27
3.41900	27
3.42267	27
3.42633	27
3.43000	28
3.43367	28
3.43733	28
3.44100	29
3.44467	29
3.44833	29
3.45200	29
3.45567	29
3.45933	30
3.46300	30
3.46667	30
3.47033	30
3.47400	30
3.47767	30
3.48133	29
3.48500	29
3.48867	28
3.49233	28
3.49600	28
3.49967	28
3.50333	28
3.50700	28
3.51067	27
3.51433	27
3.51800	27
3.52167	28
3.52533	28
3.52900	28
3.53267	28
3.53633	28
3.54000	29
3.54367	29
3.54733	30
3.55100	30
3.55467	30
3.55833	30
3.56200	30
3.56567	30
3.56933	30
3.57300	29
3.57667	29
3.58033	29
3.58400	29
3.58767	29
3.59133	29
3.59500	29
3.59867	29
3.60233	29
3.60600	29
3.60967	29
3.61333	29
3.61700	29
3.62067	29
3.62433	29
3.62800	29
3.63167	29
3.63533	29
3.63900	28
3.64267	29
3.64633	29
3.65000	29
3.65367	29
3.65733	29
3.66100	29
3.66467	28
3.66833	28
3.67200	28
3.67567	28
3.67933	29
3.68300	29
3.68667	29
3.69033	29
3.69400	29
3.69767	29
3.70133	29
3.70500	29
3.70867	29
3.71233	29
3.71600	29
3.71967	29
3.72333	30
3.72700	30
3.73067	30
3.73433	30
3.73800	30
3.74167	30
3.74533	30
3.74900	30
3.75267	30
3.75633	30
3.76000	30
3.76367	30
3.76733	30
3.77100	30
3.77467	30
3.77833	30
3.78200	30
3.78567	30
3.78933	30
3.79300	30
3.79667	30
3.80033	30
3.80400	30
3.80767	30
3.81133	30
3.81500	30
3.81867	29
3.82233	29
3.82600	29
3.82967	29
3.83333	29
3.83700	29
3.84067	28
3.84433	28
3.84800	28
3.85167	28
3.85533	28
3.85900	28
3.86267	28
3.86633	28
3.87000	28
3.87367	28
3.87733	28
3.88100	28
3.88467	28
3.88833	28
3.89200	29
3.89567	29
3.89933	29
3.90300	30
3.90667	30
3.91033	30
3.91400	30
3.91767	30
3.92133	30
3.92500	31
3.92867	31
3.93233	31
3.93600	30
3.93967	30
3.94333	30
3.94700	30
3.95067	30
3.95433	30
3.95800	30
3.96167	30
3.96533	30
3.96900	30
3.97267	30
3.97633	31
3.98000	31
3.98367	31
3.98733	31
3.99100	31
3.99467	31
3.99833	31

[Chromatogram (Ch3)]
Interval(msec)	220
# of Points	1091
Start Time(min)	0.002
End Time(min)	3.998
R.Time (min)	Intensity
0.00167	0
0.00533	0
0.00900	-0
0.01267	-0
0.01633	-0
0.02000	-1
0.02367	0
0.02733	1
0.03100	1
0.03467	3
0.03833	2
0.04200	0
0.04567	0
0.04933	-1
0.05300	-2
0.05667	0
0.06033	3
0.06400	4
0.06767	1
0.07133	0
0.07500	-1
0.07867	-1
0.08233	-2
0.08600	-2
0.08967	-1
0.09333	1
0.09700	2
0.10067	2
0.10433	3
0.10800	2
0.11167	3
0.11533	3
0.11900	4
0.12267	3
0.12633	5
0.13000	8
0.13367	8
0.13733	8
0.14100	5
0.14467	2
0.14833	2
0.15200	3
0.15567	2
0.15933	1
0.16300	1
0.16667	1
0.17033	1
0.17400	-0
0.17767	-1
0.18133	-2
0.18500	-2
0.18867	-2
0.19233	-4
0.19600	-4
0.19967	-3
0.20333	-1
0.20700	0
0.21067	2
0.21433	4
0.21800	4
0.22167	3
0.22533	2
0.22900	0
0.23267	-2
0.23633	-1
0.24000	0
0.24367	3
0.24733	3
0.25100	2
0.25467	-1
0.25833	-2
0.26200	-1
0.26567	0
0.26933	3
0.27300	3
0.27667	3
0.28033	2
0.28400	0
0.28767	1
0.29133	2
0.29500	2
0.29867	2
0.30233	1
0.30600	-1
0.30967	-1
0.31333	1
0.31700	0
0.32067	-0
0.32433	1
0.32800	1
0.33167	-1
0.33533	-3
0.33900	-3
0.34267	-1
0.34633	2
0.35000	3
0.35367	2
0.35733	-0
0.36100	-1
0.36467	1
0.36833	2
0.37200	3
0.37567	1
0.37933	-0
0.38300	-2
0.38667	-1
0.39033	-1
0.39400	-3
0.39767	-3
0.40133	-2
0.40500	-2
0.40867	-2
0.41233	-2
0.41600	-2
0.41967	-1
0.42333	-3
0.42700	-5
0.43067	-6
0.43433	-4
0.43800	-1
0.44167	1
0.44533	0
0.44900	-2
0.45267	-3
0.45633	-3
0.46000	-3
0.46367	-1
0.46733	1
0.47100	1
0.47467	1
0.47833	1
0.48200	2
0.48567	3
0.48933	3
0.49300	2
0.49667	-0
0.50033	-2
0.50400	-2
0.50767	0
0.51133	1
0.51500	0
0.51867	-1
0.52233	-4
0.52600	-5
0.52967	-7
0.53333	-8
0.53700	-8
0.54067	-8
0.54433	-10
0.54800	-9
0.55167	-7
0.55533	-6
0.55900	-6
0.56267	-6
0.56633	-4
0.57000	-0
0.57367	2
0.57733	3
0.58100	3
0.58467	3
0.58833	-0
0.59200	-1
0.59567	-1
0.59933	-1
0.60300	-1
0.60667	0
0.61033	0
0.61400	1
0.61767	2
0.62133	0
0.62500	-0
0.62867	0
0.63233	-2
0.63600	-2
0.63967	-1
0.64333	-3
0.64700	-3
0.65067	-2
0.65433	-0
0.65800	1
0.66167	3
0.66533	0
0.66900	-1
0.67267	1
0.67633	3
0.68000	5
0.68367	6
0.68733	6
0.69100	5
0.69467	5
0.69833	6
0.70200	6
0.70567	8
0.70933	8
0.71300	6
0.71667	5
0.72033	5
0.72400	5
0.72767	4
0.73133	4
0.73500	5
0.73867	5
0.74233	4
0.74600	2
0.74967	3
0.75333	5
0.75700	6
0.76067	3
0.76433	1
0.76800	2
0.77167	4
0.77533	5
0.77900	7
0.78267	7
0.78633	7
0.79000	7
0.79367	6
0.79733	5
0.80100	4
0.80467	4
0.80833	5
0.81200	6
0.81567	6
0.81933	5
0.82300	6
0.82667	7
0.83033	8
0.83400	9
0.83767	9
0.84133	8
0.84500	6
0.84867	4
0.85233	5
0.85600	5
0.85967	6
0.86333	7
0.86700	7
0.87067	6
0.87433	5
0.87800	5
0.88167	6
0.88533	6
0.88900	8
0.89267	8
0.89633	9
0.90000	8
0.90367	7
0.90733	8
0.91100	7
0.91467	7
0.91833	8
0.92200	11
0.92567	12
0.92933	11
0.93300	10
0.93667	7
0.94033	6
0.94400	5
0.94767	7
0.95133	7
0.95500	9
0.95867	10
0.96233	10
0.96600	9
0.96967	7
0.97333	9
0.97700	12
0.98067	15
0.98433	17
0.98800	17
0.99167	15
0.99533	13
0.99900	12
1.00267	11
1.00633	9
1.01000	5
1.01367	6
1.01733	6
1.02100	4
1.02467	2
1.02833	4
1.03200	4
1.03567	3
1.03933	5
1.04300	6
1.04667	6
1.05033	4
1.05400	4
1.05767	4
1.06133	3
1.06500	4
1.06867	7
1.07233	8
1.07600	8
1.07967	7
1.08333	6
1.08700	6
1.09067	6
1.09433	5
1.09800	2
1.10167	3
1.10533	6
1.10900	10
1.11267	11
1.11633	12
1.12000	12
1.12367	12
1.12733	10
1.13100	8
1.13467	9
1.13833	11
1.14200	12
1.14567	10
1.14933	7
1.15300	6
1.15667	8
1.16033	11
1.16400	13
1.16767	13
1.17133	12
1.17500	9
1.17867	8
1.18233	10
1.18600	10
1.18967	10
1.19333	9
1.19700	8
1.20067	8
1.20433	10
1.20800	11
1.21167	10
1.21533	9
1.21900	8
1.22267	7
1.22633	6
1.23000	5
1.23367	6
1.23733	6
1.24100	6
1.24467	9
1.24833	10
1.25200	10
1.25567	8
1.25933	5
1.26300	6
1.26667	8
1.27033	9
1.27400	10
1.27767	10
1.28133	9
1.28500	8
1.28867	7
1.29233	7
1.29600	8
1.29967	11
1.30333	12
1.30700	13
1.31067	10
1.31433	8
1.31800	8
1.32167	7
1.32533	7
1.32900	6
1.33267	4
1.33633	3
1.34000	5
1.34367	8
1.34733	11
1.35100	13
1.35467	14
1.35833	16
1.36200	15
1.36567	13
1.36933	11
1.37300	9
1.37667	7
1.38033	8
1.38400	9
1.38767	8
1.39133	5
1.39500	3
1.39867	4
1.40233	5
1.40600	7
1.40967	7
1.41333	5
1.41700	5
1.42067	5
1.42433	6
1.42800	7
1.43167	8
1.43533	11
1.43900	12
1.44267	9
1.44633	9
1.45000	10
1.45367	10
1.45733	11
1.46100	11
1.46467	13
1.46833	12
1.47200	11
1.47567	12
1.47933	12
1.48300	10
1.48667	8
1.49033	7
1.49400	7
1.49767	9
1.50133	8
1.50500	9
1.50867	9
1.51233	10
1.51600	9
1.51967	9
1.52333	9
1.52700	10
1.53067	10
1.53433	8
1.53800	8
1.54167	8
1.54533	8
1.54900	9
1.55267	11
1.55633	13
1.56000	14
1.56367	12
1.56733	13
1.57100	13
1.57467	8
1.57833	5
1.58200	4
1.58567	5
1.58933	6
1.59300	6
1.59667	5
1.60033	4
1.60400	5
1.60767	7
1.61133	10
1.61500	10
1.61867	10
1.62233	8
1.62600	7
1.62967	8
1.63333	9
1.63700	10
1.64067	14
1.64433	15
1.64800	16
1.65167	14
1.65533	13
1.65900	12
1.66267	12
1.66633	14
1.67000	14
1.67367	15
1.67733	18
1.68100	18
1.68467	19
1.68833	20
1.69200	20
1.69567	20
1.69933	19
1.70300	19
1.70667	19
1.71033	20
1.71400	21
1.71767	21
1.72133	22
1.72500	21
1.72867	22
1.73233	23
1.73600	22
1.73967	22
1.74333	24
1.74700	27
1.75067	26
1.75433	25
1.75800	22
1.76167	20
1.76533	21
1.76900	23
1.77267	24
1.77633	24
1.78000	24
1.78367	23
1.78733	22
1.79100	23
1.79467	25
1.79833	26
1.80200	28
1.80567	30
1.80933	30
1.81300	29
1.81667	29
1.82033	30
1.82400	31
1.82767	29
1.83133	28
1.83500	28
1.83867	28
1.84233	27
1.84600	27
1.84967	29
1.85333	31
1.85700	33
1.86067	34
1.86433	36
1.86800	40
1.87167	42
1.87533	43
1.87900	45
1.88267	42
1.88633	39
1.89000	39
1.89367	41
1.89733	39
1.90100	39
1.90467	42
1.90833	42
1.91200	43
1.91567	43
1.91933	45
1.92300	46
1.92667	47
1.93033	47
1.93400	45
1.93767	43
1.94133	43
1.94500	42
1.94867	43
1.95233	43
1.95600	45
1.95967	47
1.96333	48
1.96700	47
1.97067	45
1.97433	45
1.97800	45
1.98167	43
1.98533	43
1.98900	44
1.99267	46
1.99633	49
2.00000	51
2.00367	53
2.00733	57
2.01100	60
2.01467	61
2.01833	58
2.02200	58
2.02567	59
2.02933	58
2.03300	58
2.03667	60
2.04033	62
2.04400	64
2.04767	63
2.05133	62
2.05500	63
2.05867	65
2.06233	66
2.06600	66
2.06967	65
2.07333	66
2.07700	67
2.08067	69
2.08433	72
2.08800	75
2.09167	79
2.09533	80
2.09900	79
2.10267	79
2.10633	77
2.11000	75
2.11367	75
2.11733	76
2.12100	76
2.12467	76
2.12833	79
2.13200	82
2.13567	84
2.13933	85
2.14300	88
2.14667	91
2.15033	92
2.15400	94
2.15767	97
2.16133	98
2.16500	98
2.16867	98
2.17233	98
2.17600	98
2.17967	95
2.18333	94
2.18700	96
2.19067	99
2.19433	100
2.19800	102
2.20167	106
2.20533	108
2.20900	110
2.21267	112
2.21633	114
2.22000	117
2.22367	117
2.22733	117
2.23100	117
2.23467	118
2.23833	117
2.24200	118
2.24567	119
2.24933	121
2.25300	122
2.25667	122
2.26033	123
2.26400	125
2.26767	128
2.27133	130
2.27500	132
2.27867	134
2.28233	136
2.28600	135
2.28967	133
2.29333	133
2.29700	135
2.30067	140
2.30433	144
2.30800	148
2.31167	150
2.31533	150
2.31900	147
2.32267	146
2.32633	148
2.33000	151
2.33367	152
2.33733	157
2.34100	160
2.34467	164
2.34833	167
2.35200	169
2.35567	171
2.35933	173
2.36300	173
2.36667	173
2.37033	174
2.37400	174
2.37767	175
2.38133	178
2.38500	181
2.38867	182
2.39233	182
2.39600	185
2.39967	190
2.40333	194
2.40700	200
2.41067	202
2.41433	205
2.41800	208
2.42167	211
2.42533	214
2.42900	214
2.43267	215
2.43633	216
2.44000	222
2.44367	272
2.44733	399
2.45100	540
2.45467	661
2.45833	740
2.46200	761
2.46567	743
2.46933	714
2.47300	692
2.47667	680
2.48033	676
2.48400	666
2.48767	641
2.49133	607
2.49500	573
2.49867	540
2.50233	516
2.50600	499
2.50967	491
2.51333	489
2.51700	494
2.52067	503
2.52433	517
2.52800	533
2.53167	548
2.53533	557
2.53900	556
2.54267	546
2.54633	530
2.55000	510
2.55367	488
2.55733	465
2.56100	444
2.56467	428
2.56833	416
2.57200	408
2.57567	404
2.57933	402
2.58300	403
2.58667	403
2.59033	401
2.59400	398
2.59767	393
2.60133	386
2.60500	376
2.60867	364
2.61233	350
2.61600	336
2.61967	320
2.62333	306
2.62700	293
2.63067	284
2.63433	280
2.63800	279
2.64167	281
2.64533	285
2.64900	290
2.65267	298
2.65633	305
2.66000	309
2.66367	309
2.66733	308
2.67100	309
2.67467	307
2.67833	305
2.68200	303
2.68567	300
2.68933	295
2.69300	288
2.69667	283
2.70033	281
2.70400	281
2.70767	280
2.71133	278
2.71500	278
2.71867	277
2.72233	276
2.72600	275
2.72967	275
2.73333	274
2.73700	275
2.74067	276
2.74433	278
2.74800	281
2.75167	282
2.75533	284
2.75900	285
2.76267	286
2.76633	287
2.77000	287
2.77367	287
2.77733	287
2.78100	285
2.78467	285
2.78833	286
2.79200	288
2.79567	290
2.79933	292
2.80300	294
2.80667	292
2.81033	292
2.81400	296
2.81767	308
2.82133	341
2.82500	418
2.82867	580
2.83233	889
2.83600	1414
2.83967	2217
2.84333	3329
2.84700	4750
2.85067	6428
2.85433	8274
2.85800	10156
2.86167	11930
2.86533	13457
2.86900	14624
2.87267	15363
2.87633	15662
2.88000	15544
2.88367	15069
2.88733	14322
2.89100	13392
2.89467	12353
2.89833	11271
2.90200	10197
2.90567	9160
2.90933	8185
2.91300	7285
2.91667	6462
2.92033	5717
2.92400	5048
2.92767	4451
2.93133	3924
2.93500	3460
2.93867	3050
2.94233	2691
2.94600	2376
2.94967	2103
2.95333	1866
2.95700	1659
2.96067	1480
2.96433	1322
2.96800	1182
2.97167	1059
2.97533	955
2.97900	865
2.98267	787
2.98633	718
2.99000	659
2.99367	608
2.99733	565
3.00100	527
3.00467	495
3.00833	468
3.01200	442
3.01567	418
3.01933	397
3.02300	380
3.02667	366
3.03033	353
3.03400	344
3.03767	334
3.04133	324
3.04500	314
3.04867	306
3.05233	299
3.05600	292
3.05967	287
3.06333	283
3.06700	281
3.07067	280
3.07433	277
3.07800	275
3.08167	272
3.08533	272
3.08900	271
3.09267	268
3.09633	265
3.10000	263
3.10367	260
3.10733	258
3.11100	257
3.11467	257
3.11833	257
3.12200	257
3.12567	256
3.12933	254
3.13300	254
3.13667	253
3.14033	252
3.14400	250
3.14767	251
3.15133	251
3.15500	251
3.15867	251
3.16233	251
3.16600	247
3.16967	236
3.17333	227
3.17700	228
3.18067	239
3.18433	260
3.18800	287
3.19167	317
3.19533	347
3.19900	377
3.20267	406
3.20633	433
3.21000	456
3.21367	478
3.21733	498
3.22100	519
3.22467	536
3.22833	550
3.23200	563
3.23567	571
3.23933	582
3.24300	593
3.24667	602
3.25033	611
3.25400	616
3.25767	621
3.26133	628
3.26500	634
3.26867	637
3.27233	641
3.27600	641
3.27967	643
3.28333	647
3.28700	651
3.29067	654
3.29433	653
3.29800	654
3.30167	659
3.30533	665
3.30900	667
3.31267	666
3.31633	667
3.32000	671
3.32367	674
3.32733	678
3.33100	681
3.33467	685
3.33833	690
3.34200	695
3.34567	697
3.34933	699
3.35300	702
3.35667	707
3.36033	710
3.36400	712
3.36767	717
3.37133	721
3.37500	725
3.37867	728
3.38233	734
3.38600	736
3.38967	736
3.39333	737
3.39700	738
3.40067	739
3.40433	742
3.40800	742
3.41167	743
3.41533	744
3.41900	744
3.42267	744
3.42633	743
3.43000	741
3.43367	739
3.43733	737
3.44100	734
3.44467	734
3.44833	732
3.45200	729
3.45567	729
3.45933	728
3.46300	726
3.46667	722
3.47033	720
3.47400	718
3.47767	715
3.48133	712
3.48500	711
3.48867	710
3.49233	707
3.49600	705
3.49967	705
3.50333	706
3.50700	706
3.51067	704
3.51433	702
3.51800	699
3.52167	694
3.52533	691
3.52900	690
3.53267	688
3.53633	686
3.54000	684
3.54367	684
3.54733	682
3.55100	680
3.55467	677
3.55833	675
3.56200	671
3.56567	666
3.56933	663
3.57300	664
3.57667	665
3.58033	663
3.58400	662
3.58767	662
3.59133	660
3.59500	657
3.59867	656
3.60233	655
3.60600	654
3.60967	653
3.61333	653
3.61700	653
3.62067	653
3.62433	654
3.62800	653
3.63167	651
3.63533	651
3.63900	651
3.64267	647
3.64633	641
3.65000	638
3.65367	636
3.65733	635
3.66100	636
3.66467	640
3.66833	643
3.67200	644
3.67567	646
3.67933	648
3.68300	648
3.68667	646
3.69033	644
3.69400	642
3.69767	640
3.70133	639
3.70500	638
3.70867	637
3.71233	635
3.71600	636
3.71967	639
3.72333	641
3.72700	641
3.73067	641
3.73433	639
3.73800	639
3.74167	640
3.74533	640
3.74900	640
3.75267	640
3.75633	640
3.76000	640
3.76367	638
3.76733	638
3.77100	639
3.77467	638
3.77833	636
3.78200	633
3.78567	632
3.78933	632
3.79300	632
3.79667	631
3.80033	632
3.80400	631
3.80767	631
3.81133	632
3.81500	633
3.81867	633
3.82233	633
3.82600	631
3.82967	628
3.83333	625
3.83700	623
3.84067	622
3.84433	622
3.84800	619
3.85167	620
3.85533	620
3.85900	620
3.86267	619
3.86633	617
3.87000	614
3.87367	611
3.87733	609
3.88100	610
3.88467	611
3.88833	609
3.89200	606
3.89567	605
3.89933	605
3.90300	605
3.90667	603
3.91033	601
3.91400	602
3.91767	600
3.92133	599
3.92500	599
3.92867	598
3.93233	598
3.93600	596
3.93967	594
3.94333	592
3.94700	591
3.95067	591
3.95433	588
3.95800	584
3.96167	582
3.96533	581
3.96900	578
3.97267	577
3.97633	577
3.98000	577
3.98367	577
3.98733	576
3.99100	575
3.99467	571
3.99833	565

[Status Trace (Column Oven Temperature)]
Interval(msec)	1000
# of Points	240
Start Time(min)	0.003
End Time(min)	3.986
Intensity Units	
Intensity Multiplier	1
R.Time (min)	Intensity
0.00267	35.06
0.01933	35.06
0.03600	35.06
0.05267	35.06
0.06933	35.05
0.08600	35.05
0.10267	35.05
0.11933	35.05
0.13600	35.05
0.15267	35.05
0.16933	35.05
0.18600	35.06
0.20267	35.05
0.21933	35.05
0.23600	35.04
0.25267	35.05
0.26933	35.04
0.28600	35.04
0.30267	35.03
0.31933	35.02
0.33600	35.03
0.35267	35.02
0.36933	35.02
0.38600	35.03
0.40267	35.03
0.41933	35.02
0.43600	35.02
0.45267	35.00
0.46933	35.00
0.48600	35.00
0.50267	35.01
0.51933	34.99
0.53600	34.99
0.55267	34.98
0.56933	34.97
0.58600	34.96
0.60267	34.96
0.61933	34.96
0.63600	34.96
0.65267	34.97
0.66933	34.99
0.68600	35.01
0.70267	35.01
0.71933	35.01
0.73600	35.01
0.75267	35.01
0.76933	35.02
0.78600	35.00
0.80267	35.00
0.81933	34.99
0.83600	34.98
0.85267	34.98
0.86933	34.98
0.88600	34.97
0.90267	34.96
0.91933	34.98
0.93600	34.97
0.95267	34.98
0.96933	35.00
0.98600	35.02
1.00267	35.03
1.01933	35.04
1.03600	35.04
1.05267	35.04
1.06933	35.04
1.08600	35.04
1.10267	35.04
1.11933	35.03
1.13600	35.02
1.15267	35.02
1.16933	35.01
1.18600	35.00
1.20267	35.00
1.21933	35.01
1.23600	35.00
1.25267	35.00
1.26933	34.99
1.28600	35.00
1.30267	35.00
1.31933	35.00
1.33600	35.00
1.35267	35.01
1.36933	35.00
1.38600	35.01
1.40267	35.01
1.41933	35.00
1.43600	34.99
1.45267	34.99
1.46933	34.99
1.48600	34.98
1.50267	34.98
1.51933	34.98
1.53600	34.97
1.55267	34.97
1.56933	34.98
1.58600	35.00
1.60267	35.05
1.61933	35.16
1.63600	35.32
1.65267	35.54
1.66933	35.85
1.68600	36.20
1.70267	36.55
1.71933	36.90
1.73600	37.24
1.75267	37.57
1.76933	37.91
1.78600	38.26
1.80267	38.57
1.81933	38.89
1.83600	39.23
1.85267	39.55
1.86933	39.88
1.88600	40.21
1.90267	40.54
1.91933	40.88
1.93600	41.21
1.95267	41.53
1.96933	41.86
1.98600	42.18
2.00267	42.50
2.01933	42.84
2.03600	43.15
2.05267	43.47
2.06933	43.77
2.08600	44.10
2.10267	44.43
2.11933	44.74
2.13600	45.07
2.15267	45.40
2.16933	45.72
2.18600	46.06
2.20267	46.39
2.21933	46.73
2.23600	47.10
2.25267	47.40
2.26933	47.74
2.28600	48.08
2.30267	48.41
2.31933	48.73
2.33600	49.05
2.35267	49.33
2.36933	49.57
2.38600	49.70
2.40267	49.71
2.41933	49.71
2.43600	49.72
2.45267	49.73
2.46933	49.73
2.48600	49.76
2.50267	49.76
2.51933	49.79
2.53600	49.79
2.55267	49.82
2.56933	49.81
2.58600	49.81
2.60267	49.82
2.61933	49.82
2.63600	49.81
2.65267	49.82
2.66933	49.83
2.68600	49.84
2.70267	49.85
2.71933	49.86
2.73600	49.85
2.75267	49.86
2.76933	49.86
2.78600	49.86
2.80267	49.86
2.81933	49.86
2.83600	49.87
2.85267	49.89
2.86933	49.88
2.88600	49.89
2.90267	49.90
2.91933	49.92
2.93600	49.94
2.95267	49.97
2.96933	49.99
2.98600	50.00
3.00267	50.01
3.01933	50.02
3.03600	50.05
3.05267	50.05
3.06933	50.06
3.08600	50.07
3.10267	50.07
3.11933	50.08
3.13600	50.08
3.15267	50.08
3.16933	50.09
3.18600	50.09
3.20267	50.10
3.21933	50.10
3.23600	50.10
3.25267	50.10
3.26933	50.10
3.28600	50.09
3.30267	50.06
3.31933	50.05
3.33600	50.04
3.35267	50.03
3.36933	50.02
3.38600	50.03
3.40267	50.04
3.41933	50.04
3.43600	50.05
3.45267	50.04
3.46933	50.04
3.48600	50.05
3.50267	50.05
3.51933	50.05
3.53600	50.04
3.55267	50.03
3.56933	50.04
3.58600	50.05
3.60267	50.04
3.61933	50.06
3.63600	50.07
3.65267	50.07
3.66933	50.08
3.68600	50.08
3.70267	50.08
3.71933	50.07
3.73600	50.06
3.75267	50.06
3.76933	50.06
3.78600	50.05
3.80267	50.05
3.81933	50.05
3.83600	50.06
3.85267	50.07
3.86933	50.07
3.88600	50.08
3.90267	50.07
3.91933	50.06
3.93600	50.07
3.95267	50.08
3.96933	50.07
3.98600	50.06

[Status Trace (Injection Unit Temperature)]
Interval(msec)	1000
# of Points	240
Start Time(min)	0.003
End Time(min)	3.986
Intensity Units	
Intensity Multiplier	1
R.Time (min)	Intensity
0.00267	99.98
0.01933	99.98
0.03600	99.98
0.05267	99.98
0.06933	99.98
0.08600	99.98
0.10267	99.98
0.11933	99.98
0.13600	99.98
0.15267	99.98
0.16933	99.98
0.18600	99.98
0.20267	99.98
0.21933	99.98
0.23600	99.98
0.25267	99.97
0.26933	99.98
0.28600	99.98
0.30267	99.98
0.31933	99.98
0.33600	99.98
0.35267	99.98
0.36933	99.98
0.38600	99.98
0.40267	99.98
0.41933	99.98
0.43600	99.98
0.45267	99.98
0.46933	99.98
0.48600	99.98
0.50267	99.98
0.51933	99.98
0.53600	99.98
0.55267	99.98
0.56933	99.98
0.58600	99.98
0.60267	99.98
0.61933	99.98
0.63600	99.98
0.65267	99.98
0.66933	99.98
0.68600	99.98
0.70267	99.98
0.71933	99.98
0.73600	99.98
0.75267	99.98
0.76933	99.98
0.78600	99.98
0.80267	99.98
0.81933	99.98
0.83600	99.98
0.85267	99.97
0.86933	99.98
0.88600	99.99
0.90267	99.98
0.91933	99.98
0.93600	99.98
0.95267	99.98
0.96933	99.98
0.98600	99.98
1.00267	99.98
1.01933	99.98
1.03600	99.98
1.05267	99.98
1.06933	99.98
1.08600	99.98
1.10267	99.98
1.11933	99.97
1.13600	99.98
1.15267	99.98
1.16933	99.98
1.18600	99.98
1.20267	99.98
1.21933	99.98
1.23600	99.98
1.25267	99.98
1.26933	99.98
1.28600	99.98
1.30267	99.98
1.31933	99.98
1.33600	99.98
1.35267	99.98
1.36933	99.98
1.38600	99.98
1.40267	99.98
1.41933	99.99
1.43600	99.98
1.45267	99.98
1.46933	99.98
1.48600	99.98
1.50267	99.98
1.51933	99.97
1.53600	99.98
1.55267	99.98
1.56933	99.98
1.58600	99.98
1.60267	99.98
1.61933	99.98
1.63600	99.98
1.65267	99.99
1.66933	99.98
1.68600	99.98
1.70267	99.98
1.71933	99.98
1.73600	99.98
1.75267	99.98
1.76933	99.99
1.78600	99.98
1.80267	99.98
1.81933	99.98
1.83600	99.98
1.85267	99.98
1.86933	99.99
1.88600	99.98
1.90267	99.98
1.91933	99.98
1.93600	99.99
1.95267	99.98
1.96933	99.98
1.98600	99.98
2.00267	99.98
2.01933	99.98
2.03600	99.98
2.05267	99.97
2.06933	99.97
2.08600	99.98
2.10267	99.98
2.11933	99.97
2.13600	99.97
2.15267	99.97
2.16933	99.97
2.18600	99.97
2.20267	99.97
2.21933	99.97
2.23600	99.97
2.25267	99.97
2.26933	99.97
2.28600	99.97
2.30267	99.97
2.31933	99.97
2.33600	99.97
2.35267	99.97
2.36933	99.97
2.38600	99.97
2.40267	99.97
2.41933	99.97
2.43600	99.97
2.45267	99.97
2.46933	99.97
2.48600	99.97
2.50267	99.97
2.51933	99.97
2.53600	99.97
2.55267	99.97
2.56933	99.98
2.58600	99.98
2.60267	99.97
2.61933	99.98
2.63600	99.98
2.65267	99.98
2.66933	99.98
2.68600	99.99
2.70267	99.98
2.71933	99.98
2.73600	99.99
2.75267	99.99
2.76933	99.99
2.78600	99.99
2.80267	99.99
2.81933	99.99
2.83600	99.99
2.85267	100.00
2.86933	99.99
2.88600	100.00
2.90267	100.00
2.91933	100.00
2.93600	100.00
2.95267	100.01
2.96933	100.01
2.98600	100.01
3.00267	100.01
3.01933	100.01
3.03600	100.01
3.05267	100.01
3.06933	100.02
3.08600	100.02
3.10267	100.02
3.11933	100.02
3.13600	100.02
3.15267	100.01
3.16933	100.02
3.18600	100.02
3.20267	100.02
3.21933	100.02
3.23600	100.02
3.25267	100.02
3.26933	100.03
3.28600	100.03
3.30267	100.02
3.31933	100.03
3.33600	100.04
3.35267	100.03
3.36933	100.03
3.38600	100.03
3.40267	100.04
3.41933	100.04
3.43600	100.04
3.45267	100.04
3.46933	100.04
3.48600	100.04
3.50267	100.04
3.51933	100.04
3.53600	100.04
3.55267	100.04
3.56933	100.04
3.58600	100.04
3.60267	100.04
3.61933	100.04
3.63600	100.04
3.65267	100.04
3.66933	100.04
3.68600	100.04
3.70267	100.05
3.71933	100.05
3.73600	100.04
3.75267	100.05
3.76933	100.04
3.78600	100.04
3.80267	100.04
3.81933	100.04
3.83600	100.04
3.85267	100.05
3.86933	100.05
3.88600	100.04
3.90267	100.05
3.91933	100.05
3.93600	100.04
3.95267	100.04
3.96933	100.04
3.98600	100.05

[Status Trace (Carrier Gas Pressure)]
Interval(msec)	1000
# of Points	240
Start Time(min)	0.003
End Time(min)	3.986
Intensity Units	
Intensity Multiplier	1
R.Time (min)	Intensity
0.00267	58.00
0.01933	56.29
0.03600	56.37
0.05267	58.66
0.06933	59.86
0.08600	58.27
0.10267	57.97
0.11933	58.01
0.13600	58.01
0.15267	58.01
0.16933	58.00
0.18600	58.00
0.20267	58.00
0.21933	58.00
0.23600	58.00
0.25267	58.00
0.26933	58.00
0.28600	58.00
0.30267	58.00
0.31933	58.00
0.33600	58.00
0.35267	58.00
0.36933	58.00
0.38600	58.00
0.40267	58.00
0.41933	58.00
0.43600	58.00
0.45267	58.00
0.46933	58.00
0.48600	58.00
0.50267	58.00
0.51933	58.00
0.53600	58.00
0.55267	58.00
0.56933	58.00
0.58600	58.00
0.60267	58.00
0.61933	58.00
0.63600	58.00
0.65267	58.00
0.66933	58.00
0.68600	58.00
0.70267	58.00
0.71933	58.00
0.73600	58.00
0.75267	58.00
0.76933	58.00
0.78600	58.00
0.80267	58.00
0.81933	58.00
0.83600	58.00
0.85267	58.00
0.86933	58.00
0.88600	58.00
0.90267	58.00
0.91933	58.00
0.93600	58.00
0.95267	58.00
0.96933	58.00
0.98600	58.00
1.00267	58.00
1.01933	58.00
1.03600	58.00
1.05267	58.00
1.06933	58.00
1.08600	58.00
1.10267	58.00
1.11933	58.00
1.13600	58.00
1.15267	58.00
1.16933	58.00
1.18600	58.00
1.20267	58.00
1.21933	58.00
1.23600	58.00
1.25267	58.00
1.26933	58.00
1.28600	58.00
1.30267	58.00
1.31933	58.00
1.33600	58.00
1.35267	58.00
1.36933	58.00
1.38600	58.00
1.40267	58.00
1.41933	58.00
1.43600	58.00
1.45267	58.00
1.46933	58.00
1.48600	58.00
1.50267	58.00
1.51933	58.00
1.53600	58.00
1.55267	58.00
1.56933	58.00
1.58600	58.00
1.60267	58.00
1.61933	58.00
1.63600	58.00
1.65267	58.00
1.66933	58.01
1.68600	58.01
1.70267	58.00
1.71933	58.00
1.73600	58.00
1.75267	58.00
1.76933	58.00
1.78600	58.00
1.80267	58.00
1.81933	58.00
1.83600	58.00
1.85267	58.00
1.86933	58.00
1.88600	58.00
1.90267	58.00
1.91933	58.00
1.93600	58.00
1.95267	58.00
1.96933	58.00
1.98600	58.00
2.00267	58.00
2.01933	58.00
2.03600	58.00
2.05267	58.00
2.06933	58.00
2.08600	58.00
2.10267	58.00
2.11933	58.00
2.13600	58.00
2.15267	58.00
2.16933	58.00
2.18600	58.00
2.20267	58.00
2.21933	58.00
2.23600	58.00
2.25267	58.00
2.26933	58.00
2.28600	58.00
2.30267	58.00
2.31933	58.00
2.33600	58.00
2.35267	58.00
2.36933	58.00
2.38600	57.99
2.40267	57.99
2.41933	58.00
2.43600	58.00
2.45267	58.00
2.46933	58.00
2.48600	58.00
2.50267	57.96
2.51933	58.03
2.53600	57.99
2.55267	58.00
2.56933	58.00
2.58600	58.00
2.60267	58.00
2.61933	58.00
2.63600	58.00
2.65267	58.00
2.66933	58.00
2.68600	58.00
2.70267	58.00
2.71933	58.00
2.73600	58.00
2.75267	58.00
2.76933	58.00
2.78600	58.00
2.80267	58.00
2.81933	58.00
2.83600	58.00
2.85267	58.00
2.86933	58.00
2.88600	58.00
2.90267	58.00
2.91933	58.00
2.93600	58.00
2.95267	58.00
2.96933	58.00
2.98600	58.00
3.00267	58.00
3.01933	58.00
3.03600	58.00
3.05267	58.00
3.06933	58.00
3.08600	58.00
3.10267	58.00
3.11933	58.00
3.13600	58.00
3.15267	58.00
3.16933	58.00
3.18600	58.00
3.20267	58.00
3.21933	58.00
3.23600	58.00
3.25267	58.00
3.26933	58.00
3.28600	58.00
3.30267	58.00
3.31933	58.00
3.33600	58.00
3.35267	58.00
3.36933	58.00
3.38600	58.00
3.40267	58.00
3.41933	58.00
3.43600	58.00
3.45267	58.00
3.46933	58.00
3.48600	58.00
3.50267	58.00
3.51933	58.00
3.53600	58.00
3.55267	58.00
3.56933	58.00
3.58600	58.00
3.60267	58.00
3.61933	58.00
3.63600	58.00
3.65267	58.00
3.66933	58.00
3.68600	58.00
3.70267	58.00
3.71933	58.00
3.73600	58.00
3.75267	58.00
3.76933	58.00
3.78600	58.00
3.80267	58.00
3.81933	58.00
3.83600	58.00
3.85267	58.00
3.86933	58.00
3.88600	58.00
3.90267	58.00
3.91933	58.00
3.93600	58.00
3.95267	58.00
3.96933	58.00
3.98600	58.00

[Status Trace (Carrier Gas Flow)]
Interval(msec)	1000
# of Points	240
Start Time(min)	0.003
End Time(min)	3.986
Intensity Units	
Intensity Multiplier	1
R.Time (min)	Intensity
0.00267	34.52
0.01933	34.57
0.03600	34.54
0.05267	34.55
0.06933	34.50
0.08600	34.51
0.10267	34.52
0.11933	34.52
0.13600	34.51
0.15267	34.52
0.16933	34.52
0.18600	34.52
0.20267	34.52
0.21933	34.52
0.23600	34.52
0.25267	34.52
0.26933	34.52
0.28600	34.52
0.30267	34.52
0.31933	34.52
0.33600	34.51
0.35267	34.52
0.36933	34.52
0.38600	34.52
0.40267	34.52
0.41933	34.52
0.43600	34.52
0.45267	34.52
0.46933	34.51
0.48600	34.52
0.50267	34.52
0.51933	34.52
0.53600	34.52
0.55267	34.52
0.56933	34.52
0.58600	34.52
0.60267	34.52
0.61933	34.52
0.63600	34.52
0.65267	34.52
0.66933	34.52
0.68600	34.52
0.70267	34.52
0.71933	34.52
0.73600	34.52
0.75267	34.52
0.76933	34.51
0.78600	34.52
0.80267	34.52
0.81933	34.52
0.83600	34.52
0.85267	34.52
0.86933	34.52
0.88600	34.51
0.90267	34.52
0.91933	34.52
0.93600	34.52
0.95267	34.51
0.96933	34.52
0.98600	34.52
1.00267	34.52
1.01933	34.52
1.03600	34.52
1.05267	34.52
1.06933	34.51
1.08600	34.51
1.10267	34.52
1.11933	34.52
1.13600	34.52
1.15267	34.52
1.16933	34.52
1.18600	34.52
1.20267	34.52
1.21933	34.52
1.23600	34.52
1.25267	34.52
1.26933	34.52
1.28600	34.52
1.30267	34.52
1.31933	34.52
1.33600	34.51
1.35267	34.52
1.36933	34.52
1.38600	34.52
1.40267	34.52
1.41933	34.53
1.43600	34.53
1.45267	34.52
1.46933	34.52
1.48600	34.51
1.50267	34.52
1.51933	34.52
1.53600	34.51
1.55267	34.51
1.56933	34.52
1.58600	34.51
1.60267	34.52
1.61933	34.52
1.63600	34.52
1.65267	34.52
1.66933	34.51
1.68600	34.52
1.70267	34.52
1.71933	34.53
1.73600	34.51
1.75267	34.52
1.76933	34.52
1.78600	34.51
1.80267	34.52
1.81933	34.52
1.83600	34.52
1.85267	34.52
1.86933	34.52
1.88600	34.52
1.90267	34.52
1.91933	34.52
1.93600	34.52
1.95267	34.52
1.96933	34.52
1.98600	34.51
2.00267	34.52
2.01933	34.52
2.03600	34.52
2.05267	34.52
2.06933	34.52
2.08600	34.52
2.10267	34.52
2.11933	34.52
2.13600	34.52
2.15267	34.52
2.16933	34.52
2.18600	34.52
2.20267	34.52
2.21933	34.52
2.23600	34.52
2.25267	34.52
2.26933	34.52
2.28600	34.51
2.30267	34.52
2.31933	34.52
2.33600	34.52
2.35267	34.52
2.36933	34.52
2.38600	34.53
2.40267	34.51
2.41933	34.52
2.43600	34.52
2.45267	34.52
2.46933	34.52
2.48600	34.52
2.50267	34.68
2.51933	34.52
2.53600	34.52
2.55267	34.52
2.56933	34.52
2.58600	34.51
2.60267	34.52
2.61933	34.52
2.63600	34.52
2.65267	34.52
2.66933	34.52
2.68600	34.52
2.70267	34.53
2.71933	34.52
2.73600	34.52
2.75267	34.52
2.76933	34.52
2.78600	34.51
2.80267	34.51
2.81933	34.52
2.83600	34.52
2.85267	34.51
2.86933	34.52
2.88600	34.52
2.90267	34.52
2.91933	34.52
2.93600	34.52
2.95267	34.52
2.96933	34.51
2.98600	34.52
3.00267	34.52
3.01933	34.52
3.03600	34.52
3.05267	34.52
3.06933	34.52
3.08600	34.52
3.10267	34.52
3.11933	34.52
3.13600	34.52
3.15267	34.52
3.16933	34.52
3.18600	34.52
3.20267	34.52
3.21933	34.52
3.23600	34.52
3.25267	34.52
3.26933	34.52
3.28600	34.52
3.30267	34.52
3.31933	34.51
3.33600	34.52
3.35267	34.52
3.36933	34.52
3.38600	34.52
3.40267	34.51
3.41933	34.52
3.43600	34.52
3.45267	34.52
3.46933	34.51
3.48600	34.52
3.50267	34.52
3.51933	34.51
3.53600	34.51
3.55267	34.52
3.56933	34.52
3.58600	34.52
3.60267	34.52
3.61933	34.52
3.63600	34.52
3.65267	34.52
3.66933	34.52
3.68600	34.52
3.70267	34.52
3.71933	34.52
3.73600	34.52
3.75267	34.52
3.76933	34.52
3.78600	34.52
3.80267	34.52
3.81933	34.52
3.83600	34.52
3.85267	34.52
3.86933	34.51
3.88600	34.52
3.90267	34.52
3.91933	34.52
3.93600	34.51
3.95267	34.52
3.96933	34.52
3.98600	34.52

[Status Trace (Column Flow)]
Interval(msec)	1000
# of Points	240
Start Time(min)	0.003
End Time(min)	3.986
Intensity Units	
Intensity Multiplier	1
R.Time (min)	Intensity
0.00267	5.51
0.01933	5.31
0.03600	5.32
0.05267	5.59
0.06933	5.73
0.08600	5.54
0.10267	5.51
0.11933	5.51
0.13600	5.51
0.15267	5.51
0.16933	5.51
0.18600	5.51
0.20267	5.51
0.21933	5.51
0.23600	5.51
0.25267	5.51
0.26933	5.51
0.28600	5.51
0.30267	5.51
0.31933	5.51
0.33600	5.51
0.35267	5.51
0.36933	5.51
0.38600	5.51
0.40267	5.51
0.41933	5.51
0.43600	5.51
0.45267	5.51
0.46933	5.51
0.48600	5.51
0.50267	5.51
0.51933	5.51
0.53600	5.51
0.55267	5.51
0.56933	5.51
0.58600	5.51
0.60267	5.51
0.61933	5.51
0.63600	5.51
0.65267	5.51
0.66933	5.51
0.68600	5.51
0.70267	5.51
0.71933	5.51
0.73600	5.51
0.75267	5.51
0.76933	5.51
0.78600	5.51
0.80267	5.51
0.81933	5.51
0.83600	5.51
0.85267	5.51
0.86933	5.51
0.88600	5.51
0.90267	5.51
0.91933	5.51
0.93600	5.51
0.95267	5.51
0.96933	5.51
0.98600	5.51
1.00267	5.51
1.01933	5.51
1.03600	5.51
1.05267	5.51
1.06933	5.51
1.08600	5.51
1.10267	5.51
1.11933	5.51
1.13600	5.51
1.15267	5.51
1.16933	5.51
1.18600	5.51
1.20267	5.51
1.21933	5.51
1.23600	5.51
1.25267	5.51
1.26933	5.51
1.28600	5.51
1.30267	5.51
1.31933	5.51
1.33600	5.51
1.35267	5.51
1.36933	5.51
1.38600	5.51
1.40267	5.51
1.41933	5.51
1.43600	5.51
1.45267	5.51
1.46933	5.51
1.48600	5.51
1.50267	5.51
1.51933	5.51
1.53600	5.51
1.55267	5.51
1.56933	5.51
1.58600	5.51
1.60267	5.51
1.61933	5.51
1.63600	5.50
1.65267	5.50
1.66933	5.49
1.68600	5.47
1.70267	5.46
1.71933	5.45
1.73600	5.44
1.75267	5.43
1.76933	5.42
1.78600	5.41
1.80267	5.40
1.81933	5.39
1.83600	5.38
1.85267	5.37
1.86933	5.36
1.88600	5.35
1.90267	5.34
1.91933	5.33
1.93600	5.32
1.95267	5.31
1.96933	5.30
1.98600	5.29
2.00267	5.28
2.01933	5.27
2.03600	5.26
2.05267	5.26
2.06933	5.25
2.08600	5.24
2.10267	5.23
2.11933	5.22
2.13600	5.21
2.15267	5.20
2.16933	5.19
2.18600	5.18
2.20267	5.17
2.21933	5.16
2.23600	5.15
2.25267	5.14
2.26933	5.13
2.28600	5.12
2.30267	5.11
2.31933	5.11
2.33600	5.10
2.35267	5.09
2.36933	5.08
2.38600	5.08
2.40267	5.08
2.41933	5.08
2.43600	5.08
2.45267	5.08
2.46933	5.08
2.48600	5.08
2.50267	5.07
2.51933	5.08
2.53600	5.07
2.55267	5.08
2.56933	5.07
2.58600	5.07
2.60267	5.07
2.61933	5.07
2.63600	5.08
2.65267	5.07
2.66933	5.07
2.68600	5.07
2.70267	5.07
2.71933	5.07
2.73600	5.07
2.75267	5.07
2.76933	5.07
2.78600	5.07
2.80267	5.07
2.81933	5.07
2.83600	5.07
2.85267	5.07
2.86933	5.07
2.88600	5.07
2.90267	5.07
2.91933	5.07
2.93600	5.07
2.95267	5.07
2.96933	5.07
2.98600	5.07
3.00267	5.07
3.01933	5.07
3.03600	5.07
3.05267	5.07
3.06933	5.07
3.08600	5.07
3.10267	5.07
3.11933	5.07
3.13600	5.07
3.15267	5.07
3.16933	5.07
3.18600	5.07
3.20267	5.07
3.21933	5.07
3.23600	5.07
3.25267	5.07
3.26933	5.07
3.28600	5.07
3.30267	5.07
3.31933	5.07
3.33600	5.07
3.35267	5.07
3.36933	5.07
3.38600	5.07
3.40267	5.07
3.41933	5.07
3.43600	5.07
3.45267	5.07
3.46933	5.07
3.48600	5.07
3.50267	5.07
3.51933	5.07
3.53600	5.07
3.55267	5.07
3.56933	5.07
3.58600	5.07
3.60267	5.07
3.61933	5.07
3.63600	5.07
3.65267	5.07
3.66933	5.07
3.68600	5.07
3.70267	5.07
3.71933	5.07
3.73600	5.07
3.75267	5.07
3.76933	5.07
3.78600	5.07
3.80267	5.07
3.81933	5.07
3.83600	5.07
3.85267	5.07
3.86933	5.07
3.88600	5.07
3.90267	5.07
3.91933	5.07
3.93600	5.07
3.95267	5.07
3.96933	5.07
3.98600	5.07

[Status Trace (Linear Velocity)]
Interval(msec)	1000
# of Points	240
Start Time(min)	0.003
End Time(min)	3.986
Intensity Units	
Intensity Multiplier	1
R.Time (min)	Intensity
0.00267	39.01
0.01933	37.89
0.03600	37.94
0.05267	39.44
0.06933	40.23
0.08600	39.19
0.10267	38.99
0.11933	39.01
0.13600	39.02
0.15267	39.01
0.16933	39.01
0.18600	39.01
0.20267	39.01
0.21933	39.01
0.23600	39.01
0.25267	39.01
0.26933	39.01
0.28600	39.01
0.30267	39.01
0.31933	39.01
0.33600	39.01
0.35267	39.01
0.36933	39.01
0.38600	39.01
0.40267	39.01
0.41933	39.01
0.43600	39.01
0.45267	39.01
0.46933	39.01
0.48600	39.02
0.50267	39.01
0.51933	39.01
0.53600	39.02
0.55267	39.02
0.56933	39.02
0.58600	39.02
0.60267	39.02
0.61933	39.02
0.63600	39.02
0.65267	39.02
0.66933	39.02
0.68600	39.01
0.70267	39.01
0.71933	39.01
0.73600	39.01
0.75267	39.01
0.76933	39.01
0.78600	39.01
0.80267	39.01
0.81933	39.01
0.83600	39.02
0.85267	39.02
0.86933	39.02
0.88600	39.02
0.90267	39.02
0.91933	39.02
0.93600	39.02
0.95267	39.02
0.96933	39.01
0.98600	39.01
1.00267	39.01
1.01933	39.01
1.03600	39.01
1.05267	39.01
1.06933	39.01
1.08600	39.01
1.10267	39.01
1.11933	39.01
1.13600	39.01
1.15267	39.01
1.16933	39.01
1.18600	39.01
1.20267	39.01
1.21933	39.01
1.23600	39.01
1.25267	39.01
1.26933	39.02
1.28600	39.02
1.30267	39.01
1.31933	39.01
1.33600	39.01
1.35267	39.01
1.36933	39.01
1.38600	39.01
1.40267	39.01
1.41933	39.01
1.43600	39.02
1.45267	39.02
1.46933	39.02
1.48600	39.02
1.50267	39.02
1.51933	39.02
1.53600	39.02
1.55267	39.02
1.56933	39.02
1.58600	39.01
1.60267	39.01
1.61933	39.00
1.63600	38.99
1.65267	38.96
1.66933	38.94
1.68600	38.90
1.70267	38.87
1.71933	38.84
1.73600	38.80
1.75267	38.77
1.76933	38.74
1.78600	38.70
1.80267	38.67
1.81933	38.65
1.83600	38.61
1.85267	38.58
1.86933	38.55
1.88600	38.52
1.90267	38.49
1.91933	38.46
1.93600	38.43
1.95267	38.40
1.96933	38.37
1.98600	38.34
2.00267	38.31
2.01933	38.28
2.03600	38.25
2.05267	38.22
2.06933	38.19
2.08600	38.16
2.10267	38.13
2.11933	38.10
2.13600	38.08
2.15267	38.04
2.16933	38.02
2.18600	37.98
2.20267	37.95
2.21933	37.93
2.23600	37.89
2.25267	37.86
2.26933	37.83
2.28600	37.80
2.30267	37.77
2.31933	37.75
2.33600	37.71
2.35267	37.69
2.36933	37.67
2.38600	37.65
2.40267	37.65
2.41933	37.65
2.43600	37.66
2.45267	37.65
2.46933	37.65
2.48600	37.65
2.50267	37.63
2.51933	37.67
2.53600	37.65
2.55267	37.65
2.56933	37.65
2.58600	37.65
2.60267	37.65
2.61933	37.65
2.63600	37.65
2.65267	37.65
2.66933	37.65
2.68600	37.64
2.70267	37.64
2.71933	37.64
2.73600	37.64
2.75267	37.64
2.76933	37.64
2.78600	37.64
2.80267	37.64
2.81933	37.64
2.83600	37.64
2.85267	37.64
2.86933	37.64
2.88600	37.64
2.90267	37.64
2.91933	37.64
2.93600	37.64
2.95267	37.63
2.96933	37.63
2.98600	37.63
3.00267	37.63
3.01933	37.63
3.03600	37.63
3.05267	37.63
3.06933	37.63
3.08600	37.62
3.10267	37.62
3.11933	37.62
3.13600	37.62
3.15267	37.62
3.16933	37.62
3.18600	37.62
3.20267	37.62
3.21933	37.62
3.23600	37.62
3.25267	37.62
3.26933	37.62
3.28600	37.62
3.30267	37.62
3.31933	37.63
3.33600	37.63
3.35267	37.63
3.36933	37.63
3.38600	37.63
3.40267	37.63
3.41933	37.63
3.43600	37.63
3.45267	37.63
3.46933	37.63
3.48600	37.63
3.50267	37.63
3.51933	37.63
3.53600	37.63
3.55267	37.63
3.56933	37.63
3.58600	37.63
3.60267	37.63
3.61933	37.63
3.63600	37.62
3.65267	37.62
3.66933	37.62
3.68600	37.62
3.70267	37.62
3.71933	37.62
3.73600	37.62
3.75267	37.63
3.76933	37.63
3.78600	37.63
3.80267	37.63
3.81933	37.63
3.83600	37.63
3.85267	37.62
3.86933	37.62
3.88600	37.62
3.90267	37.62
3.91933	37.62
3.93600	37.62
3.95267	37.62
3.96933	37.62
3.98600	37.62

