[Header]
Application Name	LabSolutions
Version	5.110
Data File Name	C:\Users\User\Desktop\GC Analyses\Jack\Nachusa Grasslands Sampling\T2 Timepoint July 12th\T2_07122022_050.gcd
Output Date	3/14/2023
Output Time	3:42:33 PM

[File Information]
Type	Data File
Generated	3/10/2023 5:57:44 PM
Generated by	System Administrator
Modified	3/10/2023 6:04:32 PM
Modified by	System Administrator

[Sample Information]
Operator Name	System Administrator
Acquired	3/10/2023 6:00:32 PM
Sample Type	0:Unknown
Level	0
Sample Name	050
Sample ID	050
ISTD Amount1	1
ISTD Amount2	1
ISTD Amount3	1
ISTD Amount4	1
ISTD Amount5	1
ISTD Amount6	1
ISTD Amount7	1
ISTD Amount8	1
ISTD Amount9	1
ISTD Amount10	1
ISTD Amount11	1
ISTD Amount12	1
ISTD Amount13	1
ISTD Amount14	1
ISTD Amount15	1
ISTD Amount16	1
ISTD Amount17	1
ISTD Amount18	1
ISTD Amount19	1
ISTD Amount20	1
ISTD Amount21	1
ISTD Amount22	1
ISTD Amount23	1
ISTD Amount24	1
ISTD Amount25	1
ISTD Amount26	1
ISTD Amount27	1
ISTD Amount28	1
ISTD Amount29	1
ISTD Amount30	1
ISTD Amount31	1
ISTD Amount32	1
Sample Amount	1
Dilution Factor	1
Vial#	49
Injection Volume	1
Injection Count	1
Bar Code	

[Original Files]
Data File	C:\Users\User\Desktop\GC Analyses\Jack\Nachusa Grasslands Sampling\T1 Timepoint July 12th\T2_07122022_050.gcd
Method File	C:\LabSolutions\Data\GHG_4min_2022\ghg3_togas_w_acet_4 min_new_int.gcm
Batch File	C:\LabSolutions\Data\AutoSamplerTesting\T2_07122022.gcb
Report Format File	c:\LabSolutions\System\DEFAULT.lsr

[File Description]


[Configuration]
Instrument Name	C0B7VH3-Instrument1
Instrument #	1
Line #	1
# of Detectors	3
Detector ID	DET#1	DET#2	DET#3
Detector Name	FID	PTCD	ECD
# of Channels	1	1	1

[Peak Table(Ch1)]
# of Peaks	3
Peak#	R.Time	I.Time	F.Time	Area	Height	A/H	Conc.	Mark	ID#	Name	k'	Plate #	Plate Ht.	Tailing	Resolution	Sep.Factor	Area Ratio	Height Ratio	Conc. %	Norm Conc.
1	1.476	1.435	1.538	38212	18437	2.073	269.778	   	1	CO	0.000	9493	15.802	1.281	0.000	0.000	0	0	24.746	24.746
2	1.567	1.538	1.633	4991	2382	2.096	96.508	 V 	2	CH4	0.062	9866	15.203	0.000	1.482	0.000	0	0	8.852	8.852
3	1.996	1.949	2.425	2884379	1377356	2.094	723.901	   	3	CO2	0.353	17479	8.582	1.232	6.946	5.680	0	0	66.402	66.402

[Peak Table(Ch2)]
# of Peaks	0

[Peak Table(Ch3)]
# of Peaks	4
Peak#	R.Time	I.Time	F.Time	Area	Height	A/H	Conc.	Mark	ID#	Name	k'	Plate #	Plate Ht.	Tailing	Resolution	Sep.Factor	Area Ratio	Height Ratio	Conc. %	Norm Conc.
1	2.462	2.224	2.513	2831	705	4.014	0.000	   			0.000	8205	18.280	0.000	0.000	0.000	0	0	0.000	0.000
2	2.535	2.513	2.715	2179	413	5.279	0.000	 V 			0.030	4123	36.379	0.000	0.550	0.000	0	0	0.000	0.000
3	2.876	2.715	3.082	20054	4959	4.044	0.512	 V 	1	N2O	0.168	12942	11.590	1.687	2.633	5.650	0	0	100.000	100.000
4	3.291	3.089	3.995	16618	519	32.025	0.000	   	2	SF6	0.337	187	800.308	2.202	0.780	2.000	0	0	0.000	0.000

[Compound Results(Ch1)]
# of IDs	6
ID#	Name	R.Time	Area	Height	Conc.	Curve	3rd	2nd	1st	Constant	Area Ratio	Height Ratio	Conc. %	Norm Conc.
1	CO	1.476	38212	18437	269.778	Linear	0.000000e+00	0.000000e+00	1.416423e+002	0.000000e+00	0	0	24.746	24.746
2	CH4	1.567	4991	2382	96.508	Linear	0.000000e+00	0.000000e+00	5.171738e+001	0.000000e+00	0	0	8.852	8.852
3	CO2	1.996	2884379	1377356	723.901	Linear	0.000000e+00	0.000000e+00	3.984494e+003	0.000000e+00	0	0	66.402	66.402
4	Ethylene	0.000	0	0	0.000	Linear	0.000000e+00	0.000000e+00	0.000000e+00	0.000000e+00	0	0	0.000	0.000
5	Acetylene	0.000	0	0	0.000	Linear	0.000000e+00	0.000000e+00	0.000000e+00	0.000000e+00	0	0	0.000	0.000
6	Ethane	0.000	0	0	0.000	Linear	0.000000e+00	0.000000e+00	0.000000e+00	0.000000e+00	0	0	0.000	0.000

[Compound Results(Ch2)]
# of IDs	5
ID#	Name	R.Time	Area	Height	Conc.	Curve	3rd	2nd	1st	Constant	Area Ratio	Height Ratio	Conc. %	Norm Conc.
1	Hydrogen	0.000	0	0	0.000	Linear	0.000000e+00	0.000000e+00	0.000000e+00	0.000000e+00	0	0	0.000	0.000
2	Oxygen	0.000	0	0	0.000	Linear	0.000000e+00	0.000000e+00	0.000000e+00	0.000000e+00	0	0	0.000	0.000
3	Nitrogen	0.000	0	0	0.000	Linear	0.000000e+00	0.000000e+00	0.000000e+00	0.000000e+00	0	0	0.000	0.000
4	Methane	0.000	0	0	0.000	Linear	0.000000e+00	0.000000e+00	0.000000e+00	0.000000e+00	0	0	0.000	0.000
5	Carbon Monoxide	0.000	0	0	0.000	Linear	0.000000e+00	0.000000e+00	0.000000e+00	0.000000e+00	0	0	0.000	0.000

[Compound Results(Ch3)]
# of IDs	2
ID#	Name	R.Time	Area	Height	Conc.	Curve	3rd	2nd	1st	Constant	Area Ratio	Height Ratio	Conc. %	Norm Conc.
1	N2O	2.876	20054	4959	0.512	Linear	0.000000e+00	0.000000e+00	3.915173e+004	0.000000e+00	0	0	100.000	100.000
2	SF6	3.291	16618	519	0.000	Linear	0.000000e+00	0.000000e+00	0.000000e+00	0.000000e+00	0	0	0.000	0.000

[Group Results(Ch1)]
# of Groups	0

[Group Results(Ch2)]
# of Groups	0

[Group Results(Ch3)]
# of Groups	0

[Chromatogram (Ch1)]
Interval(msec)	220
# of Points	1091
Start Time(min)	0.002
End Time(min)	3.998
R.Time (min)	Intensity
0.00167	33
0.00533	30
0.00900	27
0.01267	26
0.01633	30
0.02000	42
0.02367	52
0.02733	53
0.03100	49
0.03467	45
0.03833	38
0.04200	31
0.04567	28
0.04933	28
0.05300	35
0.05667	41
0.06033	44
0.06400	48
0.06767	53
0.07133	63
0.07500	76
0.07867	87
0.08233	90
0.08600	85
0.08967	80
0.09333	81
0.09700	86
0.10067	92
0.10433	94
0.10800	95
0.11167	94
0.11533	92
0.11900	94
0.12267	104
0.12633	118
0.13000	130
0.13367	136
0.13733	138
0.14100	133
0.14467	128
0.14833	125
0.15200	125
0.15567	128
0.15933	129
0.16300	127
0.16667	127
0.17033	129
0.17400	134
0.17767	141
0.18133	146
0.18500	150
0.18867	152
0.19233	149
0.19600	142
0.19967	135
0.20333	130
0.20700	124
0.21067	119
0.21433	112
0.21800	103
0.22167	94
0.22533	91
0.22900	94
0.23267	97
0.23633	95
0.24000	89
0.24367	83
0.24733	76
0.25100	65
0.25467	53
0.25833	40
0.26200	27
0.26567	17
0.26933	19
0.27300	27
0.27667	32
0.28033	34
0.28400	32
0.28767	33
0.29133	39
0.29500	50
0.29867	60
0.30233	61
0.30600	56
0.30967	48
0.31333	41
0.31700	35
0.32067	29
0.32433	28
0.32800	33
0.33167	39
0.33533	48
0.33900	60
0.34267	70
0.34633	74
0.35000	70
0.35367	62
0.35733	56
0.36100	52
0.36467	55
0.36833	61
0.37200	61
0.37567	49
0.37933	38
0.38300	36
0.38667	39
0.39033	42
0.39400	40
0.39767	35
0.40133	32
0.40500	32
0.40867	38
0.41233	45
0.41600	49
0.41967	48
0.42333	47
0.42700	47
0.43067	48
0.43433	49
0.43800	46
0.44167	41
0.44533	42
0.44900	44
0.45267	46
0.45633	47
0.46000	51
0.46367	57
0.46733	60
0.47100	59
0.47467	57
0.47833	56
0.48200	55
0.48567	55
0.48933	54
0.49300	52
0.49667	52
0.50033	53
0.50400	53
0.50767	54
0.51133	52
0.51500	49
0.51867	46
0.52233	43
0.52600	43
0.52967	45
0.53333	44
0.53700	41
0.54067	37
0.54433	34
0.54800	33
0.55167	34
0.55533	36
0.55900	36
0.56267	35
0.56633	33
0.57000	34
0.57367	36
0.57733	37
0.58100	33
0.58467	30
0.58833	30
0.59200	32
0.59567	39
0.59933	47
0.60300	49
0.60667	43
0.61033	34
0.61400	29
0.61767	31
0.62133	31
0.62500	31
0.62867	32
0.63233	35
0.63600	38
0.63967	45
0.64333	48
0.64700	48
0.65067	42
0.65433	37
0.65800	35
0.66167	38
0.66533	38
0.66900	34
0.67267	29
0.67633	28
0.68000	28
0.68367	29
0.68733	32
0.69100	36
0.69467	42
0.69833	48
0.70200	55
0.70567	57
0.70933	54
0.71300	48
0.71667	42
0.72033	37
0.72400	33
0.72767	29
0.73133	28
0.73500	32
0.73867	34
0.74233	30
0.74600	25
0.74967	20
0.75333	19
0.75700	20
0.76067	23
0.76433	24
0.76800	25
0.77167	29
0.77533	32
0.77900	35
0.78267	38
0.78633	40
0.79000	43
0.79367	45
0.79733	45
0.80100	46
0.80467	45
0.80833	43
0.81200	39
0.81567	38
0.81933	38
0.82300	37
0.82667	33
0.83033	29
0.83400	29
0.83767	31
0.84133	31
0.84500	28
0.84867	27
0.85233	29
0.85600	34
0.85967	40
0.86333	39
0.86700	32
0.87067	26
0.87433	23
0.87800	21
0.88167	22
0.88533	29
0.88900	37
0.89267	38
0.89633	38
0.90000	38
0.90367	36
0.90733	31
0.91100	24
0.91467	21
0.91833	25
0.92200	28
0.92567	29
0.92933	31
0.93300	33
0.93667	32
0.94033	30
0.94400	34
0.94767	42
0.95133	49
0.95500	52
0.95867	51
0.96233	41
0.96600	27
0.96967	19
0.97333	16
0.97700	15
0.98067	14
0.98433	19
0.98800	29
0.99167	40
0.99533	48
0.99900	49
1.00267	48
1.00633	47
1.01000	49
1.01367	51
1.01733	49
1.02100	51
1.02467	51
1.02833	48
1.03200	45
1.03567	43
1.03933	42
1.04300	39
1.04667	38
1.05033	40
1.05400	45
1.05767	55
1.06133	65
1.06500	70
1.06867	69
1.07233	68
1.07600	72
1.07967	77
1.08333	76
1.08700	72
1.09067	67
1.09433	64
1.09800	67
1.10167	67
1.10533	62
1.10900	55
1.11267	51
1.11633	49
1.12000	48
1.12367	46
1.12733	44
1.13100	42
1.13467	41
1.13833	41
1.14200	40
1.14567	39
1.14933	39
1.15300	42
1.15667	47
1.16033	52
1.16400	56
1.16767	63
1.17133	68
1.17500	69
1.17867	71
1.18233	67
1.18600	57
1.18967	43
1.19333	33
1.19700	31
1.20067	33
1.20433	35
1.20800	40
1.21167	49
1.21533	54
1.21900	54
1.22267	52
1.22633	51
1.23000	48
1.23367	45
1.23733	43
1.24100	42
1.24467	40
1.24833	38
1.25200	39
1.25567	42
1.25933	44
1.26300	47
1.26667	49
1.27033	48
1.27400	42
1.27767	36
1.28133	30
1.28500	26
1.28867	23
1.29233	25
1.29600	37
1.29967	49
1.30333	54
1.30700	51
1.31067	47
1.31433	46
1.31800	45
1.32167	42
1.32533	42
1.32900	40
1.33267	38
1.33633	37
1.34000	39
1.34367	35
1.34733	28
1.35100	21
1.35467	17
1.35833	20
1.36200	26
1.36567	33
1.36933	39
1.37300	41
1.37667	39
1.38033	36
1.38400	36
1.38767	36
1.39133	37
1.39500	40
1.39867	44
1.40233	50
1.40600	56
1.40967	59
1.41333	56
1.41700	54
1.42067	53
1.42433	51
1.42800	47
1.43167	45
1.43533	49
1.43900	79
1.44267	197
1.44633	508
1.45000	1377
1.45367	3386
1.45733	6548
1.46100	10175
1.46467	13528
1.46833	16177
1.47200	17896
1.47567	18490
1.47933	17819
1.48300	15980
1.48667	13378
1.49033	10560
1.49400	7969
1.49767	5834
1.50133	4198
1.50500	3007
1.50867	2163
1.51233	1573
1.51600	1166
1.51967	884
1.52333	688
1.52700	553
1.53067	460
1.53433	398
1.53800	377
1.54167	436
1.54533	631
1.54900	970
1.55267	1391
1.55633	1797
1.56000	2126
1.56367	2351
1.56733	2443
1.57100	2368
1.57467	2128
1.57833	1777
1.58200	1395
1.58567	1050
1.58933	773
1.59300	571
1.59667	427
1.60033	326
1.60400	255
1.60767	204
1.61133	166
1.61500	138
1.61867	119
1.62233	101
1.62600	85
1.62967	73
1.63333	67
1.63700	66
1.64067	67
1.64433	69
1.64800	69
1.65167	62
1.65533	56
1.65900	51
1.66267	49
1.66633	47
1.67000	44
1.67367	43
1.67733	43
1.68100	45
1.68467	49
1.68833	54
1.69200	56
1.69567	57
1.69933	64
1.70300	72
1.70667	75
1.71033	70
1.71400	58
1.71767	49
1.72133	46
1.72500	49
1.72867	53
1.73233	60
1.73600	63
1.73967	62
1.74333	58
1.74700	55
1.75067	54
1.75433	57
1.75800	62
1.76167	65
1.76533	66
1.76900	63
1.77267	57
1.77633	47
1.78000	36
1.78367	27
1.78733	20
1.79100	17
1.79467	15
1.79833	21
1.80200	28
1.80567	35
1.80933	41
1.81300	49
1.81667	58
1.82033	63
1.82400	63
1.82767	60
1.83133	58
1.83500	58
1.83867	59
1.84233	60
1.84600	55
1.84967	51
1.85333	48
1.85700	46
1.86067	45
1.86433	44
1.86800	45
1.87167	46
1.87533	46
1.87900	46
1.88267	49
1.88633	54
1.89000	56
1.89367	55
1.89733	53
1.90100	50
1.90467	50
1.90833	49
1.91200	52
1.91567	56
1.91933	55
1.92300	52
1.92667	52
1.93033	54
1.93400	54
1.93767	54
1.94133	54
1.94500	55
1.94867	64
1.95233	126
1.95600	523
1.95967	2719
1.96333	12138
1.96700	42887
1.97067	119883
1.97433	267981
1.97800	489272
1.98167	753827
1.98533	1013365
1.98900	1222233
1.99267	1348686
1.99633	1377500
2.00000	1310768
2.00367	1166707
2.00733	975768
2.01100	771946
2.01467	582926
2.01833	424644
2.02200	301733
2.02567	211380
2.02933	147466
2.03300	103400
2.03667	73470
2.04033	53278
2.04400	39651
2.04767	30391
2.05133	24019
2.05500	19554
2.05867	16355
2.06233	14005
2.06600	12235
2.06967	10861
2.07333	9769
2.07700	8884
2.08067	8147
2.08433	7526
2.08800	6996
2.09167	6539
2.09533	6144
2.09900	5791
2.10267	5475
2.10633	5193
2.11000	4937
2.11367	4702
2.11733	4485
2.12100	4285
2.12467	4100
2.12833	3928
2.13200	3773
2.13567	3628
2.13933	3492
2.14300	3366
2.14667	3249
2.15033	3141
2.15400	3044
2.15767	2955
2.16133	2870
2.16500	2792
2.16867	2714
2.17233	2632
2.17600	2550
2.17967	2474
2.18333	2401
2.18700	2330
2.19067	2268
2.19433	2214
2.19800	2160
2.20167	2100
2.20533	2040
2.20900	1991
2.21267	1948
2.21633	1907
2.22000	1865
2.22367	1823
2.22733	1784
2.23100	1749
2.23467	1716
2.23833	1683
2.24200	1652
2.24567	1622
2.24933	1592
2.25300	1561
2.25667	1528
2.26033	1497
2.26400	1471
2.26767	1453
2.27133	1430
2.27500	1403
2.27867	1377
2.28233	1351
2.28600	1327
2.28967	1304
2.29333	1284
2.29700	1264
2.30067	1239
2.30433	1217
2.30800	1199
2.31167	1180
2.31533	1162
2.31900	1148
2.32267	1134
2.32633	1115
2.33000	1096
2.33367	1085
2.33733	1077
2.34100	1068
2.34467	1060
2.34833	1047
2.35200	1025
2.35567	1004
2.35933	988
2.36300	976
2.36667	965
2.37033	954
2.37400	945
2.37767	938
2.38133	932
2.38500	923
2.38867	919
2.39233	918
2.39600	915
2.39967	908
2.40333	899
2.40700	893
2.41067	888
2.41433	882
2.41800	880
2.42167	877
2.42533	867
2.42900	856
2.43267	850
2.43633	845
2.44000	838
2.44367	829
2.44733	824
2.45100	816
2.45467	809
2.45833	805
2.46200	797
2.46567	785
2.46933	773
2.47300	759
2.47667	746
2.48033	736
2.48400	725
2.48767	716
2.49133	712
2.49500	709
2.49867	707
2.50233	702
2.50600	695
2.50967	690
2.51333	689
2.51700	690
2.52067	693
2.52433	700
2.52800	710
2.53167	720
2.53533	725
2.53900	723
2.54267	714
2.54633	699
2.55000	683
2.55367	666
2.55733	657
2.56100	654
2.56467	652
2.56833	649
2.57200	639
2.57567	622
2.57933	609
2.58300	599
2.58667	593
2.59033	593
2.59400	597
2.59767	601
2.60133	607
2.60500	609
2.60867	610
2.61233	612
2.61600	615
2.61967	618
2.62333	617
2.62700	614
2.63067	609
2.63433	600
2.63800	593
2.64167	589
2.64533	585
2.64900	579
2.65267	572
2.65633	568
2.66000	566
2.66367	563
2.66733	558
2.67100	557
2.67467	561
2.67833	570
2.68200	577
2.68567	579
2.68933	578
2.69300	577
2.69667	574
2.70033	570
2.70400	569
2.70767	568
2.71133	563
2.71500	557
2.71867	557
2.72233	560
2.72600	565
2.72967	566
2.73333	562
2.73700	554
2.74067	545
2.74433	535
2.74800	531
2.75167	532
2.75533	534
2.75900	533
2.76267	531
2.76633	531
2.77000	537
2.77367	545
2.77733	548
2.78100	541
2.78467	529
2.78833	518
2.79200	511
2.79567	511
2.79933	517
2.80300	526
2.80667	532
2.81033	532
2.81400	530
2.81767	526
2.82133	518
2.82500	510
2.82867	502
2.83233	501
2.83600	508
2.83967	514
2.84333	513
2.84700	506
2.85067	497
2.85433	493
2.85800	495
2.86167	498
2.86533	502
2.86900	513
2.87267	520
2.87633	521
2.88000	520
2.88367	520
2.88733	521
2.89100	522
2.89467	524
2.89833	519
2.90200	509
2.90567	501
2.90933	496
2.91300	494
2.91667	491
2.92033	488
2.92400	489
2.92767	494
2.93133	500
2.93500	497
2.93867	492
2.94233	488
2.94600	488
2.94967	492
2.95333	497
2.95700	500
2.96067	502
2.96433	504
2.96800	505
2.97167	499
2.97533	490
2.97900	482
2.98267	477
2.98633	474
2.99000	475
2.99367	477
2.99733	480
3.00100	481
3.00467	482
3.00833	488
3.01200	494
3.01567	498
3.01933	498
3.02300	497
3.02667	493
3.03033	486
3.03400	476
3.03767	469
3.04133	467
3.04500	467
3.04867	466
3.05233	464
3.05600	462
3.05967	463
3.06333	462
3.06700	463
3.07067	469
3.07433	475
3.07800	475
3.08167	471
3.08533	466
3.08900	464
3.09267	464
3.09633	467
3.10000	470
3.10367	470
3.10733	468
3.11100	463
3.11467	455
3.11833	447
3.12200	439
3.12567	434
3.12933	432
3.13300	432
3.13667	433
3.14033	435
3.14400	436
3.14767	437
3.15133	440
3.15500	442
3.15867	440
3.16233	436
3.16600	439
3.16967	446
3.17333	450
3.17700	448
3.18067	443
3.18433	438
3.18800	436
3.19167	438
3.19533	441
3.19900	439
3.20267	435
3.20633	428
3.21000	422
3.21367	419
3.21733	421
3.22100	425
3.22467	427
3.22833	427
3.23200	425
3.23567	422
3.23933	424
3.24300	425
3.24667	424
3.25033	424
3.25400	428
3.25767	434
3.26133	439
3.26500	439
3.26867	434
3.27233	421
3.27600	408
3.27967	399
3.28333	395
3.28700	393
3.29067	393
3.29433	390
3.29800	386
3.30167	387
3.30533	390
3.30900	395
3.31267	401
3.31633	405
3.32000	405
3.32367	399
3.32733	395
3.33100	393
3.33467	391
3.33833	390
3.34200	388
3.34567	387
3.34933	385
3.35300	382
3.35667	380
3.36033	381
3.36400	383
3.36767	384
3.37133	387
3.37500	391
3.37867	392
3.38233	388
3.38600	381
3.38967	375
3.39333	370
3.39700	367
3.40067	366
3.40433	367
3.40800	366
3.41167	362
3.41533	355
3.41900	351
3.42267	350
3.42633	350
3.43000	353
3.43367	360
3.43733	364
3.44100	366
3.44467	368
3.44833	367
3.45200	368
3.45567	368
3.45933	369
3.46300	368
3.46667	365
3.47033	363
3.47400	366
3.47767	375
3.48133	382
3.48500	383
3.48867	377
3.49233	368
3.49600	359
3.49967	349
3.50333	340
3.50700	333
3.51067	328
3.51433	328
3.51800	327
3.52167	327
3.52533	330
3.52900	336
3.53267	341
3.53633	344
3.54000	347
3.54367	351
3.54733	354
3.55100	356
3.55467	350
3.55833	342
3.56200	333
3.56567	327
3.56933	324
3.57300	322
3.57667	324
3.58033	327
3.58400	331
3.58767	333
3.59133	333
3.59500	329
3.59867	324
3.60233	328
3.60600	336
3.60967	341
3.61333	344
3.61700	344
3.62067	342
3.62433	339
3.62800	336
3.63167	335
3.63533	333
3.63900	327
3.64267	323
3.64633	319
3.65000	319
3.65367	321
3.65733	321
3.66100	322
3.66467	321
3.66833	312
3.67200	304
3.67567	301
3.67933	303
3.68300	304
3.68667	305
3.69033	306
3.69400	309
3.69767	316
3.70133	322
3.70500	318
3.70867	309
3.71233	298
3.71600	286
3.71967	282
3.72333	282
3.72700	282
3.73067	285
3.73433	292
3.73800	297
3.74167	298
3.74533	298
3.74900	300
3.75267	301
3.75633	302
3.76000	298
3.76367	295
3.76733	293
3.77100	291
3.77467	285
3.77833	283
3.78200	284
3.78567	287
3.78933	290
3.79300	293
3.79667	295
3.80033	298
3.80400	308
3.80767	324
3.81133	335
3.81500	334
3.81867	326
3.82233	314
3.82600	297
3.82967	280
3.83333	269
3.83700	264
3.84067	262
3.84433	258
3.84800	257
3.85167	255
3.85533	253
3.85900	249
3.86267	246
3.86633	249
3.87000	257
3.87367	263
3.87733	264
3.88100	258
3.88467	250
3.88833	247
3.89200	247
3.89567	248
3.89933	252
3.90300	251
3.90667	248
3.91033	247
3.91400	248
3.91767	243
3.92133	237
3.92500	236
3.92867	240
3.93233	244
3.93600	246
3.93967	247
3.94333	252
3.94700	260
3.95067	265
3.95433	266
3.95800	269
3.96167	271
3.96533	269
3.96900	266
3.97267	262
3.97633	259
3.98000	254
3.98367	247
3.98733	240
3.99100	237
3.99467	236
3.99833	235

[Chromatogram (Ch2)]
Interval(msec)	220
# of Points	1091
Start Time(min)	0.002
End Time(min)	3.998
R.Time (min)	Intensity
0.00167	-2
0.00533	-2
0.00900	-2
0.01267	-2
0.01633	-2
0.02000	-3
0.02367	-3
0.02733	-3
0.03100	-3
0.03467	-3
0.03833	-2
0.04200	-2
0.04567	-2
0.04933	-2
0.05300	-2
0.05667	-1
0.06033	-1
0.06400	-0
0.06767	-0
0.07133	0
0.07500	0
0.07867	0
0.08233	0
0.08600	0
0.08967	0
0.09333	-0
0.09700	-0
0.10067	-1
0.10433	-1
0.10800	-1
0.11167	-1
0.11533	-1
0.11900	-1
0.12267	-2
0.12633	-2
0.13000	-2
0.13367	-3
0.13733	-3
0.14100	-3
0.14467	-3
0.14833	-2
0.15200	-2
0.15567	-2
0.15933	-1
0.16300	-0
0.16667	0
0.17033	0
0.17400	-0
0.17767	-0
0.18133	-1
0.18500	-1
0.18867	-1
0.19233	-2
0.19600	-2
0.19967	-2
0.20333	-3
0.20700	-3
0.21067	-3
0.21433	-4
0.21800	-4
0.22167	-3
0.22533	-3
0.22900	-3
0.23267	-3
0.23633	-2
0.24000	-2
0.24367	-2
0.24733	-2
0.25100	-2
0.25467	-2
0.25833	-2
0.26200	-2
0.26567	-2
0.26933	-2
0.27300	-2
0.27667	-2
0.28033	-2
0.28400	-2
0.28767	-2
0.29133	-2
0.29500	-2
0.29867	-2
0.30233	-2
0.30600	-2
0.30967	-2
0.31333	-2
0.31700	-2
0.32067	-2
0.32433	-3
0.32800	-3
0.33167	-4
0.33533	-4
0.33900	-4
0.34267	-4
0.34633	-4
0.35000	-4
0.35367	-4
0.35733	-4
0.36100	-4
0.36467	-4
0.36833	-3
0.37200	-3
0.37567	-3
0.37933	-3
0.38300	-3
0.38667	-3
0.39033	-3
0.39400	-2
0.39767	-2
0.40133	-2
0.40500	-2
0.40867	-1
0.41233	-1
0.41600	-1
0.41967	-1
0.42333	-1
0.42700	-1
0.43067	-1
0.43433	-1
0.43800	-1
0.44167	-1
0.44533	-1
0.44900	-1
0.45267	-1
0.45633	-1
0.46000	-1
0.46367	-1
0.46733	-1
0.47100	-1
0.47467	-1
0.47833	-1
0.48200	-1
0.48567	-1
0.48933	-1
0.49300	-1
0.49667	-1
0.50033	-1
0.50400	-1
0.50767	-1
0.51133	-2
0.51500	-2
0.51867	-3
0.52233	-3
0.52600	-3
0.52967	-3
0.53333	-3
0.53700	-3
0.54067	-3
0.54433	-3
0.54800	-2
0.55167	-2
0.55533	-2
0.55900	-2
0.56267	-1
0.56633	-1
0.57000	-1
0.57367	-1
0.57733	-1
0.58100	-2
0.58467	-2
0.58833	-2
0.59200	-2
0.59567	-2
0.59933	-3
0.60300	-3
0.60667	-3
0.61033	-3
0.61400	-3
0.61767	-3
0.62133	-3
0.62500	-3
0.62867	-3
0.63233	-3
0.63600	-3
0.63967	-3
0.64333	-3
0.64700	-3
0.65067	-3
0.65433	-3
0.65800	-3
0.66167	-3
0.66533	-3
0.66900	-2
0.67267	-2
0.67633	-2
0.68000	-2
0.68367	-1
0.68733	-1
0.69100	-1
0.69467	-1
0.69833	-1
0.70200	-1
0.70567	-1
0.70933	-1
0.71300	-2
0.71667	-2
0.72033	-2
0.72400	-2
0.72767	-3
0.73133	-3
0.73500	-3
0.73867	-3
0.74233	-3
0.74600	-3
0.74967	-3
0.75333	-4
0.75700	-4
0.76067	-4
0.76433	-4
0.76800	-4
0.77167	-5
0.77533	-5
0.77900	-5
0.78267	-4
0.78633	-4
0.79000	-4
0.79367	-4
0.79733	-3
0.80100	-3
0.80467	-3
0.80833	-3
0.81200	-3
0.81567	-3
0.81933	-3
0.82300	-3
0.82667	-3
0.83033	-2
0.83400	-2
0.83767	-1
0.84133	-1
0.84500	-1
0.84867	-1
0.85233	-1
0.85600	-1
0.85967	-1
0.86333	-1
0.86700	-1
0.87067	-1
0.87433	-1
0.87800	-1
0.88167	-2
0.88533	-2
0.88900	-2
0.89267	-3
0.89633	-3
0.90000	-3
0.90367	-3
0.90733	-3
0.91100	-3
0.91467	-3
0.91833	-3
0.92200	-3
0.92567	-3
0.92933	-3
0.93300	-3
0.93667	-3
0.94033	-3
0.94400	-3
0.94767	-3
0.95133	-2
0.95500	-2
0.95867	-2
0.96233	-2
0.96600	-1
0.96967	-1
0.97333	-1
0.97700	-1
0.98067	-1
0.98433	-1
0.98800	-1
0.99167	-0
0.99533	-0
0.99900	-0
1.00267	0
1.00633	0
1.01000	0
1.01367	-0
1.01733	-0
1.02100	-0
1.02467	-0
1.02833	-0
1.03200	-0
1.03567	-0
1.03933	-0
1.04300	-1
1.04667	-1
1.05033	-1
1.05400	-1
1.05767	-1
1.06133	-1
1.06500	-1
1.06867	-1
1.07233	-2
1.07600	-2
1.07967	-3
1.08333	-3
1.08700	-4
1.09067	-4
1.09433	-5
1.09800	-6
1.10167	-6
1.10533	-7
1.10900	-7
1.11267	-7
1.11633	-7
1.12000	-7
1.12367	-7
1.12733	-7
1.13100	-7
1.13467	-7
1.13833	-6
1.14200	-6
1.14567	-6
1.14933	-6
1.15300	-6
1.15667	-5
1.16033	-5
1.16400	-5
1.16767	-5
1.17133	-5
1.17500	-5
1.17867	-5
1.18233	-5
1.18600	-5
1.18967	-5
1.19333	-5
1.19700	-5
1.20067	-5
1.20433	-5
1.20800	-5
1.21167	-5
1.21533	-5
1.21900	-5
1.22267	-5
1.22633	-5
1.23000	-5
1.23367	-4
1.23733	-4
1.24100	-4
1.24467	-4
1.24833	-4
1.25200	-5
1.25567	-5
1.25933	-5
1.26300	-5
1.26667	-5
1.27033	-5
1.27400	-5
1.27767	-5
1.28133	-5
1.28500	-4
1.28867	-4
1.29233	-4
1.29600	-4
1.29967	-3
1.30333	-3
1.30700	-3
1.31067	-3
1.31433	-3
1.31800	-3
1.32167	-3
1.32533	-3
1.32900	-4
1.33267	-4
1.33633	-4
1.34000	-3
1.34367	-3
1.34733	-3
1.35100	-3
1.35467	-3
1.35833	-3
1.36200	-3
1.36567	-3
1.36933	-3
1.37300	-4
1.37667	-4
1.38033	-4
1.38400	-4
1.38767	-4
1.39133	-5
1.39500	-5
1.39867	-5
1.40233	-5
1.40600	-5
1.40967	-5
1.41333	-5
1.41700	-5
1.42067	-5
1.42433	-4
1.42800	-4
1.43167	-4
1.43533	-3
1.43900	-3
1.44267	-3
1.44633	-3
1.45000	-3
1.45367	-3
1.45733	-3
1.46100	-4
1.46467	-4
1.46833	-4
1.47200	-4
1.47567	-4
1.47933	-4
1.48300	-4
1.48667	-4
1.49033	-4
1.49400	-5
1.49767	-5
1.50133	-5
1.50500	-5
1.50867	-5
1.51233	-5
1.51600	-5
1.51967	-5
1.52333	-5
1.52700	-4
1.53067	-4
1.53433	-4
1.53800	-4
1.54167	-4
1.54533	-4
1.54900	-4
1.55267	-4
1.55633	-4
1.56000	-4
1.56367	-4
1.56733	-4
1.57100	-4
1.57467	-4
1.57833	-4
1.58200	-4
1.58567	-4
1.58933	-4
1.59300	-5
1.59667	-5
1.60033	-6
1.60400	-7
1.60767	-8
1.61133	-9
1.61500	-11
1.61867	-13
1.62233	-15
1.62600	-18
1.62967	-21
1.63333	-24
1.63700	-28
1.64067	-31
1.64433	-34
1.64800	-38
1.65167	-42
1.65533	-46
1.65900	-51
1.66267	-56
1.66633	-61
1.67000	-67
1.67367	-73
1.67733	-78
1.68100	-83
1.68467	-88
1.68833	-93
1.69200	-96
1.69567	-99
1.69933	-101
1.70300	-103
1.70667	-105
1.71033	-106
1.71400	-106
1.71767	-107
1.72133	-107
1.72500	-108
1.72867	-108
1.73233	-108
1.73600	-108
1.73967	-109
1.74333	-109
1.74700	-110
1.75067	-111
1.75433	-112
1.75800	-113
1.76167	-114
1.76533	-115
1.76900	-116
1.77267	-116
1.77633	-117
1.78000	-116
1.78367	-116
1.78733	-115
1.79100	-114
1.79467	-113
1.79833	-113
1.80200	-112
1.80567	-112
1.80933	-113
1.81300	-114
1.81667	-114
1.82033	-115
1.82400	-116
1.82767	-116
1.83133	-117
1.83500	-117
1.83867	-117
1.84233	-117
1.84600	-117
1.84967	-118
1.85333	-118
1.85700	-118
1.86067	-118
1.86433	-118
1.86800	-118
1.87167	-118
1.87533	-117
1.87900	-117
1.88267	-117
1.88633	-117
1.89000	-116
1.89367	-116
1.89733	-116
1.90100	-116
1.90467	-116
1.90833	-116
1.91200	-115
1.91567	-115
1.91933	-114
1.92300	-114
1.92667	-114
1.93033	-114
1.93400	-114
1.93767	-114
1.94133	-114
1.94500	-114
1.94867	-113
1.95233	-112
1.95600	-111
1.95967	-110
1.96333	-110
1.96700	-110
1.97067	-109
1.97433	-109
1.97800	-109
1.98167	-109
1.98533	-110
1.98900	-109
1.99267	-109
1.99633	-109
2.00000	-109
2.00367	-108
2.00733	-108
2.01100	-108
2.01467	-108
2.01833	-108
2.02200	-108
2.02567	-109
2.02933	-109
2.03300	-109
2.03667	-109
2.04033	-108
2.04400	-107
2.04767	-106
2.05133	-105
2.05500	-104
2.05867	-103
2.06233	-102
2.06600	-102
2.06967	-102
2.07333	-102
2.07700	-102
2.08067	-102
2.08433	-102
2.08800	-102
2.09167	-102
2.09533	-102
2.09900	-102
2.10267	-102
2.10633	-101
2.11000	-101
2.11367	-100
2.11733	-100
2.12100	-99
2.12467	-99
2.12833	-99
2.13200	-99
2.13567	-99
2.13933	-99
2.14300	-99
2.14667	-99
2.15033	-99
2.15400	-98
2.15767	-98
2.16133	-98
2.16500	-98
2.16867	-98
2.17233	-97
2.17600	-97
2.17967	-96
2.18333	-95
2.18700	-95
2.19067	-94
2.19433	-93
2.19800	-92
2.20167	-91
2.20533	-91
2.20900	-90
2.21267	-90
2.21633	-89
2.22000	-89
2.22367	-89
2.22733	-89
2.23100	-89
2.23467	-89
2.23833	-88
2.24200	-88
2.24567	-88
2.24933	-87
2.25300	-87
2.25667	-88
2.26033	-88
2.26400	-89
2.26767	-90
2.27133	-90
2.27500	-89
2.27867	-89
2.28233	-89
2.28600	-89
2.28967	-88
2.29333	-88
2.29700	-87
2.30067	-87
2.30433	-86
2.30800	-85
2.31167	-84
2.31533	-83
2.31900	-82
2.32267	-82
2.32633	-81
2.33000	-81
2.33367	-80
2.33733	-80
2.34100	-80
2.34467	-81
2.34833	-81
2.35200	-82
2.35567	-82
2.35933	-82
2.36300	-81
2.36667	-79
2.37033	-77
2.37400	-74
2.37767	-70
2.38133	-65
2.38500	-60
2.38867	-55
2.39233	-50
2.39600	-45
2.39967	-40
2.40333	-36
2.40700	-32
2.41067	-28
2.41433	-25
2.41800	-23
2.42167	-21
2.42533	-19
2.42900	-17
2.43267	-16
2.43633	-14
2.44000	-13
2.44367	-12
2.44733	-11
2.45100	-10
2.45467	-9
2.45833	-8
2.46200	-7
2.46567	-6
2.46933	-6
2.47300	-4
2.47667	-3
2.48033	-2
2.48400	-0
2.48767	1
2.49133	2
2.49500	2
2.49867	3
2.50233	3
2.50600	4
2.50967	5
2.51333	6
2.51700	7
2.52067	8
2.52433	9
2.52800	9
2.53167	10
2.53533	10
2.53900	11
2.54267	11
2.54633	11
2.55000	11
2.55367	12
2.55733	12
2.56100	12
2.56467	12
2.56833	12
2.57200	12
2.57567	12
2.57933	12
2.58300	12
2.58667	12
2.59033	12
2.59400	11
2.59767	11
2.60133	11
2.60500	11
2.60867	12
2.61233	12
2.61600	12
2.61967	12
2.62333	12
2.62700	12
2.63067	12
2.63433	12
2.63800	13
2.64167	13
2.64533	13
2.64900	14
2.65267	15
2.65633	15
2.66000	15
2.66367	16
2.66733	16
2.67100	17
2.67467	17
2.67833	17
2.68200	17
2.68567	18
2.68933	18
2.69300	18
2.69667	19
2.70033	19
2.70400	19
2.70767	19
2.71133	19
2.71500	19
2.71867	19
2.72233	19
2.72600	20
2.72967	20
2.73333	21
2.73700	21
2.74067	21
2.74433	22
2.74800	22
2.75167	23
2.75533	23
2.75900	23
2.76267	23
2.76633	23
2.77000	23
2.77367	22
2.77733	22
2.78100	21
2.78467	21
2.78833	20
2.79200	20
2.79567	20
2.79933	20
2.80300	20
2.80667	20
2.81033	20
2.81400	21
2.81767	21
2.82133	22
2.82500	22
2.82867	23
2.83233	23
2.83600	23
2.83967	22
2.84333	21
2.84700	18
2.85067	12
2.85433	4
2.85800	-8
2.86167	-24
2.86533	-44
2.86900	-68
2.87267	-97
2.87633	-130
2.88000	-167
2.88367	-208
2.88733	-252
2.89100	-299
2.89467	-349
2.89833	-401
2.90200	-454
2.90567	-509
2.90933	-564
2.91300	-619
2.91667	-674
2.92033	-728
2.92400	-780
2.92767	-831
2.93133	-883
2.93500	-939
2.93867	-997
2.94233	-1050
2.94600	-1085
2.94967	-1097
2.95333	-1083
2.95700	-1046
2.96067	-990
2.96433	-920
2.96800	-843
2.97167	-763
2.97533	-683
2.97900	-606
2.98267	-534
2.98633	-467
2.99000	-406
2.99367	-352
2.99733	-303
3.00100	-260
3.00467	-223
3.00833	-190
3.01200	-161
3.01567	-137
3.01933	-115
3.02300	-97
3.02667	-81
3.03033	-68
3.03400	-56
3.03767	-46
3.04133	-38
3.04500	-31
3.04867	-25
3.05233	-20
3.05600	-16
3.05967	-12
3.06333	-9
3.06700	-6
3.07067	-4
3.07433	-2
3.07800	0
3.08167	2
3.08533	3
3.08900	4
3.09267	5
3.09633	6
3.10000	7
3.10367	8
3.10733	8
3.11100	9
3.11467	10
3.11833	10
3.12200	11
3.12567	11
3.12933	12
3.13300	12
3.13667	13
3.14033	13
3.14400	14
3.14767	14
3.15133	15
3.15500	15
3.15867	16
3.16233	16
3.16600	16
3.16967	17
3.17333	17
3.17700	17
3.18067	18
3.18433	18
3.18800	18
3.19167	18
3.19533	19
3.19900	19
3.20267	19
3.20633	20
3.21000	20
3.21367	20
3.21733	20
3.22100	20
3.22467	20
3.22833	20
3.23200	20
3.23567	20
3.23933	20
3.24300	20
3.24667	20
3.25033	21
3.25400	21
3.25767	21
3.26133	21
3.26500	21
3.26867	21
3.27233	20
3.27600	20
3.27967	20
3.28333	20
3.28700	20
3.29067	20
3.29433	20
3.29800	21
3.30167	21
3.30533	21
3.30900	21
3.31267	22
3.31633	22
3.32000	22
3.32367	22
3.32733	22
3.33100	22
3.33467	22
3.33833	22
3.34200	23
3.34567	23
3.34933	23
3.35300	23
3.35667	23
3.36033	23
3.36400	23
3.36767	23
3.37133	23
3.37500	23
3.37867	23
3.38233	23
3.38600	24
3.38967	24
3.39333	24
3.39700	24
3.40067	24
3.40433	24
3.40800	24
3.41167	25
3.41533	25
3.41900	25
3.42267	25
3.42633	25
3.43000	26
3.43367	26
3.43733	26
3.44100	26
3.44467	26
3.44833	26
3.45200	26
3.45567	26
3.45933	26
3.46300	26
3.46667	26
3.47033	26
3.47400	26
3.47767	26
3.48133	26
3.48500	26
3.48867	26
3.49233	26
3.49600	26
3.49967	26
3.50333	26
3.50700	26
3.51067	26
3.51433	26
3.51800	26
3.52167	25
3.52533	25
3.52900	25
3.53267	25
3.53633	25
3.54000	25
3.54367	26
3.54733	26
3.55100	26
3.55467	25
3.55833	25
3.56200	25
3.56567	25
3.56933	25
3.57300	25
3.57667	25
3.58033	25
3.58400	25
3.58767	25
3.59133	25
3.59500	25
3.59867	24
3.60233	24
3.60600	24
3.60967	24
3.61333	24
3.61700	23
3.62067	23
3.62433	23
3.62800	23
3.63167	23
3.63533	23
3.63900	22
3.64267	22
3.64633	22
3.65000	23
3.65367	23
3.65733	23
3.66100	23
3.66467	24
3.66833	24
3.67200	24
3.67567	24
3.67933	24
3.68300	25
3.68667	25
3.69033	25
3.69400	25
3.69767	25
3.70133	25
3.70500	26
3.70867	26
3.71233	26
3.71600	26
3.71967	27
3.72333	27
3.72700	27
3.73067	27
3.73433	27
3.73800	27
3.74167	27
3.74533	27
3.74900	28
3.75267	28
3.75633	27
3.76000	27
3.76367	27
3.76733	27
3.77100	26
3.77467	26
3.77833	26
3.78200	26
3.78567	26
3.78933	26
3.79300	26
3.79667	26
3.80033	26
3.80400	26
3.80767	25
3.81133	25
3.81500	25
3.81867	25
3.82233	25
3.82600	25
3.82967	24
3.83333	24
3.83700	23
3.84067	23
3.84433	23
3.84800	23
3.85167	23
3.85533	23
3.85900	23
3.86267	23
3.86633	23
3.87000	23
3.87367	23
3.87733	23
3.88100	23
3.88467	23
3.88833	23
3.89200	23
3.89567	23
3.89933	23
3.90300	24
3.90667	24
3.91033	24
3.91400	25
3.91767	25
3.92133	25
3.92500	25
3.92867	25
3.93233	25
3.93600	25
3.93967	25
3.94333	25
3.94700	26
3.95067	26
3.95433	26
3.95800	27
3.96167	27
3.96533	27
3.96900	27
3.97267	27
3.97633	27
3.98000	27
3.98367	26
3.98733	26
3.99100	26
3.99467	25
3.99833	25

[Chromatogram (Ch3)]
Interval(msec)	220
# of Points	1091
Start Time(min)	0.002
End Time(min)	3.998
R.Time (min)	Intensity
0.00167	0
0.00533	1
0.00900	3
0.01267	2
0.01633	1
0.02000	0
0.02367	-1
0.02733	0
0.03100	4
0.03467	5
0.03833	5
0.04200	5
0.04567	4
0.04933	3
0.05300	5
0.05667	4
0.06033	3
0.06400	4
0.06767	5
0.07133	5
0.07500	5
0.07867	6
0.08233	3
0.08600	2
0.08967	4
0.09333	5
0.09700	6
0.10067	7
0.10433	8
0.10800	8
0.11167	8
0.11533	8
0.11900	8
0.12267	7
0.12633	8
0.13000	8
0.13367	7
0.13733	7
0.14100	7
0.14467	8
0.14833	10
0.15200	11
0.15567	9
0.15933	8
0.16300	8
0.16667	8
0.17033	9
0.17400	7
0.17767	5
0.18133	3
0.18500	3
0.18867	2
0.19233	2
0.19600	4
0.19967	5
0.20333	5
0.20700	4
0.21067	4
0.21433	4
0.21800	5
0.22167	7
0.22533	9
0.22900	8
0.23267	9
0.23633	7
0.24000	5
0.24367	6
0.24733	8
0.25100	7
0.25467	5
0.25833	5
0.26200	6
0.26567	6
0.26933	7
0.27300	6
0.27667	5
0.28033	5
0.28400	4
0.28767	0
0.29133	-1
0.29500	-1
0.29867	-0
0.30233	1
0.30600	2
0.30967	4
0.31333	6
0.31700	8
0.32067	9
0.32433	8
0.32800	9
0.33167	8
0.33533	5
0.33900	3
0.34267	3
0.34633	3
0.35000	4
0.35367	8
0.35733	11
0.36100	12
0.36467	11
0.36833	7
0.37200	3
0.37567	1
0.37933	0
0.38300	3
0.38667	5
0.39033	6
0.39400	6
0.39767	6
0.40133	4
0.40500	4
0.40867	5
0.41233	4
0.41600	4
0.41967	6
0.42333	8
0.42700	9
0.43067	10
0.43433	9
0.43800	8
0.44167	8
0.44533	8
0.44900	9
0.45267	10
0.45633	9
0.46000	7
0.46367	5
0.46733	5
0.47100	6
0.47467	8
0.47833	9
0.48200	8
0.48567	8
0.48933	7
0.49300	5
0.49667	4
0.50033	3
0.50400	3
0.50767	4
0.51133	6
0.51500	9
0.51867	12
0.52233	12
0.52600	8
0.52967	6
0.53333	4
0.53700	4
0.54067	4
0.54433	3
0.54800	1
0.55167	2
0.55533	2
0.55900	1
0.56267	2
0.56633	5
0.57000	8
0.57367	9
0.57733	10
0.58100	9
0.58467	9
0.58833	8
0.59200	7
0.59567	5
0.59933	4
0.60300	2
0.60667	2
0.61033	2
0.61400	4
0.61767	6
0.62133	6
0.62500	5
0.62867	5
0.63233	6
0.63600	7
0.63967	6
0.64333	5
0.64700	7
0.65067	9
0.65433	11
0.65800	11
0.66167	12
0.66533	13
0.66900	14
0.67267	13
0.67633	13
0.68000	12
0.68367	10
0.68733	10
0.69100	11
0.69467	11
0.69833	12
0.70200	12
0.70567	14
0.70933	14
0.71300	15
0.71667	14
0.72033	12
0.72400	10
0.72767	9
0.73133	9
0.73500	9
0.73867	11
0.74233	13
0.74600	11
0.74967	8
0.75333	7
0.75700	7
0.76067	5
0.76433	5
0.76800	7
0.77167	10
0.77533	11
0.77900	9
0.78267	8
0.78633	9
0.79000	13
0.79367	15
0.79733	16
0.80100	17
0.80467	16
0.80833	12
0.81200	12
0.81567	15
0.81933	15
0.82300	15
0.82667	14
0.83033	13
0.83400	11
0.83767	10
0.84133	10
0.84500	11
0.84867	13
0.85233	13
0.85600	12
0.85967	10
0.86333	10
0.86700	13
0.87067	15
0.87433	15
0.87800	14
0.88167	12
0.88533	13
0.88900	12
0.89267	11
0.89633	10
0.90000	11
0.90367	15
0.90733	14
0.91100	12
0.91467	11
0.91833	12
0.92200	15
0.92567	16
0.92933	16
0.93300	18
0.93667	18
0.94033	19
0.94400	19
0.94767	19
0.95133	17
0.95500	16
0.95867	16
0.96233	14
0.96600	13
0.96967	13
0.97333	11
0.97700	12
0.98067	13
0.98433	12
0.98800	12
0.99167	14
0.99533	15
0.99900	14
1.00267	13
1.00633	13
1.01000	15
1.01367	16
1.01733	15
1.02100	15
1.02467	16
1.02833	16
1.03200	14
1.03567	11
1.03933	10
1.04300	9
1.04667	10
1.05033	11
1.05400	12
1.05767	15
1.06133	17
1.06500	16
1.06867	14
1.07233	13
1.07600	13
1.07967	13
1.08333	15
1.08700	18
1.09067	20
1.09433	21
1.09800	22
1.10167	22
1.10533	21
1.10900	20
1.11267	20
1.11633	18
1.12000	18
1.12367	19
1.12733	20
1.13100	20
1.13467	20
1.13833	20
1.14200	20
1.14567	22
1.14933	24
1.15300	24
1.15667	24
1.16033	25
1.16400	25
1.16767	24
1.17133	22
1.17500	20
1.17867	16
1.18233	15
1.18600	14
1.18967	14
1.19333	15
1.19700	17
1.20067	18
1.20433	19
1.20800	20
1.21167	21
1.21533	21
1.21900	21
1.22267	21
1.22633	20
1.23000	19
1.23367	19
1.23733	19
1.24100	20
1.24467	21
1.24833	22
1.25200	24
1.25567	25
1.25933	25
1.26300	25
1.26667	24
1.27033	25
1.27400	25
1.27767	23
1.28133	21
1.28500	22
1.28867	22
1.29233	22
1.29600	20
1.29967	21
1.30333	23
1.30700	21
1.31067	20
1.31433	22
1.31800	24
1.32167	23
1.32533	21
1.32900	20
1.33267	19
1.33633	20
1.34000	21
1.34367	23
1.34733	24
1.35100	23
1.35467	24
1.35833	24
1.36200	21
1.36567	18
1.36933	17
1.37300	19
1.37667	21
1.38033	22
1.38400	23
1.38767	24
1.39133	25
1.39500	26
1.39867	26
1.40233	27
1.40600	27
1.40967	26
1.41333	26
1.41700	27
1.42067	27
1.42433	25
1.42800	23
1.43167	26
1.43533	27
1.43900	25
1.44267	22
1.44633	22
1.45000	25
1.45367	24
1.45733	23
1.46100	23
1.46467	22
1.46833	23
1.47200	23
1.47567	23
1.47933	24
1.48300	24
1.48667	25
1.49033	25
1.49400	26
1.49767	28
1.50133	30
1.50500	30
1.50867	29
1.51233	29
1.51600	27
1.51967	26
1.52333	26
1.52700	27
1.53067	29
1.53433	27
1.53800	27
1.54167	26
1.54533	25
1.54900	23
1.55267	22
1.55633	23
1.56000	24
1.56367	26
1.56733	28
1.57100	28
1.57467	29
1.57833	30
1.58200	32
1.58567	32
1.58933	31
1.59300	28
1.59667	26
1.60033	26
1.60400	29
1.60767	30
1.61133	30
1.61500	31
1.61867	32
1.62233	32
1.62600	34
1.62967	36
1.63333	35
1.63700	32
1.64067	31
1.64433	30
1.64800	29
1.65167	30
1.65533	29
1.65900	29
1.66267	32
1.66633	33
1.67000	34
1.67367	36
1.67733	37
1.68100	39
1.68467	41
1.68833	41
1.69200	40
1.69567	38
1.69933	37
1.70300	38
1.70667	40
1.71033	41
1.71400	41
1.71767	41
1.72133	40
1.72500	41
1.72867	40
1.73233	40
1.73600	42
1.73967	44
1.74333	47
1.74700	49
1.75067	49
1.75433	49
1.75800	50
1.76167	49
1.76533	46
1.76900	44
1.77267	46
1.77633	47
1.78000	48
1.78367	49
1.78733	49
1.79100	49
1.79467	51
1.79833	53
1.80200	53
1.80567	50
1.80933	49
1.81300	48
1.81667	49
1.82033	50
1.82400	52
1.82767	54
1.83133	56
1.83500	57
1.83867	56
1.84233	56
1.84600	56
1.84967	59
1.85333	61
1.85700	61
1.86067	60
1.86433	58
1.86800	57
1.87167	57
1.87533	58
1.87900	60
1.88267	62
1.88633	63
1.89000	63
1.89367	62
1.89733	62
1.90100	65
1.90467	68
1.90833	69
1.91200	69
1.91567	70
1.91933	71
1.92300	70
1.92667	71
1.93033	71
1.93400	71
1.93767	72
1.94133	74
1.94500	75
1.94867	75
1.95233	75
1.95600	76
1.95967	76
1.96333	77
1.96700	79
1.97067	82
1.97433	84
1.97800	84
1.98167	84
1.98533	85
1.98900	87
1.99267	88
1.99633	89
2.00000	91
2.00367	90
2.00733	90
2.01100	90
2.01467	92
2.01833	93
2.02200	96
2.02567	99
2.02933	100
2.03300	100
2.03667	101
2.04033	103
2.04400	103
2.04767	102
2.05133	104
2.05500	105
2.05867	107
2.06233	110
2.06600	112
2.06967	112
2.07333	113
2.07700	114
2.08067	117
2.08433	118
2.08800	121
2.09167	121
2.09533	119
2.09900	117
2.10267	117
2.10633	121
2.11000	123
2.11367	123
2.11733	124
2.12100	123
2.12467	123
2.12833	127
2.13200	131
2.13567	135
2.13933	137
2.14300	138
2.14667	139
2.15033	140
2.15400	140
2.15767	142
2.16133	143
2.16500	145
2.16867	146
2.17233	148
2.17600	149
2.17967	149
2.18333	152
2.18700	154
2.19067	157
2.19433	158
2.19800	160
2.20167	163
2.20533	166
2.20900	167
2.21267	167
2.21633	168
2.22000	167
2.22367	167
2.22733	168
2.23100	169
2.23467	169
2.23833	170
2.24200	172
2.24567	174
2.24933	176
2.25300	179
2.25667	180
2.26033	181
2.26400	182
2.26767	184
2.27133	188
2.27500	189
2.27867	190
2.28233	193
2.28600	194
2.28967	198
2.29333	199
2.29700	199
2.30067	200
2.30433	202
2.30800	203
2.31167	206
2.31533	210
2.31900	211
2.32267	209
2.32633	209
2.33000	212
2.33367	216
2.33733	220
2.34100	224
2.34467	227
2.34833	227
2.35200	228
2.35567	230
2.35933	234
2.36300	238
2.36667	238
2.37033	238
2.37400	239
2.37767	239
2.38133	239
2.38500	238
2.38867	236
2.39233	238
2.39600	241
2.39967	246
2.40333	249
2.40700	252
2.41067	257
2.41433	263
2.41800	265
2.42167	268
2.42533	269
2.42900	269
2.43267	271
2.43633	274
2.44000	279
2.44367	335
2.44733	481
2.45100	642
2.45467	777
2.45833	855
2.46200	865
2.46567	833
2.46933	794
2.47300	764
2.47667	746
2.48033	733
2.48400	711
2.48767	678
2.49133	636
2.49500	591
2.49867	552
2.50233	522
2.50600	503
2.50967	491
2.51333	488
2.51700	495
2.52067	510
2.52433	531
2.52800	554
2.53167	567
2.53533	570
2.53900	563
2.54267	545
2.54633	520
2.55000	489
2.55367	461
2.55733	436
2.56100	415
2.56467	399
2.56833	388
2.57200	380
2.57567	376
2.57933	374
2.58300	372
2.58667	368
2.59033	365
2.59400	363
2.59767	359
2.60133	351
2.60500	340
2.60867	327
2.61233	312
2.61600	295
2.61967	279
2.62333	265
2.62700	253
2.63067	246
2.63433	246
2.63800	249
2.64167	251
2.64533	253
2.64900	255
2.65267	255
2.65633	254
2.66000	252
2.66367	249
2.66733	245
2.67100	241
2.67467	235
2.67833	228
2.68200	221
2.68567	216
2.68933	209
2.69300	202
2.69667	195
2.70033	193
2.70400	191
2.70767	188
2.71133	188
2.71500	189
2.71867	190
2.72233	190
2.72600	192
2.72967	193
2.73333	194
2.73700	195
2.74067	197
2.74433	199
2.74800	198
2.75167	199
2.75533	200
2.75900	203
2.76267	208
2.76633	211
2.77000	215
2.77367	218
2.77733	217
2.78100	213
2.78467	214
2.78833	216
2.79200	218
2.79567	218
2.79933	220
2.80300	224
2.80667	229
2.81033	233
2.81400	238
2.81767	243
2.82133	254
2.82500	281
2.82867	336
2.83233	437
2.83600	606
2.83967	868
2.84333	1233
2.84700	1699
2.85067	2251
2.85433	2855
2.85800	3463
2.86167	4027
2.86533	4501
2.86900	4846
2.87267	5049
2.87633	5106
2.88000	5031
2.88367	4848
2.88733	4583
2.89100	4265
2.89467	3917
2.89833	3562
2.90200	3216
2.90567	2887
2.90933	2582
2.91300	2304
2.91667	2053
2.92033	1828
2.92400	1629
2.92767	1454
2.93133	1300
2.93500	1165
2.93867	1050
2.94233	947
2.94600	857
2.94967	780
2.95333	712
2.95700	655
2.96067	604
2.96433	558
2.96800	516
2.97167	479
2.97533	450
2.97900	424
2.98267	401
2.98633	379
2.99000	362
2.99367	348
2.99733	334
3.00100	320
3.00467	306
3.00833	294
3.01200	285
3.01567	278
3.01933	273
3.02300	269
3.02667	265
3.03033	259
3.03400	253
3.03767	247
3.04133	242
3.04500	238
3.04867	233
3.05233	229
3.05600	228
3.05967	228
3.06333	227
3.06700	219
3.07067	198
3.07433	173
3.07800	154
3.08167	140
3.08533	136
3.08900	147
3.09267	172
3.09633	205
3.10000	245
3.10367	286
3.10733	327
3.11100	365
3.11467	403
3.11833	436
3.12200	463
3.12567	487
3.12933	508
3.13300	526
3.13667	540
3.14033	554
3.14400	568
3.14767	579
3.15133	586
3.15500	596
3.15867	606
3.16233	614
3.16600	621
3.16967	625
3.17333	628
3.17700	632
3.18067	637
3.18433	643
3.18800	646
3.19167	652
3.19533	657
3.19900	661
3.20267	664
3.20633	669
3.21000	675
3.21367	679
3.21733	685
3.22100	691
3.22467	696
3.22833	702
3.23200	706
3.23567	710
3.23933	713
3.24300	719
3.24667	724
3.25033	728
3.25400	733
3.25767	736
3.26133	740
3.26500	744
3.26867	748
3.27233	753
3.27600	755
3.27967	755
3.28333	758
3.28700	762
3.29067	764
3.29433	765
3.29800	766
3.30167	766
3.30533	767
3.30900	769
3.31267	769
3.31633	769
3.32000	768
3.32367	768
3.32733	767
3.33100	766
3.33467	768
3.33833	769
3.34200	770
3.34567	769
3.34933	765
3.35300	762
3.35667	762
3.36033	764
3.36400	766
3.36767	767
3.37133	765
3.37500	765
3.37867	765
3.38233	762
3.38600	760
3.38967	761
3.39333	762
3.39700	763
3.40067	763
3.40433	760
3.40800	759
3.41167	757
3.41533	757
3.41900	757
3.42267	755
3.42633	753
3.43000	751
3.43367	750
3.43733	750
3.44100	749
3.44467	748
3.44833	745
3.45200	740
3.45567	736
3.45933	732
3.46300	730
3.46667	730
3.47033	728
3.47400	726
3.47767	726
3.48133	726
3.48500	725
3.48867	724
3.49233	723
3.49600	722
3.49967	719
3.50333	716
3.50700	716
3.51067	716
3.51433	714
3.51800	715
3.52167	715
3.52533	713
3.52900	712
3.53267	710
3.53633	708
3.54000	704
3.54367	701
3.54733	700
3.55100	699
3.55467	699
3.55833	699
3.56200	696
3.56567	696
3.56933	699
3.57300	701
3.57667	701
3.58033	701
3.58400	703
3.58767	704
3.59133	704
3.59500	703
3.59867	702
3.60233	701
3.60600	702
3.60967	700
3.61333	699
3.61700	699
3.62067	699
3.62433	700
3.62800	700
3.63167	698
3.63533	696
3.63900	698
3.64267	700
3.64633	701
3.65000	703
3.65367	701
3.65733	699
3.66100	698
3.66467	698
3.66833	699
3.67200	698
3.67567	695
3.67933	695
3.68300	696
3.68667	698
3.69033	698
3.69400	697
3.69767	694
3.70133	691
3.70500	687
3.70867	684
3.71233	683
3.71600	684
3.71967	684
3.72333	684
3.72700	683
3.73067	680
3.73433	680
3.73800	680
3.74167	678
3.74533	677
3.74900	677
3.75267	679
3.75633	680
3.76000	677
3.76367	677
3.76733	675
3.77100	675
3.77467	675
3.77833	675
3.78200	676
3.78567	673
3.78933	669
3.79300	668
3.79667	669
3.80033	668
3.80400	668
3.80767	667
3.81133	667
3.81500	667
3.81867	666
3.82233	665
3.82600	664
3.82967	662
3.83333	661
3.83700	660
3.84067	658
3.84433	655
3.84800	652
3.85167	649
3.85533	646
3.85900	643
3.86267	642
3.86633	643
3.87000	645
3.87367	644
3.87733	644
3.88100	642
3.88467	639
3.88833	635
3.89200	631
3.89567	628
3.89933	627
3.90300	627
3.90667	626
3.91033	623
3.91400	621
3.91767	618
3.92133	617
3.92500	616
3.92867	614
3.93233	614
3.93600	613
3.93967	610
3.94333	607
3.94700	604
3.95067	602
3.95433	601
3.95800	601
3.96167	601
3.96533	597
3.96900	594
3.97267	593
3.97633	593
3.98000	591
3.98367	590
3.98733	590
3.99100	589
3.99467	588
3.99833	586

[Status Trace (Column Oven Temperature)]
Interval(msec)	1000
# of Points	240
Start Time(min)	0.006
End Time(min)	3.989
Intensity Units	
Intensity Multiplier	1
R.Time (min)	Intensity
0.00562	35.05
0.02228	35.05
0.03895	35.05
0.05562	35.04
0.07228	35.02
0.08895	35.03
0.10562	35.03
0.12228	35.03
0.13895	35.03
0.15562	35.02
0.17228	35.02
0.18895	35.02
0.20562	35.03
0.22228	35.03
0.23895	35.03
0.25562	35.03
0.27228	35.02
0.28895	35.02
0.30562	35.03
0.32228	35.04
0.33895	35.05
0.35562	35.06
0.37228	35.05
0.38895	35.05
0.40562	35.04
0.42228	35.03
0.43895	35.02
0.45562	35.02
0.47228	35.01
0.48895	35.01
0.50562	35.01
0.52228	35.02
0.53895	35.02
0.55562	35.02
0.57228	35.01
0.58895	35.01
0.60562	35.01
0.62228	35.01
0.63895	35.01
0.65562	35.01
0.67228	35.00
0.68895	34.99
0.70562	34.99
0.72228	35.00
0.73895	35.00
0.75562	35.01
0.77228	35.01
0.78895	35.02
0.80562	35.01
0.82228	35.02
0.83895	35.01
0.85562	35.00
0.87228	35.00
0.88895	35.00
0.90562	35.00
0.92228	35.00
0.93895	34.99
0.95562	34.99
0.97228	34.99
0.98895	34.98
1.00562	34.97
1.02228	34.96
1.03895	34.96
1.05562	34.95
1.07228	34.95
1.08895	34.97
1.10562	34.99
1.12228	35.01
1.13895	35.01
1.15562	35.00
1.17228	35.00
1.18895	35.00
1.20562	35.00
1.22228	35.00
1.23895	35.00
1.25562	35.01
1.27228	35.01
1.28895	35.01
1.30562	35.01
1.32228	35.00
1.33895	35.00
1.35562	35.00
1.37228	34.99
1.38895	34.99
1.40562	35.00
1.42228	35.00
1.43895	34.99
1.45562	34.99
1.47228	34.99
1.48895	34.99
1.50562	35.00
1.52228	34.99
1.53895	34.99
1.55562	34.99
1.57228	34.98
1.58895	34.99
1.60562	35.03
1.62228	35.12
1.63895	35.30
1.65562	35.55
1.67228	35.91
1.68895	36.29
1.70562	36.64
1.72228	36.98
1.73895	37.29
1.75562	37.65
1.77228	37.99
1.78895	38.28
1.80562	38.60
1.82228	38.96
1.83895	39.28
1.85562	39.62
1.87228	39.95
1.88895	40.29
1.90562	40.62
1.92228	40.94
1.93895	41.27
1.95562	41.58
1.97228	41.91
1.98895	42.24
2.00562	42.55
2.02228	42.90
2.03895	43.22
2.05562	43.53
2.07228	43.86
2.08895	44.19
2.10562	44.50
2.12228	44.83
2.13895	45.16
2.15562	45.50
2.17228	45.84
2.18895	46.14
2.20562	46.46
2.22228	46.79
2.23895	47.10
2.25562	47.46
2.27228	47.79
2.28895	48.12
2.30562	48.45
2.32228	48.78
2.33895	49.11
2.35562	49.44
2.37228	49.62
2.38895	49.66
2.40562	49.65
2.42228	49.67
2.43895	49.68
2.45562	49.69
2.47228	49.69
2.48895	49.70
2.50562	49.70
2.52228	49.70
2.53895	49.72
2.55562	49.73
2.57228	49.74
2.58895	49.77
2.60562	49.79
2.62228	49.81
2.63895	49.81
2.65562	49.82
2.67228	49.83
2.68895	49.83
2.70562	49.85
2.72228	49.87
2.73895	49.85
2.75562	49.84
2.77228	49.87
2.78895	49.89
2.80562	49.90
2.82228	49.89
2.83895	49.90
2.85562	49.89
2.87228	49.89
2.88895	49.90
2.90562	49.92
2.92228	49.93
2.93895	49.93
2.95562	49.94
2.97228	49.94
2.98895	49.95
3.00562	49.96
3.02228	49.95
3.03895	49.97
3.05562	49.99
3.07228	50.01
3.08895	50.03
3.10562	50.04
3.12228	50.05
3.13895	50.06
3.15562	50.06
3.17228	50.07
3.18895	50.07
3.20562	50.07
3.22228	50.08
3.23895	50.08
3.25562	50.09
3.27228	50.09
3.28895	50.10
3.30562	50.09
3.32228	50.10
3.33895	50.09
3.35562	50.10
3.37228	50.11
3.38895	50.10
3.40562	50.09
3.42228	50.08
3.43895	50.08
3.45562	50.08
3.47228	50.09
3.48895	50.08
3.50562	50.07
3.52228	50.07
3.53895	50.06
3.55562	50.06
3.57228	50.06
3.58895	50.07
3.60562	50.08
3.62228	50.09
3.63895	50.09
3.65562	50.10
3.67228	50.09
3.68895	50.09
3.70562	50.08
3.72228	50.07
3.73895	50.05
3.75562	50.04
3.77228	50.04
3.78895	50.04
3.80562	50.04
3.82228	50.05
3.83895	50.06
3.85562	50.07
3.87228	50.08
3.88895	50.08
3.90562	50.07
3.92228	50.06
3.93895	50.05
3.95562	50.04
3.97228	50.04
3.98895	50.04

[Status Trace (Injection Unit Temperature)]
Interval(msec)	1000
# of Points	240
Start Time(min)	0.006
End Time(min)	3.989
Intensity Units	
Intensity Multiplier	1
R.Time (min)	Intensity
0.00562	99.98
0.02228	99.98
0.03895	99.98
0.05562	99.98
0.07228	99.99
0.08895	99.98
0.10562	99.98
0.12228	99.98
0.13895	99.98
0.15562	99.98
0.17228	99.99
0.18895	99.98
0.20562	99.98
0.22228	99.98
0.23895	99.99
0.25562	99.98
0.27228	99.99
0.28895	99.98
0.30562	99.99
0.32228	99.99
0.33895	99.99
0.35562	99.98
0.37228	99.98
0.38895	99.99
0.40562	99.99
0.42228	99.99
0.43895	99.99
0.45562	99.99
0.47228	99.98
0.48895	99.99
0.50562	99.98
0.52228	99.99
0.53895	99.99
0.55562	99.98
0.57228	99.98
0.58895	99.98
0.60562	99.98
0.62228	99.98
0.63895	99.98
0.65562	99.98
0.67228	99.98
0.68895	99.98
0.70562	99.98
0.72228	99.98
0.73895	99.98
0.75562	99.98
0.77228	99.98
0.78895	99.98
0.80562	99.98
0.82228	99.98
0.83895	99.98
0.85562	99.98
0.87228	99.98
0.88895	99.98
0.90562	99.97
0.92228	99.98
0.93895	99.98
0.95562	99.98
0.97228	99.98
0.98895	99.98
1.00562	99.98
1.02228	99.98
1.03895	99.98
1.05562	99.98
1.07228	99.98
1.08895	99.98
1.10562	99.98
1.12228	99.98
1.13895	99.98
1.15562	99.98
1.17228	99.98
1.18895	99.98
1.20562	99.99
1.22228	99.98
1.23895	99.98
1.25562	99.99
1.27228	99.98
1.28895	99.98
1.30562	99.98
1.32228	99.99
1.33895	99.98
1.35562	99.99
1.37228	99.98
1.38895	99.98
1.40562	99.99
1.42228	99.99
1.43895	99.98
1.45562	99.99
1.47228	99.98
1.48895	99.99
1.50562	99.99
1.52228	99.99
1.53895	99.99
1.55562	99.99
1.57228	99.99
1.58895	99.98
1.60562	99.99
1.62228	99.99
1.63895	99.99
1.65562	99.99
1.67228	99.99
1.68895	99.99
1.70562	99.99
1.72228	99.99
1.73895	99.99
1.75562	99.99
1.77228	99.99
1.78895	99.99
1.80562	99.99
1.82228	99.99
1.83895	99.99
1.85562	99.99
1.87228	99.99
1.88895	99.99
1.90562	99.99
1.92228	99.99
1.93895	99.98
1.95562	99.98
1.97228	99.98
1.98895	99.98
2.00562	99.98
2.02228	99.98
2.03895	99.98
2.05562	99.98
2.07228	99.98
2.08895	99.97
2.10562	99.97
2.12228	99.97
2.13895	99.97
2.15562	99.97
2.17228	99.97
2.18895	99.97
2.20562	99.97
2.22228	99.97
2.23895	99.97
2.25562	99.97
2.27228	99.97
2.28895	99.96
2.30562	99.97
2.32228	99.97
2.33895	99.96
2.35562	99.97
2.37228	99.96
2.38895	99.97
2.40562	99.96
2.42228	99.96
2.43895	99.96
2.45562	99.96
2.47228	99.97
2.48895	99.97
2.50562	99.97
2.52228	99.96
2.53895	99.96
2.55562	99.96
2.57228	99.97
2.58895	99.97
2.60562	99.97
2.62228	99.97
2.63895	99.97
2.65562	99.97
2.67228	99.98
2.68895	99.98
2.70562	99.97
2.72228	99.98
2.73895	99.98
2.75562	99.98
2.77228	99.98
2.78895	99.98
2.80562	99.99
2.82228	99.99
2.83895	99.99
2.85562	99.99
2.87228	100.00
2.88895	99.99
2.90562	99.99
2.92228	100.00
2.93895	100.00
2.95562	100.00
2.97228	100.00
2.98895	100.01
3.00562	100.01
3.02228	100.01
3.03895	100.01
3.05562	100.01
3.07228	100.01
3.08895	100.01
3.10562	100.02
3.12228	100.02
3.13895	100.02
3.15562	100.02
3.17228	100.02
3.18895	100.02
3.20562	100.02
3.22228	100.02
3.23895	100.03
3.25562	100.03
3.27228	100.02
3.28895	100.02
3.30562	100.03
3.32228	100.03
3.33895	100.03
3.35562	100.03
3.37228	100.03
3.38895	100.04
3.40562	100.03
3.42228	100.04
3.43895	100.04
3.45562	100.04
3.47228	100.04
3.48895	100.04
3.50562	100.04
3.52228	100.03
3.53895	100.04
3.55562	100.04
3.57228	100.04
3.58895	100.04
3.60562	100.04
3.62228	100.04
3.63895	100.04
3.65562	100.04
3.67228	100.04
3.68895	100.05
3.70562	100.04
3.72228	100.04
3.73895	100.05
3.75562	100.04
3.77228	100.05
3.78895	100.05
3.80562	100.05
3.82228	100.05
3.83895	100.05
3.85562	100.05
3.87228	100.05
3.88895	100.05
3.90562	100.05
3.92228	100.05
3.93895	100.04
3.95562	100.05
3.97228	100.05
3.98895	100.04

[Status Trace (Carrier Gas Pressure)]
Interval(msec)	1000
# of Points	240
Start Time(min)	0.006
End Time(min)	3.989
Intensity Units	
Intensity Multiplier	1
R.Time (min)	Intensity
0.00562	58.00
0.02228	55.67
0.03895	56.75
0.05562	58.98
0.07228	59.62
0.08895	58.14
0.10562	57.98
0.12228	58.01
0.13895	58.01
0.15562	58.01
0.17228	58.00
0.18895	58.00
0.20562	58.00
0.22228	58.00
0.23895	58.00
0.25562	58.00
0.27228	58.00
0.28895	58.00
0.30562	58.00
0.32228	58.00
0.33895	58.00
0.35562	58.00
0.37228	58.00
0.38895	58.00
0.40562	58.00
0.42228	58.00
0.43895	58.00
0.45562	58.00
0.47228	58.00
0.48895	58.00
0.50562	58.00
0.52228	58.00
0.53895	58.00
0.55562	58.00
0.57228	58.00
0.58895	58.00
0.60562	58.00
0.62228	58.00
0.63895	58.00
0.65562	58.00
0.67228	58.00
0.68895	58.00
0.70562	58.00
0.72228	58.00
0.73895	58.00
0.75562	58.00
0.77228	58.00
0.78895	58.00
0.80562	58.00
0.82228	58.00
0.83895	58.00
0.85562	58.00
0.87228	58.00
0.88895	58.00
0.90562	58.00
0.92228	58.00
0.93895	58.00
0.95562	58.00
0.97228	58.00
0.98895	58.00
1.00562	58.00
1.02228	58.00
1.03895	58.00
1.05562	58.00
1.07228	58.00
1.08895	58.00
1.10562	58.00
1.12228	58.00
1.13895	58.00
1.15562	58.00
1.17228	58.00
1.18895	58.00
1.20562	58.00
1.22228	58.00
1.23895	58.00
1.25562	58.00
1.27228	58.00
1.28895	58.00
1.30562	58.00
1.32228	58.00
1.33895	58.00
1.35562	58.00
1.37228	58.00
1.38895	58.00
1.40562	58.00
1.42228	58.00
1.43895	58.00
1.45562	58.00
1.47228	58.00
1.48895	58.00
1.50562	58.00
1.52228	58.00
1.53895	58.00
1.55562	58.00
1.57228	58.00
1.58895	58.00
1.60562	58.00
1.62228	58.00
1.63895	58.00
1.65562	58.01
1.67228	58.01
1.68895	58.00
1.70562	58.00
1.72228	58.00
1.73895	58.00
1.75562	58.00
1.77228	58.00
1.78895	58.00
1.80562	58.00
1.82228	58.00
1.83895	58.00
1.85562	58.00
1.87228	58.00
1.88895	58.00
1.90562	58.00
1.92228	58.00
1.93895	58.00
1.95562	58.00
1.97228	58.00
1.98895	58.00
2.00562	58.00
2.02228	58.00
2.03895	58.00
2.05562	58.00
2.07228	58.00
2.08895	58.00
2.10562	58.00
2.12228	58.00
2.13895	58.00
2.15562	58.00
2.17228	58.00
2.18895	58.00
2.20562	58.00
2.22228	58.00
2.23895	58.00
2.25562	58.00
2.27228	58.00
2.28895	58.00
2.30562	58.00
2.32228	58.00
2.33895	58.00
2.35562	58.00
2.37228	57.99
2.38895	57.99
2.40562	57.99
2.42228	58.00
2.43895	58.00
2.45562	58.00
2.47228	58.00
2.48895	58.00
2.50562	57.99
2.52228	57.98
2.53895	58.00
2.55562	58.00
2.57228	58.00
2.58895	58.00
2.60562	58.00
2.62228	58.00
2.63895	58.00
2.65562	58.00
2.67228	58.00
2.68895	58.00
2.70562	58.00
2.72228	58.00
2.73895	58.00
2.75562	58.00
2.77228	58.00
2.78895	58.00
2.80562	58.00
2.82228	58.00
2.83895	58.00
2.85562	58.00
2.87228	58.00
2.88895	58.00
2.90562	58.00
2.92228	58.00
2.93895	58.00
2.95562	58.00
2.97228	58.00
2.98895	58.00
3.00562	58.00
3.02228	58.00
3.03895	58.00
3.05562	58.00
3.07228	58.00
3.08895	58.00
3.10562	58.00
3.12228	58.00
3.13895	58.00
3.15562	58.00
3.17228	58.00
3.18895	58.00
3.20562	58.00
3.22228	58.00
3.23895	58.00
3.25562	58.00
3.27228	58.00
3.28895	58.00
3.30562	58.00
3.32228	58.00
3.33895	58.00
3.35562	58.00
3.37228	58.00
3.38895	58.00
3.40562	58.00
3.42228	58.00
3.43895	58.00
3.45562	58.00
3.47228	58.00
3.48895	58.00
3.50562	58.00
3.52228	58.00
3.53895	58.00
3.55562	58.00
3.57228	58.00
3.58895	58.00
3.60562	58.00
3.62228	58.00
3.63895	58.00
3.65562	58.00
3.67228	58.00
3.68895	58.00
3.70562	58.00
3.72228	58.00
3.73895	58.00
3.75562	58.00
3.77228	58.00
3.78895	58.00
3.80562	58.00
3.82228	58.00
3.83895	58.00
3.85562	58.00
3.87228	58.00
3.88895	58.00
3.90562	58.00
3.92228	58.00
3.93895	58.00
3.95562	58.00
3.97228	58.00
3.98895	58.00

[Status Trace (Carrier Gas Flow)]
Interval(msec)	1000
# of Points	240
Start Time(min)	0.006
End Time(min)	3.989
Intensity Units	
Intensity Multiplier	1
R.Time (min)	Intensity
0.00562	34.52
0.02228	34.54
0.03895	34.54
0.05562	34.55
0.07228	34.50
0.08895	34.52
0.10562	34.52
0.12228	34.52
0.13895	34.52
0.15562	34.52
0.17228	34.52
0.18895	34.52
0.20562	34.52
0.22228	34.52
0.23895	34.52
0.25562	34.52
0.27228	34.52
0.28895	34.52
0.30562	34.52
0.32228	34.51
0.33895	34.52
0.35562	34.52
0.37228	34.52
0.38895	34.52
0.40562	34.52
0.42228	34.52
0.43895	34.52
0.45562	34.52
0.47228	34.52
0.48895	34.52
0.50562	34.52
0.52228	34.53
0.53895	34.52
0.55562	34.52
0.57228	34.52
0.58895	34.52
0.60562	34.52
0.62228	34.52
0.63895	34.52
0.65562	34.52
0.67228	34.52
0.68895	34.53
0.70562	34.52
0.72228	34.52
0.73895	34.52
0.75562	34.52
0.77228	34.52
0.78895	34.52
0.80562	34.52
0.82228	34.52
0.83895	34.52
0.85562	34.52
0.87228	34.52
0.88895	34.52
0.90562	34.52
0.92228	34.52
0.93895	34.52
0.95562	34.52
0.97228	34.52
0.98895	34.52
1.00562	34.52
1.02228	34.52
1.03895	34.52
1.05562	34.52
1.07228	34.52
1.08895	34.52
1.10562	34.51
1.12228	34.52
1.13895	34.52
1.15562	34.52
1.17228	34.52
1.18895	34.51
1.20562	34.52
1.22228	34.52
1.23895	34.52
1.25562	34.52
1.27228	34.52
1.28895	34.52
1.30562	34.52
1.32228	34.52
1.33895	34.52
1.35562	34.52
1.37228	34.52
1.38895	34.52
1.40562	34.53
1.42228	34.52
1.43895	34.52
1.45562	34.52
1.47228	34.51
1.48895	34.52
1.50562	34.52
1.52228	34.52
1.53895	34.52
1.55562	34.52
1.57228	34.51
1.58895	34.52
1.60562	34.51
1.62228	34.52
1.63895	34.51
1.65562	34.52
1.67228	34.52
1.68895	34.52
1.70562	34.51
1.72228	34.52
1.73895	34.52
1.75562	34.52
1.77228	34.51
1.78895	34.52
1.80562	34.52
1.82228	34.52
1.83895	34.51
1.85562	34.52
1.87228	34.52
1.88895	34.52
1.90562	34.51
1.92228	34.52
1.93895	34.52
1.95562	34.52
1.97228	34.52
1.98895	34.52
2.00562	34.52
2.02228	34.52
2.03895	34.52
2.05562	34.52
2.07228	34.52
2.08895	34.51
2.10562	34.52
2.12228	34.52
2.13895	34.52
2.15562	34.52
2.17228	34.52
2.18895	34.52
2.20562	34.52
2.22228	34.52
2.23895	34.52
2.25562	34.52
2.27228	34.52
2.28895	34.51
2.30562	34.52
2.32228	34.52
2.33895	34.52
2.35562	34.52
2.37228	34.52
2.38895	34.52
2.40562	34.52
2.42228	34.52
2.43895	34.52
2.45562	34.52
2.47228	34.52
2.48895	34.52
2.50562	34.51
2.52228	34.52
2.53895	34.52
2.55562	34.51
2.57228	34.52
2.58895	34.52
2.60562	34.52
2.62228	34.52
2.63895	34.52
2.65562	34.52
2.67228	34.52
2.68895	34.52
2.70562	34.51
2.72228	34.52
2.73895	34.52
2.75562	34.52
2.77228	34.52
2.78895	34.52
2.80562	34.52
2.82228	34.52
2.83895	34.52
2.85562	34.52
2.87228	34.52
2.88895	34.52
2.90562	34.52
2.92228	34.52
2.93895	34.52
2.95562	34.52
2.97228	34.52
2.98895	34.52
3.00562	34.52
3.02228	34.52
3.03895	34.52
3.05562	34.52
3.07228	34.52
3.08895	34.52
3.10562	34.52
3.12228	34.52
3.13895	34.52
3.15562	34.52
3.17228	34.52
3.18895	34.52
3.20562	34.52
3.22228	34.52
3.23895	34.52
3.25562	34.52
3.27228	34.52
3.28895	34.52
3.30562	34.52
3.32228	34.52
3.33895	34.52
3.35562	34.52
3.37228	34.52
3.38895	34.52
3.40562	34.52
3.42228	34.52
3.43895	34.52
3.45562	34.52
3.47228	34.52
3.48895	34.52
3.50562	34.52
3.52228	34.52
3.53895	34.52
3.55562	34.52
3.57228	34.52
3.58895	34.52
3.60562	34.52
3.62228	34.52
3.63895	34.52
3.65562	34.51
3.67228	34.52
3.68895	34.52
3.70562	34.52
3.72228	34.52
3.73895	34.52
3.75562	34.52
3.77228	34.52
3.78895	34.52
3.80562	34.52
3.82228	34.52
3.83895	34.52
3.85562	34.51
3.87228	34.52
3.88895	34.52
3.90562	34.52
3.92228	34.51
3.93895	34.52
3.95562	34.52
3.97228	34.52
3.98895	34.52

[Status Trace (Column Flow)]
Interval(msec)	1000
# of Points	240
Start Time(min)	0.006
End Time(min)	3.989
Intensity Units	
Intensity Multiplier	1
R.Time (min)	Intensity
0.00562	5.52
0.02228	5.25
0.03895	5.38
0.05562	5.64
0.07228	5.71
0.08895	5.54
0.10562	5.52
0.12228	5.52
0.13895	5.52
0.15562	5.52
0.17228	5.52
0.18895	5.52
0.20562	5.52
0.22228	5.52
0.23895	5.52
0.25562	5.52
0.27228	5.52
0.28895	5.52
0.30562	5.52
0.32228	5.52
0.33895	5.52
0.35562	5.52
0.37228	5.52
0.38895	5.52
0.40562	5.52
0.42228	5.52
0.43895	5.52
0.45562	5.52
0.47228	5.52
0.48895	5.52
0.50562	5.52
0.52228	5.52
0.53895	5.52
0.55562	5.52
0.57228	5.52
0.58895	5.52
0.60562	5.52
0.62228	5.52
0.63895	5.52
0.65562	5.52
0.67228	5.52
0.68895	5.52
0.70562	5.52
0.72228	5.52
0.73895	5.52
0.75562	5.52
0.77228	5.52
0.78895	5.52
0.80562	5.52
0.82228	5.52
0.83895	5.52
0.85562	5.52
0.87228	5.52
0.88895	5.52
0.90562	5.52
0.92228	5.52
0.93895	5.52
0.95562	5.52
0.97228	5.52
0.98895	5.52
1.00562	5.52
1.02228	5.52
1.03895	5.52
1.05562	5.52
1.07228	5.52
1.08895	5.52
1.10562	5.52
1.12228	5.52
1.13895	5.52
1.15562	5.52
1.17228	5.52
1.18895	5.52
1.20562	5.52
1.22228	5.52
1.23895	5.52
1.25562	5.52
1.27228	5.52
1.28895	5.52
1.30562	5.52
1.32228	5.52
1.33895	5.52
1.35562	5.52
1.37228	5.52
1.38895	5.52
1.40562	5.52
1.42228	5.52
1.43895	5.52
1.45562	5.52
1.47228	5.52
1.48895	5.52
1.50562	5.52
1.52228	5.52
1.53895	5.52
1.55562	5.52
1.57228	5.52
1.58895	5.52
1.60562	5.52
1.62228	5.52
1.63895	5.51
1.65562	5.51
1.67228	5.49
1.68895	5.48
1.70562	5.47
1.72228	5.46
1.73895	5.45
1.75562	5.44
1.77228	5.43
1.78895	5.42
1.80562	5.41
1.82228	5.40
1.83895	5.39
1.85562	5.38
1.87228	5.37
1.88895	5.36
1.90562	5.35
1.92228	5.34
1.93895	5.33
1.95562	5.32
1.97228	5.31
1.98895	5.30
2.00562	5.29
2.02228	5.28
2.03895	5.27
2.05562	5.26
2.07228	5.25
2.08895	5.24
2.10562	5.23
2.12228	5.22
2.13895	5.22
2.15562	5.21
2.17228	5.20
2.18895	5.19
2.20562	5.18
2.22228	5.17
2.23895	5.16
2.25562	5.15
2.27228	5.14
2.28895	5.13
2.30562	5.12
2.32228	5.11
2.33895	5.10
2.35562	5.09
2.37228	5.09
2.38895	5.09
2.40562	5.09
2.42228	5.09
2.43895	5.09
2.45562	5.09
2.47228	5.09
2.48895	5.09
2.50562	5.09
2.52228	5.08
2.53895	5.09
2.55562	5.09
2.57228	5.09
2.58895	5.08
2.60562	5.08
2.62228	5.08
2.63895	5.08
2.65562	5.08
2.67228	5.08
2.68895	5.08
2.70562	5.08
2.72228	5.08
2.73895	5.08
2.75562	5.08
2.77228	5.08
2.78895	5.08
2.80562	5.08
2.82228	5.08
2.83895	5.08
2.85562	5.08
2.87228	5.08
2.88895	5.08
2.90562	5.08
2.92228	5.08
2.93895	5.08
2.95562	5.08
2.97228	5.08
2.98895	5.08
3.00562	5.08
3.02228	5.08
3.03895	5.08
3.05562	5.08
3.07228	5.08
3.08895	5.08
3.10562	5.08
3.12228	5.08
3.13895	5.08
3.15562	5.08
3.17228	5.08
3.18895	5.08
3.20562	5.08
3.22228	5.08
3.23895	5.08
3.25562	5.08
3.27228	5.08
3.28895	5.08
3.30562	5.08
3.32228	5.08
3.33895	5.08
3.35562	5.08
3.37228	5.08
3.38895	5.08
3.40562	5.08
3.42228	5.08
3.43895	5.08
3.45562	5.08
3.47228	5.08
3.48895	5.08
3.50562	5.08
3.52228	5.08
3.53895	5.08
3.55562	5.08
3.57228	5.08
3.58895	5.08
3.60562	5.08
3.62228	5.08
3.63895	5.08
3.65562	5.08
3.67228	5.08
3.68895	5.08
3.70562	5.08
3.72228	5.08
3.73895	5.08
3.75562	5.08
3.77228	5.08
3.78895	5.08
3.80562	5.08
3.82228	5.08
3.83895	5.08
3.85562	5.08
3.87228	5.08
3.88895	5.08
3.90562	5.08
3.92228	5.08
3.93895	5.08
3.95562	5.08
3.97228	5.08
3.98895	5.08

[Status Trace (Linear Velocity)]
Interval(msec)	1000
# of Points	240
Start Time(min)	0.006
End Time(min)	3.989
Intensity Units	
Intensity Multiplier	1
R.Time (min)	Intensity
0.00562	39.01
0.02228	37.48
0.03895	38.19
0.05562	39.65
0.07228	40.07
0.08895	39.11
0.10562	39.00
0.12228	39.02
0.13895	39.02
0.15562	39.02
0.17228	39.02
0.18895	39.02
0.20562	39.02
0.22228	39.01
0.23895	39.01
0.25562	39.01
0.27228	39.02
0.28895	39.02
0.30562	39.01
0.32228	39.01
0.33895	39.01
0.35562	39.01
0.37228	39.01
0.38895	39.01
0.40562	39.01
0.42228	39.01
0.43895	39.01
0.45562	39.02
0.47228	39.02
0.48895	39.02
0.50562	39.02
0.52228	39.02
0.53895	39.01
0.55562	39.01
0.57228	39.02
0.58895	39.02
0.60562	39.02
0.62228	39.02
0.63895	39.02
0.65562	39.02
0.67228	39.02
0.68895	39.02
0.70562	39.02
0.72228	39.02
0.73895	39.02
0.75562	39.02
0.77228	39.02
0.78895	39.02
0.80562	39.02
0.82228	39.02
0.83895	39.02
0.85562	39.02
0.87228	39.02
0.88895	39.02
0.90562	39.02
0.92228	39.02
0.93895	39.02
0.95562	39.02
0.97228	39.02
0.98895	39.02
1.00562	39.02
1.02228	39.02
1.03895	39.02
1.05562	39.02
1.07228	39.02
1.08895	39.02
1.10562	39.02
1.12228	39.02
1.13895	39.02
1.15562	39.02
1.17228	39.02
1.18895	39.02
1.20562	39.02
1.22228	39.02
1.23895	39.02
1.25562	39.02
1.27228	39.02
1.28895	39.02
1.30562	39.02
1.32228	39.02
1.33895	39.02
1.35562	39.02
1.37228	39.02
1.38895	39.02
1.40562	39.02
1.42228	39.02
1.43895	39.02
1.45562	39.02
1.47228	39.02
1.48895	39.02
1.50562	39.02
1.52228	39.02
1.53895	39.02
1.55562	39.02
1.57228	39.02
1.58895	39.02
1.60562	39.02
1.62228	39.01
1.63895	38.99
1.65562	38.97
1.67228	38.93
1.68895	38.90
1.70562	38.86
1.72228	38.83
1.73895	38.80
1.75562	38.76
1.77228	38.73
1.78895	38.71
1.80562	38.67
1.82228	38.64
1.83895	38.61
1.85562	38.58
1.87228	38.55
1.88895	38.52
1.90562	38.48
1.92228	38.45
1.93895	38.43
1.95562	38.39
1.97228	38.36
1.98895	38.34
2.00562	38.30
2.02228	38.27
2.03895	38.25
2.05562	38.21
2.07228	38.19
2.08895	38.16
2.10562	38.13
2.12228	38.10
2.13895	38.07
2.15562	38.04
2.17228	38.00
2.18895	37.98
2.20562	37.95
2.22228	37.92
2.23895	37.89
2.25562	37.86
2.27228	37.83
2.28895	37.80
2.30562	37.77
2.32228	37.74
2.33895	37.72
2.35562	37.68
2.37228	37.66
2.38895	37.66
2.40562	37.66
2.42228	37.66
2.43895	37.66
2.45562	37.66
2.47228	37.66
2.48895	37.66
2.50562	37.65
2.52228	37.65
2.53895	37.66
2.55562	37.66
2.57228	37.66
2.58895	37.65
2.60562	37.65
2.62228	37.65
2.63895	37.65
2.65562	37.65
2.67228	37.65
2.68895	37.65
2.70562	37.65
2.72228	37.64
2.73895	37.65
2.75562	37.65
2.77228	37.64
2.78895	37.64
2.80562	37.64
2.82228	37.64
2.83895	37.64
2.85562	37.64
2.87228	37.64
2.88895	37.64
2.90562	37.64
2.92228	37.64
2.93895	37.64
2.95562	37.64
2.97228	37.64
2.98895	37.64
3.00562	37.64
3.02228	37.64
3.03895	37.64
3.05562	37.63
3.07228	37.63
3.08895	37.63
3.10562	37.63
3.12228	37.63
3.13895	37.63
3.15562	37.63
3.17228	37.63
3.18895	37.63
3.20562	37.63
3.22228	37.63
3.23895	37.63
3.25562	37.62
3.27228	37.62
3.28895	37.62
3.30562	37.62
3.32228	37.62
3.33895	37.62
3.35562	37.62
3.37228	37.62
3.38895	37.62
3.40562	37.62
3.42228	37.63
3.43895	37.63
3.45562	37.63
3.47228	37.63
3.48895	37.63
3.50562	37.63
3.52228	37.63
3.53895	37.63
3.55562	37.63
3.57228	37.63
3.58895	37.63
3.60562	37.63
3.62228	37.63
3.63895	37.62
3.65562	37.62
3.67228	37.62
3.68895	37.62
3.70562	37.63
3.72228	37.63
3.73895	37.63
3.75562	37.63
3.77228	37.63
3.78895	37.63
3.80562	37.63
3.82228	37.63
3.83895	37.63
3.85562	37.63
3.87228	37.63
3.88895	37.63
3.90562	37.63
3.92228	37.63
3.93895	37.63
3.95562	37.63
3.97228	37.63
3.98895	37.63

