[Header]
Application Name	LabSolutions
Version	5.110
Data File Name	C:\Users\User\Desktop\GC Analyses\Jack\Nachusa Grasslands Sampling\T2 Timepoint July 12th\T2_07122022_056.gcd
Output Date	3/14/2023
Output Time	3:42:33 PM

[File Information]
Type	Data File
Generated	3/10/2023 6:38:52 PM
Generated by	System Administrator
Modified	3/10/2023 6:45:34 PM
Modified by	System Administrator

[Sample Information]
Operator Name	System Administrator
Acquired	3/10/2023 6:41:34 PM
Sample Type	0:Unknown
Level	0
Sample Name	056
Sample ID	056
ISTD Amount1	1
ISTD Amount2	1
ISTD Amount3	1
ISTD Amount4	1
ISTD Amount5	1
ISTD Amount6	1
ISTD Amount7	1
ISTD Amount8	1
ISTD Amount9	1
ISTD Amount10	1
ISTD Amount11	1
ISTD Amount12	1
ISTD Amount13	1
ISTD Amount14	1
ISTD Amount15	1
ISTD Amount16	1
ISTD Amount17	1
ISTD Amount18	1
ISTD Amount19	1
ISTD Amount20	1
ISTD Amount21	1
ISTD Amount22	1
ISTD Amount23	1
ISTD Amount24	1
ISTD Amount25	1
ISTD Amount26	1
ISTD Amount27	1
ISTD Amount28	1
ISTD Amount29	1
ISTD Amount30	1
ISTD Amount31	1
ISTD Amount32	1
Sample Amount	1
Dilution Factor	1
Vial#	55
Injection Volume	1
Injection Count	1
Bar Code	

[Original Files]
Data File	C:\Users\User\Desktop\GC Analyses\Jack\Nachusa Grasslands Sampling\T1 Timepoint July 12th\T2_07122022_056.gcd
Method File	C:\LabSolutions\Data\GHG_4min_2022\ghg3_togas_w_acet_4 min_new_int.gcm
Batch File	C:\LabSolutions\Data\AutoSamplerTesting\T2_07122022.gcb
Report Format File	c:\LabSolutions\System\DEFAULT.lsr

[File Description]


[Configuration]
Instrument Name	C0B7VH3-Instrument1
Instrument #	1
Line #	1
# of Detectors	3
Detector ID	DET#1	DET#2	DET#3
Detector Name	FID	PTCD	ECD
# of Channels	1	1	1

[Peak Table(Ch1)]
# of Peaks	3
Peak#	R.Time	I.Time	F.Time	Area	Height	A/H	Conc.	Mark	ID#	Name	k'	Plate #	Plate Ht.	Tailing	Resolution	Sep.Factor	Area Ratio	Height Ratio	Conc. %	Norm Conc.
1	1.476	1.435	1.538	21514	10105	2.129	151.887	   	1	CO	0.000	9227	16.257	1.284	0.000	0.000	0	0	17.580	17.580
2	1.567	1.538	1.626	4407	2220	1.985	85.204	 V 	2	CH4	0.062	10715	14.000	0.000	1.503	0.000	0	0	9.862	9.862
3	1.996	1.949	2.579	2497816	1190362	2.098	626.884	   	3	CO2	0.353	17392	8.624	1.248	7.084	5.680	0	0	72.558	72.558

[Peak Table(Ch2)]
# of Peaks	0

[Peak Table(Ch3)]
# of Peaks	4
Peak#	R.Time	I.Time	F.Time	Area	Height	A/H	Conc.	Mark	ID#	Name	k'	Plate #	Plate Ht.	Tailing	Resolution	Sep.Factor	Area Ratio	Height Ratio	Conc. %	Norm Conc.
1	2.462	2.132	2.513	2906	685	4.241	0.000	   			0.000	8168	18.365	0.000	0.000	0.000	0	0	0.000	0.000
2	2.535	2.513	2.715	1987	402	4.939	0.000	 V 			0.030	4150	36.149	0.000	0.551	0.000	0	0	0.000	0.000
3	2.876	2.810	3.030	17925	4807	3.729	0.458	   	1	N2O	0.168	13425	11.174	1.591	2.656	5.650	0	0	100.000	100.000
4	3.349	3.177	3.995	15230	544	27.971	0.000	   	2	SF6	0.360	167	900.776	2.355	0.832	2.142	0	0	0.000	0.000

[Compound Results(Ch1)]
# of IDs	6
ID#	Name	R.Time	Area	Height	Conc.	Curve	3rd	2nd	1st	Constant	Area Ratio	Height Ratio	Conc. %	Norm Conc.
1	CO	1.476	21514	10105	151.887	Linear	0.000000e+00	0.000000e+00	1.416423e+002	0.000000e+00	0	0	17.580	17.580
2	CH4	1.567	4407	2220	85.204	Linear	0.000000e+00	0.000000e+00	5.171738e+001	0.000000e+00	0	0	9.862	9.862
3	CO2	1.996	2497816	1190362	626.884	Linear	0.000000e+00	0.000000e+00	3.984494e+003	0.000000e+00	0	0	72.558	72.558
4	Ethylene	0.000	0	0	0.000	Linear	0.000000e+00	0.000000e+00	0.000000e+00	0.000000e+00	0	0	0.000	0.000
5	Acetylene	0.000	0	0	0.000	Linear	0.000000e+00	0.000000e+00	0.000000e+00	0.000000e+00	0	0	0.000	0.000
6	Ethane	0.000	0	0	0.000	Linear	0.000000e+00	0.000000e+00	0.000000e+00	0.000000e+00	0	0	0.000	0.000

[Compound Results(Ch2)]
# of IDs	5
ID#	Name	R.Time	Area	Height	Conc.	Curve	3rd	2nd	1st	Constant	Area Ratio	Height Ratio	Conc. %	Norm Conc.
1	Hydrogen	0.000	0	0	0.000	Linear	0.000000e+00	0.000000e+00	0.000000e+00	0.000000e+00	0	0	0.000	0.000
2	Oxygen	0.000	0	0	0.000	Linear	0.000000e+00	0.000000e+00	0.000000e+00	0.000000e+00	0	0	0.000	0.000
3	Nitrogen	0.000	0	0	0.000	Linear	0.000000e+00	0.000000e+00	0.000000e+00	0.000000e+00	0	0	0.000	0.000
4	Methane	0.000	0	0	0.000	Linear	0.000000e+00	0.000000e+00	0.000000e+00	0.000000e+00	0	0	0.000	0.000
5	Carbon Monoxide	0.000	0	0	0.000	Linear	0.000000e+00	0.000000e+00	0.000000e+00	0.000000e+00	0	0	0.000	0.000

[Compound Results(Ch3)]
# of IDs	2
ID#	Name	R.Time	Area	Height	Conc.	Curve	3rd	2nd	1st	Constant	Area Ratio	Height Ratio	Conc. %	Norm Conc.
1	N2O	2.876	17925	4807	0.458	Linear	0.000000e+00	0.000000e+00	3.915173e+004	0.000000e+00	0	0	100.000	100.000
2	SF6	3.349	15230	544	0.000	Linear	0.000000e+00	0.000000e+00	0.000000e+00	0.000000e+00	0	0	0.000	0.000

[Group Results(Ch1)]
# of Groups	0

[Group Results(Ch2)]
# of Groups	0

[Group Results(Ch3)]
# of Groups	0

[Chromatogram (Ch1)]
Interval(msec)	220
# of Points	1091
Start Time(min)	0.002
End Time(min)	3.998
R.Time (min)	Intensity
0.00167	-3
0.00533	2
0.00900	6
0.01267	12
0.01633	16
0.02000	14
0.02367	8
0.02733	6
0.03100	5
0.03467	0
0.03833	-7
0.04200	-15
0.04567	-21
0.04933	-20
0.05300	-16
0.05667	-14
0.06033	-18
0.06400	-21
0.06767	-18
0.07133	-12
0.07500	-4
0.07867	8
0.08233	24
0.08600	39
0.08967	44
0.09333	37
0.09700	24
0.10067	11
0.10433	1
0.10800	-4
0.11167	-9
0.11533	-11
0.11900	-13
0.12267	-14
0.12633	-10
0.13000	-6
0.13367	-4
0.13733	0
0.14100	6
0.14467	12
0.14833	14
0.15200	16
0.15567	20
0.15933	25
0.16300	36
0.16667	40
0.17033	34
0.17400	27
0.17767	23
0.18133	22
0.18500	22
0.18867	23
0.19233	27
0.19600	32
0.19967	42
0.20333	58
0.20700	79
0.21067	95
0.21433	102
0.21800	102
0.22167	98
0.22533	88
0.22900	77
0.23267	68
0.23633	62
0.24000	59
0.24367	61
0.24733	72
0.25100	86
0.25467	97
0.25833	107
0.26200	111
0.26567	111
0.26933	112
0.27300	113
0.27667	114
0.28033	117
0.28400	121
0.28767	125
0.29133	128
0.29500	121
0.29867	107
0.30233	93
0.30600	79
0.30967	72
0.31333	73
0.31700	77
0.32067	81
0.32433	84
0.32800	86
0.33167	85
0.33533	77
0.33900	67
0.34267	56
0.34633	46
0.35000	37
0.35367	32
0.35733	27
0.36100	21
0.36467	16
0.36833	13
0.37200	13
0.37567	15
0.37933	18
0.38300	18
0.38667	20
0.39033	22
0.39400	20
0.39767	16
0.40133	14
0.40500	14
0.40867	11
0.41233	4
0.41600	-0
0.41967	-1
0.42333	-2
0.42700	0
0.43067	6
0.43433	11
0.43800	14
0.44167	16
0.44533	15
0.44900	13
0.45267	13
0.45633	15
0.46000	19
0.46367	24
0.46733	25
0.47100	29
0.47467	32
0.47833	32
0.48200	28
0.48567	18
0.48933	3
0.49300	-10
0.49667	-15
0.50033	-11
0.50400	-6
0.50767	-5
0.51133	-5
0.51500	-3
0.51867	-1
0.52233	0
0.52600	-4
0.52967	-7
0.53333	-7
0.53700	-3
0.54067	5
0.54433	14
0.54800	22
0.55167	22
0.55533	15
0.55900	7
0.56267	-1
0.56633	-8
0.57000	-12
0.57367	-12
0.57733	-8
0.58100	-5
0.58467	-6
0.58833	-8
0.59200	-5
0.59567	2
0.59933	9
0.60300	14
0.60667	16
0.61033	15
0.61400	7
0.61767	-3
0.62133	-7
0.62500	-6
0.62867	-4
0.63233	0
0.63600	5
0.63967	10
0.64333	9
0.64700	8
0.65067	7
0.65433	5
0.65800	3
0.66167	-2
0.66533	-8
0.66900	-16
0.67267	-21
0.67633	-24
0.68000	-24
0.68367	-18
0.68733	-11
0.69100	-10
0.69467	-10
0.69833	-9
0.70200	-9
0.70567	-11
0.70933	-13
0.71300	-14
0.71667	-11
0.72033	-5
0.72400	2
0.72767	4
0.73133	3
0.73500	4
0.73867	5
0.74233	4
0.74600	-0
0.74967	-6
0.75333	-10
0.75700	-12
0.76067	-12
0.76433	-11
0.76800	-11
0.77167	-13
0.77533	-16
0.77900	-17
0.78267	-16
0.78633	-13
0.79000	-9
0.79367	-6
0.79733	-1
0.80100	1
0.80467	2
0.80833	-3
0.81200	-14
0.81567	-21
0.81933	-24
0.82300	-23
0.82667	-22
0.83033	-27
0.83400	-35
0.83767	-43
0.84133	-49
0.84500	-50
0.84867	-46
0.85233	-40
0.85600	-30
0.85967	-23
0.86333	-20
0.86700	-18
0.87067	-18
0.87433	-18
0.87800	-17
0.88167	-20
0.88533	-22
0.88900	-21
0.89267	-22
0.89633	-24
0.90000	-25
0.90367	-20
0.90733	-19
0.91100	-22
0.91467	-27
0.91833	-28
0.92200	-26
0.92567	-23
0.92933	-21
0.93300	-20
0.93667	-19
0.94033	-22
0.94400	-27
0.94767	-30
0.95133	-29
0.95500	-27
0.95867	-24
0.96233	-21
0.96600	-20
0.96967	-18
0.97333	-16
0.97700	-15
0.98067	-13
0.98433	-10
0.98800	-5
0.99167	3
0.99533	8
0.99900	9
1.00267	5
1.00633	-3
1.01000	-8
1.01367	-6
1.01733	-7
1.02100	-11
1.02467	-13
1.02833	-18
1.03200	-28
1.03567	-36
1.03933	-37
1.04300	-29
1.04667	-22
1.05033	-23
1.05400	-31
1.05767	-41
1.06133	-49
1.06500	-54
1.06867	-56
1.07233	-57
1.07600	-55
1.07967	-55
1.08333	-50
1.08700	-35
1.09067	-25
1.09433	-25
1.09800	-29
1.10167	-35
1.10533	-40
1.10900	-40
1.11267	-38
1.11633	-35
1.12000	-33
1.12367	-27
1.12733	-19
1.13100	-12
1.13467	-11
1.13833	-14
1.14200	-15
1.14567	-21
1.14933	-31
1.15300	-40
1.15667	-44
1.16033	-46
1.16400	-45
1.16767	-43
1.17133	-35
1.17500	-25
1.17867	-15
1.18233	-6
1.18600	-5
1.18967	-8
1.19333	-10
1.19700	-7
1.20067	-4
1.20433	-6
1.20800	-9
1.21167	-13
1.21533	-13
1.21900	-11
1.22267	-8
1.22633	-4
1.23000	2
1.23367	8
1.23733	12
1.24100	13
1.24467	12
1.24833	6
1.25200	-9
1.25567	-21
1.25933	-28
1.26300	-32
1.26667	-35
1.27033	-35
1.27400	-30
1.27767	-26
1.28133	-23
1.28500	-20
1.28867	-16
1.29233	-10
1.29600	-7
1.29967	-5
1.30333	-1
1.30700	1
1.31067	0
1.31433	-2
1.31800	-2
1.32167	2
1.32533	9
1.32900	12
1.33267	12
1.33633	9
1.34000	2
1.34367	-5
1.34733	-8
1.35100	-10
1.35467	-10
1.35833	-13
1.36200	-15
1.36567	-11
1.36933	-7
1.37300	-2
1.37667	5
1.38033	11
1.38400	14
1.38767	15
1.39133	14
1.39500	11
1.39867	8
1.40233	6
1.40600	4
1.40967	-3
1.41333	-8
1.41700	-8
1.42067	-9
1.42433	-12
1.42800	-15
1.43167	-17
1.43533	-12
1.43900	19
1.44267	128
1.44633	369
1.45000	901
1.45367	2010
1.45733	3710
1.46100	5650
1.46467	7442
1.46833	8853
1.47200	9773
1.47567	10105
1.47933	9780
1.48300	8831
1.48667	7456
1.49033	5939
1.49400	4523
1.49767	3344
1.50133	2435
1.50500	1766
1.50867	1288
1.51233	948
1.51600	708
1.51967	540
1.52333	421
1.52700	334
1.53067	272
1.53433	233
1.53800	229
1.54167	292
1.54533	481
1.54900	813
1.55267	1225
1.55633	1622
1.56000	1944
1.56367	2163
1.56733	2249
1.57100	2176
1.57467	1946
1.57833	1603
1.58200	1228
1.58567	893
1.58933	630
1.59300	438
1.59667	299
1.60033	202
1.60400	139
1.60767	98
1.61133	74
1.61500	61
1.61867	55
1.62233	50
1.62600	46
1.62967	43
1.63333	36
1.63700	30
1.64067	28
1.64433	30
1.64800	31
1.65167	22
1.65533	9
1.65900	-5
1.66267	-15
1.66633	-19
1.67000	-19
1.67367	-17
1.67733	-14
1.68100	-15
1.68467	-18
1.68833	-19
1.69200	-16
1.69567	-13
1.69933	-9
1.70300	-4
1.70667	-3
1.71033	-5
1.71400	-7
1.71767	-9
1.72133	-8
1.72500	-8
1.72867	-8
1.73233	-6
1.73600	-8
1.73967	-9
1.74333	-9
1.74700	-9
1.75067	-10
1.75433	-9
1.75800	-5
1.76167	-2
1.76533	2
1.76900	5
1.77267	8
1.77633	11
1.78000	11
1.78367	6
1.78733	3
1.79100	-1
1.79467	-8
1.79833	-18
1.80200	-29
1.80567	-33
1.80933	-32
1.81300	-28
1.81667	-26
1.82033	-27
1.82400	-29
1.82767	-28
1.83133	-23
1.83500	-21
1.83867	-23
1.84233	-23
1.84600	-21
1.84967	-19
1.85333	-18
1.85700	-17
1.86067	-15
1.86433	-12
1.86800	-9
1.87167	-7
1.87533	-2
1.87900	7
1.88267	17
1.88633	23
1.89000	26
1.89367	22
1.89733	16
1.90100	11
1.90467	5
1.90833	-2
1.91200	-11
1.91567	-18
1.91933	-21
1.92300	-22
1.92667	-20
1.93033	-16
1.93400	-12
1.93767	-5
1.94133	-1
1.94500	-1
1.94867	1
1.95233	43
1.95600	341
1.95967	2029
1.96333	9376
1.96700	33690
1.97067	95397
1.97433	215731
1.97800	399064
1.98167	623176
1.98533	848272
1.98900	1034864
1.99267	1153933
1.99633	1190403
2.00000	1143259
2.00367	1025806
2.00733	863574
2.01100	686683
2.01467	520495
2.01833	380165
2.02200	270594
2.02567	189748
2.02933	132417
2.03300	92821
2.03667	65903
2.04033	47742
2.04400	35488
2.04767	27161
2.05133	21423
2.05500	17400
2.05867	14520
2.06233	12406
2.06600	10817
2.06967	9595
2.07333	8625
2.07700	7838
2.08067	7189
2.08433	6644
2.08800	6178
2.09167	5773
2.09533	5419
2.09900	5109
2.10267	4836
2.10633	4586
2.11000	4348
2.11367	4129
2.11733	3921
2.12100	3731
2.12467	3565
2.12833	3415
2.13200	3280
2.13567	3156
2.13933	3040
2.14300	2933
2.14667	2830
2.15033	2729
2.15400	2633
2.15767	2544
2.16133	2463
2.16500	2391
2.16867	2325
2.17233	2261
2.17600	2201
2.17967	2144
2.18333	2086
2.18700	2030
2.19067	1983
2.19433	1938
2.19800	1890
2.20167	1837
2.20533	1783
2.20900	1734
2.21267	1690
2.21633	1652
2.22000	1616
2.22367	1582
2.22733	1547
2.23100	1510
2.23467	1478
2.23833	1447
2.24200	1415
2.24567	1379
2.24933	1347
2.25300	1321
2.25667	1297
2.26033	1275
2.26400	1258
2.26767	1245
2.27133	1226
2.27500	1199
2.27867	1170
2.28233	1145
2.28600	1130
2.28967	1123
2.29333	1111
2.29700	1094
2.30067	1077
2.30433	1061
2.30800	1045
2.31167	1031
2.31533	1013
2.31900	992
2.32267	975
2.32633	962
2.33000	948
2.33367	933
2.33733	916
2.34100	903
2.34467	891
2.34833	880
2.35200	868
2.35567	854
2.35933	842
2.36300	834
2.36667	829
2.37033	824
2.37400	819
2.37767	817
2.38133	812
2.38500	805
2.38867	795
2.39233	782
2.39600	768
2.39967	757
2.40333	744
2.40700	734
2.41067	725
2.41433	721
2.41800	717
2.42167	714
2.42533	709
2.42900	704
2.43267	701
2.43633	698
2.44000	695
2.44367	690
2.44733	682
2.45100	673
2.45467	664
2.45833	656
2.46200	650
2.46567	648
2.46933	649
2.47300	645
2.47667	635
2.48033	623
2.48400	613
2.48767	607
2.49133	602
2.49500	591
2.49867	582
2.50233	578
2.50600	576
2.50967	574
2.51333	568
2.51700	562
2.52067	559
2.52433	561
2.52800	566
2.53167	571
2.53533	573
2.53900	572
2.54267	568
2.54633	559
2.55000	549
2.55367	544
2.55733	538
2.56100	535
2.56467	534
2.56833	533
2.57200	530
2.57567	528
2.57933	527
2.58300	528
2.58667	529
2.59033	528
2.59400	522
2.59767	517
2.60133	515
2.60500	514
2.60867	509
2.61233	505
2.61600	501
2.61967	499
2.62333	499
2.62700	498
2.63067	492
2.63433	485
2.63800	481
2.64167	479
2.64533	480
2.64900	481
2.65267	478
2.65633	472
2.66000	466
2.66367	461
2.66733	456
2.67100	450
2.67467	444
2.67833	440
2.68200	439
2.68567	442
2.68933	442
2.69300	443
2.69667	449
2.70033	456
2.70400	462
2.70767	468
2.71133	468
2.71500	468
2.71867	469
2.72233	468
2.72600	464
2.72967	459
2.73333	454
2.73700	451
2.74067	448
2.74433	443
2.74800	440
2.75167	438
2.75533	439
2.75900	441
2.76267	441
2.76633	441
2.77000	441
2.77367	442
2.77733	441
2.78100	438
2.78467	432
2.78833	426
2.79200	419
2.79567	418
2.79933	417
2.80300	416
2.80667	416
2.81033	417
2.81400	416
2.81767	415
2.82133	414
2.82500	415
2.82867	417
2.83233	420
2.83600	422
2.83967	421
2.84333	416
2.84700	414
2.85067	418
2.85433	425
2.85800	426
2.86167	425
2.86533	421
2.86900	413
2.87267	404
2.87633	401
2.88000	406
2.88367	410
2.88733	413
2.89100	414
2.89467	413
2.89833	411
2.90200	411
2.90567	408
2.90933	403
2.91300	399
2.91667	398
2.92033	400
2.92400	402
2.92767	401
2.93133	399
2.93500	398
2.93867	397
2.94233	398
2.94600	400
2.94967	402
2.95333	406
2.95700	409
2.96067	407
2.96433	403
2.96800	399
2.97167	392
2.97533	385
2.97900	384
2.98267	385
2.98633	381
2.99000	374
2.99367	367
2.99733	367
3.00100	377
3.00467	389
3.00833	399
3.01200	399
3.01567	392
3.01933	383
3.02300	374
3.02667	369
3.03033	368
3.03400	371
3.03767	378
3.04133	382
3.04500	378
3.04867	371
3.05233	367
3.05600	368
3.05967	371
3.06333	370
3.06700	366
3.07067	359
3.07433	355
3.07800	356
3.08167	365
3.08533	375
3.08900	381
3.09267	385
3.09633	386
3.10000	382
3.10367	378
3.10733	376
3.11100	372
3.11467	369
3.11833	365
3.12200	357
3.12567	348
3.12933	341
3.13300	335
3.13667	334
3.14033	334
3.14400	338
3.14767	343
3.15133	343
3.15500	339
3.15867	333
3.16233	328
3.16600	329
3.16967	335
3.17333	343
3.17700	354
3.18067	362
3.18433	365
3.18800	367
3.19167	370
3.19533	368
3.19900	358
3.20267	349
3.20633	346
3.21000	348
3.21367	344
3.21733	338
3.22100	332
3.22467	332
3.22833	337
3.23200	342
3.23567	344
3.23933	339
3.24300	335
3.24667	335
3.25033	334
3.25400	334
3.25767	338
3.26133	340
3.26500	335
3.26867	329
3.27233	325
3.27600	319
3.27967	310
3.28333	307
3.28700	308
3.29067	315
3.29433	324
3.29800	331
3.30167	334
3.30533	334
3.30900	331
3.31267	327
3.31633	326
3.32000	325
3.32367	321
3.32733	316
3.33100	312
3.33467	309
3.33833	305
3.34200	295
3.34567	286
3.34933	284
3.35300	293
3.35667	303
3.36033	307
3.36400	303
3.36767	296
3.37133	292
3.37500	291
3.37867	288
3.38233	286
3.38600	285
3.38967	285
3.39333	291
3.39700	301
3.40067	305
3.40433	304
3.40800	301
3.41167	297
3.41533	293
3.41900	290
3.42267	289
3.42633	292
3.43000	293
3.43367	293
3.43733	292
3.44100	288
3.44467	280
3.44833	275
3.45200	273
3.45567	270
3.45933	265
3.46300	260
3.46667	257
3.47033	261
3.47400	264
3.47767	265
3.48133	262
3.48500	258
3.48867	255
3.49233	255
3.49600	258
3.49967	262
3.50333	267
3.50700	275
3.51067	285
3.51433	287
3.51800	281
3.52167	275
3.52533	275
3.52900	280
3.53267	283
3.53633	280
3.54000	275
3.54367	270
3.54733	262
3.55100	250
3.55467	244
3.55833	239
3.56200	234
3.56567	236
3.56933	245
3.57300	246
3.57667	239
3.58033	228
3.58400	223
3.58767	225
3.59133	231
3.59500	231
3.59867	226
3.60233	220
3.60600	219
3.60967	219
3.61333	219
3.61700	216
3.62067	215
3.62433	216
3.62800	218
3.63167	226
3.63533	237
3.63900	245
3.64267	247
3.64633	242
3.65000	240
3.65367	238
3.65733	235
3.66100	230
3.66467	226
3.66833	221
3.67200	216
3.67567	215
3.67933	217
3.68300	219
3.68667	221
3.69033	220
3.69400	217
3.69767	210
3.70133	204
3.70500	201
3.70867	194
3.71233	189
3.71600	188
3.71967	188
3.72333	192
3.72700	196
3.73067	201
3.73433	206
3.73800	211
3.74167	214
3.74533	213
3.74900	217
3.75267	222
3.75633	223
3.76000	222
3.76367	223
3.76733	224
3.77100	228
3.77467	225
3.77833	216
3.78200	210
3.78567	205
3.78933	199
3.79300	193
3.79667	192
3.80033	192
3.80400	190
3.80767	185
3.81133	183
3.81500	183
3.81867	183
3.82233	185
3.82600	189
3.82967	197
3.83333	201
3.83700	201
3.84067	193
3.84433	185
3.84800	178
3.85167	174
3.85533	174
3.85900	174
3.86267	174
3.86633	174
3.87000	175
3.87367	177
3.87733	181
3.88100	187
3.88467	190
3.88833	192
3.89200	194
3.89567	198
3.89933	198
3.90300	194
3.90667	190
3.91033	193
3.91400	199
3.91767	203
3.92133	203
3.92500	201
3.92867	197
3.93233	191
3.93600	185
3.93967	180
3.94333	175
3.94700	171
3.95067	169
3.95433	172
3.95800	180
3.96167	194
3.96533	205
3.96900	211
3.97267	208
3.97633	194
3.98000	176
3.98367	159
3.98733	145
3.99100	137
3.99467	133
3.99833	137

[Chromatogram (Ch2)]
Interval(msec)	220
# of Points	1091
Start Time(min)	0.002
End Time(min)	3.998
R.Time (min)	Intensity
0.00167	1
0.00533	1
0.00900	1
0.01267	2
0.01633	2
0.02000	2
0.02367	2
0.02733	2
0.03100	2
0.03467	2
0.03833	2
0.04200	1
0.04567	1
0.04933	1
0.05300	2
0.05667	2
0.06033	2
0.06400	2
0.06767	2
0.07133	2
0.07500	3
0.07867	3
0.08233	2
0.08600	2
0.08967	2
0.09333	2
0.09700	2
0.10067	2
0.10433	2
0.10800	1
0.11167	1
0.11533	0
0.11900	0
0.12267	-0
0.12633	-0
0.13000	-0
0.13367	0
0.13733	1
0.14100	1
0.14467	1
0.14833	1
0.15200	1
0.15567	1
0.15933	1
0.16300	1
0.16667	1
0.17033	1
0.17400	1
0.17767	0
0.18133	-0
0.18500	-1
0.18867	-1
0.19233	-1
0.19600	-2
0.19967	-2
0.20333	-2
0.20700	-2
0.21067	-2
0.21433	-1
0.21800	-1
0.22167	-0
0.22533	0
0.22900	1
0.23267	1
0.23633	1
0.24000	2
0.24367	2
0.24733	2
0.25100	2
0.25467	1
0.25833	1
0.26200	1
0.26567	0
0.26933	0
0.27300	0
0.27667	-0
0.28033	0
0.28400	0
0.28767	1
0.29133	1
0.29500	1
0.29867	1
0.30233	1
0.30600	1
0.30967	0
0.31333	0
0.31700	-0
0.32067	-0
0.32433	0
0.32800	0
0.33167	0
0.33533	0
0.33900	0
0.34267	0
0.34633	0
0.35000	0
0.35367	0
0.35733	0
0.36100	1
0.36467	1
0.36833	1
0.37200	1
0.37567	2
0.37933	2
0.38300	2
0.38667	3
0.39033	3
0.39400	3
0.39767	3
0.40133	3
0.40500	3
0.40867	3
0.41233	3
0.41600	3
0.41967	3
0.42333	2
0.42700	2
0.43067	2
0.43433	2
0.43800	1
0.44167	1
0.44533	0
0.44900	0
0.45267	-0
0.45633	-0
0.46000	-1
0.46367	-1
0.46733	-1
0.47100	-1
0.47467	-0
0.47833	-0
0.48200	-0
0.48567	-0
0.48933	-0
0.49300	-0
0.49667	-1
0.50033	-1
0.50400	-1
0.50767	-1
0.51133	-1
0.51500	-1
0.51867	-1
0.52233	-1
0.52600	-1
0.52967	-0
0.53333	-0
0.53700	0
0.54067	0
0.54433	1
0.54800	1
0.55167	1
0.55533	1
0.55900	1
0.56267	1
0.56633	2
0.57000	2
0.57367	2
0.57733	2
0.58100	2
0.58467	2
0.58833	2
0.59200	2
0.59567	2
0.59933	2
0.60300	2
0.60667	2
0.61033	2
0.61400	2
0.61767	2
0.62133	2
0.62500	2
0.62867	2
0.63233	2
0.63600	1
0.63967	1
0.64333	1
0.64700	0
0.65067	-0
0.65433	-1
0.65800	-1
0.66167	-2
0.66533	-2
0.66900	-2
0.67267	-2
0.67633	-2
0.68000	-2
0.68367	-2
0.68733	-1
0.69100	-1
0.69467	-1
0.69833	-1
0.70200	-0
0.70567	0
0.70933	0
0.71300	1
0.71667	1
0.72033	1
0.72400	1
0.72767	1
0.73133	1
0.73500	1
0.73867	1
0.74233	0
0.74600	0
0.74967	-0
0.75333	-0
0.75700	-1
0.76067	-1
0.76433	-1
0.76800	-1
0.77167	-1
0.77533	-1
0.77900	-1
0.78267	-0
0.78633	-0
0.79000	-0
0.79367	-0
0.79733	-0
0.80100	-1
0.80467	-1
0.80833	-1
0.81200	-2
0.81567	-2
0.81933	-2
0.82300	-2
0.82667	-2
0.83033	-2
0.83400	-2
0.83767	-2
0.84133	-2
0.84500	-2
0.84867	-2
0.85233	-2
0.85600	-2
0.85967	-2
0.86333	-2
0.86700	-2
0.87067	-2
0.87433	-2
0.87800	-2
0.88167	-2
0.88533	-2
0.88900	-1
0.89267	-1
0.89633	-1
0.90000	-1
0.90367	-0
0.90733	0
0.91100	0
0.91467	1
0.91833	1
0.92200	2
0.92567	2
0.92933	3
0.93300	3
0.93667	3
0.94033	3
0.94400	3
0.94767	2
0.95133	2
0.95500	2
0.95867	2
0.96233	2
0.96600	2
0.96967	2
0.97333	1
0.97700	1
0.98067	1
0.98433	0
0.98800	0
0.99167	-0
0.99533	-0
0.99900	-1
1.00267	-1
1.00633	-1
1.01000	-1
1.01367	-1
1.01733	-1
1.02100	-1
1.02467	-1
1.02833	-1
1.03200	-1
1.03567	-1
1.03933	-1
1.04300	-1
1.04667	-1
1.05033	-1
1.05400	-1
1.05767	-1
1.06133	-1
1.06500	-1
1.06867	-1
1.07233	-1
1.07600	-1
1.07967	-1
1.08333	-1
1.08700	-2
1.09067	-2
1.09433	-2
1.09800	-2
1.10167	-2
1.10533	-2
1.10900	-2
1.11267	-2
1.11633	-2
1.12000	-2
1.12367	-3
1.12733	-2
1.13100	-2
1.13467	-2
1.13833	-1
1.14200	-1
1.14567	-0
1.14933	-0
1.15300	0
1.15667	1
1.16033	1
1.16400	2
1.16767	2
1.17133	2
1.17500	2
1.17867	2
1.18233	2
1.18600	1
1.18967	1
1.19333	0
1.19700	-0
1.20067	-0
1.20433	-1
1.20800	-1
1.21167	-1
1.21533	-2
1.21900	-2
1.22267	-3
1.22633	-3
1.23000	-3
1.23367	-3
1.23733	-3
1.24100	-2
1.24467	-2
1.24833	-2
1.25200	-1
1.25567	-1
1.25933	-1
1.26300	-1
1.26667	-1
1.27033	-1
1.27400	-1
1.27767	-1
1.28133	-1
1.28500	-1
1.28867	-0
1.29233	-0
1.29600	0
1.29967	0
1.30333	0
1.30700	0
1.31067	1
1.31433	1
1.31800	1
1.32167	1
1.32533	1
1.32900	1
1.33267	1
1.33633	1
1.34000	0
1.34367	0
1.34733	1
1.35100	1
1.35467	1
1.35833	1
1.36200	2
1.36567	2
1.36933	1
1.37300	1
1.37667	1
1.38033	1
1.38400	1
1.38767	1
1.39133	1
1.39500	1
1.39867	1
1.40233	1
1.40600	1
1.40967	1
1.41333	1
1.41700	1
1.42067	1
1.42433	1
1.42800	0
1.43167	0
1.43533	-0
1.43900	-0
1.44267	-1
1.44633	-1
1.45000	-1
1.45367	-1
1.45733	-2
1.46100	-2
1.46467	-2
1.46833	-2
1.47200	-2
1.47567	-1
1.47933	-1
1.48300	-1
1.48667	-1
1.49033	-1
1.49400	-1
1.49767	-1
1.50133	-1
1.50500	-1
1.50867	-1
1.51233	-1
1.51600	-0
1.51967	-0
1.52333	-0
1.52700	-0
1.53067	-0
1.53433	-0
1.53800	-1
1.54167	-1
1.54533	-1
1.54900	-2
1.55267	-2
1.55633	-2
1.56000	-2
1.56367	-2
1.56733	-2
1.57100	-2
1.57467	-2
1.57833	-2
1.58200	-2
1.58567	-1
1.58933	-1
1.59300	-2
1.59667	-2
1.60033	-3
1.60400	-4
1.60767	-5
1.61133	-7
1.61500	-9
1.61867	-11
1.62233	-13
1.62600	-16
1.62967	-19
1.63333	-22
1.63700	-26
1.64067	-29
1.64433	-33
1.64800	-37
1.65167	-40
1.65533	-44
1.65900	-48
1.66267	-52
1.66633	-57
1.67000	-61
1.67367	-66
1.67733	-72
1.68100	-77
1.68467	-81
1.68833	-86
1.69200	-90
1.69567	-93
1.69933	-95
1.70300	-97
1.70667	-99
1.71033	-100
1.71400	-101
1.71767	-101
1.72133	-102
1.72500	-103
1.72867	-103
1.73233	-104
1.73600	-104
1.73967	-105
1.74333	-106
1.74700	-107
1.75067	-108
1.75433	-109
1.75800	-110
1.76167	-111
1.76533	-112
1.76900	-112
1.77267	-112
1.77633	-112
1.78000	-112
1.78367	-111
1.78733	-110
1.79100	-110
1.79467	-109
1.79833	-107
1.80200	-107
1.80567	-106
1.80933	-105
1.81300	-104
1.81667	-104
1.82033	-105
1.82400	-106
1.82767	-107
1.83133	-108
1.83500	-109
1.83867	-110
1.84233	-110
1.84600	-110
1.84967	-110
1.85333	-110
1.85700	-110
1.86067	-110
1.86433	-111
1.86800	-111
1.87167	-111
1.87533	-112
1.87900	-112
1.88267	-112
1.88633	-113
1.89000	-113
1.89367	-113
1.89733	-112
1.90100	-112
1.90467	-112
1.90833	-111
1.91200	-111
1.91567	-110
1.91933	-110
1.92300	-109
1.92667	-109
1.93033	-108
1.93400	-108
1.93767	-109
1.94133	-109
1.94500	-109
1.94867	-110
1.95233	-110
1.95600	-109
1.95967	-109
1.96333	-109
1.96700	-110
1.97067	-110
1.97433	-109
1.97800	-109
1.98167	-109
1.98533	-108
1.98900	-108
1.99267	-107
1.99633	-106
2.00000	-106
2.00367	-105
2.00733	-104
2.01100	-104
2.01467	-104
2.01833	-103
2.02200	-103
2.02567	-103
2.02933	-103
2.03300	-102
2.03667	-102
2.04033	-101
2.04400	-101
2.04767	-101
2.05133	-101
2.05500	-101
2.05867	-100
2.06233	-100
2.06600	-99
2.06967	-98
2.07333	-97
2.07700	-96
2.08067	-96
2.08433	-95
2.08800	-95
2.09167	-96
2.09533	-96
2.09900	-96
2.10267	-96
2.10633	-96
2.11000	-97
2.11367	-97
2.11733	-97
2.12100	-97
2.12467	-97
2.12833	-97
2.13200	-98
2.13567	-98
2.13933	-97
2.14300	-96
2.14667	-96
2.15033	-95
2.15400	-94
2.15767	-94
2.16133	-94
2.16500	-93
2.16867	-93
2.17233	-93
2.17600	-94
2.17967	-94
2.18333	-94
2.18700	-93
2.19067	-92
2.19433	-91
2.19800	-90
2.20167	-89
2.20533	-88
2.20900	-88
2.21267	-87
2.21633	-87
2.22000	-87
2.22367	-88
2.22733	-88
2.23100	-88
2.23467	-87
2.23833	-86
2.24200	-85
2.24567	-85
2.24933	-84
2.25300	-84
2.25667	-84
2.26033	-84
2.26400	-84
2.26767	-84
2.27133	-84
2.27500	-83
2.27867	-83
2.28233	-82
2.28600	-83
2.28967	-83
2.29333	-84
2.29700	-84
2.30067	-85
2.30433	-86
2.30800	-86
2.31167	-86
2.31533	-85
2.31900	-84
2.32267	-83
2.32633	-82
2.33000	-81
2.33367	-80
2.33733	-79
2.34100	-79
2.34467	-78
2.34833	-77
2.35200	-76
2.35567	-74
2.35933	-74
2.36300	-73
2.36667	-71
2.37033	-70
2.37400	-67
2.37767	-64
2.38133	-61
2.38500	-58
2.38867	-54
2.39233	-49
2.39600	-45
2.39967	-41
2.40333	-36
2.40700	-32
2.41067	-28
2.41433	-25
2.41800	-22
2.42167	-19
2.42533	-17
2.42900	-15
2.43267	-13
2.43633	-11
2.44000	-10
2.44367	-9
2.44733	-8
2.45100	-7
2.45467	-6
2.45833	-5
2.46200	-4
2.46567	-3
2.46933	-2
2.47300	-0
2.47667	1
2.48033	2
2.48400	3
2.48767	4
2.49133	4
2.49500	5
2.49867	6
2.50233	7
2.50600	8
2.50967	9
2.51333	10
2.51700	11
2.52067	12
2.52433	12
2.52800	13
2.53167	13
2.53533	14
2.53900	15
2.54267	16
2.54633	16
2.55000	17
2.55367	17
2.55733	17
2.56100	17
2.56467	16
2.56833	16
2.57200	16
2.57567	16
2.57933	16
2.58300	17
2.58667	17
2.59033	18
2.59400	18
2.59767	18
2.60133	19
2.60500	19
2.60867	19
2.61233	19
2.61600	19
2.61967	20
2.62333	20
2.62700	20
2.63067	20
2.63433	20
2.63800	20
2.64167	20
2.64533	20
2.64900	20
2.65267	20
2.65633	21
2.66000	21
2.66367	21
2.66733	22
2.67100	22
2.67467	22
2.67833	22
2.68200	22
2.68567	22
2.68933	22
2.69300	23
2.69667	23
2.70033	23
2.70400	24
2.70767	24
2.71133	25
2.71500	25
2.71867	26
2.72233	26
2.72600	26
2.72967	26
2.73333	27
2.73700	27
2.74067	27
2.74433	27
2.74800	27
2.75167	27
2.75533	26
2.75900	26
2.76267	26
2.76633	26
2.77000	26
2.77367	26
2.77733	26
2.78100	26
2.78467	26
2.78833	26
2.79200	26
2.79567	27
2.79933	27
2.80300	27
2.80667	28
2.81033	28
2.81400	28
2.81767	29
2.82133	29
2.82500	29
2.82867	29
2.83233	29
2.83600	29
2.83967	29
2.84333	27
2.84700	23
2.85067	18
2.85433	9
2.85800	-3
2.86167	-18
2.86533	-38
2.86900	-62
2.87267	-90
2.87633	-122
2.88000	-158
2.88367	-199
2.88733	-243
2.89100	-290
2.89467	-339
2.89833	-391
2.90200	-445
2.90567	-500
2.90933	-555
2.91300	-611
2.91667	-666
2.92033	-721
2.92400	-774
2.92767	-826
2.93133	-878
2.93500	-935
2.93867	-994
2.94233	-1048
2.94600	-1086
2.94967	-1100
2.95333	-1088
2.95700	-1052
2.96067	-997
2.96433	-928
2.96800	-850
2.97167	-770
2.97533	-689
2.97900	-612
2.98267	-539
2.98633	-471
2.99000	-409
2.99367	-354
2.99733	-304
3.00100	-261
3.00467	-222
3.00833	-188
3.01200	-159
3.01567	-134
3.01933	-112
3.02300	-94
3.02667	-77
3.03033	-64
3.03400	-52
3.03767	-42
3.04133	-33
3.04500	-26
3.04867	-19
3.05233	-14
3.05600	-9
3.05967	-5
3.06333	-2
3.06700	1
3.07067	3
3.07433	6
3.07800	7
3.08167	9
3.08533	10
3.08900	11
3.09267	12
3.09633	13
3.10000	13
3.10367	14
3.10733	15
3.11100	15
3.11467	16
3.11833	16
3.12200	16
3.12567	17
3.12933	17
3.13300	17
3.13667	18
3.14033	18
3.14400	18
3.14767	18
3.15133	19
3.15500	19
3.15867	19
3.16233	19
3.16600	19
3.16967	20
3.17333	20
3.17700	21
3.18067	21
3.18433	22
3.18800	22
3.19167	22
3.19533	22
3.19900	22
3.20267	22
3.20633	22
3.21000	22
3.21367	22
3.21733	22
3.22100	22
3.22467	22
3.22833	22
3.23200	22
3.23567	22
3.23933	22
3.24300	22
3.24667	22
3.25033	22
3.25400	22
3.25767	23
3.26133	23
3.26500	23
3.26867	24
3.27233	24
3.27600	25
3.27967	25
3.28333	26
3.28700	26
3.29067	27
3.29433	27
3.29800	27
3.30167	28
3.30533	28
3.30900	28
3.31267	28
3.31633	29
3.32000	29
3.32367	29
3.32733	30
3.33100	30
3.33467	30
3.33833	30
3.34200	30
3.34567	30
3.34933	30
3.35300	30
3.35667	30
3.36033	30
3.36400	30
3.36767	30
3.37133	30
3.37500	30
3.37867	29
3.38233	29
3.38600	29
3.38967	29
3.39333	29
3.39700	29
3.40067	29
3.40433	29
3.40800	29
3.41167	29
3.41533	30
3.41900	30
3.42267	30
3.42633	30
3.43000	30
3.43367	30
3.43733	30
3.44100	30
3.44467	30
3.44833	30
3.45200	30
3.45567	30
3.45933	30
3.46300	30
3.46667	29
3.47033	29
3.47400	29
3.47767	29
3.48133	28
3.48500	28
3.48867	29
3.49233	29
3.49600	29
3.49967	29
3.50333	29
3.50700	29
3.51067	29
3.51433	29
3.51800	29
3.52167	29
3.52533	29
3.52900	29
3.53267	29
3.53633	29
3.54000	30
3.54367	30
3.54733	30
3.55100	30
3.55467	30
3.55833	30
3.56200	29
3.56567	29
3.56933	29
3.57300	28
3.57667	28
3.58033	28
3.58400	28
3.58767	28
3.59133	28
3.59500	28
3.59867	29
3.60233	29
3.60600	28
3.60967	28
3.61333	28
3.61700	28
3.62067	28
3.62433	28
3.62800	28
3.63167	27
3.63533	27
3.63900	27
3.64267	28
3.64633	28
3.65000	28
3.65367	28
3.65733	28
3.66100	28
3.66467	28
3.66833	28
3.67200	28
3.67567	28
3.67933	27
3.68300	27
3.68667	27
3.69033	27
3.69400	27
3.69767	27
3.70133	27
3.70500	26
3.70867	26
3.71233	26
3.71600	27
3.71967	27
3.72333	26
3.72700	26
3.73067	26
3.73433	26
3.73800	26
3.74167	26
3.74533	26
3.74900	26
3.75267	26
3.75633	26
3.76000	26
3.76367	26
3.76733	26
3.77100	26
3.77467	27
3.77833	27
3.78200	27
3.78567	27
3.78933	27
3.79300	27
3.79667	27
3.80033	27
3.80400	27
3.80767	27
3.81133	27
3.81500	27
3.81867	27
3.82233	27
3.82600	27
3.82967	26
3.83333	26
3.83700	26
3.84067	27
3.84433	27
3.84800	27
3.85167	28
3.85533	28
3.85900	29
3.86267	29
3.86633	29
3.87000	29
3.87367	29
3.87733	30
3.88100	30
3.88467	30
3.88833	29
3.89200	29
3.89567	29
3.89933	29
3.90300	29
3.90667	29
3.91033	29
3.91400	29
3.91767	28
3.92133	28
3.92500	28
3.92867	28
3.93233	28
3.93600	28
3.93967	28
3.94333	28
3.94700	28
3.95067	28
3.95433	27
3.95800	27
3.96167	27
3.96533	28
3.96900	28
3.97267	28
3.97633	28
3.98000	28
3.98367	28
3.98733	28
3.99100	28
3.99467	28
3.99833	28

[Chromatogram (Ch3)]
Interval(msec)	220
# of Points	1091
Start Time(min)	0.002
End Time(min)	3.998
R.Time (min)	Intensity
0.00167	-0
0.00533	0
0.00900	1
0.01267	3
0.01633	3
0.02000	4
0.02367	4
0.02733	4
0.03100	5
0.03467	3
0.03833	0
0.04200	-2
0.04567	-2
0.04933	-1
0.05300	2
0.05667	4
0.06033	8
0.06400	8
0.06767	7
0.07133	7
0.07500	5
0.07867	3
0.08233	2
0.08600	2
0.08967	2
0.09333	2
0.09700	3
0.10067	3
0.10433	3
0.10800	1
0.11167	1
0.11533	4
0.11900	4
0.12267	4
0.12633	4
0.13000	4
0.13367	6
0.13733	7
0.14100	5
0.14467	4
0.14833	3
0.15200	4
0.15567	5
0.15933	3
0.16300	2
0.16667	1
0.17033	1
0.17400	0
0.17767	-0
0.18133	0
0.18500	3
0.18867	3
0.19233	5
0.19600	5
0.19967	5
0.20333	5
0.20700	4
0.21067	5
0.21433	6
0.21800	6
0.22167	7
0.22533	8
0.22900	8
0.23267	4
0.23633	1
0.24000	1
0.24367	2
0.24733	4
0.25100	6
0.25467	6
0.25833	5
0.26200	5
0.26567	6
0.26933	8
0.27300	5
0.27667	4
0.28033	3
0.28400	2
0.28767	4
0.29133	4
0.29500	4
0.29867	4
0.30233	4
0.30600	4
0.30967	5
0.31333	5
0.31700	7
0.32067	9
0.32433	8
0.32800	8
0.33167	9
0.33533	11
0.33900	10
0.34267	9
0.34633	7
0.35000	5
0.35367	4
0.35733	5
0.36100	5
0.36467	6
0.36833	8
0.37200	8
0.37567	8
0.37933	5
0.38300	3
0.38667	3
0.39033	4
0.39400	6
0.39767	7
0.40133	7
0.40500	5
0.40867	5
0.41233	5
0.41600	4
0.41967	4
0.42333	3
0.42700	4
0.43067	5
0.43433	6
0.43800	7
0.44167	9
0.44533	10
0.44900	10
0.45267	8
0.45633	7
0.46000	6
0.46367	4
0.46733	1
0.47100	-0
0.47467	0
0.47833	0
0.48200	1
0.48567	3
0.48933	4
0.49300	5
0.49667	7
0.50033	6
0.50400	6
0.50767	5
0.51133	4
0.51500	4
0.51867	5
0.52233	5
0.52600	5
0.52967	8
0.53333	9
0.53700	8
0.54067	8
0.54433	9
0.54800	7
0.55167	3
0.55533	1
0.55900	-1
0.56267	-1
0.56633	0
0.57000	4
0.57367	5
0.57733	5
0.58100	3
0.58467	3
0.58833	2
0.59200	2
0.59567	2
0.59933	4
0.60300	5
0.60667	8
0.61033	8
0.61400	7
0.61767	7
0.62133	7
0.62500	8
0.62867	9
0.63233	8
0.63600	7
0.63967	6
0.64333	5
0.64700	4
0.65067	3
0.65433	2
0.65800	2
0.66167	1
0.66533	3
0.66900	5
0.67267	6
0.67633	7
0.68000	8
0.68367	8
0.68733	9
0.69100	7
0.69467	5
0.69833	6
0.70200	7
0.70567	7
0.70933	9
0.71300	11
0.71667	12
0.72033	11
0.72400	9
0.72767	8
0.73133	7
0.73500	7
0.73867	8
0.74233	8
0.74600	7
0.74967	7
0.75333	7
0.75700	8
0.76067	9
0.76433	9
0.76800	8
0.77167	9
0.77533	8
0.77900	5
0.78267	5
0.78633	7
0.79000	8
0.79367	11
0.79733	13
0.80100	15
0.80467	14
0.80833	13
0.81200	14
0.81567	14
0.81933	14
0.82300	14
0.82667	12
0.83033	12
0.83400	14
0.83767	13
0.84133	12
0.84500	11
0.84867	10
0.85233	9
0.85600	10
0.85967	10
0.86333	10
0.86700	11
0.87067	11
0.87433	12
0.87800	14
0.88167	16
0.88533	14
0.88900	14
0.89267	17
0.89633	18
0.90000	18
0.90367	17
0.90733	16
0.91100	15
0.91467	16
0.91833	15
0.92200	14
0.92567	15
0.92933	16
0.93300	16
0.93667	16
0.94033	17
0.94400	16
0.94767	17
0.95133	17
0.95500	15
0.95867	15
0.96233	15
0.96600	15
0.96967	15
0.97333	17
0.97700	17
0.98067	15
0.98433	14
0.98800	13
0.99167	12
0.99533	11
0.99900	11
1.00267	11
1.00633	12
1.01000	12
1.01367	13
1.01733	13
1.02100	15
1.02467	15
1.02833	15
1.03200	15
1.03567	14
1.03933	13
1.04300	14
1.04667	15
1.05033	16
1.05400	17
1.05767	17
1.06133	16
1.06500	15
1.06867	13
1.07233	13
1.07600	15
1.07967	16
1.08333	17
1.08700	19
1.09067	21
1.09433	19
1.09800	17
1.10167	16
1.10533	15
1.10900	13
1.11267	12
1.11633	14
1.12000	15
1.12367	17
1.12733	18
1.13100	17
1.13467	17
1.13833	21
1.14200	22
1.14567	21
1.14933	18
1.15300	18
1.15667	18
1.16033	17
1.16400	18
1.16767	16
1.17133	16
1.17500	17
1.17867	16
1.18233	15
1.18600	15
1.18967	16
1.19333	17
1.19700	17
1.20067	17
1.20433	19
1.20800	21
1.21167	21
1.21533	22
1.21900	24
1.22267	25
1.22633	25
1.23000	24
1.23367	24
1.23733	24
1.24100	23
1.24467	21
1.24833	20
1.25200	21
1.25567	21
1.25933	21
1.26300	21
1.26667	19
1.27033	21
1.27400	21
1.27767	21
1.28133	22
1.28500	21
1.28867	22
1.29233	22
1.29600	24
1.29967	28
1.30333	29
1.30700	27
1.31067	24
1.31433	25
1.31800	26
1.32167	24
1.32533	23
1.32900	21
1.33267	20
1.33633	20
1.34000	22
1.34367	25
1.34733	27
1.35100	26
1.35467	24
1.35833	24
1.36200	26
1.36567	27
1.36933	26
1.37300	25
1.37667	25
1.38033	25
1.38400	26
1.38767	26
1.39133	26
1.39500	26
1.39867	26
1.40233	23
1.40600	22
1.40967	21
1.41333	22
1.41700	26
1.42067	29
1.42433	30
1.42800	31
1.43167	31
1.43533	29
1.43900	27
1.44267	26
1.44633	26
1.45000	25
1.45367	25
1.45733	27
1.46100	30
1.46467	31
1.46833	31
1.47200	31
1.47567	32
1.47933	31
1.48300	30
1.48667	28
1.49033	28
1.49400	28
1.49767	31
1.50133	32
1.50500	32
1.50867	32
1.51233	32
1.51600	30
1.51967	29
1.52333	27
1.52700	27
1.53067	26
1.53433	27
1.53800	28
1.54167	28
1.54533	28
1.54900	28
1.55267	29
1.55633	29
1.56000	29
1.56367	29
1.56733	28
1.57100	27
1.57467	27
1.57833	29
1.58200	29
1.58567	30
1.58933	32
1.59300	32
1.59667	32
1.60033	32
1.60400	29
1.60767	29
1.61133	30
1.61500	31
1.61867	30
1.62233	29
1.62600	28
1.62967	28
1.63333	29
1.63700	30
1.64067	31
1.64433	33
1.64800	33
1.65167	33
1.65533	34
1.65900	35
1.66267	33
1.66633	35
1.67000	37
1.67367	38
1.67733	36
1.68100	35
1.68467	36
1.68833	38
1.69200	40
1.69567	43
1.69933	44
1.70300	47
1.70667	46
1.71033	44
1.71400	43
1.71767	41
1.72133	41
1.72500	41
1.72867	42
1.73233	44
1.73600	44
1.73967	43
1.74333	43
1.74700	43
1.75067	44
1.75433	45
1.75800	45
1.76167	47
1.76533	49
1.76900	48
1.77267	48
1.77633	46
1.78000	45
1.78367	45
1.78733	46
1.79100	46
1.79467	47
1.79833	46
1.80200	47
1.80567	48
1.80933	48
1.81300	48
1.81667	50
1.82033	51
1.82400	52
1.82767	53
1.83133	54
1.83500	54
1.83867	53
1.84233	51
1.84600	51
1.84967	52
1.85333	53
1.85700	55
1.86067	56
1.86433	55
1.86800	55
1.87167	56
1.87533	56
1.87900	56
1.88267	56
1.88633	57
1.89000	56
1.89367	54
1.89733	55
1.90100	58
1.90467	60
1.90833	60
1.91200	62
1.91567	66
1.91933	68
1.92300	70
1.92667	72
1.93033	72
1.93400	71
1.93767	70
1.94133	71
1.94500	73
1.94867	72
1.95233	73
1.95600	75
1.95967	76
1.96333	78
1.96700	79
1.97067	81
1.97433	81
1.97800	79
1.98167	79
1.98533	80
1.98900	80
1.99267	81
1.99633	82
2.00000	84
2.00367	85
2.00733	85
2.01100	84
2.01467	84
2.01833	85
2.02200	86
2.02567	87
2.02933	87
2.03300	88
2.03667	89
2.04033	90
2.04400	90
2.04767	93
2.05133	97
2.05500	100
2.05867	101
2.06233	100
2.06600	100
2.06967	101
2.07333	103
2.07700	105
2.08067	109
2.08433	112
2.08800	113
2.09167	115
2.09533	115
2.09900	116
2.10267	117
2.10633	120
2.11000	122
2.11367	123
2.11733	122
2.12100	122
2.12467	122
2.12833	124
2.13200	126
2.13567	128
2.13933	129
2.14300	129
2.14667	131
2.15033	133
2.15400	134
2.15767	134
2.16133	135
2.16500	138
2.16867	140
2.17233	142
2.17600	143
2.17967	143
2.18333	145
2.18700	148
2.19067	150
2.19433	150
2.19800	150
2.20167	150
2.20533	151
2.20900	154
2.21267	156
2.21633	158
2.22000	159
2.22367	163
2.22733	165
2.23100	167
2.23467	169
2.23833	170
2.24200	171
2.24567	172
2.24933	171
2.25300	173
2.25667	173
2.26033	172
2.26400	174
2.26767	177
2.27133	180
2.27500	183
2.27867	183
2.28233	183
2.28600	185
2.28967	188
2.29333	194
2.29700	197
2.30067	200
2.30433	201
2.30800	203
2.31167	205
2.31533	205
2.31900	206
2.32267	208
2.32633	211
2.33000	215
2.33367	217
2.33733	219
2.34100	220
2.34467	222
2.34833	224
2.35200	226
2.35567	228
2.35933	231
2.36300	233
2.36667	235
2.37033	238
2.37400	238
2.37767	239
2.38133	241
2.38500	241
2.38867	240
2.39233	243
2.39600	245
2.39967	252
2.40333	257
2.40700	261
2.41067	265
2.41433	269
2.41800	271
2.42167	272
2.42533	273
2.42900	276
2.43267	278
2.43633	277
2.44000	283
2.44367	341
2.44733	488
2.45100	645
2.45467	775
2.45833	851
2.46200	863
2.46567	837
2.46933	800
2.47300	771
2.47667	756
2.48033	744
2.48400	722
2.48767	687
2.49133	645
2.49500	605
2.49867	568
2.50233	541
2.50600	524
2.50967	513
2.51333	511
2.51700	520
2.52067	537
2.52433	557
2.52800	576
2.53167	590
2.53533	591
2.53900	580
2.54267	560
2.54633	534
2.55000	505
2.55367	478
2.55733	453
2.56100	432
2.56467	420
2.56833	410
2.57200	403
2.57567	397
2.57933	391
2.58300	388
2.58667	386
2.59033	385
2.59400	385
2.59767	382
2.60133	377
2.60500	367
2.60867	356
2.61233	344
2.61600	328
2.61967	316
2.62333	308
2.62700	303
2.63067	300
2.63433	300
2.63800	301
2.64167	303
2.64533	305
2.64900	305
2.65267	306
2.65633	305
2.66000	299
2.66367	291
2.66733	283
2.67100	275
2.67467	266
2.67833	256
2.68200	247
2.68567	241
2.68933	235
2.69300	230
2.69667	228
2.70033	225
2.70400	221
2.70767	218
2.71133	217
2.71500	216
2.71867	217
2.72233	217
2.72600	217
2.72967	219
2.73333	219
2.73700	220
2.74067	224
2.74433	226
2.74800	227
2.75167	227
2.75533	228
2.75900	230
2.76267	232
2.76633	234
2.77000	235
2.77367	237
2.77733	238
2.78100	239
2.78467	241
2.78833	243
2.79200	244
2.79567	244
2.79933	247
2.80300	250
2.80667	251
2.81033	252
2.81400	254
2.81767	262
2.82133	274
2.82500	299
2.82867	350
2.83233	446
2.83600	608
2.83967	856
2.84333	1205
2.84700	1659
2.85067	2198
2.85433	2791
2.85800	3394
2.86167	3957
2.86533	4433
2.86900	4786
2.87267	4996
2.87633	5060
2.88000	4992
2.88367	4815
2.88733	4557
2.89100	4246
2.89467	3905
2.89833	3553
2.90200	3209
2.90567	2882
2.90933	2579
2.91300	2303
2.91667	2052
2.92033	1827
2.92400	1627
2.92767	1451
2.93133	1299
2.93500	1166
2.93867	1049
2.94233	948
2.94600	861
2.94967	783
2.95333	714
2.95700	654
2.96067	601
2.96433	556
2.96800	515
2.97167	479
2.97533	451
2.97900	428
2.98267	407
2.98633	387
2.99000	367
2.99367	349
2.99733	334
3.00100	321
3.00467	308
3.00833	295
3.01200	285
3.01567	276
3.01933	270
3.02300	264
3.02667	259
3.03033	256
3.03400	251
3.03767	247
3.04133	241
3.04500	237
3.04867	236
3.05233	235
3.05600	233
3.05967	231
3.06333	228
3.06700	225
3.07067	223
3.07433	223
3.07800	223
3.08167	223
3.08533	223
3.08900	221
3.09267	219
3.09633	219
3.10000	219
3.10367	219
3.10733	218
3.11100	216
3.11467	214
3.11833	213
3.12200	214
3.12567	217
3.12933	217
3.13300	214
3.13667	212
3.14033	212
3.14400	211
3.14767	210
3.15133	210
3.15500	209
3.15867	195
3.16233	169
3.16600	146
3.16967	136
3.17333	138
3.17700	150
3.18067	174
3.18433	209
3.18800	250
3.19167	295
3.19533	338
3.19900	378
3.20267	417
3.20633	451
3.21000	479
3.21367	504
3.21733	526
3.22100	545
3.22467	564
3.22833	580
3.23200	593
3.23567	603
3.23933	613
3.24300	623
3.24667	633
3.25033	643
3.25400	651
3.25767	657
3.26133	664
3.26500	672
3.26867	680
3.27233	685
3.27600	693
3.27967	701
3.28333	708
3.28700	715
3.29067	719
3.29433	721
3.29800	725
3.30167	730
3.30533	736
3.30900	741
3.31267	748
3.31633	753
3.32000	761
3.32367	767
3.32733	770
3.33100	774
3.33467	778
3.33833	781
3.34200	784
3.34567	787
3.34933	792
3.35300	793
3.35667	795
3.36033	797
3.36400	796
3.36767	796
3.37133	796
3.37500	799
3.37867	798
3.38233	798
3.38600	799
3.38967	799
3.39333	798
3.39700	798
3.40067	796
3.40433	795
3.40800	792
3.41167	791
3.41533	790
3.41900	789
3.42267	786
3.42633	785
3.43000	783
3.43367	780
3.43733	780
3.44100	779
3.44467	776
3.44833	774
3.45200	770
3.45567	768
3.45933	766
3.46300	763
3.46667	760
3.47033	759
3.47400	762
3.47767	760
3.48133	757
3.48500	755
3.48867	750
3.49233	745
3.49600	743
3.49967	741
3.50333	740
3.50700	739
3.51067	739
3.51433	739
3.51800	738
3.52167	737
3.52533	737
3.52900	736
3.53267	734
3.53633	732
3.54000	728
3.54367	725
3.54733	722
3.55100	722
3.55467	722
3.55833	720
3.56200	718
3.56567	718
3.56933	719
3.57300	718
3.57667	716
3.58033	717
3.58400	718
3.58767	719
3.59133	717
3.59500	716
3.59867	717
3.60233	719
3.60600	718
3.60967	719
3.61333	720
3.61700	719
3.62067	717
3.62433	714
3.62800	712
3.63167	713
3.63533	711
3.63900	711
3.64267	711
3.64633	712
3.65000	712
3.65367	709
3.65733	709
3.66100	709
3.66467	709
3.66833	708
3.67200	707
3.67567	708
3.67933	710
3.68300	712
3.68667	712
3.69033	713
3.69400	714
3.69767	714
3.70133	713
3.70500	711
3.70867	711
3.71233	711
3.71600	708
3.71967	707
3.72333	706
3.72700	704
3.73067	702
3.73433	701
3.73800	701
3.74167	699
3.74533	698
3.74900	698
3.75267	699
3.75633	699
3.76000	700
3.76367	701
3.76733	701
3.77100	699
3.77467	699
3.77833	700
3.78200	700
3.78567	699
3.78933	697
3.79300	693
3.79667	688
3.80033	687
3.80400	687
3.80767	688
3.81133	690
3.81500	691
3.81867	688
3.82233	685
3.82600	685
3.82967	684
3.83333	683
3.83700	681
3.84067	680
3.84433	678
3.84800	677
3.85167	674
3.85533	671
3.85900	670
3.86267	673
3.86633	675
3.87000	673
3.87367	670
3.87733	669
3.88100	668
3.88467	667
3.88833	665
3.89200	663
3.89567	662
3.89933	661
3.90300	660
3.90667	657
3.91033	653
3.91400	652
3.91767	650
3.92133	648
3.92500	646
3.92867	646
3.93233	646
3.93600	645
3.93967	644
3.94333	645
3.94700	645
3.95067	647
3.95433	645
3.95800	641
3.96167	638
3.96533	633
3.96900	629
3.97267	628
3.97633	625
3.98000	624
3.98367	622
3.98733	620
3.99100	617
3.99467	612
3.99833	608

[Status Trace (Column Oven Temperature)]
Interval(msec)	1000
# of Points	240
Start Time(min)	0.009
End Time(min)	3.992
Intensity Units	
Intensity Multiplier	1
R.Time (min)	Intensity
0.00862	35.06
0.02528	35.05
0.04195	35.04
0.05862	35.04
0.07528	35.04
0.09195	35.03
0.10862	35.03
0.12528	35.04
0.14195	35.04
0.15862	35.04
0.17528	35.05
0.19195	35.06
0.20862	35.05
0.22528	35.04
0.24195	35.03
0.25862	35.04
0.27528	35.04
0.29195	35.03
0.30862	35.04
0.32528	35.03
0.34195	35.03
0.35862	35.01
0.37528	35.00
0.39195	34.98
0.40862	34.98
0.42528	34.99
0.44195	35.00
0.45862	35.00
0.47528	35.01
0.49195	35.01
0.50862	35.01
0.52528	35.02
0.54195	35.01
0.55862	35.01
0.57528	35.01
0.59195	34.99
0.60862	34.99
0.62528	34.98
0.64195	34.99
0.65862	35.00
0.67528	35.00
0.69195	35.00
0.70862	34.99
0.72528	35.00
0.74195	35.00
0.75862	34.99
0.77528	35.00
0.79195	35.00
0.80862	35.01
0.82528	35.02
0.84195	35.02
0.85862	35.03
0.87528	35.02
0.89195	35.01
0.90862	35.00
0.92528	34.98
0.94195	34.97
0.95862	34.97
0.97528	34.97
0.99195	34.97
1.00862	34.98
1.02528	34.98
1.04195	35.00
1.05862	35.00
1.07528	35.00
1.09195	35.01
1.10862	35.03
1.12528	35.02
1.14195	35.01
1.15862	35.00
1.17528	34.99
1.19195	35.00
1.20862	35.01
1.22528	35.02
1.24195	35.02
1.25862	35.02
1.27528	35.04
1.29195	35.02
1.30862	35.02
1.32528	35.01
1.34195	35.01
1.35862	35.00
1.37528	34.99
1.39195	34.98
1.40862	34.97
1.42528	34.98
1.44195	34.98
1.45862	34.99
1.47528	35.00
1.49195	35.00
1.50862	34.99
1.52528	34.99
1.54195	35.00
1.55862	35.01
1.57528	35.01
1.59195	35.02
1.60862	35.07
1.62528	35.20
1.64195	35.38
1.65862	35.64
1.67528	35.98
1.69195	36.35
1.70862	36.69
1.72528	37.03
1.74195	37.37
1.75862	37.73
1.77528	38.06
1.79195	38.35
1.80862	38.63
1.82528	38.98
1.84195	39.32
1.85862	39.64
1.87528	39.98
1.89195	40.31
1.90862	40.64
1.92528	40.96
1.94195	41.31
1.95862	41.63
1.97528	41.96
1.99195	42.30
2.00862	42.63
2.02528	42.95
2.04195	43.28
2.05862	43.60
2.07528	43.89
2.09195	44.22
2.10862	44.55
2.12528	44.89
2.14195	45.22
2.15862	45.53
2.17528	45.89
2.19195	46.19
2.20862	46.52
2.22528	46.86
2.24195	47.18
2.25862	47.51
2.27528	47.83
2.29195	48.19
2.30862	48.54
2.32528	48.86
2.34195	49.18
2.35862	49.46
2.37528	49.65
2.39195	49.72
2.40862	49.71
2.42528	49.73
2.44195	49.74
2.45862	49.73
2.47528	49.74
2.49195	49.76
2.50862	49.76
2.52528	49.78
2.54195	49.79
2.55862	49.81
2.57528	49.82
2.59195	49.82
2.60862	49.82
2.62528	49.82
2.64195	49.83
2.65862	49.83
2.67528	49.85
2.69195	49.85
2.70862	49.85
2.72528	49.85
2.74195	49.86
2.75862	49.87
2.77528	49.87
2.79195	49.88
2.80862	49.87
2.82528	49.86
2.84195	49.86
2.85862	49.87
2.87528	49.86
2.89195	49.88
2.90862	49.90
2.92528	49.92
2.94195	49.94
2.95862	49.98
2.97528	50.00
2.99195	50.01
3.00862	50.00
3.02528	50.00
3.04195	50.00
3.05862	50.00
3.07528	50.01
3.09195	50.02
3.10862	50.03
3.12528	50.04
3.14195	50.05
3.15862	50.07
3.17528	50.07
3.19195	50.07
3.20862	50.08
3.22528	50.10
3.24195	50.12
3.25862	50.12
3.27528	50.11
3.29195	50.10
3.30862	50.08
3.32528	50.06
3.34195	50.04
3.35862	50.04
3.37528	50.04
3.39195	50.03
3.40862	50.02
3.42528	50.02
3.44195	50.01
3.45862	50.01
3.47528	50.00
3.49195	50.01
3.50862	50.00
3.52528	50.00
3.54195	50.00
3.55862	50.00
3.57528	50.00
3.59195	49.99
3.60862	50.00
3.62528	50.01
3.64195	50.01
3.65862	50.01
3.67528	50.02
3.69195	50.03
3.70862	50.04
3.72528	50.05
3.74195	50.06
3.75862	50.06
3.77528	50.07
3.79195	50.08
3.80862	50.09
3.82528	50.10
3.84195	50.10
3.85862	50.08
3.87528	50.07
3.89195	50.06
3.90862	50.05
3.92528	50.06
3.94195	50.06
3.95862	50.07
3.97528	50.06
3.99195	50.05

[Status Trace (Injection Unit Temperature)]
Interval(msec)	1000
# of Points	240
Start Time(min)	0.009
End Time(min)	3.992
Intensity Units	
Intensity Multiplier	1
R.Time (min)	Intensity
0.00862	99.98
0.02528	99.98
0.04195	99.98
0.05862	99.98
0.07528	99.98
0.09195	99.98
0.10862	99.98
0.12528	99.98
0.14195	99.98
0.15862	99.98
0.17528	99.98
0.19195	99.98
0.20862	99.98
0.22528	99.99
0.24195	99.98
0.25862	99.99
0.27528	99.99
0.29195	99.98
0.30862	99.98
0.32528	99.98
0.34195	99.98
0.35862	99.98
0.37528	99.99
0.39195	99.98
0.40862	99.98
0.42528	99.99
0.44195	99.99
0.45862	99.98
0.47528	99.99
0.49195	99.99
0.50862	99.99
0.52528	99.98
0.54195	99.98
0.55862	99.98
0.57528	99.99
0.59195	99.99
0.60862	99.99
0.62528	99.98
0.64195	99.99
0.65862	99.99
0.67528	99.98
0.69195	99.99
0.70862	99.98
0.72528	99.98
0.74195	99.98
0.75862	99.98
0.77528	99.98
0.79195	99.99
0.80862	99.99
0.82528	99.98
0.84195	99.99
0.85862	99.98
0.87528	99.98
0.89195	99.99
0.90862	99.99
0.92528	99.98
0.94195	99.98
0.95862	99.98
0.97528	99.99
0.99195	99.98
1.00862	99.99
1.02528	99.99
1.04195	99.98
1.05862	99.98
1.07528	99.99
1.09195	99.99
1.10862	99.98
1.12528	99.98
1.14195	99.99
1.15862	99.99
1.17528	99.99
1.19195	99.98
1.20862	99.99
1.22528	99.98
1.24195	99.98
1.25862	99.98
1.27528	99.98
1.29195	99.98
1.30862	99.98
1.32528	99.98
1.34195	99.98
1.35862	99.99
1.37528	99.98
1.39195	99.98
1.40862	99.99
1.42528	99.98
1.44195	99.98
1.45862	99.98
1.47528	99.99
1.49195	99.98
1.50862	99.99
1.52528	99.98
1.54195	99.98
1.55862	99.98
1.57528	99.98
1.59195	99.98
1.60862	99.98
1.62528	99.98
1.64195	99.98
1.65862	99.98
1.67528	99.98
1.69195	99.97
1.70862	99.98
1.72528	99.98
1.74195	99.98
1.75862	99.98
1.77528	99.98
1.79195	99.98
1.80862	99.99
1.82528	99.98
1.84195	99.98
1.85862	99.98
1.87528	99.98
1.89195	99.98
1.90862	99.98
1.92528	99.98
1.94195	99.98
1.95862	99.98
1.97528	99.98
1.99195	99.98
2.00862	99.98
2.02528	99.98
2.04195	99.98
2.05862	99.98
2.07528	99.97
2.09195	99.97
2.10862	99.98
2.12528	99.97
2.14195	99.98
2.15862	99.97
2.17528	99.97
2.19195	99.97
2.20862	99.97
2.22528	99.97
2.24195	99.97
2.25862	99.97
2.27528	99.97
2.29195	99.98
2.30862	99.97
2.32528	99.97
2.34195	99.97
2.35862	99.97
2.37528	99.97
2.39195	99.97
2.40862	99.98
2.42528	99.97
2.44195	99.98
2.45862	99.97
2.47528	99.98
2.49195	99.98
2.50862	99.98
2.52528	99.98
2.54195	99.97
2.55862	99.98
2.57528	99.98
2.59195	99.98
2.60862	99.98
2.62528	99.98
2.64195	99.98
2.65862	99.98
2.67528	99.99
2.69195	99.99
2.70862	99.99
2.72528	99.99
2.74195	99.99
2.75862	99.99
2.77528	99.99
2.79195	100.00
2.80862	100.00
2.82528	100.00
2.84195	100.00
2.85862	100.00
2.87528	100.01
2.89195	100.01
2.90862	100.01
2.92528	100.01
2.94195	100.01
2.95862	100.01
2.97528	100.01
2.99195	100.01
3.00862	100.02
3.02528	100.02
3.04195	100.01
3.05862	100.02
3.07528	100.02
3.09195	100.02
3.10862	100.02
3.12528	100.02
3.14195	100.02
3.15862	100.02
3.17528	100.02
3.19195	100.02
3.20862	100.03
3.22528	100.03
3.24195	100.03
3.25862	100.03
3.27528	100.03
3.29195	100.03
3.30862	100.03
3.32528	100.03
3.34195	100.03
3.35862	100.03
3.37528	100.03
3.39195	100.03
3.40862	100.03
3.42528	100.03
3.44195	100.03
3.45862	100.03
3.47528	100.03
3.49195	100.03
3.50862	100.03
3.52528	100.03
3.54195	100.03
3.55862	100.03
3.57528	100.03
3.59195	100.03
3.60862	100.03
3.62528	100.03
3.64195	100.04
3.65862	100.03
3.67528	100.04
3.69195	100.04
3.70862	100.04
3.72528	100.04
3.74195	100.03
3.75862	100.04
3.77528	100.04
3.79195	100.04
3.80862	100.04
3.82528	100.04
3.84195	100.03
3.85862	100.04
3.87528	100.04
3.89195	100.04
3.90862	100.04
3.92528	100.04
3.94195	100.04
3.95862	100.04
3.97528	100.04
3.99195	100.04

[Status Trace (Carrier Gas Pressure)]
Interval(msec)	1000
# of Points	240
Start Time(min)	0.009
End Time(min)	3.992
Intensity Units	
Intensity Multiplier	1
R.Time (min)	Intensity
0.00862	58.00
0.02528	55.30
0.04195	57.26
0.05862	59.31
0.07528	59.33
0.09195	58.04
0.10862	57.98
0.12528	58.01
0.14195	58.01
0.15862	58.01
0.17528	58.00
0.19195	58.00
0.20862	58.00
0.22528	58.00
0.24195	58.00
0.25862	58.00
0.27528	58.00
0.29195	58.00
0.30862	58.00
0.32528	58.00
0.34195	58.00
0.35862	58.00
0.37528	58.00
0.39195	58.00
0.40862	58.00
0.42528	58.00
0.44195	58.00
0.45862	58.00
0.47528	58.00
0.49195	58.00
0.50862	58.00
0.52528	58.00
0.54195	58.00
0.55862	58.00
0.57528	58.00
0.59195	58.00
0.60862	58.00
0.62528	58.00
0.64195	58.00
0.65862	58.00
0.67528	58.00
0.69195	58.00
0.70862	58.00
0.72528	58.00
0.74195	58.00
0.75862	58.00
0.77528	58.00
0.79195	58.00
0.80862	58.00
0.82528	58.00
0.84195	58.00
0.85862	58.00
0.87528	58.00
0.89195	58.00
0.90862	58.00
0.92528	58.00
0.94195	58.00
0.95862	58.00
0.97528	58.00
0.99195	58.00
1.00862	58.00
1.02528	58.00
1.04195	58.00
1.05862	58.00
1.07528	58.00
1.09195	58.00
1.10862	58.00
1.12528	58.00
1.14195	58.00
1.15862	58.00
1.17528	58.00
1.19195	58.00
1.20862	58.00
1.22528	58.00
1.24195	58.00
1.25862	58.00
1.27528	58.00
1.29195	58.00
1.30862	58.00
1.32528	58.00
1.34195	58.00
1.35862	58.00
1.37528	58.00
1.39195	58.00
1.40862	58.00
1.42528	58.00
1.44195	58.00
1.45862	58.00
1.47528	58.00
1.49195	58.00
1.50862	58.00
1.52528	58.00
1.54195	58.00
1.55862	58.00
1.57528	58.00
1.59195	58.00
1.60862	58.00
1.62528	58.00
1.64195	58.01
1.65862	58.00
1.67528	58.01
1.69195	58.00
1.70862	58.00
1.72528	58.00
1.74195	58.00
1.75862	58.00
1.77528	58.00
1.79195	58.00
1.80862	58.00
1.82528	58.00
1.84195	58.00
1.85862	58.00
1.87528	58.00
1.89195	58.00
1.90862	58.00
1.92528	58.00
1.94195	58.00
1.95862	58.00
1.97528	58.00
1.99195	58.00
2.00862	58.00
2.02528	58.00
2.04195	58.00
2.05862	58.00
2.07528	58.00
2.09195	58.00
2.10862	58.00
2.12528	58.00
2.14195	58.00
2.15862	58.00
2.17528	58.00
2.19195	58.00
2.20862	58.00
2.22528	58.00
2.24195	58.00
2.25862	58.00
2.27528	58.00
2.29195	58.00
2.30862	58.00
2.32528	58.00
2.34195	58.00
2.35862	58.00
2.37528	58.00
2.39195	57.99
2.40862	57.99
2.42528	58.00
2.44195	58.00
2.45862	58.00
2.47528	58.00
2.49195	58.00
2.50862	57.99
2.52528	57.99
2.54195	58.00
2.55862	58.00
2.57528	58.00
2.59195	58.00
2.60862	58.00
2.62528	58.00
2.64195	58.00
2.65862	58.00
2.67528	58.00
2.69195	58.00
2.70862	58.00
2.72528	58.00
2.74195	58.00
2.75862	58.00
2.77528	58.00
2.79195	58.00
2.80862	58.00
2.82528	58.00
2.84195	58.00
2.85862	58.00
2.87528	58.00
2.89195	58.00
2.90862	58.00
2.92528	58.00
2.94195	58.00
2.95862	58.00
2.97528	58.00
2.99195	58.00
3.00862	58.00
3.02528	58.00
3.04195	58.00
3.05862	58.00
3.07528	58.00
3.09195	58.00
3.10862	58.00
3.12528	58.00
3.14195	58.00
3.15862	58.00
3.17528	58.00
3.19195	58.00
3.20862	58.00
3.22528	58.00
3.24195	58.00
3.25862	58.00
3.27528	58.00
3.29195	58.00
3.30862	58.00
3.32528	58.00
3.34195	58.00
3.35862	58.00
3.37528	58.00
3.39195	58.00
3.40862	58.00
3.42528	58.00
3.44195	58.00
3.45862	58.00
3.47528	58.00
3.49195	58.00
3.50862	58.00
3.52528	58.00
3.54195	58.00
3.55862	58.00
3.57528	58.00
3.59195	58.00
3.60862	58.00
3.62528	58.00
3.64195	58.00
3.65862	58.00
3.67528	58.00
3.69195	58.00
3.70862	58.00
3.72528	58.00
3.74195	58.00
3.75862	58.00
3.77528	58.00
3.79195	58.00
3.80862	58.00
3.82528	58.00
3.84195	58.00
3.85862	58.00
3.87528	58.00
3.89195	58.00
3.90862	58.00
3.92528	58.00
3.94195	58.00
3.95862	58.00
3.97528	58.00
3.99195	58.00

[Status Trace (Carrier Gas Flow)]
Interval(msec)	1000
# of Points	240
Start Time(min)	0.009
End Time(min)	3.992
Intensity Units	
Intensity Multiplier	1
R.Time (min)	Intensity
0.00862	34.52
0.02528	34.53
0.04195	34.55
0.05862	34.55
0.07528	34.50
0.09195	34.52
0.10862	34.52
0.12528	34.52
0.14195	34.52
0.15862	34.52
0.17528	34.52
0.19195	34.52
0.20862	34.52
0.22528	34.52
0.24195	34.52
0.25862	34.52
0.27528	34.52
0.29195	34.52
0.30862	34.52
0.32528	34.52
0.34195	34.52
0.35862	34.52
0.37528	34.52
0.39195	34.52
0.40862	34.51
0.42528	34.51
0.44195	34.51
0.45862	34.52
0.47528	34.52
0.49195	34.53
0.50862	34.51
0.52528	34.52
0.54195	34.52
0.55862	34.51
0.57528	34.52
0.59195	34.52
0.60862	34.53
0.62528	34.52
0.64195	34.51
0.65862	34.52
0.67528	34.52
0.69195	34.52
0.70862	34.52
0.72528	34.52
0.74195	34.52
0.75862	34.52
0.77528	34.52
0.79195	34.52
0.80862	34.52
0.82528	34.52
0.84195	34.52
0.85862	34.52
0.87528	34.52
0.89195	34.52
0.90862	34.51
0.92528	34.52
0.94195	34.52
0.95862	34.52
0.97528	34.51
0.99195	34.52
1.00862	34.52
1.02528	34.51
1.04195	34.52
1.05862	34.52
1.07528	34.52
1.09195	34.52
1.10862	34.51
1.12528	34.51
1.14195	34.52
1.15862	34.52
1.17528	34.52
1.19195	34.52
1.20862	34.52
1.22528	34.51
1.24195	34.52
1.25862	34.52
1.27528	34.53
1.29195	34.52
1.30862	34.52
1.32528	34.52
1.34195	34.52
1.35862	34.52
1.37528	34.51
1.39195	34.52
1.40862	34.52
1.42528	34.52
1.44195	34.52
1.45862	34.52
1.47528	34.51
1.49195	34.52
1.50862	34.51
1.52528	34.52
1.54195	34.52
1.55862	34.52
1.57528	34.52
1.59195	34.52
1.60862	34.52
1.62528	34.52
1.64195	34.51
1.65862	34.52
1.67528	34.52
1.69195	34.52
1.70862	34.51
1.72528	34.52
1.74195	34.52
1.75862	34.51
1.77528	34.51
1.79195	34.52
1.80862	34.52
1.82528	34.52
1.84195	34.52
1.85862	34.52
1.87528	34.53
1.89195	34.52
1.90862	34.52
1.92528	34.52
1.94195	34.52
1.95862	34.52
1.97528	34.52
1.99195	34.52
2.00862	34.52
2.02528	34.52
2.04195	34.52
2.05862	34.52
2.07528	34.52
2.09195	34.52
2.10862	34.52
2.12528	34.52
2.14195	34.52
2.15862	34.51
2.17528	34.53
2.19195	34.51
2.20862	34.52
2.22528	34.51
2.24195	34.51
2.25862	34.52
2.27528	34.53
2.29195	34.52
2.30862	34.52
2.32528	34.52
2.34195	34.52
2.35862	34.52
2.37528	34.51
2.39195	34.52
2.40862	34.52
2.42528	34.52
2.44195	34.52
2.45862	34.52
2.47528	34.52
2.49195	34.52
2.50862	34.45
2.52528	34.53
2.54195	34.52
2.55862	34.52
2.57528	34.52
2.59195	34.52
2.60862	34.52
2.62528	34.52
2.64195	34.52
2.65862	34.52
2.67528	34.51
2.69195	34.51
2.70862	34.51
2.72528	34.52
2.74195	34.52
2.75862	34.52
2.77528	34.52
2.79195	34.52
2.80862	34.52
2.82528	34.51
2.84195	34.51
2.85862	34.52
2.87528	34.51
2.89195	34.52
2.90862	34.52
2.92528	34.52
2.94195	34.51
2.95862	34.51
2.97528	34.52
2.99195	34.52
3.00862	34.52
3.02528	34.52
3.04195	34.53
3.05862	34.52
3.07528	34.52
3.09195	34.52
3.10862	34.52
3.12528	34.52
3.14195	34.52
3.15862	34.52
3.17528	34.52
3.19195	34.52
3.20862	34.51
3.22528	34.52
3.24195	34.52
3.25862	34.52
3.27528	34.52
3.29195	34.53
3.30862	34.52
3.32528	34.52
3.34195	34.52
3.35862	34.51
3.37528	34.52
3.39195	34.53
3.40862	34.52
3.42528	34.52
3.44195	34.52
3.45862	34.52
3.47528	34.52
3.49195	34.52
3.50862	34.52
3.52528	34.52
3.54195	34.52
3.55862	34.52
3.57528	34.52
3.59195	34.52
3.60862	34.52
3.62528	34.52
3.64195	34.52
3.65862	34.52
3.67528	34.52
3.69195	34.52
3.70862	34.52
3.72528	34.52
3.74195	34.52
3.75862	34.52
3.77528	34.52
3.79195	34.52
3.80862	34.51
3.82528	34.52
3.84195	34.52
3.85862	34.52
3.87528	34.51
3.89195	34.52
3.90862	34.52
3.92528	34.51
3.94195	34.52
3.95862	34.52
3.97528	34.52
3.99195	34.53

[Status Trace (Column Flow)]
Interval(msec)	1000
# of Points	240
Start Time(min)	0.009
End Time(min)	3.992
Intensity Units	
Intensity Multiplier	1
R.Time (min)	Intensity
0.00862	5.52
0.02528	5.21
0.04195	5.44
0.05862	5.67
0.07528	5.68
0.09195	5.53
0.10862	5.52
0.12528	5.52
0.14195	5.52
0.15862	5.52
0.17528	5.52
0.19195	5.52
0.20862	5.52
0.22528	5.52
0.24195	5.52
0.25862	5.52
0.27528	5.52
0.29195	5.52
0.30862	5.52
0.32528	5.52
0.34195	5.52
0.35862	5.52
0.37528	5.52
0.39195	5.52
0.40862	5.52
0.42528	5.52
0.44195	5.52
0.45862	5.52
0.47528	5.52
0.49195	5.52
0.50862	5.52
0.52528	5.52
0.54195	5.52
0.55862	5.52
0.57528	5.52
0.59195	5.52
0.60862	5.52
0.62528	5.52
0.64195	5.52
0.65862	5.52
0.67528	5.52
0.69195	5.52
0.70862	5.52
0.72528	5.52
0.74195	5.52
0.75862	5.52
0.77528	5.52
0.79195	5.52
0.80862	5.52
0.82528	5.52
0.84195	5.52
0.85862	5.52
0.87528	5.52
0.89195	5.52
0.90862	5.52
0.92528	5.52
0.94195	5.52
0.95862	5.52
0.97528	5.52
0.99195	5.52
1.00862	5.52
1.02528	5.52
1.04195	5.52
1.05862	5.52
1.07528	5.52
1.09195	5.52
1.10862	5.52
1.12528	5.52
1.14195	5.52
1.15862	5.52
1.17528	5.52
1.19195	5.52
1.20862	5.52
1.22528	5.52
1.24195	5.52
1.25862	5.52
1.27528	5.52
1.29195	5.52
1.30862	5.52
1.32528	5.52
1.34195	5.52
1.35862	5.52
1.37528	5.52
1.39195	5.52
1.40862	5.52
1.42528	5.52
1.44195	5.52
1.45862	5.52
1.47528	5.52
1.49195	5.52
1.50862	5.52
1.52528	5.52
1.54195	5.52
1.55862	5.52
1.57528	5.52
1.59195	5.52
1.60862	5.52
1.62528	5.52
1.64195	5.51
1.65862	5.50
1.67528	5.49
1.69195	5.48
1.70862	5.47
1.72528	5.46
1.74195	5.45
1.75862	5.44
1.77528	5.43
1.79195	5.42
1.80862	5.41
1.82528	5.40
1.84195	5.39
1.85862	5.38
1.87528	5.37
1.89195	5.36
1.90862	5.35
1.92528	5.34
1.94195	5.33
1.95862	5.32
1.97528	5.31
1.99195	5.30
2.00862	5.29
2.02528	5.28
2.04195	5.27
2.05862	5.26
2.07528	5.25
2.09195	5.24
2.10862	5.23
2.12528	5.22
2.14195	5.21
2.15862	5.21
2.17528	5.20
2.19195	5.19
2.20862	5.18
2.22528	5.17
2.24195	5.16
2.25862	5.15
2.27528	5.14
2.29195	5.13
2.30862	5.12
2.32528	5.11
2.34195	5.10
2.35862	5.10
2.37528	5.09
2.39195	5.09
2.40862	5.09
2.42528	5.09
2.44195	5.09
2.45862	5.09
2.47528	5.09
2.49195	5.09
2.50862	5.09
2.52528	5.08
2.54195	5.09
2.55862	5.09
2.57528	5.08
2.59195	5.08
2.60862	5.08
2.62528	5.08
2.64195	5.08
2.65862	5.08
2.67528	5.08
2.69195	5.08
2.70862	5.08
2.72528	5.08
2.74195	5.08
2.75862	5.08
2.77528	5.08
2.79195	5.08
2.80862	5.08
2.82528	5.08
2.84195	5.08
2.85862	5.08
2.87528	5.08
2.89195	5.08
2.90862	5.08
2.92528	5.08
2.94195	5.08
2.95862	5.08
2.97528	5.08
2.99195	5.08
3.00862	5.08
3.02528	5.08
3.04195	5.08
3.05862	5.08
3.07528	5.08
3.09195	5.08
3.10862	5.08
3.12528	5.08
3.14195	5.08
3.15862	5.08
3.17528	5.08
3.19195	5.08
3.20862	5.08
3.22528	5.08
3.24195	5.08
3.25862	5.08
3.27528	5.08
3.29195	5.08
3.30862	5.08
3.32528	5.08
3.34195	5.08
3.35862	5.08
3.37528	5.08
3.39195	5.08
3.40862	5.08
3.42528	5.08
3.44195	5.08
3.45862	5.08
3.47528	5.08
3.49195	5.08
3.50862	5.08
3.52528	5.08
3.54195	5.08
3.55862	5.08
3.57528	5.08
3.59195	5.08
3.60862	5.08
3.62528	5.08
3.64195	5.08
3.65862	5.08
3.67528	5.08
3.69195	5.08
3.70862	5.08
3.72528	5.08
3.74195	5.08
3.75862	5.08
3.77528	5.08
3.79195	5.08
3.80862	5.08
3.82528	5.08
3.84195	5.08
3.85862	5.08
3.87528	5.08
3.89195	5.08
3.90862	5.08
3.92528	5.08
3.94195	5.08
3.95862	5.08
3.97528	5.08
3.99195	5.08

[Status Trace (Linear Velocity)]
Interval(msec)	1000
# of Points	240
Start Time(min)	0.009
End Time(min)	3.992
Intensity Units	
Intensity Multiplier	1
R.Time (min)	Intensity
0.00862	39.01
0.02528	37.24
0.04195	38.53
0.05862	39.87
0.07528	39.89
0.09195	39.04
0.10862	39.00
0.12528	39.02
0.14195	39.02
0.15862	39.02
0.17528	39.01
0.19195	39.01
0.20862	39.01
0.22528	39.01
0.24195	39.01
0.25862	39.01
0.27528	39.01
0.29195	39.01
0.30862	39.01
0.32528	39.02
0.34195	39.01
0.35862	39.02
0.37528	39.02
0.39195	39.02
0.40862	39.02
0.42528	39.02
0.44195	39.02
0.45862	39.02
0.47528	39.02
0.49195	39.02
0.50862	39.02
0.52528	39.02
0.54195	39.02
0.55862	39.02
0.57528	39.02
0.59195	39.02
0.60862	39.02
0.62528	39.02
0.64195	39.02
0.65862	39.02
0.67528	39.02
0.69195	39.02
0.70862	39.02
0.72528	39.02
0.74195	39.02
0.75862	39.02
0.77528	39.02
0.79195	39.02
0.80862	39.02
0.82528	39.02
0.84195	39.01
0.85862	39.01
0.87528	39.01
0.89195	39.02
0.90862	39.02
0.92528	39.02
0.94195	39.02
0.95862	39.02
0.97528	39.02
0.99195	39.02
1.00862	39.02
1.02528	39.02
1.04195	39.02
1.05862	39.02
1.07528	39.02
1.09195	39.02
1.10862	39.01
1.12528	39.01
1.14195	39.02
1.15862	39.02
1.17528	39.02
1.19195	39.02
1.20862	39.02
1.22528	39.02
1.24195	39.01
1.25862	39.01
1.27528	39.01
1.29195	39.01
1.30862	39.02
1.32528	39.02
1.34195	39.02
1.35862	39.02
1.37528	39.02
1.39195	39.02
1.40862	39.02
1.42528	39.02
1.44195	39.02
1.45862	39.02
1.47528	39.02
1.49195	39.02
1.50862	39.02
1.52528	39.02
1.54195	39.02
1.55862	39.02
1.57528	39.02
1.59195	39.02
1.60862	39.01
1.62528	39.00
1.64195	38.98
1.65862	38.96
1.67528	38.93
1.69195	38.89
1.70862	38.86
1.72528	38.82
1.74195	38.79
1.75862	38.76
1.77528	38.72
1.79195	38.70
1.80862	38.67
1.82528	38.64
1.84195	38.61
1.85862	38.58
1.87528	38.55
1.89195	38.51
1.90862	38.49
1.92528	38.45
1.94195	38.42
1.95862	38.39
1.97528	38.36
1.99195	38.33
2.00862	38.30
2.02528	38.27
2.04195	38.24
2.05862	38.21
2.07528	38.18
2.09195	38.15
2.10862	38.13
2.12528	38.09
2.14195	38.06
2.15862	38.04
2.17528	38.00
2.19195	37.97
2.20862	37.95
2.22528	37.91
2.24195	37.88
2.25862	37.86
2.27528	37.83
2.29195	37.79
2.30862	37.77
2.32528	37.73
2.34195	37.71
2.35862	37.68
2.37528	37.66
2.39195	37.65
2.40862	37.65
2.42528	37.66
2.44195	37.65
2.45862	37.66
2.47528	37.66
2.49195	37.65
2.50862	37.65
2.52528	37.64
2.54195	37.65
2.55862	37.65
2.57528	37.65
2.59195	37.65
2.60862	37.65
2.62528	37.65
2.64195	37.65
2.65862	37.65
2.67528	37.65
2.69195	37.65
2.70862	37.65
2.72528	37.65
2.74195	37.65
2.75862	37.64
2.77528	37.64
2.79195	37.64
2.80862	37.64
2.82528	37.65
2.84195	37.65
2.85862	37.64
2.87528	37.64
2.89195	37.64
2.90862	37.64
2.92528	37.64
2.94195	37.64
2.95862	37.64
2.97528	37.63
2.99195	37.63
3.00862	37.63
3.02528	37.63
3.04195	37.63
3.05862	37.63
3.07528	37.63
3.09195	37.63
3.10862	37.63
3.12528	37.63
3.14195	37.63
3.15862	37.63
3.17528	37.63
3.19195	37.63
3.20862	37.63
3.22528	37.62
3.24195	37.62
3.25862	37.62
3.27528	37.62
3.29195	37.62
3.30862	37.63
3.32528	37.63
3.34195	37.63
3.35862	37.63
3.37528	37.63
3.39195	37.63
3.40862	37.63
3.42528	37.63
3.44195	37.63
3.45862	37.63
3.47528	37.63
3.49195	37.63
3.50862	37.63
3.52528	37.63
3.54195	37.63
3.55862	37.63
3.57528	37.63
3.59195	37.63
3.60862	37.63
3.62528	37.63
3.64195	37.63
3.65862	37.63
3.67528	37.63
3.69195	37.63
3.70862	37.63
3.72528	37.63
3.74195	37.63
3.75862	37.63
3.77528	37.63
3.79195	37.63
3.80862	37.63
3.82528	37.62
3.84195	37.62
3.85862	37.63
3.87528	37.63
3.89195	37.63
3.90862	37.63
3.92528	37.63
3.94195	37.63
3.95862	37.63
3.97528	37.63
3.99195	37.63

