[Header]
Application Name	LabSolutions
Version	5.110
Data File Name	C:\Users\User\Desktop\GC Analyses\Jack\Nachusa Grasslands Sampling\T2 Timepoint July 12th\T2_07122022_088.gcd
Output Date	3/14/2023
Output Time	3:42:35 PM

[File Information]
Type	Data File
Generated	3/10/2023 10:17:42 PM
Generated by	System Administrator
Modified	3/10/2023 10:24:31 PM
Modified by	System Administrator

[Sample Information]
Operator Name	System Administrator
Acquired	3/10/2023 10:20:30 PM
Sample Type	0:Unknown
Level	0
Sample Name	088
Sample ID	088
ISTD Amount1	1
ISTD Amount2	1
ISTD Amount3	1
ISTD Amount4	1
ISTD Amount5	1
ISTD Amount6	1
ISTD Amount7	1
ISTD Amount8	1
ISTD Amount9	1
ISTD Amount10	1
ISTD Amount11	1
ISTD Amount12	1
ISTD Amount13	1
ISTD Amount14	1
ISTD Amount15	1
ISTD Amount16	1
ISTD Amount17	1
ISTD Amount18	1
ISTD Amount19	1
ISTD Amount20	1
ISTD Amount21	1
ISTD Amount22	1
ISTD Amount23	1
ISTD Amount24	1
ISTD Amount25	1
ISTD Amount26	1
ISTD Amount27	1
ISTD Amount28	1
ISTD Amount29	1
ISTD Amount30	1
ISTD Amount31	1
ISTD Amount32	1
Sample Amount	1
Dilution Factor	1
Vial#	87
Injection Volume	1
Injection Count	1
Bar Code	

[Original Files]
Data File	C:\Users\User\Desktop\GC Analyses\Jack\Nachusa Grasslands Sampling\T1 Timepoint July 12th\T2_07122022_088.gcd
Method File	C:\LabSolutions\Data\GHG_4min_2022\ghg3_togas_w_acet_4 min_new_int.gcm
Batch File	C:\LabSolutions\Data\AutoSamplerTesting\T2_07122022.gcb
Report Format File	c:\LabSolutions\System\DEFAULT.lsr

[File Description]


[Configuration]
Instrument Name	C0B7VH3-Instrument1
Instrument #	1
Line #	1
# of Detectors	3
Detector ID	DET#1	DET#2	DET#3
Detector Name	FID	PTCD	ECD
# of Channels	1	1	1

[Peak Table(Ch1)]
# of Peaks	3
Peak#	R.Time	I.Time	F.Time	Area	Height	A/H	Conc.	Mark	ID#	Name	k'	Plate #	Plate Ht.	Tailing	Resolution	Sep.Factor	Area Ratio	Height Ratio	Conc. %	Norm Conc.
1	1.476	1.435	1.538	37570	18104	2.075	265.245	   	1	CO	0.000	9482	15.819	1.276	0.000	0.000	0	0	31.560	31.560
2	1.567	1.538	1.615	4653	2286	2.036	89.964	 V 	2	CH4	0.062	10046	14.931	0.000	1.488	0.000	0	0	10.704	10.704
3	1.996	1.945	2.513	1933475	922893	2.095	485.250	   	3	CO2	0.353	17479	8.582	1.237	6.978	5.680	0	0	57.736	57.736

[Peak Table(Ch2)]
# of Peaks	0

[Peak Table(Ch3)]
# of Peaks	5
Peak#	R.Time	I.Time	F.Time	Area	Height	A/H	Conc.	Mark	ID#	Name	k'	Plate #	Plate Ht.	Tailing	Resolution	Sep.Factor	Area Ratio	Height Ratio	Conc. %	Norm Conc.
1	2.458	2.246	2.513	2590	674	3.841	0.000	   			0.000	10916	13.741	0.000	0.000	0.000	0	0	0.000	0.000
2	2.532	2.513	2.693	1209	288	4.196	0.000	 V 			0.030	7098	21.133	0.000	0.684	0.000	0	0	0.000	0.000
3	2.876	2.726	2.994	19063	5039	3.783	0.487	   	1	N2O	0.170	13242	11.328	1.595	3.131	5.700	0	0	100.000	100.000
4	3.082	2.997	3.155	3601	459	7.841	0.000	   			0.254	92	1632.946	0.000	0.296	1.491	0	0	0.000	0.000
5	3.261	3.155	3.995	13819	495	27.922	0.000	 V 	2	SF6	0.327	36	4163.260	0.000	0.104	1.288	0	0	0.000	0.000

[Compound Results(Ch1)]
# of IDs	6
ID#	Name	R.Time	Area	Height	Conc.	Curve	3rd	2nd	1st	Constant	Area Ratio	Height Ratio	Conc. %	Norm Conc.
1	CO	1.476	37570	18104	265.245	Linear	0.000000e+00	0.000000e+00	1.416423e+002	0.000000e+00	0	0	31.560	31.560
2	CH4	1.567	4653	2286	89.964	Linear	0.000000e+00	0.000000e+00	5.171738e+001	0.000000e+00	0	0	10.704	10.704
3	CO2	1.996	1933475	922893	485.250	Linear	0.000000e+00	0.000000e+00	3.984494e+003	0.000000e+00	0	0	57.736	57.736
4	Ethylene	0.000	0	0	0.000	Linear	0.000000e+00	0.000000e+00	0.000000e+00	0.000000e+00	0	0	0.000	0.000
5	Acetylene	0.000	0	0	0.000	Linear	0.000000e+00	0.000000e+00	0.000000e+00	0.000000e+00	0	0	0.000	0.000
6	Ethane	0.000	0	0	0.000	Linear	0.000000e+00	0.000000e+00	0.000000e+00	0.000000e+00	0	0	0.000	0.000

[Compound Results(Ch2)]
# of IDs	5
ID#	Name	R.Time	Area	Height	Conc.	Curve	3rd	2nd	1st	Constant	Area Ratio	Height Ratio	Conc. %	Norm Conc.
1	Hydrogen	0.000	0	0	0.000	Linear	0.000000e+00	0.000000e+00	0.000000e+00	0.000000e+00	0	0	0.000	0.000
2	Oxygen	0.000	0	0	0.000	Linear	0.000000e+00	0.000000e+00	0.000000e+00	0.000000e+00	0	0	0.000	0.000
3	Nitrogen	0.000	0	0	0.000	Linear	0.000000e+00	0.000000e+00	0.000000e+00	0.000000e+00	0	0	0.000	0.000
4	Methane	0.000	0	0	0.000	Linear	0.000000e+00	0.000000e+00	0.000000e+00	0.000000e+00	0	0	0.000	0.000
5	Carbon Monoxide	0.000	0	0	0.000	Linear	0.000000e+00	0.000000e+00	0.000000e+00	0.000000e+00	0	0	0.000	0.000

[Compound Results(Ch3)]
# of IDs	2
ID#	Name	R.Time	Area	Height	Conc.	Curve	3rd	2nd	1st	Constant	Area Ratio	Height Ratio	Conc. %	Norm Conc.
1	N2O	2.876	19063	5039	0.487	Linear	0.000000e+00	0.000000e+00	3.915173e+004	0.000000e+00	0	0	100.000	100.000
2	SF6	3.261	13819	495	0.000	Linear	0.000000e+00	0.000000e+00	0.000000e+00	0.000000e+00	0	0	0.000	0.000

[Group Results(Ch1)]
# of Groups	0

[Group Results(Ch2)]
# of Groups	0

[Group Results(Ch3)]
# of Groups	0

[Chromatogram (Ch1)]
Interval(msec)	220
# of Points	1091
Start Time(min)	0.002
End Time(min)	3.998
R.Time (min)	Intensity
0.00167	23
0.00533	22
0.00900	18
0.01267	13
0.01633	9
0.02000	10
0.02367	11
0.02733	15
0.03100	19
0.03467	24
0.03833	34
0.04200	40
0.04567	42
0.04933	43
0.05300	46
0.05667	45
0.06033	42
0.06400	38
0.06767	35
0.07133	34
0.07500	38
0.07867	46
0.08233	54
0.08600	60
0.08967	65
0.09333	70
0.09700	77
0.10067	84
0.10433	89
0.10800	92
0.11167	93
0.11533	96
0.11900	102
0.12267	110
0.12633	114
0.13000	115
0.13367	111
0.13733	106
0.14100	101
0.14467	97
0.14833	97
0.15200	97
0.15567	96
0.15933	94
0.16300	92
0.16667	89
0.17033	85
0.17400	77
0.17767	69
0.18133	63
0.18500	57
0.18867	54
0.19233	53
0.19600	51
0.19967	49
0.20333	45
0.20700	40
0.21067	35
0.21433	33
0.21800	34
0.22167	36
0.22533	39
0.22900	41
0.23267	41
0.23633	42
0.24000	42
0.24367	41
0.24733	37
0.25100	31
0.25467	25
0.25833	21
0.26200	22
0.26567	25
0.26933	21
0.27300	15
0.27667	15
0.28033	14
0.28400	13
0.28767	17
0.29133	26
0.29500	31
0.29867	27
0.30233	18
0.30600	11
0.30967	9
0.31333	8
0.31700	5
0.32067	5
0.32433	11
0.32800	16
0.33167	18
0.33533	18
0.33900	19
0.34267	22
0.34633	26
0.35000	26
0.35367	25
0.35733	28
0.36100	28
0.36467	24
0.36833	12
0.37200	-3
0.37567	-10
0.37933	-7
0.38300	4
0.38667	16
0.39033	23
0.39400	25
0.39767	24
0.40133	19
0.40500	13
0.40867	10
0.41233	10
0.41600	14
0.41967	17
0.42333	19
0.42700	20
0.43067	18
0.43433	15
0.43800	15
0.44167	17
0.44533	21
0.44900	27
0.45267	32
0.45633	34
0.46000	33
0.46367	37
0.46733	41
0.47100	45
0.47467	43
0.47833	41
0.48200	40
0.48567	42
0.48933	48
0.49300	55
0.49667	59
0.50033	59
0.50400	56
0.50767	52
0.51133	52
0.51500	53
0.51867	50
0.52233	50
0.52600	50
0.52967	52
0.53333	55
0.53700	55
0.54067	54
0.54433	52
0.54800	53
0.55167	56
0.55533	65
0.55900	71
0.56267	71
0.56633	65
0.57000	57
0.57367	47
0.57733	38
0.58100	30
0.58467	27
0.58833	28
0.59200	32
0.59567	37
0.59933	41
0.60300	46
0.60667	52
0.61033	58
0.61400	60
0.61767	55
0.62133	49
0.62500	42
0.62867	41
0.63233	43
0.63600	44
0.63967	48
0.64333	53
0.64700	57
0.65067	59
0.65433	57
0.65800	54
0.66167	50
0.66533	46
0.66900	45
0.67267	48
0.67633	50
0.68000	49
0.68367	46
0.68733	43
0.69100	46
0.69467	52
0.69833	57
0.70200	58
0.70567	53
0.70933	48
0.71300	43
0.71667	41
0.72033	45
0.72400	46
0.72767	39
0.73133	32
0.73500	27
0.73867	22
0.74233	16
0.74600	15
0.74967	15
0.75333	16
0.75700	21
0.76067	26
0.76433	26
0.76800	24
0.77167	21
0.77533	16
0.77900	15
0.78267	17
0.78633	28
0.79000	38
0.79367	42
0.79733	47
0.80100	52
0.80467	55
0.80833	53
0.81200	48
0.81567	41
0.81933	33
0.82300	26
0.82667	21
0.83033	15
0.83400	13
0.83767	16
0.84133	16
0.84500	13
0.84867	13
0.85233	16
0.85600	21
0.85967	24
0.86333	27
0.86700	30
0.87067	31
0.87433	30
0.87800	23
0.88167	13
0.88533	6
0.88900	3
0.89267	5
0.89633	14
0.90000	26
0.90367	37
0.90733	43
0.91100	44
0.91467	41
0.91833	36
0.92200	32
0.92567	29
0.92933	28
0.93300	29
0.93667	31
0.94033	29
0.94400	24
0.94767	19
0.95133	18
0.95500	19
0.95867	18
0.96233	15
0.96600	11
0.96967	9
0.97333	10
0.97700	12
0.98067	13
0.98433	11
0.98800	6
0.99167	5
0.99533	7
0.99900	9
1.00267	15
1.00633	17
1.01000	12
1.01367	11
1.01733	15
1.02100	18
1.02467	19
1.02833	19
1.03200	18
1.03567	15
1.03933	13
1.04300	13
1.04667	12
1.05033	10
1.05400	7
1.05767	4
1.06133	4
1.06500	3
1.06867	-0
1.07233	1
1.07600	7
1.07967	13
1.08333	14
1.08700	12
1.09067	11
1.09433	10
1.09800	6
1.10167	-1
1.10533	-9
1.10900	-11
1.11267	-10
1.11633	-11
1.12000	-12
1.12367	-14
1.12733	-16
1.13100	-16
1.13467	-13
1.13833	-9
1.14200	-6
1.14567	-5
1.14933	-4
1.15300	-0
1.15667	5
1.16033	9
1.16400	9
1.16767	3
1.17133	-6
1.17500	-14
1.17867	-17
1.18233	-16
1.18600	-9
1.18967	-3
1.19333	-1
1.19700	-2
1.20067	-6
1.20433	-16
1.20800	-27
1.21167	-36
1.21533	-41
1.21900	-43
1.22267	-43
1.22633	-39
1.23000	-30
1.23367	-20
1.23733	-11
1.24100	-8
1.24467	-10
1.24833	-12
1.25200	-15
1.25567	-18
1.25933	-14
1.26300	-8
1.26667	-8
1.27033	-9
1.27400	-8
1.27767	-9
1.28133	-11
1.28500	-11
1.28867	-10
1.29233	-10
1.29600	-13
1.29967	-17
1.30333	-19
1.30700	-17
1.31067	-18
1.31433	-21
1.31800	-24
1.32167	-28
1.32533	-30
1.32900	-30
1.33267	-31
1.33633	-33
1.34000	-35
1.34367	-37
1.34733	-37
1.35100	-37
1.35467	-36
1.35833	-33
1.36200	-30
1.36567	-25
1.36933	-22
1.37300	-24
1.37667	-26
1.38033	-30
1.38400	-32
1.38767	-32
1.39133	-33
1.39500	-29
1.39867	-24
1.40233	-18
1.40600	-21
1.40967	-29
1.41333	-35
1.41700	-39
1.42067	-41
1.42433	-40
1.42800	-39
1.43167	-35
1.43533	-24
1.43900	14
1.44267	135
1.44633	447
1.45000	1333
1.45367	3366
1.45733	6514
1.46100	10083
1.46467	13357
1.46833	15925
1.47200	17567
1.47567	18094
1.47933	17383
1.48300	15542
1.48667	12975
1.49033	10216
1.49400	7694
1.49767	5622
1.50133	4038
1.50500	2882
1.50867	2065
1.51233	1493
1.51600	1093
1.51967	813
1.52333	621
1.52700	484
1.53067	384
1.53433	315
1.53800	291
1.54167	351
1.54533	549
1.54900	890
1.55267	1303
1.55633	1697
1.56000	2015
1.56367	2227
1.56733	2306
1.57100	2228
1.57467	1998
1.57833	1663
1.58200	1298
1.58567	964
1.58933	690
1.59300	480
1.59667	325
1.60033	216
1.60400	140
1.60767	87
1.61133	54
1.61500	37
1.61867	29
1.62233	29
1.62600	31
1.62967	34
1.63333	34
1.63700	33
1.64067	30
1.64433	22
1.64800	11
1.65167	2
1.65533	-2
1.65900	2
1.66267	12
1.66633	24
1.67000	33
1.67367	27
1.67733	10
1.68100	-9
1.68467	-23
1.68833	-31
1.69200	-32
1.69567	-33
1.69933	-33
1.70300	-33
1.70667	-31
1.71033	-26
1.71400	-21
1.71767	-15
1.72133	-16
1.72500	-15
1.72867	-12
1.73233	-13
1.73600	-17
1.73967	-23
1.74333	-27
1.74700	-29
1.75067	-29
1.75433	-27
1.75800	-25
1.76167	-23
1.76533	-18
1.76900	-13
1.77267	-4
1.77633	1
1.78000	-3
1.78367	-11
1.78733	-21
1.79100	-29
1.79467	-32
1.79833	-31
1.80200	-23
1.80567	-16
1.80933	-12
1.81300	-9
1.81667	-3
1.82033	-2
1.82400	-9
1.82767	-16
1.83133	-16
1.83500	-12
1.83867	-12
1.84233	-16
1.84600	-21
1.84967	-22
1.85333	-24
1.85700	-28
1.86067	-33
1.86433	-41
1.86800	-50
1.87167	-55
1.87533	-54
1.87900	-51
1.88267	-47
1.88633	-43
1.89000	-39
1.89367	-36
1.89733	-37
1.90100	-43
1.90467	-42
1.90833	-35
1.91200	-26
1.91567	-15
1.91933	-9
1.92300	-10
1.92667	-12
1.93033	-15
1.93400	-16
1.93767	-15
1.94133	-12
1.94500	-4
1.94867	5
1.95233	44
1.95600	313
1.95967	1822
1.96333	8214
1.96700	28666
1.97067	78983
1.97433	175023
1.97800	319044
1.98167	492821
1.98533	665592
1.98900	807805
1.99267	897637
1.99633	922933
2.00000	882822
2.00367	788549
2.00733	660684
2.01100	522915
2.01467	394749
2.01833	287413
2.02200	204169
2.02567	143069
2.02933	99903
2.03300	70161
2.03667	49968
2.04033	36347
2.04400	27151
2.04767	20894
2.05133	16579
2.05500	13544
2.05867	11360
2.06233	9744
2.06600	8519
2.06967	7566
2.07333	6808
2.07700	6194
2.08067	5687
2.08433	5264
2.08800	4900
2.09167	4583
2.09533	4307
2.09900	4064
2.10267	3844
2.10633	3641
2.11000	3454
2.11367	3286
2.11733	3132
2.12100	2995
2.12467	2869
2.12833	2749
2.13200	2640
2.13567	2545
2.13933	2460
2.14300	2379
2.14667	2297
2.15033	2212
2.15400	2125
2.15767	2043
2.16133	1966
2.16500	1893
2.16867	1824
2.17233	1762
2.17600	1708
2.17967	1659
2.18333	1612
2.18700	1568
2.19067	1529
2.19433	1491
2.19800	1457
2.20167	1431
2.20533	1406
2.20900	1378
2.21267	1348
2.21633	1322
2.22000	1295
2.22367	1265
2.22733	1234
2.23100	1204
2.23467	1176
2.23833	1149
2.24200	1121
2.24567	1093
2.24933	1064
2.25300	1041
2.25667	1026
2.26033	1010
2.26400	991
2.26767	974
2.27133	962
2.27500	953
2.27867	941
2.28233	925
2.28600	909
2.28967	889
2.29333	868
2.29700	853
2.30067	840
2.30433	827
2.30800	813
2.31167	801
2.31533	793
2.31900	784
2.32267	776
2.32633	768
2.33000	759
2.33367	749
2.33733	743
2.34100	740
2.34467	735
2.34833	724
2.35200	705
2.35567	686
2.35933	673
2.36300	663
2.36667	657
2.37033	650
2.37400	643
2.37767	637
2.38133	632
2.38500	628
2.38867	626
2.39233	625
2.39600	627
2.39967	628
2.40333	623
2.40700	614
2.41067	603
2.41433	594
2.41800	584
2.42167	571
2.42533	560
2.42900	551
2.43267	546
2.43633	543
2.44000	539
2.44367	534
2.44733	534
2.45100	534
2.45467	531
2.45833	527
2.46200	523
2.46567	517
2.46933	509
2.47300	503
2.47667	501
2.48033	502
2.48400	504
2.48767	503
2.49133	498
2.49500	492
2.49867	491
2.50233	489
2.50600	490
2.50967	490
2.51333	487
2.51700	488
2.52067	489
2.52433	486
2.52800	484
2.53167	484
2.53533	484
2.53900	484
2.54267	482
2.54633	482
2.55000	480
2.55367	476
2.55733	472
2.56100	467
2.56467	458
2.56833	446
2.57200	436
2.57567	431
2.57933	426
2.58300	423
2.58667	419
2.59033	414
2.59400	409
2.59767	406
2.60133	404
2.60500	401
2.60867	400
2.61233	399
2.61600	399
2.61967	400
2.62333	398
2.62700	398
2.63067	396
2.63433	394
2.63800	396
2.64167	399
2.64533	400
2.64900	400
2.65267	398
2.65633	399
2.66000	403
2.66367	408
2.66733	413
2.67100	414
2.67467	408
2.67833	399
2.68200	395
2.68567	395
2.68933	393
2.69300	391
2.69667	391
2.70033	394
2.70400	395
2.70767	397
2.71133	398
2.71500	397
2.71867	395
2.72233	392
2.72600	387
2.72967	378
2.73333	370
2.73700	369
2.74067	368
2.74433	368
2.74800	371
2.75167	374
2.75533	376
2.75900	380
2.76267	384
2.76633	386
2.77000	392
2.77367	397
2.77733	396
2.78100	388
2.78467	380
2.78833	378
2.79200	378
2.79567	379
2.79933	378
2.80300	373
2.80667	369
2.81033	363
2.81400	354
2.81767	345
2.82133	340
2.82500	336
2.82867	339
2.83233	347
2.83600	361
2.83967	373
2.84333	381
2.84700	382
2.85067	383
2.85433	384
2.85800	381
2.86167	376
2.86533	372
2.86900	366
2.87267	361
2.87633	357
2.88000	358
2.88367	366
2.88733	376
2.89100	378
2.89467	378
2.89833	373
2.90200	368
2.90567	361
2.90933	356
2.91300	352
2.91667	351
2.92033	351
2.92400	351
2.92767	352
2.93133	353
2.93500	353
2.93867	354
2.94233	361
2.94600	364
2.94967	359
2.95333	357
2.95700	356
2.96067	359
2.96433	366
2.96800	374
2.97167	381
2.97533	385
2.97900	388
2.98267	389
2.98633	388
2.99000	382
2.99367	376
2.99733	373
3.00100	372
3.00467	375
3.00833	375
3.01200	370
3.01567	367
3.01933	364
3.02300	358
3.02667	349
3.03033	339
3.03400	331
3.03767	327
3.04133	320
3.04500	313
3.04867	310
3.05233	314
3.05600	319
3.05967	320
3.06333	322
3.06700	327
3.07067	338
3.07433	345
3.07800	345
3.08167	342
3.08533	341
3.08900	342
3.09267	346
3.09633	350
3.10000	351
3.10367	351
3.10733	349
3.11100	346
3.11467	350
3.11833	357
3.12200	359
3.12567	357
3.12933	356
3.13300	353
3.13667	347
3.14033	338
3.14400	331
3.14767	327
3.15133	326
3.15500	327
3.15867	331
3.16233	335
3.16600	337
3.16967	342
3.17333	344
3.17700	342
3.18067	339
3.18433	343
3.18800	349
3.19167	349
3.19533	344
3.19900	338
3.20267	332
3.20633	328
3.21000	326
3.21367	321
3.21733	315
3.22100	308
3.22467	300
3.22833	295
3.23200	294
3.23567	296
3.23933	298
3.24300	298
3.24667	299
3.25033	305
3.25400	312
3.25767	313
3.26133	310
3.26500	307
3.26867	306
3.27233	304
3.27600	298
3.27967	294
3.28333	291
3.28700	289
3.29067	295
3.29433	306
3.29800	317
3.30167	316
3.30533	309
3.30900	307
3.31267	310
3.31633	314
3.32000	318
3.32367	324
3.32733	326
3.33100	329
3.33467	328
3.33833	322
3.34200	319
3.34567	319
3.34933	318
3.35300	317
3.35667	319
3.36033	320
3.36400	321
3.36767	322
3.37133	324
3.37500	320
3.37867	309
3.38233	297
3.38600	289
3.38967	289
3.39333	288
3.39700	287
3.40067	289
3.40433	294
3.40800	301
3.41167	306
3.41533	306
3.41900	304
3.42267	300
3.42633	295
3.43000	293
3.43367	293
3.43733	294
3.44100	298
3.44467	299
3.44833	299
3.45200	296
3.45567	290
3.45933	286
3.46300	284
3.46667	278
3.47033	271
3.47400	266
3.47767	263
3.48133	265
3.48500	270
3.48867	272
3.49233	277
3.49600	283
3.49967	287
3.50333	295
3.50700	308
3.51067	315
3.51433	316
3.51800	313
3.52167	301
3.52533	282
3.52900	264
3.53267	254
3.53633	249
3.54000	245
3.54367	240
3.54733	240
3.55100	245
3.55467	246
3.55833	243
3.56200	244
3.56567	248
3.56933	255
3.57300	262
3.57667	270
3.58033	277
3.58400	281
3.58767	279
3.59133	276
3.59500	272
3.59867	266
3.60233	261
3.60600	257
3.60967	254
3.61333	254
3.61700	256
3.62067	253
3.62433	250
3.62800	249
3.63167	249
3.63533	251
3.63900	255
3.64267	260
3.64633	266
3.65000	271
3.65367	276
3.65733	278
3.66100	280
3.66467	281
3.66833	276
3.67200	263
3.67567	252
3.67933	246
3.68300	245
3.68667	246
3.69033	248
3.69400	253
3.69767	259
3.70133	264
3.70500	264
3.70867	258
3.71233	255
3.71600	250
3.71967	246
3.72333	242
3.72700	229
3.73067	216
3.73433	210
3.73800	211
3.74167	219
3.74533	230
3.74900	241
3.75267	247
3.75633	248
3.76000	243
3.76367	235
3.76733	229
3.77100	225
3.77467	225
3.77833	231
3.78200	242
3.78567	252
3.78933	249
3.79300	242
3.79667	242
3.80033	248
3.80400	256
3.80767	253
3.81133	241
3.81500	232
3.81867	226
3.82233	219
3.82600	210
3.82967	205
3.83333	205
3.83700	208
3.84067	212
3.84433	211
3.84800	208
3.85167	205
3.85533	208
3.85900	213
3.86267	217
3.86633	222
3.87000	225
3.87367	228
3.87733	230
3.88100	230
3.88467	227
3.88833	222
3.89200	216
3.89567	209
3.89933	207
3.90300	206
3.90667	201
3.91033	192
3.91400	190
3.91767	196
3.92133	207
3.92500	218
3.92867	218
3.93233	213
3.93600	205
3.93967	200
3.94333	200
3.94700	205
3.95067	209
3.95433	211
3.95800	214
3.96167	215
3.96533	218
3.96900	219
3.97267	217
3.97633	215
3.98000	211
3.98367	208
3.98733	208
3.99100	209
3.99467	212
3.99833	217

[Chromatogram (Ch2)]
Interval(msec)	220
# of Points	1091
Start Time(min)	0.002
End Time(min)	3.998
R.Time (min)	Intensity
0.00167	-0
0.00533	-1
0.00900	-1
0.01267	-1
0.01633	-1
0.02000	-1
0.02367	-1
0.02733	-1
0.03100	-1
0.03467	-1
0.03833	-1
0.04200	-1
0.04567	-2
0.04933	-2
0.05300	-2
0.05667	-3
0.06033	-3
0.06400	-3
0.06767	-3
0.07133	-3
0.07500	-4
0.07867	-4
0.08233	-3
0.08600	-3
0.08967	-3
0.09333	-3
0.09700	-2
0.10067	-2
0.10433	-2
0.10800	-1
0.11167	-1
0.11533	-1
0.11900	-1
0.12267	-1
0.12633	-0
0.13000	-0
0.13367	-0
0.13733	-0
0.14100	-0
0.14467	-0
0.14833	-1
0.15200	-1
0.15567	-1
0.15933	-1
0.16300	-1
0.16667	-2
0.17033	-2
0.17400	-3
0.17767	-3
0.18133	-3
0.18500	-3
0.18867	-3
0.19233	-3
0.19600	-3
0.19967	-2
0.20333	-1
0.20700	-1
0.21067	-0
0.21433	-0
0.21800	0
0.22167	-0
0.22533	-0
0.22900	-1
0.23267	-1
0.23633	-1
0.24000	-2
0.24367	-2
0.24733	-2
0.25100	-2
0.25467	-2
0.25833	-2
0.26200	-2
0.26567	-2
0.26933	-2
0.27300	-3
0.27667	-3
0.28033	-3
0.28400	-2
0.28767	-2
0.29133	-2
0.29500	-2
0.29867	-2
0.30233	-2
0.30600	-2
0.30967	-2
0.31333	-2
0.31700	-1
0.32067	-1
0.32433	-1
0.32800	-1
0.33167	-1
0.33533	-0
0.33900	-0
0.34267	0
0.34633	0
0.35000	0
0.35367	1
0.35733	1
0.36100	2
0.36467	2
0.36833	2
0.37200	1
0.37567	1
0.37933	1
0.38300	1
0.38667	0
0.39033	0
0.39400	-0
0.39767	-1
0.40133	-1
0.40500	-1
0.40867	-1
0.41233	-1
0.41600	-1
0.41967	-2
0.42333	-2
0.42700	-2
0.43067	-2
0.43433	-3
0.43800	-3
0.44167	-3
0.44533	-2
0.44900	-2
0.45267	-2
0.45633	-2
0.46000	-2
0.46367	-2
0.46733	-1
0.47100	-1
0.47467	-1
0.47833	-1
0.48200	-1
0.48567	-1
0.48933	-1
0.49300	-1
0.49667	-1
0.50033	-1
0.50400	-1
0.50767	-1
0.51133	-2
0.51500	-2
0.51867	-2
0.52233	-2
0.52600	-2
0.52967	-2
0.53333	-2
0.53700	-2
0.54067	-2
0.54433	-2
0.54800	-2
0.55167	-2
0.55533	-3
0.55900	-3
0.56267	-3
0.56633	-3
0.57000	-3
0.57367	-3
0.57733	-3
0.58100	-3
0.58467	-3
0.58833	-3
0.59200	-3
0.59567	-2
0.59933	-2
0.60300	-2
0.60667	-2
0.61033	-2
0.61400	-2
0.61767	-1
0.62133	-1
0.62500	-1
0.62867	-1
0.63233	-1
0.63600	-1
0.63967	-1
0.64333	-1
0.64700	-1
0.65067	-0
0.65433	-1
0.65800	-1
0.66167	-1
0.66533	-1
0.66900	-1
0.67267	-1
0.67633	-1
0.68000	-1
0.68367	-1
0.68733	-1
0.69100	-2
0.69467	-2
0.69833	-2
0.70200	-3
0.70567	-3
0.70933	-3
0.71300	-2
0.71667	-2
0.72033	-2
0.72400	-3
0.72767	-3
0.73133	-3
0.73500	-3
0.73867	-3
0.74233	-3
0.74600	-4
0.74967	-4
0.75333	-4
0.75700	-4
0.76067	-4
0.76433	-4
0.76800	-4
0.77167	-4
0.77533	-4
0.77900	-3
0.78267	-3
0.78633	-3
0.79000	-3
0.79367	-3
0.79733	-2
0.80100	-2
0.80467	-2
0.80833	-2
0.81200	-2
0.81567	-2
0.81933	-3
0.82300	-3
0.82667	-3
0.83033	-3
0.83400	-2
0.83767	-3
0.84133	-3
0.84500	-3
0.84867	-3
0.85233	-3
0.85600	-3
0.85967	-2
0.86333	-2
0.86700	-2
0.87067	-2
0.87433	-2
0.87800	-2
0.88167	-2
0.88533	-2
0.88900	-2
0.89267	-2
0.89633	-2
0.90000	-2
0.90367	-1
0.90733	-1
0.91100	-1
0.91467	-1
0.91833	-1
0.92200	-2
0.92567	-2
0.92933	-1
0.93300	-1
0.93667	-1
0.94033	-1
0.94400	-1
0.94767	-1
0.95133	-1
0.95500	-1
0.95867	-1
0.96233	-2
0.96600	-2
0.96967	-2
0.97333	-2
0.97700	-3
0.98067	-3
0.98433	-3
0.98800	-3
0.99167	-3
0.99533	-3
0.99900	-3
1.00267	-4
1.00633	-4
1.01000	-4
1.01367	-4
1.01733	-4
1.02100	-4
1.02467	-4
1.02833	-4
1.03200	-4
1.03567	-4
1.03933	-4
1.04300	-3
1.04667	-3
1.05033	-3
1.05400	-2
1.05767	-2
1.06133	-2
1.06500	-1
1.06867	-1
1.07233	-1
1.07600	-1
1.07967	-1
1.08333	-2
1.08700	-2
1.09067	-2
1.09433	-2
1.09800	-3
1.10167	-3
1.10533	-3
1.10900	-4
1.11267	-4
1.11633	-4
1.12000	-4
1.12367	-5
1.12733	-5
1.13100	-5
1.13467	-5
1.13833	-5
1.14200	-4
1.14567	-4
1.14933	-4
1.15300	-4
1.15667	-4
1.16033	-4
1.16400	-4
1.16767	-4
1.17133	-4
1.17500	-4
1.17867	-4
1.18233	-4
1.18600	-4
1.18967	-4
1.19333	-4
1.19700	-3
1.20067	-3
1.20433	-3
1.20800	-3
1.21167	-3
1.21533	-2
1.21900	-2
1.22267	-2
1.22633	-2
1.23000	-2
1.23367	-2
1.23733	-1
1.24100	-1
1.24467	-2
1.24833	-2
1.25200	-2
1.25567	-3
1.25933	-3
1.26300	-3
1.26667	-3
1.27033	-3
1.27400	-3
1.27767	-4
1.28133	-4
1.28500	-4
1.28867	-4
1.29233	-4
1.29600	-5
1.29967	-5
1.30333	-4
1.30700	-4
1.31067	-4
1.31433	-4
1.31800	-4
1.32167	-4
1.32533	-4
1.32900	-4
1.33267	-3
1.33633	-3
1.34000	-3
1.34367	-3
1.34733	-2
1.35100	-2
1.35467	-3
1.35833	-3
1.36200	-2
1.36567	-2
1.36933	-2
1.37300	-2
1.37667	-2
1.38033	-2
1.38400	-2
1.38767	-2
1.39133	-2
1.39500	-2
1.39867	-2
1.40233	-2
1.40600	-2
1.40967	-2
1.41333	-2
1.41700	-3
1.42067	-3
1.42433	-3
1.42800	-4
1.43167	-4
1.43533	-4
1.43900	-4
1.44267	-5
1.44633	-5
1.45000	-5
1.45367	-5
1.45733	-6
1.46100	-6
1.46467	-6
1.46833	-6
1.47200	-6
1.47567	-6
1.47933	-6
1.48300	-6
1.48667	-6
1.49033	-6
1.49400	-6
1.49767	-6
1.50133	-6
1.50500	-6
1.50867	-5
1.51233	-5
1.51600	-5
1.51967	-5
1.52333	-5
1.52700	-5
1.53067	-5
1.53433	-4
1.53800	-4
1.54167	-4
1.54533	-3
1.54900	-3
1.55267	-2
1.55633	-2
1.56000	-1
1.56367	-1
1.56733	-1
1.57100	-1
1.57467	-2
1.57833	-2
1.58200	-3
1.58567	-3
1.58933	-4
1.59300	-4
1.59667	-5
1.60033	-6
1.60400	-7
1.60767	-9
1.61133	-10
1.61500	-13
1.61867	-15
1.62233	-18
1.62600	-21
1.62967	-24
1.63333	-27
1.63700	-31
1.64067	-34
1.64433	-38
1.64800	-42
1.65167	-45
1.65533	-48
1.65900	-51
1.66267	-55
1.66633	-59
1.67000	-63
1.67367	-67
1.67733	-72
1.68100	-76
1.68467	-81
1.68833	-86
1.69200	-90
1.69567	-93
1.69933	-96
1.70300	-99
1.70667	-101
1.71033	-103
1.71400	-104
1.71767	-105
1.72133	-106
1.72500	-106
1.72867	-106
1.73233	-107
1.73600	-106
1.73967	-106
1.74333	-106
1.74700	-106
1.75067	-107
1.75433	-107
1.75800	-108
1.76167	-109
1.76533	-109
1.76900	-110
1.77267	-111
1.77633	-112
1.78000	-113
1.78367	-113
1.78733	-114
1.79100	-114
1.79467	-115
1.79833	-115
1.80200	-116
1.80567	-116
1.80933	-116
1.81300	-115
1.81667	-114
1.82033	-113
1.82400	-112
1.82767	-111
1.83133	-110
1.83500	-109
1.83867	-109
1.84233	-109
1.84600	-109
1.84967	-110
1.85333	-111
1.85700	-112
1.86067	-113
1.86433	-113
1.86800	-114
1.87167	-114
1.87533	-114
1.87900	-114
1.88267	-114
1.88633	-114
1.89000	-114
1.89367	-115
1.89733	-115
1.90100	-115
1.90467	-115
1.90833	-114
1.91200	-114
1.91567	-114
1.91933	-114
1.92300	-113
1.92667	-113
1.93033	-113
1.93400	-113
1.93767	-113
1.94133	-113
1.94500	-113
1.94867	-113
1.95233	-112
1.95600	-112
1.95967	-112
1.96333	-112
1.96700	-111
1.97067	-110
1.97433	-109
1.97800	-108
1.98167	-108
1.98533	-107
1.98900	-107
1.99267	-107
1.99633	-106
2.00000	-106
2.00367	-106
2.00733	-106
2.01100	-106
2.01467	-106
2.01833	-106
2.02200	-106
2.02567	-106
2.02933	-106
2.03300	-106
2.03667	-106
2.04033	-106
2.04400	-105
2.04767	-105
2.05133	-104
2.05500	-104
2.05867	-103
2.06233	-102
2.06600	-102
2.06967	-101
2.07333	-100
2.07700	-100
2.08067	-100
2.08433	-100
2.08800	-100
2.09167	-100
2.09533	-100
2.09900	-100
2.10267	-100
2.10633	-100
2.11000	-99
2.11367	-99
2.11733	-98
2.12100	-98
2.12467	-97
2.12833	-97
2.13200	-97
2.13567	-97
2.13933	-97
2.14300	-97
2.14667	-97
2.15033	-97
2.15400	-97
2.15767	-97
2.16133	-97
2.16500	-96
2.16867	-96
2.17233	-95
2.17600	-94
2.17967	-94
2.18333	-93
2.18700	-93
2.19067	-93
2.19433	-92
2.19800	-92
2.20167	-92
2.20533	-92
2.20900	-92
2.21267	-92
2.21633	-91
2.22000	-91
2.22367	-90
2.22733	-90
2.23100	-89
2.23467	-88
2.23833	-87
2.24200	-87
2.24567	-87
2.24933	-87
2.25300	-87
2.25667	-87
2.26033	-86
2.26400	-86
2.26767	-86
2.27133	-86
2.27500	-86
2.27867	-86
2.28233	-86
2.28600	-86
2.28967	-85
2.29333	-85
2.29700	-84
2.30067	-84
2.30433	-83
2.30800	-83
2.31167	-82
2.31533	-81
2.31900	-81
2.32267	-81
2.32633	-81
2.33000	-81
2.33367	-81
2.33733	-81
2.34100	-81
2.34467	-81
2.34833	-80
2.35200	-79
2.35567	-78
2.35933	-78
2.36300	-77
2.36667	-75
2.37033	-73
2.37400	-71
2.37767	-68
2.38133	-65
2.38500	-61
2.38867	-57
2.39233	-53
2.39600	-48
2.39967	-44
2.40333	-39
2.40700	-35
2.41067	-30
2.41433	-26
2.41800	-23
2.42167	-20
2.42533	-17
2.42900	-15
2.43267	-14
2.43633	-12
2.44000	-11
2.44367	-10
2.44733	-10
2.45100	-9
2.45467	-9
2.45833	-9
2.46200	-8
2.46567	-7
2.46933	-5
2.47300	-4
2.47667	-2
2.48033	-1
2.48400	-0
2.48767	1
2.49133	2
2.49500	3
2.49867	4
2.50233	5
2.50600	6
2.50967	6
2.51333	7
2.51700	7
2.52067	8
2.52433	8
2.52800	9
2.53167	10
2.53533	11
2.53900	11
2.54267	12
2.54633	12
2.55000	12
2.55367	13
2.55733	13
2.56100	13
2.56467	13
2.56833	13
2.57200	13
2.57567	13
2.57933	13
2.58300	12
2.58667	12
2.59033	12
2.59400	12
2.59767	12
2.60133	12
2.60500	13
2.60867	14
2.61233	14
2.61600	15
2.61967	15
2.62333	15
2.62700	16
2.63067	16
2.63433	16
2.63800	16
2.64167	16
2.64533	17
2.64900	17
2.65267	17
2.65633	17
2.66000	18
2.66367	18
2.66733	18
2.67100	18
2.67467	19
2.67833	19
2.68200	19
2.68567	19
2.68933	19
2.69300	19
2.69667	19
2.70033	19
2.70400	19
2.70767	20
2.71133	20
2.71500	21
2.71867	22
2.72233	23
2.72600	23
2.72967	24
2.73333	24
2.73700	24
2.74067	24
2.74433	24
2.74800	23
2.75167	23
2.75533	23
2.75900	23
2.76267	23
2.76633	23
2.77000	23
2.77367	23
2.77733	23
2.78100	23
2.78467	23
2.78833	23
2.79200	23
2.79567	23
2.79933	23
2.80300	24
2.80667	24
2.81033	24
2.81400	24
2.81767	24
2.82133	24
2.82500	25
2.82867	25
2.83233	25
2.83600	24
2.83967	23
2.84333	22
2.84700	18
2.85067	13
2.85433	5
2.85800	-7
2.86167	-23
2.86533	-42
2.86900	-66
2.87267	-94
2.87633	-127
2.88000	-164
2.88367	-205
2.88733	-249
2.89100	-296
2.89467	-346
2.89833	-399
2.90200	-452
2.90567	-507
2.90933	-563
2.91300	-618
2.91667	-673
2.92033	-727
2.92400	-780
2.92767	-831
2.93133	-883
2.93500	-938
2.93867	-997
2.94233	-1050
2.94600	-1088
2.94967	-1102
2.95333	-1090
2.95700	-1054
2.96067	-998
2.96433	-929
2.96800	-853
2.97167	-772
2.97533	-692
2.97900	-614
2.98267	-541
2.98633	-474
2.99000	-412
2.99367	-357
2.99733	-308
3.00100	-265
3.00467	-226
3.00833	-193
3.01200	-164
3.01567	-139
3.01933	-118
3.02300	-99
3.02667	-83
3.03033	-69
3.03400	-58
3.03767	-48
3.04133	-39
3.04500	-32
3.04867	-25
3.05233	-20
3.05600	-15
3.05967	-11
3.06333	-7
3.06700	-4
3.07067	-2
3.07433	0
3.07800	2
3.08167	4
3.08533	6
3.08900	7
3.09267	8
3.09633	9
3.10000	11
3.10367	11
3.10733	12
3.11100	13
3.11467	13
3.11833	14
3.12200	14
3.12567	15
3.12933	15
3.13300	15
3.13667	15
3.14033	16
3.14400	16
3.14767	16
3.15133	16
3.15500	16
3.15867	17
3.16233	17
3.16600	18
3.16967	18
3.17333	18
3.17700	18
3.18067	19
3.18433	19
3.18800	19
3.19167	19
3.19533	20
3.19900	20
3.20267	20
3.20633	20
3.21000	20
3.21367	20
3.21733	19
3.22100	19
3.22467	19
3.22833	19
3.23200	19
3.23567	20
3.23933	20
3.24300	20
3.24667	20
3.25033	21
3.25400	21
3.25767	21
3.26133	21
3.26500	21
3.26867	21
3.27233	21
3.27600	21
3.27967	22
3.28333	22
3.28700	22
3.29067	22
3.29433	22
3.29800	22
3.30167	22
3.30533	23
3.30900	23
3.31267	23
3.31633	23
3.32000	23
3.32367	23
3.32733	23
3.33100	22
3.33467	22
3.33833	22
3.34200	22
3.34567	22
3.34933	22
3.35300	22
3.35667	23
3.36033	23
3.36400	23
3.36767	24
3.37133	24
3.37500	25
3.37867	25
3.38233	25
3.38600	26
3.38967	26
3.39333	26
3.39700	27
3.40067	27
3.40433	27
3.40800	27
3.41167	27
3.41533	27
3.41900	27
3.42267	26
3.42633	26
3.43000	26
3.43367	26
3.43733	25
3.44100	25
3.44467	25
3.44833	25
3.45200	24
3.45567	24
3.45933	24
3.46300	24
3.46667	24
3.47033	24
3.47400	24
3.47767	24
3.48133	24
3.48500	24
3.48867	24
3.49233	24
3.49600	24
3.49967	24
3.50333	24
3.50700	24
3.51067	24
3.51433	24
3.51800	25
3.52167	25
3.52533	25
3.52900	25
3.53267	25
3.53633	25
3.54000	25
3.54367	25
3.54733	25
3.55100	25
3.55467	25
3.55833	25
3.56200	25
3.56567	25
3.56933	25
3.57300	25
3.57667	25
3.58033	25
3.58400	25
3.58767	25
3.59133	25
3.59500	25
3.59867	25
3.60233	25
3.60600	25
3.60967	25
3.61333	25
3.61700	25
3.62067	25
3.62433	25
3.62800	25
3.63167	25
3.63533	25
3.63900	25
3.64267	25
3.64633	26
3.65000	26
3.65367	26
3.65733	26
3.66100	26
3.66467	25
3.66833	25
3.67200	25
3.67567	24
3.67933	24
3.68300	24
3.68667	23
3.69033	23
3.69400	23
3.69767	23
3.70133	23
3.70500	23
3.70867	23
3.71233	23
3.71600	23
3.71967	24
3.72333	24
3.72700	24
3.73067	24
3.73433	24
3.73800	24
3.74167	24
3.74533	24
3.74900	25
3.75267	25
3.75633	24
3.76000	24
3.76367	24
3.76733	24
3.77100	24
3.77467	24
3.77833	24
3.78200	24
3.78567	23
3.78933	23
3.79300	23
3.79667	23
3.80033	24
3.80400	24
3.80767	24
3.81133	24
3.81500	24
3.81867	24
3.82233	24
3.82600	24
3.82967	24
3.83333	24
3.83700	24
3.84067	24
3.84433	24
3.84800	24
3.85167	24
3.85533	24
3.85900	24
3.86267	23
3.86633	23
3.87000	23
3.87367	23
3.87733	23
3.88100	23
3.88467	23
3.88833	23
3.89200	23
3.89567	23
3.89933	24
3.90300	24
3.90667	24
3.91033	24
3.91400	24
3.91767	24
3.92133	25
3.92500	25
3.92867	25
3.93233	24
3.93600	24
3.93967	24
3.94333	24
3.94700	25
3.95067	25
3.95433	25
3.95800	25
3.96167	25
3.96533	25
3.96900	25
3.97267	26
3.97633	26
3.98000	26
3.98367	26
3.98733	26
3.99100	26
3.99467	26
3.99833	26

[Chromatogram (Ch3)]
Interval(msec)	220
# of Points	1091
Start Time(min)	0.002
End Time(min)	3.998
R.Time (min)	Intensity
0.00167	-0
0.00533	0
0.00900	0
0.01267	1
0.01633	0
0.02000	-1
0.02367	-2
0.02733	-2
0.03100	-3
0.03467	-3
0.03833	-1
0.04200	-1
0.04567	-2
0.04933	-4
0.05300	-3
0.05667	-2
0.06033	-1
0.06400	-2
0.06767	-1
0.07133	-1
0.07500	-4
0.07867	-6
0.08233	-6
0.08600	-4
0.08967	-4
0.09333	-2
0.09700	-1
0.10067	-2
0.10433	-3
0.10800	-4
0.11167	-2
0.11533	1
0.11900	2
0.12267	1
0.12633	-1
0.13000	-2
0.13367	-3
0.13733	-1
0.14100	-1
0.14467	-0
0.14833	-1
0.15200	-2
0.15567	-2
0.15933	-1
0.16300	-3
0.16667	-5
0.17033	-7
0.17400	-7
0.17767	-6
0.18133	-6
0.18500	-7
0.18867	-7
0.19233	-7
0.19600	-6
0.19967	-3
0.20333	-1
0.20700	-0
0.21067	-0
0.21433	-0
0.21800	-0
0.22167	-1
0.22533	-0
0.22900	-1
0.23267	-3
0.23633	-3
0.24000	-1
0.24367	-1
0.24733	-2
0.25100	-3
0.25467	-4
0.25833	-5
0.26200	-4
0.26567	-3
0.26933	-2
0.27300	-1
0.27667	1
0.28033	2
0.28400	1
0.28767	-2
0.29133	-4
0.29500	-7
0.29867	-8
0.30233	-9
0.30600	-7
0.30967	-6
0.31333	-5
0.31700	-5
0.32067	-4
0.32433	-3
0.32800	-2
0.33167	-0
0.33533	1
0.33900	1
0.34267	-2
0.34633	-2
0.35000	-3
0.35367	-3
0.35733	-2
0.36100	-0
0.36467	-2
0.36833	-2
0.37200	-1
0.37567	0
0.37933	0
0.38300	-2
0.38667	-5
0.39033	-5
0.39400	-5
0.39767	-5
0.40133	-6
0.40500	-6
0.40867	-4
0.41233	-3
0.41600	-1
0.41967	-1
0.42333	-1
0.42700	-2
0.43067	-2
0.43433	-3
0.43800	-3
0.44167	-3
0.44533	-2
0.44900	-4
0.45267	-5
0.45633	-7
0.46000	-7
0.46367	-7
0.46733	-5
0.47100	-4
0.47467	-4
0.47833	-5
0.48200	-6
0.48567	-6
0.48933	-4
0.49300	-3
0.49667	-3
0.50033	-3
0.50400	-3
0.50767	-3
0.51133	-2
0.51500	-1
0.51867	0
0.52233	1
0.52600	1
0.52967	1
0.53333	1
0.53700	1
0.54067	0
0.54433	0
0.54800	1
0.55167	1
0.55533	2
0.55900	0
0.56267	-1
0.56633	-1
0.57000	0
0.57367	1
0.57733	1
0.58100	1
0.58467	0
0.58833	-1
0.59200	-3
0.59567	-2
0.59933	-0
0.60300	2
0.60667	4
0.61033	4
0.61400	5
0.61767	5
0.62133	4
0.62500	3
0.62867	3
0.63233	4
0.63600	3
0.63967	1
0.64333	0
0.64700	-0
0.65067	-0
0.65433	-0
0.65800	1
0.66167	2
0.66533	2
0.66900	1
0.67267	-0
0.67633	-0
0.68000	1
0.68367	2
0.68733	1
0.69100	-1
0.69467	-1
0.69833	1
0.70200	1
0.70567	-0
0.70933	-2
0.71300	-2
0.71667	-1
0.72033	2
0.72400	3
0.72767	1
0.73133	-2
0.73500	-3
0.73867	-2
0.74233	-2
0.74600	-2
0.74967	-1
0.75333	-0
0.75700	4
0.76067	6
0.76433	6
0.76800	6
0.77167	6
0.77533	4
0.77900	2
0.78267	-1
0.78633	-0
0.79000	1
0.79367	-1
0.79733	-1
0.80100	-0
0.80467	2
0.80833	2
0.81200	0
0.81567	-1
0.81933	-1
0.82300	-2
0.82667	1
0.83033	5
0.83400	10
0.83767	10
0.84133	9
0.84500	8
0.84867	8
0.85233	7
0.85600	8
0.85967	8
0.86333	8
0.86700	9
0.87067	9
0.87433	10
0.87800	8
0.88167	4
0.88533	5
0.88900	6
0.89267	9
0.89633	8
0.90000	7
0.90367	7
0.90733	8
0.91100	8
0.91467	8
0.91833	8
0.92200	8
0.92567	7
0.92933	6
0.93300	7
0.93667	9
0.94033	10
0.94400	10
0.94767	9
0.95133	7
0.95500	6
0.95867	6
0.96233	6
0.96600	9
0.96967	11
0.97333	13
0.97700	14
0.98067	14
0.98433	13
0.98800	11
0.99167	10
0.99533	8
0.99900	9
1.00267	10
1.00633	11
1.01000	11
1.01367	13
1.01733	13
1.02100	13
1.02467	13
1.02833	15
1.03200	16
1.03567	16
1.03933	14
1.04300	12
1.04667	12
1.05033	14
1.05400	16
1.05767	15
1.06133	14
1.06500	10
1.06867	7
1.07233	4
1.07600	4
1.07967	6
1.08333	9
1.08700	10
1.09067	9
1.09433	10
1.09800	10
1.10167	10
1.10533	8
1.10900	8
1.11267	11
1.11633	14
1.12000	15
1.12367	15
1.12733	16
1.13100	16
1.13467	14
1.13833	13
1.14200	11
1.14567	10
1.14933	12
1.15300	12
1.15667	11
1.16033	12
1.16400	12
1.16767	11
1.17133	11
1.17500	11
1.17867	12
1.18233	14
1.18600	16
1.18967	19
1.19333	20
1.19700	19
1.20067	18
1.20433	18
1.20800	19
1.21167	20
1.21533	19
1.21900	19
1.22267	18
1.22633	18
1.23000	18
1.23367	19
1.23733	19
1.24100	18
1.24467	16
1.24833	17
1.25200	18
1.25567	16
1.25933	18
1.26300	20
1.26667	21
1.27033	22
1.27400	23
1.27767	24
1.28133	22
1.28500	21
1.28867	20
1.29233	19
1.29600	21
1.29967	23
1.30333	22
1.30700	20
1.31067	19
1.31433	18
1.31800	16
1.32167	16
1.32533	18
1.32900	21
1.33267	23
1.33633	22
1.34000	19
1.34367	18
1.34733	18
1.35100	19
1.35467	20
1.35833	20
1.36200	21
1.36567	19
1.36933	18
1.37300	16
1.37667	16
1.38033	16
1.38400	15
1.38767	15
1.39133	19
1.39500	22
1.39867	24
1.40233	23
1.40600	20
1.40967	19
1.41333	20
1.41700	21
1.42067	21
1.42433	20
1.42800	21
1.43167	21
1.43533	20
1.43900	21
1.44267	24
1.44633	25
1.45000	27
1.45367	26
1.45733	24
1.46100	24
1.46467	24
1.46833	25
1.47200	25
1.47567	26
1.47933	28
1.48300	30
1.48667	31
1.49033	31
1.49400	29
1.49767	25
1.50133	23
1.50500	23
1.50867	23
1.51233	24
1.51600	25
1.51967	26
1.52333	25
1.52700	26
1.53067	27
1.53433	27
1.53800	26
1.54167	25
1.54533	24
1.54900	24
1.55267	24
1.55633	26
1.56000	28
1.56367	29
1.56733	28
1.57100	26
1.57467	27
1.57833	27
1.58200	28
1.58567	28
1.58933	27
1.59300	26
1.59667	27
1.60033	28
1.60400	29
1.60767	29
1.61133	28
1.61500	28
1.61867	28
1.62233	31
1.62600	34
1.62967	36
1.63333	35
1.63700	33
1.64067	31
1.64433	32
1.64800	33
1.65167	37
1.65533	40
1.65900	41
1.66267	38
1.66633	37
1.67000	37
1.67367	37
1.67733	35
1.68100	34
1.68467	35
1.68833	38
1.69200	40
1.69567	38
1.69933	40
1.70300	42
1.70667	45
1.71033	46
1.71400	48
1.71767	49
1.72133	50
1.72500	50
1.72867	49
1.73233	47
1.73600	46
1.73967	45
1.74333	44
1.74700	45
1.75067	46
1.75433	48
1.75800	49
1.76167	49
1.76533	49
1.76900	49
1.77267	49
1.77633	50
1.78000	49
1.78367	50
1.78733	52
1.79100	53
1.79467	54
1.79833	55
1.80200	56
1.80567	55
1.80933	53
1.81300	53
1.81667	52
1.82033	52
1.82400	55
1.82767	56
1.83133	58
1.83500	59
1.83867	60
1.84233	61
1.84600	63
1.84967	66
1.85333	68
1.85700	67
1.86067	68
1.86433	70
1.86800	70
1.87167	70
1.87533	70
1.87900	70
1.88267	72
1.88633	75
1.89000	76
1.89367	79
1.89733	81
1.90100	82
1.90467	82
1.90833	84
1.91200	84
1.91567	84
1.91933	83
1.92300	85
1.92667	88
1.93033	89
1.93400	91
1.93767	93
1.94133	95
1.94500	94
1.94867	94
1.95233	96
1.95600	99
1.95967	100
1.96333	99
1.96700	100
1.97067	101
1.97433	103
1.97800	105
1.98167	104
1.98533	103
1.98900	102
1.99267	104
1.99633	106
2.00000	107
2.00367	107
2.00733	109
2.01100	110
2.01467	111
2.01833	115
2.02200	116
2.02567	118
2.02933	122
2.03300	125
2.03667	127
2.04033	127
2.04400	127
2.04767	128
2.05133	127
2.05500	126
2.05867	125
2.06233	124
2.06600	123
2.06967	123
2.07333	125
2.07700	126
2.08067	127
2.08433	128
2.08800	132
2.09167	134
2.09533	133
2.09900	134
2.10267	136
2.10633	140
2.11000	143
2.11367	145
2.11733	146
2.12100	145
2.12467	148
2.12833	149
2.13200	150
2.13567	152
2.13933	155
2.14300	156
2.14667	157
2.15033	158
2.15400	157
2.15767	158
2.16133	159
2.16500	160
2.16867	161
2.17233	161
2.17600	162
2.17967	163
2.18333	165
2.18700	171
2.19067	176
2.19433	180
2.19800	182
2.20167	182
2.20533	184
2.20900	186
2.21267	188
2.21633	190
2.22000	192
2.22367	192
2.22733	190
2.23100	189
2.23467	187
2.23833	189
2.24200	191
2.24567	194
2.24933	196
2.25300	199
2.25667	201
2.26033	201
2.26400	201
2.26767	198
2.27133	198
2.27500	199
2.27867	203
2.28233	207
2.28600	209
2.28967	209
2.29333	209
2.29700	211
2.30067	211
2.30433	210
2.30800	209
2.31167	209
2.31533	211
2.31900	213
2.32267	216
2.32633	218
2.33000	221
2.33367	224
2.33733	227
2.34100	229
2.34467	228
2.34833	227
2.35200	228
2.35567	229
2.35933	231
2.36300	234
2.36667	237
2.37033	239
2.37400	241
2.37767	243
2.38133	244
2.38500	243
2.38867	240
2.39233	241
2.39600	245
2.39967	250
2.40333	254
2.40700	256
2.41067	259
2.41433	261
2.41800	265
2.42167	269
2.42533	272
2.42900	274
2.43267	276
2.43633	276
2.44000	277
2.44367	335
2.44733	474
2.45100	622
2.45467	737
2.45833	797
2.46200	790
2.46567	741
2.46933	679
2.47300	625
2.47667	590
2.48033	566
2.48400	538
2.48767	499
2.49133	454
2.49500	411
2.49867	376
2.50233	350
2.50600	333
2.50967	324
2.51333	322
2.51700	330
2.52067	346
2.52433	364
2.52800	380
2.53167	386
2.53533	383
2.53900	369
2.54267	347
2.54633	320
2.55000	292
2.55367	269
2.55733	250
2.56100	233
2.56467	217
2.56833	205
2.57200	196
2.57567	192
2.57933	189
2.58300	186
2.58667	185
2.59033	184
2.59400	184
2.59767	182
2.60133	179
2.60500	173
2.60867	162
2.61233	151
2.61600	141
2.61967	132
2.62333	122
2.62700	113
2.63067	108
2.63433	106
2.63800	107
2.64167	112
2.64533	115
2.64900	115
2.65267	114
2.65633	109
2.66000	105
2.66367	99
2.66733	92
2.67100	85
2.67467	76
2.67833	67
2.68200	59
2.68567	55
2.68933	51
2.69300	44
2.69667	40
2.70033	37
2.70400	39
2.70767	40
2.71133	37
2.71500	36
2.71867	35
2.72233	37
2.72600	39
2.72967	40
2.73333	42
2.73700	43
2.74067	43
2.74433	45
2.74800	49
2.75167	54
2.75533	58
2.75900	60
2.76267	63
2.76633	63
2.77000	61
2.77367	62
2.77733	65
2.78100	68
2.78467	69
2.78833	69
2.79200	71
2.79567	73
2.79933	75
2.80300	76
2.80667	79
2.81033	83
2.81400	89
2.81767	97
2.82133	111
2.82500	140
2.82867	200
2.83233	311
2.83600	492
2.83967	768
2.84333	1154
2.84700	1644
2.85067	2217
2.85433	2839
2.85800	3463
2.86167	4035
2.86533	4510
2.86900	4851
2.87267	5042
2.87633	5084
2.88000	4994
2.88367	4796
2.88733	4519
2.89100	4189
2.89467	3830
2.89833	3466
2.90200	3112
2.90567	2774
2.90933	2460
2.91300	2174
2.91667	1920
2.92033	1694
2.92400	1490
2.92767	1310
2.93133	1150
2.93500	1011
2.93867	890
2.94233	786
2.94600	694
2.94967	615
2.95333	547
2.95700	487
2.96067	434
2.96433	387
2.96800	349
2.97167	317
2.97533	288
2.97900	258
2.98267	207
2.98633	137
2.99000	77
2.99367	49
2.99733	54
3.00100	77
3.00467	114
3.00833	159
3.01200	206
3.01567	250
3.01933	295
3.02300	334
3.02667	370
3.03033	403
3.03400	431
3.03767	452
3.04133	472
3.04500	488
3.04867	499
3.05233	507
3.05600	515
3.05967	523
3.06333	528
3.06700	533
3.07067	538
3.07433	543
3.07800	547
3.08167	549
3.08533	549
3.08900	548
3.09267	548
3.09633	550
3.10000	552
3.10367	553
3.10733	552
3.11100	549
3.11467	546
3.11833	548
3.12200	550
3.12567	553
3.12933	553
3.13300	555
3.13667	556
3.14033	557
3.14400	556
3.14767	555
3.15133	556
3.15500	557
3.15867	560
3.16233	561
3.16600	564
3.16967	567
3.17333	569
3.17700	572
3.18067	576
3.18433	578
3.18800	580
3.19167	584
3.19533	588
3.19900	595
3.20267	600
3.20633	604
3.21000	608
3.21367	614
3.21733	619
3.22100	623
3.22467	627
3.22833	630
3.23200	633
3.23567	635
3.23933	638
3.24300	641
3.24667	643
3.25033	646
3.25400	651
3.25767	657
3.26133	662
3.26500	662
3.26867	660
3.27233	659
3.27600	658
3.27967	656
3.28333	657
3.28700	661
3.29067	665
3.29433	668
3.29800	669
3.30167	669
3.30533	667
3.30900	665
3.31267	663
3.31633	659
3.32000	655
3.32367	653
3.32733	652
3.33100	648
3.33467	646
3.33833	643
3.34200	641
3.34567	642
3.34933	642
3.35300	642
3.35667	639
3.36033	634
3.36400	630
3.36767	629
3.37133	626
3.37500	621
3.37867	617
3.38233	612
3.38600	608
3.38967	604
3.39333	602
3.39700	602
3.40067	601
3.40433	599
3.40800	598
3.41167	598
3.41533	600
3.41900	601
3.42267	601
3.42633	600
3.43000	597
3.43367	594
3.43733	592
3.44100	591
3.44467	589
3.44833	587
3.45200	586
3.45567	585
3.45933	585
3.46300	585
3.46667	584
3.47033	584
3.47400	584
3.47767	583
3.48133	584
3.48500	584
3.48867	584
3.49233	584
3.49600	583
3.49967	582
3.50333	580
3.50700	578
3.51067	578
3.51433	576
3.51800	575
3.52167	572
3.52533	572
3.52900	572
3.53267	569
3.53633	566
3.54000	566
3.54367	567
3.54733	569
3.55100	569
3.55467	569
3.55833	567
3.56200	567
3.56567	569
3.56933	570
3.57300	570
3.57667	572
3.58033	573
3.58400	574
3.58767	575
3.59133	573
3.59500	571
3.59867	571
3.60233	573
3.60600	574
3.60967	577
3.61333	578
3.61700	578
3.62067	577
3.62433	575
3.62800	574
3.63167	574
3.63533	573
3.63900	572
3.64267	571
3.64633	570
3.65000	570
3.65367	571
3.65733	573
3.66100	575
3.66467	575
3.66833	571
3.67200	570
3.67567	571
3.67933	574
3.68300	575
3.68667	573
3.69033	573
3.69400	573
3.69767	574
3.70133	575
3.70500	575
3.70867	572
3.71233	568
3.71600	565
3.71967	562
3.72333	560
3.72700	560
3.73067	560
3.73433	560
3.73800	560
3.74167	557
3.74533	556
3.74900	557
3.75267	558
3.75633	558
3.76000	557
3.76367	555
3.76733	553
3.77100	552
3.77467	554
3.77833	556
3.78200	555
3.78567	552
3.78933	548
3.79300	545
3.79667	543
3.80033	541
3.80400	542
3.80767	541
3.81133	540
3.81500	540
3.81867	539
3.82233	536
3.82600	533
3.82967	530
3.83333	528
3.83700	527
3.84067	530
3.84433	531
3.84800	530
3.85167	529
3.85533	527
3.85900	526
3.86267	524
3.86633	523
3.87000	523
3.87367	521
3.87733	519
3.88100	517
3.88467	516
3.88833	517
3.89200	517
3.89567	516
3.89933	513
3.90300	510
3.90667	507
3.91033	506
3.91400	509
3.91767	511
3.92133	511
3.92500	509
3.92867	508
3.93233	507
3.93600	505
3.93967	503
3.94333	501
3.94700	499
3.95067	497
3.95433	497
3.95800	495
3.96167	494
3.96533	492
3.96900	489
3.97267	486
3.97633	485
3.98000	483
3.98367	484
3.98733	484
3.99100	483
3.99467	481
3.99833	478

[Status Trace (Column Oven Temperature)]
Interval(msec)	1000
# of Points	240
Start Time(min)	0.011
End Time(min)	3.994
Intensity Units	
Intensity Multiplier	1
R.Time (min)	Intensity
0.01062	35.03
0.02728	35.04
0.04395	35.06
0.06062	35.07
0.07728	35.07
0.09395	35.07
0.11062	35.06
0.12728	35.05
0.14395	35.05
0.16062	35.06
0.17728	35.06
0.19395	35.05
0.21062	35.04
0.22728	35.04
0.24395	35.04
0.26062	35.04
0.27728	35.04
0.29395	35.04
0.31062	35.05
0.32728	35.04
0.34395	35.03
0.36062	35.02
0.37728	35.02
0.39395	35.02
0.41062	35.03
0.42728	35.03
0.44395	35.03
0.46062	35.03
0.47728	35.03
0.49395	35.02
0.51062	35.02
0.52728	35.02
0.54395	35.02
0.56062	35.03
0.57728	35.03
0.59395	35.02
0.61062	35.01
0.62728	35.01
0.64395	35.00
0.66062	35.00
0.67728	34.98
0.69395	34.99
0.71062	35.00
0.72728	35.00
0.74395	35.02
0.76062	35.02
0.77728	35.01
0.79395	35.01
0.81062	35.01
0.82728	35.01
0.84395	35.01
0.86062	35.01
0.87728	35.01
0.89395	35.00
0.91062	34.99
0.92728	34.98
0.94395	34.99
0.96062	34.98
0.97728	34.98
0.99395	34.99
1.01062	35.01
1.02728	35.01
1.04395	35.00
1.06062	34.99
1.07728	34.99
1.09395	35.00
1.11062	35.00
1.12728	35.00
1.14395	35.01
1.16062	35.02
1.17728	35.02
1.19395	35.02
1.21062	35.00
1.22728	34.99
1.24395	34.99
1.26062	34.99
1.27728	34.99
1.29395	34.99
1.31062	35.00
1.32728	35.00
1.34395	34.99
1.36062	34.99
1.37728	34.98
1.39395	34.97
1.41062	34.97
1.42728	34.97
1.44395	34.98
1.46062	34.99
1.47728	35.00
1.49395	35.00
1.51062	35.01
1.52728	35.01
1.54395	35.00
1.56062	34.99
1.57728	35.00
1.59395	35.02
1.61062	35.08
1.62728	35.22
1.64395	35.42
1.66062	35.68
1.67728	36.02
1.69395	36.40
1.71062	36.76
1.72728	37.08
1.74395	37.40
1.76062	37.74
1.77728	38.07
1.79395	38.42
1.81062	38.74
1.82728	39.03
1.84395	39.36
1.86062	39.70
1.87728	40.03
1.89395	40.37
1.91062	40.69
1.92728	41.02
1.94395	41.35
1.96062	41.68
1.97728	41.99
1.99395	42.31
2.01062	42.64
2.02728	42.96
2.04395	43.30
2.06062	43.61
2.07728	43.93
2.09395	44.26
2.11062	44.58
2.12728	44.90
2.14395	45.24
2.16062	45.56
2.17728	45.89
2.19395	46.22
2.21062	46.57
2.22728	46.89
2.24395	47.23
2.26062	47.56
2.27728	47.89
2.29395	48.21
2.31062	48.54
2.32728	48.90
2.34395	49.21
2.36062	49.48
2.37728	49.65
2.39395	49.70
2.41062	49.68
2.42728	49.69
2.44395	49.69
2.46062	49.72
2.47728	49.71
2.49395	49.72
2.51062	49.74
2.52728	49.76
2.54395	49.76
2.56062	49.78
2.57728	49.80
2.59395	49.82
2.61062	49.82
2.62728	49.83
2.64395	49.83
2.66062	49.83
2.67728	49.85
2.69395	49.86
2.71062	49.85
2.72728	49.83
2.74395	49.85
2.76062	49.87
2.77728	49.86
2.79395	49.86
2.81062	49.86
2.82728	49.87
2.84395	49.87
2.86062	49.87
2.87728	49.88
2.89395	49.88
2.91062	49.89
2.92728	49.91
2.94395	49.93
2.96062	49.94
2.97728	49.96
2.99395	49.98
3.01062	50.00
3.02728	50.02
3.04395	50.03
3.06062	50.04
3.07728	50.04
3.09395	50.03
3.11062	50.03
3.12728	50.05
3.14395	50.05
3.16062	50.05
3.17728	50.06
3.19395	50.06
3.21062	50.07
3.22728	50.07
3.24395	50.08
3.26062	50.09
3.27728	50.09
3.29395	50.10
3.31062	50.10
3.32728	50.11
3.34395	50.11
3.36062	50.10
3.37728	50.09
3.39395	50.07
3.41062	50.06
3.42728	50.06
3.44395	50.06
3.46062	50.07
3.47728	50.07
3.49395	50.07
3.51062	50.07
3.52728	50.06
3.54395	50.05
3.56062	50.04
3.57728	50.03
3.59395	50.04
3.61062	50.03
3.62728	50.03
3.64395	50.03
3.66062	50.02
3.67728	50.04
3.69395	50.05
3.71062	50.06
3.72728	50.06
3.74395	50.06
3.76062	50.06
3.77728	50.07
3.79395	50.07
3.81062	50.07
3.82728	50.07
3.84395	50.07
3.86062	50.07
3.87728	50.08
3.89395	50.08
3.91062	50.08
3.92728	50.08
3.94395	50.07
3.96062	50.07
3.97728	50.06
3.99395	50.06

[Status Trace (Injection Unit Temperature)]
Interval(msec)	1000
# of Points	240
Start Time(min)	0.011
End Time(min)	3.994
Intensity Units	
Intensity Multiplier	1
R.Time (min)	Intensity
0.01062	99.97
0.02728	99.98
0.04395	99.98
0.06062	99.98
0.07728	99.97
0.09395	99.98
0.11062	99.98
0.12728	99.98
0.14395	99.98
0.16062	99.98
0.17728	99.98
0.19395	99.98
0.21062	99.98
0.22728	99.98
0.24395	99.98
0.26062	99.98
0.27728	99.98
0.29395	99.98
0.31062	99.98
0.32728	99.98
0.34395	99.98
0.36062	99.98
0.37728	99.98
0.39395	99.98
0.41062	99.98
0.42728	99.99
0.44395	99.98
0.46062	99.99
0.47728	99.99
0.49395	99.98
0.51062	99.98
0.52728	99.98
0.54395	99.98
0.56062	99.98
0.57728	99.99
0.59395	99.99
0.61062	99.99
0.62728	99.98
0.64395	99.98
0.66062	99.98
0.67728	99.99
0.69395	99.98
0.71062	99.99
0.72728	99.99
0.74395	99.99
0.76062	99.99
0.77728	99.99
0.79395	99.99
0.81062	99.99
0.82728	99.98
0.84395	99.99
0.86062	99.98
0.87728	99.99
0.89395	99.99
0.91062	99.98
0.92728	99.98
0.94395	99.99
0.96062	99.99
0.97728	99.99
0.99395	99.99
1.01062	99.99
1.02728	99.98
1.04395	99.99
1.06062	99.99
1.07728	99.98
1.09395	99.99
1.11062	99.99
1.12728	99.99
1.14395	99.99
1.16062	99.99
1.17728	99.99
1.19395	99.99
1.21062	99.98
1.22728	99.99
1.24395	99.99
1.26062	99.99
1.27728	99.99
1.29395	99.99
1.31062	99.99
1.32728	99.99
1.34395	99.99
1.36062	99.99
1.37728	99.98
1.39395	99.99
1.41062	99.99
1.42728	99.99
1.44395	99.99
1.46062	99.99
1.47728	99.99
1.49395	99.99
1.51062	99.99
1.52728	99.99
1.54395	99.99
1.56062	99.99
1.57728	99.99
1.59395	99.99
1.61062	99.99
1.62728	99.99
1.64395	99.99
1.66062	99.99
1.67728	99.99
1.69395	99.99
1.71062	99.99
1.72728	99.99
1.74395	99.99
1.76062	99.99
1.77728	99.99
1.79395	99.99
1.81062	99.98
1.82728	99.99
1.84395	99.99
1.86062	99.98
1.87728	99.98
1.89395	99.98
1.91062	99.98
1.92728	99.98
1.94395	99.97
1.96062	99.98
1.97728	99.98
1.99395	99.97
2.01062	99.97
2.02728	99.97
2.04395	99.97
2.06062	99.97
2.07728	99.97
2.09395	99.97
2.11062	99.97
2.12728	99.97
2.14395	99.96
2.16062	99.97
2.17728	99.96
2.19395	99.97
2.21062	99.96
2.22728	99.96
2.24395	99.96
2.26062	99.96
2.27728	99.96
2.29395	99.97
2.31062	99.96
2.32728	99.96
2.34395	99.96
2.36062	99.96
2.37728	99.96
2.39395	99.96
2.41062	99.96
2.42728	99.96
2.44395	99.97
2.46062	99.96
2.47728	99.96
2.49395	99.97
2.51062	99.96
2.52728	99.96
2.54395	99.97
2.56062	99.97
2.57728	99.97
2.59395	99.97
2.61062	99.98
2.62728	99.97
2.64395	99.97
2.66062	99.98
2.67728	99.98
2.69395	99.98
2.71062	99.98
2.72728	99.99
2.74395	99.99
2.76062	99.99
2.77728	99.99
2.79395	99.99
2.81062	99.99
2.82728	99.99
2.84395	100.00
2.86062	100.00
2.87728	100.00
2.89395	100.01
2.91062	100.01
2.92728	100.00
2.94395	100.00
2.96062	100.01
2.97728	100.01
2.99395	100.01
3.01062	100.02
3.02728	100.01
3.04395	100.02
3.06062	100.02
3.07728	100.02
3.09395	100.02
3.11062	100.02
3.12728	100.02
3.14395	100.03
3.16062	100.03
3.17728	100.02
3.19395	100.03
3.21062	100.03
3.22728	100.03
3.24395	100.03
3.26062	100.03
3.27728	100.03
3.29395	100.03
3.31062	100.03
3.32728	100.04
3.34395	100.04
3.36062	100.04
3.37728	100.04
3.39395	100.04
3.41062	100.04
3.42728	100.04
3.44395	100.04
3.46062	100.04
3.47728	100.04
3.49395	100.04
3.51062	100.05
3.52728	100.04
3.54395	100.05
3.56062	100.05
3.57728	100.05
3.59395	100.05
3.61062	100.05
3.62728	100.05
3.64395	100.05
3.66062	100.05
3.67728	100.05
3.69395	100.05
3.71062	100.05
3.72728	100.05
3.74395	100.05
3.76062	100.05
3.77728	100.05
3.79395	100.05
3.81062	100.05
3.82728	100.05
3.84395	100.05
3.86062	100.05
3.87728	100.05
3.89395	100.05
3.91062	100.05
3.92728	100.05
3.94395	100.05
3.96062	100.05
3.97728	100.05
3.99395	100.05

[Status Trace (Carrier Gas Pressure)]
Interval(msec)	1000
# of Points	240
Start Time(min)	0.011
End Time(min)	3.994
Intensity Units	
Intensity Multiplier	1
R.Time (min)	Intensity
0.01062	58.00
0.02728	55.06
0.04395	57.54
0.06062	59.54
0.07728	59.07
0.09395	58.00
0.11062	57.99
0.12728	58.01
0.14395	58.01
0.16062	58.01
0.17728	58.00
0.19395	58.00
0.21062	58.00
0.22728	58.00
0.24395	58.00
0.26062	58.00
0.27728	58.00
0.29395	58.00
0.31062	58.00
0.32728	58.00
0.34395	58.00
0.36062	58.00
0.37728	58.00
0.39395	58.00
0.41062	58.00
0.42728	58.00
0.44395	58.00
0.46062	58.00
0.47728	58.00
0.49395	58.00
0.51062	58.00
0.52728	58.00
0.54395	58.00
0.56062	58.00
0.57728	58.00
0.59395	58.00
0.61062	58.00
0.62728	58.00
0.64395	58.00
0.66062	58.00
0.67728	58.00
0.69395	58.00
0.71062	58.00
0.72728	58.00
0.74395	58.00
0.76062	58.00
0.77728	58.00
0.79395	58.00
0.81062	58.00
0.82728	58.00
0.84395	58.00
0.86062	58.00
0.87728	58.00
0.89395	58.00
0.91062	58.00
0.92728	58.00
0.94395	58.00
0.96062	58.00
0.97728	58.00
0.99395	58.00
1.01062	58.00
1.02728	58.00
1.04395	58.00
1.06062	58.00
1.07728	58.00
1.09395	58.00
1.11062	58.00
1.12728	58.00
1.14395	58.00
1.16062	58.00
1.17728	58.00
1.19395	58.00
1.21062	58.00
1.22728	58.00
1.24395	58.00
1.26062	58.00
1.27728	58.00
1.29395	58.00
1.31062	58.00
1.32728	58.00
1.34395	58.00
1.36062	58.00
1.37728	58.00
1.39395	58.00
1.41062	58.00
1.42728	58.00
1.44395	58.00
1.46062	58.00
1.47728	58.00
1.49395	58.00
1.51062	58.00
1.52728	58.00
1.54395	58.00
1.56062	58.00
1.57728	58.00
1.59395	58.00
1.61062	58.00
1.62728	58.00
1.64395	58.00
1.66062	58.00
1.67728	58.01
1.69395	58.00
1.71062	58.00
1.72728	58.00
1.74395	58.00
1.76062	58.00
1.77728	58.00
1.79395	58.00
1.81062	58.00
1.82728	58.00
1.84395	58.00
1.86062	58.00
1.87728	58.00
1.89395	58.00
1.91062	58.00
1.92728	58.00
1.94395	58.00
1.96062	58.00
1.97728	58.00
1.99395	58.00
2.01062	58.00
2.02728	58.00
2.04395	58.00
2.06062	58.00
2.07728	58.00
2.09395	58.00
2.11062	58.00
2.12728	58.00
2.14395	58.00
2.16062	58.00
2.17728	58.00
2.19395	58.00
2.21062	58.00
2.22728	58.00
2.24395	58.00
2.26062	58.00
2.27728	58.00
2.29395	58.00
2.31062	58.00
2.32728	58.00
2.34395	58.00
2.36062	58.00
2.37728	57.99
2.39395	57.99
2.41062	57.99
2.42728	58.00
2.44395	58.00
2.46062	58.00
2.47728	58.00
2.49395	58.00
2.51062	57.99
2.52728	57.98
2.54395	58.00
2.56062	58.00
2.57728	58.00
2.59395	58.00
2.61062	58.00
2.62728	58.00
2.64395	58.00
2.66062	58.00
2.67728	58.00
2.69395	58.00
2.71062	58.00
2.72728	58.00
2.74395	58.00
2.76062	58.00
2.77728	58.00
2.79395	58.00
2.81062	58.00
2.82728	58.00
2.84395	58.00
2.86062	58.00
2.87728	58.00
2.89395	58.00
2.91062	58.00
2.92728	58.00
2.94395	58.00
2.96062	58.00
2.97728	58.00
2.99395	58.00
3.01062	58.00
3.02728	58.00
3.04395	58.00
3.06062	58.00
3.07728	58.00
3.09395	58.00
3.11062	58.00
3.12728	58.00
3.14395	58.00
3.16062	58.00
3.17728	58.00
3.19395	58.00
3.21062	58.00
3.22728	58.00
3.24395	58.00
3.26062	58.00
3.27728	58.00
3.29395	58.00
3.31062	58.00
3.32728	58.00
3.34395	58.00
3.36062	58.00
3.37728	58.00
3.39395	58.00
3.41062	58.00
3.42728	58.00
3.44395	58.00
3.46062	58.00
3.47728	58.00
3.49395	58.00
3.51062	58.00
3.52728	58.00
3.54395	58.00
3.56062	58.00
3.57728	58.00
3.59395	58.00
3.61062	58.00
3.62728	58.00
3.64395	58.00
3.66062	58.00
3.67728	58.00
3.69395	58.00
3.71062	58.00
3.72728	58.00
3.74395	58.00
3.76062	58.00
3.77728	58.00
3.79395	58.00
3.81062	58.00
3.82728	58.00
3.84395	58.00
3.86062	58.00
3.87728	58.00
3.89395	58.00
3.91062	58.00
3.92728	58.00
3.94395	58.00
3.96062	58.00
3.97728	58.00
3.99395	58.00

[Status Trace (Carrier Gas Flow)]
Interval(msec)	1000
# of Points	240
Start Time(min)	0.011
End Time(min)	3.994
Intensity Units	
Intensity Multiplier	1
R.Time (min)	Intensity
0.01062	34.52
0.02728	34.53
0.04395	34.55
0.06062	34.54
0.07728	34.50
0.09395	34.52
0.11062	34.52
0.12728	34.52
0.14395	34.52
0.16062	34.52
0.17728	34.52
0.19395	34.51
0.21062	34.52
0.22728	34.52
0.24395	34.52
0.26062	34.52
0.27728	34.52
0.29395	34.52
0.31062	34.52
0.32728	34.51
0.34395	34.52
0.36062	34.52
0.37728	34.52
0.39395	34.52
0.41062	34.53
0.42728	34.52
0.44395	34.52
0.46062	34.52
0.47728	34.52
0.49395	34.52
0.51062	34.52
0.52728	34.52
0.54395	34.52
0.56062	34.52
0.57728	34.52
0.59395	34.52
0.61062	34.52
0.62728	34.52
0.64395	34.52
0.66062	34.52
0.67728	34.52
0.69395	34.52
0.71062	34.52
0.72728	34.52
0.74395	34.52
0.76062	34.51
0.77728	34.52
0.79395	34.52
0.81062	34.52
0.82728	34.52
0.84395	34.52
0.86062	34.52
0.87728	34.52
0.89395	34.52
0.91062	34.52
0.92728	34.52
0.94395	34.52
0.96062	34.52
0.97728	34.52
0.99395	34.52
1.01062	34.52
1.02728	34.52
1.04395	34.52
1.06062	34.52
1.07728	34.52
1.09395	34.52
1.11062	34.52
1.12728	34.52
1.14395	34.52
1.16062	34.52
1.17728	34.52
1.19395	34.53
1.21062	34.52
1.22728	34.52
1.24395	34.52
1.26062	34.52
1.27728	34.52
1.29395	34.52
1.31062	34.52
1.32728	34.52
1.34395	34.52
1.36062	34.52
1.37728	34.52
1.39395	34.52
1.41062	34.52
1.42728	34.52
1.44395	34.52
1.46062	34.52
1.47728	34.52
1.49395	34.52
1.51062	34.52
1.52728	34.52
1.54395	34.52
1.56062	34.52
1.57728	34.52
1.59395	34.52
1.61062	34.53
1.62728	34.52
1.64395	34.52
1.66062	34.52
1.67728	34.52
1.69395	34.52
1.71062	34.52
1.72728	34.52
1.74395	34.52
1.76062	34.52
1.77728	34.52
1.79395	34.52
1.81062	34.52
1.82728	34.52
1.84395	34.52
1.86062	34.52
1.87728	34.52
1.89395	34.52
1.91062	34.52
1.92728	34.52
1.94395	34.52
1.96062	34.52
1.97728	34.52
1.99395	34.52
2.01062	34.52
2.02728	34.52
2.04395	34.52
2.06062	34.52
2.07728	34.52
2.09395	34.52
2.11062	34.52
2.12728	34.52
2.14395	34.52
2.16062	34.52
2.17728	34.52
2.19395	34.52
2.21062	34.52
2.22728	34.52
2.24395	34.51
2.26062	34.52
2.27728	34.52
2.29395	34.52
2.31062	34.52
2.32728	34.52
2.34395	34.52
2.36062	34.52
2.37728	34.52
2.39395	34.52
2.41062	34.52
2.42728	34.52
2.44395	34.52
2.46062	34.52
2.47728	34.52
2.49395	34.52
2.51062	34.52
2.52728	34.52
2.54395	34.52
2.56062	34.52
2.57728	34.52
2.59395	34.52
2.61062	34.52
2.62728	34.51
2.64395	34.52
2.66062	34.52
2.67728	34.51
2.69395	34.52
2.71062	34.52
2.72728	34.52
2.74395	34.52
2.76062	34.52
2.77728	34.52
2.79395	34.52
2.81062	34.52
2.82728	34.52
2.84395	34.53
2.86062	34.52
2.87728	34.52
2.89395	34.52
2.91062	34.52
2.92728	34.52
2.94395	34.52
2.96062	34.52
2.97728	34.52
2.99395	34.52
3.01062	34.52
3.02728	34.52
3.04395	34.52
3.06062	34.52
3.07728	34.52
3.09395	34.52
3.11062	34.52
3.12728	34.52
3.14395	34.51
3.16062	34.53
3.17728	34.52
3.19395	34.52
3.21062	34.52
3.22728	34.52
3.24395	34.52
3.26062	34.52
3.27728	34.51
3.29395	34.52
3.31062	34.51
3.32728	34.52
3.34395	34.52
3.36062	34.52
3.37728	34.52
3.39395	34.52
3.41062	34.52
3.42728	34.52
3.44395	34.52
3.46062	34.51
3.47728	34.53
3.49395	34.52
3.51062	34.52
3.52728	34.52
3.54395	34.52
3.56062	34.52
3.57728	34.52
3.59395	34.52
3.61062	34.52
3.62728	34.52
3.64395	34.52
3.66062	34.52
3.67728	34.52
3.69395	34.51
3.71062	34.52
3.72728	34.52
3.74395	34.52
3.76062	34.52
3.77728	34.52
3.79395	34.52
3.81062	34.52
3.82728	34.52
3.84395	34.52
3.86062	34.52
3.87728	34.52
3.89395	34.52
3.91062	34.52
3.92728	34.52
3.94395	34.52
3.96062	34.52
3.97728	34.51
3.99395	34.53

[Status Trace (Column Flow)]
Interval(msec)	1000
# of Points	240
Start Time(min)	0.011
End Time(min)	3.994
Intensity Units	
Intensity Multiplier	1
R.Time (min)	Intensity
0.01062	5.52
0.02728	5.18
0.04395	5.47
0.06062	5.70
0.07728	5.64
0.09395	5.52
0.11062	5.52
0.12728	5.52
0.14395	5.52
0.16062	5.52
0.17728	5.52
0.19395	5.52
0.21062	5.52
0.22728	5.52
0.24395	5.52
0.26062	5.52
0.27728	5.52
0.29395	5.52
0.31062	5.52
0.32728	5.52
0.34395	5.52
0.36062	5.52
0.37728	5.52
0.39395	5.52
0.41062	5.52
0.42728	5.52
0.44395	5.52
0.46062	5.52
0.47728	5.52
0.49395	5.52
0.51062	5.52
0.52728	5.52
0.54395	5.52
0.56062	5.52
0.57728	5.52
0.59395	5.52
0.61062	5.52
0.62728	5.52
0.64395	5.52
0.66062	5.52
0.67728	5.52
0.69395	5.52
0.71062	5.52
0.72728	5.52
0.74395	5.52
0.76062	5.52
0.77728	5.52
0.79395	5.52
0.81062	5.52
0.82728	5.52
0.84395	5.52
0.86062	5.52
0.87728	5.52
0.89395	5.52
0.91062	5.52
0.92728	5.52
0.94395	5.52
0.96062	5.52
0.97728	5.52
0.99395	5.52
1.01062	5.52
1.02728	5.52
1.04395	5.52
1.06062	5.52
1.07728	5.52
1.09395	5.52
1.11062	5.52
1.12728	5.52
1.14395	5.52
1.16062	5.52
1.17728	5.52
1.19395	5.52
1.21062	5.52
1.22728	5.52
1.24395	5.52
1.26062	5.52
1.27728	5.52
1.29395	5.52
1.31062	5.52
1.32728	5.52
1.34395	5.52
1.36062	5.52
1.37728	5.52
1.39395	5.52
1.41062	5.52
1.42728	5.52
1.44395	5.52
1.46062	5.52
1.47728	5.52
1.49395	5.52
1.51062	5.52
1.52728	5.52
1.54395	5.52
1.56062	5.52
1.57728	5.52
1.59395	5.52
1.61062	5.52
1.62728	5.51
1.64395	5.51
1.66062	5.50
1.67728	5.49
1.69395	5.48
1.71062	5.47
1.72728	5.46
1.74395	5.45
1.76062	5.44
1.77728	5.43
1.79395	5.41
1.81062	5.41
1.82728	5.40
1.84395	5.39
1.86062	5.38
1.87728	5.37
1.89395	5.36
1.91062	5.35
1.92728	5.34
1.94395	5.33
1.96062	5.32
1.97728	5.31
1.99395	5.30
2.01062	5.29
2.02728	5.28
2.04395	5.27
2.06062	5.26
2.07728	5.25
2.09395	5.24
2.11062	5.23
2.12728	5.22
2.14395	5.21
2.16062	5.20
2.17728	5.19
2.19395	5.18
2.21062	5.17
2.22728	5.16
2.24395	5.16
2.26062	5.15
2.27728	5.14
2.29395	5.13
2.31062	5.12
2.32728	5.11
2.34395	5.10
2.36062	5.09
2.37728	5.09
2.39395	5.09
2.41062	5.09
2.42728	5.09
2.44395	5.09
2.46062	5.09
2.47728	5.09
2.49395	5.09
2.51062	5.08
2.52728	5.08
2.54395	5.08
2.56062	5.08
2.57728	5.08
2.59395	5.08
2.61062	5.08
2.62728	5.08
2.64395	5.08
2.66062	5.08
2.67728	5.08
2.69395	5.08
2.71062	5.08
2.72728	5.08
2.74395	5.08
2.76062	5.08
2.77728	5.08
2.79395	5.08
2.81062	5.08
2.82728	5.08
2.84395	5.08
2.86062	5.08
2.87728	5.08
2.89395	5.08
2.91062	5.08
2.92728	5.08
2.94395	5.08
2.96062	5.08
2.97728	5.08
2.99395	5.08
3.01062	5.08
3.02728	5.08
3.04395	5.08
3.06062	5.08
3.07728	5.08
3.09395	5.08
3.11062	5.08
3.12728	5.08
3.14395	5.08
3.16062	5.08
3.17728	5.08
3.19395	5.08
3.21062	5.08
3.22728	5.08
3.24395	5.08
3.26062	5.08
3.27728	5.08
3.29395	5.08
3.31062	5.07
3.32728	5.07
3.34395	5.07
3.36062	5.07
3.37728	5.08
3.39395	5.08
3.41062	5.08
3.42728	5.08
3.44395	5.08
3.46062	5.08
3.47728	5.08
3.49395	5.08
3.51062	5.08
3.52728	5.08
3.54395	5.08
3.56062	5.08
3.57728	5.08
3.59395	5.08
3.61062	5.08
3.62728	5.08
3.64395	5.08
3.66062	5.08
3.67728	5.08
3.69395	5.08
3.71062	5.08
3.72728	5.08
3.74395	5.08
3.76062	5.08
3.77728	5.08
3.79395	5.08
3.81062	5.08
3.82728	5.08
3.84395	5.08
3.86062	5.08
3.87728	5.08
3.89395	5.08
3.91062	5.08
3.92728	5.08
3.94395	5.08
3.96062	5.08
3.97728	5.08
3.99395	5.08

[Status Trace (Linear Velocity)]
Interval(msec)	1000
# of Points	240
Start Time(min)	0.011
End Time(min)	3.994
Intensity Units	
Intensity Multiplier	1
R.Time (min)	Intensity
0.01062	39.01
0.02728	37.08
0.04395	38.71
0.06062	40.02
0.07728	39.71
0.09395	39.01
0.11062	39.00
0.12728	39.02
0.14395	39.02
0.16062	39.01
0.17728	39.01
0.19395	39.01
0.21062	39.01
0.22728	39.01
0.24395	39.01
0.26062	39.01
0.27728	39.01
0.29395	39.01
0.31062	39.01
0.32728	39.01
0.34395	39.01
0.36062	39.01
0.37728	39.02
0.39395	39.01
0.41062	39.01
0.42728	39.01
0.44395	39.01
0.46062	39.01
0.47728	39.01
0.49395	39.01
0.51062	39.02
0.52728	39.02
0.54395	39.01
0.56062	39.01
0.57728	39.01
0.59395	39.01
0.61062	39.02
0.62728	39.02
0.64395	39.02
0.66062	39.02
0.67728	39.02
0.69395	39.02
0.71062	39.02
0.72728	39.02
0.74395	39.02
0.76062	39.01
0.77728	39.02
0.79395	39.02
0.81062	39.02
0.82728	39.02
0.84395	39.02
0.86062	39.02
0.87728	39.02
0.89395	39.02
0.91062	39.02
0.92728	39.02
0.94395	39.02
0.96062	39.02
0.97728	39.02
0.99395	39.02
1.01062	39.02
1.02728	39.02
1.04395	39.02
1.06062	39.02
1.07728	39.02
1.09395	39.02
1.11062	39.02
1.12728	39.02
1.14395	39.02
1.16062	39.01
1.17728	39.01
1.19395	39.02
1.21062	39.02
1.22728	39.02
1.24395	39.02
1.26062	39.02
1.27728	39.02
1.29395	39.02
1.31062	39.02
1.32728	39.02
1.34395	39.02
1.36062	39.02
1.37728	39.02
1.39395	39.02
1.41062	39.02
1.42728	39.02
1.44395	39.02
1.46062	39.02
1.47728	39.02
1.49395	39.02
1.51062	39.02
1.52728	39.01
1.54395	39.02
1.56062	39.02
1.57728	39.02
1.59395	39.02
1.61062	39.01
1.62728	39.00
1.64395	38.98
1.66062	38.96
1.67728	38.92
1.69395	38.88
1.71062	38.85
1.72728	38.82
1.74395	38.79
1.76062	38.76
1.77728	38.73
1.79395	38.69
1.81062	38.66
1.82728	38.63
1.84395	38.60
1.86062	38.57
1.87728	38.54
1.89395	38.51
1.91062	38.48
1.92728	38.45
1.94395	38.42
1.96062	38.39
1.97728	38.36
1.99395	38.33
2.01062	38.30
2.02728	38.27
2.04395	38.24
2.06062	38.21
2.07728	38.18
2.09395	38.15
2.11062	38.12
2.12728	38.09
2.14395	38.06
2.16062	38.03
2.17728	38.00
2.19395	37.97
2.21062	37.94
2.22728	37.91
2.24395	37.88
2.26062	37.85
2.27728	37.82
2.29395	37.79
2.31062	37.76
2.32728	37.73
2.34395	37.70
2.36062	37.68
2.37728	37.66
2.39395	37.65
2.41062	37.66
2.42728	37.66
2.44395	37.66
2.46062	37.66
2.47728	37.66
2.49395	37.66
2.51062	37.65
2.52728	37.64
2.54395	37.65
2.56062	37.65
2.57728	37.65
2.59395	37.65
2.61062	37.65
2.62728	37.65
2.64395	37.65
2.66062	37.65
2.67728	37.65
2.69395	37.65
2.71062	37.64
2.72728	37.65
2.74395	37.65
2.76062	37.64
2.77728	37.64
2.79395	37.64
2.81062	37.64
2.82728	37.64
2.84395	37.64
2.86062	37.64
2.87728	37.64
2.89395	37.64
2.91062	37.64
2.92728	37.64
2.94395	37.64
2.96062	37.64
2.97728	37.64
2.99395	37.63
3.01062	37.63
3.02728	37.63
3.04395	37.63
3.06062	37.63
3.07728	37.63
3.09395	37.63
3.11062	37.63
3.12728	37.63
3.14395	37.63
3.16062	37.63
3.17728	37.63
3.19395	37.63
3.21062	37.63
3.22728	37.63
3.24395	37.63
3.26062	37.63
3.27728	37.62
3.29395	37.62
3.31062	37.62
3.32728	37.62
3.34395	37.62
3.36062	37.62
3.37728	37.62
3.39395	37.63
3.41062	37.63
3.42728	37.63
3.44395	37.63
3.46062	37.63
3.47728	37.63
3.49395	37.63
3.51062	37.63
3.52728	37.63
3.54395	37.63
3.56062	37.63
3.57728	37.63
3.59395	37.63
3.61062	37.63
3.62728	37.63
3.64395	37.63
3.66062	37.63
3.67728	37.63
3.69395	37.63
3.71062	37.63
3.72728	37.63
3.74395	37.63
3.76062	37.63
3.77728	37.63
3.79395	37.63
3.81062	37.63
3.82728	37.63
3.84395	37.63
3.86062	37.63
3.87728	37.63
3.89395	37.62
3.91062	37.62
3.92728	37.63
3.94395	37.63
3.96062	37.63
3.97728	37.63
3.99395	37.63

