[Header]
Application Name	LabSolutions
Version	5.110
Data File Name	C:\Users\User\Desktop\GC Analyses\Jack\Nachusa Grasslands Sampling\T2 Timepoint July 12th\T2_07122022_037.gcd
Output Date	3/14/2023
Output Time	3:42:32 PM

[File Information]
Type	Data File
Generated	3/10/2023 4:29:02 PM
Generated by	System Administrator
Modified	3/10/2023 4:35:55 PM
Modified by	System Administrator

[Sample Information]
Operator Name	System Administrator
Acquired	3/10/2023 4:31:55 PM
Sample Type	0:Unknown
Level	0
Sample Name	037
Sample ID	037
ISTD Amount1	1
ISTD Amount2	1
ISTD Amount3	1
ISTD Amount4	1
ISTD Amount5	1
ISTD Amount6	1
ISTD Amount7	1
ISTD Amount8	1
ISTD Amount9	1
ISTD Amount10	1
ISTD Amount11	1
ISTD Amount12	1
ISTD Amount13	1
ISTD Amount14	1
ISTD Amount15	1
ISTD Amount16	1
ISTD Amount17	1
ISTD Amount18	1
ISTD Amount19	1
ISTD Amount20	1
ISTD Amount21	1
ISTD Amount22	1
ISTD Amount23	1
ISTD Amount24	1
ISTD Amount25	1
ISTD Amount26	1
ISTD Amount27	1
ISTD Amount28	1
ISTD Amount29	1
ISTD Amount30	1
ISTD Amount31	1
ISTD Amount32	1
Sample Amount	1
Dilution Factor	1
Vial#	36
Injection Volume	1
Injection Count	1
Bar Code	

[Original Files]
Data File	C:\Users\User\Desktop\GC Analyses\Jack\Nachusa Grasslands Sampling\T1 Timepoint July 12th\T2_07122022_037.gcd
Method File	C:\LabSolutions\Data\GHG_4min_2022\ghg3_togas_w_acet_4 min_new_int.gcm
Batch File	C:\LabSolutions\Data\AutoSamplerTesting\T2_07122022.gcb
Report Format File	c:\LabSolutions\System\DEFAULT.lsr

[File Description]


[Configuration]
Instrument Name	C0B7VH3-Instrument1
Instrument #	1
Line #	1
# of Detectors	3
Detector ID	DET#1	DET#2	DET#3
Detector Name	FID	PTCD	ECD
# of Channels	1	1	1

[Peak Table(Ch1)]
# of Peaks	3
Peak#	R.Time	I.Time	F.Time	Area	Height	A/H	Conc.	Mark	ID#	Name	k'	Plate #	Plate Ht.	Tailing	Resolution	Sep.Factor	Area Ratio	Height Ratio	Conc. %	Norm Conc.
1	1.476	1.439	1.538	28222	13494	2.091	199.246	   	1	CO	0.000	9353	16.037	1.281	0.000	0.000	0	0	31.926	31.926
2	1.567	1.538	1.626	4376	2150	2.035	84.619	 V 	2	CH4	0.062	10241	14.646	0.000	1.491	0.000	0	0	13.559	13.559
3	1.996	1.949	2.510	1355574	649948	2.086	340.212	   	3	CO2	0.353	17547	8.549	1.244	7.019	5.680	0	0	54.514	54.514

[Peak Table(Ch2)]
# of Peaks	0

[Peak Table(Ch3)]
# of Peaks	5
Peak#	R.Time	I.Time	F.Time	Area	Height	A/H	Conc.	Mark	ID#	Name	k'	Plate #	Plate Ht.	Tailing	Resolution	Sep.Factor	Area Ratio	Height Ratio	Conc. %	Norm Conc.
1	2.462	2.268	2.513	2194	622	3.528	0.000	   			0.000	9470	15.840	0.000	0.000	0.000	0	0	0.000	0.000
2	2.535	2.513	2.634	1333	326	4.085	0.000	 V 			0.030	4802	31.238	0.000	0.592	0.000	0	0	0.000	0.000
3	2.656	2.634	2.719	279	86	3.251	0.000	 V 			0.079	4823	31.102	0.000	0.808	2.650	0	0	0.000	0.000
4	2.876	2.788	2.997	18450	5004	3.687	0.471	   	1	N2O	0.168	13506	11.106	1.564	1.746	2.132	0	0	100.000	100.000
5	3.236	2.997	3.995	14450	378	38.231	0.000	 V 	2	SF6	0.314	191	786.294	0.000	0.694	1.867	0	0	0.000	0.000

[Compound Results(Ch1)]
# of IDs	6
ID#	Name	R.Time	Area	Height	Conc.	Curve	3rd	2nd	1st	Constant	Area Ratio	Height Ratio	Conc. %	Norm Conc.
1	CO	1.476	28222	13494	199.246	Linear	0.000000e+00	0.000000e+00	1.416423e+002	0.000000e+00	0	0	31.926	31.926
2	CH4	1.567	4376	2150	84.619	Linear	0.000000e+00	0.000000e+00	5.171738e+001	0.000000e+00	0	0	13.559	13.559
3	CO2	1.996	1355574	649948	340.212	Linear	0.000000e+00	0.000000e+00	3.984494e+003	0.000000e+00	0	0	54.514	54.514
4	Ethylene	0.000	0	0	0.000	Linear	0.000000e+00	0.000000e+00	0.000000e+00	0.000000e+00	0	0	0.000	0.000
5	Acetylene	0.000	0	0	0.000	Linear	0.000000e+00	0.000000e+00	0.000000e+00	0.000000e+00	0	0	0.000	0.000
6	Ethane	0.000	0	0	0.000	Linear	0.000000e+00	0.000000e+00	0.000000e+00	0.000000e+00	0	0	0.000	0.000

[Compound Results(Ch2)]
# of IDs	5
ID#	Name	R.Time	Area	Height	Conc.	Curve	3rd	2nd	1st	Constant	Area Ratio	Height Ratio	Conc. %	Norm Conc.
1	Hydrogen	0.000	0	0	0.000	Linear	0.000000e+00	0.000000e+00	0.000000e+00	0.000000e+00	0	0	0.000	0.000
2	Oxygen	0.000	0	0	0.000	Linear	0.000000e+00	0.000000e+00	0.000000e+00	0.000000e+00	0	0	0.000	0.000
3	Nitrogen	0.000	0	0	0.000	Linear	0.000000e+00	0.000000e+00	0.000000e+00	0.000000e+00	0	0	0.000	0.000
4	Methane	0.000	0	0	0.000	Linear	0.000000e+00	0.000000e+00	0.000000e+00	0.000000e+00	0	0	0.000	0.000
5	Carbon Monoxide	0.000	0	0	0.000	Linear	0.000000e+00	0.000000e+00	0.000000e+00	0.000000e+00	0	0	0.000	0.000

[Compound Results(Ch3)]
# of IDs	2
ID#	Name	R.Time	Area	Height	Conc.	Curve	3rd	2nd	1st	Constant	Area Ratio	Height Ratio	Conc. %	Norm Conc.
1	N2O	2.876	18450	5004	0.471	Linear	0.000000e+00	0.000000e+00	3.915173e+004	0.000000e+00	0	0	100.000	100.000
2	SF6	3.236	14450	378	0.000	Linear	0.000000e+00	0.000000e+00	0.000000e+00	0.000000e+00	0	0	0.000	0.000

[Group Results(Ch1)]
# of Groups	0

[Group Results(Ch2)]
# of Groups	0

[Group Results(Ch3)]
# of Groups	0

[Chromatogram (Ch1)]
Interval(msec)	220
# of Points	1091
Start Time(min)	0.002
End Time(min)	3.998
R.Time (min)	Intensity
0.00167	20
0.00533	25
0.00900	33
0.01267	43
0.01633	52
0.02000	52
0.02367	49
0.02733	47
0.03100	49
0.03467	55
0.03833	61
0.04200	64
0.04567	69
0.04933	75
0.05300	81
0.05667	82
0.06033	79
0.06400	73
0.06767	66
0.07133	61
0.07500	59
0.07867	58
0.08233	57
0.08600	54
0.08967	55
0.09333	61
0.09700	63
0.10067	60
0.10433	54
0.10800	47
0.11167	38
0.11533	29
0.11900	23
0.12267	19
0.12633	15
0.13000	11
0.13367	7
0.13733	3
0.14100	-1
0.14467	-5
0.14833	-6
0.15200	-7
0.15567	-12
0.15933	-12
0.16300	-6
0.16667	-4
0.17033	-3
0.17400	-2
0.17767	-4
0.18133	-10
0.18500	-11
0.18867	-5
0.19233	3
0.19600	7
0.19967	8
0.20333	4
0.20700	-0
0.21067	-3
0.21433	-1
0.21800	-1
0.22167	-5
0.22533	-7
0.22900	-3
0.23267	4
0.23633	8
0.24000	8
0.24367	9
0.24733	12
0.25100	14
0.25467	13
0.25833	12
0.26200	10
0.26567	5
0.26933	-2
0.27300	-9
0.27667	-13
0.28033	-17
0.28400	-13
0.28767	-4
0.29133	1
0.29500	1
0.29867	-8
0.30233	-16
0.30600	-21
0.30967	-23
0.31333	-22
0.31700	-22
0.32067	-21
0.32433	-15
0.32800	-12
0.33167	-13
0.33533	-14
0.33900	-11
0.34267	-7
0.34633	-4
0.35000	-4
0.35367	-11
0.35733	-16
0.36100	-19
0.36467	-17
0.36833	-12
0.37200	1
0.37567	16
0.37933	26
0.38300	30
0.38667	28
0.39033	17
0.39400	4
0.39767	-10
0.40133	-20
0.40500	-20
0.40867	-15
0.41233	-9
0.41600	-6
0.41967	-2
0.42333	4
0.42700	13
0.43067	21
0.43433	19
0.43800	8
0.44167	-4
0.44533	-14
0.44900	-23
0.45267	-32
0.45633	-37
0.46000	-39
0.46367	-42
0.46733	-43
0.47100	-37
0.47467	-28
0.47833	-23
0.48200	-21
0.48567	-23
0.48933	-25
0.49300	-27
0.49667	-24
0.50033	-18
0.50400	-17
0.50767	-18
0.51133	-18
0.51500	-18
0.51867	-19
0.52233	-22
0.52600	-25
0.52967	-28
0.53333	-32
0.53700	-32
0.54067	-26
0.54433	-16
0.54800	-9
0.55167	-8
0.55533	-7
0.55900	-10
0.56267	-17
0.56633	-26
0.57000	-34
0.57367	-37
0.57733	-41
0.58100	-43
0.58467	-40
0.58833	-33
0.59200	-27
0.59567	-23
0.59933	-19
0.60300	-16
0.60667	-14
0.61033	-13
0.61400	-19
0.61767	-23
0.62133	-23
0.62500	-16
0.62867	-10
0.63233	-8
0.63600	-7
0.63967	-12
0.64333	-18
0.64700	-24
0.65067	-27
0.65433	-25
0.65800	-23
0.66167	-23
0.66533	-22
0.66900	-23
0.67267	-23
0.67633	-25
0.68000	-22
0.68367	-18
0.68733	-16
0.69100	-21
0.69467	-23
0.69833	-24
0.70200	-29
0.70567	-35
0.70933	-38
0.71300	-39
0.71667	-38
0.72033	-36
0.72400	-31
0.72767	-22
0.73133	-14
0.73500	-10
0.73867	-7
0.74233	-4
0.74600	-3
0.74967	-7
0.75333	-12
0.75700	-16
0.76067	-18
0.76433	-22
0.76800	-26
0.77167	-27
0.77533	-26
0.77900	-25
0.78267	-27
0.78633	-34
0.79000	-43
0.79367	-51
0.79733	-55
0.80100	-56
0.80467	-54
0.80833	-52
0.81200	-49
0.81567	-43
0.81933	-42
0.82300	-41
0.82667	-38
0.83033	-35
0.83400	-29
0.83767	-22
0.84133	-18
0.84500	-16
0.84867	-16
0.85233	-16
0.85600	-17
0.85967	-19
0.86333	-22
0.86700	-25
0.87067	-29
0.87433	-32
0.87800	-32
0.88167	-31
0.88533	-30
0.88900	-28
0.89267	-26
0.89633	-24
0.90000	-23
0.90367	-24
0.90733	-26
0.91100	-27
0.91467	-24
0.91833	-21
0.92200	-18
0.92567	-21
0.92933	-25
0.93300	-29
0.93667	-35
0.94033	-43
0.94400	-47
0.94767	-50
0.95133	-55
0.95500	-59
0.95867	-59
0.96233	-48
0.96600	-36
0.96967	-32
0.97333	-30
0.97700	-31
0.98067	-37
0.98433	-39
0.98800	-37
0.99167	-41
0.99533	-49
0.99900	-54
1.00267	-57
1.00633	-60
1.01000	-59
1.01367	-54
1.01733	-53
1.02100	-53
1.02467	-54
1.02833	-54
1.03200	-54
1.03567	-53
1.03933	-53
1.04300	-55
1.04667	-54
1.05033	-51
1.05400	-53
1.05767	-64
1.06133	-72
1.06500	-76
1.06867	-79
1.07233	-78
1.07600	-76
1.07967	-74
1.08333	-74
1.08700	-73
1.09067	-69
1.09433	-69
1.09800	-66
1.10167	-61
1.10533	-59
1.10900	-60
1.11267	-62
1.11633	-64
1.12000	-61
1.12367	-54
1.12733	-45
1.13100	-37
1.13467	-33
1.13833	-35
1.14200	-44
1.14567	-54
1.14933	-62
1.15300	-70
1.15667	-74
1.16033	-75
1.16400	-79
1.16767	-85
1.17133	-87
1.17500	-85
1.17867	-80
1.18233	-76
1.18600	-74
1.18967	-71
1.19333	-63
1.19700	-55
1.20067	-53
1.20433	-55
1.20800	-61
1.21167	-69
1.21533	-75
1.21900	-77
1.22267	-79
1.22633	-82
1.23000	-84
1.23367	-83
1.23733	-80
1.24100	-78
1.24467	-77
1.24833	-80
1.25200	-83
1.25567	-81
1.25933	-73
1.26300	-63
1.26667	-60
1.27033	-61
1.27400	-67
1.27767	-71
1.28133	-69
1.28500	-66
1.28867	-68
1.29233	-74
1.29600	-77
1.29967	-80
1.30333	-86
1.30700	-92
1.31067	-92
1.31433	-87
1.31800	-86
1.32167	-93
1.32533	-101
1.32900	-100
1.33267	-92
1.33633	-85
1.34000	-83
1.34367	-80
1.34733	-77
1.35100	-76
1.35467	-77
1.35833	-81
1.36200	-88
1.36567	-88
1.36933	-81
1.37300	-77
1.37667	-77
1.38033	-77
1.38400	-74
1.38767	-74
1.39133	-78
1.39500	-83
1.39867	-87
1.40233	-95
1.40600	-104
1.40967	-114
1.41333	-123
1.41700	-126
1.42067	-119
1.42433	-110
1.42800	-108
1.43167	-106
1.43533	-103
1.43900	-79
1.44267	25
1.44633	294
1.45000	978
1.45367	2480
1.45733	4794
1.46100	7432
1.46467	9864
1.46833	11775
1.47200	13005
1.47567	13420
1.47933	12925
1.48300	11587
1.48667	9699
1.49033	7654
1.49400	5774
1.49767	4225
1.50133	3039
1.50500	2169
1.50867	1544
1.51233	1101
1.51600	787
1.51967	567
1.52333	419
1.52700	317
1.53067	243
1.53433	192
1.53800	174
1.54167	227
1.54533	408
1.54900	729
1.55267	1123
1.55633	1503
1.56000	1809
1.56367	2011
1.56733	2092
1.57100	2024
1.57467	1803
1.57833	1481
1.58200	1134
1.58567	824
1.58933	574
1.59300	382
1.59667	240
1.60033	141
1.60400	75
1.60767	29
1.61133	-5
1.61500	-27
1.61867	-39
1.62233	-44
1.62600	-48
1.62967	-49
1.63333	-53
1.63700	-57
1.64067	-63
1.64433	-67
1.64800	-68
1.65167	-64
1.65533	-61
1.65900	-63
1.66267	-67
1.66633	-71
1.67000	-72
1.67367	-72
1.67733	-72
1.68100	-70
1.68467	-70
1.68833	-72
1.69200	-71
1.69567	-68
1.69933	-63
1.70300	-61
1.70667	-66
1.71033	-72
1.71400	-77
1.71767	-81
1.72133	-84
1.72500	-87
1.72867	-91
1.73233	-98
1.73600	-102
1.73967	-103
1.74333	-103
1.74700	-104
1.75067	-106
1.75433	-109
1.75800	-111
1.76167	-110
1.76533	-104
1.76900	-96
1.77267	-90
1.77633	-88
1.78000	-86
1.78367	-85
1.78733	-86
1.79100	-86
1.79467	-84
1.79833	-82
1.80200	-82
1.80567	-84
1.80933	-86
1.81300	-85
1.81667	-87
1.82033	-93
1.82400	-100
1.82767	-106
1.83133	-108
1.83500	-100
1.83867	-84
1.84233	-70
1.84600	-65
1.84967	-64
1.85333	-67
1.85700	-74
1.86067	-87
1.86433	-100
1.86800	-112
1.87167	-119
1.87533	-123
1.87900	-125
1.88267	-125
1.88633	-121
1.89000	-116
1.89367	-115
1.89733	-113
1.90100	-111
1.90467	-109
1.90833	-103
1.91200	-97
1.91567	-99
1.91933	-101
1.92300	-102
1.92667	-101
1.93033	-96
1.93400	-89
1.93767	-88
1.94133	-93
1.94500	-97
1.94867	-92
1.95233	-61
1.95600	130
1.95967	1135
1.96333	5369
1.96700	18928
1.97067	52369
1.97433	116647
1.97800	214491
1.98167	334877
1.98533	457233
1.98900	560312
1.99267	627772
1.99633	649890
2.00000	624970
2.00367	560296
2.00733	470521
2.01100	372832
2.01467	281546
2.01833	204958
2.02200	145523
2.02567	101894
2.02933	71075
2.03300	49851
2.03667	35450
2.04033	25739
2.04400	19183
2.04767	14726
2.05133	11656
2.05500	9501
2.05867	7952
2.06233	6813
2.06600	5948
2.06967	5274
2.07333	4740
2.07700	4306
2.08067	3946
2.08433	3644
2.08800	3385
2.09167	3157
2.09533	2952
2.09900	2773
2.10267	2617
2.10633	2479
2.11000	2353
2.11367	2238
2.11733	2132
2.12100	2034
2.12467	1942
2.12833	1854
2.13200	1772
2.13567	1695
2.13933	1623
2.14300	1556
2.14667	1495
2.15033	1442
2.15400	1391
2.15767	1340
2.16133	1293
2.16500	1250
2.16867	1209
2.17233	1177
2.17600	1149
2.17967	1121
2.18333	1092
2.18700	1060
2.19067	1031
2.19433	1009
2.19800	989
2.20167	966
2.20533	938
2.20900	908
2.21267	882
2.21633	862
2.22000	844
2.22367	827
2.22733	813
2.23100	800
2.23467	786
2.23833	768
2.24200	751
2.24567	739
2.24933	729
2.25300	720
2.25667	709
2.26033	700
2.26400	688
2.26767	671
2.27133	647
2.27500	624
2.27867	606
2.28233	594
2.28600	580
2.28967	568
2.29333	559
2.29700	550
2.30067	540
2.30433	532
2.30800	527
2.31167	521
2.31533	515
2.31900	507
2.32267	504
2.32633	507
2.33000	509
2.33367	507
2.33733	500
2.34100	490
2.34467	478
2.34833	466
2.35200	455
2.35567	445
2.35933	437
2.36300	430
2.36667	423
2.37033	416
2.37400	409
2.37767	403
2.38133	401
2.38500	403
2.38867	404
2.39233	406
2.39600	408
2.39967	404
2.40333	400
2.40700	393
2.41067	381
2.41433	370
2.41800	362
2.42167	357
2.42533	352
2.42900	348
2.43267	347
2.43633	348
2.44000	349
2.44367	346
2.44733	345
2.45100	351
2.45467	359
2.45833	365
2.46200	367
2.46567	364
2.46933	358
2.47300	348
2.47667	335
2.48033	323
2.48400	314
2.48767	310
2.49133	309
2.49500	311
2.49867	315
2.50233	317
2.50600	317
2.50967	318
2.51333	317
2.51700	313
2.52067	309
2.52433	308
2.52800	308
2.53167	309
2.53533	313
2.53900	317
2.54267	318
2.54633	314
2.55000	307
2.55367	301
2.55733	290
2.56100	278
2.56467	270
2.56833	268
2.57200	271
2.57567	273
2.57933	276
2.58300	278
2.58667	280
2.59033	280
2.59400	282
2.59767	284
2.60133	286
2.60500	287
2.60867	287
2.61233	287
2.61600	282
2.61967	277
2.62333	273
2.62700	268
2.63067	266
2.63433	269
2.63800	274
2.64167	279
2.64533	280
2.64900	279
2.65267	277
2.65633	277
2.66000	279
2.66367	279
2.66733	278
2.67100	275
2.67467	270
2.67833	263
2.68200	261
2.68567	263
2.68933	266
2.69300	267
2.69667	268
2.70033	269
2.70400	269
2.70767	263
2.71133	257
2.71500	255
2.71867	255
2.72233	256
2.72600	261
2.72967	270
2.73333	275
2.73700	275
2.74067	273
2.74433	274
2.74800	274
2.75167	275
2.75533	274
2.75900	272
2.76267	271
2.76633	272
2.77000	274
2.77367	274
2.77733	276
2.78100	280
2.78467	279
2.78833	281
2.79200	286
2.79567	286
2.79933	284
2.80300	279
2.80667	275
2.81033	270
2.81400	267
2.81767	266
2.82133	265
2.82500	266
2.82867	271
2.83233	273
2.83600	275
2.83967	269
2.84333	258
2.84700	250
2.85067	250
2.85433	254
2.85800	257
2.86167	260
2.86533	264
2.86900	267
2.87267	271
2.87633	273
2.88000	274
2.88367	277
2.88733	276
2.89100	270
2.89467	267
2.89833	266
2.90200	273
2.90567	283
2.90933	290
2.91300	291
2.91667	292
2.92033	290
2.92400	287
2.92767	284
2.93133	284
2.93500	284
2.93867	286
2.94233	287
2.94600	287
2.94967	283
2.95333	273
2.95700	264
2.96067	255
2.96433	252
2.96800	254
2.97167	258
2.97533	269
2.97900	278
2.98267	279
2.98633	280
2.99000	279
2.99367	278
2.99733	282
3.00100	288
3.00467	295
3.00833	295
3.01200	290
3.01567	286
3.01933	285
3.02300	288
3.02667	290
3.03033	288
3.03400	281
3.03767	274
3.04133	266
3.04500	263
3.04867	257
3.05233	254
3.05600	255
3.05967	256
3.06333	258
3.06700	258
3.07067	259
3.07433	263
3.07800	271
3.08167	279
3.08533	281
3.08900	277
3.09267	271
3.09633	268
3.10000	264
3.10367	264
3.10733	264
3.11100	267
3.11467	272
3.11833	283
3.12200	294
3.12567	305
3.12933	308
3.13300	307
3.13667	302
3.14033	292
3.14400	280
3.14767	269
3.15133	261
3.15500	256
3.15867	254
3.16233	249
3.16600	244
3.16967	244
3.17333	246
3.17700	251
3.18067	258
3.18433	263
3.18800	267
3.19167	267
3.19533	262
3.19900	255
3.20267	251
3.20633	249
3.21000	248
3.21367	251
3.21733	260
3.22100	268
3.22467	272
3.22833	272
3.23200	267
3.23567	264
3.23933	265
3.24300	267
3.24667	269
3.25033	272
3.25400	273
3.25767	266
3.26133	256
3.26500	245
3.26867	238
3.27233	236
3.27600	240
3.27967	243
3.28333	246
3.28700	248
3.29067	249
3.29433	250
3.29800	250
3.30167	250
3.30533	252
3.30900	256
3.31267	256
3.31633	250
3.32000	240
3.32367	230
3.32733	225
3.33100	227
3.33467	234
3.33833	239
3.34200	240
3.34567	242
3.34933	247
3.35300	251
3.35667	254
3.36033	255
3.36400	257
3.36767	259
3.37133	258
3.37500	254
3.37867	249
3.38233	249
3.38600	251
3.38967	250
3.39333	247
3.39700	246
3.40067	249
3.40433	251
3.40800	247
3.41167	242
3.41533	238
3.41900	237
3.42267	237
3.42633	236
3.43000	233
3.43367	227
3.43733	224
3.44100	225
3.44467	230
3.44833	236
3.45200	239
3.45567	240
3.45933	239
3.46300	239
3.46667	239
3.47033	236
3.47400	231
3.47767	224
3.48133	216
3.48500	211
3.48867	209
3.49233	211
3.49600	218
3.49967	220
3.50333	219
3.50700	224
3.51067	234
3.51433	241
3.51800	237
3.52167	230
3.52533	226
3.52900	227
3.53267	229
3.53633	226
3.54000	223
3.54367	221
3.54733	219
3.55100	215
3.55467	212
3.55833	209
3.56200	205
3.56567	204
3.56933	206
3.57300	208
3.57667	208
3.58033	208
3.58400	207
3.58767	207
3.59133	207
3.59500	210
3.59867	215
3.60233	218
3.60600	217
3.60967	214
3.61333	217
3.61700	223
3.62067	227
3.62433	232
3.62800	239
3.63167	242
3.63533	233
3.63900	220
3.64267	209
3.64633	203
3.65000	198
3.65367	192
3.65733	187
3.66100	186
3.66467	190
3.66833	195
3.67200	200
3.67567	201
3.67933	201
3.68300	197
3.68667	191
3.69033	186
3.69400	184
3.69767	184
3.70133	185
3.70500	186
3.70867	188
3.71233	187
3.71600	189
3.71967	192
3.72333	194
3.72700	195
3.73067	197
3.73433	201
3.73800	204
3.74167	205
3.74533	204
3.74900	202
3.75267	199
3.75633	195
3.76000	194
3.76367	191
3.76733	188
3.77100	190
3.77467	191
3.77833	190
3.78200	189
3.78567	189
3.78933	190
3.79300	192
3.79667	194
3.80033	194
3.80400	195
3.80767	196
3.81133	196
3.81500	191
3.81867	184
3.82233	181
3.82600	184
3.82967	189
3.83333	189
3.83700	185
3.84067	181
3.84433	181
3.84800	185
3.85167	190
3.85533	193
3.85900	197
3.86267	203
3.86633	202
3.87000	193
3.87367	185
3.87733	179
3.88100	178
3.88467	181
3.88833	182
3.89200	183
3.89567	182
3.89933	178
3.90300	173
3.90667	168
3.91033	166
3.91400	164
3.91767	164
3.92133	166
3.92500	170
3.92867	172
3.93233	171
3.93600	171
3.93967	172
3.94333	173
3.94700	174
3.95067	176
3.95433	178
3.95800	175
3.96167	170
3.96533	169
3.96900	171
3.97267	175
3.97633	175
3.98000	171
3.98367	166
3.98733	163
3.99100	163
3.99467	167
3.99833	173

[Chromatogram (Ch2)]
Interval(msec)	220
# of Points	1091
Start Time(min)	0.002
End Time(min)	3.998
R.Time (min)	Intensity
0.00167	0
0.00533	0
0.00900	0
0.01267	0
0.01633	0
0.02000	-0
0.02367	-0
0.02733	-0
0.03100	-0
0.03467	-1
0.03833	-1
0.04200	-1
0.04567	-1
0.04933	-1
0.05300	-1
0.05667	-2
0.06033	-2
0.06400	-2
0.06767	-2
0.07133	-2
0.07500	-3
0.07867	-3
0.08233	-3
0.08600	-3
0.08967	-3
0.09333	-3
0.09700	-2
0.10067	-2
0.10433	-2
0.10800	-2
0.11167	-2
0.11533	-2
0.11900	-2
0.12267	-2
0.12633	-2
0.13000	-2
0.13367	-2
0.13733	-2
0.14100	-2
0.14467	-2
0.14833	-2
0.15200	-2
0.15567	-2
0.15933	-2
0.16300	-2
0.16667	-2
0.17033	-2
0.17400	-2
0.17767	-2
0.18133	-1
0.18500	-1
0.18867	-1
0.19233	-1
0.19600	-1
0.19967	-0
0.20333	-0
0.20700	-0
0.21067	-0
0.21433	-0
0.21800	-0
0.22167	-1
0.22533	-1
0.22900	-1
0.23267	-1
0.23633	-1
0.24000	-1
0.24367	-2
0.24733	-2
0.25100	-2
0.25467	-2
0.25833	-2
0.26200	-2
0.26567	-2
0.26933	-2
0.27300	-1
0.27667	-1
0.28033	-1
0.28400	-1
0.28767	-1
0.29133	-0
0.29500	0
0.29867	0
0.30233	0
0.30600	0
0.30967	0
0.31333	0
0.31700	0
0.32067	0
0.32433	-0
0.32800	-1
0.33167	-1
0.33533	-1
0.33900	-1
0.34267	-1
0.34633	-1
0.35000	-2
0.35367	-2
0.35733	-2
0.36100	-2
0.36467	-2
0.36833	-2
0.37200	-2
0.37567	-1
0.37933	-1
0.38300	-1
0.38667	-0
0.39033	-0
0.39400	-0
0.39767	-0
0.40133	-0
0.40500	-1
0.40867	-1
0.41233	-1
0.41600	-1
0.41967	-1
0.42333	-1
0.42700	-1
0.43067	-2
0.43433	-2
0.43800	-2
0.44167	-1
0.44533	-1
0.44900	-1
0.45267	-1
0.45633	-0
0.46000	-0
0.46367	-0
0.46733	-0
0.47100	-0
0.47467	-1
0.47833	-1
0.48200	-1
0.48567	-2
0.48933	-2
0.49300	-2
0.49667	-2
0.50033	-1
0.50400	-1
0.50767	-1
0.51133	-1
0.51500	-0
0.51867	-0
0.52233	-0
0.52600	-1
0.52967	-1
0.53333	-1
0.53700	-1
0.54067	-1
0.54433	-1
0.54800	-1
0.55167	-1
0.55533	-2
0.55900	-2
0.56267	-2
0.56633	-2
0.57000	-2
0.57367	-2
0.57733	-2
0.58100	-1
0.58467	-1
0.58833	-1
0.59200	-1
0.59567	-1
0.59933	-1
0.60300	-1
0.60667	-2
0.61033	-2
0.61400	-2
0.61767	-2
0.62133	-2
0.62500	-2
0.62867	-2
0.63233	-2
0.63600	-1
0.63967	-1
0.64333	-1
0.64700	-1
0.65067	-1
0.65433	-1
0.65800	-1
0.66167	-2
0.66533	-2
0.66900	-2
0.67267	-2
0.67633	-2
0.68000	-2
0.68367	-2
0.68733	-1
0.69100	-1
0.69467	-1
0.69833	-1
0.70200	-0
0.70567	-0
0.70933	-0
0.71300	-0
0.71667	0
0.72033	0
0.72400	0
0.72767	0
0.73133	0
0.73500	0
0.73867	0
0.74233	0
0.74600	0
0.74967	-0
0.75333	-0
0.75700	-0
0.76067	-0
0.76433	-1
0.76800	-1
0.77167	-1
0.77533	-1
0.77900	-1
0.78267	-1
0.78633	-1
0.79000	-1
0.79367	-1
0.79733	-1
0.80100	-1
0.80467	-1
0.80833	-1
0.81200	-1
0.81567	-1
0.81933	-1
0.82300	-1
0.82667	-1
0.83033	-1
0.83400	-1
0.83767	-2
0.84133	-2
0.84500	-2
0.84867	-2
0.85233	-2
0.85600	-2
0.85967	-2
0.86333	-2
0.86700	-3
0.87067	-3
0.87433	-3
0.87800	-3
0.88167	-3
0.88533	-3
0.88900	-3
0.89267	-3
0.89633	-3
0.90000	-3
0.90367	-3
0.90733	-3
0.91100	-3
0.91467	-3
0.91833	-3
0.92200	-3
0.92567	-3
0.92933	-4
0.93300	-4
0.93667	-4
0.94033	-4
0.94400	-4
0.94767	-4
0.95133	-4
0.95500	-4
0.95867	-3
0.96233	-3
0.96600	-4
0.96967	-4
0.97333	-4
0.97700	-5
0.98067	-5
0.98433	-5
0.98800	-5
0.99167	-5
0.99533	-5
0.99900	-5
1.00267	-5
1.00633	-5
1.01000	-5
1.01367	-5
1.01733	-4
1.02100	-4
1.02467	-4
1.02833	-4
1.03200	-4
1.03567	-4
1.03933	-4
1.04300	-3
1.04667	-3
1.05033	-3
1.05400	-3
1.05767	-3
1.06133	-3
1.06500	-3
1.06867	-3
1.07233	-2
1.07600	-2
1.07967	-2
1.08333	-2
1.08700	-2
1.09067	-2
1.09433	-2
1.09800	-2
1.10167	-2
1.10533	-2
1.10900	-2
1.11267	-1
1.11633	-1
1.12000	-1
1.12367	-1
1.12733	-1
1.13100	-1
1.13467	-1
1.13833	-1
1.14200	-1
1.14567	-1
1.14933	-1
1.15300	-1
1.15667	-1
1.16033	-1
1.16400	-1
1.16767	-1
1.17133	-1
1.17500	-1
1.17867	-1
1.18233	-0
1.18600	-0
1.18967	-1
1.19333	-1
1.19700	-2
1.20067	-2
1.20433	-3
1.20800	-3
1.21167	-4
1.21533	-4
1.21900	-5
1.22267	-5
1.22633	-5
1.23000	-6
1.23367	-6
1.23733	-6
1.24100	-6
1.24467	-5
1.24833	-5
1.25200	-5
1.25567	-5
1.25933	-5
1.26300	-5
1.26667	-5
1.27033	-5
1.27400	-5
1.27767	-4
1.28133	-4
1.28500	-4
1.28867	-4
1.29233	-3
1.29600	-3
1.29967	-3
1.30333	-3
1.30700	-3
1.31067	-2
1.31433	-2
1.31800	-2
1.32167	-2
1.32533	-2
1.32900	-2
1.33267	-2
1.33633	-2
1.34000	-2
1.34367	-2
1.34733	-3
1.35100	-3
1.35467	-3
1.35833	-3
1.36200	-3
1.36567	-3
1.36933	-3
1.37300	-2
1.37667	-2
1.38033	-2
1.38400	-2
1.38767	-2
1.39133	-2
1.39500	-2
1.39867	-2
1.40233	-2
1.40600	-2
1.40967	-2
1.41333	-2
1.41700	-2
1.42067	-1
1.42433	-1
1.42800	-1
1.43167	-1
1.43533	-1
1.43900	-1
1.44267	-1
1.44633	-1
1.45000	-1
1.45367	-1
1.45733	-1
1.46100	-1
1.46467	-1
1.46833	-1
1.47200	-1
1.47567	-1
1.47933	-2
1.48300	-2
1.48667	-3
1.49033	-3
1.49400	-3
1.49767	-4
1.50133	-4
1.50500	-4
1.50867	-4
1.51233	-4
1.51600	-4
1.51967	-4
1.52333	-4
1.52700	-4
1.53067	-4
1.53433	-4
1.53800	-4
1.54167	-4
1.54533	-4
1.54900	-4
1.55267	-3
1.55633	-3
1.56000	-3
1.56367	-3
1.56733	-3
1.57100	-3
1.57467	-3
1.57833	-4
1.58200	-4
1.58567	-4
1.58933	-4
1.59300	-4
1.59667	-5
1.60033	-6
1.60400	-7
1.60767	-8
1.61133	-10
1.61500	-13
1.61867	-15
1.62233	-18
1.62600	-21
1.62967	-24
1.63333	-27
1.63700	-31
1.64067	-34
1.64433	-38
1.64800	-41
1.65167	-45
1.65533	-48
1.65900	-52
1.66267	-55
1.66633	-59
1.67000	-64
1.67367	-68
1.67733	-73
1.68100	-79
1.68467	-84
1.68833	-88
1.69200	-92
1.69567	-96
1.69933	-99
1.70300	-102
1.70667	-104
1.71033	-105
1.71400	-107
1.71767	-108
1.72133	-108
1.72500	-109
1.72867	-109
1.73233	-110
1.73600	-110
1.73967	-110
1.74333	-109
1.74700	-109
1.75067	-108
1.75433	-108
1.75800	-108
1.76167	-108
1.76533	-108
1.76900	-109
1.77267	-110
1.77633	-111
1.78000	-112
1.78367	-113
1.78733	-114
1.79100	-114
1.79467	-114
1.79833	-114
1.80200	-114
1.80567	-114
1.80933	-114
1.81300	-114
1.81667	-115
1.82033	-115
1.82400	-115
1.82767	-115
1.83133	-116
1.83500	-116
1.83867	-116
1.84233	-116
1.84600	-116
1.84967	-116
1.85333	-116
1.85700	-117
1.86067	-117
1.86433	-118
1.86800	-118
1.87167	-118
1.87533	-118
1.87900	-118
1.88267	-117
1.88633	-117
1.89000	-116
1.89367	-116
1.89733	-115
1.90100	-115
1.90467	-114
1.90833	-114
1.91200	-114
1.91567	-114
1.91933	-113
1.92300	-113
1.92667	-113
1.93033	-112
1.93400	-112
1.93767	-112
1.94133	-112
1.94500	-111
1.94867	-111
1.95233	-111
1.95600	-111
1.95967	-111
1.96333	-111
1.96700	-111
1.97067	-111
1.97433	-110
1.97800	-110
1.98167	-110
1.98533	-110
1.98900	-110
1.99267	-110
1.99633	-110
2.00000	-110
2.00367	-109
2.00733	-109
2.01100	-109
2.01467	-109
2.01833	-108
2.02200	-108
2.02567	-107
2.02933	-107
2.03300	-106
2.03667	-106
2.04033	-105
2.04400	-104
2.04767	-104
2.05133	-104
2.05500	-104
2.05867	-103
2.06233	-103
2.06600	-103
2.06967	-102
2.07333	-102
2.07700	-102
2.08067	-102
2.08433	-102
2.08800	-102
2.09167	-102
2.09533	-102
2.09900	-101
2.10267	-101
2.10633	-100
2.11000	-100
2.11367	-99
2.11733	-100
2.12100	-100
2.12467	-100
2.12833	-100
2.13200	-99
2.13567	-98
2.13933	-98
2.14300	-97
2.14667	-97
2.15033	-97
2.15400	-96
2.15767	-96
2.16133	-95
2.16500	-95
2.16867	-95
2.17233	-94
2.17600	-94
2.17967	-94
2.18333	-93
2.18700	-93
2.19067	-93
2.19433	-92
2.19800	-92
2.20167	-91
2.20533	-91
2.20900	-91
2.21267	-91
2.21633	-91
2.22000	-90
2.22367	-91
2.22733	-91
2.23100	-91
2.23467	-91
2.23833	-91
2.24200	-91
2.24567	-91
2.24933	-90
2.25300	-89
2.25667	-88
2.26033	-87
2.26400	-87
2.26767	-87
2.27133	-87
2.27500	-88
2.27867	-88
2.28233	-89
2.28600	-89
2.28967	-88
2.29333	-88
2.29700	-87
2.30067	-85
2.30433	-84
2.30800	-83
2.31167	-82
2.31533	-82
2.31900	-81
2.32267	-81
2.32633	-81
2.33000	-80
2.33367	-80
2.33733	-80
2.34100	-80
2.34467	-80
2.34833	-80
2.35200	-80
2.35567	-81
2.35933	-81
2.36300	-81
2.36667	-80
2.37033	-78
2.37400	-76
2.37767	-73
2.38133	-69
2.38500	-65
2.38867	-60
2.39233	-55
2.39600	-51
2.39967	-46
2.40333	-41
2.40700	-37
2.41067	-32
2.41433	-28
2.41800	-25
2.42167	-21
2.42533	-19
2.42900	-16
2.43267	-15
2.43633	-13
2.44000	-12
2.44367	-12
2.44733	-11
2.45100	-10
2.45467	-8
2.45833	-7
2.46200	-6
2.46567	-4
2.46933	-3
2.47300	-2
2.47667	-1
2.48033	-0
2.48400	1
2.48767	1
2.49133	2
2.49500	2
2.49867	3
2.50233	4
2.50600	5
2.50967	6
2.51333	7
2.51700	7
2.52067	8
2.52433	8
2.52800	9
2.53167	10
2.53533	10
2.53900	11
2.54267	11
2.54633	11
2.55000	12
2.55367	12
2.55733	12
2.56100	12
2.56467	13
2.56833	13
2.57200	13
2.57567	13
2.57933	13
2.58300	14
2.58667	14
2.59033	14
2.59400	14
2.59767	14
2.60133	15
2.60500	15
2.60867	15
2.61233	16
2.61600	16
2.61967	16
2.62333	15
2.62700	15
2.63067	15
2.63433	15
2.63800	16
2.64167	16
2.64533	17
2.64900	17
2.65267	18
2.65633	18
2.66000	18
2.66367	19
2.66733	19
2.67100	19
2.67467	19
2.67833	20
2.68200	20
2.68567	21
2.68933	21
2.69300	21
2.69667	22
2.70033	22
2.70400	22
2.70767	22
2.71133	22
2.71500	21
2.71867	21
2.72233	21
2.72600	21
2.72967	21
2.73333	21
2.73700	21
2.74067	21
2.74433	21
2.74800	22
2.75167	22
2.75533	22
2.75900	22
2.76267	22
2.76633	23
2.77000	23
2.77367	24
2.77733	24
2.78100	25
2.78467	25
2.78833	25
2.79200	25
2.79567	24
2.79933	24
2.80300	23
2.80667	23
2.81033	22
2.81400	22
2.81767	21
2.82133	21
2.82500	21
2.82867	21
2.83233	21
2.83600	20
2.83967	20
2.84333	18
2.84700	16
2.85067	10
2.85433	3
2.85800	-8
2.86167	-23
2.86533	-42
2.86900	-65
2.87267	-93
2.87633	-126
2.88000	-162
2.88367	-202
2.88733	-246
2.89100	-293
2.89467	-343
2.89833	-395
2.90200	-448
2.90567	-502
2.90933	-557
2.91300	-612
2.91667	-667
2.92033	-722
2.92400	-774
2.92767	-826
2.93133	-878
2.93500	-933
2.93867	-992
2.94233	-1046
2.94600	-1087
2.94967	-1104
2.95333	-1095
2.95700	-1061
2.96067	-1008
2.96433	-940
2.96800	-864
2.97167	-783
2.97533	-702
2.97900	-624
2.98267	-550
2.98633	-482
2.99000	-419
2.99367	-363
2.99733	-313
3.00100	-269
3.00467	-230
3.00833	-196
3.01200	-167
3.01567	-141
3.01933	-119
3.02300	-100
3.02667	-84
3.03033	-70
3.03400	-59
3.03767	-48
3.04133	-40
3.04500	-32
3.04867	-26
3.05233	-20
3.05600	-16
3.05967	-12
3.06333	-8
3.06700	-5
3.07067	-3
3.07433	-1
3.07800	1
3.08167	3
3.08533	4
3.08900	5
3.09267	7
3.09633	8
3.10000	9
3.10367	10
3.10733	11
3.11100	12
3.11467	12
3.11833	13
3.12200	14
3.12567	14
3.12933	14
3.13300	14
3.13667	15
3.14033	15
3.14400	15
3.14767	15
3.15133	15
3.15500	15
3.15867	16
3.16233	16
3.16600	16
3.16967	16
3.17333	16
3.17700	16
3.18067	16
3.18433	16
3.18800	16
3.19167	16
3.19533	16
3.19900	17
3.20267	17
3.20633	18
3.21000	18
3.21367	18
3.21733	18
3.22100	18
3.22467	19
3.22833	19
3.23200	19
3.23567	19
3.23933	19
3.24300	19
3.24667	19
3.25033	19
3.25400	19
3.25767	19
3.26133	19
3.26500	20
3.26867	20
3.27233	20
3.27600	20
3.27967	20
3.28333	20
3.28700	21
3.29067	21
3.29433	22
3.29800	22
3.30167	23
3.30533	23
3.30900	23
3.31267	24
3.31633	24
3.32000	25
3.32367	25
3.32733	25
3.33100	25
3.33467	25
3.33833	26
3.34200	26
3.34567	26
3.34933	25
3.35300	25
3.35667	25
3.36033	25
3.36400	25
3.36767	25
3.37133	25
3.37500	24
3.37867	24
3.38233	24
3.38600	24
3.38967	24
3.39333	24
3.39700	24
3.40067	24
3.40433	24
3.40800	24
3.41167	24
3.41533	24
3.41900	24
3.42267	25
3.42633	25
3.43000	25
3.43367	25
3.43733	26
3.44100	26
3.44467	26
3.44833	26
3.45200	27
3.45567	27
3.45933	26
3.46300	26
3.46667	26
3.47033	26
3.47400	25
3.47767	25
3.48133	25
3.48500	25
3.48867	25
3.49233	25
3.49600	25
3.49967	25
3.50333	25
3.50700	25
3.51067	25
3.51433	25
3.51800	25
3.52167	25
3.52533	25
3.52900	25
3.53267	25
3.53633	25
3.54000	25
3.54367	25
3.54733	25
3.55100	25
3.55467	25
3.55833	25
3.56200	25
3.56567	25
3.56933	25
3.57300	25
3.57667	25
3.58033	25
3.58400	25
3.58767	25
3.59133	25
3.59500	24
3.59867	24
3.60233	24
3.60600	24
3.60967	24
3.61333	24
3.61700	25
3.62067	25
3.62433	25
3.62800	24
3.63167	24
3.63533	24
3.63900	24
3.64267	25
3.64633	25
3.65000	25
3.65367	25
3.65733	25
3.66100	25
3.66467	25
3.66833	25
3.67200	25
3.67567	25
3.67933	25
3.68300	25
3.68667	25
3.69033	25
3.69400	24
3.69767	24
3.70133	24
3.70500	24
3.70867	23
3.71233	23
3.71600	23
3.71967	23
3.72333	23
3.72700	23
3.73067	23
3.73433	23
3.73800	23
3.74167	23
3.74533	23
3.74900	23
3.75267	23
3.75633	23
3.76000	23
3.76367	23
3.76733	23
3.77100	23
3.77467	23
3.77833	23
3.78200	23
3.78567	23
3.78933	24
3.79300	24
3.79667	24
3.80033	24
3.80400	24
3.80767	24
3.81133	24
3.81500	24
3.81867	24
3.82233	24
3.82600	24
3.82967	24
3.83333	24
3.83700	24
3.84067	24
3.84433	25
3.84800	25
3.85167	25
3.85533	25
3.85900	25
3.86267	25
3.86633	25
3.87000	25
3.87367	25
3.87733	25
3.88100	25
3.88467	25
3.88833	25
3.89200	25
3.89567	25
3.89933	25
3.90300	25
3.90667	24
3.91033	24
3.91400	24
3.91767	24
3.92133	24
3.92500	24
3.92867	25
3.93233	25
3.93600	25
3.93967	25
3.94333	25
3.94700	25
3.95067	25
3.95433	25
3.95800	26
3.96167	26
3.96533	26
3.96900	26
3.97267	26
3.97633	26
3.98000	26
3.98367	26
3.98733	26
3.99100	26
3.99467	25
3.99833	25

[Chromatogram (Ch3)]
Interval(msec)	220
# of Points	1091
Start Time(min)	0.002
End Time(min)	3.998
R.Time (min)	Intensity
0.00167	-0
0.00533	1
0.00900	1
0.01267	-1
0.01633	-3
0.02000	-4
0.02367	-3
0.02733	-3
0.03100	-3
0.03467	-4
0.03833	-4
0.04200	-3
0.04567	-1
0.04933	0
0.05300	-2
0.05667	-2
0.06033	-2
0.06400	-2
0.06767	-3
0.07133	-4
0.07500	-3
0.07867	-0
0.08233	1
0.08600	2
0.08967	1
0.09333	1
0.09700	0
0.10067	0
0.10433	1
0.10800	-3
0.11167	-7
0.11533	-9
0.11900	-7
0.12267	-5
0.12633	-4
0.13000	-5
0.13367	-5
0.13733	-6
0.14100	-6
0.14467	-5
0.14833	-3
0.15200	-2
0.15567	-0
0.15933	1
0.16300	0
0.16667	-2
0.17033	-4
0.17400	-5
0.17767	-4
0.18133	-3
0.18500	-4
0.18867	-5
0.19233	-5
0.19600	-4
0.19967	-4
0.20333	-4
0.20700	-1
0.21067	1
0.21433	2
0.21800	1
0.22167	-1
0.22533	-4
0.22900	-6
0.23267	-7
0.23633	-6
0.24000	-5
0.24367	-3
0.24733	-2
0.25100	-3
0.25467	-4
0.25833	-5
0.26200	-7
0.26567	-7
0.26933	-8
0.27300	-9
0.27667	-8
0.28033	-7
0.28400	-10
0.28767	-12
0.29133	-13
0.29500	-10
0.29867	-10
0.30233	-11
0.30600	-13
0.30967	-12
0.31333	-11
0.31700	-10
0.32067	-9
0.32433	-9
0.32800	-7
0.33167	-5
0.33533	-6
0.33900	-7
0.34267	-7
0.34633	-8
0.35000	-10
0.35367	-10
0.35733	-9
0.36100	-8
0.36467	-6
0.36833	-7
0.37200	-7
0.37567	-4
0.37933	-3
0.38300	-5
0.38667	-6
0.39033	-6
0.39400	-4
0.39767	-2
0.40133	-2
0.40500	-1
0.40867	-0
0.41233	-2
0.41600	-3
0.41967	-4
0.42333	-4
0.42700	-6
0.43067	-5
0.43433	-3
0.43800	-1
0.44167	1
0.44533	1
0.44900	-2
0.45267	-2
0.45633	-5
0.46000	-7
0.46367	-7
0.46733	-8
0.47100	-7
0.47467	-6
0.47833	-4
0.48200	-2
0.48567	-4
0.48933	-6
0.49300	-7
0.49667	-6
0.50033	-4
0.50400	-2
0.50767	-2
0.51133	-4
0.51500	-5
0.51867	-4
0.52233	-3
0.52600	-3
0.52967	-3
0.53333	-4
0.53700	-4
0.54067	-6
0.54433	-7
0.54800	-9
0.55167	-10
0.55533	-9
0.55900	-5
0.56267	-2
0.56633	-2
0.57000	-2
0.57367	-1
0.57733	-1
0.58100	-0
0.58467	2
0.58833	2
0.59200	-1
0.59567	-4
0.59933	-6
0.60300	-6
0.60667	-7
0.61033	-8
0.61400	-7
0.61767	-7
0.62133	-7
0.62500	-5
0.62867	-2
0.63233	-1
0.63600	-0
0.63967	2
0.64333	2
0.64700	2
0.65067	1
0.65433	-2
0.65800	-3
0.66167	-3
0.66533	-3
0.66900	-2
0.67267	-2
0.67633	-3
0.68000	-4
0.68367	-3
0.68733	-0
0.69100	1
0.69467	1
0.69833	0
0.70200	-0
0.70567	-1
0.70933	-3
0.71300	-5
0.71667	-5
0.72033	-6
0.72400	-5
0.72767	-4
0.73133	-5
0.73500	-6
0.73867	-8
0.74233	-9
0.74600	-10
0.74967	-10
0.75333	-9
0.75700	-9
0.76067	-11
0.76433	-11
0.76800	-11
0.77167	-11
0.77533	-11
0.77900	-11
0.78267	-13
0.78633	-14
0.79000	-14
0.79367	-13
0.79733	-10
0.80100	-10
0.80467	-11
0.80833	-13
0.81200	-13
0.81567	-14
0.81933	-16
0.82300	-15
0.82667	-15
0.83033	-16
0.83400	-13
0.83767	-10
0.84133	-12
0.84500	-14
0.84867	-17
0.85233	-19
0.85600	-17
0.85967	-15
0.86333	-12
0.86700	-10
0.87067	-9
0.87433	-10
0.87800	-12
0.88167	-14
0.88533	-16
0.88900	-14
0.89267	-12
0.89633	-9
0.90000	-10
0.90367	-11
0.90733	-12
0.91100	-13
0.91467	-12
0.91833	-9
0.92200	-8
0.92567	-7
0.92933	-9
0.93300	-10
0.93667	-11
0.94033	-10
0.94400	-10
0.94767	-11
0.95133	-11
0.95500	-10
0.95867	-11
0.96233	-11
0.96600	-9
0.96967	-11
0.97333	-10
0.97700	-11
0.98067	-14
0.98433	-13
0.98800	-10
0.99167	-10
0.99533	-9
0.99900	-8
1.00267	-7
1.00633	-7
1.01000	-5
1.01367	-7
1.01733	-9
1.02100	-10
1.02467	-12
1.02833	-14
1.03200	-13
1.03567	-13
1.03933	-13
1.04300	-13
1.04667	-16
1.05033	-16
1.05400	-16
1.05767	-17
1.06133	-17
1.06500	-16
1.06867	-16
1.07233	-16
1.07600	-16
1.07967	-16
1.08333	-15
1.08700	-12
1.09067	-12
1.09433	-14
1.09800	-15
1.10167	-16
1.10533	-18
1.10900	-19
1.11267	-18
1.11633	-17
1.12000	-16
1.12367	-16
1.12733	-18
1.13100	-19
1.13467	-19
1.13833	-18
1.14200	-17
1.14567	-17
1.14933	-17
1.15300	-15
1.15667	-11
1.16033	-9
1.16400	-8
1.16767	-8
1.17133	-9
1.17500	-9
1.17867	-11
1.18233	-13
1.18600	-14
1.18967	-14
1.19333	-15
1.19700	-15
1.20067	-16
1.20433	-15
1.20800	-17
1.21167	-16
1.21533	-15
1.21900	-14
1.22267	-14
1.22633	-14
1.23000	-13
1.23367	-13
1.23733	-11
1.24100	-12
1.24467	-15
1.24833	-15
1.25200	-13
1.25567	-12
1.25933	-10
1.26300	-9
1.26667	-9
1.27033	-10
1.27400	-10
1.27767	-9
1.28133	-7
1.28500	-7
1.28867	-9
1.29233	-11
1.29600	-14
1.29967	-16
1.30333	-16
1.30700	-16
1.31067	-14
1.31433	-11
1.31800	-11
1.32167	-13
1.32533	-12
1.32900	-11
1.33267	-10
1.33633	-10
1.34000	-12
1.34367	-12
1.34733	-13
1.35100	-13
1.35467	-11
1.35833	-11
1.36200	-11
1.36567	-10
1.36933	-9
1.37300	-9
1.37667	-8
1.38033	-9
1.38400	-9
1.38767	-7
1.39133	-7
1.39500	-8
1.39867	-8
1.40233	-7
1.40600	-9
1.40967	-8
1.41333	-8
1.41700	-9
1.42067	-11
1.42433	-11
1.42800	-10
1.43167	-9
1.43533	-9
1.43900	-9
1.44267	-8
1.44633	-7
1.45000	-7
1.45367	-7
1.45733	-10
1.46100	-11
1.46467	-9
1.46833	-7
1.47200	-6
1.47567	-6
1.47933	-8
1.48300	-9
1.48667	-7
1.49033	-6
1.49400	-4
1.49767	-3
1.50133	-4
1.50500	-4
1.50867	-6
1.51233	-6
1.51600	-6
1.51967	-6
1.52333	-7
1.52700	-7
1.53067	-6
1.53433	-5
1.53800	-6
1.54167	-7
1.54533	-7
1.54900	-7
1.55267	-7
1.55633	-10
1.56000	-10
1.56367	-9
1.56733	-8
1.57100	-8
1.57467	-9
1.57833	-9
1.58200	-8
1.58567	-9
1.58933	-8
1.59300	-8
1.59667	-8
1.60033	-8
1.60400	-8
1.60767	-9
1.61133	-8
1.61500	-8
1.61867	-8
1.62233	-6
1.62600	-5
1.62967	-5
1.63333	-5
1.63700	-5
1.64067	-4
1.64433	-3
1.64800	-2
1.65167	-0
1.65533	-2
1.65900	-1
1.66267	0
1.66633	1
1.67000	3
1.67367	4
1.67733	7
1.68100	8
1.68467	10
1.68833	12
1.69200	12
1.69567	9
1.69933	6
1.70300	5
1.70667	5
1.71033	9
1.71400	12
1.71767	13
1.72133	11
1.72500	10
1.72867	11
1.73233	11
1.73600	11
1.73967	13
1.74333	13
1.74700	12
1.75067	12
1.75433	13
1.75800	14
1.76167	14
1.76533	15
1.76900	14
1.77267	14
1.77633	16
1.78000	19
1.78367	21
1.78733	22
1.79100	24
1.79467	25
1.79833	24
1.80200	25
1.80567	26
1.80933	25
1.81300	26
1.81667	25
1.82033	23
1.82400	24
1.82767	26
1.83133	27
1.83500	26
1.83867	23
1.84233	21
1.84600	23
1.84967	24
1.85333	24
1.85700	25
1.86067	28
1.86433	31
1.86800	34
1.87167	35
1.87533	34
1.87900	36
1.88267	39
1.88633	41
1.89000	41
1.89367	41
1.89733	40
1.90100	42
1.90467	43
1.90833	42
1.91200	40
1.91567	38
1.91933	39
1.92300	40
1.92667	41
1.93033	39
1.93400	40
1.93767	44
1.94133	47
1.94500	47
1.94867	45
1.95233	44
1.95600	44
1.95967	45
1.96333	47
1.96700	45
1.97067	44
1.97433	46
1.97800	49
1.98167	51
1.98533	52
1.98900	52
1.99267	53
1.99633	54
2.00000	55
2.00367	56
2.00733	57
2.01100	58
2.01467	58
2.01833	58
2.02200	60
2.02567	63
2.02933	65
2.03300	69
2.03667	67
2.04033	67
2.04400	68
2.04767	66
2.05133	65
2.05500	66
2.05867	68
2.06233	69
2.06600	70
2.06967	71
2.07333	75
2.07700	79
2.08067	79
2.08433	81
2.08800	82
2.09167	81
2.09533	79
2.09900	79
2.10267	80
2.10633	81
2.11000	83
2.11367	86
2.11733	89
2.12100	90
2.12467	89
2.12833	91
2.13200	94
2.13567	98
2.13933	99
2.14300	100
2.14667	102
2.15033	104
2.15400	106
2.15767	108
2.16133	109
2.16500	110
2.16867	111
2.17233	114
2.17600	117
2.17967	118
2.18333	118
2.18700	119
2.19067	121
2.19433	123
2.19800	124
2.20167	124
2.20533	123
2.20900	122
2.21267	125
2.21633	126
2.22000	129
2.22367	131
2.22733	131
2.23100	131
2.23467	134
2.23833	138
2.24200	141
2.24567	144
2.24933	146
2.25300	146
2.25667	147
2.26033	148
2.26400	151
2.26767	155
2.27133	157
2.27500	157
2.27867	157
2.28233	158
2.28600	157
2.28967	156
2.29333	158
2.29700	163
2.30067	167
2.30433	168
2.30800	169
2.31167	172
2.31533	173
2.31900	173
2.32267	176
2.32633	178
2.33000	180
2.33367	183
2.33733	184
2.34100	185
2.34467	187
2.34833	187
2.35200	190
2.35567	193
2.35933	196
2.36300	198
2.36667	202
2.37033	203
2.37400	201
2.37767	201
2.38133	202
2.38500	206
2.38867	206
2.39233	207
2.39600	213
2.39967	220
2.40333	225
2.40700	228
2.41067	230
2.41433	234
2.41800	239
2.42167	243
2.42533	245
2.42900	245
2.43267	244
2.43633	244
2.44000	250
2.44367	308
2.44733	447
2.45100	593
2.45467	711
2.45833	779
2.46200	784
2.46567	753
2.46933	716
2.47300	685
2.47667	665
2.48033	650
2.48400	629
2.48767	595
2.49133	554
2.49500	511
2.49867	476
2.50233	451
2.50600	433
2.50967	423
2.51333	421
2.51700	428
2.52067	440
2.52433	458
2.52800	476
2.53167	489
2.53533	491
2.53900	484
2.54267	468
2.54633	447
2.55000	423
2.55367	398
2.55733	376
2.56100	358
2.56467	342
2.56833	328
2.57200	319
2.57567	311
2.57933	308
2.58300	307
2.58667	307
2.59033	307
2.59400	305
2.59767	301
2.60133	297
2.60500	288
2.60867	280
2.61233	268
2.61600	257
2.61967	248
2.62333	242
2.62700	239
2.63067	237
2.63433	236
2.63800	239
2.64167	242
2.64533	245
2.64900	249
2.65267	254
2.65633	256
2.66000	255
2.66367	253
2.66733	251
2.67100	246
2.67467	241
2.67833	237
2.68200	232
2.68567	225
2.68933	216
2.69300	210
2.69667	204
2.70033	197
2.70400	190
2.70767	184
2.71133	181
2.71500	177
2.71867	172
2.72233	171
2.72600	171
2.72967	172
2.73333	173
2.73700	173
2.74067	174
2.74433	174
2.74800	175
2.75167	176
2.75533	176
2.75900	177
2.76267	176
2.76633	174
2.77000	175
2.77367	174
2.77733	174
2.78100	173
2.78467	174
2.78833	178
2.79200	180
2.79567	183
2.79933	185
2.80300	186
2.80667	185
2.81033	186
2.81400	187
2.81767	190
2.82133	201
2.82500	227
2.82867	281
2.83233	385
2.83600	562
2.83967	835
2.84333	1215
2.84700	1696
2.85067	2264
2.85433	2885
2.85800	3512
2.86167	4094
2.86533	4583
2.86900	4941
2.87267	5151
2.87633	5206
2.88000	5124
2.88367	4933
2.88733	4661
2.89100	4333
2.89467	3974
2.89833	3607
2.90200	3250
2.90567	2910
2.90933	2596
2.91300	2309
2.91667	2053
2.92033	1822
2.92400	1616
2.92767	1435
2.93133	1276
2.93500	1138
2.93867	1019
2.94233	914
2.94600	826
2.94967	747
2.95333	676
2.95700	614
2.96067	560
2.96433	514
2.96800	473
2.97167	437
2.97533	406
2.97900	380
2.98267	356
2.98633	331
2.99000	312
2.99367	301
2.99733	300
3.00100	306
3.00467	317
3.00833	334
3.01200	356
3.01567	381
3.01933	406
3.02300	431
3.02667	456
3.03033	476
3.03400	493
3.03767	509
3.04133	524
3.04500	537
3.04867	549
3.05233	560
3.05600	568
3.05967	575
3.06333	581
3.06700	588
3.07067	591
3.07433	592
3.07800	593
3.08167	594
3.08533	595
3.08900	597
3.09267	601
3.09633	605
3.10000	607
3.10367	609
3.10733	610
3.11100	611
3.11467	612
3.11833	613
3.12200	611
3.12567	611
3.12933	611
3.13300	610
3.13667	610
3.14033	611
3.14400	613
3.14767	617
3.15133	623
3.15500	629
3.15867	633
3.16233	636
3.16600	639
3.16967	641
3.17333	643
3.17700	645
3.18067	649
3.18433	651
3.18800	654
3.19167	657
3.19533	660
3.19900	662
3.20267	664
3.20633	666
3.21000	668
3.21367	669
3.21733	671
3.22100	674
3.22467	676
3.22833	679
3.23200	679
3.23567	681
3.23933	681
3.24300	681
3.24667	682
3.25033	683
3.25400	685
3.25767	686
3.26133	685
3.26500	684
3.26867	685
3.27233	686
3.27600	688
3.27967	687
3.28333	688
3.28700	692
3.29067	692
3.29433	693
3.29800	693
3.30167	692
3.30533	691
3.30900	693
3.31267	695
3.31633	697
3.32000	698
3.32367	698
3.32733	700
3.33100	700
3.33467	700
3.33833	697
3.34200	694
3.34567	694
3.34933	693
3.35300	691
3.35667	689
3.36033	687
3.36400	688
3.36767	690
3.37133	693
3.37500	693
3.37867	690
3.38233	688
3.38600	687
3.38967	686
3.39333	684
3.39700	684
3.40067	684
3.40433	683
3.40800	684
3.41167	684
3.41533	684
3.41900	683
3.42267	681
3.42633	679
3.43000	677
3.43367	676
3.43733	676
3.44100	674
3.44467	672
3.44833	671
3.45200	669
3.45567	667
3.45933	666
3.46300	664
3.46667	662
3.47033	662
3.47400	664
3.47767	664
3.48133	663
3.48500	663
3.48867	661
3.49233	659
3.49600	656
3.49967	654
3.50333	653
3.50700	652
3.51067	651
3.51433	650
3.51800	649
3.52167	648
3.52533	646
3.52900	643
3.53267	640
3.53633	639
3.54000	639
3.54367	637
3.54733	636
3.55100	635
3.55467	635
3.55833	638
3.56200	640
3.56567	641
3.56933	641
3.57300	639
3.57667	637
3.58033	636
3.58400	635
3.58767	631
3.59133	630
3.59500	630
3.59867	631
3.60233	631
3.60600	630
3.60967	630
3.61333	630
3.61700	631
3.62067	630
3.62433	627
3.62800	626
3.63167	625
3.63533	623
3.63900	621
3.64267	620
3.64633	620
3.65000	619
3.65367	619
3.65733	621
3.66100	622
3.66467	622
3.66833	622
3.67200	622
3.67567	623
3.67933	622
3.68300	622
3.68667	623
3.69033	624
3.69400	625
3.69767	624
3.70133	624
3.70500	622
3.70867	617
3.71233	614
3.71600	613
3.71967	614
3.72333	612
3.72700	611
3.73067	612
3.73433	612
3.73800	612
3.74167	612
3.74533	613
3.74900	615
3.75267	615
3.75633	613
3.76000	612
3.76367	609
3.76733	606
3.77100	607
3.77467	607
3.77833	605
3.78200	603
3.78567	601
3.78933	598
3.79300	596
3.79667	597
3.80033	595
3.80400	592
3.80767	588
3.81133	587
3.81500	586
3.81867	585
3.82233	585
3.82600	585
3.82967	586
3.83333	588
3.83700	590
3.84067	589
3.84433	585
3.84800	581
3.85167	579
3.85533	579
3.85900	578
3.86267	575
3.86633	572
3.87000	570
3.87367	569
3.87733	567
3.88100	567
3.88467	566
3.88833	565
3.89200	566
3.89567	566
3.89933	563
3.90300	561
3.90667	557
3.91033	556
3.91400	554
3.91767	554
3.92133	552
3.92500	550
3.92867	550
3.93233	550
3.93600	546
3.93967	542
3.94333	540
3.94700	539
3.95067	538
3.95433	537
3.95800	535
3.96167	533
3.96533	530
3.96900	530
3.97267	530
3.97633	529
3.98000	524
3.98367	521
3.98733	521
3.99100	518
3.99467	515
3.99833	510

[Status Trace (Column Oven Temperature)]
Interval(msec)	1000
# of Points	240
Start Time(min)	0.004
End Time(min)	3.987
Intensity Units	
Intensity Multiplier	1
R.Time (min)	Intensity
0.00412	35.04
0.02078	35.03
0.03745	35.04
0.05412	35.05
0.07078	35.06
0.08745	35.06
0.10412	35.07
0.12078	35.07
0.13745	35.07
0.15412	35.08
0.17078	35.08
0.18745	35.07
0.20412	35.07
0.22078	35.07
0.23745	35.06
0.25412	35.05
0.27078	35.04
0.28745	35.04
0.30412	35.03
0.32078	35.04
0.33745	35.04
0.35412	35.04
0.37078	35.03
0.38745	35.03
0.40412	35.03
0.42078	35.03
0.43745	35.03
0.45412	35.03
0.47078	35.03
0.48745	35.03
0.50412	35.02
0.52078	35.01
0.53745	35.01
0.55412	35.02
0.57078	35.01
0.58745	35.02
0.60412	35.02
0.62078	35.02
0.63745	35.01
0.65412	35.02
0.67078	35.01
0.68745	35.01
0.70412	35.00
0.72078	35.00
0.73745	34.99
0.75412	34.99
0.77078	35.00
0.78745	35.00
0.80412	35.00
0.82078	34.99
0.83745	34.99
0.85412	34.99
0.87078	35.00
0.88745	35.00
0.90412	35.00
0.92078	35.00
0.93745	34.99
0.95412	35.00
0.97078	35.01
0.98745	35.01
1.00412	35.02
1.02078	35.02
1.03745	35.02
1.05412	35.02
1.07078	35.02
1.08745	35.01
1.10412	35.01
1.12078	34.99
1.13745	34.98
1.15412	34.98
1.17078	34.97
1.18745	34.97
1.20412	34.99
1.22078	35.01
1.23745	35.01
1.25412	35.02
1.27078	35.02
1.28745	35.01
1.30412	35.01
1.32078	35.01
1.33745	35.01
1.35412	35.01
1.37078	35.02
1.38745	35.01
1.40412	35.00
1.42078	34.99
1.43745	34.98
1.45412	34.97
1.47078	34.97
1.48745	34.98
1.50412	34.98
1.52078	34.97
1.53745	34.97
1.55412	34.97
1.57078	34.97
1.58745	34.98
1.60412	35.03
1.62078	35.15
1.63745	35.34
1.65412	35.56
1.67078	35.88
1.68745	36.25
1.70412	36.61
1.72078	36.96
1.73745	37.27
1.75412	37.59
1.77078	37.93
1.78745	38.27
1.80412	38.60
1.82078	38.93
1.83745	39.26
1.85412	39.60
1.87078	39.94
1.88745	40.26
1.90412	40.59
1.92078	40.92
1.93745	41.24
1.95412	41.57
1.97078	41.88
1.98745	42.21
2.00412	42.54
2.02078	42.87
2.03745	43.19
2.05412	43.53
2.07078	43.85
2.08745	44.18
2.10412	44.48
2.12078	44.83
2.13745	45.13
2.15412	45.46
2.17078	45.78
2.18745	46.10
2.20412	46.43
2.22078	46.77
2.23745	47.09
2.25412	47.40
2.27078	47.76
2.28745	48.10
2.30412	48.42
2.32078	48.75
2.33745	49.06
2.35412	49.41
2.37078	49.65
2.38745	49.74
2.40412	49.74
2.42078	49.73
2.43745	49.75
2.45412	49.74
2.47078	49.74
2.48745	49.77
2.50412	49.78
2.52078	49.80
2.53745	49.80
2.55412	49.81
2.57078	49.82
2.58745	49.83
2.60412	49.82
2.62078	49.84
2.63745	49.83
2.65412	49.84
2.67078	49.85
2.68745	49.85
2.70412	49.86
2.72078	49.87
2.73745	49.88
2.75412	49.87
2.77078	49.85
2.78745	49.85
2.80412	49.89
2.82078	49.92
2.83745	49.93
2.85412	49.93
2.87078	49.93
2.88745	49.93
2.90412	49.93
2.92078	49.93
2.93745	49.95
2.95412	49.96
2.97078	49.96
2.98745	49.98
3.00412	49.98
3.02078	49.99
3.03745	50.01
3.05412	50.01
3.07078	50.03
3.08745	50.03
3.10412	50.02
3.12078	50.02
3.13745	50.03
3.15412	50.05
3.17078	50.06
3.18745	50.08
3.20412	50.08
3.22078	50.09
3.23745	50.10
3.25412	50.11
3.27078	50.10
3.28745	50.10
3.30412	50.09
3.32078	50.08
3.33745	50.06
3.35412	50.05
3.37078	50.05
3.38745	50.05
3.40412	50.04
3.42078	50.03
3.43745	50.02
3.45412	50.01
3.47078	50.02
3.48745	50.02
3.50412	50.02
3.52078	50.03
3.53745	50.03
3.55412	50.02
3.57078	50.02
3.58745	50.03
3.60412	50.02
3.62078	50.02
3.63745	50.02
3.65412	50.03
3.67078	50.02
3.68745	50.02
3.70412	50.03
3.72078	50.04
3.73745	50.06
3.75412	50.07
3.77078	50.07
3.78745	50.07
3.80412	50.07
3.82078	50.07
3.83745	50.06
3.85412	50.06
3.87078	50.06
3.88745	50.06
3.90412	50.06
3.92078	50.06
3.93745	50.06
3.95412	50.06
3.97078	50.05
3.98745	50.05

[Status Trace (Injection Unit Temperature)]
Interval(msec)	1000
# of Points	240
Start Time(min)	0.004
End Time(min)	3.987
Intensity Units	
Intensity Multiplier	1
R.Time (min)	Intensity
0.00412	99.98
0.02078	99.98
0.03745	99.98
0.05412	99.98
0.07078	99.98
0.08745	99.98
0.10412	99.98
0.12078	99.98
0.13745	99.98
0.15412	99.98
0.17078	99.98
0.18745	99.98
0.20412	99.98
0.22078	99.98
0.23745	99.98
0.25412	99.98
0.27078	99.98
0.28745	99.98
0.30412	99.98
0.32078	99.98
0.33745	99.98
0.35412	99.98
0.37078	99.98
0.38745	99.98
0.40412	99.98
0.42078	99.98
0.43745	99.98
0.45412	99.98
0.47078	99.98
0.48745	99.98
0.50412	99.98
0.52078	99.98
0.53745	99.98
0.55412	99.98
0.57078	99.98
0.58745	99.98
0.60412	99.98
0.62078	99.98
0.63745	99.98
0.65412	99.98
0.67078	99.98
0.68745	99.98
0.70412	99.98
0.72078	99.98
0.73745	99.98
0.75412	99.99
0.77078	99.98
0.78745	99.99
0.80412	99.98
0.82078	99.99
0.83745	99.98
0.85412	99.98
0.87078	99.98
0.88745	99.98
0.90412	99.98
0.92078	99.98
0.93745	99.98
0.95412	99.98
0.97078	99.98
0.98745	99.99
1.00412	99.98
1.02078	99.98
1.03745	99.98
1.05412	99.98
1.07078	99.98
1.08745	99.99
1.10412	99.99
1.12078	99.99
1.13745	99.99
1.15412	99.99
1.17078	99.99
1.18745	99.99
1.20412	99.99
1.22078	99.99
1.23745	99.99
1.25412	99.99
1.27078	99.99
1.28745	99.99
1.30412	99.99
1.32078	99.99
1.33745	99.99
1.35412	99.99
1.37078	99.99
1.38745	99.99
1.40412	99.98
1.42078	99.99
1.43745	99.99
1.45412	99.99
1.47078	99.99
1.48745	99.99
1.50412	99.99
1.52078	99.99
1.53745	99.98
1.55412	99.98
1.57078	99.98
1.58745	99.98
1.60412	99.99
1.62078	99.99
1.63745	99.98
1.65412	99.98
1.67078	99.98
1.68745	99.98
1.70412	99.98
1.72078	99.98
1.73745	99.98
1.75412	99.98
1.77078	99.98
1.78745	99.98
1.80412	99.98
1.82078	99.98
1.83745	99.98
1.85412	99.98
1.87078	99.98
1.88745	99.98
1.90412	99.98
1.92078	99.97
1.93745	99.97
1.95412	99.97
1.97078	99.97
1.98745	99.97
2.00412	99.97
2.02078	99.97
2.03745	99.97
2.05412	99.97
2.07078	99.97
2.08745	99.97
2.10412	99.97
2.12078	99.97
2.13745	99.97
2.15412	99.97
2.17078	99.97
2.18745	99.97
2.20412	99.96
2.22078	99.97
2.23745	99.96
2.25412	99.96
2.27078	99.97
2.28745	99.97
2.30412	99.97
2.32078	99.97
2.33745	99.97
2.35412	99.97
2.37078	99.96
2.38745	99.97
2.40412	99.97
2.42078	99.97
2.43745	99.97
2.45412	99.97
2.47078	99.97
2.48745	99.97
2.50412	99.97
2.52078	99.97
2.53745	99.97
2.55412	99.97
2.57078	99.98
2.58745	99.97
2.60412	99.97
2.62078	99.98
2.63745	99.98
2.65412	99.98
2.67078	99.98
2.68745	99.98
2.70412	99.98
2.72078	99.99
2.73745	99.98
2.75412	99.99
2.77078	99.99
2.78745	99.99
2.80412	99.99
2.82078	100.00
2.83745	100.00
2.85412	100.00
2.87078	100.00
2.88745	100.01
2.90412	100.01
2.92078	100.01
2.93745	100.01
2.95412	100.01
2.97078	100.01
2.98745	100.01
3.00412	100.02
3.02078	100.02
3.03745	100.02
3.05412	100.02
3.07078	100.02
3.08745	100.02
3.10412	100.03
3.12078	100.03
3.13745	100.03
3.15412	100.03
3.17078	100.03
3.18745	100.03
3.20412	100.03
3.22078	100.03
3.23745	100.03
3.25412	100.03
3.27078	100.04
3.28745	100.03
3.30412	100.04
3.32078	100.04
3.33745	100.03
3.35412	100.04
3.37078	100.04
3.38745	100.04
3.40412	100.04
3.42078	100.04
3.43745	100.04
3.45412	100.04
3.47078	100.04
3.48745	100.04
3.50412	100.04
3.52078	100.05
3.53745	100.04
3.55412	100.04
3.57078	100.05
3.58745	100.04
3.60412	100.04
3.62078	100.04
3.63745	100.04
3.65412	100.04
3.67078	100.04
3.68745	100.04
3.70412	100.04
3.72078	100.04
3.73745	100.04
3.75412	100.04
3.77078	100.04
3.78745	100.04
3.80412	100.04
3.82078	100.04
3.83745	100.04
3.85412	100.04
3.87078	100.04
3.88745	100.04
3.90412	100.04
3.92078	100.04
3.93745	100.04
3.95412	100.04
3.97078	100.04
3.98745	100.04

[Status Trace (Carrier Gas Pressure)]
Interval(msec)	1000
# of Points	240
Start Time(min)	0.004
End Time(min)	3.987
Intensity Units	
Intensity Multiplier	1
R.Time (min)	Intensity
0.00412	58.00
0.02078	55.95
0.03745	56.63
0.05412	58.76
0.07078	59.77
0.08745	58.18
0.10412	57.97
0.12078	58.01
0.13745	58.01
0.15412	58.01
0.17078	58.00
0.18745	58.00
0.20412	58.00
0.22078	58.00
0.23745	58.00
0.25412	58.00
0.27078	58.00
0.28745	58.00
0.30412	58.00
0.32078	58.00
0.33745	58.00
0.35412	58.00
0.37078	58.00
0.38745	58.00
0.40412	58.00
0.42078	58.00
0.43745	58.00
0.45412	58.00
0.47078	58.00
0.48745	58.00
0.50412	58.00
0.52078	58.00
0.53745	58.00
0.55412	58.00
0.57078	58.00
0.58745	58.00
0.60412	58.00
0.62078	58.00
0.63745	58.00
0.65412	58.00
0.67078	58.00
0.68745	58.00
0.70412	58.00
0.72078	58.00
0.73745	58.00
0.75412	58.00
0.77078	58.00
0.78745	58.00
0.80412	58.00
0.82078	58.00
0.83745	58.00
0.85412	58.00
0.87078	58.00
0.88745	58.00
0.90412	58.00
0.92078	58.00
0.93745	58.00
0.95412	58.00
0.97078	58.00
0.98745	58.00
1.00412	58.00
1.02078	58.00
1.03745	58.00
1.05412	58.00
1.07078	58.00
1.08745	58.00
1.10412	58.00
1.12078	58.00
1.13745	58.00
1.15412	58.00
1.17078	58.00
1.18745	58.00
1.20412	58.00
1.22078	58.00
1.23745	58.00
1.25412	58.00
1.27078	58.00
1.28745	58.00
1.30412	58.00
1.32078	58.00
1.33745	58.00
1.35412	58.00
1.37078	58.00
1.38745	58.00
1.40412	58.00
1.42078	58.00
1.43745	58.00
1.45412	58.00
1.47078	58.00
1.48745	58.00
1.50412	58.00
1.52078	58.00
1.53745	58.00
1.55412	58.00
1.57078	58.00
1.58745	58.00
1.60412	58.00
1.62078	58.00
1.63745	58.00
1.65412	58.00
1.67078	58.01
1.68745	58.01
1.70412	58.00
1.72078	58.00
1.73745	58.00
1.75412	58.00
1.77078	58.00
1.78745	58.00
1.80412	58.00
1.82078	58.00
1.83745	58.00
1.85412	58.00
1.87078	58.00
1.88745	58.00
1.90412	58.00
1.92078	58.00
1.93745	58.00
1.95412	58.00
1.97078	58.00
1.98745	58.00
2.00412	58.00
2.02078	58.00
2.03745	58.00
2.05412	58.00
2.07078	58.00
2.08745	58.00
2.10412	58.00
2.12078	58.00
2.13745	58.00
2.15412	58.00
2.17078	58.00
2.18745	58.00
2.20412	58.00
2.22078	58.00
2.23745	58.00
2.25412	58.00
2.27078	58.00
2.28745	58.00
2.30412	58.00
2.32078	58.00
2.33745	58.00
2.35412	58.00
2.37078	58.00
2.38745	57.99
2.40412	57.99
2.42078	58.00
2.43745	58.00
2.45412	58.00
2.47078	58.00
2.48745	58.00
2.50412	57.98
2.52078	57.99
2.53745	58.00
2.55412	58.00
2.57078	58.00
2.58745	58.00
2.60412	58.00
2.62078	58.00
2.63745	58.00
2.65412	58.00
2.67078	58.00
2.68745	58.00
2.70412	58.00
2.72078	58.00
2.73745	58.00
2.75412	58.00
2.77078	58.00
2.78745	58.00
2.80412	58.00
2.82078	58.00
2.83745	58.00
2.85412	58.00
2.87078	58.00
2.88745	58.00
2.90412	58.00
2.92078	58.00
2.93745	58.00
2.95412	58.00
2.97078	58.00
2.98745	58.00
3.00412	58.00
3.02078	58.00
3.03745	58.00
3.05412	58.00
3.07078	58.00
3.08745	58.00
3.10412	58.00
3.12078	58.00
3.13745	58.00
3.15412	58.00
3.17078	58.00
3.18745	58.00
3.20412	58.00
3.22078	58.00
3.23745	58.00
3.25412	58.00
3.27078	58.00
3.28745	58.00
3.30412	58.00
3.32078	58.00
3.33745	58.00
3.35412	58.00
3.37078	58.00
3.38745	58.00
3.40412	58.00
3.42078	58.00
3.43745	58.00
3.45412	58.00
3.47078	58.00
3.48745	58.00
3.50412	58.00
3.52078	58.00
3.53745	58.00
3.55412	58.00
3.57078	58.00
3.58745	58.00
3.60412	58.00
3.62078	58.00
3.63745	58.00
3.65412	58.00
3.67078	58.00
3.68745	58.00
3.70412	58.00
3.72078	58.00
3.73745	58.00
3.75412	58.00
3.77078	58.00
3.78745	58.00
3.80412	58.00
3.82078	58.00
3.83745	58.00
3.85412	58.00
3.87078	58.00
3.88745	58.00
3.90412	58.00
3.92078	58.00
3.93745	58.00
3.95412	58.00
3.97078	58.00
3.98745	58.00

[Status Trace (Carrier Gas Flow)]
Interval(msec)	1000
# of Points	240
Start Time(min)	0.004
End Time(min)	3.987
Intensity Units	
Intensity Multiplier	1
R.Time (min)	Intensity
0.00412	34.52
0.02078	34.57
0.03745	34.55
0.05412	34.54
0.07078	34.50
0.08745	34.52
0.10412	34.52
0.12078	34.52
0.13745	34.52
0.15412	34.52
0.17078	34.52
0.18745	34.52
0.20412	34.52
0.22078	34.52
0.23745	34.52
0.25412	34.52
0.27078	34.51
0.28745	34.52
0.30412	34.52
0.32078	34.52
0.33745	34.51
0.35412	34.52
0.37078	34.52
0.38745	34.52
0.40412	34.52
0.42078	34.52
0.43745	34.52
0.45412	34.52
0.47078	34.51
0.48745	34.52
0.50412	34.52
0.52078	34.52
0.53745	34.52
0.55412	34.52
0.57078	34.52
0.58745	34.52
0.60412	34.52
0.62078	34.52
0.63745	34.51
0.65412	34.52
0.67078	34.52
0.68745	34.52
0.70412	34.52
0.72078	34.52
0.73745	34.52
0.75412	34.52
0.77078	34.52
0.78745	34.52
0.80412	34.51
0.82078	34.52
0.83745	34.52
0.85412	34.52
0.87078	34.52
0.88745	34.52
0.90412	34.52
0.92078	34.52
0.93745	34.51
0.95412	34.53
0.97078	34.53
0.98745	34.53
1.00412	34.52
1.02078	34.52
1.03745	34.51
1.05412	34.52
1.07078	34.52
1.08745	34.53
1.10412	34.52
1.12078	34.52
1.13745	34.52
1.15412	34.52
1.17078	34.52
1.18745	34.52
1.20412	34.52
1.22078	34.52
1.23745	34.52
1.25412	34.52
1.27078	34.52
1.28745	34.52
1.30412	34.52
1.32078	34.51
1.33745	34.52
1.35412	34.52
1.37078	34.52
1.38745	34.52
1.40412	34.51
1.42078	34.51
1.43745	34.52
1.45412	34.52
1.47078	34.52
1.48745	34.52
1.50412	34.52
1.52078	34.51
1.53745	34.52
1.55412	34.52
1.57078	34.52
1.58745	34.52
1.60412	34.52
1.62078	34.52
1.63745	34.52
1.65412	34.52
1.67078	34.51
1.68745	34.52
1.70412	34.52
1.72078	34.52
1.73745	34.52
1.75412	34.51
1.77078	34.53
1.78745	34.52
1.80412	34.51
1.82078	34.52
1.83745	34.52
1.85412	34.52
1.87078	34.52
1.88745	34.52
1.90412	34.52
1.92078	34.52
1.93745	34.52
1.95412	34.52
1.97078	34.52
1.98745	34.52
2.00412	34.51
2.02078	34.52
2.03745	34.52
2.05412	34.52
2.07078	34.52
2.08745	34.52
2.10412	34.52
2.12078	34.52
2.13745	34.52
2.15412	34.51
2.17078	34.52
2.18745	34.52
2.20412	34.52
2.22078	34.51
2.23745	34.51
2.25412	34.52
2.27078	34.52
2.28745	34.52
2.30412	34.52
2.32078	34.52
2.33745	34.52
2.35412	34.52
2.37078	34.52
2.38745	34.52
2.40412	34.52
2.42078	34.52
2.43745	34.51
2.45412	34.52
2.47078	34.52
2.48745	34.52
2.50412	34.63
2.52078	34.52
2.53745	34.52
2.55412	34.52
2.57078	34.52
2.58745	34.52
2.60412	34.52
2.62078	34.51
2.63745	34.52
2.65412	34.53
2.67078	34.51
2.68745	34.53
2.70412	34.51
2.72078	34.53
2.73745	34.52
2.75412	34.51
2.77078	34.51
2.78745	34.52
2.80412	34.52
2.82078	34.52
2.83745	34.53
2.85412	34.52
2.87078	34.52
2.88745	34.52
2.90412	34.51
2.92078	34.51
2.93745	34.52
2.95412	34.52
2.97078	34.52
2.98745	34.52
3.00412	34.52
3.02078	34.52
3.03745	34.52
3.05412	34.52
3.07078	34.52
3.08745	34.52
3.10412	34.51
3.12078	34.52
3.13745	34.52
3.15412	34.52
3.17078	34.52
3.18745	34.52
3.20412	34.52
3.22078	34.52
3.23745	34.52
3.25412	34.52
3.27078	34.52
3.28745	34.52
3.30412	34.51
3.32078	34.52
3.33745	34.52
3.35412	34.52
3.37078	34.51
3.38745	34.51
3.40412	34.52
3.42078	34.52
3.43745	34.52
3.45412	34.52
3.47078	34.52
3.48745	34.52
3.50412	34.52
3.52078	34.52
3.53745	34.51
3.55412	34.52
3.57078	34.52
3.58745	34.52
3.60412	34.52
3.62078	34.52
3.63745	34.52
3.65412	34.52
3.67078	34.52
3.68745	34.52
3.70412	34.52
3.72078	34.52
3.73745	34.52
3.75412	34.52
3.77078	34.52
3.78745	34.52
3.80412	34.52
3.82078	34.52
3.83745	34.51
3.85412	34.52
3.87078	34.51
3.88745	34.52
3.90412	34.52
3.92078	34.52
3.93745	34.51
3.95412	34.52
3.97078	34.52
3.98745	34.52

[Status Trace (Column Flow)]
Interval(msec)	1000
# of Points	240
Start Time(min)	0.004
End Time(min)	3.987
Intensity Units	
Intensity Multiplier	1
R.Time (min)	Intensity
0.00412	5.52
0.02078	5.28
0.03745	5.36
0.05412	5.60
0.07078	5.72
0.08745	5.54
0.10412	5.51
0.12078	5.52
0.13745	5.52
0.15412	5.51
0.17078	5.51
0.18745	5.51
0.20412	5.51
0.22078	5.51
0.23745	5.51
0.25412	5.52
0.27078	5.52
0.28745	5.52
0.30412	5.52
0.32078	5.52
0.33745	5.52
0.35412	5.52
0.37078	5.52
0.38745	5.52
0.40412	5.52
0.42078	5.52
0.43745	5.52
0.45412	5.52
0.47078	5.52
0.48745	5.52
0.50412	5.52
0.52078	5.52
0.53745	5.52
0.55412	5.52
0.57078	5.52
0.58745	5.52
0.60412	5.52
0.62078	5.52
0.63745	5.52
0.65412	5.52
0.67078	5.52
0.68745	5.52
0.70412	5.52
0.72078	5.52
0.73745	5.52
0.75412	5.52
0.77078	5.52
0.78745	5.52
0.80412	5.52
0.82078	5.52
0.83745	5.52
0.85412	5.52
0.87078	5.52
0.88745	5.52
0.90412	5.52
0.92078	5.52
0.93745	5.52
0.95412	5.52
0.97078	5.52
0.98745	5.52
1.00412	5.52
1.02078	5.52
1.03745	5.52
1.05412	5.52
1.07078	5.52
1.08745	5.52
1.10412	5.52
1.12078	5.52
1.13745	5.52
1.15412	5.52
1.17078	5.52
1.18745	5.52
1.20412	5.52
1.22078	5.52
1.23745	5.52
1.25412	5.52
1.27078	5.52
1.28745	5.52
1.30412	5.52
1.32078	5.52
1.33745	5.52
1.35412	5.52
1.37078	5.52
1.38745	5.52
1.40412	5.52
1.42078	5.52
1.43745	5.52
1.45412	5.52
1.47078	5.52
1.48745	5.52
1.50412	5.52
1.52078	5.52
1.53745	5.52
1.55412	5.52
1.57078	5.52
1.58745	5.52
1.60412	5.52
1.62078	5.51
1.63745	5.51
1.65412	5.50
1.67078	5.49
1.68745	5.48
1.70412	5.47
1.72078	5.46
1.73745	5.45
1.75412	5.44
1.77078	5.43
1.78745	5.42
1.80412	5.41
1.82078	5.40
1.83745	5.38
1.85412	5.38
1.87078	5.36
1.88745	5.35
1.90412	5.35
1.92078	5.34
1.93745	5.33
1.95412	5.32
1.97078	5.31
1.98745	5.30
2.00412	5.29
2.02078	5.28
2.03745	5.27
2.05412	5.26
2.07078	5.25
2.08745	5.24
2.10412	5.23
2.12078	5.22
2.13745	5.21
2.15412	5.20
2.17078	5.19
2.18745	5.18
2.20412	5.17
2.22078	5.16
2.23745	5.16
2.25412	5.15
2.27078	5.14
2.28745	5.13
2.30412	5.12
2.32078	5.11
2.33745	5.10
2.35412	5.09
2.37078	5.08
2.38745	5.08
2.40412	5.08
2.42078	5.08
2.43745	5.08
2.45412	5.08
2.47078	5.08
2.48745	5.08
2.50412	5.08
2.52078	5.08
2.53745	5.08
2.55412	5.08
2.57078	5.08
2.58745	5.08
2.60412	5.08
2.62078	5.08
2.63745	5.08
2.65412	5.08
2.67078	5.08
2.68745	5.08
2.70412	5.08
2.72078	5.08
2.73745	5.08
2.75412	5.08
2.77078	5.08
2.78745	5.08
2.80412	5.08
2.82078	5.08
2.83745	5.08
2.85412	5.08
2.87078	5.08
2.88745	5.08
2.90412	5.08
2.92078	5.08
2.93745	5.08
2.95412	5.08
2.97078	5.07
2.98745	5.07
3.00412	5.07
3.02078	5.07
3.03745	5.07
3.05412	5.07
3.07078	5.07
3.08745	5.07
3.10412	5.07
3.12078	5.07
3.13745	5.07
3.15412	5.07
3.17078	5.07
3.18745	5.07
3.20412	5.07
3.22078	5.07
3.23745	5.07
3.25412	5.07
3.27078	5.07
3.28745	5.07
3.30412	5.07
3.32078	5.07
3.33745	5.07
3.35412	5.07
3.37078	5.07
3.38745	5.07
3.40412	5.07
3.42078	5.07
3.43745	5.07
3.45412	5.07
3.47078	5.07
3.48745	5.07
3.50412	5.07
3.52078	5.07
3.53745	5.07
3.55412	5.07
3.57078	5.07
3.58745	5.07
3.60412	5.07
3.62078	5.07
3.63745	5.07
3.65412	5.07
3.67078	5.07
3.68745	5.07
3.70412	5.07
3.72078	5.07
3.73745	5.07
3.75412	5.07
3.77078	5.07
3.78745	5.07
3.80412	5.07
3.82078	5.07
3.83745	5.07
3.85412	5.07
3.87078	5.07
3.88745	5.07
3.90412	5.07
3.92078	5.07
3.93745	5.07
3.95412	5.07
3.97078	5.07
3.98745	5.07

[Status Trace (Linear Velocity)]
Interval(msec)	1000
# of Points	240
Start Time(min)	0.004
End Time(min)	3.987
Intensity Units	
Intensity Multiplier	1
R.Time (min)	Intensity
0.00412	39.01
0.02078	37.67
0.03745	38.11
0.05412	39.51
0.07078	40.17
0.08745	39.13
0.10412	38.99
0.12078	39.01
0.13745	39.02
0.15412	39.01
0.17078	39.01
0.18745	39.01
0.20412	39.01
0.22078	39.01
0.23745	39.01
0.25412	39.01
0.27078	39.01
0.28745	39.01
0.30412	39.01
0.32078	39.01
0.33745	39.01
0.35412	39.01
0.37078	39.01
0.38745	39.01
0.40412	39.01
0.42078	39.01
0.43745	39.01
0.45412	39.01
0.47078	39.01
0.48745	39.01
0.50412	39.01
0.52078	39.01
0.53745	39.01
0.55412	39.01
0.57078	39.01
0.58745	39.01
0.60412	39.01
0.62078	39.01
0.63745	39.01
0.65412	39.01
0.67078	39.02
0.68745	39.01
0.70412	39.02
0.72078	39.02
0.73745	39.02
0.75412	39.02
0.77078	39.02
0.78745	39.02
0.80412	39.02
0.82078	39.02
0.83745	39.02
0.85412	39.02
0.87078	39.02
0.88745	39.02
0.90412	39.02
0.92078	39.02
0.93745	39.02
0.95412	39.02
0.97078	39.01
0.98745	39.01
1.00412	39.01
1.02078	39.01
1.03745	39.01
1.05412	39.01
1.07078	39.01
1.08745	39.01
1.10412	39.01
1.12078	39.02
1.13745	39.02
1.15412	39.02
1.17078	39.02
1.18745	39.02
1.20412	39.02
1.22078	39.01
1.23745	39.01
1.25412	39.01
1.27078	39.01
1.28745	39.01
1.30412	39.01
1.32078	39.01
1.33745	39.01
1.35412	39.01
1.37078	39.01
1.38745	39.01
1.40412	39.02
1.42078	39.02
1.43745	39.02
1.45412	39.02
1.47078	39.02
1.48745	39.02
1.50412	39.02
1.52078	39.02
1.53745	39.02
1.55412	39.02
1.57078	39.02
1.58745	39.02
1.60412	39.01
1.62078	39.00
1.63745	38.99
1.65412	38.97
1.67078	38.94
1.68745	38.90
1.70412	38.86
1.72078	38.83
1.73745	38.80
1.75412	38.77
1.77078	38.74
1.78745	38.70
1.80412	38.67
1.82078	38.64
1.83745	38.61
1.85412	38.58
1.87078	38.55
1.88745	38.52
1.90412	38.49
1.92078	38.46
1.93745	38.43
1.95412	38.40
1.97078	38.37
1.98745	38.34
2.00412	38.31
2.02078	38.27
2.03745	38.24
2.05412	38.22
2.07078	38.18
2.08745	38.15
2.10412	38.13
2.12078	38.10
2.13745	38.07
2.15412	38.04
2.17078	38.01
2.18745	37.98
2.20412	37.95
2.22078	37.92
2.23745	37.89
2.25412	37.86
2.27078	37.83
2.28745	37.80
2.30412	37.77
2.32078	37.74
2.33745	37.71
2.35412	37.69
2.37078	37.66
2.38745	37.65
2.40412	37.65
2.42078	37.65
2.43745	37.65
2.45412	37.65
2.47078	37.65
2.48745	37.65
2.50412	37.64
2.52078	37.65
2.53745	37.65
2.55412	37.65
2.57078	37.65
2.58745	37.65
2.60412	37.65
2.62078	37.65
2.63745	37.65
2.65412	37.65
2.67078	37.65
2.68745	37.64
2.70412	37.64
2.72078	37.64
2.73745	37.64
2.75412	37.64
2.77078	37.64
2.78745	37.64
2.80412	37.64
2.82078	37.64
2.83745	37.64
2.85412	37.64
2.87078	37.64
2.88745	37.64
2.90412	37.64
2.92078	37.64
2.93745	37.64
2.95412	37.64
2.97078	37.63
2.98745	37.63
3.00412	37.63
3.02078	37.63
3.03745	37.63
3.05412	37.63
3.07078	37.63
3.08745	37.63
3.10412	37.63
3.12078	37.63
3.13745	37.63
3.15412	37.63
3.17078	37.63
3.18745	37.62
3.20412	37.62
3.22078	37.62
3.23745	37.62
3.25412	37.62
3.27078	37.62
3.28745	37.62
3.30412	37.62
3.32078	37.62
3.33745	37.63
3.35412	37.63
3.37078	37.63
3.38745	37.63
3.40412	37.63
3.42078	37.63
3.43745	37.63
3.45412	37.63
3.47078	37.63
3.48745	37.63
3.50412	37.63
3.52078	37.63
3.53745	37.63
3.55412	37.63
3.57078	37.63
3.58745	37.63
3.60412	37.63
3.62078	37.63
3.63745	37.63
3.65412	37.63
3.67078	37.63
3.68745	37.63
3.70412	37.63
3.72078	37.63
3.73745	37.63
3.75412	37.63
3.77078	37.63
3.78745	37.63
3.80412	37.63
3.82078	37.63
3.83745	37.63
3.85412	37.63
3.87078	37.63
3.88745	37.63
3.90412	37.63
3.92078	37.63
3.93745	37.63
3.95412	37.63
3.97078	37.63
3.98745	37.63

