[Header]
Application Name	LabSolutions
Version	5.110
Data File Name	C:\Users\User\Desktop\GC Analyses\Jack\Nachusa Grasslands Sampling\T2 Timepoint July 12th\T2_07122022_024.gcd
Output Date	3/14/2023
Output Time	3:42:31 PM

[File Information]
Type	Data File
Generated	3/10/2023 2:59:58 PM
Generated by	System Administrator
Modified	3/10/2023 3:06:37 PM
Modified by	System Administrator

[Sample Information]
Operator Name	System Administrator
Acquired	3/10/2023 3:02:36 PM
Sample Type	0:Unknown
Level	0
Sample Name	024
Sample ID	024
ISTD Amount1	1
ISTD Amount2	1
ISTD Amount3	1
ISTD Amount4	1
ISTD Amount5	1
ISTD Amount6	1
ISTD Amount7	1
ISTD Amount8	1
ISTD Amount9	1
ISTD Amount10	1
ISTD Amount11	1
ISTD Amount12	1
ISTD Amount13	1
ISTD Amount14	1
ISTD Amount15	1
ISTD Amount16	1
ISTD Amount17	1
ISTD Amount18	1
ISTD Amount19	1
ISTD Amount20	1
ISTD Amount21	1
ISTD Amount22	1
ISTD Amount23	1
ISTD Amount24	1
ISTD Amount25	1
ISTD Amount26	1
ISTD Amount27	1
ISTD Amount28	1
ISTD Amount29	1
ISTD Amount30	1
ISTD Amount31	1
ISTD Amount32	1
Sample Amount	1
Dilution Factor	1
Vial#	23
Injection Volume	1
Injection Count	1
Bar Code	

[Original Files]
Data File	C:\Users\User\Desktop\GC Analyses\Jack\Nachusa Grasslands Sampling\T1 Timepoint July 12th\T2_07122022_024.gcd
Method File	C:\LabSolutions\Data\GHG_4min_2022\ghg3_togas_w_acet_4 min_new_int.gcm
Batch File	C:\LabSolutions\Data\AutoSamplerTesting\T2_07122022.gcb
Report Format File	c:\LabSolutions\System\DEFAULT.lsr

[File Description]


[Configuration]
Instrument Name	C0B7VH3-Instrument1
Instrument #	1
Line #	1
# of Detectors	3
Detector ID	DET#1	DET#2	DET#3
Detector Name	FID	PTCD	ECD
# of Channels	1	1	1

[Peak Table(Ch1)]
# of Peaks	3
Peak#	R.Time	I.Time	F.Time	Area	Height	A/H	Conc.	Mark	ID#	Name	k'	Plate #	Plate Ht.	Tailing	Resolution	Sep.Factor	Area Ratio	Height Ratio	Conc. %	Norm Conc.
1	1.476	1.439	1.538	29884	14278	2.093	210.984	   	1	CO	0.000	9508	15.776	1.306	0.000	0.000	0	0	27.531	27.531
2	1.567	1.538	1.619	4526	2248	2.013	87.517	 V 	2	CH4	0.062	10638	14.100	0.000	1.511	0.000	0	0	11.420	11.420
3	1.996	1.938	2.561	1864129	890070	2.094	467.846	   	3	CO2	0.353	17421	8.610	1.289	7.074	5.680	0	0	61.049	61.049

[Peak Table(Ch2)]
# of Peaks	0

[Peak Table(Ch3)]
# of Peaks	4
Peak#	R.Time	I.Time	F.Time	Area	Height	A/H	Conc.	Mark	ID#	Name	k'	Plate #	Plate Ht.	Tailing	Resolution	Sep.Factor	Area Ratio	Height Ratio	Conc. %	Norm Conc.
1	2.462	2.378	2.513	1719	563	3.056	0.000	   			0.000	9300	16.128	0.000	0.000	0.000	0	0	0.000	0.000
2	2.539	2.513	2.634	1270	311	4.084	0.000	 V 			0.031	4852	30.914	0.000	0.621	0.000	0	0	0.000	0.000
3	2.664	2.634	2.719	174	59	2.967	0.000	 V 			0.082	13074	11.473	0.000	1.043	2.619	0	0	0.000	0.000
4	2.876	2.814	3.045	18354	4914	3.735	0.469	   	1	N2O	0.168	13407	11.189	1.626	2.209	2.055	0	0	100.000	100.000

[Compound Results(Ch1)]
# of IDs	6
ID#	Name	R.Time	Area	Height	Conc.	Curve	3rd	2nd	1st	Constant	Area Ratio	Height Ratio	Conc. %	Norm Conc.
1	CO	1.476	29884	14278	210.984	Linear	0.000000e+00	0.000000e+00	1.416423e+002	0.000000e+00	0	0	27.531	27.531
2	CH4	1.567	4526	2248	87.517	Linear	0.000000e+00	0.000000e+00	5.171738e+001	0.000000e+00	0	0	11.420	11.420
3	CO2	1.996	1864129	890070	467.846	Linear	0.000000e+00	0.000000e+00	3.984494e+003	0.000000e+00	0	0	61.049	61.049
4	Ethylene	0.000	0	0	0.000	Linear	0.000000e+00	0.000000e+00	0.000000e+00	0.000000e+00	0	0	0.000	0.000
5	Acetylene	0.000	0	0	0.000	Linear	0.000000e+00	0.000000e+00	0.000000e+00	0.000000e+00	0	0	0.000	0.000
6	Ethane	0.000	0	0	0.000	Linear	0.000000e+00	0.000000e+00	0.000000e+00	0.000000e+00	0	0	0.000	0.000

[Compound Results(Ch2)]
# of IDs	5
ID#	Name	R.Time	Area	Height	Conc.	Curve	3rd	2nd	1st	Constant	Area Ratio	Height Ratio	Conc. %	Norm Conc.
1	Hydrogen	0.000	0	0	0.000	Linear	0.000000e+00	0.000000e+00	0.000000e+00	0.000000e+00	0	0	0.000	0.000
2	Oxygen	0.000	0	0	0.000	Linear	0.000000e+00	0.000000e+00	0.000000e+00	0.000000e+00	0	0	0.000	0.000
3	Nitrogen	0.000	0	0	0.000	Linear	0.000000e+00	0.000000e+00	0.000000e+00	0.000000e+00	0	0	0.000	0.000
4	Methane	0.000	0	0	0.000	Linear	0.000000e+00	0.000000e+00	0.000000e+00	0.000000e+00	0	0	0.000	0.000
5	Carbon Monoxide	0.000	0	0	0.000	Linear	0.000000e+00	0.000000e+00	0.000000e+00	0.000000e+00	0	0	0.000	0.000

[Compound Results(Ch3)]
# of IDs	2
ID#	Name	R.Time	Area	Height	Conc.	Curve	3rd	2nd	1st	Constant	Area Ratio	Height Ratio	Conc. %	Norm Conc.
1	N2O	2.876	18354	4914	0.469	Linear	0.000000e+00	0.000000e+00	3.915173e+004	0.000000e+00	0	0	100.000	100.000
2	SF6	0.000	0	0	0.000	Linear	0.000000e+00	0.000000e+00	0.000000e+00	0.000000e+00	0	0	0.000	0.000

[Group Results(Ch1)]
# of Groups	0

[Group Results(Ch2)]
# of Groups	0

[Group Results(Ch3)]
# of Groups	0

[Chromatogram (Ch1)]
Interval(msec)	220
# of Points	1091
Start Time(min)	0.002
End Time(min)	3.998
R.Time (min)	Intensity
0.00167	-22
0.00533	-6
0.00900	5
0.01267	12
0.01633	10
0.02000	2
0.02367	-6
0.02733	-13
0.03100	-17
0.03467	-18
0.03833	-16
0.04200	-12
0.04567	-6
0.04933	-3
0.05300	1
0.05667	3
0.06033	2
0.06400	-0
0.06767	-2
0.07133	1
0.07500	6
0.07867	5
0.08233	-3
0.08600	-12
0.08967	-16
0.09333	-17
0.09700	-16
0.10067	-17
0.10433	-15
0.10800	-8
0.11167	-4
0.11533	-3
0.11900	-3
0.12267	-4
0.12633	-9
0.13000	-19
0.13367	-24
0.13733	-22
0.14100	-16
0.14467	-12
0.14833	-11
0.15200	-11
0.15567	-12
0.15933	-11
0.16300	-9
0.16667	-4
0.17033	-3
0.17400	-6
0.17767	-6
0.18133	-2
0.18500	4
0.18867	3
0.19233	1
0.19600	-3
0.19967	-10
0.20333	-12
0.20700	-16
0.21067	-19
0.21433	-19
0.21800	-13
0.22167	-3
0.22533	5
0.22900	9
0.23267	8
0.23633	2
0.24000	-3
0.24367	-4
0.24733	-5
0.25100	-11
0.25467	-19
0.25833	-21
0.26200	-15
0.26567	-6
0.26933	-4
0.27300	-5
0.27667	-6
0.28033	-10
0.28400	-15
0.28767	-16
0.29133	-15
0.29500	-12
0.29867	-8
0.30233	-5
0.30600	-1
0.30967	6
0.31333	17
0.31700	19
0.32067	13
0.32433	4
0.32800	-4
0.33167	-11
0.33533	-14
0.33900	-17
0.34267	-24
0.34633	-31
0.35000	-36
0.35367	-40
0.35733	-40
0.36100	-37
0.36467	-33
0.36833	-27
0.37200	-20
0.37567	-9
0.37933	3
0.38300	8
0.38667	6
0.39033	5
0.39400	1
0.39767	-6
0.40133	-14
0.40500	-22
0.40867	-31
0.41233	-37
0.41600	-39
0.41967	-38
0.42333	-35
0.42700	-30
0.43067	-18
0.43433	-9
0.43800	-5
0.44167	1
0.44533	6
0.44900	0
0.45267	-8
0.45633	-14
0.46000	-17
0.46367	-17
0.46733	-13
0.47100	-15
0.47467	-19
0.47833	-23
0.48200	-25
0.48567	-28
0.48933	-31
0.49300	-31
0.49667	-27
0.50033	-22
0.50400	-18
0.50767	-18
0.51133	-16
0.51500	-11
0.51867	-6
0.52233	-6
0.52600	-6
0.52967	-9
0.53333	-17
0.53700	-26
0.54067	-28
0.54433	-29
0.54800	-31
0.55167	-33
0.55533	-30
0.55900	-26
0.56267	-25
0.56633	-18
0.57000	-9
0.57367	-8
0.57733	-12
0.58100	-13
0.58467	-11
0.58833	-9
0.59200	-11
0.59567	-16
0.59933	-22
0.60300	-27
0.60667	-32
0.61033	-40
0.61400	-46
0.61767	-46
0.62133	-43
0.62500	-38
0.62867	-31
0.63233	-26
0.63600	-21
0.63967	-19
0.64333	-21
0.64700	-26
0.65067	-27
0.65433	-25
0.65800	-23
0.66167	-26
0.66533	-29
0.66900	-35
0.67267	-40
0.67633	-41
0.68000	-41
0.68367	-39
0.68733	-36
0.69100	-35
0.69467	-33
0.69833	-31
0.70200	-33
0.70567	-32
0.70933	-24
0.71300	-11
0.71667	-1
0.72033	-0
0.72400	-8
0.72767	-21
0.73133	-32
0.73500	-32
0.73867	-32
0.74233	-36
0.74600	-44
0.74967	-53
0.75333	-55
0.75700	-55
0.76067	-54
0.76433	-53
0.76800	-52
0.77167	-45
0.77533	-36
0.77900	-28
0.78267	-25
0.78633	-25
0.79000	-26
0.79367	-24
0.79733	-22
0.80100	-22
0.80467	-27
0.80833	-39
0.81200	-54
0.81567	-63
0.81933	-61
0.82300	-53
0.82667	-43
0.83033	-38
0.83400	-38
0.83767	-38
0.84133	-37
0.84500	-42
0.84867	-47
0.85233	-48
0.85600	-49
0.85967	-51
0.86333	-56
0.86700	-59
0.87067	-54
0.87433	-41
0.87800	-27
0.88167	-22
0.88533	-23
0.88900	-26
0.89267	-30
0.89633	-37
0.90000	-43
0.90367	-48
0.90733	-47
0.91100	-43
0.91467	-39
0.91833	-36
0.92200	-35
0.92567	-38
0.92933	-42
0.93300	-42
0.93667	-41
0.94033	-42
0.94400	-43
0.94767	-45
0.95133	-46
0.95500	-47
0.95867	-47
0.96233	-46
0.96600	-39
0.96967	-31
0.97333	-23
0.97700	-17
0.98067	-13
0.98433	-15
0.98800	-23
0.99167	-30
0.99533	-38
0.99900	-50
1.00267	-61
1.00633	-72
1.01000	-79
1.01367	-82
1.01733	-80
1.02100	-76
1.02467	-71
1.02833	-67
1.03200	-66
1.03567	-66
1.03933	-62
1.04300	-58
1.04667	-54
1.05033	-51
1.05400	-45
1.05767	-41
1.06133	-44
1.06500	-50
1.06867	-53
1.07233	-51
1.07600	-48
1.07967	-47
1.08333	-45
1.08700	-45
1.09067	-49
1.09433	-52
1.09800	-55
1.10167	-57
1.10533	-55
1.10900	-52
1.11267	-46
1.11633	-41
1.12000	-35
1.12367	-34
1.12733	-35
1.13100	-35
1.13467	-34
1.13833	-36
1.14200	-45
1.14567	-54
1.14933	-56
1.15300	-55
1.15667	-56
1.16033	-60
1.16400	-65
1.16767	-71
1.17133	-77
1.17500	-81
1.17867	-80
1.18233	-76
1.18600	-69
1.18967	-64
1.19333	-66
1.19700	-70
1.20067	-70
1.20433	-68
1.20800	-65
1.21167	-62
1.21533	-58
1.21900	-58
1.22267	-61
1.22633	-60
1.23000	-55
1.23367	-53
1.23733	-53
1.24100	-53
1.24467	-51
1.24833	-50
1.25200	-53
1.25567	-59
1.25933	-63
1.26300	-66
1.26667	-67
1.27033	-68
1.27400	-69
1.27767	-71
1.28133	-74
1.28500	-73
1.28867	-69
1.29233	-59
1.29600	-48
1.29967	-39
1.30333	-36
1.30700	-43
1.31067	-53
1.31433	-60
1.31800	-63
1.32167	-58
1.32533	-57
1.32900	-58
1.33267	-56
1.33633	-54
1.34000	-49
1.34367	-39
1.34733	-29
1.35100	-26
1.35467	-30
1.35833	-36
1.36200	-42
1.36567	-43
1.36933	-39
1.37300	-35
1.37667	-32
1.38033	-28
1.38400	-27
1.38767	-30
1.39133	-35
1.39500	-40
1.39867	-38
1.40233	-32
1.40600	-24
1.40967	-17
1.41333	-12
1.41700	-9
1.42067	-11
1.42433	-20
1.42800	-31
1.43167	-39
1.43533	-44
1.43900	-27
1.44267	67
1.44633	320
1.45000	969
1.45367	2454
1.45733	4847
1.46100	7645
1.46467	10262
1.46833	12346
1.47200	13726
1.47567	14267
1.47933	13857
1.48300	12540
1.48667	10591
1.49033	8424
1.49400	6395
1.49767	4702
1.50133	3393
1.50500	2434
1.50867	1754
1.51233	1280
1.51600	948
1.51967	715
1.52333	553
1.52700	436
1.53067	351
1.53433	288
1.53800	260
1.54167	304
1.54533	474
1.54900	789
1.55267	1194
1.55633	1601
1.56000	1939
1.56367	2171
1.56733	2275
1.57100	2221
1.57467	2007
1.57833	1679
1.58200	1312
1.58567	973
1.58933	696
1.59300	488
1.59667	341
1.60033	236
1.60400	162
1.60767	113
1.61133	81
1.61500	60
1.61867	49
1.62233	46
1.62600	43
1.62967	41
1.63333	41
1.63700	39
1.64067	34
1.64433	31
1.64800	28
1.65167	25
1.65533	22
1.65900	15
1.66267	4
1.66633	-4
1.67000	-8
1.67367	-10
1.67733	-9
1.68100	-4
1.68467	-0
1.68833	-7
1.69200	-16
1.69567	-19
1.69933	-20
1.70300	-19
1.70667	-15
1.71033	-11
1.71400	-12
1.71767	-15
1.72133	-18
1.72500	-19
1.72867	-16
1.73233	-11
1.73600	-3
1.73967	1
1.74333	-0
1.74700	-10
1.75067	-22
1.75433	-29
1.75800	-31
1.76167	-26
1.76533	-19
1.76900	-10
1.77267	-1
1.77633	6
1.78000	7
1.78367	2
1.78733	-7
1.79100	-12
1.79467	-17
1.79833	-24
1.80200	-29
1.80567	-28
1.80933	-24
1.81300	-20
1.81667	-17
1.82033	-14
1.82400	-7
1.82767	-1
1.83133	4
1.83500	7
1.83867	5
1.84233	0
1.84600	-9
1.84967	-23
1.85333	-35
1.85700	-37
1.86067	-32
1.86433	-21
1.86800	-8
1.87167	-2
1.87533	-2
1.87900	-3
1.88267	-5
1.88633	-8
1.89000	-7
1.89367	-3
1.89733	1
1.90100	4
1.90467	1
1.90833	-9
1.91200	-24
1.91567	-37
1.91933	-42
1.92300	-44
1.92667	-41
1.93033	-36
1.93400	-35
1.93767	-30
1.94133	-23
1.94500	-15
1.94867	-6
1.95233	23
1.95600	180
1.95967	1086
1.96333	5223
1.96700	19488
1.97067	57249
1.97433	134891
1.97800	259908
1.98167	420828
1.98533	591071
1.98900	740507
1.99267	845136
1.99633	890079
2.00000	870449
2.00367	793593
2.00733	677490
2.01100	544999
2.01467	416788
2.01833	306308
2.02200	218836
2.02567	153689
2.02933	107202
2.03300	74970
2.03667	53017
2.04033	38198
2.04400	28210
2.04767	21447
2.05133	16810
2.05500	13577
2.05867	11270
2.06233	9582
2.06600	8318
2.06967	7345
2.07333	6577
2.07700	5955
2.08067	5443
2.08433	5013
2.08800	4650
2.09167	4339
2.09533	4069
2.09900	3824
2.10267	3611
2.10633	3416
2.11000	3240
2.11367	3083
2.11733	2939
2.12100	2805
2.12467	2685
2.12833	2578
2.13200	2481
2.13567	2391
2.13933	2301
2.14300	2213
2.14667	2130
2.15033	2060
2.15400	2000
2.15767	1943
2.16133	1885
2.16500	1824
2.16867	1767
2.17233	1715
2.17600	1658
2.17967	1601
2.18333	1546
2.18700	1493
2.19067	1449
2.19433	1412
2.19800	1376
2.20167	1340
2.20533	1303
2.20900	1261
2.21267	1222
2.21633	1190
2.22000	1169
2.22367	1155
2.22733	1145
2.23100	1132
2.23467	1111
2.23833	1085
2.24200	1060
2.24567	1033
2.24933	1002
2.25300	974
2.25667	950
2.26033	932
2.26400	917
2.26767	905
2.27133	895
2.27500	886
2.27867	878
2.28233	870
2.28600	854
2.28967	836
2.29333	822
2.29700	809
2.30067	794
2.30433	780
2.30800	768
2.31167	761
2.31533	757
2.31900	749
2.32267	740
2.32633	725
2.33000	710
2.33367	696
2.33733	682
2.34100	669
2.34467	657
2.34833	645
2.35200	634
2.35567	623
2.35933	619
2.36300	617
2.36667	611
2.37033	602
2.37400	590
2.37767	578
2.38133	570
2.38500	561
2.38867	556
2.39233	553
2.39600	550
2.39967	551
2.40333	554
2.40700	556
2.41067	556
2.41433	548
2.41800	546
2.42167	537
2.42533	529
2.42900	518
2.43267	508
2.43633	499
2.44000	502
2.44367	504
2.44733	503
2.45100	499
2.45467	499
2.45833	503
2.46200	502
2.46567	497
2.46933	487
2.47300	475
2.47667	463
2.48033	454
2.48400	448
2.48767	447
2.49133	447
2.49500	450
2.49867	457
2.50233	466
2.50600	466
2.50967	458
2.51333	449
2.51700	434
2.52067	425
2.52433	416
2.52800	418
2.53167	419
2.53533	422
2.53900	422
2.54267	419
2.54633	414
2.55000	407
2.55367	398
2.55733	389
2.56100	389
2.56467	391
2.56833	394
2.57200	396
2.57567	391
2.57933	382
2.58300	376
2.58667	379
2.59033	385
2.59400	387
2.59767	388
2.60133	389
2.60500	392
2.60867	397
2.61233	398
2.61600	393
2.61967	380
2.62333	368
2.62700	356
2.63067	349
2.63433	347
2.63800	351
2.64167	360
2.64533	367
2.64900	372
2.65267	375
2.65633	375
2.66000	373
2.66367	372
2.66733	365
2.67100	355
2.67467	347
2.67833	345
2.68200	347
2.68567	348
2.68933	347
2.69300	348
2.69667	348
2.70033	349
2.70400	352
2.70767	361
2.71133	368
2.71500	367
2.71867	364
2.72233	357
2.72600	349
2.72967	345
2.73333	345
2.73700	348
2.74067	352
2.74433	357
2.74800	360
2.75167	361
2.75533	363
2.75900	366
2.76267	371
2.76633	371
2.77000	364
2.77367	358
2.77733	350
2.78100	339
2.78467	334
2.78833	332
2.79200	328
2.79567	323
2.79933	325
2.80300	335
2.80667	344
2.81033	356
2.81400	365
2.81767	367
2.82133	366
2.82500	365
2.82867	362
2.83233	357
2.83600	351
2.83967	343
2.84333	339
2.84700	346
2.85067	358
2.85433	364
2.85800	364
2.86167	361
2.86533	353
2.86900	343
2.87267	336
2.87633	334
2.88000	340
2.88367	349
2.88733	351
2.89100	346
2.89467	340
2.89833	336
2.90200	336
2.90567	340
2.90933	347
2.91300	353
2.91667	355
2.92033	354
2.92400	355
2.92767	356
2.93133	355
2.93500	354
2.93867	357
2.94233	359
2.94600	362
2.94967	364
2.95333	363
2.95700	363
2.96067	364
2.96433	362
2.96800	358
2.97167	347
2.97533	335
2.97900	331
2.98267	336
2.98633	342
2.99000	349
2.99367	356
2.99733	365
3.00100	371
3.00467	370
3.00833	368
3.01200	366
3.01567	366
3.01933	367
3.02300	368
3.02667	365
3.03033	359
3.03400	352
3.03767	348
3.04133	348
3.04500	348
3.04867	342
3.05233	336
3.05600	334
3.05967	341
3.06333	351
3.06700	355
3.07067	351
3.07433	346
3.07800	342
3.08167	340
3.08533	342
3.08900	350
3.09267	359
3.09633	367
3.10000	373
3.10367	376
3.10733	378
3.11100	375
3.11467	372
3.11833	364
3.12200	348
3.12567	338
3.12933	325
3.13300	314
3.13667	306
3.14033	309
3.14400	308
3.14767	302
3.15133	302
3.15500	305
3.15867	311
3.16233	322
3.16600	335
3.16967	343
3.17333	349
3.17700	353
3.18067	352
3.18433	346
3.18800	339
3.19167	334
3.19533	332
3.19900	329
3.20267	325
3.20633	328
3.21000	334
3.21367	337
3.21733	336
3.22100	334
3.22467	332
3.22833	332
3.23200	333
3.23567	334
3.23933	337
3.24300	340
3.24667	338
3.25033	332
3.25400	328
3.25767	330
3.26133	327
3.26500	323
3.26867	324
3.27233	331
3.27600	337
3.27967	339
3.28333	335
3.28700	328
3.29067	325
3.29433	327
3.29800	332
3.30167	334
3.30533	332
3.30900	333
3.31267	330
3.31633	326
3.32000	323
3.32367	319
3.32733	315
3.33100	310
3.33467	305
3.33833	309
3.34200	312
3.34567	310
3.34933	307
3.35300	305
3.35667	306
3.36033	315
3.36400	329
3.36767	337
3.37133	338
3.37500	335
3.37867	328
3.38233	323
3.38600	323
3.38967	324
3.39333	320
3.39700	315
3.40067	313
3.40433	313
3.40800	312
3.41167	307
3.41533	301
3.41900	297
3.42267	294
3.42633	296
3.43000	300
3.43367	304
3.43733	310
3.44100	316
3.44467	319
3.44833	315
3.45200	309
3.45567	306
3.45933	306
3.46300	303
3.46667	301
3.47033	298
3.47400	295
3.47767	295
3.48133	300
3.48500	304
3.48867	304
3.49233	302
3.49600	302
3.49967	299
3.50333	294
3.50700	293
3.51067	295
3.51433	300
3.51800	309
3.52167	316
3.52533	316
3.52900	312
3.53267	306
3.53633	299
3.54000	290
3.54367	281
3.54733	272
3.55100	269
3.55467	271
3.55833	274
3.56200	281
3.56567	286
3.56933	285
3.57300	282
3.57667	276
3.58033	273
3.58400	271
3.58767	269
3.59133	266
3.59500	265
3.59867	267
3.60233	272
3.60600	276
3.60967	273
3.61333	262
3.61700	250
3.62067	248
3.62433	251
3.62800	255
3.63167	254
3.63533	252
3.63900	248
3.64267	246
3.64633	248
3.65000	250
3.65367	248
3.65733	242
3.66100	237
3.66467	238
3.66833	243
3.67200	250
3.67567	254
3.67933	254
3.68300	252
3.68667	251
3.69033	252
3.69400	254
3.69767	254
3.70133	256
3.70500	256
3.70867	255
3.71233	256
3.71600	258
3.71967	258
3.72333	256
3.72700	253
3.73067	244
3.73433	234
3.73800	229
3.74167	226
3.74533	227
3.74900	231
3.75267	236
3.75633	243
3.76000	254
3.76367	261
3.76733	261
3.77100	255
3.77467	245
3.77833	237
3.78200	232
3.78567	230
3.78933	232
3.79300	236
3.79667	240
3.80033	243
3.80400	243
3.80767	242
3.81133	236
3.81500	230
3.81867	224
3.82233	218
3.82600	211
3.82967	207
3.83333	207
3.83700	209
3.84067	215
3.84433	222
3.84800	227
3.85167	233
3.85533	242
3.85900	250
3.86267	253
3.86633	252
3.87000	250
3.87367	245
3.87733	240
3.88100	238
3.88467	234
3.88833	223
3.89200	210
3.89567	201
3.89933	195
3.90300	192
3.90667	193
3.91033	198
3.91400	205
3.91767	212
3.92133	214
3.92500	212
3.92867	207
3.93233	205
3.93600	208
3.93967	210
3.94333	207
3.94700	204
3.95067	201
3.95433	199
3.95800	198
3.96167	199
3.96533	205
3.96900	212
3.97267	213
3.97633	210
3.98000	209
3.98367	208
3.98733	209
3.99100	203
3.99467	193
3.99833	184

[Chromatogram (Ch2)]
Interval(msec)	220
# of Points	1091
Start Time(min)	0.002
End Time(min)	3.998
R.Time (min)	Intensity
0.00167	0
0.00533	0
0.00900	0
0.01267	0
0.01633	0
0.02000	1
0.02367	1
0.02733	1
0.03100	2
0.03467	2
0.03833	2
0.04200	3
0.04567	4
0.04933	4
0.05300	4
0.05667	4
0.06033	4
0.06400	4
0.06767	3
0.07133	3
0.07500	3
0.07867	3
0.08233	3
0.08600	3
0.08967	3
0.09333	3
0.09700	3
0.10067	3
0.10433	4
0.10800	4
0.11167	4
0.11533	4
0.11900	4
0.12267	3
0.12633	3
0.13000	3
0.13367	2
0.13733	2
0.14100	2
0.14467	2
0.14833	2
0.15200	1
0.15567	1
0.15933	1
0.16300	0
0.16667	-0
0.17033	-1
0.17400	-1
0.17767	-2
0.18133	-2
0.18500	-3
0.18867	-3
0.19233	-4
0.19600	-4
0.19967	-5
0.20333	-5
0.20700	-5
0.21067	-4
0.21433	-4
0.21800	-4
0.22167	-4
0.22533	-4
0.22900	-4
0.23267	-3
0.23633	-3
0.24000	-3
0.24367	-3
0.24733	-3
0.25100	-3
0.25467	-3
0.25833	-3
0.26200	-2
0.26567	-2
0.26933	-2
0.27300	-1
0.27667	-1
0.28033	-0
0.28400	0
0.28767	1
0.29133	1
0.29500	1
0.29867	1
0.30233	1
0.30600	1
0.30967	1
0.31333	0
0.31700	-0
0.32067	-1
0.32433	-1
0.32800	-1
0.33167	-1
0.33533	-1
0.33900	-1
0.34267	-1
0.34633	-2
0.35000	-2
0.35367	-2
0.35733	-2
0.36100	-2
0.36467	-2
0.36833	-2
0.37200	-2
0.37567	-2
0.37933	-2
0.38300	-1
0.38667	-1
0.39033	-0
0.39400	0
0.39767	0
0.40133	0
0.40500	0
0.40867	0
0.41233	0
0.41600	0
0.41967	0
0.42333	1
0.42700	1
0.43067	1
0.43433	1
0.43800	1
0.44167	1
0.44533	0
0.44900	0
0.45267	0
0.45633	1
0.46000	1
0.46367	1
0.46733	1
0.47100	1
0.47467	1
0.47833	0
0.48200	0
0.48567	0
0.48933	0
0.49300	0
0.49667	0
0.50033	-0
0.50400	-0
0.50767	0
0.51133	0
0.51500	0
0.51867	0
0.52233	-0
0.52600	-0
0.52967	-1
0.53333	-1
0.53700	-2
0.54067	-2
0.54433	-3
0.54800	-3
0.55167	-3
0.55533	-3
0.55900	-2
0.56267	-2
0.56633	-1
0.57000	-1
0.57367	-0
0.57733	0
0.58100	0
0.58467	0
0.58833	0
0.59200	0
0.59567	-0
0.59933	-0
0.60300	-0
0.60667	-0
0.61033	-1
0.61400	-1
0.61767	-1
0.62133	-1
0.62500	-1
0.62867	-1
0.63233	-0
0.63600	-1
0.63967	-1
0.64333	-1
0.64700	-1
0.65067	-1
0.65433	-1
0.65800	-1
0.66167	-2
0.66533	-2
0.66900	-2
0.67267	-2
0.67633	-2
0.68000	-2
0.68367	-2
0.68733	-2
0.69100	-2
0.69467	-2
0.69833	-1
0.70200	-1
0.70567	-0
0.70933	-0
0.71300	0
0.71667	0
0.72033	1
0.72400	1
0.72767	1
0.73133	1
0.73500	1
0.73867	1
0.74233	1
0.74600	1
0.74967	1
0.75333	1
0.75700	1
0.76067	1
0.76433	0
0.76800	0
0.77167	-0
0.77533	-1
0.77900	-1
0.78267	-1
0.78633	-1
0.79000	-2
0.79367	-2
0.79733	-2
0.80100	-2
0.80467	-2
0.80833	-2
0.81200	-2
0.81567	-2
0.81933	-1
0.82300	-1
0.82667	-0
0.83033	-0
0.83400	-0
0.83767	-0
0.84133	-1
0.84500	-1
0.84867	-1
0.85233	-1
0.85600	-2
0.85967	-2
0.86333	-2
0.86700	-2
0.87067	-2
0.87433	-2
0.87800	-2
0.88167	-2
0.88533	-2
0.88900	-1
0.89267	-1
0.89633	-1
0.90000	-0
0.90367	0
0.90733	0
0.91100	0
0.91467	0
0.91833	1
0.92200	1
0.92567	1
0.92933	1
0.93300	1
0.93667	1
0.94033	1
0.94400	1
0.94767	0
0.95133	0
0.95500	0
0.95867	0
0.96233	-0
0.96600	-0
0.96967	-0
0.97333	-1
0.97700	-1
0.98067	-0
0.98433	0
0.98800	0
0.99167	1
0.99533	1
0.99900	1
1.00267	1
1.00633	1
1.01000	1
1.01367	1
1.01733	0
1.02100	0
1.02467	0
1.02833	-0
1.03200	-0
1.03567	-1
1.03933	-1
1.04300	-1
1.04667	-1
1.05033	-1
1.05400	-1
1.05767	-0
1.06133	-0
1.06500	-0
1.06867	-0
1.07233	-0
1.07600	-0
1.07967	-1
1.08333	-1
1.08700	-2
1.09067	-2
1.09433	-3
1.09800	-3
1.10167	-4
1.10533	-4
1.10900	-4
1.11267	-4
1.11633	-4
1.12000	-4
1.12367	-4
1.12733	-4
1.13100	-4
1.13467	-4
1.13833	-4
1.14200	-4
1.14567	-5
1.14933	-5
1.15300	-4
1.15667	-4
1.16033	-4
1.16400	-3
1.16767	-3
1.17133	-2
1.17500	-2
1.17867	-2
1.18233	-1
1.18600	-2
1.18967	-2
1.19333	-2
1.19700	-2
1.20067	-2
1.20433	-3
1.20800	-3
1.21167	-3
1.21533	-3
1.21900	-3
1.22267	-3
1.22633	-2
1.23000	-2
1.23367	-2
1.23733	-2
1.24100	-2
1.24467	-2
1.24833	-1
1.25200	-1
1.25567	-1
1.25933	-1
1.26300	-0
1.26667	-0
1.27033	-1
1.27400	-1
1.27767	-1
1.28133	-1
1.28500	-1
1.28867	-2
1.29233	-2
1.29600	-2
1.29967	-2
1.30333	-2
1.30700	-2
1.31067	-2
1.31433	-2
1.31800	-2
1.32167	-2
1.32533	-1
1.32900	-1
1.33267	-0
1.33633	0
1.34000	0
1.34367	1
1.34733	1
1.35100	1
1.35467	1
1.35833	1
1.36200	1
1.36567	2
1.36933	2
1.37300	2
1.37667	1
1.38033	1
1.38400	1
1.38767	1
1.39133	1
1.39500	1
1.39867	0
1.40233	-0
1.40600	-1
1.40967	-1
1.41333	-2
1.41700	-2
1.42067	-3
1.42433	-3
1.42800	-4
1.43167	-4
1.43533	-4
1.43900	-5
1.44267	-5
1.44633	-5
1.45000	-6
1.45367	-6
1.45733	-6
1.46100	-6
1.46467	-5
1.46833	-5
1.47200	-4
1.47567	-4
1.47933	-4
1.48300	-4
1.48667	-4
1.49033	-4
1.49400	-3
1.49767	-3
1.50133	-3
1.50500	-2
1.50867	-2
1.51233	-2
1.51600	-1
1.51967	-1
1.52333	-1
1.52700	-1
1.53067	-1
1.53433	-2
1.53800	-2
1.54167	-2
1.54533	-2
1.54900	-2
1.55267	-2
1.55633	-2
1.56000	-1
1.56367	-1
1.56733	-1
1.57100	-1
1.57467	-2
1.57833	-2
1.58200	-2
1.58567	-2
1.58933	-2
1.59300	-2
1.59667	-2
1.60033	-3
1.60400	-4
1.60767	-6
1.61133	-7
1.61500	-9
1.61867	-11
1.62233	-14
1.62600	-17
1.62967	-20
1.63333	-24
1.63700	-27
1.64067	-31
1.64433	-35
1.64800	-38
1.65167	-41
1.65533	-45
1.65900	-48
1.66267	-52
1.66633	-56
1.67000	-61
1.67367	-66
1.67733	-71
1.68100	-77
1.68467	-81
1.68833	-86
1.69200	-89
1.69567	-93
1.69933	-96
1.70300	-98
1.70667	-100
1.71033	-102
1.71400	-103
1.71767	-104
1.72133	-104
1.72500	-104
1.72867	-104
1.73233	-104
1.73600	-104
1.73967	-104
1.74333	-104
1.74700	-105
1.75067	-105
1.75433	-106
1.75800	-106
1.76167	-107
1.76533	-107
1.76900	-108
1.77267	-108
1.77633	-109
1.78000	-110
1.78367	-111
1.78733	-111
1.79100	-112
1.79467	-112
1.79833	-111
1.80200	-111
1.80567	-111
1.80933	-111
1.81300	-111
1.81667	-112
1.82033	-112
1.82400	-113
1.82767	-113
1.83133	-113
1.83500	-113
1.83867	-114
1.84233	-114
1.84600	-114
1.84967	-114
1.85333	-114
1.85700	-114
1.86067	-114
1.86433	-114
1.86800	-114
1.87167	-114
1.87533	-114
1.87900	-115
1.88267	-115
1.88633	-115
1.89000	-115
1.89367	-115
1.89733	-115
1.90100	-114
1.90467	-113
1.90833	-113
1.91200	-112
1.91567	-112
1.91933	-111
1.92300	-111
1.92667	-111
1.93033	-110
1.93400	-110
1.93767	-110
1.94133	-110
1.94500	-110
1.94867	-110
1.95233	-110
1.95600	-110
1.95967	-110
1.96333	-110
1.96700	-110
1.97067	-110
1.97433	-110
1.97800	-109
1.98167	-109
1.98533	-108
1.98900	-108
1.99267	-107
1.99633	-107
2.00000	-107
2.00367	-107
2.00733	-106
2.01100	-106
2.01467	-105
2.01833	-105
2.02200	-104
2.02567	-104
2.02933	-104
2.03300	-104
2.03667	-104
2.04033	-104
2.04400	-103
2.04767	-102
2.05133	-102
2.05500	-101
2.05867	-101
2.06233	-101
2.06600	-101
2.06967	-100
2.07333	-100
2.07700	-100
2.08067	-100
2.08433	-99
2.08800	-99
2.09167	-98
2.09533	-97
2.09900	-97
2.10267	-97
2.10633	-97
2.11000	-97
2.11367	-97
2.11733	-97
2.12100	-96
2.12467	-96
2.12833	-95
2.13200	-95
2.13567	-95
2.13933	-95
2.14300	-94
2.14667	-94
2.15033	-94
2.15400	-94
2.15767	-93
2.16133	-92
2.16500	-91
2.16867	-91
2.17233	-91
2.17600	-91
2.17967	-91
2.18333	-91
2.18700	-91
2.19067	-90
2.19433	-89
2.19800	-89
2.20167	-89
2.20533	-89
2.20900	-89
2.21267	-89
2.21633	-88
2.22000	-88
2.22367	-88
2.22733	-88
2.23100	-88
2.23467	-88
2.23833	-88
2.24200	-89
2.24567	-88
2.24933	-88
2.25300	-87
2.25667	-86
2.26033	-86
2.26400	-85
2.26767	-84
2.27133	-83
2.27500	-83
2.27867	-82
2.28233	-81
2.28600	-81
2.28967	-80
2.29333	-80
2.29700	-79
2.30067	-79
2.30433	-79
2.30800	-80
2.31167	-80
2.31533	-81
2.31900	-81
2.32267	-81
2.32633	-82
2.33000	-82
2.33367	-82
2.33733	-82
2.34100	-81
2.34467	-80
2.34833	-79
2.35200	-77
2.35567	-75
2.35933	-74
2.36300	-72
2.36667	-71
2.37033	-69
2.37400	-67
2.37767	-64
2.38133	-61
2.38500	-58
2.38867	-54
2.39233	-50
2.39600	-45
2.39967	-41
2.40333	-37
2.40700	-32
2.41067	-28
2.41433	-24
2.41800	-21
2.42167	-18
2.42533	-16
2.42900	-14
2.43267	-13
2.43633	-12
2.44000	-11
2.44367	-10
2.44733	-9
2.45100	-8
2.45467	-7
2.45833	-6
2.46200	-5
2.46567	-5
2.46933	-4
2.47300	-2
2.47667	-1
2.48033	1
2.48400	2
2.48767	3
2.49133	4
2.49500	5
2.49867	5
2.50233	6
2.50600	7
2.50967	8
2.51333	9
2.51700	10
2.52067	11
2.52433	12
2.52800	13
2.53167	14
2.53533	15
2.53900	15
2.54267	15
2.54633	14
2.55000	14
2.55367	14
2.55733	14
2.56100	15
2.56467	15
2.56833	16
2.57200	16
2.57567	16
2.57933	16
2.58300	16
2.58667	15
2.59033	15
2.59400	15
2.59767	14
2.60133	14
2.60500	15
2.60867	15
2.61233	16
2.61600	16
2.61967	17
2.62333	17
2.62700	18
2.63067	19
2.63433	19
2.63800	19
2.64167	20
2.64533	20
2.64900	20
2.65267	19
2.65633	19
2.66000	19
2.66367	19
2.66733	19
2.67100	19
2.67467	20
2.67833	20
2.68200	20
2.68567	21
2.68933	21
2.69300	22
2.69667	22
2.70033	22
2.70400	23
2.70767	23
2.71133	24
2.71500	25
2.71867	26
2.72233	26
2.72600	27
2.72967	28
2.73333	28
2.73700	28
2.74067	27
2.74433	27
2.74800	26
2.75167	25
2.75533	25
2.75900	24
2.76267	24
2.76633	24
2.77000	24
2.77367	24
2.77733	24
2.78100	25
2.78467	25
2.78833	25
2.79200	25
2.79567	25
2.79933	25
2.80300	26
2.80667	26
2.81033	27
2.81400	27
2.81767	28
2.82133	28
2.82500	28
2.82867	29
2.83233	29
2.83600	29
2.83967	28
2.84333	26
2.84700	23
2.85067	18
2.85433	9
2.85800	-2
2.86167	-17
2.86533	-37
2.86900	-60
2.87267	-88
2.87633	-121
2.88000	-157
2.88367	-198
2.88733	-242
2.89100	-289
2.89467	-339
2.89833	-391
2.90200	-445
2.90567	-500
2.90933	-555
2.91300	-611
2.91667	-667
2.92033	-722
2.92400	-776
2.92767	-828
2.93133	-880
2.93500	-936
2.93867	-995
2.94233	-1050
2.94600	-1090
2.94967	-1107
2.95333	-1097
2.95700	-1063
2.96067	-1008
2.96433	-939
2.96800	-862
2.97167	-781
2.97533	-699
2.97900	-621
2.98267	-546
2.98633	-478
2.99000	-415
2.99367	-359
2.99733	-309
3.00100	-264
3.00467	-226
3.00833	-192
3.01200	-162
3.01567	-137
3.01933	-115
3.02300	-97
3.02667	-81
3.03033	-67
3.03400	-55
3.03767	-45
3.04133	-36
3.04500	-28
3.04867	-22
3.05233	-17
3.05600	-13
3.05967	-9
3.06333	-6
3.06700	-3
3.07067	-1
3.07433	1
3.07800	3
3.08167	5
3.08533	6
3.08900	7
3.09267	8
3.09633	9
3.10000	10
3.10367	11
3.10733	12
3.11100	13
3.11467	14
3.11833	14
3.12200	15
3.12567	16
3.12933	17
3.13300	17
3.13667	18
3.14033	18
3.14400	19
3.14767	19
3.15133	19
3.15500	19
3.15867	20
3.16233	20
3.16600	20
3.16967	20
3.17333	21
3.17700	21
3.18067	21
3.18433	22
3.18800	22
3.19167	22
3.19533	22
3.19900	23
3.20267	23
3.20633	23
3.21000	23
3.21367	23
3.21733	22
3.22100	22
3.22467	22
3.22833	22
3.23200	21
3.23567	21
3.23933	21
3.24300	21
3.24667	21
3.25033	21
3.25400	21
3.25767	22
3.26133	22
3.26500	22
3.26867	22
3.27233	23
3.27600	23
3.27967	24
3.28333	24
3.28700	25
3.29067	25
3.29433	26
3.29800	27
3.30167	27
3.30533	28
3.30900	28
3.31267	28
3.31633	29
3.32000	29
3.32367	29
3.32733	30
3.33100	30
3.33467	30
3.33833	30
3.34200	30
3.34567	30
3.34933	30
3.35300	30
3.35667	30
3.36033	31
3.36400	31
3.36767	31
3.37133	31
3.37500	32
3.37867	32
3.38233	32
3.38600	32
3.38967	32
3.39333	32
3.39700	32
3.40067	32
3.40433	32
3.40800	32
3.41167	31
3.41533	31
3.41900	31
3.42267	31
3.42633	31
3.43000	31
3.43367	31
3.43733	30
3.44100	30
3.44467	29
3.44833	29
3.45200	29
3.45567	29
3.45933	29
3.46300	28
3.46667	28
3.47033	28
3.47400	28
3.47767	28
3.48133	28
3.48500	27
3.48867	27
3.49233	27
3.49600	27
3.49967	27
3.50333	27
3.50700	27
3.51067	27
3.51433	26
3.51800	26
3.52167	26
3.52533	26
3.52900	26
3.53267	26
3.53633	26
3.54000	26
3.54367	26
3.54733	26
3.55100	26
3.55467	26
3.55833	26
3.56200	27
3.56567	27
3.56933	27
3.57300	27
3.57667	27
3.58033	27
3.58400	27
3.58767	27
3.59133	28
3.59500	28
3.59867	28
3.60233	28
3.60600	28
3.60967	28
3.61333	28
3.61700	29
3.62067	29
3.62433	29
3.62800	29
3.63167	29
3.63533	29
3.63900	29
3.64267	28
3.64633	28
3.65000	28
3.65367	28
3.65733	28
3.66100	28
3.66467	28
3.66833	28
3.67200	28
3.67567	28
3.67933	28
3.68300	28
3.68667	27
3.69033	27
3.69400	27
3.69767	27
3.70133	27
3.70500	27
3.70867	27
3.71233	27
3.71600	27
3.71967	27
3.72333	27
3.72700	27
3.73067	27
3.73433	27
3.73800	27
3.74167	27
3.74533	27
3.74900	27
3.75267	27
3.75633	27
3.76000	26
3.76367	26
3.76733	26
3.77100	26
3.77467	26
3.77833	26
3.78200	25
3.78567	25
3.78933	25
3.79300	25
3.79667	25
3.80033	25
3.80400	25
3.80767	25
3.81133	25
3.81500	26
3.81867	26
3.82233	26
3.82600	27
3.82967	27
3.83333	27
3.83700	27
3.84067	27
3.84433	27
3.84800	27
3.85167	27
3.85533	27
3.85900	27
3.86267	27
3.86633	27
3.87000	27
3.87367	27
3.87733	27
3.88100	27
3.88467	27
3.88833	27
3.89200	27
3.89567	27
3.89933	27
3.90300	27
3.90667	27
3.91033	27
3.91400	27
3.91767	27
3.92133	27
3.92500	27
3.92867	27
3.93233	28
3.93600	28
3.93967	27
3.94333	27
3.94700	27
3.95067	28
3.95433	28
3.95800	28
3.96167	28
3.96533	28
3.96900	29
3.97267	29
3.97633	28
3.98000	28
3.98367	28
3.98733	28
3.99100	28
3.99467	28
3.99833	28

[Chromatogram (Ch3)]
Interval(msec)	220
# of Points	1091
Start Time(min)	0.002
End Time(min)	3.998
R.Time (min)	Intensity
0.00167	2
0.00533	4
0.00900	4
0.01267	2
0.01633	-1
0.02000	-3
0.02367	-3
0.02733	-4
0.03100	-5
0.03467	-5
0.03833	-4
0.04200	-3
0.04567	-2
0.04933	-1
0.05300	1
0.05667	3
0.06033	4
0.06400	4
0.06767	4
0.07133	2
0.07500	-0
0.07867	-2
0.08233	-2
0.08600	-1
0.08967	-2
0.09333	-2
0.09700	-3
0.10067	-1
0.10433	-1
0.10800	-0
0.11167	-2
0.11533	-2
0.11900	0
0.12267	-1
0.12633	-3
0.13000	-3
0.13367	-2
0.13733	1
0.14100	0
0.14467	-1
0.14833	-0
0.15200	-1
0.15567	-2
0.15933	-2
0.16300	1
0.16667	0
0.17033	-1
0.17400	-3
0.17767	-4
0.18133	-2
0.18500	-1
0.18867	-2
0.19233	-3
0.19600	-5
0.19967	-5
0.20333	-3
0.20700	-2
0.21067	-3
0.21433	-4
0.21800	-3
0.22167	-3
0.22533	-2
0.22900	-1
0.23267	-0
0.23633	-2
0.24000	-4
0.24367	-4
0.24733	-1
0.25100	-1
0.25467	-1
0.25833	-0
0.26200	-2
0.26567	-4
0.26933	-5
0.27300	-5
0.27667	-6
0.28033	-3
0.28400	-0
0.28767	1
0.29133	1
0.29500	-0
0.29867	-1
0.30233	-2
0.30600	0
0.30967	1
0.31333	-1
0.31700	-2
0.32067	-1
0.32433	-1
0.32800	1
0.33167	1
0.33533	-1
0.33900	-2
0.34267	-4
0.34633	-5
0.35000	-5
0.35367	-5
0.35733	-3
0.36100	-3
0.36467	-3
0.36833	-3
0.37200	-3
0.37567	-2
0.37933	-3
0.38300	-7
0.38667	-9
0.39033	-8
0.39400	-5
0.39767	-1
0.40133	0
0.40500	1
0.40867	-0
0.41233	-3
0.41600	-5
0.41967	-4
0.42333	-1
0.42700	1
0.43067	2
0.43433	1
0.43800	-0
0.44167	-0
0.44533	-1
0.44900	-3
0.45267	-5
0.45633	-5
0.46000	-2
0.46367	-1
0.46733	-1
0.47100	-2
0.47467	-3
0.47833	-2
0.48200	-0
0.48567	1
0.48933	2
0.49300	1
0.49667	-3
0.50033	-4
0.50400	-1
0.50767	1
0.51133	1
0.51500	2
0.51867	1
0.52233	-1
0.52600	-2
0.52967	-3
0.53333	-2
0.53700	-1
0.54067	-2
0.54433	-2
0.54800	-3
0.55167	-3
0.55533	-5
0.55900	-6
0.56267	-6
0.56633	-5
0.57000	-2
0.57367	-1
0.57733	0
0.58100	2
0.58467	2
0.58833	4
0.59200	2
0.59567	1
0.59933	-0
0.60300	-1
0.60667	-1
0.61033	-0
0.61400	2
0.61767	2
0.62133	3
0.62500	3
0.62867	1
0.63233	0
0.63600	-1
0.63967	-1
0.64333	-1
0.64700	1
0.65067	-0
0.65433	-0
0.65800	-2
0.66167	-4
0.66533	-4
0.66900	-3
0.67267	-3
0.67633	-2
0.68000	-1
0.68367	-0
0.68733	1
0.69100	3
0.69467	3
0.69833	4
0.70200	7
0.70567	8
0.70933	8
0.71300	6
0.71667	3
0.72033	2
0.72400	4
0.72767	4
0.73133	4
0.73500	4
0.73867	4
0.74233	3
0.74600	0
0.74967	-1
0.75333	-0
0.75700	1
0.76067	3
0.76433	3
0.76800	3
0.77167	2
0.77533	1
0.77900	2
0.78267	4
0.78633	5
0.79000	7
0.79367	8
0.79733	7
0.80100	6
0.80467	7
0.80833	9
0.81200	10
0.81567	8
0.81933	7
0.82300	8
0.82667	9
0.83033	9
0.83400	10
0.83767	10
0.84133	9
0.84500	9
0.84867	9
0.85233	10
0.85600	10
0.85967	11
0.86333	12
0.86700	12
0.87067	12
0.87433	11
0.87800	9
0.88167	6
0.88533	5
0.88900	5
0.89267	6
0.89633	6
0.90000	6
0.90367	7
0.90733	9
0.91100	9
0.91467	7
0.91833	7
0.92200	8
0.92567	6
0.92933	7
0.93300	6
0.93667	2
0.94033	2
0.94400	4
0.94767	5
0.95133	6
0.95500	6
0.95867	6
0.96233	6
0.96600	7
0.96967	9
0.97333	11
0.97700	12
0.98067	13
0.98433	13
0.98800	12
0.99167	10
0.99533	9
0.99900	9
1.00267	10
1.00633	11
1.01000	10
1.01367	9
1.01733	7
1.02100	5
1.02467	4
1.02833	4
1.03200	4
1.03567	5
1.03933	5
1.04300	6
1.04667	7
1.05033	6
1.05400	6
1.05767	6
1.06133	6
1.06500	6
1.06867	6
1.07233	5
1.07600	2
1.07967	2
1.08333	3
1.08700	5
1.09067	5
1.09433	5
1.09800	4
1.10167	5
1.10533	4
1.10900	4
1.11267	3
1.11633	4
1.12000	5
1.12367	7
1.12733	7
1.13100	7
1.13467	7
1.13833	8
1.14200	7
1.14567	6
1.14933	5
1.15300	6
1.15667	10
1.16033	10
1.16400	11
1.16767	16
1.17133	18
1.17500	17
1.17867	16
1.18233	17
1.18600	16
1.18967	13
1.19333	13
1.19700	13
1.20067	12
1.20433	10
1.20800	10
1.21167	10
1.21533	10
1.21900	9
1.22267	9
1.22633	9
1.23000	9
1.23367	11
1.23733	11
1.24100	12
1.24467	13
1.24833	12
1.25200	10
1.25567	9
1.25933	6
1.26300	6
1.26667	7
1.27033	6
1.27400	6
1.27767	5
1.28133	5
1.28500	6
1.28867	7
1.29233	10
1.29600	10
1.29967	11
1.30333	9
1.30700	9
1.31067	12
1.31433	12
1.31800	14
1.32167	17
1.32533	17
1.32900	16
1.33267	14
1.33633	11
1.34000	13
1.34367	13
1.34733	13
1.35100	11
1.35467	9
1.35833	8
1.36200	8
1.36567	5
1.36933	3
1.37300	4
1.37667	7
1.38033	9
1.38400	9
1.38767	8
1.39133	6
1.39500	6
1.39867	5
1.40233	6
1.40600	7
1.40967	8
1.41333	6
1.41700	6
1.42067	5
1.42433	6
1.42800	8
1.43167	8
1.43533	8
1.43900	9
1.44267	7
1.44633	7
1.45000	7
1.45367	9
1.45733	11
1.46100	11
1.46467	9
1.46833	8
1.47200	6
1.47567	6
1.47933	9
1.48300	10
1.48667	11
1.49033	11
1.49400	11
1.49767	10
1.50133	11
1.50500	10
1.50867	9
1.51233	9
1.51600	9
1.51967	9
1.52333	10
1.52700	8
1.53067	8
1.53433	10
1.53800	11
1.54167	13
1.54533	14
1.54900	14
1.55267	16
1.55633	17
1.56000	17
1.56367	17
1.56733	15
1.57100	14
1.57467	13
1.57833	13
1.58200	12
1.58567	13
1.58933	15
1.59300	17
1.59667	17
1.60033	18
1.60400	18
1.60767	15
1.61133	12
1.61500	11
1.61867	12
1.62233	14
1.62600	16
1.62967	16
1.63333	16
1.63700	17
1.64067	18
1.64433	19
1.64800	19
1.65167	20
1.65533	20
1.65900	19
1.66267	19
1.66633	21
1.67000	22
1.67367	22
1.67733	23
1.68100	24
1.68467	25
1.68833	25
1.69200	28
1.69567	29
1.69933	29
1.70300	27
1.70667	27
1.71033	25
1.71400	22
1.71767	22
1.72133	24
1.72500	23
1.72867	21
1.73233	20
1.73600	20
1.73967	21
1.74333	21
1.74700	23
1.75067	26
1.75433	28
1.75800	28
1.76167	28
1.76533	27
1.76900	27
1.77267	27
1.77633	27
1.78000	28
1.78367	29
1.78733	29
1.79100	28
1.79467	29
1.79833	30
1.80200	30
1.80567	29
1.80933	27
1.81300	26
1.81667	26
1.82033	26
1.82400	27
1.82767	25
1.83133	25
1.83500	28
1.83867	31
1.84233	33
1.84600	35
1.84967	37
1.85333	38
1.85700	38
1.86067	39
1.86433	38
1.86800	35
1.87167	34
1.87533	35
1.87900	37
1.88267	38
1.88633	39
1.89000	38
1.89367	38
1.89733	38
1.90100	39
1.90467	41
1.90833	43
1.91200	43
1.91567	42
1.91933	42
1.92300	42
1.92667	41
1.93033	41
1.93400	44
1.93767	46
1.94133	45
1.94500	46
1.94867	47
1.95233	49
1.95600	53
1.95967	57
1.96333	56
1.96700	54
1.97067	53
1.97433	55
1.97800	54
1.98167	54
1.98533	57
1.98900	59
1.99267	58
1.99633	57
2.00000	58
2.00367	59
2.00733	58
2.01100	56
2.01467	56
2.01833	58
2.02200	64
2.02567	66
2.02933	67
2.03300	68
2.03667	68
2.04033	69
2.04400	68
2.04767	68
2.05133	68
2.05500	69
2.05867	69
2.06233	71
2.06600	71
2.06967	72
2.07333	73
2.07700	72
2.08067	74
2.08433	76
2.08800	80
2.09167	82
2.09533	80
2.09900	79
2.10267	81
2.10633	84
2.11000	86
2.11367	88
2.11733	88
2.12100	89
2.12467	90
2.12833	91
2.13200	92
2.13567	91
2.13933	91
2.14300	94
2.14667	97
2.15033	98
2.15400	97
2.15767	95
2.16133	95
2.16500	97
2.16867	101
2.17233	106
2.17600	108
2.17967	108
2.18333	110
2.18700	110
2.19067	111
2.19433	112
2.19800	113
2.20167	113
2.20533	115
2.20900	119
2.21267	121
2.21633	123
2.22000	125
2.22367	126
2.22733	128
2.23100	129
2.23467	130
2.23833	131
2.24200	132
2.24567	135
2.24933	136
2.25300	134
2.25667	135
2.26033	136
2.26400	137
2.26767	139
2.27133	141
2.27500	142
2.27867	143
2.28233	143
2.28600	142
2.28967	143
2.29333	147
2.29700	151
2.30067	154
2.30433	158
2.30800	160
2.31167	161
2.31533	163
2.31900	163
2.32267	164
2.32633	166
2.33000	170
2.33367	172
2.33733	172
2.34100	173
2.34467	173
2.34833	176
2.35200	177
2.35567	179
2.35933	183
2.36300	185
2.36667	185
2.37033	183
2.37400	184
2.37767	187
2.38133	191
2.38500	195
2.38867	196
2.39233	196
2.39600	197
2.39967	199
2.40333	203
2.40700	207
2.41067	212
2.41433	214
2.41800	216
2.42167	219
2.42533	221
2.42900	225
2.43267	228
2.43633	232
2.44000	240
2.44367	293
2.44733	421
2.45100	560
2.45467	674
2.45833	742
2.46200	752
2.46567	723
2.46933	687
2.47300	658
2.47667	642
2.48033	632
2.48400	619
2.48767	591
2.49133	554
2.49500	518
2.49867	486
2.50233	461
2.50600	444
2.50967	434
2.51333	428
2.51700	430
2.52067	440
2.52433	457
2.52800	476
2.53167	491
2.53533	501
2.53900	502
2.54267	493
2.54633	476
2.55000	452
2.55367	428
2.55733	406
2.56100	385
2.56467	367
2.56833	353
2.57200	345
2.57567	338
2.57933	335
2.58300	335
2.58667	333
2.59033	333
2.59400	332
2.59767	329
2.60133	325
2.60500	316
2.60867	302
2.61233	287
2.61600	271
2.61967	255
2.62333	242
2.62700	232
2.63067	224
2.63433	219
2.63800	221
2.64167	227
2.64533	233
2.64900	240
2.65267	245
2.65633	249
2.66000	252
2.66367	253
2.66733	251
2.67100	248
2.67467	245
2.67833	243
2.68200	239
2.68567	232
2.68933	227
2.69300	222
2.69667	216
2.70033	211
2.70400	208
2.70767	205
2.71133	204
2.71500	200
2.71867	196
2.72233	194
2.72600	192
2.72967	192
2.73333	193
2.73700	193
2.74067	194
2.74433	196
2.74800	200
2.75167	204
2.75533	204
2.75900	202
2.76267	201
2.76633	202
2.77000	203
2.77367	202
2.77733	204
2.78100	206
2.78467	208
2.78833	211
2.79200	212
2.79567	212
2.79933	213
2.80300	214
2.80667	214
2.81033	214
2.81400	215
2.81767	218
2.82133	224
2.82500	243
2.82867	290
2.83233	377
2.83600	530
2.83967	771
2.84333	1117
2.84700	1569
2.85067	2111
2.85433	2715
2.85800	3336
2.86167	3922
2.86533	4423
2.86900	4803
2.87267	5038
2.87633	5123
2.88000	5075
2.88367	4910
2.88733	4656
2.89100	4340
2.89467	3994
2.89833	3635
2.90200	3284
2.90567	2948
2.90933	2636
2.91300	2349
2.91667	2087
2.92033	1851
2.92400	1643
2.92767	1459
2.93133	1296
2.93500	1153
2.93867	1029
2.94233	923
2.94600	833
2.94967	751
2.95333	680
2.95700	619
2.96067	564
2.96433	518
2.96800	475
2.97167	439
2.97533	409
2.97900	384
2.98267	359
2.98633	335
2.99000	315
2.99367	298
2.99733	284
3.00100	273
3.00467	263
3.00833	253
3.01200	243
3.01567	234
3.01933	229
3.02300	223
3.02667	215
3.03033	208
3.03400	203
3.03767	197
3.04133	193
3.04500	193
3.04867	192
3.05233	192
3.05600	191
3.05967	188
3.06333	184
3.06700	181
3.07067	177
3.07433	175
3.07800	174
3.08167	171
3.08533	169
3.08900	167
3.09267	165
3.09633	164
3.10000	163
3.10367	162
3.10733	161
3.11100	162
3.11467	163
3.11833	162
3.12200	161
3.12567	160
3.12933	162
3.13300	162
3.13667	163
3.14033	164
3.14400	164
3.14767	166
3.15133	166
3.15500	166
3.15867	165
3.16233	165
3.16600	165
3.16967	164
3.17333	163
3.17700	164
3.18067	165
3.18433	162
3.18800	160
3.19167	162
3.19533	163
3.19900	163
3.20267	162
3.20633	162
3.21000	164
3.21367	165
3.21733	166
3.22100	169
3.22467	170
3.22833	169
3.23200	169
3.23567	175
3.23933	180
3.24300	182
3.24667	182
3.25033	181
3.25400	179
3.25767	179
3.26133	179
3.26500	178
3.26867	177
3.27233	180
3.27600	181
3.27967	182
3.28333	184
3.28700	182
3.29067	178
3.29433	176
3.29800	176
3.30167	177
3.30533	179
3.30900	180
3.31267	182
3.31633	184
3.32000	186
3.32367	189
3.32733	191
3.33100	190
3.33467	189
3.33833	189
3.34200	190
3.34567	191
3.34933	191
3.35300	192
3.35667	192
3.36033	193
3.36400	194
3.36767	192
3.37133	190
3.37500	190
3.37867	192
3.38233	195
3.38600	195
3.38967	195
3.39333	196
3.39700	199
3.40067	202
3.40433	202
3.40800	201
3.41167	200
3.41533	200
3.41900	200
3.42267	199
3.42633	200
3.43000	201
3.43367	201
3.43733	201
3.44100	200
3.44467	203
3.44833	207
3.45200	209
3.45567	211
3.45933	211
3.46300	210
3.46667	209
3.47033	210
3.47400	209
3.47767	207
3.48133	208
3.48500	211
3.48867	213
3.49233	214
3.49600	215
3.49967	218
3.50333	219
3.50700	218
3.51067	218
3.51433	216
3.51800	215
3.52167	215
3.52533	216
3.52900	219
3.53267	218
3.53633	217
3.54000	217
3.54367	219
3.54733	220
3.55100	222
3.55467	224
3.55833	224
3.56200	224
3.56567	224
3.56933	225
3.57300	225
3.57667	225
3.58033	227
3.58400	227
3.58767	225
3.59133	227
3.59500	231
3.59867	230
3.60233	228
3.60600	227
3.60967	223
3.61333	217
3.61700	206
3.62067	189
3.62433	176
3.62800	169
3.63167	173
3.63533	183
3.63900	198
3.64267	215
3.64633	234
3.65000	253
3.65367	272
3.65733	292
3.66100	311
3.66467	327
3.66833	343
3.67200	359
3.67567	374
3.67933	387
3.68300	398
3.68667	407
3.69033	417
3.69400	427
3.69767	435
3.70133	442
3.70500	446
3.70867	450
3.71233	456
3.71600	462
3.71967	466
3.72333	469
3.72700	471
3.73067	473
3.73433	473
3.73800	473
3.74167	475
3.74533	480
3.74900	483
3.75267	485
3.75633	484
3.76000	485
3.76367	488
3.76733	490
3.77100	492
3.77467	493
3.77833	495
3.78200	496
3.78567	497
3.78933	497
3.79300	496
3.79667	495
3.80033	495
3.80400	493
3.80767	493
3.81133	492
3.81500	493
3.81867	493
3.82233	494
3.82600	493
3.82967	494
3.83333	493
3.83700	493
3.84067	494
3.84433	496
3.84800	495
3.85167	494
3.85533	496
3.85900	499
3.86267	500
3.86633	498
3.87000	495
3.87367	493
3.87733	492
3.88100	492
3.88467	493
3.88833	493
3.89200	494
3.89567	493
3.89933	491
3.90300	489
3.90667	488
3.91033	489
3.91400	491
3.91767	493
3.92133	493
3.92500	493
3.92867	492
3.93233	492
3.93600	491
3.93967	493
3.94333	495
3.94700	497
3.95067	499
3.95433	500
3.95800	502
3.96167	501
3.96533	500
3.96900	498
3.97267	496
3.97633	494
3.98000	491
3.98367	492
3.98733	494
3.99100	494
3.99467	493
3.99833	489

[Status Trace (Column Oven Temperature)]
Interval(msec)	1000
# of Points	240
Start Time(min)	0.016
End Time(min)	3.999
Intensity Units	
Intensity Multiplier	1
R.Time (min)	Intensity
0.01595	35.01
0.03262	34.99
0.04928	34.98
0.06595	34.97
0.08262	34.96
0.09928	34.96
0.11595	34.95
0.13262	34.95
0.14928	34.96
0.16595	34.97
0.18262	34.99
0.19928	35.00
0.21595	35.01
0.23262	35.01
0.24928	35.01
0.26595	35.00
0.28262	34.98
0.29928	34.98
0.31595	34.99
0.33262	34.99
0.34928	35.00
0.36595	35.00
0.38262	34.99
0.39928	34.98
0.41595	34.99
0.43262	34.99
0.44928	34.99
0.46595	34.98
0.48262	34.98
0.49928	34.99
0.51595	35.00
0.53262	35.01
0.54928	35.02
0.56595	35.01
0.58262	35.00
0.59928	34.99
0.61595	34.99
0.63262	35.00
0.64928	34.99
0.66595	34.99
0.68262	34.99
0.69928	34.98
0.71595	34.99
0.73262	34.97
0.74928	34.96
0.76595	34.96
0.78262	34.97
0.79928	34.98
0.81595	34.97
0.83262	34.98
0.84928	34.99
0.86595	35.00
0.88262	34.99
0.89928	34.99
0.91595	34.98
0.93262	34.97
0.94928	34.97
0.96595	34.97
0.98262	34.97
0.99928	34.96
1.01595	34.96
1.03262	34.97
1.04928	34.97
1.06595	34.98
1.08262	34.99
1.09928	35.00
1.11595	35.01
1.13262	35.02
1.14928	35.02
1.16595	35.01
1.18262	35.02
1.19928	35.03
1.21595	35.03
1.23262	35.02
1.24928	35.02
1.26595	35.03
1.28262	35.03
1.29928	35.03
1.31595	35.02
1.33262	35.01
1.34928	35.00
1.36595	34.98
1.38262	34.96
1.39928	34.97
1.41595	34.99
1.43262	35.00
1.44928	35.01
1.46595	35.02
1.48262	35.02
1.49928	35.02
1.51595	35.01
1.53262	35.01
1.54928	35.02
1.56595	35.01
1.58262	35.01
1.59928	35.04
1.61595	35.12
1.63262	35.28
1.64928	35.49
1.66595	35.78
1.68262	36.16
1.69928	36.52
1.71595	36.86
1.73262	37.18
1.74928	37.51
1.76595	37.83
1.78262	38.17
1.79928	38.49
1.81595	38.83
1.83262	39.15
1.84928	39.49
1.86595	39.82
1.88262	40.17
1.89928	40.48
1.91595	40.82
1.93262	41.15
1.94928	41.46
1.96595	41.80
1.98262	42.12
1.99928	42.45
2.01595	42.77
2.03262	43.10
2.04928	43.41
2.06595	43.76
2.08262	44.06
2.09928	44.38
2.11595	44.71
2.13262	45.04
2.14928	45.37
2.16595	45.69
2.18262	46.01
2.19928	46.33
2.21595	46.64
2.23262	47.00
2.24928	47.34
2.26595	47.67
2.28262	47.99
2.29928	48.31
2.31595	48.66
2.33262	49.01
2.34928	49.29
2.36595	49.55
2.38262	49.67
2.39928	49.69
2.41595	49.69
2.43262	49.70
2.44928	49.70
2.46595	49.72
2.48262	49.72
2.49928	49.74
2.51595	49.76
2.53262	49.76
2.54928	49.80
2.56595	49.78
2.58262	49.82
2.59928	49.83
2.61595	49.83
2.63262	49.83
2.64928	49.83
2.66595	49.84
2.68262	49.86
2.69928	49.86
2.71595	49.85
2.73262	49.84
2.74928	49.87
2.76595	49.89
2.78262	49.91
2.79928	49.90
2.81595	49.88
2.83262	49.87
2.84928	49.87
2.86595	49.87
2.88262	49.89
2.89928	49.92
2.91595	49.93
2.93262	49.96
2.94928	49.98
2.96595	49.99
2.98262	49.99
2.99928	49.99
3.01595	50.00
3.03262	50.00
3.04928	50.02
3.06595	50.04
3.08262	50.05
3.09928	50.06
3.11595	50.06
3.13262	50.05
3.14928	50.05
3.16595	50.05
3.18262	50.05
3.19928	50.06
3.21595	50.08
3.23262	50.10
3.24928	50.12
3.26595	50.13
3.28262	50.12
3.29928	50.11
3.31595	50.09
3.33262	50.07
3.34928	50.05
3.36595	50.02
3.38262	50.01
3.39928	49.99
3.41595	49.98
3.43262	49.98
3.44928	49.98
3.46595	49.98
3.48262	49.98
3.49928	50.00
3.51595	50.01
3.53262	50.01
3.54928	50.02
3.56595	50.02
3.58262	50.02
3.59928	50.02
3.61595	50.00
3.63262	50.01
3.64928	50.01
3.66595	50.01
3.68262	50.02
3.69928	50.02
3.71595	50.02
3.73262	50.03
3.74928	50.03
3.76595	50.04
3.78262	50.06
3.79928	50.07
3.81595	50.06
3.83262	50.07
3.84928	50.06
3.86595	50.06
3.88262	50.07
3.89928	50.07
3.91595	50.07
3.93262	50.07
3.94928	50.06
3.96595	50.06
3.98262	50.06
3.99928	50.05

[Status Trace (Injection Unit Temperature)]
Interval(msec)	1000
# of Points	240
Start Time(min)	0.016
End Time(min)	3.999
Intensity Units	
Intensity Multiplier	1
R.Time (min)	Intensity
0.01595	99.98
0.03262	99.99
0.04928	99.99
0.06595	99.99
0.08262	99.98
0.09928	99.99
0.11595	99.99
0.13262	99.98
0.14928	99.99
0.16595	99.98
0.18262	99.99
0.19928	99.99
0.21595	99.99
0.23262	99.98
0.24928	99.99
0.26595	99.98
0.28262	99.99
0.29928	99.98
0.31595	99.99
0.33262	99.99
0.34928	99.99
0.36595	99.98
0.38262	99.98
0.39928	99.98
0.41595	99.99
0.43262	99.99
0.44928	99.98
0.46595	99.99
0.48262	99.99
0.49928	99.99
0.51595	99.98
0.53262	99.99
0.54928	99.99
0.56595	99.98
0.58262	99.98
0.59928	99.98
0.61595	99.98
0.63262	99.99
0.64928	99.98
0.66595	99.98
0.68262	99.99
0.69928	99.99
0.71595	99.99
0.73262	99.99
0.74928	99.99
0.76595	99.98
0.78262	99.98
0.79928	99.98
0.81595	99.98
0.83262	99.98
0.84928	99.98
0.86595	99.98
0.88262	99.98
0.89928	99.98
0.91595	99.97
0.93262	99.98
0.94928	99.98
0.96595	99.97
0.98262	99.98
0.99928	99.97
1.01595	99.98
1.03262	99.98
1.04928	99.97
1.06595	99.98
1.08262	99.98
1.09928	99.98
1.11595	99.97
1.13262	99.97
1.14928	99.97
1.16595	99.98
1.18262	99.98
1.19928	99.98
1.21595	99.98
1.23262	99.97
1.24928	99.98
1.26595	99.98
1.28262	99.98
1.29928	99.98
1.31595	99.98
1.33262	99.98
1.34928	99.98
1.36595	99.98
1.38262	99.98
1.39928	99.98
1.41595	99.98
1.43262	99.98
1.44928	99.98
1.46595	99.98
1.48262	99.99
1.49928	99.98
1.51595	99.99
1.53262	99.98
1.54928	99.99
1.56595	99.98
1.58262	99.99
1.59928	99.99
1.61595	99.99
1.63262	99.99
1.64928	99.99
1.66595	99.99
1.68262	99.99
1.69928	99.99
1.71595	99.99
1.73262	99.99
1.74928	99.99
1.76595	99.99
1.78262	99.99
1.79928	99.99
1.81595	99.99
1.83262	99.99
1.84928	99.99
1.86595	99.99
1.88262	99.99
1.89928	99.98
1.91595	99.99
1.93262	99.98
1.94928	99.98
1.96595	99.98
1.98262	99.97
1.99928	99.98
2.01595	99.98
2.03262	99.98
2.04928	99.98
2.06595	99.97
2.08262	99.97
2.09928	99.97
2.11595	99.97
2.13262	99.97
2.14928	99.97
2.16595	99.97
2.18262	99.97
2.19928	99.97
2.21595	99.96
2.23262	99.97
2.24928	99.96
2.26595	99.97
2.28262	99.97
2.29928	99.96
2.31595	99.96
2.33262	99.96
2.34928	99.96
2.36595	99.96
2.38262	99.96
2.39928	99.97
2.41595	99.96
2.43262	99.96
2.44928	99.96
2.46595	99.96
2.48262	99.96
2.49928	99.96
2.51595	99.97
2.53262	99.97
2.54928	99.97
2.56595	99.97
2.58262	99.97
2.59928	99.97
2.61595	99.97
2.63262	99.97
2.64928	99.98
2.66595	99.97
2.68262	99.97
2.69928	99.98
2.71595	99.98
2.73262	99.98
2.74928	99.98
2.76595	99.99
2.78262	99.98
2.79928	99.99
2.81595	99.99
2.83262	99.99
2.84928	100.00
2.86595	100.00
2.88262	100.00
2.89928	100.00
2.91595	100.00
2.93262	100.00
2.94928	100.00
2.96595	100.01
2.98262	100.01
2.99928	100.01
3.01595	100.01
3.03262	100.01
3.04928	100.02
3.06595	100.02
3.08262	100.02
3.09928	100.02
3.11595	100.02
3.13262	100.02
3.14928	100.03
3.16595	100.03
3.18262	100.03
3.19928	100.03
3.21595	100.03
3.23262	100.03
3.24928	100.03
3.26595	100.03
3.28262	100.03
3.29928	100.02
3.31595	100.03
3.33262	100.03
3.34928	100.03
3.36595	100.03
3.38262	100.03
3.39928	100.04
3.41595	100.03
3.43262	100.04
3.44928	100.04
3.46595	100.04
3.48262	100.04
3.49928	100.03
3.51595	100.04
3.53262	100.04
3.54928	100.04
3.56595	100.04
3.58262	100.04
3.59928	100.04
3.61595	100.04
3.63262	100.04
3.64928	100.03
3.66595	100.04
3.68262	100.04
3.69928	100.03
3.71595	100.04
3.73262	100.04
3.74928	100.04
3.76595	100.04
3.78262	100.04
3.79928	100.04
3.81595	100.04
3.83262	100.04
3.84928	100.04
3.86595	100.04
3.88262	100.04
3.89928	100.04
3.91595	100.03
3.93262	100.04
3.94928	100.04
3.96595	100.04
3.98262	100.03
3.99928	100.04

[Status Trace (Carrier Gas Pressure)]
Interval(msec)	1000
# of Points	240
Start Time(min)	0.016
End Time(min)	3.999
Intensity Units	
Intensity Multiplier	1
R.Time (min)	Intensity
0.01595	57.01
0.03262	55.83
0.04928	58.22
0.06595	59.89
0.08262	58.53
0.09928	57.97
0.11595	58.00
0.13262	58.01
0.14928	58.01
0.16595	58.00
0.18262	58.00
0.19928	58.00
0.21595	58.00
0.23262	58.00
0.24928	58.00
0.26595	58.00
0.28262	58.00
0.29928	58.00
0.31595	58.00
0.33262	58.00
0.34928	58.00
0.36595	58.00
0.38262	58.00
0.39928	58.00
0.41595	58.00
0.43262	58.00
0.44928	58.00
0.46595	58.00
0.48262	58.00
0.49928	58.00
0.51595	58.00
0.53262	58.00
0.54928	58.00
0.56595	58.00
0.58262	58.00
0.59928	58.00
0.61595	58.00
0.63262	58.00
0.64928	58.00
0.66595	58.00
0.68262	58.00
0.69928	58.00
0.71595	58.00
0.73262	58.00
0.74928	58.00
0.76595	58.00
0.78262	58.00
0.79928	58.00
0.81595	58.00
0.83262	58.00
0.84928	58.00
0.86595	58.00
0.88262	58.00
0.89928	58.00
0.91595	58.00
0.93262	58.00
0.94928	58.00
0.96595	58.00
0.98262	58.00
0.99928	58.00
1.01595	58.00
1.03262	58.00
1.04928	58.00
1.06595	58.00
1.08262	58.00
1.09928	58.00
1.11595	58.00
1.13262	58.00
1.14928	58.00
1.16595	58.00
1.18262	58.00
1.19928	58.00
1.21595	58.00
1.23262	58.00
1.24928	58.00
1.26595	58.00
1.28262	58.00
1.29928	58.00
1.31595	58.00
1.33262	58.00
1.34928	58.00
1.36595	58.00
1.38262	58.00
1.39928	58.00
1.41595	58.00
1.43262	58.00
1.44928	58.00
1.46595	58.00
1.48262	58.00
1.49928	58.00
1.51595	58.00
1.53262	58.00
1.54928	58.00
1.56595	58.00
1.58262	58.00
1.59928	58.00
1.61595	58.00
1.63262	58.01
1.64928	58.00
1.66595	58.00
1.68262	58.01
1.69928	58.00
1.71595	58.00
1.73262	58.00
1.74928	58.00
1.76595	58.00
1.78262	58.00
1.79928	58.00
1.81595	58.00
1.83262	58.00
1.84928	58.00
1.86595	58.00
1.88262	58.00
1.89928	58.00
1.91595	58.00
1.93262	58.00
1.94928	58.00
1.96595	58.00
1.98262	58.00
1.99928	58.00
2.01595	58.00
2.03262	58.00
2.04928	58.00
2.06595	58.00
2.08262	58.00
2.09928	58.00
2.11595	58.00
2.13262	58.00
2.14928	58.00
2.16595	58.00
2.18262	58.00
2.19928	58.00
2.21595	58.00
2.23262	58.00
2.24928	58.00
2.26595	58.00
2.28262	58.00
2.29928	58.00
2.31595	58.00
2.33262	58.00
2.34928	58.00
2.36595	58.00
2.38262	57.99
2.39928	57.99
2.41595	58.00
2.43262	58.00
2.44928	58.00
2.46595	58.00
2.48262	58.00
2.49928	58.00
2.51595	57.99
2.53262	57.99
2.54928	58.00
2.56595	58.00
2.58262	58.00
2.59928	58.00
2.61595	58.00
2.63262	58.00
2.64928	58.00
2.66595	58.00
2.68262	58.00
2.69928	58.00
2.71595	58.00
2.73262	58.00
2.74928	58.00
2.76595	58.00
2.78262	58.00
2.79928	58.00
2.81595	58.00
2.83262	58.00
2.84928	58.00
2.86595	58.00
2.88262	58.00
2.89928	58.00
2.91595	58.00
2.93262	58.00
2.94928	58.00
2.96595	58.00
2.98262	58.00
2.99928	58.00
3.01595	58.00
3.03262	58.00
3.04928	58.00
3.06595	58.00
3.08262	58.00
3.09928	58.00
3.11595	58.00
3.13262	58.00
3.14928	58.00
3.16595	58.00
3.18262	58.00
3.19928	58.00
3.21595	58.00
3.23262	58.00
3.24928	58.00
3.26595	58.00
3.28262	58.00
3.29928	58.00
3.31595	58.00
3.33262	58.00
3.34928	58.00
3.36595	58.00
3.38262	58.00
3.39928	58.00
3.41595	58.00
3.43262	58.00
3.44928	58.00
3.46595	58.00
3.48262	58.00
3.49928	58.00
3.51595	58.00
3.53262	58.00
3.54928	58.00
3.56595	58.00
3.58262	58.00
3.59928	58.00
3.61595	58.00
3.63262	58.00
3.64928	58.00
3.66595	58.00
3.68262	58.00
3.69928	58.00
3.71595	58.00
3.73262	58.00
3.74928	58.00
3.76595	58.00
3.78262	58.00
3.79928	58.00
3.81595	58.00
3.83262	58.00
3.84928	58.00
3.86595	58.00
3.88262	58.00
3.89928	58.00
3.91595	58.00
3.93262	58.00
3.94928	58.00
3.96595	58.00
3.98262	58.00
3.99928	58.00

[Status Trace (Carrier Gas Flow)]
Interval(msec)	1000
# of Points	240
Start Time(min)	0.016
End Time(min)	3.999
Intensity Units	
Intensity Multiplier	1
R.Time (min)	Intensity
0.01595	33.85
0.03262	34.54
0.04928	34.55
0.06595	34.51
0.08262	34.51
0.09928	34.52
0.11595	34.52
0.13262	34.52
0.14928	34.52
0.16595	34.52
0.18262	34.51
0.19928	34.52
0.21595	34.52
0.23262	34.52
0.24928	34.52
0.26595	34.52
0.28262	34.52
0.29928	34.52
0.31595	34.52
0.33262	34.52
0.34928	34.52
0.36595	34.52
0.38262	34.52
0.39928	34.52
0.41595	34.52
0.43262	34.52
0.44928	34.52
0.46595	34.52
0.48262	34.52
0.49928	34.52
0.51595	34.52
0.53262	34.53
0.54928	34.52
0.56595	34.51
0.58262	34.51
0.59928	34.52
0.61595	34.52
0.63262	34.52
0.64928	34.51
0.66595	34.52
0.68262	34.52
0.69928	34.52
0.71595	34.52
0.73262	34.52
0.74928	34.52
0.76595	34.52
0.78262	34.52
0.79928	34.52
0.81595	34.52
0.83262	34.52
0.84928	34.52
0.86595	34.52
0.88262	34.52
0.89928	34.52
0.91595	34.52
0.93262	34.52
0.94928	34.52
0.96595	34.52
0.98262	34.52
0.99928	34.52
1.01595	34.52
1.03262	34.52
1.04928	34.51
1.06595	34.52
1.08262	34.52
1.09928	34.52
1.11595	34.51
1.13262	34.52
1.14928	34.52
1.16595	34.52
1.18262	34.52
1.19928	34.52
1.21595	34.52
1.23262	34.52
1.24928	34.52
1.26595	34.52
1.28262	34.53
1.29928	34.52
1.31595	34.52
1.33262	34.52
1.34928	34.52
1.36595	34.52
1.38262	34.52
1.39928	34.52
1.41595	34.52
1.43262	34.52
1.44928	34.52
1.46595	34.52
1.48262	34.52
1.49928	34.52
1.51595	34.52
1.53262	34.51
1.54928	34.52
1.56595	34.51
1.58262	34.52
1.59928	34.51
1.61595	34.52
1.63262	34.52
1.64928	34.51
1.66595	34.52
1.68262	34.52
1.69928	34.52
1.71595	34.51
1.73262	34.52
1.74928	34.52
1.76595	34.52
1.78262	34.52
1.79928	34.52
1.81595	34.52
1.83262	34.52
1.84928	34.52
1.86595	34.52
1.88262	34.52
1.89928	34.52
1.91595	34.51
1.93262	34.52
1.94928	34.53
1.96595	34.52
1.98262	34.52
1.99928	34.52
2.01595	34.52
2.03262	34.52
2.04928	34.52
2.06595	34.52
2.08262	34.52
2.09928	34.52
2.11595	34.51
2.13262	34.51
2.14928	34.52
2.16595	34.52
2.18262	34.51
2.19928	34.51
2.21595	34.52
2.23262	34.52
2.24928	34.52
2.26595	34.51
2.28262	34.52
2.29928	34.51
2.31595	34.52
2.33262	34.53
2.34928	34.51
2.36595	34.52
2.38262	34.52
2.39928	34.52
2.41595	34.52
2.43262	34.51
2.44928	34.52
2.46595	34.51
2.48262	34.52
2.49928	34.52
2.51595	34.52
2.53262	34.52
2.54928	34.52
2.56595	34.52
2.58262	34.52
2.59928	34.52
2.61595	34.52
2.63262	34.52
2.64928	34.52
2.66595	34.51
2.68262	34.51
2.69928	34.52
2.71595	34.52
2.73262	34.51
2.74928	34.52
2.76595	34.52
2.78262	34.52
2.79928	34.51
2.81595	34.51
2.83262	34.52
2.84928	34.52
2.86595	34.52
2.88262	34.51
2.89928	34.52
2.91595	34.52
2.93262	34.52
2.94928	34.52
2.96595	34.52
2.98262	34.52
2.99928	34.52
3.01595	34.52
3.03262	34.52
3.04928	34.52
3.06595	34.52
3.08262	34.51
3.09928	34.52
3.11595	34.52
3.13262	34.51
3.14928	34.51
3.16595	34.52
3.18262	34.52
3.19928	34.52
3.21595	34.52
3.23262	34.52
3.24928	34.52
3.26595	34.52
3.28262	34.51
3.29928	34.52
3.31595	34.51
3.33262	34.51
3.34928	34.52
3.36595	34.52
3.38262	34.52
3.39928	34.52
3.41595	34.52
3.43262	34.52
3.44928	34.51
3.46595	34.52
3.48262	34.52
3.49928	34.52
3.51595	34.52
3.53262	34.52
3.54928	34.51
3.56595	34.52
3.58262	34.52
3.59928	34.52
3.61595	34.52
3.63262	34.52
3.64928	34.52
3.66595	34.51
3.68262	34.52
3.69928	34.52
3.71595	34.52
3.73262	34.51
3.74928	34.51
3.76595	34.51
3.78262	34.52
3.79928	34.52
3.81595	34.52
3.83262	34.52
3.84928	34.52
3.86595	34.52
3.88262	34.52
3.89928	34.52
3.91595	34.52
3.93262	34.52
3.94928	34.52
3.96595	34.52
3.98262	34.52
3.99928	34.52

[Status Trace (Column Flow)]
Interval(msec)	1000
# of Points	240
Start Time(min)	0.016
End Time(min)	3.999
Intensity Units	
Intensity Multiplier	1
R.Time (min)	Intensity
0.01595	5.40
0.03262	5.26
0.04928	5.54
0.06595	5.74
0.08262	5.58
0.09928	5.51
0.11595	5.52
0.13262	5.52
0.14928	5.52
0.16595	5.52
0.18262	5.52
0.19928	5.52
0.21595	5.52
0.23262	5.52
0.24928	5.52
0.26595	5.52
0.28262	5.52
0.29928	5.52
0.31595	5.52
0.33262	5.52
0.34928	5.52
0.36595	5.52
0.38262	5.52
0.39928	5.52
0.41595	5.52
0.43262	5.52
0.44928	5.52
0.46595	5.52
0.48262	5.52
0.49928	5.52
0.51595	5.52
0.53262	5.52
0.54928	5.51
0.56595	5.51
0.58262	5.52
0.59928	5.52
0.61595	5.52
0.63262	5.52
0.64928	5.52
0.66595	5.52
0.68262	5.52
0.69928	5.52
0.71595	5.52
0.73262	5.52
0.74928	5.52
0.76595	5.52
0.78262	5.52
0.79928	5.52
0.81595	5.52
0.83262	5.52
0.84928	5.52
0.86595	5.52
0.88262	5.52
0.89928	5.52
0.91595	5.52
0.93262	5.52
0.94928	5.52
0.96595	5.52
0.98262	5.52
0.99928	5.52
1.01595	5.52
1.03262	5.52
1.04928	5.52
1.06595	5.52
1.08262	5.52
1.09928	5.52
1.11595	5.52
1.13262	5.51
1.14928	5.51
1.16595	5.51
1.18262	5.52
1.19928	5.51
1.21595	5.51
1.23262	5.51
1.24928	5.51
1.26595	5.51
1.28262	5.51
1.29928	5.51
1.31595	5.51
1.33262	5.52
1.34928	5.52
1.36595	5.52
1.38262	5.52
1.39928	5.52
1.41595	5.52
1.43262	5.52
1.44928	5.52
1.46595	5.51
1.48262	5.51
1.49928	5.51
1.51595	5.52
1.53262	5.52
1.54928	5.52
1.56595	5.52
1.58262	5.52
1.59928	5.51
1.61595	5.51
1.63262	5.51
1.64928	5.50
1.66595	5.49
1.68262	5.48
1.69928	5.47
1.71595	5.46
1.73262	5.45
1.74928	5.44
1.76595	5.43
1.78262	5.42
1.79928	5.41
1.81595	5.40
1.83262	5.39
1.84928	5.38
1.86595	5.37
1.88262	5.36
1.89928	5.35
1.91595	5.34
1.93262	5.33
1.94928	5.32
1.96595	5.31
1.98262	5.30
1.99928	5.29
2.01595	5.28
2.03262	5.27
2.04928	5.26
2.06595	5.25
2.08262	5.24
2.09928	5.23
2.11595	5.22
2.13262	5.21
2.14928	5.20
2.16595	5.19
2.18262	5.18
2.19928	5.18
2.21595	5.17
2.23262	5.16
2.24928	5.15
2.26595	5.14
2.28262	5.13
2.29928	5.12
2.31595	5.11
2.33262	5.10
2.34928	5.09
2.36595	5.09
2.38262	5.08
2.39928	5.08
2.41595	5.08
2.43262	5.08
2.44928	5.08
2.46595	5.08
2.48262	5.08
2.49928	5.08
2.51595	5.08
2.53262	5.08
2.54928	5.08
2.56595	5.08
2.58262	5.08
2.59928	5.08
2.61595	5.08
2.63262	5.08
2.64928	5.08
2.66595	5.08
2.68262	5.08
2.69928	5.08
2.71595	5.08
2.73262	5.08
2.74928	5.08
2.76595	5.08
2.78262	5.08
2.79928	5.08
2.81595	5.08
2.83262	5.08
2.84928	5.08
2.86595	5.08
2.88262	5.08
2.89928	5.08
2.91595	5.07
2.93262	5.07
2.94928	5.07
2.96595	5.07
2.98262	5.07
2.99928	5.07
3.01595	5.07
3.03262	5.07
3.04928	5.07
3.06595	5.07
3.08262	5.07
3.09928	5.07
3.11595	5.07
3.13262	5.07
3.14928	5.07
3.16595	5.07
3.18262	5.07
3.19928	5.07
3.21595	5.07
3.23262	5.07
3.24928	5.07
3.26595	5.07
3.28262	5.07
3.29928	5.07
3.31595	5.07
3.33262	5.07
3.34928	5.07
3.36595	5.07
3.38262	5.07
3.39928	5.07
3.41595	5.07
3.43262	5.07
3.44928	5.07
3.46595	5.07
3.48262	5.07
3.49928	5.07
3.51595	5.07
3.53262	5.07
3.54928	5.07
3.56595	5.07
3.58262	5.07
3.59928	5.07
3.61595	5.07
3.63262	5.07
3.64928	5.07
3.66595	5.07
3.68262	5.07
3.69928	5.07
3.71595	5.07
3.73262	5.07
3.74928	5.07
3.76595	5.07
3.78262	5.07
3.79928	5.07
3.81595	5.07
3.83262	5.07
3.84928	5.07
3.86595	5.07
3.88262	5.07
3.89928	5.07
3.91595	5.07
3.93262	5.07
3.94928	5.07
3.96595	5.07
3.98262	5.07
3.99928	5.07

[Status Trace (Linear Velocity)]
Interval(msec)	1000
# of Points	240
Start Time(min)	0.016
End Time(min)	3.999
Intensity Units	
Intensity Multiplier	1
R.Time (min)	Intensity
0.01595	38.37
0.03262	37.59
0.04928	39.16
0.06595	40.26
0.08262	39.37
0.09928	39.00
0.11595	39.02
0.13262	39.03
0.14928	39.02
0.16595	39.02
0.18262	39.02
0.19928	39.02
0.21595	39.02
0.23262	39.02
0.24928	39.02
0.26595	39.02
0.28262	39.02
0.29928	39.02
0.31595	39.02
0.33262	39.02
0.34928	39.01
0.36595	39.01
0.38262	39.02
0.39928	39.02
0.41595	39.02
0.43262	39.02
0.44928	39.02
0.46595	39.02
0.48262	39.02
0.49928	39.02
0.51595	39.02
0.53262	39.01
0.54928	39.01
0.56595	39.01
0.58262	39.02
0.59928	39.02
0.61595	39.02
0.63262	39.02
0.64928	39.02
0.66595	39.02
0.68262	39.02
0.69928	39.02
0.71595	39.02
0.73262	39.02
0.74928	39.02
0.76595	39.02
0.78262	39.02
0.79928	39.02
0.81595	39.02
0.83262	39.02
0.84928	39.02
0.86595	39.02
0.88262	39.02
0.89928	39.02
0.91595	39.02
0.93262	39.02
0.94928	39.02
0.96595	39.02
0.98262	39.02
0.99928	39.02
1.01595	39.02
1.03262	39.02
1.04928	39.02
1.06595	39.02
1.08262	39.02
1.09928	39.02
1.11595	39.01
1.13262	39.01
1.14928	39.01
1.16595	39.01
1.18262	39.01
1.19928	39.01
1.21595	39.01
1.23262	39.01
1.24928	39.01
1.26595	39.01
1.28262	39.01
1.29928	39.01
1.31595	39.01
1.33262	39.01
1.34928	39.02
1.36595	39.02
1.38262	39.02
1.39928	39.02
1.41595	39.02
1.43262	39.02
1.44928	39.01
1.46595	39.01
1.48262	39.01
1.49928	39.01
1.51595	39.01
1.53262	39.01
1.54928	39.01
1.56595	39.01
1.58262	39.01
1.59928	39.01
1.61595	39.01
1.63262	38.99
1.64928	38.97
1.66595	38.95
1.68262	38.91
1.69928	38.87
1.71595	38.84
1.73262	38.81
1.74928	38.78
1.76595	38.75
1.78262	38.71
1.79928	38.68
1.81595	38.65
1.83262	38.62
1.84928	38.59
1.86595	38.56
1.88262	38.53
1.89928	38.49
1.91595	38.47
1.93262	38.43
1.94928	38.40
1.96595	38.38
1.98262	38.34
1.99928	38.31
2.01595	38.29
2.03262	38.25
2.04928	38.22
2.06595	38.20
2.08262	38.16
2.09928	38.14
2.11595	38.11
2.13262	38.08
2.14928	38.05
2.16595	38.02
2.18262	37.99
2.19928	37.96
2.21595	37.93
2.23262	37.90
2.24928	37.87
2.26595	37.84
2.28262	37.81
2.29928	37.78
2.31595	37.75
2.33262	37.72
2.34928	37.69
2.36595	37.67
2.38262	37.66
2.39928	37.65
2.41595	37.66
2.43262	37.66
2.44928	37.66
2.46595	37.66
2.48262	37.65
2.49928	37.65
2.51595	37.65
2.53262	37.65
2.54928	37.65
2.56595	37.65
2.58262	37.65
2.59928	37.65
2.61595	37.65
2.63262	37.65
2.64928	37.65
2.66595	37.65
2.68262	37.64
2.69928	37.64
2.71595	37.64
2.73262	37.65
2.74928	37.64
2.76595	37.64
2.78262	37.64
2.79928	37.64
2.81595	37.64
2.83262	37.64
2.84928	37.64
2.86595	37.64
2.88262	37.64
2.89928	37.64
2.91595	37.64
2.93262	37.63
2.94928	37.63
2.96595	37.63
2.98262	37.63
2.99928	37.63
3.01595	37.63
3.03262	37.63
3.04928	37.63
3.06595	37.63
3.08262	37.63
3.09928	37.63
3.11595	37.63
3.13262	37.63
3.14928	37.63
3.16595	37.63
3.18262	37.63
3.19928	37.63
3.21595	37.62
3.23262	37.62
3.24928	37.62
3.26595	37.62
3.28262	37.62
3.29928	37.62
3.31595	37.62
3.33262	37.62
3.34928	37.63
3.36595	37.63
3.38262	37.63
3.39928	37.63
3.41595	37.63
3.43262	37.63
3.44928	37.63
3.46595	37.63
3.48262	37.63
3.49928	37.63
3.51595	37.63
3.53262	37.63
3.54928	37.63
3.56595	37.63
3.58262	37.63
3.59928	37.63
3.61595	37.63
3.63262	37.63
3.64928	37.63
3.66595	37.63
3.68262	37.63
3.69928	37.63
3.71595	37.63
3.73262	37.63
3.74928	37.63
3.76595	37.63
3.78262	37.63
3.79928	37.63
3.81595	37.63
3.83262	37.62
3.84928	37.63
3.86595	37.63
3.88262	37.63
3.89928	37.63
3.91595	37.63
3.93262	37.62
3.94928	37.63
3.96595	37.63
3.98262	37.63
3.99928	37.63

