[Header]
Application Name	LabSolutions
Version	5.110
Data File Name	C:\Users\User\Desktop\GC Analyses\Jack\Nachusa Grasslands Sampling\T2 Timepoint July 12th\T2_07122022_021.gcd
Output Date	3/14/2023
Output Time	3:42:31 PM

[File Information]
Type	Data File
Generated	3/10/2023 2:39:09 PM
Generated by	System Administrator
Modified	3/10/2023 2:46:00 PM
Modified by	System Administrator

[Sample Information]
Operator Name	System Administrator
Acquired	3/10/2023 2:41:59 PM
Sample Type	0:Unknown
Level	0
Sample Name	021
Sample ID	021
ISTD Amount1	1
ISTD Amount2	1
ISTD Amount3	1
ISTD Amount4	1
ISTD Amount5	1
ISTD Amount6	1
ISTD Amount7	1
ISTD Amount8	1
ISTD Amount9	1
ISTD Amount10	1
ISTD Amount11	1
ISTD Amount12	1
ISTD Amount13	1
ISTD Amount14	1
ISTD Amount15	1
ISTD Amount16	1
ISTD Amount17	1
ISTD Amount18	1
ISTD Amount19	1
ISTD Amount20	1
ISTD Amount21	1
ISTD Amount22	1
ISTD Amount23	1
ISTD Amount24	1
ISTD Amount25	1
ISTD Amount26	1
ISTD Amount27	1
ISTD Amount28	1
ISTD Amount29	1
ISTD Amount30	1
ISTD Amount31	1
ISTD Amount32	1
Sample Amount	1
Dilution Factor	1
Vial#	20
Injection Volume	1
Injection Count	1
Bar Code	

[Original Files]
Data File	C:\Users\User\Desktop\GC Analyses\Jack\Nachusa Grasslands Sampling\T1 Timepoint July 12th\T2_07122022_021.gcd
Method File	C:\LabSolutions\Data\GHG_4min_2022\ghg3_togas_w_acet_4 min_new_int.gcm
Batch File	C:\LabSolutions\Data\AutoSamplerTesting\T2_07122022.gcb
Report Format File	c:\LabSolutions\System\DEFAULT.lsr

[File Description]


[Configuration]
Instrument Name	C0B7VH3-Instrument1
Instrument #	1
Line #	1
# of Detectors	3
Detector ID	DET#1	DET#2	DET#3
Detector Name	FID	PTCD	ECD
# of Channels	1	1	1

[Peak Table(Ch1)]
# of Peaks	3
Peak#	R.Time	I.Time	F.Time	Area	Height	A/H	Conc.	Mark	ID#	Name	k'	Plate #	Plate Ht.	Tailing	Resolution	Sep.Factor	Area Ratio	Height Ratio	Conc. %	Norm Conc.
1	1.476	1.435	1.538	27360	12990	2.106	193.165	   	1	CO	0.000	9257	16.204	1.281	0.000	0.000	0	0	24.503	24.503
2	1.567	1.538	1.641	4650	2240	2.076	89.913	 V 	2	CH4	0.062	10870	13.800	0.000	1.509	0.000	0	0	11.405	11.405
3	1.996	1.949	2.499	2013216	964347	2.088	505.263	   	3	CO2	0.353	17488	8.577	1.245	7.119	5.680	0	0	64.092	64.092

[Peak Table(Ch2)]
# of Peaks	0

[Peak Table(Ch3)]
# of Peaks	5
Peak#	R.Time	I.Time	F.Time	Area	Height	A/H	Conc.	Mark	ID#	Name	k'	Plate #	Plate Ht.	Tailing	Resolution	Sep.Factor	Area Ratio	Height Ratio	Conc. %	Norm Conc.
1	2.462	2.370	2.513	1640	535	3.066	0.000	   			0.000	9660	15.529	0.000	0.000	0.000	0	0	0.000	0.000
2	2.535	2.513	2.634	1190	298	3.991	0.000	 V 			0.030	4985	30.089	0.000	0.602	0.000	0	0	0.000	0.000
3	2.671	2.642	2.708	86	36	2.389	0.000	   			0.085	24529	6.115	1.126	1.281	2.850	0	0	0.000	0.000
4	2.876	2.737	3.100	19914	5002	3.981	0.509	   	1	N2O	0.168	13149	11.407	1.723	2.436	1.982	0	0	100.000	100.000
5	3.217	3.107	3.701	8879	418	21.259	0.000	   	2	SF6	0.307	576	260.638	2.664	1.071	1.823	0	0	0.000	0.000

[Compound Results(Ch1)]
# of IDs	6
ID#	Name	R.Time	Area	Height	Conc.	Curve	3rd	2nd	1st	Constant	Area Ratio	Height Ratio	Conc. %	Norm Conc.
1	CO	1.476	27360	12990	193.165	Linear	0.000000e+00	0.000000e+00	1.416423e+002	0.000000e+00	0	0	24.503	24.503
2	CH4	1.567	4650	2240	89.913	Linear	0.000000e+00	0.000000e+00	5.171738e+001	0.000000e+00	0	0	11.405	11.405
3	CO2	1.996	2013216	964347	505.263	Linear	0.000000e+00	0.000000e+00	3.984494e+003	0.000000e+00	0	0	64.092	64.092
4	Ethylene	0.000	0	0	0.000	Linear	0.000000e+00	0.000000e+00	0.000000e+00	0.000000e+00	0	0	0.000	0.000
5	Acetylene	0.000	0	0	0.000	Linear	0.000000e+00	0.000000e+00	0.000000e+00	0.000000e+00	0	0	0.000	0.000
6	Ethane	0.000	0	0	0.000	Linear	0.000000e+00	0.000000e+00	0.000000e+00	0.000000e+00	0	0	0.000	0.000

[Compound Results(Ch2)]
# of IDs	5
ID#	Name	R.Time	Area	Height	Conc.	Curve	3rd	2nd	1st	Constant	Area Ratio	Height Ratio	Conc. %	Norm Conc.
1	Hydrogen	0.000	0	0	0.000	Linear	0.000000e+00	0.000000e+00	0.000000e+00	0.000000e+00	0	0	0.000	0.000
2	Oxygen	0.000	0	0	0.000	Linear	0.000000e+00	0.000000e+00	0.000000e+00	0.000000e+00	0	0	0.000	0.000
3	Nitrogen	0.000	0	0	0.000	Linear	0.000000e+00	0.000000e+00	0.000000e+00	0.000000e+00	0	0	0.000	0.000
4	Methane	0.000	0	0	0.000	Linear	0.000000e+00	0.000000e+00	0.000000e+00	0.000000e+00	0	0	0.000	0.000
5	Carbon Monoxide	0.000	0	0	0.000	Linear	0.000000e+00	0.000000e+00	0.000000e+00	0.000000e+00	0	0	0.000	0.000

[Compound Results(Ch3)]
# of IDs	2
ID#	Name	R.Time	Area	Height	Conc.	Curve	3rd	2nd	1st	Constant	Area Ratio	Height Ratio	Conc. %	Norm Conc.
1	N2O	2.876	19914	5002	0.509	Linear	0.000000e+00	0.000000e+00	3.915173e+004	0.000000e+00	0	0	100.000	100.000
2	SF6	3.217	8879	418	0.000	Linear	0.000000e+00	0.000000e+00	0.000000e+00	0.000000e+00	0	0	0.000	0.000

[Group Results(Ch1)]
# of Groups	0

[Group Results(Ch2)]
# of Groups	0

[Group Results(Ch3)]
# of Groups	0

[Chromatogram (Ch1)]
Interval(msec)	220
# of Points	1091
Start Time(min)	0.002
End Time(min)	3.998
R.Time (min)	Intensity
0.00167	1
0.00533	4
0.00900	9
0.01267	13
0.01633	16
0.02000	18
0.02367	18
0.02733	15
0.03100	13
0.03467	14
0.03833	15
0.04200	13
0.04567	7
0.04933	3
0.05300	2
0.05667	5
0.06033	9
0.06400	16
0.06767	25
0.07133	32
0.07500	38
0.07867	42
0.08233	46
0.08600	47
0.08967	49
0.09333	56
0.09700	61
0.10067	60
0.10433	56
0.10800	51
0.11167	48
0.11533	51
0.11900	55
0.12267	58
0.12633	62
0.13000	65
0.13367	63
0.13733	58
0.14100	51
0.14467	46
0.14833	44
0.15200	42
0.15567	39
0.15933	33
0.16300	25
0.16667	17
0.17033	14
0.17400	14
0.17767	15
0.18133	13
0.18500	14
0.18867	16
0.19233	15
0.19600	16
0.19967	19
0.20333	20
0.20700	19
0.21067	21
0.21433	24
0.21800	24
0.22167	23
0.22533	22
0.22900	22
0.23267	24
0.23633	28
0.24000	30
0.24367	33
0.24733	38
0.25100	42
0.25467	38
0.25833	31
0.26200	25
0.26567	22
0.26933	23
0.27300	26
0.27667	27
0.28033	24
0.28400	18
0.28767	14
0.29133	12
0.29500	14
0.29867	16
0.30233	18
0.30600	20
0.30967	18
0.31333	12
0.31700	7
0.32067	1
0.32433	-2
0.32800	-2
0.33167	-2
0.33533	0
0.33900	6
0.34267	13
0.34633	19
0.35000	27
0.35367	33
0.35733	40
0.36100	46
0.36467	47
0.36833	45
0.37200	42
0.37567	40
0.37933	35
0.38300	28
0.38667	19
0.39033	11
0.39400	10
0.39767	12
0.40133	13
0.40500	10
0.40867	8
0.41233	7
0.41600	8
0.41967	11
0.42333	15
0.42700	19
0.43067	24
0.43433	27
0.43800	27
0.44167	22
0.44533	16
0.44900	12
0.45267	13
0.45633	17
0.46000	17
0.46367	13
0.46733	6
0.47100	3
0.47467	6
0.47833	9
0.48200	16
0.48567	26
0.48933	35
0.49300	42
0.49667	46
0.50033	48
0.50400	48
0.50767	45
0.51133	41
0.51500	36
0.51867	34
0.52233	36
0.52600	38
0.52967	41
0.53333	42
0.53700	40
0.54067	36
0.54433	32
0.54800	29
0.55167	28
0.55533	28
0.55900	31
0.56267	34
0.56633	37
0.57000	37
0.57367	35
0.57733	31
0.58100	27
0.58467	26
0.58833	29
0.59200	31
0.59567	25
0.59933	17
0.60300	10
0.60667	8
0.61033	10
0.61400	14
0.61767	17
0.62133	19
0.62500	20
0.62867	23
0.63233	21
0.63600	18
0.63967	19
0.64333	20
0.64700	22
0.65067	24
0.65433	25
0.65800	24
0.66167	22
0.66533	21
0.66900	21
0.67267	25
0.67633	37
0.68000	50
0.68367	57
0.68733	58
0.69100	56
0.69467	55
0.69833	49
0.70200	38
0.70567	29
0.70933	27
0.71300	29
0.71667	36
0.72033	49
0.72400	59
0.72767	63
0.73133	61
0.73500	58
0.73867	55
0.74233	53
0.74600	50
0.74967	46
0.75333	43
0.75700	47
0.76067	50
0.76433	49
0.76800	46
0.77167	42
0.77533	38
0.77900	34
0.78267	36
0.78633	44
0.79000	56
0.79367	66
0.79733	70
0.80100	67
0.80467	60
0.80833	53
0.81200	49
0.81567	48
0.81933	51
0.82300	52
0.82667	56
0.83033	63
0.83400	76
0.83767	88
0.84133	94
0.84500	91
0.84867	83
0.85233	74
0.85600	69
0.85967	68
0.86333	70
0.86700	72
0.87067	72
0.87433	71
0.87800	70
0.88167	73
0.88533	77
0.88900	77
0.89267	73
0.89633	65
0.90000	56
0.90367	53
0.90733	54
0.91100	56
0.91467	64
0.91833	70
0.92200	71
0.92567	69
0.92933	68
0.93300	67
0.93667	68
0.94033	72
0.94400	76
0.94767	78
0.95133	74
0.95500	72
0.95867	77
0.96233	81
0.96600	78
0.96967	67
0.97333	57
0.97700	52
0.98067	52
0.98433	55
0.98800	56
0.99167	54
0.99533	51
0.99900	49
1.00267	46
1.00633	41
1.01000	35
1.01367	26
1.01733	17
1.02100	13
1.02467	15
1.02833	18
1.03200	18
1.03567	21
1.03933	25
1.04300	31
1.04667	36
1.05033	39
1.05400	43
1.05767	47
1.06133	47
1.06500	41
1.06867	37
1.07233	35
1.07600	38
1.07967	44
1.08333	47
1.08700	47
1.09067	44
1.09433	38
1.09800	30
1.10167	25
1.10533	22
1.10900	19
1.11267	19
1.11633	20
1.12000	21
1.12367	23
1.12733	26
1.13100	30
1.13467	35
1.13833	39
1.14200	34
1.14567	25
1.14933	20
1.15300	21
1.15667	21
1.16033	22
1.16400	25
1.16767	29
1.17133	36
1.17500	42
1.17867	46
1.18233	43
1.18600	36
1.18967	29
1.19333	27
1.19700	26
1.20067	25
1.20433	20
1.20800	16
1.21167	14
1.21533	13
1.21900	17
1.22267	19
1.22633	19
1.23000	21
1.23367	26
1.23733	29
1.24100	29
1.24467	26
1.24833	21
1.25200	18
1.25567	20
1.25933	23
1.26300	25
1.26667	26
1.27033	28
1.27400	31
1.27767	31
1.28133	25
1.28500	15
1.28867	7
1.29233	1
1.29600	-1
1.29967	0
1.30333	10
1.30700	18
1.31067	21
1.31433	18
1.31800	15
1.32167	16
1.32533	15
1.32900	14
1.33267	15
1.33633	21
1.34000	23
1.34367	18
1.34733	11
1.35100	6
1.35467	-0
1.35833	-4
1.36200	-4
1.36567	-1
1.36933	1
1.37300	3
1.37667	4
1.38033	6
1.38400	8
1.38767	10
1.39133	7
1.39500	3
1.39867	2
1.40233	4
1.40600	9
1.40967	12
1.41333	13
1.41700	14
1.42067	12
1.42433	6
1.42800	-2
1.43167	-7
1.43533	-2
1.43900	32
1.44267	149
1.44633	419
1.45000	1081
1.45367	2527
1.45733	4749
1.46100	7273
1.46467	9590
1.46833	11413
1.47200	12591
1.47567	12996
1.47933	12533
1.48300	11263
1.48667	9454
1.49033	7490
1.49400	5680
1.49767	4182
1.50133	3036
1.50500	2195
1.50867	1595
1.51233	1169
1.51600	867
1.51967	654
1.52333	505
1.52700	403
1.53067	327
1.53433	277
1.53800	267
1.54167	337
1.54533	538
1.54900	877
1.55267	1287
1.55633	1675
1.56000	1982
1.56367	2185
1.56733	2263
1.57100	2191
1.57467	1963
1.57833	1629
1.58200	1265
1.58567	936
1.58933	672
1.59300	474
1.59667	334
1.60033	239
1.60400	177
1.60767	138
1.61133	110
1.61500	90
1.61867	80
1.62233	76
1.62600	70
1.62967	62
1.63333	52
1.63700	44
1.64067	37
1.64433	33
1.64800	32
1.65167	28
1.65533	25
1.65900	25
1.66267	24
1.66633	19
1.67000	21
1.67367	25
1.67733	28
1.68100	27
1.68467	26
1.68833	28
1.69200	26
1.69567	24
1.69933	22
1.70300	21
1.70667	20
1.71033	17
1.71400	13
1.71767	12
1.72133	14
1.72500	18
1.72867	17
1.73233	17
1.73600	16
1.73967	17
1.74333	16
1.74700	14
1.75067	12
1.75433	11
1.75800	12
1.76167	17
1.76533	20
1.76900	21
1.77267	18
1.77633	15
1.78000	13
1.78367	13
1.78733	15
1.79100	17
1.79467	16
1.79833	16
1.80200	18
1.80567	21
1.80933	22
1.81300	19
1.81667	13
1.82033	2
1.82400	-7
1.82767	-10
1.83133	-12
1.83500	-11
1.83867	-9
1.84233	-5
1.84600	-1
1.84967	2
1.85333	4
1.85700	9
1.86067	14
1.86433	21
1.86800	27
1.87167	28
1.87533	29
1.87900	28
1.88267	25
1.88633	18
1.89000	15
1.89367	17
1.89733	20
1.90100	21
1.90467	22
1.90833	23
1.91200	24
1.91567	19
1.91933	12
1.92300	12
1.92667	13
1.93033	12
1.93400	12
1.93767	16
1.94133	24
1.94500	29
1.94867	32
1.95233	59
1.95600	298
1.95967	1687
1.96333	7688
1.96700	27302
1.97067	76692
1.97433	173054
1.97800	320473
1.98167	501427
1.98533	683905
1.98900	835946
1.99267	933806
1.99633	964421
2.00000	926310
2.00367	830584
2.00733	698449
2.01100	554535
2.01467	419569
2.01833	305874
2.02200	217330
2.02567	152153
2.02933	106028
2.03300	74227
2.03667	52643
2.04033	38097
2.04400	28291
2.04767	21637
2.05133	17066
2.05500	13864
2.05867	11575
2.06233	9902
2.06600	8646
2.06967	7679
2.07333	6915
2.07700	6295
2.08067	5778
2.08433	5334
2.08800	4939
2.09167	4588
2.09533	4280
2.09900	4016
2.10267	3786
2.10633	3584
2.11000	3407
2.11367	3248
2.11733	3105
2.12100	2975
2.12467	2852
2.12833	2738
2.13200	2636
2.13567	2545
2.13933	2455
2.14300	2360
2.14667	2266
2.15033	2177
2.15400	2094
2.15767	2021
2.16133	1958
2.16500	1903
2.16867	1851
2.17233	1801
2.17600	1757
2.17967	1716
2.18333	1672
2.18700	1626
2.19067	1580
2.19433	1538
2.19800	1496
2.20167	1454
2.20533	1419
2.20900	1388
2.21267	1358
2.21633	1330
2.22000	1305
2.22367	1283
2.22733	1254
2.23100	1224
2.23467	1197
2.23833	1170
2.24200	1145
2.24567	1124
2.24933	1105
2.25300	1080
2.25667	1052
2.26033	1028
2.26400	1003
2.26767	979
2.27133	958
2.27500	941
2.27867	929
2.28233	917
2.28600	901
2.28967	886
2.29333	872
2.29700	862
2.30067	858
2.30433	855
2.30800	849
2.31167	836
2.31533	822
2.31900	812
2.32267	804
2.32633	798
2.33000	790
2.33367	779
2.33733	761
2.34100	743
2.34467	732
2.34833	725
2.35200	718
2.35567	709
2.35933	700
2.36300	695
2.36667	693
2.37033	692
2.37400	690
2.37767	682
2.38133	673
2.38500	666
2.38867	662
2.39233	660
2.39600	657
2.39967	648
2.40333	636
2.40700	627
2.41067	614
2.41433	603
2.41800	598
2.42167	595
2.42533	590
2.42900	587
2.43267	586
2.43633	582
2.44000	578
2.44367	576
2.44733	577
2.45100	578
2.45467	573
2.45833	566
2.46200	559
2.46567	551
2.46933	541
2.47300	535
2.47667	533
2.48033	537
2.48400	539
2.48767	537
2.49133	530
2.49500	523
2.49867	521
2.50233	520
2.50600	518
2.50967	522
2.51333	527
2.51700	529
2.52067	526
2.52433	518
2.52800	509
2.53167	503
2.53533	497
2.53900	488
2.54267	478
2.54633	473
2.55000	471
2.55367	466
2.55733	467
2.56100	474
2.56467	479
2.56833	478
2.57200	468
2.57567	454
2.57933	441
2.58300	429
2.58667	423
2.59033	421
2.59400	422
2.59767	426
2.60133	432
2.60500	436
2.60867	438
2.61233	442
2.61600	447
2.61967	447
2.62333	442
2.62700	439
2.63067	441
2.63433	443
2.63800	441
2.64167	437
2.64533	430
2.64900	421
2.65267	415
2.65633	412
2.66000	410
2.66367	409
2.66733	413
2.67100	413
2.67467	412
2.67833	410
2.68200	414
2.68567	422
2.68933	430
2.69300	438
2.69667	442
2.70033	437
2.70400	428
2.70767	418
2.71133	409
2.71500	405
2.71867	399
2.72233	393
2.72600	392
2.72967	397
2.73333	402
2.73700	408
2.74067	413
2.74433	414
2.74800	414
2.75167	414
2.75533	410
2.75900	406
2.76267	403
2.76633	403
2.77000	407
2.77367	410
2.77733	412
2.78100	414
2.78467	412
2.78833	411
2.79200	411
2.79567	413
2.79933	412
2.80300	408
2.80667	405
2.81033	406
2.81400	411
2.81767	417
2.82133	419
2.82500	411
2.82867	402
2.83233	400
2.83600	404
2.83967	406
2.84333	407
2.84700	409
2.85067	408
2.85433	404
2.85800	399
2.86167	398
2.86533	400
2.86900	405
2.87267	409
2.87633	411
2.88000	412
2.88367	411
2.88733	406
2.89100	403
2.89467	401
2.89833	397
2.90200	398
2.90567	404
2.90933	409
2.91300	411
2.91667	411
2.92033	413
2.92400	414
2.92767	415
2.93133	417
2.93500	417
2.93867	418
2.94233	419
2.94600	420
2.94967	415
2.95333	404
2.95700	392
2.96067	379
2.96433	375
2.96800	378
2.97167	386
2.97533	392
2.97900	396
2.98267	402
2.98633	408
2.99000	410
2.99367	410
2.99733	413
3.00100	415
3.00467	414
3.00833	409
3.01200	403
3.01567	395
3.01933	391
3.02300	394
3.02667	398
3.03033	401
3.03400	397
3.03767	390
3.04133	388
3.04500	390
3.04867	391
3.05233	392
3.05600	393
3.05967	392
3.06333	391
3.06700	393
3.07067	396
3.07433	397
3.07800	397
3.08167	393
3.08533	385
3.08900	380
3.09267	380
3.09633	383
3.10000	387
3.10367	387
3.10733	382
3.11100	378
3.11467	379
3.11833	385
3.12200	395
3.12567	405
3.12933	412
3.13300	413
3.13667	410
3.14033	405
3.14400	401
3.14767	402
3.15133	405
3.15500	404
3.15867	398
3.16233	388
3.16600	381
3.16967	379
3.17333	379
3.17700	379
3.18067	382
3.18433	391
3.18800	403
3.19167	411
3.19533	414
3.19900	412
3.20267	409
3.20633	407
3.21000	408
3.21367	405
3.21733	396
3.22100	381
3.22467	363
3.22833	348
3.23200	342
3.23567	344
3.23933	351
3.24300	359
3.24667	367
3.25033	375
3.25400	377
3.25767	370
3.26133	359
3.26500	350
3.26867	347
3.27233	351
3.27600	355
3.27967	361
3.28333	365
3.28700	366
3.29067	368
3.29433	373
3.29800	378
3.30167	379
3.30533	376
3.30900	373
3.31267	372
3.31633	372
3.32000	370
3.32367	369
3.32733	375
3.33100	376
3.33467	370
3.33833	362
3.34200	358
3.34567	361
3.34933	366
3.35300	371
3.35667	375
3.36033	376
3.36400	375
3.36767	374
3.37133	372
3.37500	371
3.37867	370
3.38233	369
3.38600	368
3.38967	366
3.39333	364
3.39700	363
3.40067	362
3.40433	358
3.40800	353
3.41167	351
3.41533	349
3.41900	347
3.42267	346
3.42633	347
3.43000	348
3.43367	352
3.43733	353
3.44100	356
3.44467	359
3.44833	361
3.45200	361
3.45567	361
3.45933	360
3.46300	361
3.46667	364
3.47033	367
3.47400	366
3.47767	364
3.48133	363
3.48500	362
3.48867	362
3.49233	359
3.49600	355
3.49967	355
3.50333	355
3.50700	351
3.51067	345
3.51433	338
3.51800	335
3.52167	341
3.52533	345
3.52900	344
3.53267	338
3.53633	331
3.54000	330
3.54367	334
3.54733	337
3.55100	335
3.55467	331
3.55833	324
3.56200	315
3.56567	307
3.56933	303
3.57300	304
3.57667	311
3.58033	320
3.58400	327
3.58767	333
3.59133	339
3.59500	343
3.59867	345
3.60233	346
3.60600	345
3.60967	339
3.61333	332
3.61700	327
3.62067	326
3.62433	323
3.62800	318
3.63167	313
3.63533	313
3.63900	316
3.64267	319
3.64633	322
3.65000	324
3.65367	325
3.65733	326
3.66100	329
3.66467	332
3.66833	330
3.67200	326
3.67567	325
3.67933	325
3.68300	320
3.68667	316
3.69033	318
3.69400	317
3.69767	311
3.70133	300
3.70500	294
3.70867	293
3.71233	296
3.71600	304
3.71967	309
3.72333	309
3.72700	308
3.73067	304
3.73433	299
3.73800	295
3.74167	296
3.74533	300
3.74900	305
3.75267	310
3.75633	314
3.76000	309
3.76367	294
3.76733	282
3.77100	276
3.77467	274
3.77833	275
3.78200	279
3.78567	286
3.78933	289
3.79300	287
3.79667	286
3.80033	286
3.80400	287
3.80767	288
3.81133	288
3.81500	282
3.81867	276
3.82233	279
3.82600	285
3.82967	287
3.83333	286
3.83700	283
3.84067	281
3.84433	282
3.84800	285
3.85167	290
3.85533	293
3.85900	293
3.86267	293
3.86633	291
3.87000	287
3.87367	283
3.87733	284
3.88100	289
3.88467	292
3.88833	291
3.89200	289
3.89567	283
3.89933	276
3.90300	271
3.90667	267
3.91033	264
3.91400	267
3.91767	274
3.92133	283
3.92500	291
3.92867	296
3.93233	298
3.93600	294
3.93967	285
3.94333	268
3.94700	258
3.95067	254
3.95433	252
3.95800	251
3.96167	251
3.96533	249
3.96900	246
3.97267	244
3.97633	242
3.98000	240
3.98367	243
3.98733	250
3.99100	262
3.99467	271
3.99833	275

[Chromatogram (Ch2)]
Interval(msec)	220
# of Points	1091
Start Time(min)	0.002
End Time(min)	3.998
R.Time (min)	Intensity
0.00167	0
0.00533	0
0.00900	0
0.01267	-0
0.01633	-0
0.02000	-1
0.02367	-1
0.02733	-1
0.03100	-1
0.03467	-2
0.03833	-2
0.04200	-2
0.04567	-2
0.04933	-2
0.05300	-2
0.05667	-2
0.06033	-2
0.06400	-2
0.06767	-2
0.07133	-2
0.07500	-2
0.07867	-2
0.08233	-1
0.08600	-1
0.08967	-0
0.09333	0
0.09700	1
0.10067	1
0.10433	1
0.10800	1
0.11167	2
0.11533	2
0.11900	2
0.12267	2
0.12633	2
0.13000	2
0.13367	2
0.13733	2
0.14100	2
0.14467	2
0.14833	2
0.15200	2
0.15567	1
0.15933	1
0.16300	1
0.16667	1
0.17033	1
0.17400	1
0.17767	1
0.18133	1
0.18500	1
0.18867	2
0.19233	2
0.19600	2
0.19967	2
0.20333	2
0.20700	2
0.21067	1
0.21433	1
0.21800	0
0.22167	-0
0.22533	-1
0.22900	-1
0.23267	-1
0.23633	-2
0.24000	-2
0.24367	-2
0.24733	-2
0.25100	-2
0.25467	-2
0.25833	-1
0.26200	-2
0.26567	-2
0.26933	-2
0.27300	-2
0.27667	-2
0.28033	-3
0.28400	-3
0.28767	-3
0.29133	-4
0.29500	-4
0.29867	-4
0.30233	-4
0.30600	-4
0.30967	-3
0.31333	-3
0.31700	-3
0.32067	-3
0.32433	-3
0.32800	-3
0.33167	-2
0.33533	-2
0.33900	-2
0.34267	-2
0.34633	-1
0.35000	-1
0.35367	-1
0.35733	-0
0.36100	-0
0.36467	0
0.36833	0
0.37200	0
0.37567	1
0.37933	1
0.38300	1
0.38667	0
0.39033	0
0.39400	0
0.39767	0
0.40133	0
0.40500	1
0.40867	1
0.41233	2
0.41600	2
0.41967	2
0.42333	2
0.42700	3
0.43067	3
0.43433	3
0.43800	4
0.44167	4
0.44533	4
0.44900	4
0.45267	4
0.45633	4
0.46000	4
0.46367	3
0.46733	3
0.47100	3
0.47467	2
0.47833	2
0.48200	2
0.48567	2
0.48933	1
0.49300	1
0.49667	1
0.50033	1
0.50400	1
0.50767	1
0.51133	0
0.51500	-0
0.51867	-0
0.52233	-1
0.52600	-1
0.52967	-1
0.53333	-1
0.53700	-2
0.54067	-2
0.54433	-2
0.54800	-3
0.55167	-3
0.55533	-3
0.55900	-3
0.56267	-3
0.56633	-3
0.57000	-3
0.57367	-3
0.57733	-3
0.58100	-3
0.58467	-3
0.58833	-3
0.59200	-3
0.59567	-3
0.59933	-3
0.60300	-3
0.60667	-3
0.61033	-2
0.61400	-2
0.61767	-2
0.62133	-1
0.62500	-1
0.62867	-1
0.63233	-0
0.63600	0
0.63967	0
0.64333	1
0.64700	1
0.65067	1
0.65433	1
0.65800	1
0.66167	1
0.66533	1
0.66900	1
0.67267	1
0.67633	1
0.68000	1
0.68367	1
0.68733	1
0.69100	1
0.69467	1
0.69833	1
0.70200	0
0.70567	-0
0.70933	-0
0.71300	-1
0.71667	-1
0.72033	-1
0.72400	-1
0.72767	-1
0.73133	-1
0.73500	-1
0.73867	-1
0.74233	-0
0.74600	-0
0.74967	0
0.75333	1
0.75700	1
0.76067	1
0.76433	1
0.76800	1
0.77167	1
0.77533	1
0.77900	1
0.78267	1
0.78633	1
0.79000	1
0.79367	1
0.79733	1
0.80100	1
0.80467	1
0.80833	1
0.81200	1
0.81567	0
0.81933	0
0.82300	0
0.82667	0
0.83033	-0
0.83400	-1
0.83767	-1
0.84133	-1
0.84500	-2
0.84867	-2
0.85233	-3
0.85600	-4
0.85967	-4
0.86333	-5
0.86700	-5
0.87067	-6
0.87433	-6
0.87800	-6
0.88167	-6
0.88533	-5
0.88900	-5
0.89267	-5
0.89633	-4
0.90000	-4
0.90367	-4
0.90733	-3
0.91100	-3
0.91467	-3
0.91833	-3
0.92200	-4
0.92567	-4
0.92933	-4
0.93300	-4
0.93667	-4
0.94033	-4
0.94400	-4
0.94767	-4
0.95133	-4
0.95500	-4
0.95867	-4
0.96233	-4
0.96600	-3
0.96967	-3
0.97333	-3
0.97700	-3
0.98067	-3
0.98433	-2
0.98800	-2
0.99167	-2
0.99533	-2
0.99900	-2
1.00267	-2
1.00633	-2
1.01000	-2
1.01367	-1
1.01733	-1
1.02100	-1
1.02467	-1
1.02833	-1
1.03200	-1
1.03567	-1
1.03933	-0
1.04300	-0
1.04667	-0
1.05033	-1
1.05400	-1
1.05767	-1
1.06133	-2
1.06500	-2
1.06867	-2
1.07233	-1
1.07600	-1
1.07967	-1
1.08333	-1
1.08700	-1
1.09067	-1
1.09433	-1
1.09800	-1
1.10167	-1
1.10533	-1
1.10900	-1
1.11267	-1
1.11633	-1
1.12000	-1
1.12367	-1
1.12733	-1
1.13100	-1
1.13467	-1
1.13833	-2
1.14200	-2
1.14567	-3
1.14933	-3
1.15300	-4
1.15667	-4
1.16033	-5
1.16400	-5
1.16767	-5
1.17133	-5
1.17500	-5
1.17867	-5
1.18233	-5
1.18600	-4
1.18967	-4
1.19333	-5
1.19700	-5
1.20067	-5
1.20433	-4
1.20800	-4
1.21167	-4
1.21533	-3
1.21900	-3
1.22267	-3
1.22633	-3
1.23000	-3
1.23367	-3
1.23733	-3
1.24100	-3
1.24467	-3
1.24833	-3
1.25200	-3
1.25567	-3
1.25933	-3
1.26300	-3
1.26667	-3
1.27033	-3
1.27400	-3
1.27767	-3
1.28133	-3
1.28500	-3
1.28867	-3
1.29233	-3
1.29600	-3
1.29967	-3
1.30333	-2
1.30700	-2
1.31067	-2
1.31433	-1
1.31800	-1
1.32167	-1
1.32533	-1
1.32900	-2
1.33267	-2
1.33633	-2
1.34000	-2
1.34367	-3
1.34733	-3
1.35100	-3
1.35467	-3
1.35833	-3
1.36200	-3
1.36567	-3
1.36933	-3
1.37300	-3
1.37667	-2
1.38033	-2
1.38400	-2
1.38767	-2
1.39133	-2
1.39500	-2
1.39867	-2
1.40233	-2
1.40600	-2
1.40967	-2
1.41333	-2
1.41700	-3
1.42067	-3
1.42433	-3
1.42800	-4
1.43167	-4
1.43533	-4
1.43900	-4
1.44267	-4
1.44633	-4
1.45000	-4
1.45367	-4
1.45733	-4
1.46100	-4
1.46467	-4
1.46833	-5
1.47200	-5
1.47567	-5
1.47933	-5
1.48300	-5
1.48667	-5
1.49033	-5
1.49400	-4
1.49767	-4
1.50133	-4
1.50500	-4
1.50867	-4
1.51233	-4
1.51600	-4
1.51967	-4
1.52333	-4
1.52700	-4
1.53067	-4
1.53433	-4
1.53800	-4
1.54167	-4
1.54533	-4
1.54900	-4
1.55267	-4
1.55633	-4
1.56000	-4
1.56367	-4
1.56733	-4
1.57100	-4
1.57467	-3
1.57833	-3
1.58200	-3
1.58567	-3
1.58933	-3
1.59300	-4
1.59667	-4
1.60033	-5
1.60400	-6
1.60767	-8
1.61133	-9
1.61500	-12
1.61867	-14
1.62233	-17
1.62600	-20
1.62967	-23
1.63333	-26
1.63700	-29
1.64067	-32
1.64433	-35
1.64800	-39
1.65167	-43
1.65533	-46
1.65900	-50
1.66267	-54
1.66633	-58
1.67000	-63
1.67367	-68
1.67733	-73
1.68100	-78
1.68467	-82
1.68833	-87
1.69200	-90
1.69567	-94
1.69933	-97
1.70300	-99
1.70667	-101
1.71033	-103
1.71400	-104
1.71767	-106
1.72133	-107
1.72500	-107
1.72867	-108
1.73233	-108
1.73600	-109
1.73967	-109
1.74333	-110
1.74700	-110
1.75067	-111
1.75433	-111
1.75800	-112
1.76167	-112
1.76533	-112
1.76900	-112
1.77267	-112
1.77633	-112
1.78000	-112
1.78367	-113
1.78733	-113
1.79100	-114
1.79467	-114
1.79833	-115
1.80200	-115
1.80567	-115
1.80933	-114
1.81300	-114
1.81667	-114
1.82033	-114
1.82400	-114
1.82767	-114
1.83133	-114
1.83500	-114
1.83867	-114
1.84233	-114
1.84600	-114
1.84967	-114
1.85333	-114
1.85700	-115
1.86067	-115
1.86433	-115
1.86800	-115
1.87167	-114
1.87533	-114
1.87900	-114
1.88267	-114
1.88633	-114
1.89000	-114
1.89367	-115
1.89733	-115
1.90100	-115
1.90467	-115
1.90833	-115
1.91200	-115
1.91567	-115
1.91933	-114
1.92300	-113
1.92667	-112
1.93033	-111
1.93400	-111
1.93767	-111
1.94133	-111
1.94500	-111
1.94867	-111
1.95233	-111
1.95600	-111
1.95967	-111
1.96333	-111
1.96700	-111
1.97067	-111
1.97433	-110
1.97800	-109
1.98167	-109
1.98533	-108
1.98900	-108
1.99267	-108
1.99633	-108
2.00000	-108
2.00367	-107
2.00733	-107
2.01100	-107
2.01467	-107
2.01833	-106
2.02200	-106
2.02567	-105
2.02933	-105
2.03300	-105
2.03667	-105
2.04033	-105
2.04400	-105
2.04767	-105
2.05133	-104
2.05500	-104
2.05867	-103
2.06233	-103
2.06600	-102
2.06967	-101
2.07333	-101
2.07700	-101
2.08067	-101
2.08433	-101
2.08800	-101
2.09167	-101
2.09533	-101
2.09900	-100
2.10267	-100
2.10633	-100
2.11000	-100
2.11367	-99
2.11733	-99
2.12100	-98
2.12467	-98
2.12833	-98
2.13200	-98
2.13567	-98
2.13933	-98
2.14300	-98
2.14667	-97
2.15033	-96
2.15400	-95
2.15767	-95
2.16133	-94
2.16500	-94
2.16867	-93
2.17233	-93
2.17600	-93
2.17967	-92
2.18333	-92
2.18700	-92
2.19067	-91
2.19433	-91
2.19800	-91
2.20167	-91
2.20533	-91
2.20900	-92
2.21267	-93
2.21633	-94
2.22000	-95
2.22367	-95
2.22733	-94
2.23100	-93
2.23467	-92
2.23833	-90
2.24200	-89
2.24567	-87
2.24933	-86
2.25300	-85
2.25667	-85
2.26033	-84
2.26400	-85
2.26767	-85
2.27133	-86
2.27500	-87
2.27867	-88
2.28233	-89
2.28600	-89
2.28967	-90
2.29333	-89
2.29700	-89
2.30067	-88
2.30433	-87
2.30800	-86
2.31167	-86
2.31533	-85
2.31900	-85
2.32267	-84
2.32633	-84
2.33000	-83
2.33367	-82
2.33733	-81
2.34100	-80
2.34467	-79
2.34833	-78
2.35200	-77
2.35567	-76
2.35933	-75
2.36300	-73
2.36667	-71
2.37033	-69
2.37400	-66
2.37767	-62
2.38133	-58
2.38500	-54
2.38867	-50
2.39233	-46
2.39600	-41
2.39967	-37
2.40333	-32
2.40700	-28
2.41067	-24
2.41433	-21
2.41800	-19
2.42167	-17
2.42533	-15
2.42900	-14
2.43267	-13
2.43633	-12
2.44000	-11
2.44367	-10
2.44733	-9
2.45100	-9
2.45467	-8
2.45833	-7
2.46200	-6
2.46567	-5
2.46933	-4
2.47300	-3
2.47667	-2
2.48033	-1
2.48400	-0
2.48767	1
2.49133	2
2.49500	3
2.49867	4
2.50233	5
2.50600	6
2.50967	7
2.51333	7
2.51700	8
2.52067	8
2.52433	8
2.52800	9
2.53167	9
2.53533	9
2.53900	10
2.54267	11
2.54633	11
2.55000	11
2.55367	11
2.55733	12
2.56100	12
2.56467	12
2.56833	13
2.57200	13
2.57567	13
2.57933	13
2.58300	13
2.58667	13
2.59033	13
2.59400	13
2.59767	13
2.60133	13
2.60500	13
2.60867	13
2.61233	13
2.61600	14
2.61967	14
2.62333	14
2.62700	14
2.63067	14
2.63433	14
2.63800	15
2.64167	15
2.64533	16
2.64900	16
2.65267	16
2.65633	17
2.66000	17
2.66367	17
2.66733	17
2.67100	18
2.67467	18
2.67833	18
2.68200	18
2.68567	18
2.68933	19
2.69300	19
2.69667	19
2.70033	20
2.70400	20
2.70767	21
2.71133	21
2.71500	21
2.71867	21
2.72233	21
2.72600	21
2.72967	21
2.73333	21
2.73700	21
2.74067	21
2.74433	21
2.74800	22
2.75167	22
2.75533	23
2.75900	23
2.76267	23
2.76633	24
2.77000	24
2.77367	24
2.77733	25
2.78100	25
2.78467	26
2.78833	26
2.79200	26
2.79567	26
2.79933	27
2.80300	27
2.80667	27
2.81033	27
2.81400	27
2.81767	26
2.82133	26
2.82500	25
2.82867	25
2.83233	24
2.83600	24
2.83967	23
2.84333	21
2.84700	17
2.85067	12
2.85433	3
2.85800	-8
2.86167	-24
2.86533	-43
2.86900	-66
2.87267	-94
2.87633	-127
2.88000	-163
2.88367	-204
2.88733	-248
2.89100	-295
2.89467	-344
2.89833	-396
2.90200	-450
2.90567	-504
2.90933	-559
2.91300	-614
2.91667	-669
2.92033	-723
2.92400	-775
2.92767	-826
2.93133	-877
2.93500	-932
2.93867	-990
2.94233	-1044
2.94600	-1083
2.94967	-1099
2.95333	-1088
2.95700	-1054
2.96067	-1000
2.96433	-932
2.96800	-856
2.97167	-775
2.97533	-695
2.97900	-617
2.98267	-544
2.98633	-476
2.99000	-415
2.99367	-359
2.99733	-309
3.00100	-265
3.00467	-227
3.00833	-193
3.01200	-164
3.01567	-139
3.01933	-117
3.02300	-98
3.02667	-82
3.03033	-68
3.03400	-56
3.03767	-45
3.04133	-37
3.04500	-29
3.04867	-23
3.05233	-17
3.05600	-13
3.05967	-9
3.06333	-5
3.06700	-2
3.07067	0
3.07433	2
3.07800	4
3.08167	6
3.08533	7
3.08900	8
3.09267	9
3.09633	10
3.10000	11
3.10367	12
3.10733	12
3.11100	13
3.11467	13
3.11833	14
3.12200	14
3.12567	14
3.12933	15
3.13300	15
3.13667	15
3.14033	15
3.14400	15
3.14767	15
3.15133	16
3.15500	16
3.15867	16
3.16233	16
3.16600	16
3.16967	16
3.17333	17
3.17700	17
3.18067	17
3.18433	18
3.18800	18
3.19167	18
3.19533	18
3.19900	19
3.20267	19
3.20633	19
3.21000	19
3.21367	20
3.21733	20
3.22100	20
3.22467	20
3.22833	20
3.23200	21
3.23567	21
3.23933	21
3.24300	21
3.24667	22
3.25033	22
3.25400	22
3.25767	22
3.26133	22
3.26500	22
3.26867	22
3.27233	22
3.27600	22
3.27967	22
3.28333	22
3.28700	22
3.29067	22
3.29433	22
3.29800	22
3.30167	22
3.30533	22
3.30900	22
3.31267	22
3.31633	22
3.32000	22
3.32367	22
3.32733	22
3.33100	22
3.33467	22
3.33833	22
3.34200	22
3.34567	22
3.34933	22
3.35300	22
3.35667	22
3.36033	22
3.36400	22
3.36767	22
3.37133	22
3.37500	22
3.37867	22
3.38233	23
3.38600	23
3.38967	23
3.39333	23
3.39700	23
3.40067	23
3.40433	23
3.40800	23
3.41167	23
3.41533	23
3.41900	23
3.42267	23
3.42633	23
3.43000	24
3.43367	24
3.43733	24
3.44100	24
3.44467	24
3.44833	24
3.45200	24
3.45567	25
3.45933	25
3.46300	25
3.46667	26
3.47033	26
3.47400	26
3.47767	26
3.48133	27
3.48500	27
3.48867	27
3.49233	27
3.49600	27
3.49967	27
3.50333	27
3.50700	27
3.51067	27
3.51433	27
3.51800	27
3.52167	27
3.52533	27
3.52900	27
3.53267	28
3.53633	28
3.54000	28
3.54367	28
3.54733	28
3.55100	28
3.55467	28
3.55833	28
3.56200	28
3.56567	28
3.56933	28
3.57300	27
3.57667	27
3.58033	27
3.58400	26
3.58767	26
3.59133	26
3.59500	26
3.59867	26
3.60233	26
3.60600	26
3.60967	26
3.61333	26
3.61700	26
3.62067	26
3.62433	26
3.62800	26
3.63167	26
3.63533	26
3.63900	26
3.64267	26
3.64633	26
3.65000	25
3.65367	25
3.65733	25
3.66100	25
3.66467	25
3.66833	25
3.67200	25
3.67567	26
3.67933	26
3.68300	25
3.68667	25
3.69033	25
3.69400	25
3.69767	25
3.70133	25
3.70500	25
3.70867	25
3.71233	26
3.71600	26
3.71967	26
3.72333	26
3.72700	26
3.73067	26
3.73433	26
3.73800	26
3.74167	26
3.74533	26
3.74900	26
3.75267	26
3.75633	26
3.76000	26
3.76367	26
3.76733	26
3.77100	25
3.77467	25
3.77833	25
3.78200	24
3.78567	24
3.78933	24
3.79300	24
3.79667	23
3.80033	23
3.80400	23
3.80767	23
3.81133	23
3.81500	23
3.81867	22
3.82233	22
3.82600	22
3.82967	22
3.83333	22
3.83700	22
3.84067	22
3.84433	22
3.84800	22
3.85167	22
3.85533	22
3.85900	22
3.86267	22
3.86633	23
3.87000	23
3.87367	23
3.87733	23
3.88100	23
3.88467	22
3.88833	22
3.89200	22
3.89567	22
3.89933	22
3.90300	22
3.90667	22
3.91033	22
3.91400	22
3.91767	23
3.92133	23
3.92500	23
3.92867	23
3.93233	24
3.93600	24
3.93967	24
3.94333	25
3.94700	25
3.95067	25
3.95433	25
3.95800	25
3.96167	25
3.96533	26
3.96900	26
3.97267	26
3.97633	27
3.98000	27
3.98367	28
3.98733	28
3.99100	28
3.99467	28
3.99833	28

[Chromatogram (Ch3)]
Interval(msec)	220
# of Points	1091
Start Time(min)	0.002
End Time(min)	3.998
R.Time (min)	Intensity
0.00167	-0
0.00533	-1
0.00900	-2
0.01267	-1
0.01633	0
0.02000	2
0.02367	2
0.02733	1
0.03100	1
0.03467	1
0.03833	1
0.04200	1
0.04567	2
0.04933	2
0.05300	3
0.05667	0
0.06033	-1
0.06400	-2
0.06767	-3
0.07133	-5
0.07500	-3
0.07867	-3
0.08233	-4
0.08600	-5
0.08967	-6
0.09333	-4
0.09700	-2
0.10067	-1
0.10433	-1
0.10800	0
0.11167	2
0.11533	1
0.11900	-1
0.12267	-0
0.12633	-0
0.13000	1
0.13367	4
0.13733	3
0.14100	2
0.14467	0
0.14833	-2
0.15200	-2
0.15567	-1
0.15933	-3
0.16300	-5
0.16667	-4
0.17033	-3
0.17400	-4
0.17767	-3
0.18133	-2
0.18500	-3
0.18867	-4
0.19233	-3
0.19600	0
0.19967	1
0.20333	2
0.20700	2
0.21067	1
0.21433	-0
0.21800	0
0.22167	1
0.22533	2
0.22900	3
0.23267	3
0.23633	3
0.24000	3
0.24367	2
0.24733	1
0.25100	0
0.25467	2
0.25833	1
0.26200	-1
0.26567	-3
0.26933	-3
0.27300	-3
0.27667	-3
0.28033	-2
0.28400	-0
0.28767	1
0.29133	1
0.29500	-0
0.29867	-2
0.30233	-4
0.30600	-4
0.30967	-2
0.31333	-2
0.31700	-2
0.32067	-1
0.32433	1
0.32800	2
0.33167	1
0.33533	0
0.33900	1
0.34267	1
0.34633	-1
0.35000	-2
0.35367	-2
0.35733	-3
0.36100	-4
0.36467	-4
0.36833	-2
0.37200	1
0.37567	2
0.37933	-0
0.38300	-1
0.38667	-2
0.39033	-3
0.39400	-3
0.39767	-4
0.40133	-1
0.40500	1
0.40867	0
0.41233	2
0.41600	4
0.41967	6
0.42333	8
0.42700	10
0.43067	9
0.43433	9
0.43800	7
0.44167	4
0.44533	3
0.44900	4
0.45267	3
0.45633	2
0.46000	2
0.46367	2
0.46733	2
0.47100	1
0.47467	2
0.47833	3
0.48200	5
0.48567	5
0.48933	4
0.49300	3
0.49667	4
0.50033	4
0.50400	5
0.50767	4
0.51133	5
0.51500	5
0.51867	7
0.52233	9
0.52600	10
0.52967	9
0.53333	7
0.53700	3
0.54067	2
0.54433	1
0.54800	2
0.55167	4
0.55533	7
0.55900	9
0.56267	8
0.56633	7
0.57000	6
0.57367	7
0.57733	8
0.58100	8
0.58467	7
0.58833	7
0.59200	6
0.59567	6
0.59933	7
0.60300	7
0.60667	6
0.61033	6
0.61400	5
0.61767	4
0.62133	4
0.62500	6
0.62867	5
0.63233	3
0.63600	1
0.63967	1
0.64333	3
0.64700	4
0.65067	2
0.65433	2
0.65800	3
0.66167	4
0.66533	5
0.66900	4
0.67267	1
0.67633	-0
0.68000	-0
0.68367	-1
0.68733	1
0.69100	2
0.69467	3
0.69833	3
0.70200	4
0.70567	4
0.70933	5
0.71300	7
0.71667	8
0.72033	8
0.72400	8
0.72767	8
0.73133	8
0.73500	8
0.73867	8
0.74233	8
0.74600	6
0.74967	6
0.75333	9
0.75700	10
0.76067	9
0.76433	9
0.76800	11
0.77167	13
0.77533	14
0.77900	13
0.78267	11
0.78633	9
0.79000	9
0.79367	11
0.79733	13
0.80100	13
0.80467	12
0.80833	11
0.81200	9
0.81567	8
0.81933	9
0.82300	8
0.82667	6
0.83033	8
0.83400	11
0.83767	13
0.84133	14
0.84500	12
0.84867	11
0.85233	10
0.85600	9
0.85967	10
0.86333	10
0.86700	8
0.87067	6
0.87433	7
0.87800	9
0.88167	7
0.88533	5
0.88900	5
0.89267	7
0.89633	9
0.90000	10
0.90367	9
0.90733	6
0.91100	6
0.91467	7
0.91833	8
0.92200	9
0.92567	10
0.92933	10
0.93300	11
0.93667	12
0.94033	12
0.94400	9
0.94767	9
0.95133	11
0.95500	11
0.95867	10
0.96233	8
0.96600	7
0.96967	8
0.97333	9
0.97700	13
0.98067	16
0.98433	18
0.98800	17
0.99167	14
0.99533	11
0.99900	10
1.00267	9
1.00633	8
1.01000	10
1.01367	11
1.01733	10
1.02100	11
1.02467	10
1.02833	9
1.03200	10
1.03567	11
1.03933	14
1.04300	15
1.04667	12
1.05033	9
1.05400	8
1.05767	6
1.06133	8
1.06500	11
1.06867	12
1.07233	11
1.07600	12
1.07967	13
1.08333	14
1.08700	13
1.09067	11
1.09433	9
1.09800	7
1.10167	6
1.10533	7
1.10900	8
1.11267	10
1.11633	10
1.12000	11
1.12367	13
1.12733	13
1.13100	15
1.13467	16
1.13833	18
1.14200	16
1.14567	15
1.14933	12
1.15300	11
1.15667	10
1.16033	9
1.16400	10
1.16767	12
1.17133	14
1.17500	17
1.17867	19
1.18233	20
1.18600	21
1.18967	20
1.19333	17
1.19700	13
1.20067	12
1.20433	13
1.20800	15
1.21167	16
1.21533	15
1.21900	14
1.22267	15
1.22633	18
1.23000	18
1.23367	16
1.23733	15
1.24100	17
1.24467	18
1.24833	17
1.25200	18
1.25567	18
1.25933	17
1.26300	17
1.26667	18
1.27033	19
1.27400	19
1.27767	19
1.28133	18
1.28500	18
1.28867	19
1.29233	17
1.29600	17
1.29967	19
1.30333	19
1.30700	19
1.31067	19
1.31433	18
1.31800	15
1.32167	14
1.32533	16
1.32900	19
1.33267	21
1.33633	21
1.34000	20
1.34367	19
1.34733	20
1.35100	20
1.35467	20
1.35833	21
1.36200	20
1.36567	19
1.36933	18
1.37300	17
1.37667	17
1.38033	17
1.38400	20
1.38767	22
1.39133	22
1.39500	22
1.39867	22
1.40233	22
1.40600	22
1.40967	22
1.41333	22
1.41700	20
1.42067	18
1.42433	17
1.42800	16
1.43167	16
1.43533	17
1.43900	19
1.44267	18
1.44633	18
1.45000	17
1.45367	16
1.45733	19
1.46100	20
1.46467	19
1.46833	18
1.47200	18
1.47567	19
1.47933	19
1.48300	20
1.48667	21
1.49033	20
1.49400	19
1.49767	19
1.50133	19
1.50500	19
1.50867	16
1.51233	15
1.51600	17
1.51967	18
1.52333	18
1.52700	18
1.53067	18
1.53433	19
1.53800	19
1.54167	20
1.54533	20
1.54900	19
1.55267	20
1.55633	21
1.56000	21
1.56367	21
1.56733	20
1.57100	19
1.57467	19
1.57833	19
1.58200	19
1.58567	19
1.58933	19
1.59300	19
1.59667	18
1.60033	20
1.60400	24
1.60767	26
1.61133	25
1.61500	23
1.61867	22
1.62233	23
1.62600	22
1.62967	23
1.63333	23
1.63700	22
1.64067	23
1.64433	23
1.64800	23
1.65167	25
1.65533	27
1.65900	28
1.66267	28
1.66633	28
1.67000	30
1.67367	31
1.67733	31
1.68100	30
1.68467	30
1.68833	32
1.69200	33
1.69567	33
1.69933	33
1.70300	33
1.70667	35
1.71033	35
1.71400	35
1.71767	34
1.72133	36
1.72500	39
1.72867	42
1.73233	42
1.73600	39
1.73967	36
1.74333	33
1.74700	32
1.75067	32
1.75433	33
1.75800	37
1.76167	38
1.76533	39
1.76900	39
1.77267	39
1.77633	39
1.78000	37
1.78367	39
1.78733	41
1.79100	40
1.79467	41
1.79833	43
1.80200	42
1.80567	41
1.80933	42
1.81300	43
1.81667	43
1.82033	43
1.82400	41
1.82767	42
1.83133	42
1.83500	43
1.83867	44
1.84233	43
1.84600	44
1.84967	47
1.85333	50
1.85700	53
1.86067	55
1.86433	56
1.86800	58
1.87167	57
1.87533	58
1.87900	60
1.88267	62
1.88633	62
1.89000	61
1.89367	61
1.89733	61
1.90100	62
1.90467	62
1.90833	63
1.91200	63
1.91567	66
1.91933	67
1.92300	65
1.92667	64
1.93033	66
1.93400	69
1.93767	72
1.94133	74
1.94500	73
1.94867	72
1.95233	73
1.95600	75
1.95967	75
1.96333	78
1.96700	81
1.97067	81
1.97433	81
1.97800	78
1.98167	78
1.98533	78
1.98900	78
1.99267	81
1.99633	82
2.00000	82
2.00367	81
2.00733	81
2.01100	81
2.01467	83
2.01833	85
2.02200	86
2.02567	87
2.02933	88
2.03300	90
2.03667	90
2.04033	90
2.04400	89
2.04767	90
2.05133	90
2.05500	91
2.05867	91
2.06233	90
2.06600	91
2.06967	91
2.07333	91
2.07700	90
2.08067	90
2.08433	91
2.08800	94
2.09167	95
2.09533	96
2.09900	97
2.10267	100
2.10633	103
2.11000	104
2.11367	103
2.11733	104
2.12100	108
2.12467	109
2.12833	109
2.13200	108
2.13567	109
2.13933	112
2.14300	114
2.14667	116
2.15033	118
2.15400	118
2.15767	119
2.16133	120
2.16500	121
2.16867	124
2.17233	124
2.17600	124
2.17967	124
2.18333	125
2.18700	127
2.19067	129
2.19433	132
2.19800	133
2.20167	132
2.20533	133
2.20900	134
2.21267	136
2.21633	140
2.22000	143
2.22367	146
2.22733	147
2.23100	148
2.23467	149
2.23833	152
2.24200	154
2.24567	156
2.24933	158
2.25300	159
2.25667	160
2.26033	160
2.26400	161
2.26767	161
2.27133	162
2.27500	164
2.27867	166
2.28233	167
2.28600	168
2.28967	169
2.29333	170
2.29700	172
2.30067	176
2.30433	177
2.30800	175
2.31167	176
2.31533	179
2.31900	184
2.32267	187
2.32633	188
2.33000	188
2.33367	190
2.33733	191
2.34100	192
2.34467	193
2.34833	193
2.35200	193
2.35567	195
2.35933	197
2.36300	202
2.36667	205
2.37033	207
2.37400	209
2.37767	209
2.38133	211
2.38500	212
2.38867	211
2.39233	212
2.39600	214
2.39967	216
2.40333	220
2.40700	226
2.41067	231
2.41433	234
2.41800	236
2.42167	238
2.42533	240
2.42900	242
2.43267	243
2.43633	244
2.44000	250
2.44367	300
2.44733	426
2.45100	557
2.45467	664
2.45833	730
2.46200	741
2.46567	717
2.46933	686
2.47300	658
2.47667	643
2.48033	637
2.48400	623
2.48767	595
2.49133	559
2.49500	522
2.49867	490
2.50233	465
2.50600	448
2.50967	437
2.51333	432
2.51700	436
2.52067	447
2.52433	462
2.52800	479
2.53167	494
2.53533	504
2.53900	504
2.54267	494
2.54633	476
2.55000	455
2.55367	432
2.55733	409
2.56100	387
2.56467	371
2.56833	360
2.57200	352
2.57567	348
2.57933	347
2.58300	346
2.58667	346
2.59033	345
2.59400	343
2.59767	338
2.60133	330
2.60500	317
2.60867	302
2.61233	284
2.61600	266
2.61967	248
2.62333	234
2.62700	222
2.63067	212
2.63433	206
2.63800	205
2.64167	207
2.64533	213
2.64900	220
2.65267	229
2.65633	235
2.66000	238
2.66367	240
2.66733	242
2.67100	243
2.67467	242
2.67833	240
2.68200	237
2.68567	231
2.68933	228
2.69300	226
2.69667	223
2.70033	217
2.70400	213
2.70767	208
2.71133	204
2.71500	201
2.71867	200
2.72233	200
2.72600	201
2.72967	202
2.73333	201
2.73700	200
2.74067	201
2.74433	203
2.74800	207
2.75167	210
2.75533	212
2.75900	214
2.76267	215
2.76633	216
2.77000	217
2.77367	216
2.77733	214
2.78100	214
2.78467	214
2.78833	215
2.79200	219
2.79567	220
2.79933	219
2.80300	218
2.80667	219
2.81033	221
2.81400	221
2.81767	225
2.82133	237
2.82500	264
2.82867	318
2.83233	415
2.83600	580
2.83967	838
2.84333	1203
2.84700	1672
2.85067	2230
2.85433	2844
2.85800	3465
2.86167	4042
2.86533	4530
2.86900	4892
2.87267	5105
2.87633	5170
2.88000	5099
2.88367	4917
2.88733	4651
2.89100	4329
2.89467	3976
2.89833	3614
2.90200	3259
2.90567	2924
2.90933	2614
2.91300	2332
2.91667	2077
2.92033	1846
2.92400	1639
2.92767	1455
2.93133	1295
2.93500	1156
2.93867	1034
2.94233	930
2.94600	840
2.94967	764
2.95333	697
2.95700	641
2.96067	591
2.96433	546
2.96800	507
2.97167	472
2.97533	443
2.97900	418
2.98267	397
2.98633	378
2.99000	361
2.99367	346
2.99733	331
3.00100	317
3.00467	303
3.00833	293
3.01200	285
3.01567	277
3.01933	271
3.02300	266
3.02667	261
3.03033	256
3.03400	252
3.03767	249
3.04133	246
3.04500	242
3.04867	238
3.05233	235
3.05600	234
3.05967	232
3.06333	232
3.06700	231
3.07067	231
3.07433	230
3.07800	227
3.08167	225
3.08533	222
3.08900	216
3.09267	197
3.09633	155
3.10000	117
3.10367	106
3.10733	118
3.11100	146
3.11467	183
3.11833	223
3.12200	264
3.12567	302
3.12933	338
3.13300	374
3.13667	405
3.14033	432
3.14400	454
3.14767	474
3.15133	491
3.15500	507
3.15867	521
3.16233	533
3.16600	546
3.16967	556
3.17333	564
3.17700	572
3.18067	579
3.18433	584
3.18800	588
3.19167	593
3.19533	598
3.19900	604
3.20267	610
3.20633	614
3.21000	619
3.21367	625
3.21733	630
3.22100	629
3.22467	627
3.22833	630
3.23200	633
3.23567	633
3.23933	633
3.24300	635
3.24667	637
3.25033	639
3.25400	642
3.25767	643
3.26133	644
3.26500	643
3.26867	643
3.27233	644
3.27600	645
3.27967	647
3.28333	648
3.28700	649
3.29067	648
3.29433	650
3.29800	652
3.30167	655
3.30533	656
3.30900	656
3.31267	656
3.31633	656
3.32000	658
3.32367	659
3.32733	662
3.33100	664
3.33467	665
3.33833	665
3.34200	667
3.34567	671
3.34933	675
3.35300	678
3.35667	679
3.36033	678
3.36400	675
3.36767	673
3.37133	673
3.37500	675
3.37867	676
3.38233	677
3.38600	679
3.38967	681
3.39333	684
3.39700	686
3.40067	689
3.40433	691
3.40800	691
3.41167	688
3.41533	684
3.41900	683
3.42267	682
3.42633	681
3.43000	683
3.43367	684
3.43733	684
3.44100	684
3.44467	685
3.44833	685
3.45200	684
3.45567	682
3.45933	680
3.46300	678
3.46667	675
3.47033	673
3.47400	671
3.47767	670
3.48133	670
3.48500	669
3.48867	670
3.49233	670
3.49600	667
3.49967	663
3.50333	662
3.50700	661
3.51067	659
3.51433	658
3.51800	655
3.52167	654
3.52533	653
3.52900	652
3.53267	652
3.53633	651
3.54000	648
3.54367	645
3.54733	643
3.55100	640
3.55467	639
3.55833	638
3.56200	636
3.56567	636
3.56933	637
3.57300	638
3.57667	639
3.58033	638
3.58400	637
3.58767	637
3.59133	638
3.59500	637
3.59867	635
3.60233	633
3.60600	633
3.60967	633
3.61333	633
3.61700	633
3.62067	634
3.62433	634
3.62800	633
3.63167	632
3.63533	631
3.63900	630
3.64267	628
3.64633	627
3.65000	626
3.65367	626
3.65733	626
3.66100	625
3.66467	625
3.66833	625
3.67200	627
3.67567	627
3.67933	627
3.68300	625
3.68667	624
3.69033	624
3.69400	626
3.69767	625
3.70133	624
3.70500	625
3.70867	627
3.71233	629
3.71600	630
3.71967	629
3.72333	627
3.72700	624
3.73067	620
3.73433	618
3.73800	619
3.74167	620
3.74533	621
3.74900	620
3.75267	620
3.75633	619
3.76000	617
3.76367	618
3.76733	618
3.77100	617
3.77467	614
3.77833	613
3.78200	615
3.78567	616
3.78933	618
3.79300	618
3.79667	617
3.80033	615
3.80400	611
3.80767	606
3.81133	603
3.81500	604
3.81867	605
3.82233	604
3.82600	605
3.82967	607
3.83333	606
3.83700	605
3.84067	603
3.84433	602
3.84800	601
3.85167	602
3.85533	602
3.85900	604
3.86267	602
3.86633	600
3.87000	598
3.87367	596
3.87733	595
3.88100	595
3.88467	594
3.88833	595
3.89200	597
3.89567	598
3.89933	596
3.90300	594
3.90667	591
3.91033	590
3.91400	590
3.91767	589
3.92133	587
3.92500	585
3.92867	581
3.93233	577
3.93600	575
3.93967	572
3.94333	571
3.94700	570
3.95067	567
3.95433	566
3.95800	566
3.96167	566
3.96533	568
3.96900	569
3.97267	568
3.97633	565
3.98000	561
3.98367	558
3.98733	556
3.99100	555
3.99467	554
3.99833	551

[Status Trace (Column Oven Temperature)]
Interval(msec)	1000
# of Points	240
Start Time(min)	0.008
End Time(min)	3.991
Intensity Units	
Intensity Multiplier	1
R.Time (min)	Intensity
0.00762	35.02
0.02428	35.03
0.04095	35.04
0.05762	35.04
0.07428	35.05
0.09095	35.04
0.10762	35.03
0.12428	35.02
0.14095	35.01
0.15762	35.01
0.17428	35.01
0.19095	35.00
0.20762	35.00
0.22428	35.01
0.24095	35.01
0.25762	35.02
0.27428	35.03
0.29095	35.04
0.30762	35.04
0.32428	35.05
0.34095	35.04
0.35762	35.04
0.37428	35.03
0.39095	35.03
0.40762	35.01
0.42428	34.98
0.44095	34.97
0.45762	34.96
0.47428	34.96
0.49095	34.97
0.50762	34.97
0.52428	34.98
0.54095	34.99
0.55762	35.00
0.57428	35.01
0.59095	35.02
0.60762	35.02
0.62428	35.02
0.64095	35.01
0.65762	35.00
0.67428	34.99
0.69095	34.98
0.70762	34.98
0.72428	34.98
0.74095	34.98
0.75762	34.96
0.77428	34.96
0.79095	34.95
0.80762	34.95
0.82428	34.96
0.84095	34.97
0.85762	34.99
0.87428	35.00
0.89095	35.01
0.90762	35.01
0.92428	35.02
0.94095	35.02
0.95762	35.03
0.97428	35.03
0.99095	35.02
1.00762	35.02
1.02428	35.01
1.04095	35.00
1.05762	35.00
1.07428	35.00
1.09095	34.99
1.10762	34.99
1.12428	34.98
1.14095	34.98
1.15762	35.00
1.17428	35.01
1.19095	35.02
1.20762	35.02
1.22428	35.02
1.24095	35.02
1.25762	35.03
1.27428	35.01
1.29095	35.01
1.30762	35.02
1.32428	35.01
1.34095	35.01
1.35762	35.01
1.37428	34.99
1.39095	34.99
1.40762	34.99
1.42428	35.00
1.44095	35.00
1.45762	35.01
1.47428	35.01
1.49095	35.01
1.50762	35.01
1.52428	35.01
1.54095	35.01
1.55762	35.01
1.57428	35.01
1.59095	35.02
1.60762	35.08
1.62428	35.20
1.64095	35.38
1.65762	35.62
1.67428	35.96
1.69095	36.32
1.70762	36.68
1.72428	37.01
1.74095	37.35
1.75762	37.68
1.77428	38.00
1.79095	38.35
1.80762	38.67
1.82428	39.00
1.84095	39.33
1.85762	39.67
1.87428	40.01
1.89095	40.33
1.90762	40.67
1.92428	40.97
1.94095	41.30
1.95762	41.63
1.97428	41.95
1.99095	42.28
2.00762	42.60
2.02428	42.93
2.04095	43.25
2.05762	43.57
2.07428	43.90
2.09095	44.22
2.10762	44.53
2.12428	44.86
2.14095	45.20
2.15762	45.51
2.17428	45.83
2.19095	46.15
2.20762	46.51
2.22428	46.86
2.24095	47.16
2.25762	47.47
2.27428	47.87
2.29095	48.20
2.30762	48.53
2.32428	48.87
2.34095	49.17
2.35762	49.44
2.37428	49.59
2.39095	49.62
2.40762	49.60
2.42428	49.63
2.44095	49.63
2.45762	49.63
2.47428	49.65
2.49095	49.66
2.50762	49.66
2.52428	49.69
2.54095	49.70
2.55762	49.72
2.57428	49.74
2.59095	49.75
2.60762	49.77
2.62428	49.80
2.64095	49.81
2.65762	49.82
2.67428	49.83
2.69095	49.85
2.70762	49.84
2.72428	49.85
2.74095	49.87
2.75762	49.86
2.77428	49.86
2.79095	49.85
2.80762	49.85
2.82428	49.87
2.84095	49.88
2.85762	49.89
2.87428	49.90
2.89095	49.91
2.90762	49.91
2.92428	49.92
2.94095	49.92
2.95762	49.93
2.97428	49.94
2.99095	49.95
3.00762	49.97
3.02428	49.97
3.04095	49.97
3.05762	49.97
3.07428	49.97
3.09095	49.97
3.10762	49.98
3.12428	49.99
3.14095	50.01
3.15762	50.02
3.17428	50.03
3.19095	50.04
3.20762	50.05
3.22428	50.05
3.24095	50.05
3.25762	50.06
3.27428	50.07
3.29095	50.07
3.30762	50.07
3.32428	50.07
3.34095	50.08
3.35762	50.09
3.37428	50.09
3.39095	50.10
3.40762	50.11
3.42428	50.11
3.44095	50.10
3.45762	50.10
3.47428	50.09
3.49095	50.08
3.50762	50.07
3.52428	50.06
3.54095	50.04
3.55762	50.04
3.57428	50.03
3.59095	50.02
3.60762	50.02
3.62428	50.02
3.64095	50.03
3.65762	50.03
3.67428	50.03
3.69095	50.04
3.70762	50.04
3.72428	50.03
3.74095	50.02
3.75762	50.02
3.77428	50.03
3.79095	50.05
3.80762	50.08
3.82428	50.09
3.84095	50.09
3.85762	50.09
3.87428	50.09
3.89095	50.10
3.90762	50.10
3.92428	50.10
3.94095	50.09
3.95762	50.08
3.97428	50.06
3.99095	50.04

[Status Trace (Injection Unit Temperature)]
Interval(msec)	1000
# of Points	240
Start Time(min)	0.008
End Time(min)	3.991
Intensity Units	
Intensity Multiplier	1
R.Time (min)	Intensity
0.00762	99.98
0.02428	99.98
0.04095	99.98
0.05762	99.98
0.07428	99.98
0.09095	99.98
0.10762	99.98
0.12428	99.98
0.14095	99.97
0.15762	99.98
0.17428	99.98
0.19095	99.98
0.20762	99.98
0.22428	99.98
0.24095	99.98
0.25762	99.98
0.27428	99.98
0.29095	99.98
0.30762	99.98
0.32428	99.98
0.34095	99.98
0.35762	99.98
0.37428	99.98
0.39095	99.98
0.40762	99.98
0.42428	99.98
0.44095	99.98
0.45762	99.98
0.47428	99.98
0.49095	99.98
0.50762	99.98
0.52428	99.98
0.54095	99.98
0.55762	99.98
0.57428	99.98
0.59095	99.98
0.60762	99.98
0.62428	99.98
0.64095	99.98
0.65762	99.98
0.67428	99.97
0.69095	99.98
0.70762	99.98
0.72428	99.98
0.74095	99.98
0.75762	99.98
0.77428	99.98
0.79095	99.98
0.80762	99.98
0.82428	99.98
0.84095	99.98
0.85762	99.98
0.87428	99.98
0.89095	99.97
0.90762	99.98
0.92428	99.98
0.94095	99.98
0.95762	99.98
0.97428	99.98
0.99095	99.98
1.00762	99.98
1.02428	99.98
1.04095	99.98
1.05762	99.98
1.07428	99.98
1.09095	99.98
1.10762	99.98
1.12428	99.98
1.14095	99.98
1.15762	99.98
1.17428	99.98
1.19095	99.98
1.20762	99.98
1.22428	99.98
1.24095	99.99
1.25762	99.98
1.27428	99.98
1.29095	99.98
1.30762	99.98
1.32428	99.99
1.34095	99.98
1.35762	99.98
1.37428	99.99
1.39095	99.99
1.40762	99.99
1.42428	99.99
1.44095	99.98
1.45762	99.99
1.47428	99.99
1.49095	99.99
1.50762	99.99
1.52428	99.99
1.54095	99.99
1.55762	99.99
1.57428	99.99
1.59095	99.99
1.60762	99.99
1.62428	99.99
1.64095	99.99
1.65762	99.99
1.67428	99.99
1.69095	99.99
1.70762	99.99
1.72428	99.99
1.74095	99.99
1.75762	99.99
1.77428	99.99
1.79095	99.99
1.80762	99.99
1.82428	99.98
1.84095	99.99
1.85762	99.99
1.87428	99.99
1.89095	99.98
1.90762	99.98
1.92428	99.98
1.94095	99.98
1.95762	99.98
1.97428	99.98
1.99095	99.98
2.00762	99.98
2.02428	99.98
2.04095	99.98
2.05762	99.98
2.07428	99.98
2.09095	99.97
2.10762	99.97
2.12428	99.97
2.14095	99.97
2.15762	99.97
2.17428	99.97
2.19095	99.97
2.20762	99.97
2.22428	99.97
2.24095	99.97
2.25762	99.97
2.27428	99.97
2.29095	99.97
2.30762	99.97
2.32428	99.96
2.34095	99.97
2.35762	99.96
2.37428	99.96
2.39095	99.96
2.40762	99.97
2.42428	99.96
2.44095	99.96
2.45762	99.97
2.47428	99.97
2.49095	99.96
2.50762	99.97
2.52428	99.97
2.54095	99.97
2.55762	99.97
2.57428	99.97
2.59095	99.97
2.60762	99.97
2.62428	99.97
2.64095	99.98
2.65762	99.97
2.67428	99.98
2.69095	99.98
2.70762	99.98
2.72428	99.98
2.74095	99.98
2.75762	99.99
2.77428	99.98
2.79095	99.99
2.80762	99.99
2.82428	99.99
2.84095	100.00
2.85762	100.00
2.87428	100.00
2.89095	100.00
2.90762	100.00
2.92428	100.00
2.94095	100.00
2.95762	100.01
2.97428	100.01
2.99095	100.01
3.00762	100.01
3.02428	100.01
3.04095	100.01
3.05762	100.01
3.07428	100.01
3.09095	100.02
3.10762	100.02
3.12428	100.02
3.14095	100.02
3.15762	100.02
3.17428	100.02
3.19095	100.02
3.20762	100.02
3.22428	100.02
3.24095	100.03
3.25762	100.03
3.27428	100.03
3.29095	100.03
3.30762	100.03
3.32428	100.03
3.34095	100.03
3.35762	100.03
3.37428	100.03
3.39095	100.04
3.40762	100.04
3.42428	100.04
3.44095	100.04
3.45762	100.04
3.47428	100.04
3.49095	100.04
3.50762	100.04
3.52428	100.04
3.54095	100.04
3.55762	100.04
3.57428	100.04
3.59095	100.04
3.60762	100.04
3.62428	100.04
3.64095	100.04
3.65762	100.04
3.67428	100.05
3.69095	100.04
3.70762	100.04
3.72428	100.04
3.74095	100.04
3.75762	100.04
3.77428	100.04
3.79095	100.04
3.80762	100.04
3.82428	100.04
3.84095	100.05
3.85762	100.04
3.87428	100.04
3.89095	100.05
3.90762	100.05
3.92428	100.05
3.94095	100.05
3.95762	100.04
3.97428	100.05
3.99095	100.05

[Status Trace (Carrier Gas Pressure)]
Interval(msec)	1000
# of Points	240
Start Time(min)	0.008
End Time(min)	3.991
Intensity Units	
Intensity Multiplier	1
R.Time (min)	Intensity
0.00762	58.00
0.02428	55.37
0.04095	57.03
0.05762	59.23
0.07428	59.41
0.09095	58.08
0.10762	57.98
0.12428	58.01
0.14095	58.01
0.15762	58.01
0.17428	58.00
0.19095	58.00
0.20762	58.00
0.22428	58.00
0.24095	58.00
0.25762	58.00
0.27428	58.00
0.29095	58.00
0.30762	58.00
0.32428	58.00
0.34095	58.00
0.35762	58.00
0.37428	58.00
0.39095	58.00
0.40762	58.00
0.42428	58.00
0.44095	58.00
0.45762	58.00
0.47428	58.00
0.49095	58.00
0.50762	58.00
0.52428	58.00
0.54095	58.00
0.55762	58.00
0.57428	58.00
0.59095	58.00
0.60762	58.00
0.62428	58.00
0.64095	58.00
0.65762	58.00
0.67428	58.00
0.69095	58.00
0.70762	58.00
0.72428	58.00
0.74095	58.00
0.75762	58.00
0.77428	58.00
0.79095	58.00
0.80762	58.00
0.82428	58.00
0.84095	58.00
0.85762	58.00
0.87428	58.00
0.89095	58.00
0.90762	58.00
0.92428	58.00
0.94095	58.00
0.95762	58.00
0.97428	58.00
0.99095	58.00
1.00762	58.00
1.02428	58.00
1.04095	58.00
1.05762	58.00
1.07428	58.00
1.09095	58.00
1.10762	58.00
1.12428	58.00
1.14095	58.00
1.15762	58.00
1.17428	58.00
1.19095	58.00
1.20762	58.00
1.22428	58.00
1.24095	58.00
1.25762	58.00
1.27428	58.00
1.29095	58.00
1.30762	58.00
1.32428	58.00
1.34095	58.00
1.35762	58.00
1.37428	58.00
1.39095	58.00
1.40762	58.00
1.42428	58.00
1.44095	58.00
1.45762	58.00
1.47428	58.00
1.49095	58.00
1.50762	58.00
1.52428	58.00
1.54095	58.00
1.55762	58.00
1.57428	58.00
1.59095	58.00
1.60762	58.00
1.62428	58.00
1.64095	58.00
1.65762	58.01
1.67428	58.01
1.69095	58.00
1.70762	58.00
1.72428	58.00
1.74095	58.00
1.75762	58.00
1.77428	58.00
1.79095	58.00
1.80762	58.00
1.82428	58.00
1.84095	58.00
1.85762	58.00
1.87428	58.00
1.89095	58.00
1.90762	58.00
1.92428	58.00
1.94095	58.00
1.95762	58.00
1.97428	58.00
1.99095	58.00
2.00762	58.00
2.02428	58.00
2.04095	58.00
2.05762	58.00
2.07428	58.00
2.09095	58.00
2.10762	58.00
2.12428	58.00
2.14095	58.00
2.15762	58.00
2.17428	58.00
2.19095	58.00
2.20762	58.00
2.22428	58.00
2.24095	58.00
2.25762	58.00
2.27428	58.00
2.29095	58.00
2.30762	58.00
2.32428	58.00
2.34095	58.00
2.35762	58.00
2.37428	58.00
2.39095	57.99
2.40762	57.99
2.42428	58.00
2.44095	58.00
2.45762	58.00
2.47428	58.00
2.49095	58.00
2.50762	58.00
2.52428	57.99
2.54095	58.00
2.55762	58.00
2.57428	58.00
2.59095	58.00
2.60762	58.00
2.62428	58.00
2.64095	58.00
2.65762	58.00
2.67428	58.00
2.69095	58.00
2.70762	58.00
2.72428	58.00
2.74095	58.00
2.75762	58.00
2.77428	58.00
2.79095	58.00
2.80762	58.00
2.82428	58.00
2.84095	58.00
2.85762	58.00
2.87428	58.00
2.89095	58.00
2.90762	58.00
2.92428	58.00
2.94095	58.00
2.95762	58.00
2.97428	58.00
2.99095	58.00
3.00762	58.00
3.02428	58.00
3.04095	58.00
3.05762	58.00
3.07428	58.00
3.09095	58.00
3.10762	58.00
3.12428	58.00
3.14095	58.00
3.15762	58.00
3.17428	58.00
3.19095	58.00
3.20762	58.00
3.22428	58.00
3.24095	58.00
3.25762	58.00
3.27428	58.00
3.29095	58.00
3.30762	58.00
3.32428	58.00
3.34095	58.00
3.35762	58.00
3.37428	58.00
3.39095	58.00
3.40762	58.00
3.42428	58.00
3.44095	58.00
3.45762	58.00
3.47428	58.00
3.49095	58.00
3.50762	58.00
3.52428	58.00
3.54095	58.00
3.55762	58.00
3.57428	58.00
3.59095	58.00
3.60762	58.00
3.62428	58.00
3.64095	58.00
3.65762	58.00
3.67428	58.00
3.69095	58.00
3.70762	58.00
3.72428	58.00
3.74095	58.00
3.75762	58.00
3.77428	58.00
3.79095	58.00
3.80762	58.00
3.82428	58.00
3.84095	58.00
3.85762	58.00
3.87428	58.00
3.89095	58.00
3.90762	58.00
3.92428	58.00
3.94095	58.00
3.95762	58.00
3.97428	58.00
3.99095	58.00

[Status Trace (Carrier Gas Flow)]
Interval(msec)	1000
# of Points	240
Start Time(min)	0.008
End Time(min)	3.991
Intensity Units	
Intensity Multiplier	1
R.Time (min)	Intensity
0.00762	34.52
0.02428	34.53
0.04095	34.54
0.05762	34.55
0.07428	34.51
0.09095	34.51
0.10762	34.52
0.12428	34.52
0.14095	34.52
0.15762	34.51
0.17428	34.52
0.19095	34.52
0.20762	34.52
0.22428	34.52
0.24095	34.52
0.25762	34.52
0.27428	34.52
0.29095	34.52
0.30762	34.52
0.32428	34.52
0.34095	34.53
0.35762	34.52
0.37428	34.52
0.39095	34.52
0.40762	34.52
0.42428	34.52
0.44095	34.52
0.45762	34.51
0.47428	34.52
0.49095	34.52
0.50762	34.52
0.52428	34.51
0.54095	34.52
0.55762	34.52
0.57428	34.52
0.59095	34.52
0.60762	34.52
0.62428	34.52
0.64095	34.52
0.65762	34.52
0.67428	34.52
0.69095	34.52
0.70762	34.52
0.72428	34.52
0.74095	34.52
0.75762	34.52
0.77428	34.52
0.79095	34.52
0.80762	34.52
0.82428	34.51
0.84095	34.52
0.85762	34.52
0.87428	34.52
0.89095	34.52
0.90762	34.52
0.92428	34.51
0.94095	34.52
0.95762	34.52
0.97428	34.51
0.99095	34.52
1.00762	34.52
1.02428	34.52
1.04095	34.51
1.05762	34.52
1.07428	34.52
1.09095	34.52
1.10762	34.51
1.12428	34.51
1.14095	34.52
1.15762	34.52
1.17428	34.52
1.19095	34.52
1.20762	34.51
1.22428	34.51
1.24095	34.52
1.25762	34.52
1.27428	34.52
1.29095	34.52
1.30762	34.52
1.32428	34.52
1.34095	34.51
1.35762	34.52
1.37428	34.52
1.39095	34.52
1.40762	34.52
1.42428	34.52
1.44095	34.52
1.45762	34.52
1.47428	34.52
1.49095	34.52
1.50762	34.52
1.52428	34.52
1.54095	34.52
1.55762	34.52
1.57428	34.52
1.59095	34.52
1.60762	34.52
1.62428	34.52
1.64095	34.51
1.65762	34.52
1.67428	34.52
1.69095	34.52
1.70762	34.52
1.72428	34.51
1.74095	34.52
1.75762	34.52
1.77428	34.52
1.79095	34.52
1.80762	34.52
1.82428	34.52
1.84095	34.52
1.85762	34.52
1.87428	34.52
1.89095	34.52
1.90762	34.52
1.92428	34.52
1.94095	34.52
1.95762	34.52
1.97428	34.51
1.99095	34.52
2.00762	34.52
2.02428	34.52
2.04095	34.52
2.05762	34.52
2.07428	34.52
2.09095	34.52
2.10762	34.52
2.12428	34.52
2.14095	34.52
2.15762	34.51
2.17428	34.52
2.19095	34.52
2.20762	34.53
2.22428	34.53
2.24095	34.52
2.25762	34.52
2.27428	34.51
2.29095	34.52
2.30762	34.51
2.32428	34.52
2.34095	34.51
2.35762	34.52
2.37428	34.52
2.39095	34.51
2.40762	34.52
2.42428	34.52
2.44095	34.52
2.45762	34.51
2.47428	34.52
2.49095	34.52
2.50762	34.37
2.52428	34.52
2.54095	34.52
2.55762	34.52
2.57428	34.52
2.59095	34.52
2.60762	34.52
2.62428	34.51
2.64095	34.51
2.65762	34.52
2.67428	34.52
2.69095	34.52
2.70762	34.52
2.72428	34.52
2.74095	34.52
2.75762	34.52
2.77428	34.52
2.79095	34.52
2.80762	34.52
2.82428	34.52
2.84095	34.52
2.85762	34.51
2.87428	34.52
2.89095	34.52
2.90762	34.52
2.92428	34.52
2.94095	34.52
2.95762	34.52
2.97428	34.52
2.99095	34.52
3.00762	34.52
3.02428	34.52
3.04095	34.52
3.05762	34.52
3.07428	34.52
3.09095	34.52
3.10762	34.51
3.12428	34.53
3.14095	34.52
3.15762	34.51
3.17428	34.52
3.19095	34.51
3.20762	34.52
3.22428	34.52
3.24095	34.52
3.25762	34.51
3.27428	34.52
3.29095	34.51
3.30762	34.52
3.32428	34.52
3.34095	34.52
3.35762	34.52
3.37428	34.52
3.39095	34.53
3.40762	34.52
3.42428	34.52
3.44095	34.52
3.45762	34.51
3.47428	34.52
3.49095	34.53
3.50762	34.52
3.52428	34.51
3.54095	34.52
3.55762	34.52
3.57428	34.52
3.59095	34.52
3.60762	34.53
3.62428	34.52
3.64095	34.52
3.65762	34.51
3.67428	34.51
3.69095	34.52
3.70762	34.52
3.72428	34.52
3.74095	34.52
3.75762	34.52
3.77428	34.52
3.79095	34.52
3.80762	34.52
3.82428	34.52
3.84095	34.51
3.85762	34.52
3.87428	34.51
3.89095	34.51
3.90762	34.52
3.92428	34.52
3.94095	34.52
3.95762	34.51
3.97428	34.52
3.99095	34.52

[Status Trace (Column Flow)]
Interval(msec)	1000
# of Points	240
Start Time(min)	0.008
End Time(min)	3.991
Intensity Units	
Intensity Multiplier	1
R.Time (min)	Intensity
0.00762	5.51
0.02428	5.21
0.04095	5.40
0.05762	5.66
0.07428	5.68
0.09095	5.52
0.10762	5.51
0.12428	5.52
0.14095	5.52
0.15762	5.51
0.17428	5.51
0.19095	5.52
0.20762	5.52
0.22428	5.51
0.24095	5.51
0.25762	5.51
0.27428	5.51
0.29095	5.51
0.30762	5.51
0.32428	5.51
0.34095	5.51
0.35762	5.51
0.37428	5.51
0.39095	5.51
0.40762	5.51
0.42428	5.52
0.44095	5.52
0.45762	5.52
0.47428	5.52
0.49095	5.52
0.50762	5.52
0.52428	5.52
0.54095	5.51
0.55762	5.51
0.57428	5.51
0.59095	5.51
0.60762	5.51
0.62428	5.51
0.64095	5.51
0.65762	5.51
0.67428	5.51
0.69095	5.52
0.70762	5.52
0.72428	5.52
0.74095	5.52
0.75762	5.52
0.77428	5.52
0.79095	5.52
0.80762	5.52
0.82428	5.52
0.84095	5.52
0.85762	5.52
0.87428	5.51
0.89095	5.51
0.90762	5.51
0.92428	5.51
0.94095	5.51
0.95762	5.51
0.97428	5.51
0.99095	5.51
1.00762	5.51
1.02428	5.51
1.04095	5.51
1.05762	5.52
1.07428	5.51
1.09095	5.51
1.10762	5.52
1.12428	5.52
1.14095	5.52
1.15762	5.51
1.17428	5.51
1.19095	5.51
1.20762	5.51
1.22428	5.51
1.24095	5.51
1.25762	5.51
1.27428	5.51
1.29095	5.51
1.30762	5.51
1.32428	5.51
1.34095	5.51
1.35762	5.51
1.37428	5.52
1.39095	5.52
1.40762	5.52
1.42428	5.51
1.44095	5.51
1.45762	5.51
1.47428	5.51
1.49095	5.51
1.50762	5.51
1.52428	5.51
1.54095	5.51
1.55762	5.51
1.57428	5.51
1.59095	5.51
1.60762	5.51
1.62428	5.51
1.64095	5.50
1.65762	5.50
1.67428	5.49
1.69095	5.47
1.70762	5.46
1.72428	5.45
1.74095	5.44
1.75762	5.43
1.77428	5.42
1.79095	5.41
1.80762	5.40
1.82428	5.39
1.84095	5.38
1.85762	5.37
1.87428	5.36
1.89095	5.35
1.90762	5.34
1.92428	5.33
1.94095	5.32
1.95762	5.31
1.97428	5.30
1.99095	5.29
2.00762	5.28
2.02428	5.27
2.04095	5.26
2.05762	5.25
2.07428	5.25
2.09095	5.24
2.10762	5.23
2.12428	5.22
2.14095	5.21
2.15762	5.20
2.17428	5.19
2.19095	5.18
2.20762	5.17
2.22428	5.16
2.24095	5.15
2.25762	5.14
2.27428	5.13
2.29095	5.12
2.30762	5.11
2.32428	5.10
2.34095	5.10
2.35762	5.09
2.37428	5.08
2.39095	5.08
2.40762	5.08
2.42428	5.08
2.44095	5.08
2.45762	5.08
2.47428	5.08
2.49095	5.08
2.50762	5.08
2.52428	5.08
2.54095	5.08
2.55762	5.08
2.57428	5.08
2.59095	5.08
2.60762	5.08
2.62428	5.08
2.64095	5.08
2.65762	5.08
2.67428	5.08
2.69095	5.08
2.70762	5.08
2.72428	5.08
2.74095	5.08
2.75762	5.08
2.77428	5.08
2.79095	5.08
2.80762	5.08
2.82428	5.08
2.84095	5.08
2.85762	5.08
2.87428	5.08
2.89095	5.07
2.90762	5.07
2.92428	5.07
2.94095	5.07
2.95762	5.07
2.97428	5.07
2.99095	5.07
3.00762	5.07
3.02428	5.07
3.04095	5.07
3.05762	5.07
3.07428	5.07
3.09095	5.07
3.10762	5.07
3.12428	5.07
3.14095	5.07
3.15762	5.07
3.17428	5.07
3.19095	5.07
3.20762	5.07
3.22428	5.07
3.24095	5.07
3.25762	5.07
3.27428	5.07
3.29095	5.07
3.30762	5.07
3.32428	5.07
3.34095	5.07
3.35762	5.07
3.37428	5.07
3.39095	5.07
3.40762	5.07
3.42428	5.07
3.44095	5.07
3.45762	5.07
3.47428	5.07
3.49095	5.07
3.50762	5.07
3.52428	5.07
3.54095	5.07
3.55762	5.07
3.57428	5.07
3.59095	5.07
3.60762	5.07
3.62428	5.07
3.64095	5.07
3.65762	5.07
3.67428	5.07
3.69095	5.07
3.70762	5.07
3.72428	5.07
3.74095	5.07
3.75762	5.07
3.77428	5.07
3.79095	5.07
3.80762	5.07
3.82428	5.07
3.84095	5.07
3.85762	5.07
3.87428	5.07
3.89095	5.07
3.90762	5.07
3.92428	5.07
3.94095	5.07
3.95762	5.07
3.97428	5.07
3.99095	5.07

[Status Trace (Linear Velocity)]
Interval(msec)	1000
# of Points	240
Start Time(min)	0.008
End Time(min)	3.991
Intensity Units	
Intensity Multiplier	1
R.Time (min)	Intensity
0.00762	39.01
0.02428	37.29
0.04095	38.38
0.05762	39.81
0.07428	39.93
0.09095	39.06
0.10762	39.00
0.12428	39.02
0.14095	39.02
0.15762	39.02
0.17428	39.02
0.19095	39.02
0.20762	39.02
0.22428	39.02
0.24095	39.01
0.25762	39.01
0.27428	39.01
0.29095	39.01
0.30762	39.01
0.32428	39.01
0.34095	39.01
0.35762	39.01
0.37428	39.01
0.39095	39.01
0.40762	39.01
0.42428	39.02
0.44095	39.02
0.45762	39.02
0.47428	39.02
0.49095	39.02
0.50762	39.02
0.52428	39.02
0.54095	39.02
0.55762	39.01
0.57428	39.01
0.59095	39.01
0.60762	39.01
0.62428	39.01
0.64095	39.01
0.65762	39.02
0.67428	39.02
0.69095	39.02
0.70762	39.02
0.72428	39.02
0.74095	39.02
0.75762	39.02
0.77428	39.02
0.79095	39.02
0.80762	39.02
0.82428	39.02
0.84095	39.02
0.85762	39.02
0.87428	39.01
0.89095	39.01
0.90762	39.01
0.92428	39.01
0.94095	39.01
0.95762	39.01
0.97428	39.01
0.99095	39.01
1.00762	39.01
1.02428	39.01
1.04095	39.01
1.05762	39.02
1.07428	39.01
1.09095	39.02
1.10762	39.02
1.12428	39.02
1.14095	39.02
1.15762	39.02
1.17428	39.01
1.19095	39.01
1.20762	39.01
1.22428	39.01
1.24095	39.01
1.25762	39.01
1.27428	39.01
1.29095	39.01
1.30762	39.01
1.32428	39.01
1.34095	39.01
1.35762	39.01
1.37428	39.02
1.39095	39.02
1.40762	39.02
1.42428	39.02
1.44095	39.01
1.45762	39.01
1.47428	39.01
1.49095	39.01
1.50762	39.01
1.52428	39.01
1.54095	39.01
1.55762	39.01
1.57428	39.01
1.59095	39.01
1.60762	39.01
1.62428	39.00
1.64095	38.98
1.65762	38.96
1.67428	38.93
1.69095	38.89
1.70762	38.85
1.72428	38.82
1.74095	38.79
1.75762	38.76
1.77428	38.73
1.79095	38.70
1.80762	38.66
1.82428	38.63
1.84095	38.61
1.85762	38.57
1.87428	38.54
1.89095	38.51
1.90762	38.48
1.92428	38.45
1.94095	38.42
1.95762	38.39
1.97428	38.36
1.99095	38.33
2.00762	38.30
2.02428	38.27
2.04095	38.24
2.05762	38.21
2.07428	38.18
2.09095	38.15
2.10762	38.12
2.12428	38.09
2.14095	38.06
2.15762	38.03
2.17428	38.00
2.19095	37.98
2.20762	37.94
2.22428	37.91
2.24095	37.88
2.25762	37.86
2.27428	37.82
2.29095	37.79
2.30762	37.76
2.32428	37.73
2.34095	37.71
2.35762	37.68
2.37428	37.66
2.39095	37.66
2.40762	37.66
2.42428	37.66
2.44095	37.66
2.45762	37.66
2.47428	37.66
2.49095	37.66
2.50762	37.66
2.52428	37.65
2.54095	37.66
2.55762	37.66
2.57428	37.65
2.59095	37.65
2.60762	37.65
2.62428	37.65
2.64095	37.65
2.65762	37.65
2.67428	37.65
2.69095	37.64
2.70762	37.65
2.72428	37.64
2.74095	37.64
2.75762	37.64
2.77428	37.64
2.79095	37.64
2.80762	37.64
2.82428	37.64
2.84095	37.64
2.85762	37.64
2.87428	37.64
2.89095	37.64
2.90762	37.64
2.92428	37.64
2.94095	37.64
2.95762	37.64
2.97428	37.64
2.99095	37.64
3.00762	37.63
3.02428	37.63
3.04095	37.63
3.05762	37.63
3.07428	37.63
3.09095	37.63
3.10762	37.63
3.12428	37.63
3.14095	37.63
3.15762	37.63
3.17428	37.63
3.19095	37.63
3.20762	37.63
3.22428	37.63
3.24095	37.63
3.25762	37.63
3.27428	37.63
3.29095	37.63
3.30762	37.63
3.32428	37.62
3.34095	37.62
3.35762	37.62
3.37428	37.62
3.39095	37.62
3.40762	37.62
3.42428	37.62
3.44095	37.62
3.45762	37.62
3.47428	37.62
3.49095	37.62
3.50762	37.62
3.52428	37.63
3.54095	37.63
3.55762	37.63
3.57428	37.63
3.59095	37.63
3.60762	37.63
3.62428	37.63
3.64095	37.63
3.65762	37.63
3.67428	37.63
3.69095	37.63
3.70762	37.63
3.72428	37.63
3.74095	37.63
3.75762	37.63
3.77428	37.63
3.79095	37.63
3.80762	37.62
3.82428	37.62
3.84095	37.62
3.85762	37.62
3.87428	37.62
3.89095	37.62
3.90762	37.62
3.92428	37.62
3.94095	37.62
3.95762	37.62
3.97428	37.63
3.99095	37.63

