[Header]
Application Name	LabSolutions
Version	5.110
Data File Name	C:\Users\User\Desktop\GC Analyses\Jack\Nachusa Grasslands Sampling\T2 Timepoint July 12th\T2_07122022_075.gcd
Output Date	3/14/2023
Output Time	3:42:34 PM

[File Information]
Type	Data File
Generated	3/10/2023 8:48:54 PM
Generated by	System Administrator
Modified	3/10/2023 8:55:50 PM
Modified by	System Administrator

[Sample Information]
Operator Name	System Administrator
Acquired	3/10/2023 8:51:49 PM
Sample Type	0:Unknown
Level	0
Sample Name	075
Sample ID	075
ISTD Amount1	1
ISTD Amount2	1
ISTD Amount3	1
ISTD Amount4	1
ISTD Amount5	1
ISTD Amount6	1
ISTD Amount7	1
ISTD Amount8	1
ISTD Amount9	1
ISTD Amount10	1
ISTD Amount11	1
ISTD Amount12	1
ISTD Amount13	1
ISTD Amount14	1
ISTD Amount15	1
ISTD Amount16	1
ISTD Amount17	1
ISTD Amount18	1
ISTD Amount19	1
ISTD Amount20	1
ISTD Amount21	1
ISTD Amount22	1
ISTD Amount23	1
ISTD Amount24	1
ISTD Amount25	1
ISTD Amount26	1
ISTD Amount27	1
ISTD Amount28	1
ISTD Amount29	1
ISTD Amount30	1
ISTD Amount31	1
ISTD Amount32	1
Sample Amount	1
Dilution Factor	1
Vial#	74
Injection Volume	1
Injection Count	1
Bar Code	

[Original Files]
Data File	C:\Users\User\Desktop\GC Analyses\Jack\Nachusa Grasslands Sampling\T1 Timepoint July 12th\T2_07122022_075.gcd
Method File	C:\LabSolutions\Data\GHG_4min_2022\ghg3_togas_w_acet_4 min_new_int.gcm
Batch File	C:\LabSolutions\Data\AutoSamplerTesting\T2_07122022.gcb
Report Format File	c:\LabSolutions\System\DEFAULT.lsr

[File Description]


[Configuration]
Instrument Name	C0B7VH3-Instrument1
Instrument #	1
Line #	1
# of Detectors	3
Detector ID	DET#1	DET#2	DET#3
Detector Name	FID	PTCD	ECD
# of Channels	1	1	1

[Peak Table(Ch1)]
# of Peaks	3
Peak#	R.Time	I.Time	F.Time	Area	Height	A/H	Conc.	Mark	ID#	Name	k'	Plate #	Plate Ht.	Tailing	Resolution	Sep.Factor	Area Ratio	Height Ratio	Conc. %	Norm Conc.
1	1.476	1.439	1.538	31082	14944	2.080	219.437	   	1	CO	0.000	9436	15.897	1.277	0.000	0.000	0	0	23.916	23.916
2	1.567	1.538	1.630	4624	2259	2.047	89.414	 V 	2	CH4	0.062	10192	14.717	0.000	1.492	0.000	0	0	9.745	9.745
3	1.996	1.949	2.612	2425330	1156199	2.098	608.692	   	3	CO2	0.353	17508	8.568	1.236	7.007	5.680	0	0	66.339	66.339

[Peak Table(Ch2)]
# of Peaks	0

[Peak Table(Ch3)]
# of Peaks	7
Peak#	R.Time	I.Time	F.Time	Area	Height	A/H	Conc.	Mark	ID#	Name	k'	Plate #	Plate Ht.	Tailing	Resolution	Sep.Factor	Area Ratio	Height Ratio	Conc. %	Norm Conc.
1	2.458	2.257	2.513	2775	742	3.743	0.000	   			0.000	11045	13.581	0.000	0.000	0.000	0	0	0.000	0.000
2	2.532	2.513	2.587	967	324	2.982	0.000	 V 			0.030	6400	23.438	0.000	0.666	0.000	0	0	0.000	0.000
3	2.594	2.587	2.638	266	119	2.226	0.000	 V 			0.055	1673	89.675	0.000	0.328	1.850	0	0	0.000	0.000
4	2.649	2.638	2.697	121	59	2.049	0.000	 V 			0.078	8291	18.091	0.000	0.297	1.405	0	0	0.000	0.000
5	2.876	2.730	2.961	18534	5080	3.649	0.473	   	1	N2O	0.170	13290	11.286	0.000	2.103	2.192	0	0	81.927	81.927
6	3.016	2.961	3.129	4088	440	9.300	0.104	 V 	1	N2O	0.227	14	10729.912	0.000	0.084	1.333	0	0	18.073	18.073
7	3.243	3.129	3.995	13641	450	30.319	0.000	 V 	2	SF6	0.319	143	1050.970	0.000	0.105	1.408	0	0	0.000	0.000

[Compound Results(Ch1)]
# of IDs	6
ID#	Name	R.Time	Area	Height	Conc.	Curve	3rd	2nd	1st	Constant	Area Ratio	Height Ratio	Conc. %	Norm Conc.
1	CO	1.476	31082	14944	219.437	Linear	0.000000e+00	0.000000e+00	1.416423e+002	0.000000e+00	0	0	23.916	23.916
2	CH4	1.567	4624	2259	89.414	Linear	0.000000e+00	0.000000e+00	5.171738e+001	0.000000e+00	0	0	9.745	9.745
3	CO2	1.996	2425330	1156199	608.692	Linear	0.000000e+00	0.000000e+00	3.984494e+003	0.000000e+00	0	0	66.339	66.339
4	Ethylene	0.000	0	0	0.000	Linear	0.000000e+00	0.000000e+00	0.000000e+00	0.000000e+00	0	0	0.000	0.000
5	Acetylene	0.000	0	0	0.000	Linear	0.000000e+00	0.000000e+00	0.000000e+00	0.000000e+00	0	0	0.000	0.000
6	Ethane	0.000	0	0	0.000	Linear	0.000000e+00	0.000000e+00	0.000000e+00	0.000000e+00	0	0	0.000	0.000

[Compound Results(Ch2)]
# of IDs	5
ID#	Name	R.Time	Area	Height	Conc.	Curve	3rd	2nd	1st	Constant	Area Ratio	Height Ratio	Conc. %	Norm Conc.
1	Hydrogen	0.000	0	0	0.000	Linear	0.000000e+00	0.000000e+00	0.000000e+00	0.000000e+00	0	0	0.000	0.000
2	Oxygen	0.000	0	0	0.000	Linear	0.000000e+00	0.000000e+00	0.000000e+00	0.000000e+00	0	0	0.000	0.000
3	Nitrogen	0.000	0	0	0.000	Linear	0.000000e+00	0.000000e+00	0.000000e+00	0.000000e+00	0	0	0.000	0.000
4	Methane	0.000	0	0	0.000	Linear	0.000000e+00	0.000000e+00	0.000000e+00	0.000000e+00	0	0	0.000	0.000
5	Carbon Monoxide	0.000	0	0	0.000	Linear	0.000000e+00	0.000000e+00	0.000000e+00	0.000000e+00	0	0	0.000	0.000

[Compound Results(Ch3)]
# of IDs	2
ID#	Name	R.Time	Area	Height	Conc.	Curve	3rd	2nd	1st	Constant	Area Ratio	Height Ratio	Conc. %	Norm Conc.
1	N2O	2.876	22622	5519	0.578	Linear	0.000000e+00	0.000000e+00	3.915173e+004	0.000000e+00	0	0	100.000	100.000
2	SF6	3.243	13641	450	0.000	Linear	0.000000e+00	0.000000e+00	0.000000e+00	0.000000e+00	0	0	0.000	0.000

[Group Results(Ch1)]
# of Groups	0

[Group Results(Ch2)]
# of Groups	0

[Group Results(Ch3)]
# of Groups	0

[Chromatogram (Ch1)]
Interval(msec)	220
# of Points	1091
Start Time(min)	0.002
End Time(min)	3.998
R.Time (min)	Intensity
0.00167	20
0.00533	32
0.00900	43
0.01267	48
0.01633	50
0.02000	49
0.02367	47
0.02733	46
0.03100	45
0.03467	44
0.03833	45
0.04200	44
0.04567	42
0.04933	39
0.05300	37
0.05667	37
0.06033	37
0.06400	35
0.06767	33
0.07133	34
0.07500	36
0.07867	38
0.08233	39
0.08600	40
0.08967	44
0.09333	47
0.09700	44
0.10067	39
0.10433	35
0.10800	32
0.11167	33
0.11533	34
0.11900	31
0.12267	23
0.12633	15
0.13000	8
0.13367	-0
0.13733	-7
0.14100	-13
0.14467	-18
0.14833	-20
0.15200	-22
0.15567	-23
0.15933	-26
0.16300	-31
0.16667	-35
0.17033	-35
0.17400	-34
0.17767	-33
0.18133	-29
0.18500	-21
0.18867	-13
0.19233	-11
0.19600	-16
0.19967	-24
0.20333	-32
0.20700	-37
0.21067	-40
0.21433	-46
0.21800	-51
0.22167	-51
0.22533	-50
0.22900	-46
0.23267	-34
0.23633	-20
0.24000	-6
0.24367	-2
0.24733	-6
0.25100	-9
0.25467	-11
0.25833	-16
0.26200	-21
0.26567	-26
0.26933	-23
0.27300	-21
0.27667	-25
0.28033	-32
0.28400	-38
0.28767	-44
0.29133	-53
0.29500	-64
0.29867	-71
0.30233	-75
0.30600	-73
0.30967	-66
0.31333	-61
0.31700	-55
0.32067	-45
0.32433	-36
0.32800	-26
0.33167	-18
0.33533	-15
0.33900	-14
0.34267	-13
0.34633	-13
0.35000	-16
0.35367	-17
0.35733	-16
0.36100	-9
0.36467	-1
0.36833	4
0.37200	7
0.37567	4
0.37933	-1
0.38300	-3
0.38667	-5
0.39033	-7
0.39400	-5
0.39767	-0
0.40133	4
0.40500	9
0.40867	12
0.41233	15
0.41600	14
0.41967	9
0.42333	6
0.42700	8
0.43067	13
0.43433	18
0.43800	24
0.44167	27
0.44533	28
0.44900	23
0.45267	11
0.45633	-0
0.46000	-7
0.46367	-8
0.46733	-11
0.47100	-14
0.47467	-11
0.47833	0
0.48200	13
0.48567	20
0.48933	19
0.49300	18
0.49667	15
0.50033	12
0.50400	11
0.50767	13
0.51133	14
0.51500	10
0.51867	5
0.52233	1
0.52600	0
0.52967	4
0.53333	4
0.53700	2
0.54067	1
0.54433	1
0.54800	6
0.55167	10
0.55533	13
0.55900	19
0.56267	22
0.56633	23
0.57000	16
0.57367	4
0.57733	-6
0.58100	-9
0.58467	-4
0.58833	1
0.59200	6
0.59567	10
0.59933	11
0.60300	9
0.60667	8
0.61033	8
0.61400	8
0.61767	6
0.62133	7
0.62500	12
0.62867	12
0.63233	9
0.63600	6
0.63967	2
0.64333	-1
0.64700	-2
0.65067	-2
0.65433	0
0.65800	6
0.66167	12
0.66533	17
0.66900	21
0.67267	25
0.67633	29
0.68000	30
0.68367	26
0.68733	24
0.69100	24
0.69467	22
0.69833	18
0.70200	15
0.70567	15
0.70933	12
0.71300	5
0.71667	-5
0.72033	-13
0.72400	-15
0.72767	-9
0.73133	-2
0.73500	-3
0.73867	-7
0.74233	-5
0.74600	1
0.74967	4
0.75333	2
0.75700	-1
0.76067	-2
0.76433	-2
0.76800	-6
0.77167	-14
0.77533	-22
0.77900	-31
0.78267	-36
0.78633	-33
0.79000	-23
0.79367	-6
0.79733	13
0.80100	25
0.80467	26
0.80833	16
0.81200	0
0.81567	-14
0.81933	-19
0.82300	-20
0.82667	-22
0.83033	-25
0.83400	-27
0.83767	-26
0.84133	-27
0.84500	-30
0.84867	-31
0.85233	-33
0.85600	-29
0.85967	-22
0.86333	-19
0.86700	-16
0.87067	-12
0.87433	-5
0.87800	1
0.88167	6
0.88533	9
0.88900	6
0.89267	1
0.89633	-6
0.90000	-17
0.90367	-30
0.90733	-41
0.91100	-41
0.91467	-38
0.91833	-33
0.92200	-25
0.92567	-18
0.92933	-11
0.93300	-9
0.93667	-9
0.94033	-8
0.94400	-8
0.94767	-5
0.95133	-6
0.95500	-13
0.95867	-22
0.96233	-28
0.96600	-31
0.96967	-33
0.97333	-33
0.97700	-31
0.98067	-30
0.98433	-32
0.98800	-32
0.99167	-27
0.99533	-17
0.99900	-13
1.00267	-16
1.00633	-21
1.01000	-25
1.01367	-27
1.01733	-26
1.02100	-26
1.02467	-26
1.02833	-23
1.03200	-20
1.03567	-20
1.03933	-19
1.04300	-19
1.04667	-18
1.05033	-16
1.05400	-11
1.05767	-13
1.06133	-19
1.06500	-23
1.06867	-26
1.07233	-28
1.07600	-31
1.07967	-30
1.08333	-28
1.08700	-25
1.09067	-21
1.09433	-12
1.09800	-5
1.10167	-3
1.10533	-9
1.10900	-19
1.11267	-33
1.11633	-44
1.12000	-52
1.12367	-56
1.12733	-55
1.13100	-51
1.13467	-48
1.13833	-46
1.14200	-44
1.14567	-37
1.14933	-30
1.15300	-29
1.15667	-34
1.16033	-43
1.16400	-52
1.16767	-61
1.17133	-65
1.17500	-67
1.17867	-65
1.18233	-60
1.18600	-54
1.18967	-55
1.19333	-60
1.19700	-62
1.20067	-59
1.20433	-49
1.20800	-37
1.21167	-27
1.21533	-22
1.21900	-23
1.22267	-22
1.22633	-22
1.23000	-24
1.23367	-28
1.23733	-33
1.24100	-34
1.24467	-37
1.24833	-42
1.25200	-44
1.25567	-44
1.25933	-44
1.26300	-43
1.26667	-41
1.27033	-43
1.27400	-47
1.27767	-47
1.28133	-44
1.28500	-42
1.28867	-46
1.29233	-47
1.29600	-46
1.29967	-44
1.30333	-39
1.30700	-33
1.31067	-30
1.31433	-33
1.31800	-36
1.32167	-39
1.32533	-41
1.32900	-40
1.33267	-38
1.33633	-36
1.34000	-38
1.34367	-37
1.34733	-29
1.35100	-22
1.35467	-19
1.35833	-24
1.36200	-30
1.36567	-35
1.36933	-35
1.37300	-32
1.37667	-33
1.38033	-38
1.38400	-44
1.38767	-49
1.39133	-51
1.39500	-53
1.39867	-60
1.40233	-67
1.40600	-73
1.40967	-71
1.41333	-66
1.41700	-58
1.42067	-45
1.42433	-36
1.42800	-33
1.43167	-34
1.43533	-36
1.43900	-14
1.44267	93
1.44633	369
1.45000	1107
1.45367	2763
1.45733	5335
1.46100	8268
1.46467	10967
1.46833	13093
1.47200	14465
1.47567	14932
1.47933	14384
1.48300	12898
1.48667	10796
1.49033	8516
1.49400	6419
1.49767	4690
1.50133	3364
1.50500	2395
1.50867	1707
1.51233	1225
1.51600	889
1.51967	659
1.52333	504
1.52700	397
1.53067	323
1.53433	272
1.53800	254
1.54167	309
1.54533	497
1.54900	830
1.55267	1239
1.55633	1631
1.56000	1949
1.56367	2165
1.56733	2250
1.57100	2175
1.57467	1943
1.57833	1607
1.58200	1242
1.58567	909
1.58933	637
1.59300	437
1.59667	298
1.60033	201
1.60400	138
1.60767	98
1.61133	66
1.61500	39
1.61867	17
1.62233	4
1.62600	-1
1.62967	-7
1.63333	-13
1.63700	-18
1.64067	-22
1.64433	-27
1.64800	-28
1.65167	-26
1.65533	-22
1.65900	-19
1.66267	-17
1.66633	-14
1.67000	-14
1.67367	-20
1.67733	-28
1.68100	-33
1.68467	-38
1.68833	-42
1.69200	-47
1.69567	-51
1.69933	-50
1.70300	-48
1.70667	-45
1.71033	-39
1.71400	-35
1.71767	-35
1.72133	-42
1.72500	-51
1.72867	-55
1.73233	-55
1.73600	-52
1.73967	-45
1.74333	-38
1.74700	-33
1.75067	-33
1.75433	-38
1.75800	-45
1.76167	-51
1.76533	-59
1.76900	-68
1.77267	-72
1.77633	-66
1.78000	-49
1.78367	-31
1.78733	-22
1.79100	-26
1.79467	-38
1.79833	-46
1.80200	-49
1.80567	-55
1.80933	-64
1.81300	-69
1.81667	-73
1.82033	-72
1.82400	-66
1.82767	-55
1.83133	-46
1.83500	-41
1.83867	-40
1.84233	-40
1.84600	-42
1.84967	-49
1.85333	-56
1.85700	-60
1.86067	-59
1.86433	-58
1.86800	-59
1.87167	-64
1.87533	-64
1.87900	-56
1.88267	-47
1.88633	-43
1.89000	-46
1.89367	-54
1.89733	-58
1.90100	-54
1.90467	-51
1.90833	-46
1.91200	-40
1.91567	-30
1.91933	-23
1.92300	-27
1.92667	-38
1.93033	-45
1.93400	-49
1.93767	-53
1.94133	-59
1.94500	-64
1.94867	-58
1.95233	-4
1.95600	331
1.95967	2167
1.96333	10002
1.96700	35389
1.97067	98556
1.97433	220018
1.97800	402722
1.98167	623024
1.98533	841017
1.98900	1018296
1.99267	1127985
1.99633	1156177
2.00000	1102969
2.00367	983195
2.00733	822915
2.01100	651226
2.01467	491775
2.01833	358222
2.02200	254557
2.02567	178386
2.02933	124514
2.03300	87365
2.03667	62130
2.04033	45104
2.04400	33610
2.04767	25790
2.05133	20401
2.05500	16618
2.05867	13906
2.06233	11910
2.06600	10399
2.06967	9226
2.07333	8298
2.07700	7549
2.08067	6928
2.08433	6400
2.08800	5947
2.09167	5552
2.09533	5205
2.09900	4902
2.10267	4636
2.10633	4395
2.11000	4177
2.11367	3981
2.11733	3803
2.12100	3640
2.12467	3483
2.12833	3333
2.13200	3198
2.13567	3075
2.13933	2960
2.14300	2855
2.14667	2755
2.15033	2657
2.15400	2557
2.15767	2460
2.16133	2377
2.16500	2308
2.16867	2245
2.17233	2184
2.17600	2124
2.17967	2067
2.18333	2013
2.18700	1957
2.19067	1901
2.19433	1844
2.19800	1785
2.20167	1729
2.20533	1678
2.20900	1633
2.21267	1594
2.21633	1558
2.22000	1524
2.22367	1491
2.22733	1460
2.23100	1429
2.23467	1399
2.23833	1367
2.24200	1336
2.24567	1311
2.24933	1292
2.25300	1269
2.25667	1238
2.26033	1208
2.26400	1190
2.26767	1176
2.27133	1159
2.27500	1141
2.27867	1119
2.28233	1098
2.28600	1081
2.28967	1062
2.29333	1042
2.29700	1026
2.30067	1013
2.30433	997
2.30800	978
2.31167	961
2.31533	945
2.31900	929
2.32267	913
2.32633	897
2.33000	885
2.33367	877
2.33733	868
2.34100	857
2.34467	841
2.34833	824
2.35200	813
2.35567	806
2.35933	802
2.36300	799
2.36667	794
2.37033	785
2.37400	773
2.37767	763
2.38133	756
2.38500	748
2.38867	740
2.39233	734
2.39600	726
2.39967	718
2.40333	714
2.40700	710
2.41067	705
2.41433	700
2.41800	690
2.42167	677
2.42533	664
2.42900	655
2.43267	648
2.43633	640
2.44000	636
2.44367	633
2.44733	633
2.45100	635
2.45467	635
2.45833	627
2.46200	611
2.46567	595
2.46933	581
2.47300	568
2.47667	562
2.48033	563
2.48400	564
2.48767	567
2.49133	569
2.49500	567
2.49867	562
2.50233	557
2.50600	556
2.50967	555
2.51333	548
2.51700	537
2.52067	528
2.52433	526
2.52800	523
2.53167	519
2.53533	513
2.53900	505
2.54267	496
2.54633	489
2.55000	485
2.55367	482
2.55733	480
2.56100	479
2.56467	479
2.56833	479
2.57200	482
2.57567	488
2.57933	492
2.58300	485
2.58667	471
2.59033	459
2.59400	451
2.59767	447
2.60133	451
2.60500	454
2.60867	449
2.61233	438
2.61600	426
2.61967	419
2.62333	418
2.62700	422
2.63067	428
2.63433	434
2.63800	440
2.64167	446
2.64533	446
2.64900	440
2.65267	430
2.65633	421
2.66000	413
2.66367	406
2.66733	401
2.67100	398
2.67467	400
2.67833	399
2.68200	402
2.68567	411
2.68933	426
2.69300	439
2.69667	443
2.70033	435
2.70400	422
2.70767	407
2.71133	391
2.71500	379
2.71867	369
2.72233	360
2.72600	358
2.72967	365
2.73333	368
2.73700	367
2.74067	368
2.74433	370
2.74800	371
2.75167	372
2.75533	374
2.75900	378
2.76267	382
2.76633	387
2.77000	391
2.77367	393
2.77733	395
2.78100	401
2.78467	409
2.78833	413
2.79200	407
2.79567	394
2.79933	382
2.80300	377
2.80667	374
2.81033	368
2.81400	360
2.81767	352
2.82133	344
2.82500	337
2.82867	335
2.83233	338
2.83600	339
2.83967	341
2.84333	344
2.84700	346
2.85067	346
2.85433	349
2.85800	353
2.86167	354
2.86533	355
2.86900	355
2.87267	357
2.87633	359
2.88000	359
2.88367	361
2.88733	367
2.89100	369
2.89467	359
2.89833	346
2.90200	339
2.90567	335
2.90933	336
2.91300	338
2.91667	340
2.92033	341
2.92400	343
2.92767	343
2.93133	343
2.93500	342
2.93867	337
2.94233	334
2.94600	335
2.94967	338
2.95333	341
2.95700	350
2.96067	364
2.96433	373
2.96800	371
2.97167	361
2.97533	349
2.97900	338
2.98267	329
2.98633	325
2.99000	326
2.99367	330
2.99733	337
3.00100	344
3.00467	346
3.00833	342
3.01200	334
3.01567	324
3.01933	315
3.02300	309
3.02667	309
3.03033	314
3.03400	315
3.03767	312
3.04133	307
3.04500	307
3.04867	308
3.05233	306
3.05600	304
3.05967	302
3.06333	300
3.06700	298
3.07067	298
3.07433	295
3.07800	291
3.08167	282
3.08533	280
3.08900	284
3.09267	288
3.09633	290
3.10000	292
3.10367	299
3.10733	305
3.11100	305
3.11467	304
3.11833	303
3.12200	303
3.12567	301
3.12933	298
3.13300	297
3.13667	295
3.14033	293
3.14400	294
3.14767	297
3.15133	298
3.15500	295
3.15867	291
3.16233	287
3.16600	283
3.16967	279
3.17333	278
3.17700	281
3.18067	287
3.18433	287
3.18800	281
3.19167	270
3.19533	259
3.19900	249
3.20267	241
3.20633	241
3.21000	247
3.21367	253
3.21733	257
3.22100	261
3.22467	266
3.22833	268
3.23200	268
3.23567	271
3.23933	276
3.24300	279
3.24667	279
3.25033	284
3.25400	289
3.25767	286
3.26133	279
3.26500	271
3.26867	268
3.27233	269
3.27600	267
3.27967	262
3.28333	259
3.28700	260
3.29067	267
3.29433	281
3.29800	293
3.30167	296
3.30533	286
3.30900	266
3.31267	246
3.31633	234
3.32000	229
3.32367	233
3.32733	242
3.33100	247
3.33467	249
3.33833	249
3.34200	247
3.34567	246
3.34933	243
3.35300	237
3.35667	231
3.36033	226
3.36400	224
3.36767	225
3.37133	227
3.37500	228
3.37867	231
3.38233	238
3.38600	250
3.38967	263
3.39333	271
3.39700	271
3.40067	264
3.40433	252
3.40800	239
3.41167	227
3.41533	217
3.41900	209
3.42267	206
3.42633	205
3.43000	207
3.43367	213
3.43733	224
3.44100	230
3.44467	230
3.44833	227
3.45200	224
3.45567	221
3.45933	218
3.46300	217
3.46667	220
3.47033	220
3.47400	212
3.47767	202
3.48133	197
3.48500	199
3.48867	210
3.49233	220
3.49600	224
3.49967	219
3.50333	209
3.50700	202
3.51067	201
3.51433	201
3.51800	205
3.52167	210
3.52533	213
3.52900	219
3.53267	226
3.53633	226
3.54000	217
3.54367	208
3.54733	203
3.55100	199
3.55467	199
3.55833	203
3.56200	208
3.56567	212
3.56933	217
3.57300	219
3.57667	217
3.58033	215
3.58400	212
3.58767	208
3.59133	202
3.59500	197
3.59867	199
3.60233	205
3.60600	208
3.60967	211
3.61333	216
3.61700	223
3.62067	227
3.62433	228
3.62800	221
3.63167	205
3.63533	187
3.63900	174
3.64267	167
3.64633	161
3.65000	159
3.65367	157
3.65733	156
3.66100	156
3.66467	158
3.66833	164
3.67200	170
3.67567	175
3.67933	181
3.68300	179
3.68667	173
3.69033	167
3.69400	165
3.69767	166
3.70133	168
3.70500	169
3.70867	172
3.71233	174
3.71600	175
3.71967	178
3.72333	182
3.72700	189
3.73067	196
3.73433	200
3.73800	199
3.74167	194
3.74533	187
3.74900	179
3.75267	175
3.75633	172
3.76000	169
3.76367	166
3.76733	160
3.77100	155
3.77467	152
3.77833	153
3.78200	160
3.78567	167
3.78933	170
3.79300	170
3.79667	165
3.80033	160
3.80400	156
3.80767	153
3.81133	156
3.81500	162
3.81867	167
3.82233	168
3.82600	164
3.82967	157
3.83333	155
3.83700	158
3.84067	162
3.84433	167
3.84800	167
3.85167	169
3.85533	171
3.85900	166
3.86267	158
3.86633	154
3.87000	158
3.87367	167
3.87733	176
3.88100	179
3.88467	176
3.88833	168
3.89200	161
3.89567	156
3.89933	150
3.90300	144
3.90667	139
3.91033	139
3.91400	141
3.91767	144
3.92133	146
3.92500	142
3.92867	134
3.93233	125
3.93600	120
3.93967	123
3.94333	131
3.94700	140
3.95067	151
3.95433	155
3.95800	152
3.96167	145
3.96533	142
3.96900	141
3.97267	142
3.97633	144
3.98000	146
3.98367	144
3.98733	141
3.99100	143
3.99467	158
3.99833	177

[Chromatogram (Ch2)]
Interval(msec)	220
# of Points	1091
Start Time(min)	0.002
End Time(min)	3.998
R.Time (min)	Intensity
0.00167	-1
0.00533	-1
0.00900	-1
0.01267	-1
0.01633	-1
0.02000	-1
0.02367	-1
0.02733	-1
0.03100	-1
0.03467	-1
0.03833	-1
0.04200	-1
0.04567	-1
0.04933	-1
0.05300	-1
0.05667	-2
0.06033	-2
0.06400	-2
0.06767	-2
0.07133	-2
0.07500	-2
0.07867	-2
0.08233	-2
0.08600	-2
0.08967	-1
0.09333	-2
0.09700	-2
0.10067	-2
0.10433	-2
0.10800	-2
0.11167	-3
0.11533	-3
0.11900	-3
0.12267	-3
0.12633	-3
0.13000	-3
0.13367	-3
0.13733	-3
0.14100	-3
0.14467	-3
0.14833	-3
0.15200	-2
0.15567	-2
0.15933	-2
0.16300	-2
0.16667	-2
0.17033	-2
0.17400	-2
0.17767	-1
0.18133	-1
0.18500	-1
0.18867	-2
0.19233	-2
0.19600	-2
0.19967	-2
0.20333	-2
0.20700	-2
0.21067	-2
0.21433	-3
0.21800	-3
0.22167	-3
0.22533	-3
0.22900	-4
0.23267	-4
0.23633	-5
0.24000	-5
0.24367	-5
0.24733	-5
0.25100	-5
0.25467	-5
0.25833	-4
0.26200	-4
0.26567	-4
0.26933	-4
0.27300	-4
0.27667	-4
0.28033	-4
0.28400	-3
0.28767	-3
0.29133	-3
0.29500	-2
0.29867	-2
0.30233	-2
0.30600	-2
0.30967	-2
0.31333	-2
0.31700	-2
0.32067	-2
0.32433	-2
0.32800	-2
0.33167	-3
0.33533	-3
0.33900	-3
0.34267	-3
0.34633	-4
0.35000	-4
0.35367	-4
0.35733	-4
0.36100	-4
0.36467	-4
0.36833	-4
0.37200	-4
0.37567	-4
0.37933	-4
0.38300	-4
0.38667	-4
0.39033	-4
0.39400	-4
0.39767	-4
0.40133	-4
0.40500	-3
0.40867	-3
0.41233	-3
0.41600	-3
0.41967	-3
0.42333	-3
0.42700	-3
0.43067	-3
0.43433	-3
0.43800	-3
0.44167	-3
0.44533	-3
0.44900	-3
0.45267	-3
0.45633	-3
0.46000	-3
0.46367	-3
0.46733	-3
0.47100	-3
0.47467	-3
0.47833	-3
0.48200	-3
0.48567	-3
0.48933	-3
0.49300	-2
0.49667	-2
0.50033	-2
0.50400	-2
0.50767	-2
0.51133	-2
0.51500	-2
0.51867	-3
0.52233	-3
0.52600	-3
0.52967	-3
0.53333	-3
0.53700	-3
0.54067	-3
0.54433	-3
0.54800	-2
0.55167	-2
0.55533	-2
0.55900	-2
0.56267	-2
0.56633	-2
0.57000	-2
0.57367	-2
0.57733	-2
0.58100	-2
0.58467	-2
0.58833	-2
0.59200	-2
0.59567	-2
0.59933	-2
0.60300	-2
0.60667	-2
0.61033	-2
0.61400	-1
0.61767	-1
0.62133	-1
0.62500	-1
0.62867	-2
0.63233	-2
0.63600	-2
0.63967	-2
0.64333	-2
0.64700	-2
0.65067	-3
0.65433	-3
0.65800	-3
0.66167	-3
0.66533	-3
0.66900	-3
0.67267	-4
0.67633	-4
0.68000	-4
0.68367	-4
0.68733	-4
0.69100	-4
0.69467	-4
0.69833	-4
0.70200	-4
0.70567	-4
0.70933	-4
0.71300	-4
0.71667	-4
0.72033	-4
0.72400	-4
0.72767	-4
0.73133	-4
0.73500	-4
0.73867	-4
0.74233	-4
0.74600	-4
0.74967	-4
0.75333	-4
0.75700	-4
0.76067	-4
0.76433	-4
0.76800	-4
0.77167	-5
0.77533	-5
0.77900	-5
0.78267	-6
0.78633	-6
0.79000	-7
0.79367	-7
0.79733	-7
0.80100	-7
0.80467	-7
0.80833	-7
0.81200	-7
0.81567	-7
0.81933	-6
0.82300	-6
0.82667	-5
0.83033	-4
0.83400	-4
0.83767	-3
0.84133	-2
0.84500	-2
0.84867	-2
0.85233	-2
0.85600	-2
0.85967	-2
0.86333	-2
0.86700	-3
0.87067	-3
0.87433	-3
0.87800	-3
0.88167	-4
0.88533	-4
0.88900	-5
0.89267	-5
0.89633	-5
0.90000	-5
0.90367	-5
0.90733	-5
0.91100	-5
0.91467	-5
0.91833	-5
0.92200	-5
0.92567	-5
0.92933	-5
0.93300	-6
0.93667	-5
0.94033	-5
0.94400	-5
0.94767	-5
0.95133	-5
0.95500	-5
0.95867	-5
0.96233	-6
0.96600	-6
0.96967	-6
0.97333	-6
0.97700	-6
0.98067	-5
0.98433	-5
0.98800	-5
0.99167	-5
0.99533	-5
0.99900	-5
1.00267	-5
1.00633	-5
1.01000	-5
1.01367	-5
1.01733	-5
1.02100	-5
1.02467	-5
1.02833	-5
1.03200	-5
1.03567	-5
1.03933	-5
1.04300	-5
1.04667	-5
1.05033	-5
1.05400	-5
1.05767	-5
1.06133	-5
1.06500	-5
1.06867	-5
1.07233	-5
1.07600	-5
1.07967	-5
1.08333	-5
1.08700	-5
1.09067	-5
1.09433	-5
1.09800	-5
1.10167	-5
1.10533	-5
1.10900	-4
1.11267	-4
1.11633	-4
1.12000	-3
1.12367	-3
1.12733	-2
1.13100	-2
1.13467	-2
1.13833	-2
1.14200	-2
1.14567	-3
1.14933	-3
1.15300	-4
1.15667	-4
1.16033	-4
1.16400	-5
1.16767	-5
1.17133	-5
1.17500	-5
1.17867	-4
1.18233	-4
1.18600	-4
1.18967	-3
1.19333	-3
1.19700	-2
1.20067	-2
1.20433	-2
1.20800	-2
1.21167	-2
1.21533	-2
1.21900	-3
1.22267	-3
1.22633	-4
1.23000	-4
1.23367	-4
1.23733	-5
1.24100	-5
1.24467	-5
1.24833	-6
1.25200	-6
1.25567	-6
1.25933	-6
1.26300	-6
1.26667	-6
1.27033	-6
1.27400	-6
1.27767	-6
1.28133	-6
1.28500	-6
1.28867	-6
1.29233	-6
1.29600	-6
1.29967	-6
1.30333	-6
1.30700	-6
1.31067	-5
1.31433	-5
1.31800	-4
1.32167	-4
1.32533	-4
1.32900	-4
1.33267	-4
1.33633	-5
1.34000	-5
1.34367	-5
1.34733	-6
1.35100	-6
1.35467	-6
1.35833	-7
1.36200	-7
1.36567	-7
1.36933	-7
1.37300	-7
1.37667	-6
1.38033	-6
1.38400	-6
1.38767	-6
1.39133	-6
1.39500	-5
1.39867	-5
1.40233	-5
1.40600	-4
1.40967	-4
1.41333	-4
1.41700	-4
1.42067	-4
1.42433	-4
1.42800	-4
1.43167	-4
1.43533	-4
1.43900	-4
1.44267	-4
1.44633	-4
1.45000	-4
1.45367	-5
1.45733	-5
1.46100	-5
1.46467	-5
1.46833	-5
1.47200	-5
1.47567	-5
1.47933	-5
1.48300	-6
1.48667	-6
1.49033	-6
1.49400	-6
1.49767	-6
1.50133	-6
1.50500	-6
1.50867	-6
1.51233	-6
1.51600	-6
1.51967	-6
1.52333	-6
1.52700	-6
1.53067	-6
1.53433	-6
1.53800	-6
1.54167	-6
1.54533	-6
1.54900	-6
1.55267	-6
1.55633	-6
1.56000	-6
1.56367	-6
1.56733	-7
1.57100	-7
1.57467	-6
1.57833	-6
1.58200	-6
1.58567	-6
1.58933	-6
1.59300	-7
1.59667	-8
1.60033	-8
1.60400	-9
1.60767	-11
1.61133	-12
1.61500	-14
1.61867	-16
1.62233	-19
1.62600	-22
1.62967	-25
1.63333	-28
1.63700	-31
1.64067	-34
1.64433	-38
1.64800	-41
1.65167	-44
1.65533	-47
1.65900	-50
1.66267	-54
1.66633	-57
1.67000	-61
1.67367	-65
1.67733	-69
1.68100	-74
1.68467	-79
1.68833	-83
1.69200	-88
1.69567	-92
1.69933	-96
1.70300	-99
1.70667	-101
1.71033	-104
1.71400	-105
1.71767	-107
1.72133	-108
1.72500	-109
1.72867	-110
1.73233	-110
1.73600	-111
1.73967	-111
1.74333	-111
1.74700	-110
1.75067	-110
1.75433	-110
1.75800	-110
1.76167	-109
1.76533	-109
1.76900	-110
1.77267	-110
1.77633	-111
1.78000	-112
1.78367	-112
1.78733	-113
1.79100	-114
1.79467	-115
1.79833	-115
1.80200	-115
1.80567	-116
1.80933	-116
1.81300	-115
1.81667	-115
1.82033	-115
1.82400	-115
1.82767	-115
1.83133	-115
1.83500	-116
1.83867	-116
1.84233	-116
1.84600	-116
1.84967	-116
1.85333	-116
1.85700	-115
1.86067	-115
1.86433	-115
1.86800	-115
1.87167	-115
1.87533	-115
1.87900	-115
1.88267	-115
1.88633	-115
1.89000	-115
1.89367	-115
1.89733	-115
1.90100	-115
1.90467	-114
1.90833	-114
1.91200	-114
1.91567	-114
1.91933	-115
1.92300	-115
1.92667	-115
1.93033	-115
1.93400	-115
1.93767	-115
1.94133	-115
1.94500	-115
1.94867	-114
1.95233	-114
1.95600	-113
1.95967	-113
1.96333	-112
1.96700	-112
1.97067	-112
1.97433	-111
1.97800	-111
1.98167	-110
1.98533	-110
1.98900	-110
1.99267	-110
1.99633	-111
2.00000	-111
2.00367	-111
2.00733	-111
2.01100	-110
2.01467	-110
2.01833	-109
2.02200	-108
2.02567	-107
2.02933	-107
2.03300	-107
2.03667	-107
2.04033	-107
2.04400	-107
2.04767	-107
2.05133	-106
2.05500	-106
2.05867	-106
2.06233	-106
2.06600	-106
2.06967	-106
2.07333	-106
2.07700	-105
2.08067	-105
2.08433	-104
2.08800	-103
2.09167	-102
2.09533	-102
2.09900	-101
2.10267	-101
2.10633	-100
2.11000	-100
2.11367	-100
2.11733	-100
2.12100	-100
2.12467	-100
2.12833	-100
2.13200	-100
2.13567	-100
2.13933	-100
2.14300	-100
2.14667	-100
2.15033	-99
2.15400	-99
2.15767	-99
2.16133	-98
2.16500	-98
2.16867	-98
2.17233	-97
2.17600	-96
2.17967	-96
2.18333	-96
2.18700	-96
2.19067	-96
2.19433	-95
2.19800	-95
2.20167	-94
2.20533	-93
2.20900	-93
2.21267	-92
2.21633	-92
2.22000	-92
2.22367	-92
2.22733	-92
2.23100	-91
2.23467	-91
2.23833	-91
2.24200	-91
2.24567	-91
2.24933	-91
2.25300	-91
2.25667	-91
2.26033	-91
2.26400	-90
2.26767	-90
2.27133	-90
2.27500	-89
2.27867	-89
2.28233	-88
2.28600	-87
2.28967	-87
2.29333	-87
2.29700	-86
2.30067	-86
2.30433	-86
2.30800	-85
2.31167	-85
2.31533	-85
2.31900	-84
2.32267	-84
2.32633	-84
2.33000	-83
2.33367	-83
2.33733	-82
2.34100	-82
2.34467	-81
2.34833	-80
2.35200	-80
2.35567	-79
2.35933	-78
2.36300	-77
2.36667	-76
2.37033	-75
2.37400	-73
2.37767	-71
2.38133	-68
2.38500	-64
2.38867	-61
2.39233	-57
2.39600	-52
2.39967	-48
2.40333	-43
2.40700	-38
2.41067	-34
2.41433	-30
2.41800	-26
2.42167	-23
2.42533	-20
2.42900	-18
2.43267	-16
2.43633	-15
2.44000	-14
2.44367	-12
2.44733	-11
2.45100	-9
2.45467	-8
2.45833	-7
2.46200	-6
2.46567	-5
2.46933	-5
2.47300	-4
2.47667	-3
2.48033	-2
2.48400	-0
2.48767	1
2.49133	3
2.49500	5
2.49867	6
2.50233	7
2.50600	8
2.50967	8
2.51333	9
2.51700	10
2.52067	10
2.52433	10
2.52800	11
2.53167	11
2.53533	12
2.53900	12
2.54267	12
2.54633	13
2.55000	13
2.55367	13
2.55733	13
2.56100	13
2.56467	13
2.56833	13
2.57200	13
2.57567	13
2.57933	13
2.58300	13
2.58667	13
2.59033	13
2.59400	13
2.59767	12
2.60133	12
2.60500	12
2.60867	13
2.61233	13
2.61600	14
2.61967	14
2.62333	15
2.62700	15
2.63067	16
2.63433	16
2.63800	16
2.64167	16
2.64533	16
2.64900	16
2.65267	17
2.65633	17
2.66000	17
2.66367	18
2.66733	18
2.67100	18
2.67467	18
2.67833	19
2.68200	19
2.68567	19
2.68933	20
2.69300	20
2.69667	20
2.70033	21
2.70400	21
2.70767	21
2.71133	22
2.71500	22
2.71867	22
2.72233	22
2.72600	21
2.72967	21
2.73333	20
2.73700	20
2.74067	19
2.74433	19
2.74800	19
2.75167	19
2.75533	20
2.75900	20
2.76267	21
2.76633	21
2.77000	22
2.77367	22
2.77733	22
2.78100	23
2.78467	23
2.78833	24
2.79200	24
2.79567	24
2.79933	24
2.80300	24
2.80667	24
2.81033	24
2.81400	24
2.81767	23
2.82133	23
2.82500	23
2.82867	23
2.83233	23
2.83600	23
2.83967	22
2.84333	20
2.84700	17
2.85067	11
2.85433	3
2.85800	-9
2.86167	-24
2.86533	-43
2.86900	-66
2.87267	-94
2.87633	-126
2.88000	-162
2.88367	-203
2.88733	-246
2.89100	-293
2.89467	-342
2.89833	-394
2.90200	-447
2.90567	-501
2.90933	-556
2.91300	-611
2.91667	-666
2.92033	-720
2.92400	-773
2.92767	-824
2.93133	-876
2.93500	-931
2.93867	-989
2.94233	-1045
2.94600	-1086
2.94967	-1104
2.95333	-1097
2.95700	-1065
2.96067	-1013
2.96433	-946
2.96800	-870
2.97167	-790
2.97533	-709
2.97900	-631
2.98267	-557
2.98633	-488
2.99000	-426
2.99367	-369
2.99733	-319
3.00100	-274
3.00467	-235
3.00833	-200
3.01200	-170
3.01567	-145
3.01933	-122
3.02300	-103
3.02667	-87
3.03033	-72
3.03400	-60
3.03767	-50
3.04133	-41
3.04500	-34
3.04867	-27
3.05233	-22
3.05600	-17
3.05967	-13
3.06333	-10
3.06700	-7
3.07067	-4
3.07433	-2
3.07800	-1
3.08167	1
3.08533	2
3.08900	4
3.09267	5
3.09633	5
3.10000	6
3.10367	7
3.10733	8
3.11100	9
3.11467	10
3.11833	11
3.12200	11
3.12567	12
3.12933	12
3.13300	13
3.13667	13
3.14033	14
3.14400	14
3.14767	15
3.15133	15
3.15500	15
3.15867	16
3.16233	16
3.16600	16
3.16967	16
3.17333	16
3.17700	16
3.18067	16
3.18433	16
3.18800	16
3.19167	16
3.19533	16
3.19900	16
3.20267	16
3.20633	16
3.21000	17
3.21367	17
3.21733	18
3.22100	18
3.22467	18
3.22833	18
3.23200	19
3.23567	19
3.23933	19
3.24300	19
3.24667	20
3.25033	20
3.25400	20
3.25767	20
3.26133	20
3.26500	20
3.26867	20
3.27233	19
3.27600	19
3.27967	19
3.28333	19
3.28700	19
3.29067	19
3.29433	19
3.29800	20
3.30167	20
3.30533	20
3.30900	21
3.31267	21
3.31633	21
3.32000	21
3.32367	21
3.32733	21
3.33100	22
3.33467	22
3.33833	22
3.34200	22
3.34567	22
3.34933	22
3.35300	22
3.35667	22
3.36033	22
3.36400	22
3.36767	22
3.37133	22
3.37500	22
3.37867	22
3.38233	22
3.38600	22
3.38967	22
3.39333	22
3.39700	22
3.40067	22
3.40433	22
3.40800	22
3.41167	22
3.41533	22
3.41900	23
3.42267	23
3.42633	23
3.43000	23
3.43367	23
3.43733	23
3.44100	23
3.44467	23
3.44833	23
3.45200	23
3.45567	23
3.45933	23
3.46300	23
3.46667	23
3.47033	23
3.47400	23
3.47767	23
3.48133	23
3.48500	23
3.48867	23
3.49233	23
3.49600	24
3.49967	24
3.50333	24
3.50700	24
3.51067	24
3.51433	24
3.51800	24
3.52167	24
3.52533	24
3.52900	24
3.53267	24
3.53633	24
3.54000	24
3.54367	24
3.54733	24
3.55100	24
3.55467	24
3.55833	25
3.56200	25
3.56567	25
3.56933	25
3.57300	24
3.57667	24
3.58033	24
3.58400	23
3.58767	23
3.59133	23
3.59500	22
3.59867	22
3.60233	22
3.60600	22
3.60967	22
3.61333	22
3.61700	22
3.62067	22
3.62433	22
3.62800	22
3.63167	22
3.63533	22
3.63900	22
3.64267	22
3.64633	22
3.65000	22
3.65367	22
3.65733	22
3.66100	23
3.66467	23
3.66833	23
3.67200	23
3.67567	23
3.67933	23
3.68300	23
3.68667	23
3.69033	23
3.69400	23
3.69767	24
3.70133	24
3.70500	24
3.70867	24
3.71233	25
3.71600	25
3.71967	25
3.72333	24
3.72700	24
3.73067	24
3.73433	24
3.73800	23
3.74167	23
3.74533	23
3.74900	23
3.75267	23
3.75633	22
3.76000	22
3.76367	21
3.76733	21
3.77100	21
3.77467	21
3.77833	21
3.78200	21
3.78567	22
3.78933	22
3.79300	22
3.79667	23
3.80033	23
3.80400	23
3.80767	23
3.81133	23
3.81500	24
3.81867	24
3.82233	24
3.82600	24
3.82967	24
3.83333	24
3.83700	24
3.84067	23
3.84433	23
3.84800	23
3.85167	23
3.85533	23
3.85900	23
3.86267	23
3.86633	23
3.87000	23
3.87367	23
3.87733	23
3.88100	23
3.88467	23
3.88833	23
3.89200	23
3.89567	23
3.89933	23
3.90300	23
3.90667	23
3.91033	23
3.91400	23
3.91767	23
3.92133	23
3.92500	23
3.92867	23
3.93233	23
3.93600	23
3.93967	23
3.94333	23
3.94700	23
3.95067	23
3.95433	22
3.95800	23
3.96167	23
3.96533	23
3.96900	23
3.97267	23
3.97633	22
3.98000	22
3.98367	22
3.98733	22
3.99100	22
3.99467	22
3.99833	22

[Chromatogram (Ch3)]
Interval(msec)	220
# of Points	1091
Start Time(min)	0.002
End Time(min)	3.998
R.Time (min)	Intensity
0.00167	1
0.00533	-1
0.00900	-5
0.01267	-8
0.01633	-9
0.02000	-8
0.02367	-6
0.02733	-5
0.03100	-5
0.03467	-4
0.03833	-4
0.04200	-3
0.04567	-3
0.04933	-4
0.05300	-3
0.05667	-2
0.06033	-1
0.06400	0
0.06767	1
0.07133	2
0.07500	1
0.07867	1
0.08233	-0
0.08600	-1
0.08967	-3
0.09333	-2
0.09700	-1
0.10067	-1
0.10433	-2
0.10800	-2
0.11167	-1
0.11533	-1
0.11900	-2
0.12267	-2
0.12633	-1
0.13000	-1
0.13367	-1
0.13733	-3
0.14100	-3
0.14467	-0
0.14833	1
0.15200	-1
0.15567	-2
0.15933	-3
0.16300	-3
0.16667	-3
0.17033	-5
0.17400	-6
0.17767	-7
0.18133	-7
0.18500	-6
0.18867	-6
0.19233	-7
0.19600	-5
0.19967	-3
0.20333	-2
0.20700	-1
0.21067	1
0.21433	-0
0.21800	-2
0.22167	-5
0.22533	-5
0.22900	-5
0.23267	-4
0.23633	-3
0.24000	-4
0.24367	-4
0.24733	-3
0.25100	-3
0.25467	-3
0.25833	-4
0.26200	-4
0.26567	-2
0.26933	-2
0.27300	-1
0.27667	-1
0.28033	-1
0.28400	2
0.28767	1
0.29133	-3
0.29500	-5
0.29867	-7
0.30233	-7
0.30600	-7
0.30967	-8
0.31333	-6
0.31700	-4
0.32067	-2
0.32433	-2
0.32800	-1
0.33167	1
0.33533	2
0.33900	3
0.34267	2
0.34633	-0
0.35000	-1
0.35367	-2
0.35733	-2
0.36100	-1
0.36467	-2
0.36833	-2
0.37200	-2
0.37567	-4
0.37933	-6
0.38300	-7
0.38667	-6
0.39033	-5
0.39400	-3
0.39767	-1
0.40133	-1
0.40500	-3
0.40867	-4
0.41233	-5
0.41600	-8
0.41967	-6
0.42333	-4
0.42700	-5
0.43067	-5
0.43433	-4
0.43800	-5
0.44167	-5
0.44533	-5
0.44900	-4
0.45267	-2
0.45633	-1
0.46000	0
0.46367	1
0.46733	1
0.47100	0
0.47467	-1
0.47833	-0
0.48200	-1
0.48567	-3
0.48933	-6
0.49300	-10
0.49667	-10
0.50033	-8
0.50400	-7
0.50767	-6
0.51133	-6
0.51500	-5
0.51867	-6
0.52233	-5
0.52600	-3
0.52967	0
0.53333	2
0.53700	2
0.54067	3
0.54433	4
0.54800	3
0.55167	2
0.55533	0
0.55900	0
0.56267	1
0.56633	4
0.57000	4
0.57367	3
0.57733	3
0.58100	3
0.58467	3
0.58833	2
0.59200	3
0.59567	4
0.59933	2
0.60300	-0
0.60667	-1
0.61033	-1
0.61400	-1
0.61767	-0
0.62133	-0
0.62500	-0
0.62867	0
0.63233	2
0.63600	5
0.63967	5
0.64333	3
0.64700	1
0.65067	-0
0.65433	-1
0.65800	-1
0.66167	1
0.66533	3
0.66900	4
0.67267	4
0.67633	3
0.68000	3
0.68367	3
0.68733	2
0.69100	3
0.69467	4
0.69833	5
0.70200	5
0.70567	3
0.70933	2
0.71300	4
0.71667	5
0.72033	3
0.72400	3
0.72767	4
0.73133	5
0.73500	5
0.73867	2
0.74233	0
0.74600	-1
0.74967	-1
0.75333	-2
0.75700	-2
0.76067	-2
0.76433	-3
0.76800	-4
0.77167	-4
0.77533	-3
0.77900	-5
0.78267	-7
0.78633	-9
0.79000	-9
0.79367	-8
0.79733	-7
0.80100	-6
0.80467	-7
0.80833	-8
0.81200	-7
0.81567	-5
0.81933	-6
0.82300	-7
0.82667	-6
0.83033	-7
0.83400	-6
0.83767	-3
0.84133	-2
0.84500	-4
0.84867	-3
0.85233	-2
0.85600	-1
0.85967	-3
0.86333	-5
0.86700	-7
0.87067	-8
0.87433	-8
0.87800	-9
0.88167	-7
0.88533	-5
0.88900	-4
0.89267	-3
0.89633	-4
0.90000	-3
0.90367	-4
0.90733	-3
0.91100	-3
0.91467	-3
0.91833	-3
0.92200	-4
0.92567	-4
0.92933	-3
0.93300	-4
0.93667	-4
0.94033	-6
0.94400	-6
0.94767	-3
0.95133	1
0.95500	2
0.95867	2
0.96233	0
0.96600	0
0.96967	0
0.97333	2
0.97700	3
0.98067	3
0.98433	1
0.98800	1
0.99167	2
0.99533	3
0.99900	4
1.00267	4
1.00633	5
1.01000	8
1.01367	7
1.01733	5
1.02100	3
1.02467	2
1.02833	2
1.03200	-0
1.03567	0
1.03933	1
1.04300	2
1.04667	3
1.05033	6
1.05400	9
1.05767	8
1.06133	6
1.06500	4
1.06867	5
1.07233	5
1.07600	5
1.07967	5
1.08333	4
1.08700	5
1.09067	6
1.09433	4
1.09800	2
1.10167	3
1.10533	6
1.10900	6
1.11267	5
1.11633	6
1.12000	8
1.12367	7
1.12733	6
1.13100	5
1.13467	3
1.13833	1
1.14200	2
1.14567	4
1.14933	7
1.15300	11
1.15667	13
1.16033	13
1.16400	13
1.16767	11
1.17133	10
1.17500	10
1.17867	9
1.18233	11
1.18600	15
1.18967	15
1.19333	14
1.19700	12
1.20067	12
1.20433	11
1.20800	11
1.21167	12
1.21533	13
1.21900	13
1.22267	11
1.22633	10
1.23000	10
1.23367	11
1.23733	11
1.24100	10
1.24467	11
1.24833	10
1.25200	10
1.25567	9
1.25933	6
1.26300	4
1.26667	4
1.27033	5
1.27400	5
1.27767	5
1.28133	6
1.28500	6
1.28867	6
1.29233	4
1.29600	5
1.29967	7
1.30333	7
1.30700	7
1.31067	7
1.31433	7
1.31800	7
1.32167	6
1.32533	4
1.32900	4
1.33267	6
1.33633	8
1.34000	8
1.34367	8
1.34733	9
1.35100	9
1.35467	10
1.35833	12
1.36200	13
1.36567	12
1.36933	11
1.37300	11
1.37667	12
1.38033	12
1.38400	12
1.38767	13
1.39133	14
1.39500	13
1.39867	12
1.40233	11
1.40600	10
1.40967	11
1.41333	11
1.41700	9
1.42067	8
1.42433	9
1.42800	10
1.43167	7
1.43533	3
1.43900	4
1.44267	6
1.44633	6
1.45000	7
1.45367	7
1.45733	6
1.46100	5
1.46467	5
1.46833	5
1.47200	4
1.47567	4
1.47933	4
1.48300	4
1.48667	1
1.49033	-0
1.49400	3
1.49767	3
1.50133	3
1.50500	2
1.50867	1
1.51233	0
1.51600	3
1.51967	7
1.52333	11
1.52700	11
1.53067	10
1.53433	12
1.53800	14
1.54167	12
1.54533	9
1.54900	9
1.55267	10
1.55633	10
1.56000	10
1.56367	11
1.56733	10
1.57100	8
1.57467	7
1.57833	7
1.58200	6
1.58567	6
1.58933	7
1.59300	8
1.59667	9
1.60033	9
1.60400	9
1.60767	8
1.61133	9
1.61500	10
1.61867	9
1.62233	10
1.62600	9
1.62967	11
1.63333	13
1.63700	15
1.64067	17
1.64433	17
1.64800	19
1.65167	21
1.65533	19
1.65900	19
1.66267	20
1.66633	23
1.67000	23
1.67367	22
1.67733	21
1.68100	22
1.68467	22
1.68833	22
1.69200	22
1.69567	23
1.69933	24
1.70300	24
1.70667	22
1.71033	21
1.71400	22
1.71767	25
1.72133	28
1.72500	30
1.72867	29
1.73233	27
1.73600	26
1.73967	22
1.74333	20
1.74700	20
1.75067	21
1.75433	22
1.75800	23
1.76167	22
1.76533	23
1.76900	25
1.77267	28
1.77633	29
1.78000	28
1.78367	28
1.78733	30
1.79100	29
1.79467	29
1.79833	30
1.80200	30
1.80567	31
1.80933	34
1.81300	38
1.81667	40
1.82033	41
1.82400	42
1.82767	43
1.83133	42
1.83500	42
1.83867	41
1.84233	38
1.84600	37
1.84967	38
1.85333	39
1.85700	40
1.86067	42
1.86433	44
1.86800	46
1.87167	47
1.87533	48
1.87900	49
1.88267	51
1.88633	53
1.89000	54
1.89367	54
1.89733	54
1.90100	55
1.90467	57
1.90833	58
1.91200	59
1.91567	60
1.91933	60
1.92300	58
1.92667	58
1.93033	59
1.93400	62
1.93767	64
1.94133	67
1.94500	67
1.94867	67
1.95233	66
1.95600	67
1.95967	69
1.96333	68
1.96700	68
1.97067	69
1.97433	70
1.97800	71
1.98167	73
1.98533	74
1.98900	76
1.99267	77
1.99633	79
2.00000	78
2.00367	79
2.00733	80
2.01100	80
2.01467	79
2.01833	79
2.02200	79
2.02567	79
2.02933	81
2.03300	83
2.03667	83
2.04033	83
2.04400	86
2.04767	89
2.05133	91
2.05500	90
2.05867	89
2.06233	92
2.06600	94
2.06967	95
2.07333	96
2.07700	97
2.08067	96
2.08433	97
2.08800	101
2.09167	103
2.09533	103
2.09900	104
2.10267	103
2.10633	101
2.11000	100
2.11367	101
2.11733	106
2.12100	109
2.12467	112
2.12833	113
2.13200	114
2.13567	114
2.13933	116
2.14300	118
2.14667	119
2.15033	119
2.15400	122
2.15767	125
2.16133	127
2.16500	129
2.16867	129
2.17233	132
2.17600	134
2.17967	136
2.18333	138
2.18700	139
2.19067	140
2.19433	140
2.19800	141
2.20167	143
2.20533	146
2.20900	150
2.21267	152
2.21633	152
2.22000	153
2.22367	156
2.22733	159
2.23100	160
2.23467	160
2.23833	161
2.24200	159
2.24567	156
2.24933	155
2.25300	155
2.25667	158
2.26033	163
2.26400	165
2.26767	167
2.27133	170
2.27500	171
2.27867	168
2.28233	168
2.28600	171
2.28967	174
2.29333	177
2.29700	180
2.30067	182
2.30433	184
2.30800	186
2.31167	187
2.31533	188
2.31900	189
2.32267	190
2.32633	189
2.33000	191
2.33367	194
2.33733	198
2.34100	202
2.34467	205
2.34833	206
2.35200	207
2.35567	208
2.35933	208
2.36300	207
2.36667	208
2.37033	209
2.37400	210
2.37767	210
2.38133	213
2.38500	217
2.38867	218
2.39233	220
2.39600	223
2.39967	228
2.40333	231
2.40700	232
2.41067	232
2.41433	236
2.41800	240
2.42167	240
2.42533	241
2.42900	242
2.43267	244
2.43633	247
2.44000	253
2.44367	315
2.44733	466
2.45100	631
2.45467	770
2.45833	846
2.46200	843
2.46567	791
2.46933	728
2.47300	675
2.47667	642
2.48033	617
2.48400	585
2.48767	541
2.49133	490
2.49500	442
2.49867	403
2.50233	373
2.50600	354
2.50967	343
2.51333	340
2.51700	347
2.52067	363
2.52433	383
2.52800	401
2.53167	409
2.53533	407
2.53900	393
2.54267	369
2.54633	340
2.55000	312
2.55367	286
2.55733	263
2.56100	243
2.56467	225
2.56833	211
2.57200	203
2.57567	196
2.57933	190
2.58300	188
2.58667	186
2.59033	187
2.59400	187
2.59767	185
2.60133	183
2.60500	175
2.60867	164
2.61233	151
2.61600	140
2.61967	128
2.62333	118
2.62700	112
2.63067	107
2.63433	106
2.63800	107
2.64167	109
2.64533	112
2.64900	112
2.65267	110
2.65633	105
2.66000	99
2.66367	91
2.66733	84
2.67100	79
2.67467	72
2.67833	66
2.68200	61
2.68567	55
2.68933	50
2.69300	45
2.69667	40
2.70033	39
2.70400	36
2.70767	35
2.71133	35
2.71500	36
2.71867	34
2.72233	35
2.72600	38
2.72967	42
2.73333	45
2.73700	48
2.74067	50
2.74433	52
2.74800	57
2.75167	62
2.75533	67
2.75900	69
2.76267	71
2.76633	74
2.77000	76
2.77367	77
2.77733	78
2.78100	80
2.78467	82
2.78833	84
2.79200	87
2.79567	88
2.79933	90
2.80300	94
2.80667	100
2.81033	104
2.81400	109
2.81767	117
2.82133	132
2.82500	163
2.82867	224
2.83233	336
2.83600	522
2.83967	803
2.84333	1195
2.84700	1692
2.85067	2275
2.85433	2903
2.85800	3532
2.86167	4111
2.86533	4591
2.86900	4937
2.87267	5132
2.87633	5178
2.88000	5088
2.88367	4889
2.88733	4609
2.89100	4274
2.89467	3912
2.89833	3546
2.90200	3190
2.90567	2854
2.90933	2540
2.91300	2252
2.91667	1991
2.92033	1757
2.92400	1550
2.92767	1368
2.93133	1208
2.93500	1068
2.93867	936
2.94233	788
2.94600	639
2.94967	521
2.95333	452
2.95700	419
2.96067	411
2.96433	416
2.96800	428
2.97167	447
2.97533	467
2.97900	486
2.98267	504
2.98633	523
2.99000	541
2.99367	556
2.99733	566
3.00100	573
3.00467	580
3.00833	585
3.01200	589
3.01567	590
3.01933	590
3.02300	587
3.02667	587
3.03033	585
3.03400	583
3.03767	582
3.04133	583
3.04500	585
3.04867	588
3.05233	591
3.05600	592
3.05967	591
3.06333	589
3.06700	587
3.07067	585
3.07433	584
3.07800	585
3.08167	587
3.08533	588
3.08900	587
3.09267	587
3.09633	589
3.10000	591
3.10367	593
3.10733	595
3.11100	595
3.11467	596
3.11833	597
3.12200	597
3.12567	598
3.12933	600
3.13300	602
3.13667	603
3.14033	603
3.14400	603
3.14767	603
3.15133	605
3.15500	609
3.15867	617
3.16233	624
3.16600	631
3.16967	636
3.17333	641
3.17700	644
3.18067	646
3.18433	648
3.18800	651
3.19167	654
3.19533	655
3.19900	656
3.20267	658
3.20633	660
3.21000	663
3.21367	666
3.21733	670
3.22100	673
3.22467	673
3.22833	673
3.23200	676
3.23567	680
3.23933	684
3.24300	687
3.24667	686
3.25033	686
3.25400	686
3.25767	686
3.26133	686
3.26500	687
3.26867	688
3.27233	688
3.27600	688
3.27967	691
3.28333	692
3.28700	693
3.29067	693
3.29433	692
3.29800	692
3.30167	692
3.30533	692
3.30900	691
3.31267	691
3.31633	690
3.32000	688
3.32367	688
3.32733	687
3.33100	688
3.33467	686
3.33833	684
3.34200	682
3.34567	683
3.34933	683
3.35300	681
3.35667	679
3.36033	677
3.36400	676
3.36767	674
3.37133	668
3.37500	666
3.37867	666
3.38233	664
3.38600	662
3.38967	660
3.39333	659
3.39700	659
3.40067	660
3.40433	659
3.40800	657
3.41167	655
3.41533	653
3.41900	650
3.42267	649
3.42633	648
3.43000	646
3.43367	643
3.43733	641
3.44100	639
3.44467	637
3.44833	637
3.45200	638
3.45567	637
3.45933	637
3.46300	637
3.46667	636
3.47033	635
3.47400	634
3.47767	632
3.48133	630
3.48500	631
3.48867	631
3.49233	630
3.49600	630
3.49967	631
3.50333	630
3.50700	629
3.51067	626
3.51433	623
3.51800	621
3.52167	621
3.52533	620
3.52900	619
3.53267	618
3.53633	616
3.54000	618
3.54367	622
3.54733	625
3.55100	627
3.55467	626
3.55833	624
3.56200	625
3.56567	625
3.56933	626
3.57300	625
3.57667	621
3.58033	619
3.58400	620
3.58767	623
3.59133	623
3.59500	623
3.59867	624
3.60233	625
3.60600	623
3.60967	622
3.61333	621
3.61700	621
3.62067	621
3.62433	619
3.62800	619
3.63167	622
3.63533	624
3.63900	627
3.64267	630
3.64633	632
3.65000	632
3.65367	632
3.65733	631
3.66100	626
3.66467	622
3.66833	619
3.67200	619
3.67567	619
3.67933	619
3.68300	619
3.68667	620
3.69033	621
3.69400	621
3.69767	619
3.70133	619
3.70500	615
3.70867	613
3.71233	610
3.71600	609
3.71967	607
3.72333	605
3.72700	608
3.73067	608
3.73433	605
3.73800	602
3.74167	601
3.74533	601
3.74900	599
3.75267	600
3.75633	601
3.76000	601
3.76367	603
3.76733	602
3.77100	599
3.77467	598
3.77833	595
3.78200	592
3.78567	593
3.78933	593
3.79300	593
3.79667	592
3.80033	589
3.80400	587
3.80767	583
3.81133	579
3.81500	576
3.81867	576
3.82233	577
3.82600	576
3.82967	574
3.83333	575
3.83700	575
3.84067	573
3.84433	571
3.84800	568
3.85167	568
3.85533	566
3.85900	565
3.86267	563
3.86633	562
3.87000	562
3.87367	562
3.87733	561
3.88100	559
3.88467	559
3.88833	558
3.89200	556
3.89567	557
3.89933	555
3.90300	553
3.90667	553
3.91033	553
3.91400	552
3.91767	551
3.92133	548
3.92500	547
3.92867	545
3.93233	543
3.93600	542
3.93967	541
3.94333	541
3.94700	541
3.95067	538
3.95433	537
3.95800	536
3.96167	534
3.96533	534
3.96900	534
3.97267	534
3.97633	531
3.98000	528
3.98367	527
3.98733	525
3.99100	523
3.99467	522
3.99833	519

[Status Trace (Column Oven Temperature)]
Interval(msec)	1000
# of Points	239
Start Time(min)	0.015
End Time(min)	3.982
Intensity Units	
Intensity Multiplier	1
R.Time (min)	Intensity
0.01528	35.04
0.03195	35.03
0.04862	35.03
0.06528	35.03
0.08195	35.02
0.09862	35.03
0.11528	35.04
0.13195	35.04
0.14862	35.03
0.16528	35.03
0.18195	35.03
0.19862	35.02
0.21528	35.02
0.23195	35.03
0.24862	35.02
0.26528	35.03
0.28195	35.02
0.29862	35.02
0.31528	35.01
0.33195	35.02
0.34862	35.02
0.36528	35.03
0.38195	35.02
0.39862	35.01
0.41528	35.02
0.43195	35.01
0.44862	35.01
0.46528	35.01
0.48195	35.02
0.49862	35.02
0.51528	35.02
0.53195	35.02
0.54862	35.00
0.56528	35.00
0.58195	34.99
0.59862	34.99
0.61528	34.97
0.63195	34.96
0.64862	34.96
0.66528	34.96
0.68195	34.96
0.69862	34.97
0.71528	34.99
0.73195	34.99
0.74862	35.00
0.76528	35.01
0.78195	35.02
0.79862	35.03
0.81528	35.02
0.83195	35.01
0.84862	35.01
0.86528	35.00
0.88195	35.01
0.89862	35.02
0.91528	35.01
0.93195	35.00
0.94862	35.00
0.96528	35.00
0.98195	35.00
0.99862	35.01
1.01528	35.00
1.03195	35.01
1.04862	35.01
1.06528	35.01
1.08195	35.01
1.09862	35.00
1.11528	34.99
1.13195	34.98
1.14862	34.99
1.16528	34.99
1.18195	34.98
1.19862	34.98
1.21528	34.98
1.23195	34.98
1.24862	35.00
1.26528	34.99
1.28195	35.01
1.29862	35.01
1.31528	35.00
1.33195	35.01
1.34862	35.01
1.36528	35.02
1.38195	35.01
1.39862	34.99
1.41528	34.99
1.43195	34.99
1.44862	34.99
1.46528	34.99
1.48195	34.99
1.49862	34.99
1.51528	34.99
1.53195	35.00
1.54862	35.00
1.56528	35.00
1.58195	35.01
1.59862	35.05
1.61528	35.14
1.63195	35.30
1.64862	35.50
1.66528	35.77
1.68195	36.12
1.69862	36.49
1.71528	36.84
1.73195	37.17
1.74862	37.49
1.76528	37.81
1.78195	38.15
1.79862	38.49
1.81528	38.83
1.83195	39.15
1.84862	39.48
1.86528	39.80
1.88195	40.14
1.89862	40.46
1.91528	40.79
1.93195	41.13
1.94862	41.45
1.96528	41.78
1.98195	42.10
1.99862	42.43
2.01528	42.74
2.03195	43.08
2.04862	43.41
2.06528	43.74
2.08195	44.05
2.09862	44.38
2.11528	44.72
2.13195	45.05
2.14862	45.37
2.16528	45.69
2.18195	46.02
2.19862	46.35
2.21528	46.68
2.23195	47.00
2.24862	47.33
2.26528	47.66
2.28195	47.99
2.29862	48.32
2.31528	48.65
2.33195	48.97
2.34862	49.28
2.36528	49.57
2.38195	49.71
2.39862	49.73
2.41528	49.72
2.43195	49.74
2.44862	49.72
2.46528	49.74
2.48195	49.74
2.49862	49.74
2.51528	49.76
2.53195	49.76
2.54862	49.78
2.56528	49.79
2.58195	49.79
2.59862	49.82
2.61528	49.81
2.63195	49.82
2.64862	49.83
2.66528	49.83
2.68195	49.84
2.69862	49.84
2.71528	49.83
2.73195	49.87
2.74862	49.87
2.76528	49.87
2.78195	49.86
2.79862	49.85
2.81528	49.87
2.83195	49.87
2.84862	49.88
2.86528	49.88
2.88195	49.88
2.89862	49.89
2.91528	49.89
2.93195	49.91
2.94862	49.92
2.96528	49.94
2.98195	49.95
2.99862	49.96
3.01528	49.96
3.03195	49.97
3.04862	49.98
3.06528	49.99
3.08195	50.01
3.09862	50.03
3.11528	50.02
3.13195	50.02
3.14862	50.02
3.16528	50.03
3.18195	50.04
3.19862	50.05
3.21528	50.05
3.23195	50.05
3.24862	50.05
3.26528	50.06
3.28195	50.07
3.29862	50.08
3.31528	50.08
3.33195	50.09
3.34862	50.09
3.36528	50.10
3.38195	50.10
3.39862	50.10
3.41528	50.09
3.43195	50.08
3.44862	50.09
3.46528	50.09
3.48195	50.08
3.49862	50.08
3.51528	50.07
3.53195	50.06
3.54862	50.05
3.56528	50.06
3.58195	50.06
3.59862	50.07
3.61528	50.08
3.63195	50.09
3.64862	50.08
3.66528	50.08
3.68195	50.08
3.69862	50.07
3.71528	50.06
3.73195	50.07
3.74862	50.08
3.76528	50.09
3.78195	50.08
3.79862	50.08
3.81528	50.07
3.83195	50.07
3.84862	50.07
3.86528	50.07
3.88195	50.07
3.89862	50.07
3.91528	50.07
3.93195	50.07
3.94862	50.07
3.96528	50.07
3.98195	50.07

[Status Trace (Injection Unit Temperature)]
Interval(msec)	1000
# of Points	239
Start Time(min)	0.015
End Time(min)	3.982
Intensity Units	
Intensity Multiplier	1
R.Time (min)	Intensity
0.01528	99.98
0.03195	99.98
0.04862	99.98
0.06528	99.98
0.08195	99.98
0.09862	99.98
0.11528	99.98
0.13195	99.98
0.14862	99.98
0.16528	99.98
0.18195	99.98
0.19862	99.98
0.21528	99.98
0.23195	99.98
0.24862	99.98
0.26528	99.98
0.28195	99.98
0.29862	99.99
0.31528	99.98
0.33195	99.98
0.34862	99.98
0.36528	99.98
0.38195	99.98
0.39862	99.98
0.41528	99.98
0.43195	99.98
0.44862	99.98
0.46528	99.98
0.48195	99.98
0.49862	99.98
0.51528	99.98
0.53195	99.98
0.54862	99.98
0.56528	99.98
0.58195	99.98
0.59862	99.98
0.61528	99.98
0.63195	99.98
0.64862	99.98
0.66528	99.98
0.68195	99.98
0.69862	99.98
0.71528	99.98
0.73195	99.97
0.74862	99.98
0.76528	99.98
0.78195	99.98
0.79862	99.98
0.81528	99.98
0.83195	99.98
0.84862	99.98
0.86528	99.98
0.88195	99.98
0.89862	99.98
0.91528	99.98
0.93195	99.98
0.94862	99.98
0.96528	99.98
0.98195	99.98
0.99862	99.98
1.01528	99.98
1.03195	99.98
1.04862	99.98
1.06528	99.98
1.08195	99.98
1.09862	99.98
1.11528	99.98
1.13195	99.98
1.14862	99.98
1.16528	99.98
1.18195	99.98
1.19862	99.98
1.21528	99.98
1.23195	99.98
1.24862	99.98
1.26528	99.98
1.28195	99.98
1.29862	99.98
1.31528	99.98
1.33195	99.98
1.34862	99.98
1.36528	99.98
1.38195	99.98
1.39862	99.98
1.41528	99.99
1.43195	99.98
1.44862	99.99
1.46528	99.99
1.48195	99.98
1.49862	99.98
1.51528	99.99
1.53195	99.99
1.54862	99.99
1.56528	99.98
1.58195	99.99
1.59862	99.98
1.61528	99.99
1.63195	99.98
1.64862	99.99
1.66528	99.99
1.68195	99.99
1.69862	99.99
1.71528	99.99
1.73195	99.99
1.74862	99.99
1.76528	99.99
1.78195	99.99
1.79862	99.99
1.81528	99.98
1.83195	99.98
1.84862	99.99
1.86528	99.99
1.88195	99.98
1.89862	99.98
1.91528	99.98
1.93195	99.98
1.94862	99.98
1.96528	99.98
1.98195	99.98
1.99862	99.98
2.01528	99.98
2.03195	99.98
2.04862	99.98
2.06528	99.98
2.08195	99.97
2.09862	99.98
2.11528	99.98
2.13195	99.97
2.14862	99.98
2.16528	99.98
2.18195	99.98
2.19862	99.97
2.21528	99.97
2.23195	99.98
2.24862	99.98
2.26528	99.97
2.28195	99.98
2.29862	99.97
2.31528	99.97
2.33195	99.97
2.34862	99.97
2.36528	99.97
2.38195	99.97
2.39862	99.97
2.41528	99.97
2.43195	99.97
2.44862	99.97
2.46528	99.97
2.48195	99.97
2.49862	99.97
2.51528	99.97
2.53195	99.97
2.54862	99.97
2.56528	99.97
2.58195	99.97
2.59862	99.97
2.61528	99.97
2.63195	99.98
2.64862	99.98
2.66528	99.98
2.68195	99.98
2.69862	99.98
2.71528	99.98
2.73195	99.98
2.74862	99.98
2.76528	99.98
2.78195	99.98
2.79862	99.99
2.81528	99.99
2.83195	99.98
2.84862	99.99
2.86528	99.99
2.88195	99.99
2.89862	99.99
2.91528	100.00
2.93195	100.00
2.94862	100.00
2.96528	100.00
2.98195	100.00
2.99862	100.00
3.01528	100.01
3.03195	100.01
3.04862	100.00
3.06528	100.01
3.08195	100.01
3.09862	100.01
3.11528	100.01
3.13195	100.01
3.14862	100.01
3.16528	100.02
3.18195	100.02
3.19862	100.01
3.21528	100.02
3.23195	100.02
3.24862	100.02
3.26528	100.02
3.28195	100.02
3.29862	100.02
3.31528	100.03
3.33195	100.02
3.34862	100.02
3.36528	100.02
3.38195	100.03
3.39862	100.03
3.41528	100.03
3.43195	100.03
3.44862	100.03
3.46528	100.03
3.48195	100.03
3.49862	100.03
3.51528	100.03
3.53195	100.03
3.54862	100.03
3.56528	100.03
3.58195	100.03
3.59862	100.03
3.61528	100.04
3.63195	100.03
3.64862	100.03
3.66528	100.03
3.68195	100.04
3.69862	100.04
3.71528	100.03
3.73195	100.03
3.74862	100.04
3.76528	100.03
3.78195	100.04
3.79862	100.04
3.81528	100.04
3.83195	100.04
3.84862	100.04
3.86528	100.04
3.88195	100.04
3.89862	100.04
3.91528	100.04
3.93195	100.04
3.94862	100.04
3.96528	100.04
3.98195	100.04

[Status Trace (Carrier Gas Pressure)]
Interval(msec)	1000
# of Points	239
Start Time(min)	0.015
End Time(min)	3.982
Intensity Units	
Intensity Multiplier	1
R.Time (min)	Intensity
0.01528	57.12
0.03195	55.76
0.04862	58.04
0.06528	59.88
0.08195	58.56
0.09862	57.97
0.11528	58.00
0.13195	58.01
0.14862	58.01
0.16528	58.00
0.18195	58.00
0.19862	58.00
0.21528	58.00
0.23195	58.00
0.24862	58.00
0.26528	58.00
0.28195	58.00
0.29862	58.00
0.31528	58.00
0.33195	58.00
0.34862	58.00
0.36528	58.00
0.38195	58.00
0.39862	58.00
0.41528	58.00
0.43195	58.00
0.44862	58.00
0.46528	58.00
0.48195	58.00
0.49862	58.00
0.51528	58.00
0.53195	58.00
0.54862	58.00
0.56528	58.00
0.58195	58.00
0.59862	58.00
0.61528	58.00
0.63195	58.00
0.64862	58.00
0.66528	58.00
0.68195	58.00
0.69862	58.00
0.71528	58.00
0.73195	58.00
0.74862	58.00
0.76528	58.00
0.78195	58.00
0.79862	58.00
0.81528	58.00
0.83195	58.00
0.84862	58.00
0.86528	58.00
0.88195	58.00
0.89862	58.00
0.91528	58.00
0.93195	58.00
0.94862	58.00
0.96528	58.00
0.98195	58.00
0.99862	58.00
1.01528	58.00
1.03195	58.00
1.04862	58.00
1.06528	58.00
1.08195	58.00
1.09862	58.00
1.11528	58.00
1.13195	58.00
1.14862	58.00
1.16528	58.00
1.18195	58.00
1.19862	58.00
1.21528	58.00
1.23195	58.00
1.24862	58.00
1.26528	58.00
1.28195	58.00
1.29862	58.00
1.31528	58.00
1.33195	58.00
1.34862	58.00
1.36528	58.00
1.38195	58.00
1.39862	58.00
1.41528	58.00
1.43195	58.00
1.44862	58.00
1.46528	58.00
1.48195	58.00
1.49862	58.00
1.51528	58.00
1.53195	58.00
1.54862	58.00
1.56528	58.00
1.58195	58.00
1.59862	58.00
1.61528	58.00
1.63195	58.00
1.64862	58.00
1.66528	58.00
1.68195	58.01
1.69862	58.00
1.71528	58.00
1.73195	58.00
1.74862	58.00
1.76528	58.00
1.78195	58.00
1.79862	58.00
1.81528	58.00
1.83195	58.00
1.84862	58.00
1.86528	58.00
1.88195	58.00
1.89862	58.00
1.91528	58.00
1.93195	58.00
1.94862	58.00
1.96528	58.00
1.98195	58.00
1.99862	58.00
2.01528	58.00
2.03195	58.00
2.04862	58.00
2.06528	58.00
2.08195	58.00
2.09862	58.00
2.11528	58.00
2.13195	58.00
2.14862	58.00
2.16528	58.00
2.18195	58.00
2.19862	58.00
2.21528	58.00
2.23195	58.00
2.24862	58.00
2.26528	58.00
2.28195	58.00
2.29862	58.00
2.31528	58.00
2.33195	58.00
2.34862	58.00
2.36528	58.00
2.38195	57.99
2.39862	57.99
2.41528	58.00
2.43195	58.00
2.44862	58.00
2.46528	58.00
2.48195	58.00
2.49862	58.00
2.51528	57.99
2.53195	57.99
2.54862	58.00
2.56528	58.00
2.58195	58.00
2.59862	58.00
2.61528	58.00
2.63195	58.00
2.64862	58.00
2.66528	58.00
2.68195	58.00
2.69862	58.00
2.71528	58.00
2.73195	58.00
2.74862	58.00
2.76528	58.00
2.78195	58.00
2.79862	58.00
2.81528	58.00
2.83195	58.00
2.84862	58.00
2.86528	58.00
2.88195	58.00
2.89862	58.00
2.91528	58.00
2.93195	58.00
2.94862	58.00
2.96528	58.00
2.98195	58.00
2.99862	58.00
3.01528	58.00
3.03195	58.00
3.04862	58.00
3.06528	58.00
3.08195	58.00
3.09862	58.00
3.11528	58.00
3.13195	58.00
3.14862	58.00
3.16528	58.00
3.18195	58.00
3.19862	58.00
3.21528	58.00
3.23195	58.00
3.24862	58.00
3.26528	58.00
3.28195	58.00
3.29862	58.00
3.31528	58.00
3.33195	58.00
3.34862	58.00
3.36528	58.00
3.38195	58.00
3.39862	58.00
3.41528	58.00
3.43195	58.00
3.44862	58.00
3.46528	58.00
3.48195	58.00
3.49862	58.00
3.51528	58.00
3.53195	58.00
3.54862	58.00
3.56528	58.00
3.58195	58.00
3.59862	58.00
3.61528	58.00
3.63195	58.00
3.64862	58.00
3.66528	58.00
3.68195	58.00
3.69862	58.00
3.71528	58.00
3.73195	58.00
3.74862	58.00
3.76528	58.00
3.78195	58.00
3.79862	58.00
3.81528	58.00
3.83195	58.00
3.84862	58.00
3.86528	58.00
3.88195	58.00
3.89862	58.00
3.91528	58.00
3.93195	58.00
3.94862	58.00
3.96528	58.00
3.98195	58.00

[Status Trace (Carrier Gas Flow)]
Interval(msec)	1000
# of Points	239
Start Time(min)	0.015
End Time(min)	3.982
Intensity Units	
Intensity Multiplier	1
R.Time (min)	Intensity
0.01528	33.75
0.03195	34.53
0.04862	34.55
0.06528	34.51
0.08195	34.51
0.09862	34.52
0.11528	34.52
0.13195	34.52
0.14862	34.52
0.16528	34.51
0.18195	34.52
0.19862	34.52
0.21528	34.52
0.23195	34.52
0.24862	34.52
0.26528	34.52
0.28195	34.53
0.29862	34.52
0.31528	34.52
0.33195	34.52
0.34862	34.52
0.36528	34.52
0.38195	34.51
0.39862	34.52
0.41528	34.52
0.43195	34.52
0.44862	34.52
0.46528	34.51
0.48195	34.52
0.49862	34.52
0.51528	34.52
0.53195	34.52
0.54862	34.52
0.56528	34.52
0.58195	34.52
0.59862	34.51
0.61528	34.52
0.63195	34.52
0.64862	34.52
0.66528	34.52
0.68195	34.52
0.69862	34.53
0.71528	34.51
0.73195	34.51
0.74862	34.52
0.76528	34.53
0.78195	34.51
0.79862	34.52
0.81528	34.51
0.83195	34.52
0.84862	34.52
0.86528	34.53
0.88195	34.52
0.89862	34.53
0.91528	34.52
0.93195	34.52
0.94862	34.52
0.96528	34.52
0.98195	34.52
0.99862	34.52
1.01528	34.52
1.03195	34.52
1.04862	34.52
1.06528	34.52
1.08195	34.51
1.09862	34.51
1.11528	34.52
1.13195	34.52
1.14862	34.51
1.16528	34.52
1.18195	34.53
1.19862	34.51
1.21528	34.52
1.23195	34.52
1.24862	34.52
1.26528	34.52
1.28195	34.51
1.29862	34.52
1.31528	34.52
1.33195	34.52
1.34862	34.52
1.36528	34.51
1.38195	34.52
1.39862	34.52
1.41528	34.52
1.43195	34.51
1.44862	34.52
1.46528	34.52
1.48195	34.52
1.49862	34.52
1.51528	34.52
1.53195	34.52
1.54862	34.52
1.56528	34.51
1.58195	34.52
1.59862	34.52
1.61528	34.52
1.63195	34.51
1.64862	34.52
1.66528	34.52
1.68195	34.52
1.69862	34.51
1.71528	34.52
1.73195	34.52
1.74862	34.51
1.76528	34.52
1.78195	34.52
1.79862	34.52
1.81528	34.52
1.83195	34.52
1.84862	34.51
1.86528	34.52
1.88195	34.52
1.89862	34.52
1.91528	34.51
1.93195	34.52
1.94862	34.52
1.96528	34.52
1.98195	34.53
1.99862	34.52
2.01528	34.51
2.03195	34.51
2.04862	34.51
2.06528	34.53
2.08195	34.52
2.09862	34.51
2.11528	34.52
2.13195	34.51
2.14862	34.52
2.16528	34.52
2.18195	34.52
2.19862	34.52
2.21528	34.51
2.23195	34.52
2.24862	34.52
2.26528	34.52
2.28195	34.51
2.29862	34.52
2.31528	34.52
2.33195	34.52
2.34862	34.52
2.36528	34.52
2.38195	34.52
2.39862	34.51
2.41528	34.51
2.43195	34.52
2.44862	34.52
2.46528	34.51
2.48195	34.52
2.49862	34.52
2.51528	34.51
2.53195	34.52
2.54862	34.52
2.56528	34.52
2.58195	34.52
2.59862	34.52
2.61528	34.51
2.63195	34.52
2.64862	34.52
2.66528	34.52
2.68195	34.52
2.69862	34.52
2.71528	34.52
2.73195	34.52
2.74862	34.52
2.76528	34.52
2.78195	34.52
2.79862	34.52
2.81528	34.52
2.83195	34.52
2.84862	34.52
2.86528	34.51
2.88195	34.52
2.89862	34.51
2.91528	34.52
2.93195	34.51
2.94862	34.52
2.96528	34.52
2.98195	34.52
2.99862	34.51
3.01528	34.51
3.03195	34.52
3.04862	34.52
3.06528	34.51
3.08195	34.52
3.09862	34.52
3.11528	34.52
3.13195	34.52
3.14862	34.52
3.16528	34.51
3.18195	34.52
3.19862	34.52
3.21528	34.51
3.23195	34.52
3.24862	34.52
3.26528	34.52
3.28195	34.52
3.29862	34.52
3.31528	34.52
3.33195	34.51
3.34862	34.52
3.36528	34.52
3.38195	34.52
3.39862	34.52
3.41528	34.52
3.43195	34.52
3.44862	34.52
3.46528	34.52
3.48195	34.52
3.49862	34.52
3.51528	34.52
3.53195	34.51
3.54862	34.52
3.56528	34.52
3.58195	34.52
3.59862	34.51
3.61528	34.52
3.63195	34.52
3.64862	34.52
3.66528	34.51
3.68195	34.52
3.69862	34.52
3.71528	34.52
3.73195	34.52
3.74862	34.52
3.76528	34.52
3.78195	34.51
3.79862	34.52
3.81528	34.53
3.83195	34.52
3.84862	34.52
3.86528	34.52
3.88195	34.52
3.89862	34.52
3.91528	34.51
3.93195	34.52
3.94862	34.52
3.96528	34.52
3.98195	34.52

[Status Trace (Column Flow)]
Interval(msec)	1000
# of Points	239
Start Time(min)	0.015
End Time(min)	3.982
Intensity Units	
Intensity Multiplier	1
R.Time (min)	Intensity
0.01528	5.42
0.03195	5.26
0.04862	5.53
0.06528	5.74
0.08195	5.59
0.09862	5.52
0.11528	5.52
0.13195	5.52
0.14862	5.52
0.16528	5.52
0.18195	5.52
0.19862	5.52
0.21528	5.52
0.23195	5.52
0.24862	5.52
0.26528	5.52
0.28195	5.52
0.29862	5.52
0.31528	5.52
0.33195	5.52
0.34862	5.52
0.36528	5.52
0.38195	5.52
0.39862	5.52
0.41528	5.52
0.43195	5.52
0.44862	5.52
0.46528	5.52
0.48195	5.52
0.49862	5.52
0.51528	5.52
0.53195	5.52
0.54862	5.52
0.56528	5.52
0.58195	5.52
0.59862	5.52
0.61528	5.52
0.63195	5.52
0.64862	5.52
0.66528	5.52
0.68195	5.52
0.69862	5.52
0.71528	5.52
0.73195	5.52
0.74862	5.52
0.76528	5.52
0.78195	5.52
0.79862	5.52
0.81528	5.52
0.83195	5.52
0.84862	5.52
0.86528	5.52
0.88195	5.52
0.89862	5.52
0.91528	5.52
0.93195	5.52
0.94862	5.52
0.96528	5.52
0.98195	5.52
0.99862	5.52
1.01528	5.52
1.03195	5.52
1.04862	5.52
1.06528	5.52
1.08195	5.52
1.09862	5.52
1.11528	5.52
1.13195	5.52
1.14862	5.52
1.16528	5.52
1.18195	5.52
1.19862	5.52
1.21528	5.52
1.23195	5.52
1.24862	5.52
1.26528	5.52
1.28195	5.52
1.29862	5.52
1.31528	5.52
1.33195	5.52
1.34862	5.52
1.36528	5.52
1.38195	5.52
1.39862	5.52
1.41528	5.52
1.43195	5.52
1.44862	5.52
1.46528	5.52
1.48195	5.52
1.49862	5.52
1.51528	5.52
1.53195	5.52
1.54862	5.52
1.56528	5.52
1.58195	5.52
1.59862	5.52
1.61528	5.52
1.63195	5.51
1.64862	5.51
1.66528	5.50
1.68195	5.49
1.69862	5.48
1.71528	5.47
1.73195	5.46
1.74862	5.45
1.76528	5.44
1.78195	5.43
1.79862	5.42
1.81528	5.40
1.83195	5.39
1.84862	5.39
1.86528	5.37
1.88195	5.36
1.89862	5.36
1.91528	5.34
1.93195	5.33
1.94862	5.33
1.96528	5.32
1.98195	5.31
1.99862	5.30
2.01528	5.29
2.03195	5.28
2.04862	5.27
2.06528	5.26
2.08195	5.25
2.09862	5.24
2.11528	5.23
2.13195	5.22
2.14862	5.21
2.16528	5.20
2.18195	5.19
2.19862	5.18
2.21528	5.17
2.23195	5.16
2.24862	5.16
2.26528	5.14
2.28195	5.14
2.29862	5.13
2.31528	5.12
2.33195	5.11
2.34862	5.10
2.36528	5.09
2.38195	5.09
2.39862	5.09
2.41528	5.09
2.43195	5.09
2.44862	5.09
2.46528	5.09
2.48195	5.09
2.49862	5.09
2.51528	5.09
2.53195	5.09
2.54862	5.09
2.56528	5.09
2.58195	5.09
2.59862	5.08
2.61528	5.08
2.63195	5.08
2.64862	5.08
2.66528	5.08
2.68195	5.08
2.69862	5.08
2.71528	5.08
2.73195	5.08
2.74862	5.08
2.76528	5.08
2.78195	5.08
2.79862	5.08
2.81528	5.08
2.83195	5.08
2.84862	5.08
2.86528	5.08
2.88195	5.08
2.89862	5.08
2.91528	5.08
2.93195	5.08
2.94862	5.08
2.96528	5.08
2.98195	5.08
2.99862	5.08
3.01528	5.08
3.03195	5.08
3.04862	5.08
3.06528	5.08
3.08195	5.08
3.09862	5.08
3.11528	5.08
3.13195	5.08
3.14862	5.08
3.16528	5.08
3.18195	5.08
3.19862	5.08
3.21528	5.08
3.23195	5.08
3.24862	5.08
3.26528	5.08
3.28195	5.08
3.29862	5.08
3.31528	5.08
3.33195	5.08
3.34862	5.08
3.36528	5.08
3.38195	5.08
3.39862	5.08
3.41528	5.08
3.43195	5.08
3.44862	5.08
3.46528	5.08
3.48195	5.08
3.49862	5.08
3.51528	5.08
3.53195	5.08
3.54862	5.08
3.56528	5.08
3.58195	5.08
3.59862	5.08
3.61528	5.08
3.63195	5.08
3.64862	5.08
3.66528	5.08
3.68195	5.08
3.69862	5.08
3.71528	5.08
3.73195	5.08
3.74862	5.08
3.76528	5.08
3.78195	5.08
3.79862	5.08
3.81528	5.08
3.83195	5.08
3.84862	5.08
3.86528	5.08
3.88195	5.08
3.89862	5.08
3.91528	5.08
3.93195	5.08
3.94862	5.08
3.96528	5.08
3.98195	5.08

[Status Trace (Linear Velocity)]
Interval(msec)	1000
# of Points	239
Start Time(min)	0.015
End Time(min)	3.982
Intensity Units	
Intensity Multiplier	1
R.Time (min)	Intensity
0.01528	38.44
0.03195	37.55
0.04862	39.04
0.06528	40.24
0.08195	39.38
0.09862	39.00
0.11528	39.01
0.13195	39.02
0.14862	39.02
0.16528	39.02
0.18195	39.02
0.19862	39.02
0.21528	39.02
0.23195	39.02
0.24862	39.02
0.26528	39.02
0.28195	39.02
0.29862	39.02
0.31528	39.02
0.33195	39.02
0.34862	39.01
0.36528	39.01
0.38195	39.01
0.39862	39.02
0.41528	39.02
0.43195	39.02
0.44862	39.02
0.46528	39.02
0.48195	39.02
0.49862	39.02
0.51528	39.02
0.53195	39.02
0.54862	39.02
0.56528	39.02
0.58195	39.02
0.59862	39.02
0.61528	39.02
0.63195	39.02
0.64862	39.02
0.66528	39.02
0.68195	39.02
0.69862	39.02
0.71528	39.02
0.73195	39.02
0.74862	39.02
0.76528	39.02
0.78195	39.02
0.79862	39.01
0.81528	39.01
0.83195	39.02
0.84862	39.02
0.86528	39.02
0.88195	39.02
0.89862	39.02
0.91528	39.02
0.93195	39.02
0.94862	39.02
0.96528	39.02
0.98195	39.02
0.99862	39.02
1.01528	39.02
1.03195	39.02
1.04862	39.02
1.06528	39.02
1.08195	39.02
1.09862	39.02
1.11528	39.02
1.13195	39.02
1.14862	39.02
1.16528	39.02
1.18195	39.02
1.19862	39.02
1.21528	39.02
1.23195	39.02
1.24862	39.02
1.26528	39.02
1.28195	39.02
1.29862	39.02
1.31528	39.02
1.33195	39.02
1.34862	39.02
1.36528	39.02
1.38195	39.02
1.39862	39.02
1.41528	39.02
1.43195	39.02
1.44862	39.02
1.46528	39.02
1.48195	39.02
1.49862	39.02
1.51528	39.02
1.53195	39.02
1.54862	39.02
1.56528	39.02
1.58195	39.02
1.59862	39.01
1.61528	39.01
1.63195	38.99
1.64862	38.97
1.66528	38.95
1.68195	38.91
1.69862	38.88
1.71528	38.84
1.73195	38.81
1.74862	38.78
1.76528	38.75
1.78195	38.72
1.79862	38.69
1.81528	38.65
1.83195	38.62
1.84862	38.59
1.86528	38.56
1.88195	38.53
1.89862	38.50
1.91528	38.47
1.93195	38.44
1.94862	38.41
1.96528	38.38
1.98195	38.35
1.99862	38.32
2.01528	38.29
2.03195	38.26
2.04862	38.23
2.06528	38.20
2.08195	38.17
2.09862	38.14
2.11528	38.11
2.13195	38.08
2.14862	38.05
2.16528	38.02
2.18195	37.99
2.19862	37.96
2.21528	37.93
2.23195	37.90
2.24862	37.87
2.26528	37.84
2.28195	37.81
2.29862	37.79
2.31528	37.75
2.33195	37.72
2.34862	37.70
2.36528	37.67
2.38195	37.66
2.39862	37.65
2.41528	37.65
2.43195	37.66
2.44862	37.66
2.46528	37.66
2.48195	37.65
2.49862	37.66
2.51528	37.65
2.53195	37.65
2.54862	37.65
2.56528	37.65
2.58195	37.65
2.59862	37.65
2.61528	37.65
2.63195	37.65
2.64862	37.65
2.66528	37.65
2.68195	37.65
2.69862	37.65
2.71528	37.65
2.73195	37.65
2.74862	37.64
2.76528	37.64
2.78195	37.65
2.79862	37.65
2.81528	37.65
2.83195	37.64
2.84862	37.64
2.86528	37.64
2.88195	37.64
2.89862	37.64
2.91528	37.64
2.93195	37.64
2.94862	37.64
2.96528	37.64
2.98195	37.64
2.99862	37.64
3.01528	37.64
3.03195	37.64
3.04862	37.64
3.06528	37.63
3.08195	37.63
3.09862	37.63
3.11528	37.63
3.13195	37.63
3.14862	37.63
3.16528	37.63
3.18195	37.63
3.19862	37.63
3.21528	37.63
3.23195	37.63
3.24862	37.63
3.26528	37.63
3.28195	37.63
3.29862	37.63
3.31528	37.63
3.33195	37.63
3.34862	37.62
3.36528	37.62
3.38195	37.62
3.39862	37.62
3.41528	37.62
3.43195	37.63
3.44862	37.63
3.46528	37.63
3.48195	37.63
3.49862	37.63
3.51528	37.63
3.53195	37.63
3.54862	37.63
3.56528	37.63
3.58195	37.63
3.59862	37.63
3.61528	37.63
3.63195	37.62
3.64862	37.63
3.66528	37.63
3.68195	37.63
3.69862	37.63
3.71528	37.63
3.73195	37.63
3.74862	37.63
3.76528	37.63
3.78195	37.62
3.79862	37.63
3.81528	37.63
3.83195	37.63
3.84862	37.63
3.86528	37.63
3.88195	37.63
3.89862	37.63
3.91528	37.63
3.93195	37.63
3.94862	37.63
3.96528	37.63
3.98195	37.63

