[Header]
Application Name	LabSolutions
Version	5.110
Data File Name	C:\Users\User\Desktop\GC Analyses\Jack\Nachusa Grasslands Sampling\T2 Timepoint July 12th\T2_07122022_006.gcd
Output Date	3/14/2023
Output Time	3:42:30 PM

[File Information]
Type	Data File
Generated	3/10/2023 12:57:01 PM
Generated by	System Administrator
Modified	3/10/2023 1:03:42 PM
Modified by	System Administrator

[Sample Information]
Operator Name	System Administrator
Acquired	3/10/2023 12:59:40 PM
Sample Type	0:Unknown
Level	0
Sample Name	006
Sample ID	006
ISTD Amount1	1
ISTD Amount2	1
ISTD Amount3	1
ISTD Amount4	1
ISTD Amount5	1
ISTD Amount6	1
ISTD Amount7	1
ISTD Amount8	1
ISTD Amount9	1
ISTD Amount10	1
ISTD Amount11	1
ISTD Amount12	1
ISTD Amount13	1
ISTD Amount14	1
ISTD Amount15	1
ISTD Amount16	1
ISTD Amount17	1
ISTD Amount18	1
ISTD Amount19	1
ISTD Amount20	1
ISTD Amount21	1
ISTD Amount22	1
ISTD Amount23	1
ISTD Amount24	1
ISTD Amount25	1
ISTD Amount26	1
ISTD Amount27	1
ISTD Amount28	1
ISTD Amount29	1
ISTD Amount30	1
ISTD Amount31	1
ISTD Amount32	1
Sample Amount	1
Dilution Factor	1
Vial#	5
Injection Volume	1
Injection Count	1
Bar Code	

[Original Files]
Data File	C:\Users\User\Desktop\GC Analyses\Jack\Nachusa Grasslands Sampling\T1 Timepoint July 12th\T2_07122022_006.gcd
Method File	C:\LabSolutions\Data\GHG_4min_2022\ghg3_togas_w_acet_4 min_new_int.gcm
Batch File	C:\LabSolutions\Data\AutoSamplerTesting\T2_07122022.gcb
Report Format File	c:\LabSolutions\System\DEFAULT.lsr

[File Description]


[Configuration]
Instrument Name	C0B7VH3-Instrument1
Instrument #	1
Line #	1
# of Detectors	3
Detector ID	DET#1	DET#2	DET#3
Detector Name	FID	PTCD	ECD
# of Channels	1	1	1

[Peak Table(Ch1)]
# of Peaks	3
Peak#	R.Time	I.Time	F.Time	Area	Height	A/H	Conc.	Mark	ID#	Name	k'	Plate #	Plate Ht.	Tailing	Resolution	Sep.Factor	Area Ratio	Height Ratio	Conc. %	Norm Conc.
1	1.476	1.439	1.538	34870	16726	2.085	246.183	   	1	CO	0.000	9410	15.941	1.296	0.000	0.000	0	0	26.705	26.705
2	1.567	1.538	1.619	4406	2194	2.008	85.199	 V 	2	CH4	0.062	10409	14.411	0.000	1.499	0.000	0	0	9.242	9.242
3	1.996	1.938	2.583	2352796	1127811	2.086	590.488	   	3	CO2	0.353	17259	8.691	1.257	7.019	5.680	0	0	64.053	64.053

[Peak Table(Ch2)]
# of Peaks	0

[Peak Table(Ch3)]
# of Peaks	4
Peak#	R.Time	I.Time	F.Time	Area	Height	A/H	Conc.	Mark	ID#	Name	k'	Plate #	Plate Ht.	Tailing	Resolution	Sep.Factor	Area Ratio	Height Ratio	Conc. %	Norm Conc.
1	2.462	2.381	2.517	1659	522	3.177	0.000	   			0.000	8825	16.998	0.000	0.000	0.000	0	0	0.000	0.000
2	2.539	2.517	2.631	1249	298	4.197	0.000	 V 			0.031	3652	41.078	0.000	0.564	0.000	0	0	0.000	0.000
3	2.682	2.649	2.719	112	47	2.383	0.000	   			0.089	25297	5.929	1.065	1.214	2.857	0	0	0.000	0.000
4	2.876	2.777	3.089	19139	5065	3.778	0.489	   	1	N2O	0.168	13434	11.166	1.646	2.331	1.883	0	0	100.000	100.000

[Compound Results(Ch1)]
# of IDs	6
ID#	Name	R.Time	Area	Height	Conc.	Curve	3rd	2nd	1st	Constant	Area Ratio	Height Ratio	Conc. %	Norm Conc.
1	CO	1.476	34870	16726	246.183	Linear	0.000000e+00	0.000000e+00	1.416423e+002	0.000000e+00	0	0	26.705	26.705
2	CH4	1.567	4406	2194	85.199	Linear	0.000000e+00	0.000000e+00	5.171738e+001	0.000000e+00	0	0	9.242	9.242
3	CO2	1.996	2352796	1127811	590.488	Linear	0.000000e+00	0.000000e+00	3.984494e+003	0.000000e+00	0	0	64.053	64.053
4	Ethylene	0.000	0	0	0.000	Linear	0.000000e+00	0.000000e+00	0.000000e+00	0.000000e+00	0	0	0.000	0.000
5	Acetylene	0.000	0	0	0.000	Linear	0.000000e+00	0.000000e+00	0.000000e+00	0.000000e+00	0	0	0.000	0.000
6	Ethane	0.000	0	0	0.000	Linear	0.000000e+00	0.000000e+00	0.000000e+00	0.000000e+00	0	0	0.000	0.000

[Compound Results(Ch2)]
# of IDs	5
ID#	Name	R.Time	Area	Height	Conc.	Curve	3rd	2nd	1st	Constant	Area Ratio	Height Ratio	Conc. %	Norm Conc.
1	Hydrogen	0.000	0	0	0.000	Linear	0.000000e+00	0.000000e+00	0.000000e+00	0.000000e+00	0	0	0.000	0.000
2	Oxygen	0.000	0	0	0.000	Linear	0.000000e+00	0.000000e+00	0.000000e+00	0.000000e+00	0	0	0.000	0.000
3	Nitrogen	0.000	0	0	0.000	Linear	0.000000e+00	0.000000e+00	0.000000e+00	0.000000e+00	0	0	0.000	0.000
4	Methane	0.000	0	0	0.000	Linear	0.000000e+00	0.000000e+00	0.000000e+00	0.000000e+00	0	0	0.000	0.000
5	Carbon Monoxide	0.000	0	0	0.000	Linear	0.000000e+00	0.000000e+00	0.000000e+00	0.000000e+00	0	0	0.000	0.000

[Compound Results(Ch3)]
# of IDs	2
ID#	Name	R.Time	Area	Height	Conc.	Curve	3rd	2nd	1st	Constant	Area Ratio	Height Ratio	Conc. %	Norm Conc.
1	N2O	2.876	19139	5065	0.489	Linear	0.000000e+00	0.000000e+00	3.915173e+004	0.000000e+00	0	0	100.000	100.000
2	SF6	0.000	0	0	0.000	Linear	0.000000e+00	0.000000e+00	0.000000e+00	0.000000e+00	0	0	0.000	0.000

[Group Results(Ch1)]
# of Groups	0

[Group Results(Ch2)]
# of Groups	0

[Group Results(Ch3)]
# of Groups	0

[Chromatogram (Ch1)]
Interval(msec)	220
# of Points	1091
Start Time(min)	0.002
End Time(min)	3.998
R.Time (min)	Intensity
0.00167	-10
0.00533	-11
0.00900	-8
0.01267	-3
0.01633	-2
0.02000	-5
0.02367	-5
0.02733	-7
0.03100	-15
0.03467	-24
0.03833	-31
0.04200	-36
0.04567	-37
0.04933	-34
0.05300	-29
0.05667	-24
0.06033	-20
0.06400	-17
0.06767	-13
0.07133	-8
0.07500	-5
0.07867	-8
0.08233	-13
0.08600	-18
0.08967	-23
0.09333	-28
0.09700	-29
0.10067	-24
0.10433	-20
0.10800	-19
0.11167	-20
0.11533	-23
0.11900	-23
0.12267	-22
0.12633	-22
0.13000	-24
0.13367	-25
0.13733	-27
0.14100	-28
0.14467	-26
0.14833	-25
0.15200	-24
0.15567	-20
0.15933	-15
0.16300	-11
0.16667	-11
0.17033	-11
0.17400	-11
0.17767	-14
0.18133	-23
0.18500	-31
0.18867	-32
0.19233	-25
0.19600	-16
0.19967	-12
0.20333	-12
0.20700	-16
0.21067	-20
0.21433	-23
0.21800	-26
0.22167	-26
0.22533	-24
0.22900	-25
0.23267	-24
0.23633	-25
0.24000	-31
0.24367	-35
0.24733	-33
0.25100	-28
0.25467	-20
0.25833	-13
0.26200	-9
0.26567	-7
0.26933	2
0.27300	14
0.27667	22
0.28033	22
0.28400	14
0.28767	0
0.29133	-11
0.29500	-16
0.29867	-17
0.30233	-17
0.30600	-17
0.30967	-18
0.31333	-17
0.31700	-15
0.32067	-14
0.32433	-17
0.32800	-21
0.33167	-23
0.33533	-25
0.33900	-22
0.34267	-15
0.34633	-8
0.35000	-2
0.35367	2
0.35733	6
0.36100	8
0.36467	5
0.36833	-3
0.37200	-12
0.37567	-22
0.37933	-33
0.38300	-40
0.38667	-38
0.39033	-32
0.39400	-26
0.39767	-24
0.40133	-23
0.40500	-23
0.40867	-21
0.41233	-22
0.41600	-20
0.41967	-16
0.42333	-9
0.42700	-2
0.43067	2
0.43433	2
0.43800	-3
0.44167	-7
0.44533	-10
0.44900	-13
0.45267	-21
0.45633	-28
0.46000	-30
0.46367	-28
0.46733	-25
0.47100	-23
0.47467	-21
0.47833	-18
0.48200	-15
0.48567	-15
0.48933	-14
0.49300	-13
0.49667	-10
0.50033	-6
0.50400	-6
0.50767	-9
0.51133	-11
0.51500	-13
0.51867	-6
0.52233	5
0.52600	11
0.52967	10
0.53333	1
0.53700	-8
0.54067	-16
0.54433	-25
0.54800	-33
0.55167	-37
0.55533	-38
0.55900	-33
0.56267	-24
0.56633	-13
0.57000	-4
0.57367	-2
0.57733	-7
0.58100	-16
0.58467	-23
0.58833	-28
0.59200	-30
0.59567	-27
0.59933	-20
0.60300	-20
0.60667	-25
0.61033	-28
0.61400	-29
0.61767	-28
0.62133	-22
0.62500	-19
0.62867	-12
0.63233	-3
0.63600	2
0.63967	1
0.64333	-4
0.64700	-6
0.65067	-3
0.65433	-2
0.65800	-4
0.66167	-11
0.66533	-21
0.66900	-27
0.67267	-28
0.67633	-26
0.68000	-24
0.68367	-28
0.68733	-33
0.69100	-36
0.69467	-42
0.69833	-47
0.70200	-46
0.70567	-40
0.70933	-29
0.71300	-22
0.71667	-21
0.72033	-20
0.72400	-20
0.72767	-19
0.73133	-17
0.73500	-17
0.73867	-17
0.74233	-14
0.74600	-12
0.74967	-12
0.75333	-14
0.75700	-14
0.76067	-9
0.76433	-6
0.76800	-7
0.77167	-11
0.77533	-16
0.77900	-22
0.78267	-25
0.78633	-29
0.79000	-30
0.79367	-29
0.79733	-26
0.80100	-20
0.80467	-17
0.80833	-15
0.81200	-13
0.81567	-12
0.81933	-13
0.82300	-14
0.82667	-16
0.83033	-16
0.83400	-11
0.83767	-6
0.84133	-6
0.84500	-11
0.84867	-22
0.85233	-33
0.85600	-42
0.85967	-47
0.86333	-50
0.86700	-51
0.87067	-50
0.87433	-45
0.87800	-38
0.88167	-30
0.88533	-22
0.88900	-18
0.89267	-18
0.89633	-22
0.90000	-22
0.90367	-21
0.90733	-25
0.91100	-32
0.91467	-39
0.91833	-37
0.92200	-27
0.92567	-15
0.92933	-5
0.93300	-1
0.93667	2
0.94033	0
0.94400	-9
0.94767	-27
0.95133	-42
0.95500	-50
0.95867	-55
0.96233	-57
0.96600	-51
0.96967	-44
0.97333	-41
0.97700	-42
0.98067	-43
0.98433	-44
0.98800	-45
0.99167	-44
0.99533	-42
0.99900	-39
1.00267	-36
1.00633	-36
1.01000	-34
1.01367	-29
1.01733	-26
1.02100	-23
1.02467	-25
1.02833	-31
1.03200	-33
1.03567	-30
1.03933	-31
1.04300	-35
1.04667	-39
1.05033	-35
1.05400	-29
1.05767	-22
1.06133	-12
1.06500	-5
1.06867	-3
1.07233	-5
1.07600	-7
1.07967	-11
1.08333	-20
1.08700	-28
1.09067	-36
1.09433	-43
1.09800	-46
1.10167	-44
1.10533	-40
1.10900	-33
1.11267	-31
1.11633	-34
1.12000	-37
1.12367	-39
1.12733	-36
1.13100	-34
1.13467	-34
1.13833	-32
1.14200	-28
1.14567	-25
1.14933	-24
1.15300	-19
1.15667	-13
1.16033	-9
1.16400	-8
1.16767	-11
1.17133	-14
1.17500	-21
1.17867	-26
1.18233	-30
1.18600	-30
1.18967	-30
1.19333	-31
1.19700	-33
1.20067	-39
1.20433	-46
1.20800	-47
1.21167	-40
1.21533	-28
1.21900	-15
1.22267	-2
1.22633	3
1.23000	3
1.23367	-5
1.23733	-19
1.24100	-34
1.24467	-44
1.24833	-44
1.25200	-41
1.25567	-37
1.25933	-35
1.26300	-36
1.26667	-32
1.27033	-23
1.27400	-15
1.27767	-14
1.28133	-19
1.28500	-23
1.28867	-25
1.29233	-26
1.29600	-23
1.29967	-19
1.30333	-23
1.30700	-29
1.31067	-32
1.31433	-36
1.31800	-41
1.32167	-47
1.32533	-53
1.32900	-54
1.33267	-50
1.33633	-47
1.34000	-45
1.34367	-44
1.34733	-45
1.35100	-46
1.35467	-45
1.35833	-39
1.36200	-30
1.36567	-20
1.36933	-15
1.37300	-19
1.37667	-25
1.38033	-32
1.38400	-37
1.38767	-38
1.39133	-34
1.39500	-29
1.39867	-24
1.40233	-19
1.40600	-12
1.40967	-2
1.41333	3
1.41700	1
1.42067	-5
1.42433	-13
1.42800	-26
1.43167	-47
1.43533	-63
1.43900	-52
1.44267	45
1.44633	337
1.45000	1162
1.45367	3013
1.45733	5896
1.46100	9198
1.46467	12240
1.46833	14627
1.47200	16166
1.47567	16695
1.47933	16099
1.48300	14456
1.48667	12118
1.49033	9575
1.49400	7235
1.49767	5304
1.50133	3824
1.50500	2742
1.50867	1971
1.51233	1431
1.51600	1056
1.51967	793
1.52333	602
1.52700	467
1.53067	378
1.53433	321
1.53800	294
1.54167	338
1.54533	507
1.54900	814
1.55267	1199
1.55633	1584
1.56000	1905
1.56367	2127
1.56733	2217
1.57100	2148
1.57467	1919
1.57833	1586
1.58200	1225
1.58567	899
1.58933	638
1.59300	447
1.59667	312
1.60033	218
1.60400	155
1.60767	114
1.61133	85
1.61500	63
1.61867	53
1.62233	51
1.62600	52
1.62967	56
1.63333	59
1.63700	64
1.64067	65
1.64433	58
1.64800	50
1.65167	41
1.65533	34
1.65900	25
1.66267	12
1.66633	1
1.67000	-4
1.67367	-4
1.67733	-2
1.68100	2
1.68467	7
1.68833	7
1.69200	-0
1.69567	-9
1.69933	-13
1.70300	-14
1.70667	-13
1.71033	-12
1.71400	-11
1.71767	-9
1.72133	-11
1.72500	-12
1.72867	-12
1.73233	-13
1.73600	-14
1.73967	-17
1.74333	-20
1.74700	-21
1.75067	-17
1.75433	-12
1.75800	-12
1.76167	-13
1.76533	-13
1.76900	-16
1.77267	-19
1.77633	-17
1.78000	-15
1.78367	-14
1.78733	-14
1.79100	-13
1.79467	-14
1.79833	-17
1.80200	-21
1.80567	-31
1.80933	-40
1.81300	-41
1.81667	-36
1.82033	-28
1.82400	-23
1.82767	-25
1.83133	-31
1.83500	-35
1.83867	-33
1.84233	-27
1.84600	-24
1.84967	-25
1.85333	-29
1.85700	-30
1.86067	-27
1.86433	-24
1.86800	-19
1.87167	-13
1.87533	-6
1.87900	-3
1.88267	-1
1.88633	-4
1.89000	-14
1.89367	-18
1.89733	-12
1.90100	-3
1.90467	3
1.90833	4
1.91200	-1
1.91567	-14
1.91933	-27
1.92300	-37
1.92667	-44
1.93033	-50
1.93400	-50
1.93767	-43
1.94133	-29
1.94500	-14
1.94867	-6
1.95233	24
1.95600	256
1.95967	1637
1.96333	7849
1.96700	28896
1.97067	83414
1.97433	192388
1.97800	362475
1.98167	574088
1.98533	789413
1.98900	970092
1.99267	1088130
1.99633	1127814
2.00000	1087018
2.00367	978189
2.00733	825636
2.01100	657850
2.01467	499221
2.01833	364705
2.02200	259407
2.02567	181614
2.02933	126414
2.03300	88291
2.03667	62396
2.04033	44944
2.04400	33189
2.04767	25223
2.05133	19758
2.05500	15947
2.05867	13232
2.06233	11247
2.06600	9758
2.06967	8612
2.07333	7709
2.07700	6981
2.08067	6382
2.08433	5878
2.08800	5446
2.09167	5074
2.09533	4752
2.09900	4468
2.10267	4212
2.10633	3982
2.11000	3775
2.11367	3590
2.11733	3421
2.12100	3266
2.12467	3126
2.12833	2995
2.13200	2875
2.13567	2765
2.13933	2664
2.14300	2567
2.14667	2472
2.15033	2382
2.15400	2295
2.15767	2214
2.16133	2137
2.16500	2064
2.16867	1992
2.17233	1927
2.17600	1873
2.17967	1826
2.18333	1780
2.18700	1728
2.19067	1679
2.19433	1628
2.19800	1573
2.20167	1523
2.20533	1480
2.20900	1447
2.21267	1420
2.21633	1395
2.22000	1370
2.22367	1348
2.22733	1324
2.23100	1290
2.23467	1252
2.23833	1214
2.24200	1179
2.24567	1145
2.24933	1118
2.25300	1099
2.25667	1080
2.26033	1059
2.26400	1039
2.26767	1023
2.27133	1007
2.27500	991
2.27867	972
2.28233	956
2.28600	945
2.28967	931
2.29333	911
2.29700	892
2.30067	872
2.30433	855
2.30800	845
2.31167	841
2.31533	828
2.31900	809
2.32267	793
2.32633	775
2.33000	757
2.33367	740
2.33733	732
2.34100	727
2.34467	719
2.34833	712
2.35200	708
2.35567	706
2.35933	703
2.36300	695
2.36667	684
2.37033	673
2.37400	665
2.37767	660
2.38133	655
2.38500	655
2.38867	651
2.39233	644
2.39600	637
2.39967	625
2.40333	610
2.40700	593
2.41067	580
2.41433	571
2.41800	563
2.42167	554
2.42533	547
2.42900	545
2.43267	544
2.43633	544
2.44000	546
2.44367	545
2.44733	542
2.45100	538
2.45467	538
2.45833	538
2.46200	531
2.46567	520
2.46933	510
2.47300	503
2.47667	500
2.48033	502
2.48400	507
2.48767	510
2.49133	507
2.49500	502
2.49867	496
2.50233	491
2.50600	488
2.50967	486
2.51333	486
2.51700	484
2.52067	481
2.52433	481
2.52800	485
2.53167	488
2.53533	488
2.53900	483
2.54267	477
2.54633	473
2.55000	471
2.55367	469
2.55733	468
2.56100	467
2.56467	468
2.56833	470
2.57200	468
2.57567	466
2.57933	465
2.58300	464
2.58667	462
2.59033	460
2.59400	461
2.59767	464
2.60133	465
2.60500	461
2.60867	457
2.61233	457
2.61600	457
2.61967	455
2.62333	453
2.62700	451
2.63067	450
2.63433	450
2.63800	451
2.64167	452
2.64533	455
2.64900	461
2.65267	466
2.65633	468
2.66000	467
2.66367	464
2.66733	463
2.67100	465
2.67467	464
2.67833	460
2.68200	452
2.68567	447
2.68933	445
2.69300	445
2.69667	446
2.70033	446
2.70400	447
2.70767	449
2.71133	451
2.71500	445
2.71867	435
2.72233	426
2.72600	424
2.72967	427
2.73333	431
2.73700	434
2.74067	434
2.74433	434
2.74800	435
2.75167	436
2.75533	437
2.75900	437
2.76267	439
2.76633	444
2.77000	450
2.77367	452
2.77733	454
2.78100	458
2.78467	459
2.78833	456
2.79200	449
2.79567	442
2.79933	437
2.80300	435
2.80667	435
2.81033	436
2.81400	437
2.81767	434
2.82133	429
2.82500	427
2.82867	426
2.83233	421
2.83600	413
2.83967	407
2.84333	408
2.84700	411
2.85067	412
2.85433	415
2.85800	421
2.86167	432
2.86533	442
2.86900	448
2.87267	451
2.87633	452
2.88000	450
2.88367	448
2.88733	445
2.89100	441
2.89467	442
2.89833	449
2.90200	458
2.90567	461
2.90933	457
2.91300	451
2.91667	445
2.92033	438
2.92400	430
2.92767	427
2.93133	428
2.93500	429
2.93867	429
2.94233	426
2.94600	420
2.94967	418
2.95333	416
2.95700	415
2.96067	420
2.96433	427
2.96800	434
2.97167	444
2.97533	455
2.97900	463
2.98267	466
2.98633	467
2.99000	467
2.99367	464
2.99733	455
3.00100	443
3.00467	434
3.00833	427
3.01200	426
3.01567	429
3.01933	432
3.02300	438
3.02667	446
3.03033	450
3.03400	446
3.03767	442
3.04133	437
3.04500	428
3.04867	422
3.05233	423
3.05600	427
3.05967	433
3.06333	442
3.06700	448
3.07067	451
3.07433	454
3.07800	459
3.08167	461
3.08533	457
3.08900	447
3.09267	439
3.09633	433
3.10000	429
3.10367	428
3.10733	427
3.11100	428
3.11467	432
3.11833	438
3.12200	444
3.12567	448
3.12933	451
3.13300	454
3.13667	451
3.14033	441
3.14400	429
3.14767	420
3.15133	417
3.15500	417
3.15867	420
3.16233	428
3.16600	438
3.16967	447
3.17333	449
3.17700	444
3.18067	438
3.18433	434
3.18800	434
3.19167	437
3.19533	441
3.19900	444
3.20267	449
3.20633	450
3.21000	444
3.21367	434
3.21733	424
3.22100	415
3.22467	408
3.22833	402
3.23200	398
3.23567	401
3.23933	404
3.24300	408
3.24667	417
3.25033	427
3.25400	435
3.25767	443
3.26133	445
3.26500	442
3.26867	438
3.27233	435
3.27600	430
3.27967	429
3.28333	430
3.28700	429
3.29067	428
3.29433	430
3.29800	433
3.30167	435
3.30533	431
3.30900	426
3.31267	427
3.31633	430
3.32000	433
3.32367	435
3.32733	431
3.33100	428
3.33467	429
3.33833	432
3.34200	436
3.34567	437
3.34933	436
3.35300	434
3.35667	431
3.36033	431
3.36400	434
3.36767	439
3.37133	444
3.37500	446
3.37867	441
3.38233	436
3.38600	431
3.38967	425
3.39333	416
3.39700	406
3.40067	395
3.40433	385
3.40800	380
3.41167	377
3.41533	377
3.41900	380
3.42267	390
3.42633	401
3.43000	411
3.43367	414
3.43733	412
3.44100	410
3.44467	406
3.44833	402
3.45200	403
3.45567	408
3.45933	416
3.46300	417
3.46667	412
3.47033	404
3.47400	394
3.47767	386
3.48133	381
3.48500	381
3.48867	384
3.49233	385
3.49600	386
3.49967	390
3.50333	398
3.50700	402
3.51067	401
3.51433	397
3.51800	391
3.52167	384
3.52533	379
3.52900	377
3.53267	375
3.53633	375
3.54000	377
3.54367	379
3.54733	385
3.55100	389
3.55467	395
3.55833	398
3.56200	392
3.56567	380
3.56933	371
3.57300	373
3.57667	379
3.58033	381
3.58400	377
3.58767	373
3.59133	373
3.59500	376
3.59867	376
3.60233	375
3.60600	373
3.60967	375
3.61333	379
3.61700	384
3.62067	388
3.62433	388
3.62800	387
3.63167	385
3.63533	382
3.63900	377
3.64267	375
3.64633	371
3.65000	367
3.65367	361
3.65733	352
3.66100	346
3.66467	343
3.66833	344
3.67200	347
3.67567	351
3.67933	354
3.68300	357
3.68667	364
3.69033	369
3.69400	368
3.69767	360
3.70133	349
3.70500	338
3.70867	334
3.71233	337
3.71600	345
3.71967	353
3.72333	361
3.72700	367
3.73067	363
3.73433	353
3.73800	346
3.74167	345
3.74533	347
3.74900	348
3.75267	346
3.75633	341
3.76000	339
3.76367	340
3.76733	343
3.77100	346
3.77467	346
3.77833	345
3.78200	344
3.78567	343
3.78933	341
3.79300	338
3.79667	334
3.80033	330
3.80400	327
3.80767	326
3.81133	325
3.81500	327
3.81867	327
3.82233	323
3.82600	321
3.82967	323
3.83333	326
3.83700	329
3.84067	333
3.84433	337
3.84800	338
3.85167	337
3.85533	332
3.85900	327
3.86267	321
3.86633	316
3.87000	313
3.87367	311
3.87733	314
3.88100	317
3.88467	321
3.88833	325
3.89200	329
3.89567	334
3.89933	337
3.90300	338
3.90667	335
3.91033	329
3.91400	321
3.91767	314
3.92133	309
3.92500	305
3.92867	300
3.93233	298
3.93600	302
3.93967	309
3.94333	312
3.94700	310
3.95067	308
3.95433	308
3.95800	309
3.96167	313
3.96533	316
3.96900	313
3.97267	302
3.97633	288
3.98000	275
3.98367	263
3.98733	258
3.99100	261
3.99467	269
3.99833	275

[Chromatogram (Ch2)]
Interval(msec)	220
# of Points	1091
Start Time(min)	0.002
End Time(min)	3.998
R.Time (min)	Intensity
0.00167	0
0.00533	0
0.00900	0
0.01267	-0
0.01633	-0
0.02000	-1
0.02367	-1
0.02733	-1
0.03100	-2
0.03467	-2
0.03833	-2
0.04200	-2
0.04567	-3
0.04933	-3
0.05300	-3
0.05667	-3
0.06033	-3
0.06400	-3
0.06767	-4
0.07133	-4
0.07500	-4
0.07867	-3
0.08233	-3
0.08600	-3
0.08967	-2
0.09333	-2
0.09700	-2
0.10067	-1
0.10433	-1
0.10800	-0
0.11167	-0
0.11533	0
0.11900	0
0.12267	0
0.12633	0
0.13000	0
0.13367	0
0.13733	-0
0.14100	-0
0.14467	-0
0.14833	-0
0.15200	-0
0.15567	-0
0.15933	-1
0.16300	-1
0.16667	-1
0.17033	-1
0.17400	-1
0.17767	-1
0.18133	-1
0.18500	-1
0.18867	-1
0.19233	-1
0.19600	-0
0.19967	-0
0.20333	-0
0.20700	-1
0.21067	-1
0.21433	-1
0.21800	-1
0.22167	-1
0.22533	-0
0.22900	-0
0.23267	0
0.23633	0
0.24000	0
0.24367	0
0.24733	0
0.25100	0
0.25467	-0
0.25833	-1
0.26200	-1
0.26567	-2
0.26933	-2
0.27300	-3
0.27667	-3
0.28033	-4
0.28400	-4
0.28767	-5
0.29133	-5
0.29500	-5
0.29867	-5
0.30233	-5
0.30600	-5
0.30967	-4
0.31333	-4
0.31700	-4
0.32067	-4
0.32433	-4
0.32800	-5
0.33167	-5
0.33533	-5
0.33900	-5
0.34267	-5
0.34633	-5
0.35000	-4
0.35367	-4
0.35733	-4
0.36100	-4
0.36467	-4
0.36833	-4
0.37200	-4
0.37567	-4
0.37933	-4
0.38300	-4
0.38667	-4
0.39033	-3
0.39400	-3
0.39767	-3
0.40133	-3
0.40500	-3
0.40867	-3
0.41233	-3
0.41600	-3
0.41967	-3
0.42333	-3
0.42700	-3
0.43067	-3
0.43433	-3
0.43800	-3
0.44167	-3
0.44533	-4
0.44900	-4
0.45267	-4
0.45633	-4
0.46000	-4
0.46367	-4
0.46733	-4
0.47100	-4
0.47467	-4
0.47833	-4
0.48200	-4
0.48567	-4
0.48933	-3
0.49300	-3
0.49667	-3
0.50033	-3
0.50400	-3
0.50767	-2
0.51133	-2
0.51500	-2
0.51867	-2
0.52233	-2
0.52600	-2
0.52967	-2
0.53333	-2
0.53700	-2
0.54067	-2
0.54433	-2
0.54800	-2
0.55167	-2
0.55533	-2
0.55900	-3
0.56267	-3
0.56633	-3
0.57000	-3
0.57367	-4
0.57733	-4
0.58100	-4
0.58467	-4
0.58833	-3
0.59200	-3
0.59567	-3
0.59933	-3
0.60300	-3
0.60667	-3
0.61033	-3
0.61400	-2
0.61767	-2
0.62133	-2
0.62500	-2
0.62867	-2
0.63233	-2
0.63600	-2
0.63967	-2
0.64333	-1
0.64700	-1
0.65067	-1
0.65433	-1
0.65800	-2
0.66167	-2
0.66533	-2
0.66900	-2
0.67267	-2
0.67633	-2
0.68000	-2
0.68367	-2
0.68733	-2
0.69100	-2
0.69467	-2
0.69833	-2
0.70200	-2
0.70567	-2
0.70933	-2
0.71300	-1
0.71667	-1
0.72033	-1
0.72400	-1
0.72767	-2
0.73133	-2
0.73500	-2
0.73867	-3
0.74233	-4
0.74600	-4
0.74967	-5
0.75333	-5
0.75700	-5
0.76067	-5
0.76433	-5
0.76800	-5
0.77167	-5
0.77533	-5
0.77900	-5
0.78267	-5
0.78633	-5
0.79000	-5
0.79367	-5
0.79733	-5
0.80100	-5
0.80467	-5
0.80833	-5
0.81200	-5
0.81567	-4
0.81933	-4
0.82300	-4
0.82667	-4
0.83033	-4
0.83400	-4
0.83767	-4
0.84133	-4
0.84500	-4
0.84867	-4
0.85233	-4
0.85600	-3
0.85967	-3
0.86333	-3
0.86700	-3
0.87067	-3
0.87433	-3
0.87800	-3
0.88167	-4
0.88533	-4
0.88900	-4
0.89267	-4
0.89633	-4
0.90000	-4
0.90367	-5
0.90733	-5
0.91100	-5
0.91467	-5
0.91833	-5
0.92200	-4
0.92567	-4
0.92933	-4
0.93300	-4
0.93667	-5
0.94033	-4
0.94400	-4
0.94767	-4
0.95133	-4
0.95500	-4
0.95867	-4
0.96233	-5
0.96600	-5
0.96967	-6
0.97333	-6
0.97700	-6
0.98067	-6
0.98433	-5
0.98800	-5
0.99167	-5
0.99533	-4
0.99900	-4
1.00267	-4
1.00633	-4
1.01000	-4
1.01367	-4
1.01733	-3
1.02100	-3
1.02467	-3
1.02833	-3
1.03200	-4
1.03567	-4
1.03933	-4
1.04300	-4
1.04667	-4
1.05033	-4
1.05400	-4
1.05767	-4
1.06133	-4
1.06500	-4
1.06867	-4
1.07233	-5
1.07600	-5
1.07967	-5
1.08333	-5
1.08700	-4
1.09067	-4
1.09433	-4
1.09800	-4
1.10167	-4
1.10533	-4
1.10900	-4
1.11267	-4
1.11633	-4
1.12000	-4
1.12367	-4
1.12733	-4
1.13100	-4
1.13467	-4
1.13833	-4
1.14200	-4
1.14567	-4
1.14933	-4
1.15300	-3
1.15667	-3
1.16033	-3
1.16400	-3
1.16767	-3
1.17133	-2
1.17500	-2
1.17867	-2
1.18233	-2
1.18600	-3
1.18967	-3
1.19333	-3
1.19700	-3
1.20067	-3
1.20433	-3
1.20800	-3
1.21167	-3
1.21533	-3
1.21900	-3
1.22267	-3
1.22633	-4
1.23000	-4
1.23367	-4
1.23733	-4
1.24100	-3
1.24467	-3
1.24833	-3
1.25200	-3
1.25567	-3
1.25933	-3
1.26300	-3
1.26667	-3
1.27033	-4
1.27400	-5
1.27767	-5
1.28133	-6
1.28500	-6
1.28867	-6
1.29233	-6
1.29600	-6
1.29967	-6
1.30333	-6
1.30700	-6
1.31067	-7
1.31433	-6
1.31800	-6
1.32167	-6
1.32533	-5
1.32900	-5
1.33267	-5
1.33633	-4
1.34000	-4
1.34367	-4
1.34733	-4
1.35100	-3
1.35467	-3
1.35833	-3
1.36200	-3
1.36567	-3
1.36933	-3
1.37300	-3
1.37667	-3
1.38033	-3
1.38400	-3
1.38767	-3
1.39133	-3
1.39500	-3
1.39867	-3
1.40233	-3
1.40600	-4
1.40967	-4
1.41333	-4
1.41700	-4
1.42067	-4
1.42433	-4
1.42800	-5
1.43167	-5
1.43533	-5
1.43900	-5
1.44267	-5
1.44633	-5
1.45000	-5
1.45367	-5
1.45733	-5
1.46100	-6
1.46467	-6
1.46833	-6
1.47200	-6
1.47567	-7
1.47933	-7
1.48300	-8
1.48667	-8
1.49033	-9
1.49400	-9
1.49767	-9
1.50133	-9
1.50500	-10
1.50867	-10
1.51233	-10
1.51600	-10
1.51967	-9
1.52333	-9
1.52700	-9
1.53067	-8
1.53433	-8
1.53800	-8
1.54167	-7
1.54533	-7
1.54900	-6
1.55267	-6
1.55633	-5
1.56000	-5
1.56367	-4
1.56733	-4
1.57100	-4
1.57467	-4
1.57833	-4
1.58200	-4
1.58567	-4
1.58933	-4
1.59300	-4
1.59667	-5
1.60033	-6
1.60400	-7
1.60767	-9
1.61133	-11
1.61500	-13
1.61867	-16
1.62233	-19
1.62600	-22
1.62967	-25
1.63333	-28
1.63700	-31
1.64067	-34
1.64433	-38
1.64800	-41
1.65167	-44
1.65533	-48
1.65900	-51
1.66267	-55
1.66633	-60
1.67000	-64
1.67367	-69
1.67733	-74
1.68100	-79
1.68467	-84
1.68833	-88
1.69200	-92
1.69567	-96
1.69933	-99
1.70300	-101
1.70667	-103
1.71033	-105
1.71400	-106
1.71767	-108
1.72133	-109
1.72500	-109
1.72867	-110
1.73233	-111
1.73600	-111
1.73967	-111
1.74333	-111
1.74700	-112
1.75067	-112
1.75433	-112
1.75800	-112
1.76167	-113
1.76533	-114
1.76900	-114
1.77267	-115
1.77633	-116
1.78000	-116
1.78367	-116
1.78733	-115
1.79100	-115
1.79467	-114
1.79833	-114
1.80200	-113
1.80567	-113
1.80933	-113
1.81300	-114
1.81667	-114
1.82033	-115
1.82400	-115
1.82767	-116
1.83133	-116
1.83500	-117
1.83867	-117
1.84233	-117
1.84600	-117
1.84967	-117
1.85333	-118
1.85700	-118
1.86067	-118
1.86433	-117
1.86800	-117
1.87167	-117
1.87533	-117
1.87900	-117
1.88267	-117
1.88633	-117
1.89000	-118
1.89367	-118
1.89733	-118
1.90100	-118
1.90467	-118
1.90833	-118
1.91200	-118
1.91567	-118
1.91933	-118
1.92300	-118
1.92667	-118
1.93033	-117
1.93400	-116
1.93767	-115
1.94133	-115
1.94500	-114
1.94867	-114
1.95233	-113
1.95600	-113
1.95967	-113
1.96333	-113
1.96700	-113
1.97067	-113
1.97433	-113
1.97800	-113
1.98167	-113
1.98533	-114
1.98900	-114
1.99267	-114
1.99633	-114
2.00000	-113
2.00367	-112
2.00733	-112
2.01100	-111
2.01467	-111
2.01833	-110
2.02200	-110
2.02567	-109
2.02933	-109
2.03300	-108
2.03667	-108
2.04033	-107
2.04400	-106
2.04767	-106
2.05133	-106
2.05500	-105
2.05867	-105
2.06233	-105
2.06600	-104
2.06967	-104
2.07333	-103
2.07700	-103
2.08067	-103
2.08433	-103
2.08800	-103
2.09167	-102
2.09533	-102
2.09900	-102
2.10267	-101
2.10633	-101
2.11000	-101
2.11367	-101
2.11733	-100
2.12100	-100
2.12467	-100
2.12833	-100
2.13200	-99
2.13567	-99
2.13933	-99
2.14300	-98
2.14667	-99
2.15033	-99
2.15400	-99
2.15767	-99
2.16133	-99
2.16500	-98
2.16867	-97
2.17233	-96
2.17600	-96
2.17967	-96
2.18333	-95
2.18700	-95
2.19067	-95
2.19433	-95
2.19800	-95
2.20167	-96
2.20533	-96
2.20900	-96
2.21267	-96
2.21633	-95
2.22000	-95
2.22367	-94
2.22733	-93
2.23100	-93
2.23467	-92
2.23833	-92
2.24200	-92
2.24567	-92
2.24933	-91
2.25300	-91
2.25667	-90
2.26033	-89
2.26400	-89
2.26767	-88
2.27133	-88
2.27500	-88
2.27867	-88
2.28233	-88
2.28600	-88
2.28967	-88
2.29333	-87
2.29700	-87
2.30067	-87
2.30433	-87
2.30800	-86
2.31167	-86
2.31533	-86
2.31900	-85
2.32267	-84
2.32633	-84
2.33000	-83
2.33367	-82
2.33733	-81
2.34100	-81
2.34467	-80
2.34833	-79
2.35200	-78
2.35567	-78
2.35933	-77
2.36300	-76
2.36667	-75
2.37033	-74
2.37400	-72
2.37767	-70
2.38133	-67
2.38500	-63
2.38867	-59
2.39233	-55
2.39600	-50
2.39967	-46
2.40333	-41
2.40700	-37
2.41067	-33
2.41433	-29
2.41800	-26
2.42167	-24
2.42533	-21
2.42900	-19
2.43267	-17
2.43633	-15
2.44000	-14
2.44367	-12
2.44733	-11
2.45100	-10
2.45467	-9
2.45833	-8
2.46200	-8
2.46567	-7
2.46933	-6
2.47300	-6
2.47667	-5
2.48033	-4
2.48400	-3
2.48767	-2
2.49133	-1
2.49500	0
2.49867	1
2.50233	1
2.50600	2
2.50967	2
2.51333	3
2.51700	4
2.52067	6
2.52433	7
2.52800	8
2.53167	8
2.53533	8
2.53900	8
2.54267	8
2.54633	8
2.55000	8
2.55367	8
2.55733	8
2.56100	9
2.56467	10
2.56833	11
2.57200	12
2.57567	12
2.57933	13
2.58300	13
2.58667	14
2.59033	14
2.59400	14
2.59767	14
2.60133	14
2.60500	13
2.60867	14
2.61233	14
2.61600	14
2.61967	15
2.62333	15
2.62700	15
2.63067	15
2.63433	15
2.63800	15
2.64167	15
2.64533	15
2.64900	15
2.65267	15
2.65633	16
2.66000	16
2.66367	17
2.66733	17
2.67100	18
2.67467	18
2.67833	19
2.68200	19
2.68567	19
2.68933	19
2.69300	19
2.69667	19
2.70033	19
2.70400	19
2.70767	19
2.71133	19
2.71500	19
2.71867	19
2.72233	19
2.72600	20
2.72967	20
2.73333	21
2.73700	21
2.74067	21
2.74433	22
2.74800	22
2.75167	22
2.75533	22
2.75900	22
2.76267	21
2.76633	21
2.77000	22
2.77367	22
2.77733	22
2.78100	23
2.78467	23
2.78833	23
2.79200	23
2.79567	23
2.79933	24
2.80300	24
2.80667	24
2.81033	24
2.81400	24
2.81767	24
2.82133	24
2.82500	24
2.82867	24
2.83233	23
2.83600	23
2.83967	22
2.84333	20
2.84700	16
2.85067	11
2.85433	3
2.85800	-8
2.86167	-23
2.86533	-42
2.86900	-65
2.87267	-93
2.87633	-125
2.88000	-161
2.88367	-201
2.88733	-245
2.89100	-291
2.89467	-341
2.89833	-392
2.90200	-445
2.90567	-499
2.90933	-554
2.91300	-609
2.91667	-664
2.92033	-718
2.92400	-771
2.92767	-823
2.93133	-875
2.93500	-930
2.93867	-989
2.94233	-1045
2.94600	-1085
2.94967	-1103
2.95333	-1094
2.95700	-1061
2.96067	-1008
2.96433	-941
2.96800	-865
2.97167	-784
2.97533	-704
2.97900	-626
2.98267	-552
2.98633	-484
2.99000	-421
2.99367	-365
2.99733	-315
3.00100	-271
3.00467	-232
3.00833	-198
3.01200	-169
3.01567	-143
3.01933	-121
3.02300	-102
3.02667	-86
3.03033	-72
3.03400	-60
3.03767	-50
3.04133	-41
3.04500	-34
3.04867	-27
3.05233	-22
3.05600	-17
3.05967	-13
3.06333	-10
3.06700	-7
3.07067	-4
3.07433	-2
3.07800	0
3.08167	2
3.08533	4
3.08900	5
3.09267	6
3.09633	7
3.10000	8
3.10367	9
3.10733	10
3.11100	11
3.11467	11
3.11833	11
3.12200	12
3.12567	12
3.12933	13
3.13300	13
3.13667	14
3.14033	14
3.14400	15
3.14767	15
3.15133	15
3.15500	15
3.15867	15
3.16233	16
3.16600	16
3.16967	16
3.17333	16
3.17700	16
3.18067	17
3.18433	17
3.18800	17
3.19167	17
3.19533	17
3.19900	17
3.20267	17
3.20633	18
3.21000	18
3.21367	18
3.21733	18
3.22100	18
3.22467	18
3.22833	18
3.23200	18
3.23567	19
3.23933	19
3.24300	19
3.24667	20
3.25033	20
3.25400	20
3.25767	21
3.26133	21
3.26500	21
3.26867	22
3.27233	22
3.27600	23
3.27967	23
3.28333	23
3.28700	23
3.29067	23
3.29433	23
3.29800	23
3.30167	23
3.30533	24
3.30900	24
3.31267	24
3.31633	24
3.32000	24
3.32367	23
3.32733	23
3.33100	23
3.33467	23
3.33833	23
3.34200	23
3.34567	23
3.34933	23
3.35300	23
3.35667	23
3.36033	22
3.36400	22
3.36767	22
3.37133	22
3.37500	22
3.37867	22
3.38233	22
3.38600	22
3.38967	22
3.39333	22
3.39700	22
3.40067	23
3.40433	23
3.40800	23
3.41167	23
3.41533	23
3.41900	23
3.42267	23
3.42633	23
3.43000	24
3.43367	24
3.43733	24
3.44100	24
3.44467	24
3.44833	24
3.45200	24
3.45567	24
3.45933	24
3.46300	24
3.46667	24
3.47033	24
3.47400	23
3.47767	23
3.48133	23
3.48500	23
3.48867	23
3.49233	23
3.49600	23
3.49967	23
3.50333	23
3.50700	23
3.51067	23
3.51433	23
3.51800	23
3.52167	23
3.52533	24
3.52900	24
3.53267	24
3.53633	24
3.54000	24
3.54367	24
3.54733	24
3.55100	24
3.55467	24
3.55833	24
3.56200	24
3.56567	25
3.56933	24
3.57300	24
3.57667	24
3.58033	24
3.58400	25
3.58767	25
3.59133	25
3.59500	25
3.59867	25
3.60233	25
3.60600	25
3.60967	25
3.61333	24
3.61700	24
3.62067	24
3.62433	24
3.62800	24
3.63167	23
3.63533	23
3.63900	23
3.64267	23
3.64633	23
3.65000	23
3.65367	24
3.65733	24
3.66100	24
3.66467	24
3.66833	24
3.67200	24
3.67567	24
3.67933	24
3.68300	25
3.68667	25
3.69033	25
3.69400	25
3.69767	25
3.70133	25
3.70500	25
3.70867	25
3.71233	25
3.71600	25
3.71967	24
3.72333	24
3.72700	24
3.73067	24
3.73433	24
3.73800	24
3.74167	24
3.74533	24
3.74900	24
3.75267	24
3.75633	24
3.76000	24
3.76367	24
3.76733	24
3.77100	24
3.77467	24
3.77833	24
3.78200	24
3.78567	25
3.78933	25
3.79300	25
3.79667	25
3.80033	25
3.80400	25
3.80767	25
3.81133	25
3.81500	25
3.81867	25
3.82233	25
3.82600	25
3.82967	25
3.83333	25
3.83700	25
3.84067	25
3.84433	24
3.84800	24
3.85167	24
3.85533	24
3.85900	24
3.86267	24
3.86633	23
3.87000	23
3.87367	23
3.87733	23
3.88100	23
3.88467	23
3.88833	23
3.89200	24
3.89567	24
3.89933	24
3.90300	24
3.90667	24
3.91033	24
3.91400	25
3.91767	25
3.92133	25
3.92500	25
3.92867	25
3.93233	25
3.93600	25
3.93967	25
3.94333	25
3.94700	25
3.95067	25
3.95433	25
3.95800	25
3.96167	24
3.96533	24
3.96900	23
3.97267	23
3.97633	23
3.98000	23
3.98367	23
3.98733	23
3.99100	23
3.99467	23
3.99833	23

[Chromatogram (Ch3)]
Interval(msec)	220
# of Points	1091
Start Time(min)	0.002
End Time(min)	3.998
R.Time (min)	Intensity
0.00167	1
0.00533	1
0.00900	0
0.01267	-0
0.01633	0
0.02000	-0
0.02367	0
0.02733	-0
0.03100	-0
0.03467	-1
0.03833	1
0.04200	4
0.04567	6
0.04933	7
0.05300	10
0.05667	8
0.06033	8
0.06400	10
0.06767	10
0.07133	8
0.07500	6
0.07867	4
0.08233	2
0.08600	3
0.08967	6
0.09333	9
0.09700	13
0.10067	13
0.10433	12
0.10800	10
0.11167	9
0.11533	7
0.11900	3
0.12267	2
0.12633	3
0.13000	4
0.13367	4
0.13733	4
0.14100	4
0.14467	4
0.14833	5
0.15200	7
0.15567	7
0.15933	7
0.16300	4
0.16667	1
0.17033	2
0.17400	3
0.17767	5
0.18133	5
0.18500	3
0.18867	2
0.19233	4
0.19600	5
0.19967	5
0.20333	5
0.20700	4
0.21067	5
0.21433	4
0.21800	3
0.22167	4
0.22533	5
0.22900	7
0.23267	8
0.23633	6
0.24000	3
0.24367	1
0.24733	2
0.25100	2
0.25467	4
0.25833	4
0.26200	3
0.26567	2
0.26933	1
0.27300	-1
0.27667	0
0.28033	-0
0.28400	-1
0.28767	-1
0.29133	2
0.29500	3
0.29867	2
0.30233	1
0.30600	1
0.30967	-1
0.31333	-2
0.31700	-2
0.32067	-1
0.32433	-0
0.32800	0
0.33167	1
0.33533	4
0.33900	6
0.34267	6
0.34633	6
0.35000	5
0.35367	5
0.35733	4
0.36100	1
0.36467	1
0.36833	2
0.37200	2
0.37567	3
0.37933	2
0.38300	1
0.38667	2
0.39033	2
0.39400	4
0.39767	5
0.40133	7
0.40500	9
0.40867	9
0.41233	7
0.41600	5
0.41967	5
0.42333	5
0.42700	4
0.43067	5
0.43433	5
0.43800	5
0.44167	4
0.44533	5
0.44900	7
0.45267	5
0.45633	3
0.46000	3
0.46367	2
0.46733	4
0.47100	5
0.47467	7
0.47833	7
0.48200	5
0.48567	5
0.48933	4
0.49300	4
0.49667	2
0.50033	-0
0.50400	1
0.50767	3
0.51133	6
0.51500	6
0.51867	5
0.52233	5
0.52600	6
0.52967	6
0.53333	5
0.53700	2
0.54067	-0
0.54433	-0
0.54800	0
0.55167	-1
0.55533	-2
0.55900	-1
0.56267	-1
0.56633	-2
0.57000	-2
0.57367	-2
0.57733	0
0.58100	3
0.58467	4
0.58833	3
0.59200	2
0.59567	3
0.59933	6
0.60300	8
0.60667	7
0.61033	7
0.61400	7
0.61767	6
0.62133	4
0.62500	4
0.62867	4
0.63233	5
0.63600	6
0.63967	7
0.64333	8
0.64700	6
0.65067	5
0.65433	4
0.65800	3
0.66167	4
0.66533	3
0.66900	2
0.67267	2
0.67633	3
0.68000	4
0.68367	5
0.68733	7
0.69100	7
0.69467	6
0.69833	5
0.70200	3
0.70567	1
0.70933	1
0.71300	2
0.71667	4
0.72033	6
0.72400	7
0.72767	6
0.73133	5
0.73500	6
0.73867	6
0.74233	8
0.74600	11
0.74967	12
0.75333	10
0.75700	8
0.76067	6
0.76433	7
0.76800	9
0.77167	10
0.77533	9
0.77900	9
0.78267	9
0.78633	11
0.79000	11
0.79367	9
0.79733	7
0.80100	7
0.80467	8
0.80833	8
0.81200	10
0.81567	12
0.81933	14
0.82300	15
0.82667	14
0.83033	14
0.83400	12
0.83767	12
0.84133	13
0.84500	13
0.84867	13
0.85233	11
0.85600	11
0.85967	9
0.86333	7
0.86700	8
0.87067	11
0.87433	14
0.87800	16
0.88167	15
0.88533	13
0.88900	12
0.89267	12
0.89633	11
0.90000	10
0.90367	9
0.90733	8
0.91100	9
0.91467	9
0.91833	8
0.92200	10
0.92567	11
0.92933	13
0.93300	14
0.93667	16
0.94033	16
0.94400	15
0.94767	14
0.95133	15
0.95500	15
0.95867	18
0.96233	17
0.96600	15
0.96967	15
0.97333	14
0.97700	13
0.98067	11
0.98433	8
0.98800	7
0.99167	8
0.99533	9
0.99900	9
1.00267	9
1.00633	9
1.01000	8
1.01367	8
1.01733	11
1.02100	12
1.02467	12
1.02833	10
1.03200	10
1.03567	11
1.03933	12
1.04300	12
1.04667	12
1.05033	12
1.05400	13
1.05767	12
1.06133	11
1.06500	10
1.06867	10
1.07233	10
1.07600	10
1.07967	9
1.08333	9
1.08700	12
1.09067	14
1.09433	13
1.09800	15
1.10167	17
1.10533	16
1.10900	15
1.11267	16
1.11633	16
1.12000	12
1.12367	11
1.12733	11
1.13100	11
1.13467	12
1.13833	13
1.14200	12
1.14567	11
1.14933	13
1.15300	13
1.15667	15
1.16033	15
1.16400	13
1.16767	11
1.17133	11
1.17500	12
1.17867	11
1.18233	11
1.18600	12
1.18967	13
1.19333	14
1.19700	13
1.20067	11
1.20433	10
1.20800	10
1.21167	10
1.21533	13
1.21900	15
1.22267	15
1.22633	14
1.23000	12
1.23367	11
1.23733	10
1.24100	9
1.24467	10
1.24833	10
1.25200	11
1.25567	11
1.25933	11
1.26300	12
1.26667	11
1.27033	11
1.27400	12
1.27767	12
1.28133	11
1.28500	10
1.28867	9
1.29233	8
1.29600	8
1.29967	9
1.30333	8
1.30700	7
1.31067	8
1.31433	10
1.31800	11
1.32167	11
1.32533	11
1.32900	10
1.33267	10
1.33633	12
1.34000	14
1.34367	15
1.34733	16
1.35100	15
1.35467	13
1.35833	11
1.36200	12
1.36567	12
1.36933	10
1.37300	10
1.37667	9
1.38033	9
1.38400	7
1.38767	6
1.39133	7
1.39500	8
1.39867	8
1.40233	9
1.40600	10
1.40967	13
1.41333	15
1.41700	14
1.42067	13
1.42433	12
1.42800	11
1.43167	10
1.43533	10
1.43900	9
1.44267	10
1.44633	10
1.45000	11
1.45367	12
1.45733	12
1.46100	14
1.46467	13
1.46833	12
1.47200	11
1.47567	10
1.47933	9
1.48300	10
1.48667	8
1.49033	9
1.49400	12
1.49767	13
1.50133	13
1.50500	14
1.50867	16
1.51233	17
1.51600	16
1.51967	16
1.52333	18
1.52700	19
1.53067	19
1.53433	19
1.53800	17
1.54167	15
1.54533	17
1.54900	18
1.55267	17
1.55633	15
1.56000	15
1.56367	15
1.56733	15
1.57100	14
1.57467	14
1.57833	15
1.58200	15
1.58567	14
1.58933	15
1.59300	16
1.59667	15
1.60033	15
1.60400	15
1.60767	15
1.61133	16
1.61500	18
1.61867	21
1.62233	20
1.62600	18
1.62967	17
1.63333	17
1.63700	19
1.64067	21
1.64433	22
1.64800	22
1.65167	21
1.65533	18
1.65900	16
1.66267	17
1.66633	17
1.67000	17
1.67367	19
1.67733	20
1.68100	20
1.68467	19
1.68833	19
1.69200	22
1.69567	23
1.69933	23
1.70300	22
1.70667	21
1.71033	19
1.71400	19
1.71767	18
1.72133	16
1.72500	17
1.72867	19
1.73233	21
1.73600	21
1.73967	21
1.74333	25
1.74700	27
1.75067	28
1.75433	27
1.75800	26
1.76167	27
1.76533	28
1.76900	29
1.77267	28
1.77633	28
1.78000	26
1.78367	25
1.78733	26
1.79100	27
1.79467	28
1.79833	27
1.80200	25
1.80567	24
1.80933	24
1.81300	26
1.81667	27
1.82033	29
1.82400	29
1.82767	31
1.83133	34
1.83500	35
1.83867	35
1.84233	36
1.84600	36
1.84967	32
1.85333	30
1.85700	30
1.86067	31
1.86433	33
1.86800	37
1.87167	41
1.87533	42
1.87900	41
1.88267	40
1.88633	38
1.89000	36
1.89367	36
1.89733	37
1.90100	36
1.90467	35
1.90833	36
1.91200	38
1.91567	39
1.91933	39
1.92300	40
1.92667	40
1.93033	39
1.93400	38
1.93767	39
1.94133	39
1.94500	38
1.94867	40
1.95233	42
1.95600	44
1.95967	45
1.96333	47
1.96700	47
1.97067	47
1.97433	49
1.97800	52
1.98167	53
1.98533	52
1.98900	53
1.99267	51
1.99633	50
2.00000	51
2.00367	54
2.00733	56
2.01100	59
2.01467	60
2.01833	59
2.02200	58
2.02567	59
2.02933	59
2.03300	60
2.03667	60
2.04033	59
2.04400	59
2.04767	59
2.05133	61
2.05500	64
2.05867	66
2.06233	67
2.06600	65
2.06967	64
2.07333	62
2.07700	62
2.08067	63
2.08433	66
2.08800	68
2.09167	67
2.09533	67
2.09900	67
2.10267	69
2.10633	73
2.11000	75
2.11367	76
2.11733	77
2.12100	76
2.12467	74
2.12833	73
2.13200	75
2.13567	77
2.13933	80
2.14300	80
2.14667	78
2.15033	77
2.15400	79
2.15767	82
2.16133	82
2.16500	82
2.16867	82
2.17233	84
2.17600	88
2.17967	91
2.18333	95
2.18700	95
2.19067	97
2.19433	98
2.19800	98
2.20167	98
2.20533	98
2.20900	97
2.21267	97
2.21633	98
2.22000	100
2.22367	102
2.22733	103
2.23100	101
2.23467	99
2.23833	98
2.24200	100
2.24567	104
2.24933	108
2.25300	112
2.25667	117
2.26033	119
2.26400	121
2.26767	121
2.27133	122
2.27500	122
2.27867	122
2.28233	125
2.28600	127
2.28967	128
2.29333	128
2.29700	129
2.30067	130
2.30433	131
2.30800	135
2.31167	136
2.31533	136
2.31900	137
2.32267	140
2.32633	142
2.33000	144
2.33367	147
2.33733	150
2.34100	150
2.34467	150
2.34833	151
2.35200	153
2.35567	155
2.35933	156
2.36300	157
2.36667	156
2.37033	156
2.37400	157
2.37767	160
2.38133	164
2.38500	165
2.38867	165
2.39233	166
2.39600	167
2.39967	170
2.40333	174
2.40700	176
2.41067	179
2.41433	183
2.41800	188
2.42167	192
2.42533	194
2.42900	196
2.43267	198
2.43633	201
2.44000	207
2.44367	254
2.44733	372
2.45100	501
2.45467	607
2.45833	674
2.46200	691
2.46567	669
2.46933	638
2.47300	614
2.47667	600
2.48033	595
2.48400	587
2.48767	568
2.49133	536
2.49500	499
2.49867	468
2.50233	444
2.50600	426
2.50967	415
2.51333	408
2.51700	408
2.52067	412
2.52433	422
2.52800	437
2.53167	452
2.53533	465
2.53900	472
2.54267	470
2.54633	463
2.55000	447
2.55367	427
2.55733	407
2.56100	392
2.56467	378
2.56833	367
2.57200	358
2.57567	352
2.57933	348
2.58300	344
2.58667	342
2.59033	342
2.59400	339
2.59767	333
2.60133	327
2.60500	312
2.60867	295
2.61233	276
2.61600	253
2.61967	230
2.62333	209
2.62700	191
2.63067	181
2.63433	175
2.63800	174
2.64167	175
2.64533	178
2.64900	183
2.65267	189
2.65633	200
2.66000	212
2.66367	220
2.66733	229
2.67100	236
2.67467	240
2.67833	245
2.68200	248
2.68567	249
2.68933	246
2.69300	244
2.69667	241
2.70033	237
2.70400	233
2.70767	229
2.71133	227
2.71500	225
2.71867	222
2.72233	218
2.72600	218
2.72967	218
2.73333	220
2.73700	224
2.74067	225
2.74433	226
2.74800	226
2.75167	228
2.75533	230
2.75900	232
2.76267	234
2.76633	236
2.77000	235
2.77367	232
2.77733	234
2.78100	235
2.78467	235
2.78833	235
2.79200	238
2.79567	240
2.79933	240
2.80300	240
2.80667	242
2.81033	244
2.81400	246
2.81767	249
2.82133	255
2.82500	276
2.82867	322
2.83233	414
2.83600	575
2.83967	826
2.84333	1181
2.84700	1647
2.85067	2207
2.85433	2826
2.85800	3462
2.86167	4059
2.86533	4572
2.86900	4962
2.87267	5202
2.87633	5289
2.88000	5232
2.88367	5058
2.88733	4791
2.89100	4464
2.89467	4104
2.89833	3738
2.90200	3375
2.90567	3025
2.90933	2699
2.91300	2402
2.91667	2135
2.92033	1895
2.92400	1683
2.92767	1498
2.93133	1336
2.93500	1194
2.93867	1071
2.94233	963
2.94600	868
2.94967	785
2.95333	716
2.95700	657
2.96067	605
2.96433	558
2.96800	518
2.97167	483
2.97533	452
2.97900	425
2.98267	402
2.98633	383
2.99000	366
2.99367	350
2.99733	336
3.00100	322
3.00467	308
3.00833	298
3.01200	291
3.01567	286
3.01933	280
3.02300	273
3.02667	265
3.03033	257
3.03400	249
3.03767	245
3.04133	242
3.04500	239
3.04867	236
3.05233	231
3.05600	226
3.05967	224
3.06333	222
3.06700	217
3.07067	212
3.07433	209
3.07800	205
3.08167	202
3.08533	200
3.08900	200
3.09267	201
3.09633	199
3.10000	198
3.10367	197
3.10733	197
3.11100	198
3.11467	197
3.11833	194
3.12200	191
3.12567	187
3.12933	185
3.13300	186
3.13667	187
3.14033	187
3.14400	187
3.14767	187
3.15133	186
3.15500	184
3.15867	184
3.16233	185
3.16600	185
3.16967	182
3.17333	181
3.17700	180
3.18067	181
3.18433	183
3.18800	185
3.19167	185
3.19533	187
3.19900	187
3.20267	187
3.20633	187
3.21000	187
3.21367	189
3.21733	191
3.22100	194
3.22467	196
3.22833	198
3.23200	197
3.23567	194
3.23933	194
3.24300	195
3.24667	194
3.25033	194
3.25400	194
3.25767	193
3.26133	191
3.26500	189
3.26867	189
3.27233	189
3.27600	188
3.27967	188
3.28333	187
3.28700	186
3.29067	189
3.29433	189
3.29800	186
3.30167	184
3.30533	184
3.30900	184
3.31267	184
3.31633	184
3.32000	185
3.32367	184
3.32733	184
3.33100	184
3.33467	182
3.33833	183
3.34200	184
3.34567	185
3.34933	185
3.35300	186
3.35667	187
3.36033	186
3.36400	186
3.36767	186
3.37133	187
3.37500	187
3.37867	185
3.38233	183
3.38600	183
3.38967	184
3.39333	186
3.39700	186
3.40067	188
3.40433	189
3.40800	187
3.41167	186
3.41533	185
3.41900	185
3.42267	187
3.42633	187
3.43000	189
3.43367	190
3.43733	189
3.44100	187
3.44467	189
3.44833	189
3.45200	189
3.45567	189
3.45933	189
3.46300	191
3.46667	193
3.47033	193
3.47400	194
3.47767	193
3.48133	194
3.48500	194
3.48867	192
3.49233	192
3.49600	192
3.49967	194
3.50333	195
3.50700	194
3.51067	196
3.51433	199
3.51800	200
3.52167	199
3.52533	201
3.52900	202
3.53267	203
3.53633	206
3.54000	207
3.54367	206
3.54733	205
3.55100	205
3.55467	207
3.55833	210
3.56200	211
3.56567	210
3.56933	210
3.57300	205
3.57667	193
3.58033	184
3.58400	181
3.58767	185
3.59133	193
3.59500	205
3.59867	218
3.60233	233
3.60600	250
3.60967	264
3.61333	279
3.61700	294
3.62067	307
3.62433	323
3.62800	337
3.63167	351
3.63533	364
3.63900	374
3.64267	385
3.64633	396
3.65000	406
3.65367	412
3.65733	417
3.66100	420
3.66467	423
3.66833	426
3.67200	429
3.67567	434
3.67933	436
3.68300	438
3.68667	443
3.69033	446
3.69400	447
3.69767	450
3.70133	451
3.70500	452
3.70867	455
3.71233	457
3.71600	460
3.71967	464
3.72333	466
3.72700	466
3.73067	467
3.73433	467
3.73800	465
3.74167	465
3.74533	467
3.74900	468
3.75267	470
3.75633	471
3.76000	471
3.76367	470
3.76733	470
3.77100	470
3.77467	469
3.77833	468
3.78200	466
3.78567	466
3.78933	467
3.79300	466
3.79667	466
3.80033	466
3.80400	466
3.80767	467
3.81133	466
3.81500	465
3.81867	466
3.82233	464
3.82600	462
3.82967	460
3.83333	460
3.83700	461
3.84067	459
3.84433	458
3.84800	459
3.85167	462
3.85533	464
3.85900	464
3.86267	464
3.86633	463
3.87000	463
3.87367	462
3.87733	460
3.88100	458
3.88467	457
3.88833	458
3.89200	458
3.89567	458
3.89933	458
3.90300	457
3.90667	457
3.91033	458
3.91400	460
3.91767	459
3.92133	458
3.92500	456
3.92867	455
3.93233	456
3.93600	460
3.93967	464
3.94333	468
3.94700	468
3.95067	467
3.95433	467
3.95800	467
3.96167	467
3.96533	465
3.96900	464
3.97267	463
3.97633	464
3.98000	467
3.98367	470
3.98733	471
3.99100	470
3.99467	469
3.99833	464

[Status Trace (Column Oven Temperature)]
Interval(msec)	1000
# of Points	240
Start Time(min)	0.013
End Time(min)	3.996
Intensity Units	
Intensity Multiplier	1
R.Time (min)	Intensity
0.01262	35.04
0.02928	35.04
0.04595	35.05
0.06262	35.06
0.07928	35.06
0.09595	35.05
0.11262	35.04
0.12928	35.03
0.14595	35.02
0.16262	35.02
0.17928	35.01
0.19595	35.01
0.21262	34.99
0.22928	34.98
0.24595	34.98
0.26262	34.98
0.27928	35.00
0.29595	35.01
0.31262	35.01
0.32928	35.02
0.34595	35.03
0.36262	35.03
0.37928	35.02
0.39595	35.01
0.41262	35.00
0.42928	35.01
0.44595	35.01
0.46262	35.01
0.47928	35.01
0.49595	35.01
0.51262	35.00
0.52928	35.00
0.54595	35.01
0.56262	35.02
0.57928	35.03
0.59595	35.03
0.61262	35.02
0.62928	35.01
0.64595	35.01
0.66262	35.00
0.67928	35.00
0.69595	34.99
0.71262	34.98
0.72928	34.99
0.74595	35.00
0.76262	35.01
0.77928	35.02
0.79595	35.02
0.81262	35.02
0.82928	35.01
0.84595	35.00
0.86262	34.99
0.87928	35.00
0.89595	35.00
0.91262	35.00
0.92928	35.00
0.94595	35.00
0.96262	35.00
0.97928	35.00
0.99595	35.00
1.01262	34.99
1.02928	34.99
1.04595	35.00
1.06262	35.00
1.07928	35.00
1.09595	34.99
1.11262	34.99
1.12928	34.99
1.14595	34.98
1.16262	34.98
1.17928	34.96
1.19595	34.96
1.21262	34.96
1.22928	34.96
1.24595	34.96
1.26262	34.97
1.27928	34.98
1.29595	34.99
1.31262	34.99
1.32928	34.98
1.34595	34.97
1.36262	34.97
1.37928	34.97
1.39595	34.97
1.41262	34.96
1.42928	34.97
1.44595	34.96
1.46262	34.97
1.47928	34.98
1.49595	35.00
1.51262	35.01
1.52928	35.01
1.54595	35.00
1.56262	34.99
1.57928	34.98
1.59595	35.00
1.61262	35.08
1.62928	35.23
1.64595	35.43
1.66262	35.70
1.67928	36.06
1.69595	36.43
1.71262	36.78
1.72928	37.12
1.74595	37.44
1.76262	37.79
1.77928	38.12
1.79595	38.41
1.81262	38.75
1.82928	39.09
1.84595	39.42
1.86262	39.74
1.87928	40.07
1.89595	40.41
1.91262	40.75
1.92928	41.08
1.94595	41.41
1.96262	41.73
1.97928	42.06
1.99595	42.39
2.01262	42.72
2.02928	43.05
2.04595	43.37
2.06262	43.70
2.07928	44.03
2.09595	44.34
2.11262	44.67
2.12928	44.98
2.14595	45.34
2.16262	45.67
2.17928	45.97
2.19595	46.32
2.21262	46.66
2.22928	46.98
2.24595	47.31
2.26262	47.62
2.27928	47.96
2.29595	48.29
2.31262	48.62
2.32928	48.93
2.34595	49.23
2.36262	49.52
2.37928	49.69
2.39595	49.72
2.41262	49.73
2.42928	49.72
2.44595	49.72
2.46262	49.74
2.47928	49.73
2.49595	49.75
2.51262	49.77
2.52928	49.78
2.54595	49.82
2.56262	49.82
2.57928	49.81
2.59595	49.81
2.61262	49.82
2.62928	49.82
2.64595	49.83
2.66262	49.83
2.67928	49.83
2.69595	49.85
2.71262	49.86
2.72928	49.85
2.74595	49.85
2.76262	49.86
2.77928	49.86
2.79595	49.86
2.81262	49.85
2.82928	49.87
2.84595	49.88
2.86262	49.89
2.87928	49.89
2.89595	49.89
2.91262	49.91
2.92928	49.93
2.94595	49.95
2.96262	49.96
2.97928	49.97
2.99595	49.99
3.01262	50.00
3.02928	50.02
3.04595	50.03
3.06262	50.05
3.07928	50.06
3.09595	50.06
3.11262	50.08
3.12928	50.08
3.14595	50.09
3.16262	50.08
3.17928	50.08
3.19595	50.09
3.21262	50.10
3.22928	50.11
3.24595	50.11
3.26262	50.09
3.27928	50.08
3.29595	50.07
3.31262	50.07
3.32928	50.06
3.34595	50.07
3.36262	50.07
3.37928	50.07
3.39595	50.08
3.41262	50.08
3.42928	50.07
3.44595	50.07
3.46262	50.07
3.47928	50.08
3.49595	50.09
3.51262	50.09
3.52928	50.09
3.54595	50.09
3.56262	50.08
3.57928	50.09
3.59595	50.08
3.61262	50.09
3.62928	50.08
3.64595	50.08
3.66262	50.08
3.67928	50.08
3.69595	50.08
3.71262	50.08
3.72928	50.08
3.74595	50.08
3.76262	50.08
3.77928	50.08
3.79595	50.07
3.81262	50.07
3.82928	50.07
3.84595	50.07
3.86262	50.08
3.87928	50.07
3.89595	50.07
3.91262	50.06
3.92928	50.05
3.94595	50.05
3.96262	50.06
3.97928	50.07
3.99595	50.06

[Status Trace (Injection Unit Temperature)]
Interval(msec)	1000
# of Points	240
Start Time(min)	0.013
End Time(min)	3.996
Intensity Units	
Intensity Multiplier	1
R.Time (min)	Intensity
0.01262	99.99
0.02928	99.99
0.04595	99.99
0.06262	99.99
0.07928	99.99
0.09595	99.98
0.11262	99.99
0.12928	99.99
0.14595	99.99
0.16262	99.99
0.17928	99.99
0.19595	99.99
0.21262	99.98
0.22928	99.98
0.24595	99.98
0.26262	99.99
0.27928	99.99
0.29595	99.99
0.31262	99.99
0.32928	99.99
0.34595	99.99
0.36262	99.99
0.37928	99.99
0.39595	99.99
0.41262	99.99
0.42928	99.99
0.44595	99.99
0.46262	99.98
0.47928	99.99
0.49595	99.99
0.51262	99.99
0.52928	99.99
0.54595	99.98
0.56262	99.99
0.57928	99.98
0.59595	99.99
0.61262	99.98
0.62928	99.98
0.64595	99.98
0.66262	99.98
0.67928	99.98
0.69595	99.98
0.71262	99.98
0.72928	99.98
0.74595	99.98
0.76262	99.98
0.77928	99.98
0.79595	99.98
0.81262	99.98
0.82928	99.98
0.84595	99.98
0.86262	99.98
0.87928	99.98
0.89595	99.98
0.91262	99.98
0.92928	99.98
0.94595	99.98
0.96262	99.98
0.97928	99.98
0.99595	99.98
1.01262	99.98
1.02928	99.98
1.04595	99.98
1.06262	99.97
1.07928	99.98
1.09595	99.98
1.11262	99.98
1.12928	99.98
1.14595	99.98
1.16262	99.98
1.17928	99.98
1.19595	99.98
1.21262	99.97
1.22928	99.98
1.24595	99.98
1.26262	99.98
1.27928	99.98
1.29595	99.98
1.31262	99.98
1.32928	99.98
1.34595	99.98
1.36262	99.98
1.37928	99.98
1.39595	99.99
1.41262	99.98
1.42928	99.98
1.44595	99.98
1.46262	99.98
1.47928	99.98
1.49595	99.98
1.51262	99.98
1.52928	99.98
1.54595	99.99
1.56262	99.98
1.57928	99.98
1.59595	99.98
1.61262	99.98
1.62928	99.98
1.64595	99.98
1.66262	99.98
1.67928	99.98
1.69595	99.98
1.71262	99.98
1.72928	99.98
1.74595	99.98
1.76262	99.98
1.77928	99.98
1.79595	99.98
1.81262	99.98
1.82928	99.98
1.84595	99.97
1.86262	99.96
1.87928	99.98
1.89595	99.97
1.91262	99.98
1.92928	99.97
1.94595	99.97
1.96262	99.97
1.97928	99.97
1.99595	99.97
2.01262	99.97
2.02928	99.97
2.04595	99.97
2.06262	99.97
2.07928	99.96
2.09595	99.97
2.11262	99.97
2.12928	99.97
2.14595	99.97
2.16262	99.97
2.17928	99.97
2.19595	99.97
2.21262	99.97
2.22928	99.96
2.24595	99.97
2.26262	99.97
2.27928	99.97
2.29595	99.97
2.31262	99.96
2.32928	99.97
2.34595	99.97
2.36262	99.97
2.37928	99.97
2.39595	99.97
2.41262	99.97
2.42928	99.97
2.44595	99.98
2.46262	99.97
2.47928	99.97
2.49595	99.97
2.51262	99.98
2.52928	99.98
2.54595	99.98
2.56262	99.98
2.57928	99.99
2.59595	99.98
2.61262	99.99
2.62928	99.99
2.64595	99.99
2.66262	99.99
2.67928	99.99
2.69595	100.00
2.71262	99.99
2.72928	100.00
2.74595	100.00
2.76262	100.00
2.77928	100.00
2.79595	100.00
2.81262	100.00
2.82928	100.01
2.84595	100.00
2.86262	100.01
2.87928	100.01
2.89595	100.01
2.91262	100.01
2.92928	100.01
2.94595	100.01
2.96262	100.02
2.97928	100.01
2.99595	100.01
3.01262	100.02
3.02928	100.02
3.04595	100.02
3.06262	100.02
3.07928	100.02
3.09595	100.02
3.11262	100.02
3.12928	100.02
3.14595	100.02
3.16262	100.02
3.17928	100.02
3.19595	100.02
3.21262	100.02
3.22928	100.02
3.24595	100.02
3.26262	100.02
3.27928	100.02
3.29595	100.03
3.31262	100.03
3.32928	100.03
3.34595	100.02
3.36262	100.03
3.37928	100.02
3.39595	100.03
3.41262	100.03
3.42928	100.02
3.44595	100.03
3.46262	100.03
3.47928	100.03
3.49595	100.03
3.51262	100.03
3.52928	100.03
3.54595	100.03
3.56262	100.03
3.57928	100.03
3.59595	100.03
3.61262	100.03
3.62928	100.04
3.64595	100.03
3.66262	100.04
3.67928	100.04
3.69595	100.04
3.71262	100.04
3.72928	100.04
3.74595	100.04
3.76262	100.04
3.77928	100.04
3.79595	100.04
3.81262	100.04
3.82928	100.04
3.84595	100.04
3.86262	100.05
3.87928	100.04
3.89595	100.05
3.91262	100.05
3.92928	100.05
3.94595	100.05
3.96262	100.05
3.97928	100.05
3.99595	100.05

[Status Trace (Carrier Gas Pressure)]
Interval(msec)	1000
# of Points	240
Start Time(min)	0.013
End Time(min)	3.996
Intensity Units	
Intensity Multiplier	1
R.Time (min)	Intensity
0.01262	57.97
0.02928	55.14
0.04595	57.72
0.06262	59.75
0.07928	58.79
0.09595	57.99
0.11262	57.99
0.12928	58.01
0.14595	58.01
0.16262	58.01
0.17928	58.00
0.19595	58.00
0.21262	58.00
0.22928	58.00
0.24595	58.00
0.26262	58.00
0.27928	58.00
0.29595	58.00
0.31262	58.00
0.32928	58.00
0.34595	58.00
0.36262	58.00
0.37928	58.00
0.39595	58.00
0.41262	58.00
0.42928	58.00
0.44595	58.00
0.46262	58.00
0.47928	58.00
0.49595	58.00
0.51262	58.00
0.52928	58.00
0.54595	58.00
0.56262	58.00
0.57928	58.00
0.59595	58.00
0.61262	58.00
0.62928	58.00
0.64595	58.00
0.66262	58.00
0.67928	58.00
0.69595	58.00
0.71262	58.00
0.72928	58.00
0.74595	58.00
0.76262	58.00
0.77928	58.00
0.79595	58.00
0.81262	58.00
0.82928	58.00
0.84595	58.00
0.86262	58.00
0.87928	58.00
0.89595	58.00
0.91262	58.00
0.92928	58.00
0.94595	58.00
0.96262	58.00
0.97928	58.00
0.99595	58.00
1.01262	58.00
1.02928	58.00
1.04595	58.00
1.06262	58.00
1.07928	58.00
1.09595	58.00
1.11262	58.00
1.12928	58.00
1.14595	58.00
1.16262	58.00
1.17928	58.00
1.19595	58.00
1.21262	58.00
1.22928	58.00
1.24595	58.00
1.26262	58.00
1.27928	58.00
1.29595	58.00
1.31262	58.00
1.32928	58.00
1.34595	58.00
1.36262	58.00
1.37928	58.00
1.39595	58.00
1.41262	58.00
1.42928	58.00
1.44595	58.00
1.46262	58.00
1.47928	58.00
1.49595	58.00
1.51262	58.00
1.52928	58.00
1.54595	58.00
1.56262	58.00
1.57928	58.00
1.59595	58.00
1.61262	58.00
1.62928	58.00
1.64595	58.00
1.66262	58.01
1.67928	58.01
1.69595	58.00
1.71262	58.00
1.72928	58.00
1.74595	58.00
1.76262	58.00
1.77928	58.00
1.79595	58.00
1.81262	58.00
1.82928	58.00
1.84595	58.00
1.86262	58.00
1.87928	58.00
1.89595	58.00
1.91262	58.00
1.92928	58.00
1.94595	58.00
1.96262	58.00
1.97928	58.00
1.99595	58.00
2.01262	58.00
2.02928	58.00
2.04595	58.00
2.06262	58.00
2.07928	58.00
2.09595	58.00
2.11262	58.00
2.12928	58.00
2.14595	58.00
2.16262	58.00
2.17928	58.00
2.19595	58.00
2.21262	58.00
2.22928	58.00
2.24595	58.00
2.26262	58.00
2.27928	58.00
2.29595	58.00
2.31262	58.00
2.32928	58.00
2.34595	58.00
2.36262	58.00
2.37928	57.99
2.39595	57.99
2.41262	57.99
2.42928	58.00
2.44595	58.00
2.46262	58.00
2.47928	58.00
2.49595	58.00
2.51262	57.99
2.52928	57.99
2.54595	58.00
2.56262	58.00
2.57928	58.00
2.59595	58.00
2.61262	58.00
2.62928	58.00
2.64595	58.00
2.66262	58.00
2.67928	58.00
2.69595	58.00
2.71262	58.00
2.72928	58.00
2.74595	58.00
2.76262	58.00
2.77928	58.00
2.79595	58.00
2.81262	58.00
2.82928	58.00
2.84595	58.00
2.86262	58.00
2.87928	58.00
2.89595	58.00
2.91262	58.00
2.92928	58.00
2.94595	58.00
2.96262	58.00
2.97928	58.00
2.99595	58.00
3.01262	58.00
3.02928	58.00
3.04595	58.00
3.06262	58.00
3.07928	58.00
3.09595	58.00
3.11262	58.00
3.12928	58.00
3.14595	58.00
3.16262	58.00
3.17928	58.00
3.19595	58.00
3.21262	58.00
3.22928	58.00
3.24595	58.00
3.26262	58.00
3.27928	58.00
3.29595	58.00
3.31262	58.00
3.32928	58.00
3.34595	58.00
3.36262	58.00
3.37928	58.00
3.39595	58.00
3.41262	58.00
3.42928	58.00
3.44595	58.00
3.46262	58.00
3.47928	58.00
3.49595	58.00
3.51262	58.00
3.52928	58.00
3.54595	58.00
3.56262	58.00
3.57928	58.00
3.59595	58.00
3.61262	58.00
3.62928	58.00
3.64595	58.00
3.66262	58.00
3.67928	58.00
3.69595	58.00
3.71262	58.00
3.72928	58.00
3.74595	58.00
3.76262	58.00
3.77928	58.00
3.79595	58.00
3.81262	58.00
3.82928	58.00
3.84595	58.00
3.86262	58.00
3.87928	58.00
3.89595	58.00
3.91262	58.00
3.92928	58.00
3.94595	58.00
3.96262	58.00
3.97928	58.00
3.99595	58.00

[Status Trace (Carrier Gas Flow)]
Interval(msec)	1000
# of Points	240
Start Time(min)	0.013
End Time(min)	3.996
Intensity Units	
Intensity Multiplier	1
R.Time (min)	Intensity
0.01262	34.63
0.02928	34.53
0.04595	34.54
0.06262	34.52
0.07928	34.51
0.09595	34.52
0.11262	34.52
0.12928	34.52
0.14595	34.52
0.16262	34.51
0.17928	34.53
0.19595	34.52
0.21262	34.51
0.22928	34.51
0.24595	34.51
0.26262	34.51
0.27928	34.51
0.29595	34.52
0.31262	34.52
0.32928	34.52
0.34595	34.51
0.36262	34.52
0.37928	34.52
0.39595	34.52
0.41262	34.52
0.42928	34.52
0.44595	34.52
0.46262	34.52
0.47928	34.52
0.49595	34.52
0.51262	34.52
0.52928	34.52
0.54595	34.52
0.56262	34.52
0.57928	34.52
0.59595	34.52
0.61262	34.52
0.62928	34.52
0.64595	34.52
0.66262	34.52
0.67928	34.52
0.69595	34.52
0.71262	34.51
0.72928	34.52
0.74595	34.52
0.76262	34.53
0.77928	34.51
0.79595	34.52
0.81262	34.52
0.82928	34.52
0.84595	34.51
0.86262	34.52
0.87928	34.52
0.89595	34.52
0.91262	34.52
0.92928	34.52
0.94595	34.52
0.96262	34.52
0.97928	34.51
0.99595	34.52
1.01262	34.52
1.02928	34.52
1.04595	34.52
1.06262	34.52
1.07928	34.52
1.09595	34.52
1.11262	34.51
1.12928	34.51
1.14595	34.52
1.16262	34.52
1.17928	34.52
1.19595	34.52
1.21262	34.52
1.22928	34.52
1.24595	34.52
1.26262	34.52
1.27928	34.52
1.29595	34.52
1.31262	34.52
1.32928	34.52
1.34595	34.52
1.36262	34.52
1.37928	34.52
1.39595	34.51
1.41262	34.52
1.42928	34.52
1.44595	34.52
1.46262	34.51
1.47928	34.52
1.49595	34.52
1.51262	34.52
1.52928	34.52
1.54595	34.52
1.56262	34.52
1.57928	34.52
1.59595	34.52
1.61262	34.52
1.62928	34.52
1.64595	34.52
1.66262	34.52
1.67928	34.52
1.69595	34.52
1.71262	34.52
1.72928	34.53
1.74595	34.52
1.76262	34.52
1.77928	34.52
1.79595	34.52
1.81262	34.52
1.82928	34.52
1.84595	34.52
1.86262	34.51
1.87928	34.52
1.89595	34.52
1.91262	34.52
1.92928	34.52
1.94595	34.52
1.96262	34.52
1.97928	34.53
1.99595	34.52
2.01262	34.51
2.02928	34.52
2.04595	34.52
2.06262	34.51
2.07928	34.52
2.09595	34.52
2.11262	34.52
2.12928	34.52
2.14595	34.52
2.16262	34.52
2.17928	34.52
2.19595	34.51
2.21262	34.52
2.22928	34.52
2.24595	34.53
2.26262	34.52
2.27928	34.52
2.29595	34.52
2.31262	34.52
2.32928	34.52
2.34595	34.51
2.36262	34.52
2.37928	34.52
2.39595	34.52
2.41262	34.52
2.42928	34.52
2.44595	34.52
2.46262	34.52
2.47928	34.52
2.49595	34.53
2.51262	34.52
2.52928	34.51
2.54595	34.52
2.56262	34.51
2.57928	34.52
2.59595	34.51
2.61262	34.52
2.62928	34.51
2.64595	34.52
2.66262	34.53
2.67928	34.52
2.69595	34.52
2.71262	34.51
2.72928	34.52
2.74595	34.52
2.76262	34.52
2.77928	34.52
2.79595	34.52
2.81262	34.52
2.82928	34.52
2.84595	34.52
2.86262	34.52
2.87928	34.52
2.89595	34.51
2.91262	34.52
2.92928	34.51
2.94595	34.52
2.96262	34.52
2.97928	34.51
2.99595	34.51
3.01262	34.52
3.02928	34.53
3.04595	34.52
3.06262	34.52
3.07928	34.52
3.09595	34.52
3.11262	34.52
3.12928	34.51
3.14595	34.52
3.16262	34.52
3.17928	34.52
3.19595	34.52
3.21262	34.52
3.22928	34.52
3.24595	34.51
3.26262	34.51
3.27928	34.52
3.29595	34.53
3.31262	34.52
3.32928	34.51
3.34595	34.52
3.36262	34.52
3.37928	34.51
3.39595	34.52
3.41262	34.52
3.42928	34.52
3.44595	34.52
3.46262	34.52
3.47928	34.52
3.49595	34.52
3.51262	34.53
3.52928	34.52
3.54595	34.52
3.56262	34.52
3.57928	34.52
3.59595	34.51
3.61262	34.52
3.62928	34.52
3.64595	34.52
3.66262	34.51
3.67928	34.51
3.69595	34.52
3.71262	34.52
3.72928	34.52
3.74595	34.52
3.76262	34.52
3.77928	34.52
3.79595	34.51
3.81262	34.51
3.82928	34.51
3.84595	34.52
3.86262	34.52
3.87928	34.52
3.89595	34.52
3.91262	34.52
3.92928	34.52
3.94595	34.51
3.96262	34.51
3.97928	34.51
3.99595	34.52

[Status Trace (Column Flow)]
Interval(msec)	1000
# of Points	240
Start Time(min)	0.013
End Time(min)	3.996
Intensity Units	
Intensity Multiplier	1
R.Time (min)	Intensity
0.01262	5.51
0.02928	5.18
0.04595	5.48
0.06262	5.71
0.07928	5.60
0.09595	5.51
0.11262	5.51
0.12928	5.51
0.14595	5.51
0.16262	5.51
0.17928	5.51
0.19595	5.51
0.21262	5.51
0.22928	5.51
0.24595	5.51
0.26262	5.51
0.27928	5.51
0.29595	5.51
0.31262	5.51
0.32928	5.51
0.34595	5.51
0.36262	5.51
0.37928	5.51
0.39595	5.51
0.41262	5.51
0.42928	5.51
0.44595	5.51
0.46262	5.51
0.47928	5.51
0.49595	5.51
0.51262	5.51
0.52928	5.51
0.54595	5.51
0.56262	5.51
0.57928	5.51
0.59595	5.51
0.61262	5.51
0.62928	5.51
0.64595	5.51
0.66262	5.51
0.67928	5.51
0.69595	5.51
0.71262	5.51
0.72928	5.51
0.74595	5.51
0.76262	5.51
0.77928	5.51
0.79595	5.51
0.81262	5.51
0.82928	5.51
0.84595	5.51
0.86262	5.51
0.87928	5.51
0.89595	5.51
0.91262	5.51
0.92928	5.51
0.94595	5.51
0.96262	5.51
0.97928	5.51
0.99595	5.51
1.01262	5.51
1.02928	5.51
1.04595	5.51
1.06262	5.51
1.07928	5.51
1.09595	5.51
1.11262	5.51
1.12928	5.51
1.14595	5.51
1.16262	5.51
1.17928	5.51
1.19595	5.51
1.21262	5.51
1.22928	5.51
1.24595	5.51
1.26262	5.51
1.27928	5.51
1.29595	5.51
1.31262	5.51
1.32928	5.51
1.34595	5.51
1.36262	5.51
1.37928	5.51
1.39595	5.51
1.41262	5.51
1.42928	5.51
1.44595	5.51
1.46262	5.51
1.47928	5.51
1.49595	5.51
1.51262	5.51
1.52928	5.51
1.54595	5.51
1.56262	5.51
1.57928	5.51
1.59595	5.51
1.61262	5.51
1.62928	5.50
1.64595	5.50
1.66262	5.49
1.67928	5.48
1.69595	5.47
1.71262	5.46
1.72928	5.45
1.74595	5.44
1.76262	5.42
1.77928	5.41
1.79595	5.41
1.81262	5.40
1.82928	5.39
1.84595	5.38
1.86262	5.37
1.87928	5.36
1.89595	5.35
1.91262	5.33
1.92928	5.33
1.94595	5.32
1.96262	5.31
1.97928	5.30
1.99595	5.29
2.01262	5.28
2.02928	5.27
2.04595	5.26
2.06262	5.25
2.07928	5.24
2.09595	5.23
2.11262	5.22
2.12928	5.21
2.14595	5.20
2.16262	5.19
2.17928	5.18
2.19595	5.17
2.21262	5.16
2.22928	5.15
2.24595	5.15
2.26262	5.14
2.27928	5.13
2.29595	5.12
2.31262	5.11
2.32928	5.10
2.34595	5.09
2.36262	5.08
2.37928	5.08
2.39595	5.08
2.41262	5.08
2.42928	5.08
2.44595	5.08
2.46262	5.08
2.47928	5.08
2.49595	5.08
2.51262	5.07
2.52928	5.07
2.54595	5.07
2.56262	5.07
2.57928	5.07
2.59595	5.07
2.61262	5.07
2.62928	5.07
2.64595	5.07
2.66262	5.07
2.67928	5.07
2.69595	5.07
2.71262	5.07
2.72928	5.07
2.74595	5.07
2.76262	5.07
2.77928	5.07
2.79595	5.07
2.81262	5.07
2.82928	5.07
2.84595	5.07
2.86262	5.07
2.87928	5.07
2.89595	5.07
2.91262	5.07
2.92928	5.07
2.94595	5.07
2.96262	5.07
2.97928	5.07
2.99595	5.07
3.01262	5.07
3.02928	5.07
3.04595	5.07
3.06262	5.07
3.07928	5.07
3.09595	5.07
3.11262	5.07
3.12928	5.07
3.14595	5.07
3.16262	5.07
3.17928	5.07
3.19595	5.07
3.21262	5.07
3.22928	5.07
3.24595	5.07
3.26262	5.07
3.27928	5.07
3.29595	5.07
3.31262	5.07
3.32928	5.07
3.34595	5.07
3.36262	5.07
3.37928	5.07
3.39595	5.07
3.41262	5.07
3.42928	5.07
3.44595	5.07
3.46262	5.07
3.47928	5.07
3.49595	5.07
3.51262	5.07
3.52928	5.07
3.54595	5.07
3.56262	5.07
3.57928	5.07
3.59595	5.07
3.61262	5.07
3.62928	5.07
3.64595	5.07
3.66262	5.07
3.67928	5.07
3.69595	5.07
3.71262	5.07
3.72928	5.07
3.74595	5.07
3.76262	5.07
3.77928	5.07
3.79595	5.07
3.81262	5.07
3.82928	5.07
3.84595	5.07
3.86262	5.07
3.87928	5.07
3.89595	5.07
3.91262	5.07
3.92928	5.07
3.94595	5.07
3.96262	5.07
3.97928	5.07
3.99595	5.07

[Status Trace (Linear Velocity)]
Interval(msec)	1000
# of Points	240
Start Time(min)	0.013
End Time(min)	3.996
Intensity Units	
Intensity Multiplier	1
R.Time (min)	Intensity
0.01262	38.99
0.02928	37.13
0.04595	38.83
0.06262	40.15
0.07928	39.53
0.09595	39.00
0.11262	39.01
0.12928	39.02
0.14595	39.02
0.16262	39.02
0.17928	39.02
0.19595	39.02
0.21262	39.02
0.22928	39.02
0.24595	39.02
0.26262	39.02
0.27928	39.02
0.29595	39.01
0.31262	39.01
0.32928	39.01
0.34595	39.01
0.36262	39.01
0.37928	39.01
0.39595	39.01
0.41262	39.01
0.42928	39.01
0.44595	39.01
0.46262	39.01
0.47928	39.01
0.49595	39.01
0.51262	39.01
0.52928	39.01
0.54595	39.01
0.56262	39.01
0.57928	39.01
0.59595	39.01
0.61262	39.01
0.62928	39.01
0.64595	39.01
0.66262	39.01
0.67928	39.01
0.69595	39.02
0.71262	39.02
0.72928	39.02
0.74595	39.01
0.76262	39.01
0.77928	39.01
0.79595	39.01
0.81262	39.01
0.82928	39.01
0.84595	39.01
0.86262	39.01
0.87928	39.01
0.89595	39.01
0.91262	39.01
0.92928	39.01
0.94595	39.01
0.96262	39.01
0.97928	39.01
0.99595	39.01
1.01262	39.02
1.02928	39.02
1.04595	39.01
1.06262	39.01
1.07928	39.01
1.09595	39.02
1.11262	39.01
1.12928	39.02
1.14595	39.02
1.16262	39.02
1.17928	39.02
1.19595	39.02
1.21262	39.02
1.22928	39.02
1.24595	39.02
1.26262	39.02
1.27928	39.02
1.29595	39.02
1.31262	39.02
1.32928	39.02
1.34595	39.02
1.36262	39.02
1.37928	39.02
1.39595	39.02
1.41262	39.02
1.42928	39.02
1.44595	39.02
1.46262	39.02
1.47928	39.02
1.49595	39.01
1.51262	39.01
1.52928	39.01
1.54595	39.01
1.56262	39.01
1.57928	39.02
1.59595	39.01
1.61262	39.01
1.62928	39.00
1.64595	38.98
1.66262	38.95
1.67928	38.92
1.69595	38.88
1.71262	38.84
1.72928	38.81
1.74595	38.78
1.76262	38.75
1.77928	38.72
1.79595	38.69
1.81262	38.66
1.82928	38.63
1.84595	38.60
1.86262	38.56
1.87928	38.54
1.89595	38.51
1.91262	38.47
1.92928	38.44
1.94595	38.41
1.96262	38.38
1.97928	38.35
1.99595	38.32
2.01262	38.29
2.02928	38.26
2.04595	38.23
2.06262	38.20
2.07928	38.17
2.09595	38.14
2.11262	38.11
2.12928	38.08
2.14595	38.05
2.16262	38.02
2.17928	37.99
2.19595	37.96
2.21262	37.93
2.22928	37.90
2.24595	37.87
2.26262	37.84
2.27928	37.81
2.29595	37.79
2.31262	37.75
2.32928	37.72
2.34595	37.70
2.36262	37.67
2.37928	37.65
2.39595	37.65
2.41262	37.65
2.42928	37.65
2.44595	37.65
2.46262	37.65
2.47928	37.65
2.49595	37.65
2.51262	37.65
2.52928	37.64
2.54595	37.65
2.56262	37.65
2.57928	37.65
2.59595	37.65
2.61262	37.65
2.62928	37.65
2.64595	37.65
2.66262	37.64
2.67928	37.65
2.69595	37.64
2.71262	37.64
2.72928	37.64
2.74595	37.64
2.76262	37.64
2.77928	37.64
2.79595	37.64
2.81262	37.64
2.82928	37.64
2.84595	37.64
2.86262	37.64
2.87928	37.64
2.89595	37.64
2.91262	37.64
2.92928	37.64
2.94595	37.64
2.96262	37.63
2.97928	37.63
2.99595	37.63
3.01262	37.63
3.02928	37.63
3.04595	37.63
3.06262	37.63
3.07928	37.62
3.09595	37.62
3.11262	37.62
3.12928	37.62
3.14595	37.62
3.16262	37.62
3.17928	37.62
3.19595	37.62
3.21262	37.62
3.22928	37.62
3.24595	37.62
3.26262	37.62
3.27928	37.62
3.29595	37.62
3.31262	37.62
3.32928	37.63
3.34595	37.62
3.36262	37.62
3.37928	37.62
3.39595	37.62
3.41262	37.62
3.42928	37.62
3.44595	37.62
3.46262	37.62
3.47928	37.62
3.49595	37.62
3.51262	37.62
3.52928	37.62
3.54595	37.62
3.56262	37.62
3.57928	37.62
3.59595	37.62
3.61262	37.62
3.62928	37.62
3.64595	37.62
3.66262	37.62
3.67928	37.62
3.69595	37.62
3.71262	37.62
3.72928	37.62
3.74595	37.62
3.76262	37.62
3.77928	37.62
3.79595	37.62
3.81262	37.62
3.82928	37.62
3.84595	37.62
3.86262	37.62
3.87928	37.62
3.89595	37.62
3.91262	37.63
3.92928	37.63
3.94595	37.63
3.96262	37.63
3.97928	37.62
3.99595	37.62

