[Header]
Application Name	LabSolutions
Version	5.110
Data File Name	C:\Users\User\Desktop\GC Analyses\Jack\Nachusa Grasslands Sampling\T2 Timepoint July 12th\T2_07122022_043.gcd
Output Date	3/14/2023
Output Time	3:42:32 PM

[File Information]
Type	Data File
Generated	3/10/2023 5:09:56 PM
Generated by	System Administrator
Modified	3/10/2023 5:16:47 PM
Modified by	System Administrator

[Sample Information]
Operator Name	System Administrator
Acquired	3/10/2023 5:12:46 PM
Sample Type	0:Unknown
Level	0
Sample Name	043
Sample ID	043
ISTD Amount1	1
ISTD Amount2	1
ISTD Amount3	1
ISTD Amount4	1
ISTD Amount5	1
ISTD Amount6	1
ISTD Amount7	1
ISTD Amount8	1
ISTD Amount9	1
ISTD Amount10	1
ISTD Amount11	1
ISTD Amount12	1
ISTD Amount13	1
ISTD Amount14	1
ISTD Amount15	1
ISTD Amount16	1
ISTD Amount17	1
ISTD Amount18	1
ISTD Amount19	1
ISTD Amount20	1
ISTD Amount21	1
ISTD Amount22	1
ISTD Amount23	1
ISTD Amount24	1
ISTD Amount25	1
ISTD Amount26	1
ISTD Amount27	1
ISTD Amount28	1
ISTD Amount29	1
ISTD Amount30	1
ISTD Amount31	1
ISTD Amount32	1
Sample Amount	1
Dilution Factor	1
Vial#	42
Injection Volume	1
Injection Count	1
Bar Code	

[Original Files]
Data File	C:\Users\User\Desktop\GC Analyses\Jack\Nachusa Grasslands Sampling\T1 Timepoint July 12th\T2_07122022_043.gcd
Method File	C:\LabSolutions\Data\GHG_4min_2022\ghg3_togas_w_acet_4 min_new_int.gcm
Batch File	C:\LabSolutions\Data\AutoSamplerTesting\T2_07122022.gcb
Report Format File	c:\LabSolutions\System\DEFAULT.lsr

[File Description]


[Configuration]
Instrument Name	C0B7VH3-Instrument1
Instrument #	1
Line #	1
# of Detectors	3
Detector ID	DET#1	DET#2	DET#3
Detector Name	FID	PTCD	ECD
# of Channels	1	1	1

[Peak Table(Ch1)]
# of Peaks	3
Peak#	R.Time	I.Time	F.Time	Area	Height	A/H	Conc.	Mark	ID#	Name	k'	Plate #	Plate Ht.	Tailing	Resolution	Sep.Factor	Area Ratio	Height Ratio	Conc. %	Norm Conc.
1	1.476	1.435	1.538	25141	11951	2.104	177.499	   	1	CO	0.000	9277	16.169	1.281	0.000	0.000	0	0	28.340	28.340
2	1.567	1.538	1.615	4220	2119	1.991	81.593	 V 	2	CH4	0.062	10586	14.170	0.000	1.500	0.000	0	0	13.027	13.027
3	1.996	1.949	2.440	1463222	701632	2.085	367.229	   	3	CO2	0.353	17316	8.663	1.256	7.055	5.680	0	0	58.633	58.633

[Peak Table(Ch2)]
# of Peaks	0

[Peak Table(Ch3)]
# of Peaks	5
Peak#	R.Time	I.Time	F.Time	Area	Height	A/H	Conc.	Mark	ID#	Name	k'	Plate #	Plate Ht.	Tailing	Resolution	Sep.Factor	Area Ratio	Height Ratio	Conc. %	Norm Conc.
1	2.462	2.297	2.513	2086	614	3.397	0.000	   			0.000	9510	15.772	0.000	0.000	0.000	0	0	0.000	0.000
2	2.535	2.513	2.634	1358	337	4.024	0.000	 V 			0.030	5211	28.784	0.000	0.607	0.000	0	0	0.000	0.000
3	2.660	2.634	2.733	264	84	3.135	0.000	 V 			0.080	4304	34.851	0.000	0.824	2.700	0	0	0.000	0.000
4	2.876	2.814	3.052	18710	4989	3.750	0.478	   	1	N2O	0.168	13398	11.196	1.612	1.654	2.093	0	0	100.000	100.000
5	3.448	3.214	3.995	10361	362	28.649	0.000	   	2	SF6	0.401	381	393.232	1.645	1.420	2.381	0	0	0.000	0.000

[Compound Results(Ch1)]
# of IDs	6
ID#	Name	R.Time	Area	Height	Conc.	Curve	3rd	2nd	1st	Constant	Area Ratio	Height Ratio	Conc. %	Norm Conc.
1	CO	1.476	25141	11951	177.499	Linear	0.000000e+00	0.000000e+00	1.416423e+002	0.000000e+00	0	0	28.340	28.340
2	CH4	1.567	4220	2119	81.593	Linear	0.000000e+00	0.000000e+00	5.171738e+001	0.000000e+00	0	0	13.027	13.027
3	CO2	1.996	1463222	701632	367.229	Linear	0.000000e+00	0.000000e+00	3.984494e+003	0.000000e+00	0	0	58.633	58.633
4	Ethylene	0.000	0	0	0.000	Linear	0.000000e+00	0.000000e+00	0.000000e+00	0.000000e+00	0	0	0.000	0.000
5	Acetylene	0.000	0	0	0.000	Linear	0.000000e+00	0.000000e+00	0.000000e+00	0.000000e+00	0	0	0.000	0.000
6	Ethane	0.000	0	0	0.000	Linear	0.000000e+00	0.000000e+00	0.000000e+00	0.000000e+00	0	0	0.000	0.000

[Compound Results(Ch2)]
# of IDs	5
ID#	Name	R.Time	Area	Height	Conc.	Curve	3rd	2nd	1st	Constant	Area Ratio	Height Ratio	Conc. %	Norm Conc.
1	Hydrogen	0.000	0	0	0.000	Linear	0.000000e+00	0.000000e+00	0.000000e+00	0.000000e+00	0	0	0.000	0.000
2	Oxygen	0.000	0	0	0.000	Linear	0.000000e+00	0.000000e+00	0.000000e+00	0.000000e+00	0	0	0.000	0.000
3	Nitrogen	0.000	0	0	0.000	Linear	0.000000e+00	0.000000e+00	0.000000e+00	0.000000e+00	0	0	0.000	0.000
4	Methane	0.000	0	0	0.000	Linear	0.000000e+00	0.000000e+00	0.000000e+00	0.000000e+00	0	0	0.000	0.000
5	Carbon Monoxide	0.000	0	0	0.000	Linear	0.000000e+00	0.000000e+00	0.000000e+00	0.000000e+00	0	0	0.000	0.000

[Compound Results(Ch3)]
# of IDs	2
ID#	Name	R.Time	Area	Height	Conc.	Curve	3rd	2nd	1st	Constant	Area Ratio	Height Ratio	Conc. %	Norm Conc.
1	N2O	2.876	18710	4989	0.478	Linear	0.000000e+00	0.000000e+00	3.915173e+004	0.000000e+00	0	0	100.000	100.000
2	SF6	3.448	10361	362	0.000	Linear	0.000000e+00	0.000000e+00	0.000000e+00	0.000000e+00	0	0	0.000	0.000

[Group Results(Ch1)]
# of Groups	0

[Group Results(Ch2)]
# of Groups	0

[Group Results(Ch3)]
# of Groups	0

[Chromatogram (Ch1)]
Interval(msec)	220
# of Points	1091
Start Time(min)	0.002
End Time(min)	3.998
R.Time (min)	Intensity
0.00167	-14
0.00533	-16
0.00900	-16
0.01267	-3
0.01633	10
0.02000	15
0.02367	11
0.02733	6
0.03100	1
0.03467	-1
0.03833	-2
0.04200	-3
0.04567	-1
0.04933	2
0.05300	8
0.05667	11
0.06033	13
0.06400	14
0.06767	18
0.07133	25
0.07500	31
0.07867	39
0.08233	46
0.08600	48
0.08967	48
0.09333	51
0.09700	57
0.10067	64
0.10433	72
0.10800	73
0.11167	72
0.11533	71
0.11900	71
0.12267	71
0.12633	73
0.13000	76
0.13367	83
0.13733	90
0.14100	94
0.14467	94
0.14833	86
0.15200	73
0.15567	60
0.15933	51
0.16300	45
0.16667	43
0.17033	41
0.17400	44
0.17767	45
0.18133	41
0.18500	34
0.18867	29
0.19233	28
0.19600	29
0.19967	31
0.20333	31
0.20700	29
0.21067	27
0.21433	30
0.21800	31
0.22167	29
0.22533	24
0.22900	23
0.23267	28
0.23633	35
0.24000	39
0.24367	40
0.24733	39
0.25100	38
0.25467	41
0.25833	44
0.26200	45
0.26567	43
0.26933	36
0.27300	26
0.27667	21
0.28033	22
0.28400	27
0.28767	28
0.29133	28
0.29500	27
0.29867	20
0.30233	13
0.30600	13
0.30967	18
0.31333	21
0.31700	22
0.32067	21
0.32433	21
0.32800	22
0.33167	30
0.33533	41
0.33900	48
0.34267	49
0.34633	47
0.35000	48
0.35367	49
0.35733	47
0.36100	43
0.36467	34
0.36833	30
0.37200	28
0.37567	26
0.37933	24
0.38300	22
0.38667	23
0.39033	25
0.39400	29
0.39767	31
0.40133	31
0.40500	30
0.40867	31
0.41233	33
0.41600	37
0.41967	41
0.42333	41
0.42700	39
0.43067	32
0.43433	28
0.43800	25
0.44167	25
0.44533	28
0.44900	36
0.45267	46
0.45633	50
0.46000	54
0.46367	57
0.46733	60
0.47100	61
0.47467	60
0.47833	52
0.48200	41
0.48567	31
0.48933	24
0.49300	22
0.49667	23
0.50033	26
0.50400	34
0.50767	45
0.51133	54
0.51500	57
0.51867	53
0.52233	46
0.52600	40
0.52967	34
0.53333	24
0.53700	15
0.54067	12
0.54433	8
0.54800	7
0.55167	11
0.55533	16
0.55900	21
0.56267	27
0.56633	26
0.57000	20
0.57367	19
0.57733	19
0.58100	15
0.58467	10
0.58833	9
0.59200	13
0.59567	19
0.59933	23
0.60300	25
0.60667	29
0.61033	37
0.61400	54
0.61767	69
0.62133	70
0.62500	58
0.62867	41
0.63233	24
0.63600	13
0.63967	8
0.64333	7
0.64700	9
0.65067	14
0.65433	21
0.65800	28
0.66167	33
0.66533	36
0.66900	39
0.67267	44
0.67633	48
0.68000	47
0.68367	40
0.68733	31
0.69100	24
0.69467	29
0.69833	35
0.70200	40
0.70567	41
0.70933	36
0.71300	32
0.71667	32
0.72033	34
0.72400	35
0.72767	38
0.73133	43
0.73500	45
0.73867	41
0.74233	35
0.74600	31
0.74967	30
0.75333	27
0.75700	26
0.76067	28
0.76433	32
0.76800	37
0.77167	41
0.77533	43
0.77900	41
0.78267	35
0.78633	30
0.79000	28
0.79367	31
0.79733	36
0.80100	39
0.80467	41
0.80833	42
0.81200	39
0.81567	30
0.81933	22
0.82300	18
0.82667	19
0.83033	25
0.83400	32
0.83767	27
0.84133	24
0.84500	21
0.84867	16
0.85233	19
0.85600	26
0.85967	29
0.86333	28
0.86700	27
0.87067	26
0.87433	20
0.87800	13
0.88167	10
0.88533	11
0.88900	13
0.89267	18
0.89633	26
0.90000	33
0.90367	34
0.90733	29
0.91100	22
0.91467	14
0.91833	8
0.92200	7
0.92567	10
0.92933	16
0.93300	21
0.93667	24
0.94033	26
0.94400	25
0.94767	26
0.95133	26
0.95500	26
0.95867	22
0.96233	16
0.96600	13
0.96967	12
0.97333	10
0.97700	7
0.98067	6
0.98433	8
0.98800	10
0.99167	9
0.99533	9
0.99900	13
1.00267	19
1.00633	25
1.01000	28
1.01367	25
1.01733	27
1.02100	30
1.02467	28
1.02833	23
1.03200	18
1.03567	15
1.03933	15
1.04300	19
1.04667	22
1.05033	25
1.05400	26
1.05767	25
1.06133	20
1.06500	13
1.06867	9
1.07233	3
1.07600	-0
1.07967	1
1.08333	2
1.08700	3
1.09067	5
1.09433	7
1.09800	2
1.10167	-7
1.10533	-13
1.10900	-12
1.11267	-5
1.11633	4
1.12000	6
1.12367	2
1.12733	-3
1.13100	-7
1.13467	-7
1.13833	-6
1.14200	-3
1.14567	2
1.14933	8
1.15300	7
1.15667	5
1.16033	4
1.16400	7
1.16767	14
1.17133	20
1.17500	27
1.17867	35
1.18233	34
1.18600	27
1.18967	16
1.19333	7
1.19700	1
1.20067	2
1.20433	5
1.20800	7
1.21167	7
1.21533	3
1.21900	-3
1.22267	-7
1.22633	-8
1.23000	-12
1.23367	-17
1.23733	-21
1.24100	-25
1.24467	-28
1.24833	-28
1.25200	-27
1.25567	-26
1.25933	-22
1.26300	-16
1.26667	-13
1.27033	-14
1.27400	-14
1.27767	-13
1.28133	-12
1.28500	-11
1.28867	-10
1.29233	-12
1.29600	-14
1.29967	-12
1.30333	-9
1.30700	-9
1.31067	-9
1.31433	-9
1.31800	-8
1.32167	-4
1.32533	-2
1.32900	2
1.33267	8
1.33633	13
1.34000	16
1.34367	16
1.34733	11
1.35100	4
1.35467	-4
1.35833	-10
1.36200	-13
1.36567	-15
1.36933	-17
1.37300	-17
1.37667	-15
1.38033	-13
1.38400	-11
1.38767	-8
1.39133	-3
1.39500	-0
1.39867	-1
1.40233	-1
1.40600	1
1.40967	3
1.41333	5
1.41700	4
1.42067	-3
1.42433	-9
1.42800	-14
1.43167	-15
1.43533	-7
1.43900	18
1.44267	115
1.44633	365
1.45000	984
1.45367	2326
1.45733	4381
1.46100	6707
1.46467	8842
1.46833	10519
1.47200	11598
1.47567	11964
1.47933	11534
1.48300	10364
1.48667	8703
1.49033	6896
1.49400	5224
1.49767	3840
1.50133	2779
1.50500	2004
1.50867	1453
1.51233	1069
1.51600	800
1.51967	616
1.52333	495
1.52700	411
1.53067	344
1.53433	290
1.53800	262
1.54167	305
1.54533	483
1.54900	802
1.55267	1193
1.55633	1574
1.56000	1885
1.56367	2094
1.56733	2176
1.57100	2105
1.57467	1883
1.57833	1560
1.58200	1212
1.58567	903
1.58933	657
1.59300	471
1.59667	337
1.60033	244
1.60400	178
1.60767	130
1.61133	98
1.61500	79
1.61867	73
1.62233	73
1.62600	73
1.62967	67
1.63333	58
1.63700	50
1.64067	44
1.64433	39
1.64800	38
1.65167	38
1.65533	38
1.65900	35
1.66267	31
1.66633	29
1.67000	28
1.67367	26
1.67733	20
1.68100	11
1.68467	13
1.68833	16
1.69200	15
1.69567	14
1.69933	10
1.70300	2
1.70667	0
1.71033	4
1.71400	9
1.71767	17
1.72133	26
1.72500	30
1.72867	31
1.73233	28
1.73600	25
1.73967	24
1.74333	24
1.74700	22
1.75067	17
1.75433	12
1.75800	12
1.76167	16
1.76533	20
1.76900	23
1.77267	23
1.77633	24
1.78000	24
1.78367	24
1.78733	23
1.79100	24
1.79467	25
1.79833	28
1.80200	27
1.80567	21
1.80933	13
1.81300	6
1.81667	-0
1.82033	-1
1.82400	1
1.82767	2
1.83133	1
1.83500	-0
1.83867	1
1.84233	4
1.84600	8
1.84967	9
1.85333	9
1.85700	8
1.86067	10
1.86433	16
1.86800	22
1.87167	23
1.87533	22
1.87900	15
1.88267	9
1.88633	9
1.89000	9
1.89367	11
1.89733	15
1.90100	18
1.90467	17
1.90833	17
1.91200	22
1.91567	31
1.91933	34
1.92300	33
1.92667	33
1.93033	30
1.93400	26
1.93767	22
1.94133	17
1.94500	12
1.94867	13
1.95233	40
1.95600	220
1.95967	1205
1.96333	5429
1.96700	19176
1.97067	53569
1.97433	120688
1.97800	224125
1.98167	352836
1.98533	485188
1.98900	598268
1.99267	674079
1.99633	701696
2.00000	678522
2.00367	611578
2.00733	516177
2.01100	410818
2.01467	311341
2.01833	227271
2.02200	161682
2.02567	113346
2.02933	79109
2.03300	55484
2.03667	39438
2.04033	28616
2.04400	21312
2.04767	16345
2.05133	12922
2.05500	10526
2.05867	8814
2.06233	7561
2.06600	6617
2.06967	5879
2.07333	5281
2.07700	4791
2.08067	4391
2.08433	4058
2.08800	3775
2.09167	3529
2.09533	3312
2.09900	3125
2.10267	2964
2.10633	2818
2.11000	2683
2.11367	2555
2.11733	2436
2.12100	2328
2.12467	2227
2.12833	2131
2.13200	2044
2.13567	1963
2.13933	1887
2.14300	1816
2.14667	1746
2.15033	1678
2.15400	1618
2.15767	1566
2.16133	1523
2.16500	1483
2.16867	1442
2.17233	1402
2.17600	1363
2.17967	1332
2.18333	1301
2.18700	1269
2.19067	1237
2.19433	1206
2.19800	1177
2.20167	1151
2.20533	1127
2.20900	1104
2.21267	1083
2.21633	1060
2.22000	1034
2.22367	1007
2.22733	979
2.23100	951
2.23467	925
2.23833	908
2.24200	897
2.24567	886
2.24933	872
2.25300	857
2.25667	840
2.26033	819
2.26400	800
2.26767	785
2.27133	770
2.27500	753
2.27867	739
2.28233	728
2.28600	725
2.28967	726
2.29333	721
2.29700	710
2.30067	697
2.30433	687
2.30800	683
2.31167	676
2.31533	665
2.31900	650
2.32267	635
2.32633	622
2.33000	610
2.33367	596
2.33733	583
2.34100	577
2.34467	576
2.34833	582
2.35200	587
2.35567	586
2.35933	582
2.36300	576
2.36667	569
2.37033	562
2.37400	555
2.37767	551
2.38133	551
2.38500	553
2.38867	552
2.39233	548
2.39600	543
2.39967	536
2.40333	530
2.40700	525
2.41067	524
2.41433	527
2.41800	527
2.42167	523
2.42533	520
2.42900	522
2.43267	527
2.43633	532
2.44000	531
2.44367	527
2.44733	522
2.45100	518
2.45467	516
2.45833	519
2.46200	527
2.46567	533
2.46933	536
2.47300	531
2.47667	520
2.48033	508
2.48400	496
2.48767	485
2.49133	479
2.49500	480
2.49867	482
2.50233	480
2.50600	476
2.50967	471
2.51333	465
2.51700	459
2.52067	455
2.52433	459
2.52800	465
2.53167	465
2.53533	466
2.53900	468
2.54267	469
2.54633	471
2.55000	473
2.55367	470
2.55733	465
2.56100	458
2.56467	454
2.56833	450
2.57200	442
2.57567	436
2.57933	434
2.58300	434
2.58667	434
2.59033	433
2.59400	438
2.59767	447
2.60133	454
2.60500	458
2.60867	459
2.61233	457
2.61600	454
2.61967	451
2.62333	446
2.62700	441
2.63067	439
2.63433	436
2.63800	428
2.64167	425
2.64533	426
2.64900	424
2.65267	420
2.65633	418
2.66000	417
2.66367	422
2.66733	428
2.67100	428
2.67467	428
2.67833	428
2.68200	428
2.68567	429
2.68933	429
2.69300	429
2.69667	429
2.70033	426
2.70400	425
2.70767	428
2.71133	433
2.71500	437
2.71867	436
2.72233	435
2.72600	433
2.72967	433
2.73333	433
2.73700	432
2.74067	430
2.74433	427
2.74800	426
2.75167	426
2.75533	427
2.75900	424
2.76267	417
2.76633	414
2.77000	416
2.77367	418
2.77733	415
2.78100	412
2.78467	413
2.78833	419
2.79200	424
2.79567	425
2.79933	425
2.80300	420
2.80667	416
2.81033	413
2.81400	413
2.81767	414
2.82133	417
2.82500	420
2.82867	425
2.83233	432
2.83600	435
2.83967	436
2.84333	431
2.84700	427
2.85067	425
2.85433	422
2.85800	419
2.86167	417
2.86533	417
2.86900	419
2.87267	422
2.87633	425
2.88000	430
2.88367	432
2.88733	433
2.89100	431
2.89467	426
2.89833	420
2.90200	420
2.90567	421
2.90933	423
2.91300	425
2.91667	422
2.92033	419
2.92400	417
2.92767	416
2.93133	420
2.93500	424
2.93867	420
2.94233	416
2.94600	413
2.94967	411
2.95333	412
2.95700	414
2.96067	416
2.96433	415
2.96800	413
2.97167	412
2.97533	411
2.97900	409
2.98267	410
2.98633	410
2.99000	409
2.99367	411
2.99733	415
3.00100	421
3.00467	423
3.00833	422
3.01200	422
3.01567	424
3.01933	427
3.02300	425
3.02667	417
3.03033	408
3.03400	401
3.03767	396
3.04133	393
3.04500	392
3.04867	391
3.05233	387
3.05600	384
3.05967	385
3.06333	396
3.06700	412
3.07067	430
3.07433	441
3.07800	440
3.08167	429
3.08533	412
3.08900	396
3.09267	387
3.09633	387
3.10000	391
3.10367	394
3.10733	393
3.11100	391
3.11467	389
3.11833	389
3.12200	390
3.12567	391
3.12933	395
3.13300	398
3.13667	395
3.14033	389
3.14400	380
3.14767	375
3.15133	377
3.15500	382
3.15867	381
3.16233	375
3.16600	372
3.16967	375
3.17333	381
3.17700	383
3.18067	383
3.18433	381
3.18800	382
3.19167	390
3.19533	397
3.19900	396
3.20267	391
3.20633	384
3.21000	380
3.21367	373
3.21733	362
3.22100	354
3.22467	349
3.22833	348
3.23200	351
3.23567	355
3.23933	364
3.24300	373
3.24667	381
3.25033	386
3.25400	387
3.25767	389
3.26133	388
3.26500	388
3.26867	387
3.27233	386
3.27600	388
3.27967	394
3.28333	397
3.28700	392
3.29067	383
3.29433	372
3.29800	362
3.30167	355
3.30533	348
3.30900	344
3.31267	343
3.31633	344
3.32000	347
3.32367	352
3.32733	360
3.33100	364
3.33467	362
3.33833	360
3.34200	358
3.34567	356
3.34933	355
3.35300	352
3.35667	348
3.36033	346
3.36400	348
3.36767	350
3.37133	350
3.37500	350
3.37867	353
3.38233	357
3.38600	357
3.38967	355
3.39333	352
3.39700	350
3.40067	351
3.40433	352
3.40800	353
3.41167	351
3.41533	346
3.41900	343
3.42267	345
3.42633	348
3.43000	345
3.43367	339
3.43733	333
3.44100	330
3.44467	328
3.44833	329
3.45200	332
3.45567	338
3.45933	347
3.46300	353
3.46667	353
3.47033	348
3.47400	338
3.47767	331
3.48133	327
3.48500	327
3.48867	329
3.49233	334
3.49600	339
3.49967	342
3.50333	342
3.50700	335
3.51067	325
3.51433	317
3.51800	316
3.52167	316
3.52533	314
3.52900	311
3.53267	310
3.53633	312
3.54000	314
3.54367	318
3.54733	327
3.55100	335
3.55467	337
3.55833	334
3.56200	329
3.56567	323
3.56933	318
3.57300	317
3.57667	317
3.58033	316
3.58400	316
3.58767	319
3.59133	321
3.59500	316
3.59867	309
3.60233	305
3.60600	305
3.60967	307
3.61333	310
3.61700	311
3.62067	314
3.62433	321
3.62800	329
3.63167	328
3.63533	323
3.63900	317
3.64267	311
3.64633	306
3.65000	300
3.65367	297
3.65733	301
3.66100	308
3.66467	319
3.66833	325
3.67200	321
3.67567	312
3.67933	302
3.68300	296
3.68667	293
3.69033	292
3.69400	294
3.69767	295
3.70133	298
3.70500	301
3.70867	300
3.71233	297
3.71600	291
3.71967	284
3.72333	278
3.72700	270
3.73067	260
3.73433	257
3.73800	258
3.74167	261
3.74533	262
3.74900	261
3.75267	260
3.75633	263
3.76000	268
3.76367	271
3.76733	273
3.77100	273
3.77467	273
3.77833	272
3.78200	273
3.78567	280
3.78933	289
3.79300	291
3.79667	287
3.80033	281
3.80400	274
3.80767	270
3.81133	268
3.81500	268
3.81867	269
3.82233	266
3.82600	257
3.82967	249
3.83333	245
3.83700	249
3.84067	261
3.84433	270
3.84800	272
3.85167	270
3.85533	265
3.85900	260
3.86267	255
3.86633	251
3.87000	247
3.87367	246
3.87733	246
3.88100	252
3.88467	257
3.88833	256
3.89200	254
3.89567	253
3.89933	251
3.90300	248
3.90667	248
3.91033	256
3.91400	265
3.91767	269
3.92133	268
3.92500	266
3.92867	264
3.93233	262
3.93600	260
3.93967	257
3.94333	255
3.94700	250
3.95067	241
3.95433	230
3.95800	220
3.96167	214
3.96533	210
3.96900	207
3.97267	208
3.97633	212
3.98000	219
3.98367	228
3.98733	236
3.99100	244
3.99467	249
3.99833	248

[Chromatogram (Ch2)]
Interval(msec)	220
# of Points	1091
Start Time(min)	0.002
End Time(min)	3.998
R.Time (min)	Intensity
0.00167	-1
0.00533	-1
0.00900	-1
0.01267	-1
0.01633	-2
0.02000	-2
0.02367	-2
0.02733	-2
0.03100	-2
0.03467	-2
0.03833	-2
0.04200	-2
0.04567	-2
0.04933	-2
0.05300	-1
0.05667	-1
0.06033	-1
0.06400	-0
0.06767	-0
0.07133	-0
0.07500	0
0.07867	0
0.08233	0
0.08600	-0
0.08967	-0
0.09333	-1
0.09700	-1
0.10067	-1
0.10433	-2
0.10800	-2
0.11167	-2
0.11533	-2
0.11900	-2
0.12267	-2
0.12633	-2
0.13000	-2
0.13367	-2
0.13733	-2
0.14100	-2
0.14467	-2
0.14833	-2
0.15200	-2
0.15567	-2
0.15933	-2
0.16300	-2
0.16667	-2
0.17033	-2
0.17400	-2
0.17767	-2
0.18133	-2
0.18500	-2
0.18867	-2
0.19233	-2
0.19600	-1
0.19967	-1
0.20333	-1
0.20700	-2
0.21067	-2
0.21433	-2
0.21800	-2
0.22167	-2
0.22533	-1
0.22900	-1
0.23267	-0
0.23633	-0
0.24000	-0
0.24367	-0
0.24733	-0
0.25100	-0
0.25467	-1
0.25833	-1
0.26200	-1
0.26567	-1
0.26933	-1
0.27300	-2
0.27667	-2
0.28033	-2
0.28400	-2
0.28767	-2
0.29133	-2
0.29500	-2
0.29867	-2
0.30233	-2
0.30600	-2
0.30967	-2
0.31333	-2
0.31700	-1
0.32067	-1
0.32433	-1
0.32800	-1
0.33167	-1
0.33533	-1
0.33900	-1
0.34267	-1
0.34633	-1
0.35000	-1
0.35367	-1
0.35733	-1
0.36100	-1
0.36467	-1
0.36833	-0
0.37200	-0
0.37567	0
0.37933	0
0.38300	1
0.38667	1
0.39033	1
0.39400	1
0.39767	1
0.40133	1
0.40500	1
0.40867	1
0.41233	1
0.41600	1
0.41967	1
0.42333	1
0.42700	1
0.43067	1
0.43433	1
0.43800	0
0.44167	-1
0.44533	-1
0.44900	-2
0.45267	-3
0.45633	-3
0.46000	-3
0.46367	-4
0.46733	-4
0.47100	-3
0.47467	-3
0.47833	-3
0.48200	-3
0.48567	-3
0.48933	-3
0.49300	-3
0.49667	-3
0.50033	-3
0.50400	-3
0.50767	-3
0.51133	-2
0.51500	-2
0.51867	-3
0.52233	-3
0.52600	-3
0.52967	-3
0.53333	-3
0.53700	-3
0.54067	-3
0.54433	-3
0.54800	-3
0.55167	-3
0.55533	-3
0.55900	-2
0.56267	-2
0.56633	-1
0.57000	-1
0.57367	-1
0.57733	-1
0.58100	-1
0.58467	-1
0.58833	-1
0.59200	-1
0.59567	-0
0.59933	-0
0.60300	-0
0.60667	-0
0.61033	-1
0.61400	-1
0.61767	-1
0.62133	-1
0.62500	-1
0.62867	-1
0.63233	-1
0.63600	-1
0.63967	-1
0.64333	-1
0.64700	-1
0.65067	-1
0.65433	-1
0.65800	-2
0.66167	-2
0.66533	-2
0.66900	-2
0.67267	-1
0.67633	-1
0.68000	-1
0.68367	-1
0.68733	-1
0.69100	-1
0.69467	-1
0.69833	-1
0.70200	-1
0.70567	-0
0.70933	-0
0.71300	-0
0.71667	0
0.72033	0
0.72400	0
0.72767	0
0.73133	0
0.73500	0
0.73867	0
0.74233	0
0.74600	-0
0.74967	-0
0.75333	-0
0.75700	-0
0.76067	-0
0.76433	-0
0.76800	-1
0.77167	-1
0.77533	-1
0.77900	-1
0.78267	-1
0.78633	-1
0.79000	-1
0.79367	-1
0.79733	-1
0.80100	-1
0.80467	-1
0.80833	-1
0.81200	-2
0.81567	-2
0.81933	-2
0.82300	-3
0.82667	-3
0.83033	-3
0.83400	-4
0.83767	-4
0.84133	-5
0.84500	-5
0.84867	-6
0.85233	-6
0.85600	-6
0.85967	-7
0.86333	-7
0.86700	-7
0.87067	-7
0.87433	-6
0.87800	-6
0.88167	-6
0.88533	-6
0.88900	-6
0.89267	-6
0.89633	-5
0.90000	-5
0.90367	-5
0.90733	-4
0.91100	-4
0.91467	-3
0.91833	-3
0.92200	-3
0.92567	-3
0.92933	-3
0.93300	-2
0.93667	-2
0.94033	-2
0.94400	-2
0.94767	-2
0.95133	-2
0.95500	-2
0.95867	-1
0.96233	-1
0.96600	-1
0.96967	-1
0.97333	-1
0.97700	-1
0.98067	-1
0.98433	-2
0.98800	-2
0.99167	-2
0.99533	-2
0.99900	-2
1.00267	-3
1.00633	-3
1.01000	-3
1.01367	-3
1.01733	-3
1.02100	-3
1.02467	-3
1.02833	-3
1.03200	-3
1.03567	-3
1.03933	-3
1.04300	-3
1.04667	-3
1.05033	-3
1.05400	-3
1.05767	-3
1.06133	-3
1.06500	-3
1.06867	-3
1.07233	-3
1.07600	-3
1.07967	-3
1.08333	-3
1.08700	-3
1.09067	-3
1.09433	-2
1.09800	-2
1.10167	-2
1.10533	-2
1.10900	-2
1.11267	-2
1.11633	-2
1.12000	-1
1.12367	-1
1.12733	-1
1.13100	-0
1.13467	0
1.13833	0
1.14200	0
1.14567	0
1.14933	-0
1.15300	-0
1.15667	-0
1.16033	-0
1.16400	-0
1.16767	-0
1.17133	0
1.17500	0
1.17867	0
1.18233	0
1.18600	-0
1.18967	-0
1.19333	-1
1.19700	-1
1.20067	-1
1.20433	-1
1.20800	-2
1.21167	-2
1.21533	-2
1.21900	-2
1.22267	-3
1.22633	-3
1.23000	-3
1.23367	-3
1.23733	-3
1.24100	-4
1.24467	-4
1.24833	-4
1.25200	-5
1.25567	-5
1.25933	-5
1.26300	-5
1.26667	-5
1.27033	-4
1.27400	-4
1.27767	-4
1.28133	-4
1.28500	-4
1.28867	-4
1.29233	-4
1.29600	-4
1.29967	-4
1.30333	-4
1.30700	-4
1.31067	-4
1.31433	-3
1.31800	-3
1.32167	-3
1.32533	-3
1.32900	-3
1.33267	-3
1.33633	-3
1.34000	-3
1.34367	-3
1.34733	-3
1.35100	-3
1.35467	-3
1.35833	-3
1.36200	-3
1.36567	-3
1.36933	-3
1.37300	-3
1.37667	-2
1.38033	-2
1.38400	-2
1.38767	-3
1.39133	-3
1.39500	-3
1.39867	-3
1.40233	-4
1.40600	-4
1.40967	-5
1.41333	-5
1.41700	-5
1.42067	-5
1.42433	-6
1.42800	-6
1.43167	-6
1.43533	-6
1.43900	-6
1.44267	-6
1.44633	-6
1.45000	-6
1.45367	-6
1.45733	-5
1.46100	-5
1.46467	-5
1.46833	-4
1.47200	-4
1.47567	-4
1.47933	-4
1.48300	-4
1.48667	-4
1.49033	-4
1.49400	-5
1.49767	-5
1.50133	-5
1.50500	-5
1.50867	-4
1.51233	-4
1.51600	-4
1.51967	-3
1.52333	-3
1.52700	-3
1.53067	-3
1.53433	-3
1.53800	-3
1.54167	-3
1.54533	-3
1.54900	-3
1.55267	-3
1.55633	-3
1.56000	-3
1.56367	-2
1.56733	-2
1.57100	-2
1.57467	-2
1.57833	-2
1.58200	-2
1.58567	-2
1.58933	-2
1.59300	-3
1.59667	-4
1.60033	-4
1.60400	-5
1.60767	-6
1.61133	-8
1.61500	-10
1.61867	-12
1.62233	-14
1.62600	-17
1.62967	-21
1.63333	-24
1.63700	-28
1.64067	-31
1.64433	-35
1.64800	-39
1.65167	-43
1.65533	-48
1.65900	-52
1.66267	-56
1.66633	-61
1.67000	-65
1.67367	-70
1.67733	-75
1.68100	-80
1.68467	-85
1.68833	-90
1.69200	-93
1.69567	-97
1.69933	-99
1.70300	-101
1.70667	-103
1.71033	-104
1.71400	-105
1.71767	-106
1.72133	-106
1.72500	-106
1.72867	-106
1.73233	-106
1.73600	-107
1.73967	-107
1.74333	-108
1.74700	-108
1.75067	-109
1.75433	-110
1.75800	-111
1.76167	-112
1.76533	-112
1.76900	-113
1.77267	-113
1.77633	-113
1.78000	-113
1.78367	-112
1.78733	-112
1.79100	-112
1.79467	-112
1.79833	-113
1.80200	-113
1.80567	-114
1.80933	-115
1.81300	-115
1.81667	-116
1.82033	-116
1.82400	-116
1.82767	-115
1.83133	-115
1.83500	-114
1.83867	-113
1.84233	-113
1.84600	-112
1.84967	-112
1.85333	-112
1.85700	-112
1.86067	-112
1.86433	-113
1.86800	-114
1.87167	-115
1.87533	-116
1.87900	-117
1.88267	-117
1.88633	-117
1.89000	-116
1.89367	-116
1.89733	-115
1.90100	-115
1.90467	-114
1.90833	-113
1.91200	-113
1.91567	-112
1.91933	-111
1.92300	-110
1.92667	-110
1.93033	-110
1.93400	-110
1.93767	-110
1.94133	-110
1.94500	-111
1.94867	-111
1.95233	-111
1.95600	-111
1.95967	-111
1.96333	-110
1.96700	-110
1.97067	-110
1.97433	-110
1.97800	-109
1.98167	-109
1.98533	-109
1.98900	-109
1.99267	-109
1.99633	-108
2.00000	-107
2.00367	-107
2.00733	-106
2.01100	-106
2.01467	-106
2.01833	-105
2.02200	-105
2.02567	-105
2.02933	-105
2.03300	-104
2.03667	-104
2.04033	-104
2.04400	-104
2.04767	-104
2.05133	-104
2.05500	-104
2.05867	-104
2.06233	-104
2.06600	-104
2.06967	-104
2.07333	-103
2.07700	-102
2.08067	-102
2.08433	-101
2.08800	-100
2.09167	-99
2.09533	-99
2.09900	-98
2.10267	-98
2.10633	-98
2.11000	-97
2.11367	-97
2.11733	-98
2.12100	-98
2.12467	-99
2.12833	-99
2.13200	-99
2.13567	-100
2.13933	-99
2.14300	-99
2.14667	-99
2.15033	-98
2.15400	-98
2.15767	-97
2.16133	-97
2.16500	-97
2.16867	-97
2.17233	-96
2.17600	-96
2.17967	-96
2.18333	-95
2.18700	-94
2.19067	-93
2.19433	-92
2.19800	-92
2.20167	-92
2.20533	-91
2.20900	-91
2.21267	-91
2.21633	-91
2.22000	-91
2.22367	-91
2.22733	-90
2.23100	-90
2.23467	-89
2.23833	-89
2.24200	-88
2.24567	-87
2.24933	-87
2.25300	-86
2.25667	-86
2.26033	-86
2.26400	-86
2.26767	-86
2.27133	-86
2.27500	-86
2.27867	-86
2.28233	-86
2.28600	-86
2.28967	-85
2.29333	-85
2.29700	-85
2.30067	-84
2.30433	-84
2.30800	-84
2.31167	-84
2.31533	-84
2.31900	-84
2.32267	-83
2.32633	-82
2.33000	-81
2.33367	-80
2.33733	-80
2.34100	-79
2.34467	-79
2.34833	-79
2.35200	-79
2.35567	-79
2.35933	-79
2.36300	-79
2.36667	-77
2.37033	-75
2.37400	-73
2.37767	-70
2.38133	-67
2.38500	-63
2.38867	-59
2.39233	-55
2.39600	-50
2.39967	-45
2.40333	-41
2.40700	-36
2.41067	-31
2.41433	-27
2.41800	-24
2.42167	-21
2.42533	-18
2.42900	-16
2.43267	-15
2.43633	-14
2.44000	-13
2.44367	-12
2.44733	-11
2.45100	-10
2.45467	-9
2.45833	-8
2.46200	-7
2.46567	-6
2.46933	-5
2.47300	-4
2.47667	-3
2.48033	-2
2.48400	-1
2.48767	0
2.49133	1
2.49500	2
2.49867	3
2.50233	4
2.50600	5
2.50967	6
2.51333	7
2.51700	7
2.52067	8
2.52433	9
2.52800	10
2.53167	10
2.53533	11
2.53900	11
2.54267	11
2.54633	11
2.55000	12
2.55367	12
2.55733	12
2.56100	12
2.56467	12
2.56833	13
2.57200	13
2.57567	13
2.57933	14
2.58300	14
2.58667	14
2.59033	14
2.59400	14
2.59767	14
2.60133	14
2.60500	14
2.60867	14
2.61233	14
2.61600	14
2.61967	15
2.62333	15
2.62700	15
2.63067	16
2.63433	16
2.63800	16
2.64167	17
2.64533	17
2.64900	17
2.65267	17
2.65633	18
2.66000	18
2.66367	18
2.66733	18
2.67100	18
2.67467	19
2.67833	19
2.68200	19
2.68567	20
2.68933	20
2.69300	21
2.69667	21
2.70033	21
2.70400	21
2.70767	21
2.71133	21
2.71500	21
2.71867	22
2.72233	22
2.72600	22
2.72967	22
2.73333	22
2.73700	22
2.74067	22
2.74433	23
2.74800	23
2.75167	23
2.75533	24
2.75900	24
2.76267	25
2.76633	25
2.77000	25
2.77367	25
2.77733	25
2.78100	25
2.78467	24
2.78833	24
2.79200	24
2.79567	24
2.79933	24
2.80300	24
2.80667	24
2.81033	24
2.81400	24
2.81767	24
2.82133	24
2.82500	24
2.82867	24
2.83233	24
2.83600	24
2.83967	23
2.84333	22
2.84700	19
2.85067	13
2.85433	5
2.85800	-6
2.86167	-21
2.86533	-41
2.86900	-64
2.87267	-92
2.87633	-124
2.88000	-161
2.88367	-201
2.88733	-245
2.89100	-291
2.89467	-340
2.89833	-392
2.90200	-445
2.90567	-499
2.90933	-554
2.91300	-609
2.91667	-664
2.92033	-719
2.92400	-771
2.92767	-823
2.93133	-875
2.93500	-930
2.93867	-989
2.94233	-1044
2.94600	-1086
2.94967	-1104
2.95333	-1096
2.95700	-1064
2.96067	-1011
2.96433	-944
2.96800	-868
2.97167	-787
2.97533	-706
2.97900	-628
2.98267	-554
2.98633	-485
2.99000	-423
2.99367	-367
2.99733	-316
3.00100	-272
3.00467	-233
3.00833	-199
3.01200	-170
3.01567	-144
3.01933	-122
3.02300	-103
3.02667	-87
3.03033	-73
3.03400	-61
3.03767	-51
3.04133	-42
3.04500	-35
3.04867	-28
3.05233	-23
3.05600	-18
3.05967	-14
3.06333	-10
3.06700	-7
3.07067	-5
3.07433	-2
3.07800	-0
3.08167	2
3.08533	3
3.08900	5
3.09267	6
3.09633	7
3.10000	8
3.10367	10
3.10733	11
3.11100	12
3.11467	13
3.11833	13
3.12200	14
3.12567	14
3.12933	14
3.13300	15
3.13667	15
3.14033	15
3.14400	15
3.14767	16
3.15133	16
3.15500	16
3.15867	16
3.16233	16
3.16600	16
3.16967	16
3.17333	16
3.17700	16
3.18067	17
3.18433	17
3.18800	17
3.19167	18
3.19533	19
3.19900	19
3.20267	19
3.20633	19
3.21000	19
3.21367	19
3.21733	19
3.22100	19
3.22467	19
3.22833	19
3.23200	19
3.23567	20
3.23933	20
3.24300	20
3.24667	20
3.25033	20
3.25400	20
3.25767	20
3.26133	20
3.26500	20
3.26867	20
3.27233	21
3.27600	21
3.27967	21
3.28333	22
3.28700	22
3.29067	22
3.29433	23
3.29800	23
3.30167	23
3.30533	24
3.30900	24
3.31267	24
3.31633	24
3.32000	25
3.32367	25
3.32733	25
3.33100	25
3.33467	25
3.33833	25
3.34200	25
3.34567	25
3.34933	25
3.35300	25
3.35667	25
3.36033	25
3.36400	25
3.36767	25
3.37133	25
3.37500	25
3.37867	25
3.38233	25
3.38600	25
3.38967	26
3.39333	26
3.39700	26
3.40067	26
3.40433	26
3.40800	26
3.41167	26
3.41533	26
3.41900	26
3.42267	26
3.42633	26
3.43000	26
3.43367	26
3.43733	26
3.44100	26
3.44467	26
3.44833	26
3.45200	25
3.45567	25
3.45933	25
3.46300	24
3.46667	24
3.47033	24
3.47400	23
3.47767	23
3.48133	23
3.48500	23
3.48867	23
3.49233	23
3.49600	23
3.49967	23
3.50333	23
3.50700	23
3.51067	24
3.51433	24
3.51800	24
3.52167	24
3.52533	24
3.52900	24
3.53267	24
3.53633	24
3.54000	24
3.54367	24
3.54733	24
3.55100	24
3.55467	24
3.55833	24
3.56200	24
3.56567	24
3.56933	24
3.57300	24
3.57667	24
3.58033	24
3.58400	24
3.58767	24
3.59133	24
3.59500	24
3.59867	24
3.60233	24
3.60600	24
3.60967	24
3.61333	24
3.61700	24
3.62067	24
3.62433	24
3.62800	24
3.63167	24
3.63533	24
3.63900	24
3.64267	23
3.64633	23
3.65000	23
3.65367	23
3.65733	23
3.66100	23
3.66467	23
3.66833	23
3.67200	23
3.67567	23
3.67933	23
3.68300	23
3.68667	24
3.69033	24
3.69400	24
3.69767	24
3.70133	24
3.70500	24
3.70867	24
3.71233	25
3.71600	25
3.71967	25
3.72333	25
3.72700	25
3.73067	25
3.73433	25
3.73800	25
3.74167	25
3.74533	25
3.74900	25
3.75267	25
3.75633	25
3.76000	25
3.76367	25
3.76733	25
3.77100	25
3.77467	25
3.77833	25
3.78200	25
3.78567	26
3.78933	26
3.79300	26
3.79667	26
3.80033	26
3.80400	26
3.80767	26
3.81133	25
3.81500	25
3.81867	25
3.82233	25
3.82600	25
3.82967	25
3.83333	25
3.83700	24
3.84067	24
3.84433	24
3.84800	24
3.85167	24
3.85533	24
3.85900	24
3.86267	24
3.86633	24
3.87000	24
3.87367	24
3.87733	24
3.88100	24
3.88467	24
3.88833	24
3.89200	24
3.89567	25
3.89933	25
3.90300	25
3.90667	24
3.91033	24
3.91400	24
3.91767	24
3.92133	24
3.92500	24
3.92867	24
3.93233	25
3.93600	25
3.93967	25
3.94333	25
3.94700	25
3.95067	25
3.95433	25
3.95800	25
3.96167	25
3.96533	25
3.96900	25
3.97267	25
3.97633	25
3.98000	25
3.98367	25
3.98733	25
3.99100	25
3.99467	25
3.99833	25

[Chromatogram (Ch3)]
Interval(msec)	220
# of Points	1091
Start Time(min)	0.002
End Time(min)	3.998
R.Time (min)	Intensity
0.00167	-1
0.00533	-1
0.00900	1
0.01267	2
0.01633	2
0.02000	-1
0.02367	-4
0.02733	-7
0.03100	-7
0.03467	-7
0.03833	-8
0.04200	-6
0.04567	-3
0.04933	-0
0.05300	3
0.05667	3
0.06033	1
0.06400	0
0.06767	0
0.07133	-1
0.07500	-1
0.07867	-2
0.08233	-1
0.08600	0
0.08967	1
0.09333	0
0.09700	-1
0.10067	-2
0.10433	-1
0.10800	-1
0.11167	-0
0.11533	-1
0.11900	-2
0.12267	-3
0.12633	-1
0.13000	2
0.13367	6
0.13733	5
0.14100	3
0.14467	2
0.14833	4
0.15200	5
0.15567	6
0.15933	6
0.16300	6
0.16667	6
0.17033	6
0.17400	7
0.17767	6
0.18133	5
0.18500	3
0.18867	-0
0.19233	-0
0.19600	1
0.19967	3
0.20333	2
0.20700	-1
0.21067	-3
0.21433	-3
0.21800	-1
0.22167	-1
0.22533	-0
0.22900	2
0.23267	3
0.23633	4
0.24000	4
0.24367	5
0.24733	6
0.25100	5
0.25467	5
0.25833	4
0.26200	1
0.26567	-0
0.26933	-1
0.27300	-1
0.27667	2
0.28033	2
0.28400	3
0.28767	4
0.29133	4
0.29500	4
0.29867	4
0.30233	3
0.30600	5
0.30967	5
0.31333	4
0.31700	3
0.32067	4
0.32433	7
0.32800	7
0.33167	6
0.33533	5
0.33900	4
0.34267	3
0.34633	3
0.35000	3
0.35367	0
0.35733	-2
0.36100	-1
0.36467	1
0.36833	3
0.37200	4
0.37567	2
0.37933	1
0.38300	-0
0.38667	-1
0.39033	-1
0.39400	-0
0.39767	1
0.40133	1
0.40500	-1
0.40867	0
0.41233	-0
0.41600	-0
0.41967	-1
0.42333	1
0.42700	2
0.43067	2
0.43433	1
0.43800	0
0.44167	0
0.44533	-0
0.44900	1
0.45267	3
0.45633	4
0.46000	4
0.46367	3
0.46733	3
0.47100	4
0.47467	3
0.47833	3
0.48200	3
0.48567	4
0.48933	4
0.49300	3
0.49667	2
0.50033	4
0.50400	5
0.50767	8
0.51133	10
0.51500	10
0.51867	10
0.52233	9
0.52600	7
0.52967	7
0.53333	11
0.53700	13
0.54067	15
0.54433	17
0.54800	17
0.55167	16
0.55533	15
0.55900	15
0.56267	15
0.56633	15
0.57000	14
0.57367	13
0.57733	14
0.58100	14
0.58467	14
0.58833	12
0.59200	12
0.59567	12
0.59933	11
0.60300	10
0.60667	10
0.61033	9
0.61400	9
0.61767	10
0.62133	11
0.62500	12
0.62867	10
0.63233	9
0.63600	10
0.63967	10
0.64333	9
0.64700	9
0.65067	12
0.65433	14
0.65800	14
0.66167	10
0.66533	9
0.66900	8
0.67267	7
0.67633	8
0.68000	9
0.68367	10
0.68733	12
0.69100	11
0.69467	10
0.69833	10
0.70200	8
0.70567	5
0.70933	4
0.71300	4
0.71667	4
0.72033	5
0.72400	6
0.72767	5
0.73133	5
0.73500	5
0.73867	4
0.74233	3
0.74600	4
0.74967	5
0.75333	6
0.75700	9
0.76067	11
0.76433	12
0.76800	13
0.77167	13
0.77533	13
0.77900	14
0.78267	15
0.78633	13
0.79000	11
0.79367	10
0.79733	8
0.80100	8
0.80467	8
0.80833	7
0.81200	7
0.81567	6
0.81933	6
0.82300	6
0.82667	5
0.83033	3
0.83400	2
0.83767	4
0.84133	5
0.84500	6
0.84867	8
0.85233	10
0.85600	11
0.85967	9
0.86333	9
0.86700	11
0.87067	14
0.87433	12
0.87800	12
0.88167	11
0.88533	12
0.88900	13
0.89267	14
0.89633	12
0.90000	11
0.90367	11
0.90733	11
0.91100	11
0.91467	10
0.91833	12
0.92200	13
0.92567	13
0.92933	12
0.93300	12
0.93667	14
0.94033	16
0.94400	16
0.94767	16
0.95133	16
0.95500	14
0.95867	14
0.96233	14
0.96600	13
0.96967	12
0.97333	15
0.97700	17
0.98067	17
0.98433	17
0.98800	18
0.99167	18
0.99533	17
0.99900	16
1.00267	12
1.00633	10
1.01000	11
1.01367	11
1.01733	12
1.02100	13
1.02467	14
1.02833	13
1.03200	12
1.03567	12
1.03933	11
1.04300	12
1.04667	16
1.05033	18
1.05400	18
1.05767	17
1.06133	16
1.06500	16
1.06867	18
1.07233	19
1.07600	19
1.07967	19
1.08333	17
1.08700	15
1.09067	13
1.09433	9
1.09800	6
1.10167	4
1.10533	3
1.10900	5
1.11267	8
1.11633	11
1.12000	12
1.12367	14
1.12733	14
1.13100	15
1.13467	18
1.13833	20
1.14200	18
1.14567	17
1.14933	16
1.15300	15
1.15667	17
1.16033	17
1.16400	16
1.16767	15
1.17133	17
1.17500	18
1.17867	19
1.18233	18
1.18600	16
1.18967	16
1.19333	17
1.19700	17
1.20067	18
1.20433	20
1.20800	21
1.21167	20
1.21533	18
1.21900	17
1.22267	17
1.22633	16
1.23000	16
1.23367	19
1.23733	22
1.24100	24
1.24467	25
1.24833	25
1.25200	25
1.25567	24
1.25933	23
1.26300	24
1.26667	25
1.27033	25
1.27400	22
1.27767	19
1.28133	18
1.28500	17
1.28867	19
1.29233	23
1.29600	25
1.29967	24
1.30333	22
1.30700	22
1.31067	23
1.31433	26
1.31800	28
1.32167	30
1.32533	30
1.32900	28
1.33267	29
1.33633	28
1.34000	29
1.34367	31
1.34733	32
1.35100	30
1.35467	28
1.35833	26
1.36200	25
1.36567	23
1.36933	24
1.37300	25
1.37667	23
1.38033	23
1.38400	23
1.38767	24
1.39133	23
1.39500	22
1.39867	22
1.40233	23
1.40600	24
1.40967	25
1.41333	25
1.41700	23
1.42067	23
1.42433	23
1.42800	24
1.43167	23
1.43533	23
1.43900	23
1.44267	24
1.44633	24
1.45000	27
1.45367	30
1.45733	30
1.46100	28
1.46467	27
1.46833	26
1.47200	24
1.47567	24
1.47933	25
1.48300	27
1.48667	27
1.49033	27
1.49400	27
1.49767	27
1.50133	27
1.50500	25
1.50867	24
1.51233	24
1.51600	24
1.51967	23
1.52333	22
1.52700	22
1.53067	21
1.53433	19
1.53800	16
1.54167	15
1.54533	15
1.54900	16
1.55267	19
1.55633	21
1.56000	22
1.56367	20
1.56733	19
1.57100	18
1.57467	17
1.57833	17
1.58200	18
1.58567	20
1.58933	19
1.59300	18
1.59667	18
1.60033	18
1.60400	18
1.60767	19
1.61133	18
1.61500	17
1.61867	18
1.62233	19
1.62600	19
1.62967	18
1.63333	19
1.63700	22
1.64067	24
1.64433	25
1.64800	23
1.65167	22
1.65533	23
1.65900	25
1.66267	29
1.66633	30
1.67000	29
1.67367	28
1.67733	27
1.68100	26
1.68467	28
1.68833	30
1.69200	31
1.69567	33
1.69933	33
1.70300	32
1.70667	31
1.71033	33
1.71400	33
1.71767	32
1.72133	32
1.72500	31
1.72867	32
1.73233	31
1.73600	32
1.73967	33
1.74333	35
1.74700	36
1.75067	35
1.75433	34
1.75800	36
1.76167	37
1.76533	36
1.76900	37
1.77267	39
1.77633	39
1.78000	38
1.78367	38
1.78733	38
1.79100	39
1.79467	42
1.79833	42
1.80200	42
1.80567	43
1.80933	43
1.81300	41
1.81667	40
1.82033	41
1.82400	42
1.82767	43
1.83133	44
1.83500	45
1.83867	43
1.84233	41
1.84600	40
1.84967	38
1.85333	41
1.85700	43
1.86067	45
1.86433	47
1.86800	49
1.87167	49
1.87533	51
1.87900	51
1.88267	49
1.88633	49
1.89000	49
1.89367	49
1.89733	53
1.90100	55
1.90467	57
1.90833	56
1.91200	53
1.91567	50
1.91933	49
1.92300	49
1.92667	50
1.93033	52
1.93400	54
1.93767	54
1.94133	54
1.94500	56
1.94867	57
1.95233	56
1.95600	56
1.95967	58
1.96333	59
1.96700	60
1.97067	60
1.97433	61
1.97800	62
1.98167	63
1.98533	65
1.98900	66
1.99267	66
1.99633	68
2.00000	72
2.00367	74
2.00733	75
2.01100	76
2.01467	76
2.01833	76
2.02200	76
2.02567	77
2.02933	82
2.03300	85
2.03667	86
2.04033	86
2.04400	87
2.04767	88
2.05133	87
2.05500	87
2.05867	88
2.06233	89
2.06600	91
2.06967	91
2.07333	91
2.07700	90
2.08067	89
2.08433	89
2.08800	91
2.09167	95
2.09533	96
2.09900	97
2.10267	97
2.10633	98
2.11000	102
2.11367	105
2.11733	107
2.12100	109
2.12467	110
2.12833	109
2.13200	109
2.13567	112
2.13933	116
2.14300	119
2.14667	122
2.15033	125
2.15400	127
2.15767	128
2.16133	128
2.16500	129
2.16867	131
2.17233	133
2.17600	134
2.17967	137
2.18333	138
2.18700	139
2.19067	139
2.19433	143
2.19800	145
2.20167	146
2.20533	149
2.20900	152
2.21267	152
2.21633	153
2.22000	156
2.22367	158
2.22733	159
2.23100	161
2.23467	167
2.23833	172
2.24200	173
2.24567	173
2.24933	173
2.25300	172
2.25667	175
2.26033	177
2.26400	178
2.26767	180
2.27133	182
2.27500	186
2.27867	188
2.28233	188
2.28600	191
2.28967	192
2.29333	193
2.29700	195
2.30067	196
2.30433	198
2.30800	200
2.31167	201
2.31533	203
2.31900	205
2.32267	205
2.32633	205
2.33000	208
2.33367	211
2.33733	213
2.34100	214
2.34467	215
2.34833	216
2.35200	219
2.35567	223
2.35933	225
2.36300	227
2.36667	229
2.37033	231
2.37400	234
2.37767	237
2.38133	239
2.38500	239
2.38867	238
2.39233	238
2.39600	241
2.39967	244
2.40333	249
2.40700	251
2.41067	251
2.41433	252
2.41800	257
2.42167	261
2.42533	265
2.42900	267
2.43267	269
2.43633	269
2.44000	273
2.44367	333
2.44733	474
2.45100	622
2.45467	742
2.45833	808
2.46200	812
2.46567	779
2.46933	741
2.47300	712
2.47667	695
2.48033	683
2.48400	661
2.48767	629
2.49133	587
2.49500	544
2.49867	509
2.50233	483
2.50600	468
2.50967	459
2.51333	456
2.51700	462
2.52067	476
2.52433	495
2.52800	515
2.53167	531
2.53533	536
2.53900	530
2.54267	513
2.54633	488
2.55000	461
2.55367	433
2.55733	409
2.56100	389
2.56467	373
2.56833	362
2.57200	353
2.57567	348
2.57933	346
2.58300	345
2.58667	346
2.59033	344
2.59400	341
2.59767	339
2.60133	334
2.60500	326
2.60867	315
2.61233	302
2.61600	290
2.61967	281
2.62333	275
2.62700	272
2.63067	269
2.63433	268
2.63800	269
2.64167	272
2.64533	275
2.64900	278
2.65267	281
2.65633	283
2.66000	285
2.66367	284
2.66733	281
2.67100	278
2.67467	274
2.67833	268
2.68200	258
2.68567	248
2.68933	239
2.69300	231
2.69667	226
2.70033	221
2.70400	216
2.70767	210
2.71133	206
2.71500	205
2.71867	204
2.72233	204
2.72600	205
2.72967	204
2.73333	203
2.73700	200
2.74067	198
2.74433	199
2.74800	201
2.75167	205
2.75533	206
2.75900	208
2.76267	209
2.76633	210
2.77000	211
2.77367	210
2.77733	210
2.78100	211
2.78467	211
2.78833	213
2.79200	216
2.79567	219
2.79933	221
2.80300	222
2.80667	222
2.81033	223
2.81400	224
2.81767	229
2.82133	238
2.82500	260
2.82867	313
2.83233	414
2.83600	586
2.83967	851
2.84333	1220
2.84700	1694
2.85067	2257
2.85433	2873
2.85800	3495
2.86167	4076
2.86533	4566
2.86900	4931
2.87267	5145
2.87633	5210
2.88000	5136
2.88367	4952
2.88733	4683
2.89100	4357
2.89467	4001
2.89833	3638
2.90200	3283
2.90567	2944
2.90933	2630
2.91300	2346
2.91667	2087
2.92033	1855
2.92400	1651
2.92767	1472
2.93133	1313
2.93500	1172
2.93867	1051
2.94233	943
2.94600	851
2.94967	771
2.95333	701
2.95700	639
2.96067	584
2.96433	537
2.96800	497
2.97167	462
2.97533	431
2.97900	403
2.98267	379
2.98633	359
2.99000	341
2.99367	327
2.99733	315
3.00100	301
3.00467	289
3.00833	279
3.01200	270
3.01567	264
3.01933	257
3.02300	251
3.02667	246
3.03033	239
3.03400	233
3.03767	228
3.04133	223
3.04500	218
3.04867	213
3.05233	211
3.05600	211
3.05967	210
3.06333	209
3.06700	208
3.07067	204
3.07433	201
3.07800	198
3.08167	197
3.08533	197
3.08900	199
3.09267	200
3.09633	196
3.10000	193
3.10367	192
3.10733	191
3.11100	190
3.11467	190
3.11833	189
3.12200	187
3.12567	185
3.12933	185
3.13300	187
3.13667	187
3.14033	186
3.14400	188
3.14767	190
3.15133	192
3.15500	194
3.15867	195
3.16233	196
3.16600	199
3.16967	201
3.17333	203
3.17700	205
3.18067	206
3.18433	206
3.18800	206
3.19167	207
3.19533	208
3.19900	207
3.20267	201
3.20633	196
3.21000	195
3.21367	204
3.21733	218
3.22100	236
3.22467	254
3.22833	274
3.23200	298
3.23567	325
3.23933	352
3.24300	378
3.24667	403
3.25033	427
3.25400	450
3.25767	472
3.26133	492
3.26500	509
3.26867	524
3.27233	538
3.27600	550
3.27967	558
3.28333	566
3.28700	571
3.29067	577
3.29433	582
3.29800	585
3.30167	589
3.30533	592
3.30900	596
3.31267	601
3.31633	603
3.32000	604
3.32367	606
3.32733	611
3.33100	612
3.33467	611
3.33833	612
3.34200	615
3.34567	618
3.34933	621
3.35300	622
3.35667	623
3.36033	624
3.36400	628
3.36767	630
3.37133	631
3.37500	633
3.37867	634
3.38233	635
3.38600	639
3.38967	642
3.39333	644
3.39700	646
3.40067	647
3.40433	649
3.40800	651
3.41167	655
3.41533	657
3.41900	659
3.42267	662
3.42633	662
3.43000	661
3.43367	661
3.43733	664
3.44100	668
3.44467	671
3.44833	674
3.45200	673
3.45567	670
3.45933	669
3.46300	670
3.46667	669
3.47033	669
3.47400	670
3.47767	669
3.48133	670
3.48500	669
3.48867	668
3.49233	669
3.49600	670
3.49967	669
3.50333	670
3.50700	667
3.51067	664
3.51433	661
3.51800	660
3.52167	661
3.52533	660
3.52900	661
3.53267	660
3.53633	659
3.54000	660
3.54367	660
3.54733	656
3.55100	653
3.55467	650
3.55833	646
3.56200	644
3.56567	642
3.56933	640
3.57300	640
3.57667	638
3.58033	638
3.58400	637
3.58767	636
3.59133	633
3.59500	634
3.59867	636
3.60233	636
3.60600	637
3.60967	637
3.61333	637
3.61700	634
3.62067	631
3.62433	631
3.62800	631
3.63167	632
3.63533	632
3.63900	632
3.64267	630
3.64633	628
3.65000	627
3.65367	626
3.65733	623
3.66100	624
3.66467	624
3.66833	622
3.67200	621
3.67567	621
3.67933	620
3.68300	619
3.68667	620
3.69033	621
3.69400	621
3.69767	622
3.70133	625
3.70500	626
3.70867	625
3.71233	624
3.71600	621
3.71967	618
3.72333	618
3.72700	617
3.73067	620
3.73433	622
3.73800	623
3.74167	623
3.74533	623
3.74900	625
3.75267	624
3.75633	623
3.76000	623
3.76367	624
3.76733	625
3.77100	625
3.77467	624
3.77833	624
3.78200	625
3.78567	627
3.78933	627
3.79300	624
3.79667	618
3.80033	615
3.80400	617
3.80767	620
3.81133	622
3.81500	621
3.81867	621
3.82233	619
3.82600	617
3.82967	615
3.83333	615
3.83700	614
3.84067	613
3.84433	612
3.84800	612
3.85167	611
3.85533	612
3.85900	610
3.86267	608
3.86633	606
3.87000	604
3.87367	603
3.87733	601
3.88100	601
3.88467	600
3.88833	601
3.89200	603
3.89567	601
3.89933	599
3.90300	597
3.90667	597
3.91033	597
3.91400	596
3.91767	595
3.92133	594
3.92500	591
3.92867	591
3.93233	589
3.93600	586
3.93967	583
3.94333	580
3.94700	578
3.95067	577
3.95433	576
3.95800	574
3.96167	573
3.96533	573
3.96900	573
3.97267	573
3.97633	572
3.98000	571
3.98367	570
3.98733	568
3.99100	565
3.99467	563
3.99833	560

[Status Trace (Column Oven Temperature)]
Interval(msec)	1000
# of Points	240
Start Time(min)	0.014
End Time(min)	3.997
Intensity Units	
Intensity Multiplier	1
R.Time (min)	Intensity
0.01395	35.02
0.03062	35.03
0.04728	35.03
0.06395	35.03
0.08062	35.03
0.09728	35.03
0.11395	35.04
0.13062	35.04
0.14728	35.03
0.16395	35.04
0.18062	35.05
0.19728	35.04
0.21395	35.04
0.23062	35.03
0.24728	35.03
0.26395	35.02
0.28062	35.03
0.29728	35.03
0.31395	35.02
0.33062	35.02
0.34728	35.01
0.36395	35.01
0.38062	34.99
0.39728	34.99
0.41395	34.98
0.43062	34.98
0.44728	34.98
0.46395	34.99
0.48062	35.00
0.49728	35.00
0.51395	35.00
0.53062	35.01
0.54728	35.01
0.56395	35.01
0.58062	34.99
0.59728	34.99
0.61395	34.99
0.63062	34.99
0.64728	35.00
0.66395	35.00
0.68062	34.99
0.69728	34.99
0.71395	34.98
0.73062	34.97
0.74728	34.96
0.76395	34.95
0.78062	34.95
0.79728	34.95
0.81395	34.96
0.83062	34.98
0.84728	35.00
0.86395	35.01
0.88062	35.02
0.89728	35.02
0.91395	35.01
0.93062	35.01
0.94728	35.00
0.96395	35.00
0.98062	35.00
0.99728	35.01
1.01395	35.01
1.03062	35.01
1.04728	35.00
1.06395	35.01
1.08062	35.00
1.09728	35.00
1.11395	35.00
1.13062	35.00
1.14728	34.98
1.16395	34.96
1.18062	34.96
1.19728	34.96
1.21395	34.97
1.23062	34.98
1.24728	34.99
1.26395	34.99
1.28062	34.99
1.29728	34.98
1.31395	34.98
1.33062	34.98
1.34728	34.97
1.36395	34.97
1.38062	34.98
1.39728	34.99
1.41395	34.99
1.43062	35.00
1.44728	35.01
1.46395	35.02
1.48062	35.02
1.49728	35.02
1.51395	35.02
1.53062	35.02
1.54728	35.02
1.56395	35.01
1.58062	34.99
1.59728	35.01
1.61395	35.08
1.63062	35.24
1.64728	35.45
1.66395	35.73
1.68062	36.11
1.69728	36.48
1.71395	36.82
1.73062	37.13
1.74728	37.47
1.76395	37.81
1.78062	38.12
1.79728	38.47
1.81395	38.81
1.83062	39.13
1.84728	39.44
1.86395	39.78
1.88062	40.11
1.89728	40.45
1.91395	40.77
1.93062	41.09
1.94728	41.43
1.96395	41.74
1.98062	42.07
1.99728	42.38
2.01395	42.71
2.03062	43.02
2.04728	43.35
2.06395	43.68
2.08062	44.00
2.09728	44.31
2.11395	44.64
2.13062	44.98
2.14728	45.32
2.16395	45.65
2.18062	45.97
2.19728	46.29
2.21395	46.63
2.23062	46.97
2.24728	47.29
2.26395	47.62
2.28062	47.96
2.29728	48.28
2.31395	48.61
2.33062	48.94
2.34728	49.25
2.36395	49.52
2.38062	49.67
2.39728	49.71
2.41395	49.70
2.43062	49.70
2.44728	49.71
2.46395	49.71
2.48062	49.73
2.49728	49.74
2.51395	49.75
2.53062	49.77
2.54728	49.78
2.56395	49.79
2.58062	49.80
2.59728	49.81
2.61395	49.83
2.63062	49.83
2.64728	49.83
2.66395	49.83
2.68062	49.84
2.69728	49.84
2.71395	49.85
2.73062	49.86
2.74728	49.85
2.76395	49.85
2.78062	49.86
2.79728	49.87
2.81395	49.88
2.83062	49.88
2.84728	49.88
2.86395	49.88
2.88062	49.87
2.89728	49.87
2.91395	49.89
2.93062	49.90
2.94728	49.91
2.96395	49.92
2.98062	49.93
2.99728	49.95
3.01395	49.97
3.03062	50.00
3.04728	50.02
3.06395	50.03
3.08062	50.03
3.09728	50.04
3.11395	50.05
3.13062	50.05
3.14728	50.06
3.16395	50.07
3.18062	50.08
3.19728	50.09
3.21395	50.09
3.23062	50.10
3.24728	50.10
3.26395	50.11
3.28062	50.10
3.29728	50.09
3.31395	50.08
3.33062	50.07
3.34728	50.06
3.36395	50.05
3.38062	50.05
3.39728	50.04
3.41395	50.04
3.43062	50.04
3.44728	50.04
3.46395	50.06
3.48062	50.06
3.49728	50.07
3.51395	50.07
3.53062	50.07
3.54728	50.08
3.56395	50.07
3.58062	50.07
3.59728	50.08
3.61395	50.08
3.63062	50.09
3.64728	50.09
3.66395	50.09
3.68062	50.10
3.69728	50.09
3.71395	50.09
3.73062	50.08
3.74728	50.08
3.76395	50.07
3.78062	50.07
3.79728	50.07
3.81395	50.07
3.83062	50.07
3.84728	50.07
3.86395	50.06
3.88062	50.06
3.89728	50.05
3.91395	50.05
3.93062	50.05
3.94728	50.05
3.96395	50.05
3.98062	50.05
3.99728	50.05

[Status Trace (Injection Unit Temperature)]
Interval(msec)	1000
# of Points	240
Start Time(min)	0.014
End Time(min)	3.997
Intensity Units	
Intensity Multiplier	1
R.Time (min)	Intensity
0.01395	99.98
0.03062	99.98
0.04728	99.98
0.06395	99.97
0.08062	99.97
0.09728	99.97
0.11395	99.97
0.13062	99.98
0.14728	99.97
0.16395	99.97
0.18062	99.98
0.19728	99.98
0.21395	99.98
0.23062	99.98
0.24728	99.97
0.26395	99.97
0.28062	99.97
0.29728	99.97
0.31395	99.97
0.33062	99.97
0.34728	99.97
0.36395	99.97
0.38062	99.97
0.39728	99.97
0.41395	99.97
0.43062	99.97
0.44728	99.97
0.46395	99.97
0.48062	99.97
0.49728	99.97
0.51395	99.97
0.53062	99.97
0.54728	99.97
0.56395	99.97
0.58062	99.97
0.59728	99.97
0.61395	99.97
0.63062	99.98
0.64728	99.97
0.66395	99.97
0.68062	99.97
0.69728	99.97
0.71395	99.98
0.73062	99.98
0.74728	99.97
0.76395	99.97
0.78062	99.98
0.79728	99.98
0.81395	99.98
0.83062	99.98
0.84728	99.98
0.86395	99.98
0.88062	99.98
0.89728	99.98
0.91395	99.98
0.93062	99.98
0.94728	99.98
0.96395	99.99
0.98062	99.99
0.99728	99.99
1.01395	99.98
1.03062	99.99
1.04728	99.98
1.06395	99.99
1.08062	99.99
1.09728	99.99
1.11395	99.98
1.13062	99.99
1.14728	99.99
1.16395	99.99
1.18062	99.99
1.19728	99.99
1.21395	99.99
1.23062	99.99
1.24728	99.99
1.26395	99.99
1.28062	99.99
1.29728	99.99
1.31395	99.99
1.33062	99.99
1.34728	99.98
1.36395	99.98
1.38062	99.99
1.39728	99.98
1.41395	99.99
1.43062	99.98
1.44728	99.99
1.46395	99.98
1.48062	99.99
1.49728	99.98
1.51395	99.98
1.53062	99.98
1.54728	99.98
1.56395	99.98
1.58062	99.98
1.59728	99.98
1.61395	99.99
1.63062	99.98
1.64728	99.98
1.66395	99.98
1.68062	99.98
1.69728	99.99
1.71395	99.98
1.73062	99.99
1.74728	99.98
1.76395	99.98
1.78062	99.98
1.79728	99.99
1.81395	99.99
1.83062	99.99
1.84728	99.98
1.86395	99.98
1.88062	99.98
1.89728	99.98
1.91395	99.98
1.93062	99.98
1.94728	99.98
1.96395	99.98
1.98062	99.98
1.99728	99.98
2.01395	99.98
2.03062	99.98
2.04728	99.98
2.06395	99.98
2.08062	99.98
2.09728	99.98
2.11395	99.98
2.13062	99.98
2.14728	99.98
2.16395	99.97
2.18062	99.98
2.19728	99.98
2.21395	99.97
2.23062	99.97
2.24728	99.97
2.26395	99.97
2.28062	99.97
2.29728	99.97
2.31395	99.97
2.33062	99.97
2.34728	99.97
2.36395	99.97
2.38062	99.97
2.39728	99.97
2.41395	99.97
2.43062	99.97
2.44728	99.97
2.46395	99.97
2.48062	99.97
2.49728	99.97
2.51395	99.97
2.53062	99.97
2.54728	99.97
2.56395	99.97
2.58062	99.97
2.59728	99.97
2.61395	99.97
2.63062	99.97
2.64728	99.97
2.66395	99.98
2.68062	99.97
2.69728	99.98
2.71395	99.98
2.73062	99.98
2.74728	99.98
2.76395	99.98
2.78062	99.99
2.79728	99.99
2.81395	99.99
2.83062	99.99
2.84728	99.99
2.86395	100.00
2.88062	100.00
2.89728	100.00
2.91395	100.00
2.93062	100.00
2.94728	100.00
2.96395	100.00
2.98062	100.01
2.99728	100.01
3.01395	100.01
3.03062	100.01
3.04728	100.01
3.06395	100.02
3.08062	100.01
3.09728	100.02
3.11395	100.02
3.13062	100.02
3.14728	100.02
3.16395	100.02
3.18062	100.02
3.19728	100.02
3.21395	100.03
3.23062	100.03
3.24728	100.03
3.26395	100.03
3.28062	100.03
3.29728	100.03
3.31395	100.03
3.33062	100.03
3.34728	100.03
3.36395	100.03
3.38062	100.02
3.39728	100.03
3.41395	100.03
3.43062	100.03
3.44728	100.03
3.46395	100.03
3.48062	100.03
3.49728	100.03
3.51395	100.03
3.53062	100.03
3.54728	100.03
3.56395	100.04
3.58062	100.03
3.59728	100.03
3.61395	100.03
3.63062	100.04
3.64728	100.03
3.66395	100.03
3.68062	100.04
3.69728	100.04
3.71395	100.04
3.73062	100.04
3.74728	100.04
3.76395	100.04
3.78062	100.04
3.79728	100.04
3.81395	100.04
3.83062	100.04
3.84728	100.04
3.86395	100.04
3.88062	100.04
3.89728	100.04
3.91395	100.05
3.93062	100.04
3.94728	100.05
3.96395	100.05
3.98062	100.04
3.99728	100.04

[Status Trace (Carrier Gas Pressure)]
Interval(msec)	1000
# of Points	240
Start Time(min)	0.014
End Time(min)	3.997
Intensity Units	
Intensity Multiplier	1
R.Time (min)	Intensity
0.01395	57.72
0.03062	55.44
0.04728	57.97
0.06395	59.81
0.08062	58.69
0.09728	57.98
0.11395	57.99
0.13062	58.01
0.14728	58.01
0.16395	58.01
0.18062	58.00
0.19728	58.00
0.21395	58.00
0.23062	58.00
0.24728	58.00
0.26395	58.00
0.28062	58.00
0.29728	58.00
0.31395	58.00
0.33062	58.00
0.34728	58.00
0.36395	58.00
0.38062	58.00
0.39728	58.00
0.41395	58.00
0.43062	58.00
0.44728	58.00
0.46395	58.00
0.48062	58.00
0.49728	58.00
0.51395	58.00
0.53062	58.00
0.54728	58.00
0.56395	58.00
0.58062	58.00
0.59728	58.00
0.61395	58.00
0.63062	58.00
0.64728	58.00
0.66395	58.00
0.68062	58.00
0.69728	58.00
0.71395	58.00
0.73062	58.00
0.74728	58.00
0.76395	58.00
0.78062	58.00
0.79728	58.00
0.81395	58.00
0.83062	58.00
0.84728	58.00
0.86395	58.00
0.88062	58.00
0.89728	58.00
0.91395	58.00
0.93062	58.00
0.94728	58.00
0.96395	58.00
0.98062	58.00
0.99728	58.00
1.01395	58.00
1.03062	58.00
1.04728	58.00
1.06395	58.00
1.08062	58.00
1.09728	58.00
1.11395	58.00
1.13062	58.00
1.14728	58.00
1.16395	58.00
1.18062	58.00
1.19728	58.00
1.21395	58.00
1.23062	58.00
1.24728	58.00
1.26395	58.00
1.28062	58.00
1.29728	58.00
1.31395	58.00
1.33062	58.00
1.34728	58.00
1.36395	58.00
1.38062	58.00
1.39728	58.00
1.41395	58.00
1.43062	58.00
1.44728	58.00
1.46395	58.00
1.48062	58.00
1.49728	58.00
1.51395	58.00
1.53062	58.00
1.54728	58.00
1.56395	58.00
1.58062	58.00
1.59728	58.00
1.61395	58.00
1.63062	58.01
1.64728	58.00
1.66395	58.01
1.68062	58.01
1.69728	58.00
1.71395	58.00
1.73062	58.00
1.74728	58.00
1.76395	58.00
1.78062	58.00
1.79728	58.00
1.81395	58.00
1.83062	58.00
1.84728	58.00
1.86395	58.00
1.88062	58.00
1.89728	58.00
1.91395	58.00
1.93062	58.00
1.94728	58.00
1.96395	58.00
1.98062	58.00
1.99728	58.00
2.01395	58.00
2.03062	58.00
2.04728	58.00
2.06395	58.00
2.08062	58.00
2.09728	58.00
2.11395	58.00
2.13062	58.00
2.14728	58.00
2.16395	58.00
2.18062	58.00
2.19728	58.00
2.21395	58.00
2.23062	58.00
2.24728	58.00
2.26395	58.00
2.28062	58.00
2.29728	58.00
2.31395	58.00
2.33062	58.00
2.34728	58.00
2.36395	58.00
2.38062	57.99
2.39728	57.99
2.41395	57.99
2.43062	58.00
2.44728	58.00
2.46395	58.00
2.48062	58.00
2.49728	58.00
2.51395	57.99
2.53062	57.99
2.54728	58.00
2.56395	58.00
2.58062	58.00
2.59728	58.00
2.61395	58.00
2.63062	58.00
2.64728	58.00
2.66395	58.00
2.68062	58.00
2.69728	58.00
2.71395	58.00
2.73062	58.00
2.74728	58.00
2.76395	58.00
2.78062	58.00
2.79728	58.00
2.81395	58.00
2.83062	58.00
2.84728	58.00
2.86395	58.00
2.88062	58.00
2.89728	58.00
2.91395	58.00
2.93062	58.00
2.94728	58.00
2.96395	58.00
2.98062	58.00
2.99728	58.00
3.01395	58.00
3.03062	58.00
3.04728	58.00
3.06395	58.00
3.08062	58.00
3.09728	58.00
3.11395	58.00
3.13062	58.00
3.14728	58.00
3.16395	58.00
3.18062	58.00
3.19728	58.00
3.21395	58.00
3.23062	58.00
3.24728	58.00
3.26395	58.00
3.28062	58.00
3.29728	58.00
3.31395	58.00
3.33062	58.00
3.34728	58.00
3.36395	58.00
3.38062	58.00
3.39728	58.00
3.41395	58.00
3.43062	58.00
3.44728	58.00
3.46395	58.00
3.48062	58.00
3.49728	58.00
3.51395	58.00
3.53062	58.00
3.54728	58.00
3.56395	58.00
3.58062	58.00
3.59728	58.00
3.61395	58.00
3.63062	58.00
3.64728	58.00
3.66395	58.00
3.68062	58.00
3.69728	58.00
3.71395	58.00
3.73062	58.00
3.74728	58.00
3.76395	58.00
3.78062	58.00
3.79728	58.00
3.81395	58.00
3.83062	58.00
3.84728	58.00
3.86395	58.00
3.88062	58.00
3.89728	58.00
3.91395	58.00
3.93062	58.00
3.94728	58.00
3.96395	58.00
3.98062	58.00
3.99728	58.00

[Status Trace (Carrier Gas Flow)]
Interval(msec)	1000
# of Points	240
Start Time(min)	0.014
End Time(min)	3.997
Intensity Units	
Intensity Multiplier	1
R.Time (min)	Intensity
0.01395	34.37
0.03062	34.54
0.04728	34.55
0.06395	34.52
0.08062	34.51
0.09728	34.52
0.11395	34.51
0.13062	34.52
0.14728	34.52
0.16395	34.52
0.18062	34.52
0.19728	34.52
0.21395	34.52
0.23062	34.51
0.24728	34.51
0.26395	34.52
0.28062	34.52
0.29728	34.51
0.31395	34.52
0.33062	34.52
0.34728	34.52
0.36395	34.52
0.38062	34.51
0.39728	34.52
0.41395	34.53
0.43062	34.52
0.44728	34.52
0.46395	34.52
0.48062	34.52
0.49728	34.52
0.51395	34.52
0.53062	34.52
0.54728	34.51
0.56395	34.52
0.58062	34.52
0.59728	34.52
0.61395	34.52
0.63062	34.52
0.64728	34.52
0.66395	34.52
0.68062	34.52
0.69728	34.52
0.71395	34.52
0.73062	34.52
0.74728	34.52
0.76395	34.52
0.78062	34.52
0.79728	34.52
0.81395	34.52
0.83062	34.52
0.84728	34.52
0.86395	34.51
0.88062	34.51
0.89728	34.52
0.91395	34.52
0.93062	34.52
0.94728	34.52
0.96395	34.51
0.98062	34.52
0.99728	34.52
1.01395	34.52
1.03062	34.51
1.04728	34.52
1.06395	34.52
1.08062	34.52
1.09728	34.52
1.11395	34.52
1.13062	34.52
1.14728	34.53
1.16395	34.52
1.18062	34.52
1.19728	34.52
1.21395	34.51
1.23062	34.52
1.24728	34.52
1.26395	34.52
1.28062	34.52
1.29728	34.52
1.31395	34.52
1.33062	34.52
1.34728	34.52
1.36395	34.52
1.38062	34.52
1.39728	34.52
1.41395	34.52
1.43062	34.51
1.44728	34.51
1.46395	34.52
1.48062	34.52
1.49728	34.52
1.51395	34.52
1.53062	34.52
1.54728	34.51
1.56395	34.51
1.58062	34.52
1.59728	34.52
1.61395	34.52
1.63062	34.52
1.64728	34.52
1.66395	34.52
1.68062	34.52
1.69728	34.52
1.71395	34.52
1.73062	34.52
1.74728	34.52
1.76395	34.52
1.78062	34.52
1.79728	34.52
1.81395	34.52
1.83062	34.52
1.84728	34.53
1.86395	34.52
1.88062	34.51
1.89728	34.52
1.91395	34.52
1.93062	34.52
1.94728	34.51
1.96395	34.52
1.98062	34.52
1.99728	34.52
2.01395	34.52
2.03062	34.52
2.04728	34.52
2.06395	34.53
2.08062	34.52
2.09728	34.52
2.11395	34.53
2.13062	34.52
2.14728	34.52
2.16395	34.52
2.18062	34.52
2.19728	34.53
2.21395	34.51
2.23062	34.52
2.24728	34.53
2.26395	34.52
2.28062	34.51
2.29728	34.52
2.31395	34.52
2.33062	34.52
2.34728	34.51
2.36395	34.52
2.38062	34.51
2.39728	34.53
2.41395	34.52
2.43062	34.52
2.44728	34.52
2.46395	34.51
2.48062	34.51
2.49728	34.52
2.51395	34.52
2.53062	34.52
2.54728	34.52
2.56395	34.52
2.58062	34.52
2.59728	34.52
2.61395	34.52
2.63062	34.52
2.64728	34.52
2.66395	34.52
2.68062	34.52
2.69728	34.52
2.71395	34.51
2.73062	34.52
2.74728	34.52
2.76395	34.52
2.78062	34.51
2.79728	34.52
2.81395	34.52
2.83062	34.52
2.84728	34.51
2.86395	34.53
2.88062	34.52
2.89728	34.52
2.91395	34.52
2.93062	34.52
2.94728	34.52
2.96395	34.52
2.98062	34.52
2.99728	34.52
3.01395	34.52
3.03062	34.52
3.04728	34.52
3.06395	34.52
3.08062	34.52
3.09728	34.52
3.11395	34.52
3.13062	34.52
3.14728	34.52
3.16395	34.52
3.18062	34.52
3.19728	34.51
3.21395	34.52
3.23062	34.52
3.24728	34.53
3.26395	34.52
3.28062	34.52
3.29728	34.52
3.31395	34.51
3.33062	34.52
3.34728	34.52
3.36395	34.52
3.38062	34.52
3.39728	34.52
3.41395	34.52
3.43062	34.51
3.44728	34.52
3.46395	34.52
3.48062	34.52
3.49728	34.52
3.51395	34.52
3.53062	34.51
3.54728	34.52
3.56395	34.52
3.58062	34.52
3.59728	34.51
3.61395	34.52
3.63062	34.52
3.64728	34.52
3.66395	34.52
3.68062	34.52
3.69728	34.51
3.71395	34.51
3.73062	34.52
3.74728	34.52
3.76395	34.52
3.78062	34.52
3.79728	34.53
3.81395	34.52
3.83062	34.52
3.84728	34.52
3.86395	34.52
3.88062	34.52
3.89728	34.51
3.91395	34.53
3.93062	34.51
3.94728	34.52
3.96395	34.52
3.98062	34.52
3.99728	34.51

[Status Trace (Column Flow)]
Interval(msec)	1000
# of Points	240
Start Time(min)	0.014
End Time(min)	3.997
Intensity Units	
Intensity Multiplier	1
R.Time (min)	Intensity
0.01395	5.49
0.03062	5.22
0.04728	5.52
0.06395	5.73
0.08062	5.60
0.09728	5.52
0.11395	5.52
0.13062	5.52
0.14728	5.52
0.16395	5.52
0.18062	5.52
0.19728	5.52
0.21395	5.52
0.23062	5.52
0.24728	5.52
0.26395	5.52
0.28062	5.52
0.29728	5.52
0.31395	5.52
0.33062	5.52
0.34728	5.52
0.36395	5.52
0.38062	5.52
0.39728	5.52
0.41395	5.52
0.43062	5.52
0.44728	5.52
0.46395	5.52
0.48062	5.52
0.49728	5.52
0.51395	5.52
0.53062	5.52
0.54728	5.52
0.56395	5.52
0.58062	5.52
0.59728	5.52
0.61395	5.52
0.63062	5.52
0.64728	5.52
0.66395	5.52
0.68062	5.52
0.69728	5.52
0.71395	5.52
0.73062	5.52
0.74728	5.52
0.76395	5.52
0.78062	5.52
0.79728	5.52
0.81395	5.52
0.83062	5.52
0.84728	5.52
0.86395	5.52
0.88062	5.52
0.89728	5.52
0.91395	5.52
0.93062	5.52
0.94728	5.52
0.96395	5.52
0.98062	5.52
0.99728	5.52
1.01395	5.52
1.03062	5.52
1.04728	5.52
1.06395	5.52
1.08062	5.52
1.09728	5.52
1.11395	5.52
1.13062	5.52
1.14728	5.52
1.16395	5.52
1.18062	5.52
1.19728	5.52
1.21395	5.52
1.23062	5.52
1.24728	5.52
1.26395	5.52
1.28062	5.52
1.29728	5.52
1.31395	5.52
1.33062	5.52
1.34728	5.52
1.36395	5.52
1.38062	5.52
1.39728	5.52
1.41395	5.52
1.43062	5.52
1.44728	5.52
1.46395	5.52
1.48062	5.52
1.49728	5.52
1.51395	5.52
1.53062	5.52
1.54728	5.52
1.56395	5.52
1.58062	5.52
1.59728	5.52
1.61395	5.52
1.63062	5.51
1.64728	5.51
1.66395	5.50
1.68062	5.49
1.69728	5.47
1.71395	5.46
1.73062	5.45
1.74728	5.44
1.76395	5.43
1.78062	5.42
1.79728	5.41
1.81395	5.40
1.83062	5.39
1.84728	5.38
1.86395	5.37
1.88062	5.36
1.89728	5.35
1.91395	5.34
1.93062	5.33
1.94728	5.32
1.96395	5.31
1.98062	5.30
1.99728	5.29
2.01395	5.29
2.03062	5.28
2.04728	5.27
2.06395	5.26
2.08062	5.25
2.09728	5.24
2.11395	5.23
2.13062	5.22
2.14728	5.21
2.16395	5.20
2.18062	5.19
2.19728	5.18
2.21395	5.17
2.23062	5.16
2.24728	5.15
2.26395	5.14
2.28062	5.13
2.29728	5.12
2.31395	5.12
2.33062	5.11
2.34728	5.10
2.36395	5.09
2.38062	5.09
2.39728	5.08
2.41395	5.08
2.43062	5.09
2.44728	5.08
2.46395	5.08
2.48062	5.08
2.49728	5.08
2.51395	5.08
2.53062	5.08
2.54728	5.08
2.56395	5.08
2.58062	5.08
2.59728	5.08
2.61395	5.08
2.63062	5.08
2.64728	5.08
2.66395	5.08
2.68062	5.08
2.69728	5.08
2.71395	5.08
2.73062	5.08
2.74728	5.08
2.76395	5.08
2.78062	5.08
2.79728	5.08
2.81395	5.08
2.83062	5.08
2.84728	5.08
2.86395	5.08
2.88062	5.08
2.89728	5.08
2.91395	5.08
2.93062	5.08
2.94728	5.08
2.96395	5.08
2.98062	5.08
2.99728	5.08
3.01395	5.08
3.03062	5.08
3.04728	5.08
3.06395	5.08
3.08062	5.08
3.09728	5.08
3.11395	5.08
3.13062	5.08
3.14728	5.08
3.16395	5.07
3.18062	5.07
3.19728	5.07
3.21395	5.07
3.23062	5.07
3.24728	5.07
3.26395	5.07
3.28062	5.07
3.29728	5.07
3.31395	5.07
3.33062	5.07
3.34728	5.08
3.36395	5.08
3.38062	5.08
3.39728	5.08
3.41395	5.08
3.43062	5.08
3.44728	5.08
3.46395	5.08
3.48062	5.08
3.49728	5.07
3.51395	5.07
3.53062	5.07
3.54728	5.07
3.56395	5.07
3.58062	5.07
3.59728	5.07
3.61395	5.07
3.63062	5.07
3.64728	5.07
3.66395	5.07
3.68062	5.07
3.69728	5.07
3.71395	5.07
3.73062	5.07
3.74728	5.07
3.76395	5.07
3.78062	5.07
3.79728	5.07
3.81395	5.07
3.83062	5.07
3.84728	5.07
3.86395	5.08
3.88062	5.08
3.89728	5.08
3.91395	5.08
3.93062	5.08
3.94728	5.08
3.96395	5.08
3.98062	5.08
3.99728	5.08

[Status Trace (Linear Velocity)]
Interval(msec)	1000
# of Points	240
Start Time(min)	0.014
End Time(min)	3.997
Intensity Units	
Intensity Multiplier	1
R.Time (min)	Intensity
0.01395	38.83
0.03062	37.33
0.04728	38.99
0.06395	40.20
0.08062	39.47
0.09728	39.00
0.11395	39.01
0.13062	39.02
0.14728	39.02
0.16395	39.02
0.18062	39.01
0.19728	39.01
0.21395	39.01
0.23062	39.01
0.24728	39.01
0.26395	39.02
0.28062	39.02
0.29728	39.01
0.31395	39.02
0.33062	39.02
0.34728	39.01
0.36395	39.01
0.38062	39.02
0.39728	39.02
0.41395	39.02
0.43062	39.02
0.44728	39.02
0.46395	39.02
0.48062	39.02
0.49728	39.02
0.51395	39.02
0.53062	39.02
0.54728	39.02
0.56395	39.02
0.58062	39.02
0.59728	39.02
0.61395	39.02
0.63062	39.02
0.64728	39.02
0.66395	39.02
0.68062	39.02
0.69728	39.02
0.71395	39.02
0.73062	39.02
0.74728	39.02
0.76395	39.02
0.78062	39.02
0.79728	39.02
0.81395	39.02
0.83062	39.02
0.84728	39.02
0.86395	39.02
0.88062	39.01
0.89728	39.01
0.91395	39.02
0.93062	39.02
0.94728	39.02
0.96395	39.02
0.98062	39.02
0.99728	39.02
1.01395	39.02
1.03062	39.02
1.04728	39.02
1.06395	39.02
1.08062	39.02
1.09728	39.02
1.11395	39.02
1.13062	39.02
1.14728	39.02
1.16395	39.02
1.18062	39.02
1.19728	39.02
1.21395	39.02
1.23062	39.02
1.24728	39.02
1.26395	39.02
1.28062	39.02
1.29728	39.02
1.31395	39.02
1.33062	39.02
1.34728	39.02
1.36395	39.02
1.38062	39.02
1.39728	39.02
1.41395	39.02
1.43062	39.02
1.44728	39.02
1.46395	39.01
1.48062	39.01
1.49728	39.01
1.51395	39.01
1.53062	39.01
1.54728	39.01
1.56395	39.01
1.58062	39.02
1.59728	39.02
1.61395	39.01
1.63062	39.00
1.64728	38.98
1.66395	38.95
1.68062	38.91
1.69728	38.88
1.71395	38.84
1.73062	38.81
1.74728	38.78
1.76395	38.75
1.78062	38.72
1.79728	38.69
1.81395	38.66
1.83062	38.62
1.84728	38.59
1.86395	38.57
1.88062	38.53
1.89728	38.50
1.91395	38.47
1.93062	38.44
1.94728	38.41
1.96395	38.38
1.98062	38.35
1.99728	38.32
2.01395	38.29
2.03062	38.26
2.04728	38.23
2.06395	38.20
2.08062	38.17
2.09728	38.14
2.11395	38.12
2.13062	38.08
2.14728	38.05
2.16395	38.03
2.18062	38.00
2.19728	37.96
2.21395	37.94
2.23062	37.90
2.24728	37.87
2.26395	37.85
2.28062	37.81
2.29728	37.78
2.31395	37.76
2.33062	37.73
2.34728	37.70
2.36395	37.68
2.38062	37.66
2.39728	37.65
2.41395	37.65
2.43062	37.66
2.44728	37.66
2.46395	37.66
2.48062	37.66
2.49728	37.65
2.51395	37.65
2.53062	37.64
2.54728	37.65
2.56395	37.65
2.58062	37.65
2.59728	37.65
2.61395	37.65
2.63062	37.65
2.64728	37.65
2.66395	37.65
2.68062	37.65
2.69728	37.65
2.71395	37.65
2.73062	37.65
2.74728	37.64
2.76395	37.65
2.78062	37.64
2.79728	37.64
2.81395	37.64
2.83062	37.64
2.84728	37.64
2.86395	37.64
2.88062	37.64
2.89728	37.64
2.91395	37.64
2.93062	37.64
2.94728	37.64
2.96395	37.64
2.98062	37.64
2.99728	37.64
3.01395	37.63
3.03062	37.63
3.04728	37.63
3.06395	37.63
3.08062	37.63
3.09728	37.63
3.11395	37.63
3.13062	37.63
3.14728	37.63
3.16395	37.63
3.18062	37.62
3.19728	37.62
3.21395	37.62
3.23062	37.62
3.24728	37.62
3.26395	37.62
3.28062	37.62
3.29728	37.62
3.31395	37.63
3.33062	37.63
3.34728	37.63
3.36395	37.63
3.38062	37.63
3.39728	37.63
3.41395	37.63
3.43062	37.63
3.44728	37.63
3.46395	37.63
3.48062	37.63
3.49728	37.63
3.51395	37.63
3.53062	37.63
3.54728	37.63
3.56395	37.63
3.58062	37.63
3.59728	37.63
3.61395	37.62
3.63062	37.62
3.64728	37.62
3.66395	37.62
3.68062	37.62
3.69728	37.62
3.71395	37.62
3.73062	37.63
3.74728	37.63
3.76395	37.63
3.78062	37.63
3.79728	37.63
3.81395	37.63
3.83062	37.63
3.84728	37.63
3.86395	37.63
3.88062	37.63
3.89728	37.63
3.91395	37.63
3.93062	37.63
3.94728	37.63
3.96395	37.63
3.98062	37.63
3.99728	37.63

