[Header]
Application Name	LabSolutions
Version	5.110
Data File Name	C:\Users\User\Desktop\GC Analyses\Jack\Nachusa Grasslands Sampling\T2 Timepoint July 12th\T2_07122022_054.gcd
Output Date	3/14/2023
Output Time	3:42:33 PM

[File Information]
Type	Data File
Generated	3/10/2023 6:25:29 PM
Generated by	System Administrator
Modified	3/10/2023 6:32:08 PM
Modified by	System Administrator

[Sample Information]
Operator Name	System Administrator
Acquired	3/10/2023 6:28:07 PM
Sample Type	0:Unknown
Level	0
Sample Name	054
Sample ID	054
ISTD Amount1	1
ISTD Amount2	1
ISTD Amount3	1
ISTD Amount4	1
ISTD Amount5	1
ISTD Amount6	1
ISTD Amount7	1
ISTD Amount8	1
ISTD Amount9	1
ISTD Amount10	1
ISTD Amount11	1
ISTD Amount12	1
ISTD Amount13	1
ISTD Amount14	1
ISTD Amount15	1
ISTD Amount16	1
ISTD Amount17	1
ISTD Amount18	1
ISTD Amount19	1
ISTD Amount20	1
ISTD Amount21	1
ISTD Amount22	1
ISTD Amount23	1
ISTD Amount24	1
ISTD Amount25	1
ISTD Amount26	1
ISTD Amount27	1
ISTD Amount28	1
ISTD Amount29	1
ISTD Amount30	1
ISTD Amount31	1
ISTD Amount32	1
Sample Amount	1
Dilution Factor	1
Vial#	53
Injection Volume	1
Injection Count	1
Bar Code	

[Original Files]
Data File	C:\Users\User\Desktop\GC Analyses\Jack\Nachusa Grasslands Sampling\T1 Timepoint July 12th\T2_07122022_054.gcd
Method File	C:\LabSolutions\Data\GHG_4min_2022\ghg3_togas_w_acet_4 min_new_int.gcm
Batch File	C:\LabSolutions\Data\AutoSamplerTesting\T2_07122022.gcb
Report Format File	c:\LabSolutions\System\DEFAULT.lsr

[File Description]


[Configuration]
Instrument Name	C0B7VH3-Instrument1
Instrument #	1
Line #	1
# of Detectors	3
Detector ID	DET#1	DET#2	DET#3
Detector Name	FID	PTCD	ECD
# of Channels	1	1	1

[Peak Table(Ch1)]
# of Peaks	3
Peak#	R.Time	I.Time	F.Time	Area	Height	A/H	Conc.	Mark	ID#	Name	k'	Plate #	Plate Ht.	Tailing	Resolution	Sep.Factor	Area Ratio	Height Ratio	Conc. %	Norm Conc.
1	1.476	1.428	1.538	23310	10998	2.120	164.570	   	1	CO	0.000	9323	16.090	1.291	0.000	0.000	0	0	18.621	18.621
2	1.567	1.538	1.630	4653	2261	2.058	89.978	 V 	2	CH4	0.062	10454	14.348	0.000	1.497	0.000	0	0	10.181	10.181
3	1.996	1.949	2.554	2507279	1196290	2.096	629.259	   	3	CO2	0.353	17174	8.734	1.262	7.018	5.680	0	0	71.199	71.199

[Peak Table(Ch2)]
# of Peaks	0

[Peak Table(Ch3)]
# of Peaks	3
Peak#	R.Time	I.Time	F.Time	Area	Height	A/H	Conc.	Mark	ID#	Name	k'	Plate #	Plate Ht.	Tailing	Resolution	Sep.Factor	Area Ratio	Height Ratio	Conc. %	Norm Conc.
1	2.462	2.158	2.513	3110	701	4.440	0.000	   			0.000	7874	19.051	0.000	0.000	0.000	0	0	0.000	0.000
2	2.532	2.513	2.719	2177	418	5.212	0.000	 V 			0.028	4366	34.360	0.000	0.527	0.000	0	0	0.000	0.000
3	2.876	2.719	3.115	19001	4917	3.865	0.485	 V 	1	N2O	0.168	13102	11.449	1.627	2.716	5.947	0	0	100.000	100.000

[Compound Results(Ch1)]
# of IDs	6
ID#	Name	R.Time	Area	Height	Conc.	Curve	3rd	2nd	1st	Constant	Area Ratio	Height Ratio	Conc. %	Norm Conc.
1	CO	1.476	23310	10998	164.570	Linear	0.000000e+00	0.000000e+00	1.416423e+002	0.000000e+00	0	0	18.621	18.621
2	CH4	1.567	4653	2261	89.978	Linear	0.000000e+00	0.000000e+00	5.171738e+001	0.000000e+00	0	0	10.181	10.181
3	CO2	1.996	2507279	1196290	629.259	Linear	0.000000e+00	0.000000e+00	3.984494e+003	0.000000e+00	0	0	71.199	71.199
4	Ethylene	0.000	0	0	0.000	Linear	0.000000e+00	0.000000e+00	0.000000e+00	0.000000e+00	0	0	0.000	0.000
5	Acetylene	0.000	0	0	0.000	Linear	0.000000e+00	0.000000e+00	0.000000e+00	0.000000e+00	0	0	0.000	0.000
6	Ethane	0.000	0	0	0.000	Linear	0.000000e+00	0.000000e+00	0.000000e+00	0.000000e+00	0	0	0.000	0.000

[Compound Results(Ch2)]
# of IDs	5
ID#	Name	R.Time	Area	Height	Conc.	Curve	3rd	2nd	1st	Constant	Area Ratio	Height Ratio	Conc. %	Norm Conc.
1	Hydrogen	0.000	0	0	0.000	Linear	0.000000e+00	0.000000e+00	0.000000e+00	0.000000e+00	0	0	0.000	0.000
2	Oxygen	0.000	0	0	0.000	Linear	0.000000e+00	0.000000e+00	0.000000e+00	0.000000e+00	0	0	0.000	0.000
3	Nitrogen	0.000	0	0	0.000	Linear	0.000000e+00	0.000000e+00	0.000000e+00	0.000000e+00	0	0	0.000	0.000
4	Methane	0.000	0	0	0.000	Linear	0.000000e+00	0.000000e+00	0.000000e+00	0.000000e+00	0	0	0.000	0.000
5	Carbon Monoxide	0.000	0	0	0.000	Linear	0.000000e+00	0.000000e+00	0.000000e+00	0.000000e+00	0	0	0.000	0.000

[Compound Results(Ch3)]
# of IDs	2
ID#	Name	R.Time	Area	Height	Conc.	Curve	3rd	2nd	1st	Constant	Area Ratio	Height Ratio	Conc. %	Norm Conc.
1	N2O	2.876	19001	4917	0.485	Linear	0.000000e+00	0.000000e+00	3.915173e+004	0.000000e+00	0	0	100.000	100.000
2	SF6	0.000	0	0	0.000	Linear	0.000000e+00	0.000000e+00	0.000000e+00	0.000000e+00	0	0	0.000	0.000

[Group Results(Ch1)]
# of Groups	0

[Group Results(Ch2)]
# of Groups	0

[Group Results(Ch3)]
# of Groups	0

[Chromatogram (Ch1)]
Interval(msec)	220
# of Points	1091
Start Time(min)	0.002
End Time(min)	3.998
R.Time (min)	Intensity
0.00167	18
0.00533	17
0.00900	16
0.01267	15
0.01633	17
0.02000	18
0.02367	19
0.02733	21
0.03100	27
0.03467	32
0.03833	36
0.04200	37
0.04567	32
0.04933	24
0.05300	18
0.05667	16
0.06033	22
0.06400	27
0.06767	26
0.07133	23
0.07500	19
0.07867	14
0.08233	11
0.08600	13
0.08967	17
0.09333	16
0.09700	15
0.10067	17
0.10433	21
0.10800	21
0.11167	26
0.11533	32
0.11900	37
0.12267	42
0.12633	42
0.13000	36
0.13367	22
0.13733	12
0.14100	9
0.14467	10
0.14833	10
0.15200	11
0.15567	11
0.15933	16
0.16300	23
0.16667	26
0.17033	24
0.17400	22
0.17767	25
0.18133	25
0.18500	21
0.18867	20
0.19233	21
0.19600	27
0.19967	30
0.20333	33
0.20700	41
0.21067	51
0.21433	53
0.21800	45
0.22167	32
0.22533	23
0.22900	18
0.23267	14
0.23633	13
0.24000	18
0.24367	26
0.24733	30
0.25100	33
0.25467	34
0.25833	34
0.26200	34
0.26567	36
0.26933	37
0.27300	37
0.27667	36
0.28033	31
0.28400	27
0.28767	24
0.29133	22
0.29500	19
0.29867	16
0.30233	12
0.30600	13
0.30967	18
0.31333	25
0.31700	30
0.32067	32
0.32433	32
0.32800	31
0.33167	27
0.33533	23
0.33900	19
0.34267	18
0.34633	16
0.35000	15
0.35367	20
0.35733	29
0.36100	31
0.36467	24
0.36833	18
0.37200	17
0.37567	18
0.37933	24
0.38300	30
0.38667	34
0.39033	38
0.39400	40
0.39767	39
0.40133	37
0.40500	31
0.40867	23
0.41233	18
0.41600	17
0.41967	13
0.42333	8
0.42700	3
0.43067	-0
0.43433	-0
0.43800	3
0.44167	11
0.44533	18
0.44900	17
0.45267	11
0.45633	8
0.46000	11
0.46367	16
0.46733	17
0.47100	20
0.47467	25
0.47833	27
0.48200	27
0.48567	28
0.48933	23
0.49300	20
0.49667	21
0.50033	23
0.50400	28
0.50767	32
0.51133	32
0.51500	30
0.51867	27
0.52233	25
0.52600	22
0.52967	16
0.53333	13
0.53700	15
0.54067	21
0.54433	28
0.54800	27
0.55167	22
0.55533	18
0.55900	19
0.56267	18
0.56633	17
0.57000	14
0.57367	13
0.57733	13
0.58100	17
0.58467	23
0.58833	30
0.59200	36
0.59567	38
0.59933	35
0.60300	27
0.60667	20
0.61033	15
0.61400	11
0.61767	9
0.62133	7
0.62500	4
0.62867	-2
0.63233	-4
0.63600	3
0.63967	11
0.64333	14
0.64700	10
0.65067	5
0.65433	7
0.65800	17
0.66167	23
0.66533	17
0.66900	7
0.67267	1
0.67633	-2
0.68000	1
0.68367	7
0.68733	16
0.69100	22
0.69467	22
0.69833	17
0.70200	11
0.70567	4
0.70933	2
0.71300	6
0.71667	9
0.72033	9
0.72400	8
0.72767	9
0.73133	10
0.73500	15
0.73867	21
0.74233	22
0.74600	17
0.74967	10
0.75333	6
0.75700	3
0.76067	-2
0.76433	-6
0.76800	-4
0.77167	2
0.77533	6
0.77900	12
0.78267	25
0.78633	36
0.79000	42
0.79367	41
0.79733	33
0.80100	22
0.80467	13
0.80833	9
0.81200	10
0.81567	10
0.81933	12
0.82300	11
0.82667	1
0.83033	-10
0.83400	-12
0.83767	-7
0.84133	1
0.84500	6
0.84867	6
0.85233	3
0.85600	0
0.85967	-3
0.86333	-6
0.86700	-9
0.87067	-14
0.87433	-26
0.87800	-35
0.88167	-38
0.88533	-30
0.88900	-15
0.89267	-0
0.89633	9
0.90000	12
0.90367	13
0.90733	13
0.91100	11
0.91467	11
0.91833	13
0.92200	18
0.92567	25
0.92933	28
0.93300	30
0.93667	26
0.94033	21
0.94400	20
0.94767	18
0.95133	20
0.95500	23
0.95867	28
0.96233	34
0.96600	39
0.96967	41
0.97333	37
0.97700	30
0.98067	22
0.98433	18
0.98800	20
0.99167	25
0.99533	26
0.99900	24
1.00267	19
1.00633	15
1.01000	11
1.01367	11
1.01733	18
1.02100	26
1.02467	30
1.02833	32
1.03200	37
1.03567	40
1.03933	40
1.04300	42
1.04667	41
1.05033	34
1.05400	29
1.05767	23
1.06133	16
1.06500	15
1.06867	21
1.07233	26
1.07600	26
1.07967	26
1.08333	26
1.08700	28
1.09067	29
1.09433	32
1.09800	33
1.10167	35
1.10533	37
1.10900	35
1.11267	29
1.11633	22
1.12000	17
1.12367	19
1.12733	27
1.13100	33
1.13467	34
1.13833	33
1.14200	32
1.14567	32
1.14933	31
1.15300	26
1.15667	21
1.16033	19
1.16400	22
1.16767	24
1.17133	19
1.17500	15
1.17867	14
1.18233	13
1.18600	14
1.18967	14
1.19333	15
1.19700	16
1.20067	14
1.20433	11
1.20800	9
1.21167	11
1.21533	15
1.21900	19
1.22267	22
1.22633	20
1.23000	20
1.23367	16
1.23733	9
1.24100	6
1.24467	8
1.24833	13
1.25200	17
1.25567	21
1.25933	26
1.26300	27
1.26667	22
1.27033	13
1.27400	7
1.27767	3
1.28133	2
1.28500	1
1.28867	2
1.29233	5
1.29600	9
1.29967	8
1.30333	4
1.30700	0
1.31067	-0
1.31433	2
1.31800	6
1.32167	11
1.32533	13
1.32900	14
1.33267	17
1.33633	23
1.34000	26
1.34367	27
1.34733	25
1.35100	22
1.35467	16
1.35833	10
1.36200	8
1.36567	9
1.36933	10
1.37300	4
1.37667	-5
1.38033	-10
1.38400	-12
1.38767	-13
1.39133	-10
1.39500	-5
1.39867	-1
1.40233	0
1.40600	-0
1.40967	-2
1.41333	-3
1.41700	-10
1.42067	-19
1.42433	-23
1.42800	-18
1.43167	-8
1.43533	3
1.43900	29
1.44267	126
1.44633	353
1.45000	883
1.45367	2038
1.45733	3861
1.46100	5979
1.46467	7956
1.46833	9532
1.47200	10579
1.47567	10990
1.47933	10677
1.48300	9671
1.48667	8183
1.49033	6526
1.49400	4974
1.49767	3673
1.50133	2661
1.50500	1916
1.50867	1386
1.51233	1012
1.51600	749
1.51967	566
1.52333	441
1.52700	358
1.53067	302
1.53433	261
1.53800	244
1.54167	291
1.54533	467
1.54900	789
1.55267	1198
1.55633	1604
1.56000	1940
1.56367	2171
1.56733	2274
1.57100	2221
1.57467	2006
1.57833	1676
1.58200	1310
1.58567	976
1.58933	708
1.59300	504
1.59667	357
1.60033	255
1.60400	185
1.60767	138
1.61133	109
1.61500	89
1.61867	74
1.62233	59
1.62600	41
1.62967	27
1.63333	21
1.63700	21
1.64067	25
1.64433	30
1.64800	33
1.65167	34
1.65533	34
1.65900	32
1.66267	26
1.66633	19
1.67000	13
1.67367	5
1.67733	-2
1.68100	-2
1.68467	1
1.68833	10
1.69200	17
1.69567	17
1.69933	14
1.70300	12
1.70667	10
1.71033	13
1.71400	15
1.71767	14
1.72133	9
1.72500	5
1.72867	5
1.73233	6
1.73600	11
1.73967	15
1.74333	13
1.74700	11
1.75067	11
1.75433	12
1.75800	12
1.76167	11
1.76533	9
1.76900	5
1.77267	2
1.77633	-1
1.78000	-3
1.78367	-1
1.78733	-2
1.79100	-4
1.79467	-3
1.79833	3
1.80200	9
1.80567	14
1.80933	17
1.81300	18
1.81667	20
1.82033	21
1.82400	20
1.82767	17
1.83133	13
1.83500	10
1.83867	8
1.84233	8
1.84600	10
1.84967	13
1.85333	15
1.85700	13
1.86067	10
1.86433	8
1.86800	11
1.87167	14
1.87533	12
1.87900	9
1.88267	8
1.88633	7
1.89000	3
1.89367	-1
1.89733	-3
1.90100	-3
1.90467	0
1.90833	4
1.91200	4
1.91567	5
1.91933	3
1.92300	1
1.92667	4
1.93033	8
1.93400	10
1.93767	10
1.94133	10
1.94500	9
1.94867	15
1.95233	57
1.95600	319
1.95967	1806
1.96333	8418
1.96700	30743
1.97067	88618
1.97433	204328
1.97800	384638
1.98167	608649
1.98533	836905
1.98900	1028762
1.99267	1154007
1.99633	1196346
2.00000	1153928
2.00367	1039899
2.00733	879341
2.01100	702114
2.01467	534014
2.01833	391022
2.02200	278761
2.02567	195611
2.02933	136493
2.03300	95603
2.03667	67785
2.04033	49010
2.04400	36346
2.04767	27751
2.05133	21850
2.05500	17726
2.05867	14781
2.06233	12622
2.06600	10995
2.06967	9736
2.07333	8734
2.07700	7918
2.08067	7242
2.08433	6672
2.08800	6186
2.09167	5771
2.09533	5419
2.09900	5112
2.10267	4832
2.10633	4576
2.11000	4343
2.11367	4135
2.11733	3947
2.12100	3774
2.12467	3617
2.12833	3474
2.13200	3340
2.13567	3214
2.13933	3092
2.14300	2975
2.14667	2864
2.15033	2763
2.15400	2668
2.15767	2581
2.16133	2504
2.16500	2435
2.16867	2367
2.17233	2302
2.17600	2241
2.17967	2181
2.18333	2122
2.18700	2059
2.19067	1996
2.19433	1937
2.19800	1877
2.20167	1823
2.20533	1772
2.20900	1725
2.21267	1683
2.21633	1642
2.22000	1603
2.22367	1569
2.22733	1539
2.23100	1510
2.23467	1482
2.23833	1459
2.24200	1434
2.24567	1402
2.24933	1370
2.25300	1342
2.25667	1317
2.26033	1294
2.26400	1270
2.26767	1242
2.27133	1216
2.27500	1193
2.27867	1170
2.28233	1149
2.28600	1133
2.28967	1120
2.29333	1104
2.29700	1086
2.30067	1070
2.30433	1054
2.30800	1039
2.31167	1027
2.31533	1018
2.31900	1008
2.32267	997
2.32633	985
2.33000	970
2.33367	950
2.33733	929
2.34100	911
2.34467	899
2.34833	890
2.35200	883
2.35567	875
2.35933	864
2.36300	852
2.36667	838
2.37033	824
2.37400	813
2.37767	807
2.38133	801
2.38500	792
2.38867	783
2.39233	779
2.39600	776
2.39967	772
2.40333	762
2.40700	747
2.41067	732
2.41433	723
2.41800	720
2.42167	717
2.42533	708
2.42900	697
2.43267	685
2.43633	668
2.44000	654
2.44367	648
2.44733	647
2.45100	653
2.45467	658
2.45833	660
2.46200	659
2.46567	649
2.46933	632
2.47300	620
2.47667	614
2.48033	615
2.48400	618
2.48767	616
2.49133	608
2.49500	595
2.49867	582
2.50233	573
2.50600	569
2.50967	569
2.51333	569
2.51700	568
2.52067	573
2.52433	577
2.52800	576
2.53167	569
2.53533	558
2.53900	549
2.54267	545
2.54633	542
2.55000	535
2.55367	523
2.55733	514
2.56100	510
2.56467	511
2.56833	516
2.57200	525
2.57567	532
2.57933	539
2.58300	545
2.58667	548
2.59033	548
2.59400	544
2.59767	537
2.60133	527
2.60500	512
2.60867	495
2.61233	479
2.61600	470
2.61967	468
2.62333	468
2.62700	473
2.63067	478
2.63433	477
2.63800	473
2.64167	468
2.64533	468
2.64900	470
2.65267	471
2.65633	475
2.66000	481
2.66367	483
2.66733	482
2.67100	481
2.67467	477
2.67833	471
2.68200	465
2.68567	463
2.68933	463
2.69300	468
2.69667	475
2.70033	478
2.70400	476
2.70767	469
2.71133	463
2.71500	461
2.71867	464
2.72233	464
2.72600	461
2.72967	461
2.73333	461
2.73700	460
2.74067	462
2.74433	463
2.74800	464
2.75167	461
2.75533	455
2.75900	451
2.76267	449
2.76633	444
2.77000	436
2.77367	432
2.77733	431
2.78100	434
2.78467	435
2.78833	433
2.79200	432
2.79567	434
2.79933	436
2.80300	438
2.80667	436
2.81033	433
2.81400	430
2.81767	430
2.82133	432
2.82500	434
2.82867	433
2.83233	431
2.83600	434
2.83967	436
2.84333	438
2.84700	439
2.85067	438
2.85433	437
2.85800	436
2.86167	434
2.86533	432
2.86900	430
2.87267	430
2.87633	430
2.88000	431
2.88367	429
2.88733	423
2.89100	416
2.89467	410
2.89833	411
2.90200	419
2.90567	423
2.90933	420
2.91300	414
2.91667	407
2.92033	406
2.92400	407
2.92767	411
2.93133	415
2.93500	418
2.93867	421
2.94233	419
2.94600	412
2.94967	404
2.95333	403
2.95700	405
2.96067	406
2.96433	408
2.96800	412
2.97167	416
2.97533	420
2.97900	422
2.98267	424
2.98633	430
2.99000	437
2.99367	443
2.99733	441
3.00100	432
3.00467	424
3.00833	423
3.01200	426
3.01567	429
3.01933	432
3.02300	428
3.02667	417
3.03033	407
3.03400	397
3.03767	385
3.04133	377
3.04500	379
3.04867	384
3.05233	387
3.05600	387
3.05967	390
3.06333	396
3.06700	398
3.07067	395
3.07433	395
3.07800	394
3.08167	391
3.08533	388
3.08900	386
3.09267	383
3.09633	384
3.10000	391
3.10367	402
3.10733	408
3.11100	409
3.11467	404
3.11833	397
3.12200	388
3.12567	381
3.12933	375
3.13300	371
3.13667	366
3.14033	363
3.14400	362
3.14767	361
3.15133	358
3.15500	359
3.15867	362
3.16233	364
3.16600	359
3.16967	354
3.17333	353
3.17700	359
3.18067	370
3.18433	379
3.18800	381
3.19167	378
3.19533	372
3.19900	364
3.20267	355
3.20633	354
3.21000	359
3.21367	368
3.21733	373
3.22100	370
3.22467	367
3.22833	364
3.23200	361
3.23567	358
3.23933	354
3.24300	348
3.24667	338
3.25033	334
3.25400	336
3.25767	337
3.26133	337
3.26500	338
3.26867	341
3.27233	347
3.27600	355
3.27967	362
3.28333	367
3.28700	370
3.29067	370
3.29433	366
3.29800	366
3.30167	362
3.30533	353
3.30900	344
3.31267	336
3.31633	332
3.32000	334
3.32367	338
3.32733	339
3.33100	337
3.33467	332
3.33833	328
3.34200	326
3.34567	329
3.34933	340
3.35300	346
3.35667	339
3.36033	329
3.36400	323
3.36767	321
3.37133	317
3.37500	312
3.37867	306
3.38233	301
3.38600	297
3.38967	291
3.39333	288
3.39700	287
3.40067	294
3.40433	302
3.40800	305
3.41167	304
3.41533	307
3.41900	314
3.42267	318
3.42633	317
3.43000	314
3.43367	311
3.43733	310
3.44100	312
3.44467	312
3.44833	312
3.45200	316
3.45567	319
3.45933	319
3.46300	315
3.46667	314
3.47033	318
3.47400	325
3.47767	329
3.48133	329
3.48500	324
3.48867	315
3.49233	306
3.49600	303
3.49967	303
3.50333	299
3.50700	293
3.51067	291
3.51433	291
3.51800	291
3.52167	291
3.52533	295
3.52900	303
3.53267	309
3.53633	312
3.54000	313
3.54367	312
3.54733	310
3.55100	308
3.55467	306
3.55833	303
3.56200	302
3.56567	307
3.56933	306
3.57300	298
3.57667	289
3.58033	280
3.58400	270
3.58767	261
3.59133	255
3.59500	256
3.59867	260
3.60233	268
3.60600	278
3.60967	285
3.61333	287
3.61700	289
3.62067	290
3.62433	290
3.62800	285
3.63167	279
3.63533	273
3.63900	267
3.64267	263
3.64633	259
3.65000	257
3.65367	260
3.65733	267
3.66100	278
3.66467	287
3.66833	287
3.67200	282
3.67567	275
3.67933	267
3.68300	261
3.68667	258
3.69033	256
3.69400	255
3.69767	254
3.70133	253
3.70500	250
3.70867	251
3.71233	258
3.71600	264
3.71967	270
3.72333	278
3.72700	284
3.73067	286
3.73433	280
3.73800	274
3.74167	271
3.74533	269
3.74900	268
3.75267	265
3.75633	259
3.76000	251
3.76367	245
3.76733	242
3.77100	240
3.77467	240
3.77833	240
3.78200	236
3.78567	235
3.78933	237
3.79300	240
3.79667	238
3.80033	235
3.80400	233
3.80767	237
3.81133	245
3.81500	251
3.81867	254
3.82233	251
3.82600	247
3.82967	242
3.83333	241
3.83700	242
3.84067	247
3.84433	252
3.84800	253
3.85167	252
3.85533	248
3.85900	242
3.86267	240
3.86633	241
3.87000	240
3.87367	241
3.87733	246
3.88100	251
3.88467	251
3.88833	247
3.89200	240
3.89567	238
3.89933	239
3.90300	242
3.90667	249
3.91033	253
3.91400	254
3.91767	256
3.92133	261
3.92500	263
3.92867	254
3.93233	245
3.93600	237
3.93967	233
3.94333	232
3.94700	228
3.95067	224
3.95433	225
3.95800	224
3.96167	216
3.96533	213
3.96900	213
3.97267	212
3.97633	209
3.98000	208
3.98367	208
3.98733	211
3.99100	216
3.99467	224
3.99833	229

[Chromatogram (Ch2)]
Interval(msec)	220
# of Points	1091
Start Time(min)	0.002
End Time(min)	3.998
R.Time (min)	Intensity
0.00167	-1
0.00533	-1
0.00900	-1
0.01267	-1
0.01633	-1
0.02000	-1
0.02367	-1
0.02733	-2
0.03100	-2
0.03467	-2
0.03833	-2
0.04200	-3
0.04567	-3
0.04933	-3
0.05300	-3
0.05667	-4
0.06033	-4
0.06400	-4
0.06767	-4
0.07133	-3
0.07500	-3
0.07867	-3
0.08233	-3
0.08600	-3
0.08967	-3
0.09333	-3
0.09700	-2
0.10067	-2
0.10433	-2
0.10800	-1
0.11167	-1
0.11533	-1
0.11900	-1
0.12267	-1
0.12633	-1
0.13000	-1
0.13367	-0
0.13733	-0
0.14100	-0
0.14467	0
0.14833	1
0.15200	1
0.15567	1
0.15933	1
0.16300	2
0.16667	2
0.17033	2
0.17400	2
0.17767	2
0.18133	2
0.18500	2
0.18867	3
0.19233	3
0.19600	3
0.19967	3
0.20333	3
0.20700	3
0.21067	3
0.21433	2
0.21800	2
0.22167	2
0.22533	1
0.22900	1
0.23267	1
0.23633	1
0.24000	1
0.24367	1
0.24733	0
0.25100	-0
0.25467	-0
0.25833	-1
0.26200	-1
0.26567	-1
0.26933	-2
0.27300	-2
0.27667	-2
0.28033	-3
0.28400	-3
0.28767	-3
0.29133	-3
0.29500	-3
0.29867	-3
0.30233	-3
0.30600	-3
0.30967	-3
0.31333	-3
0.31700	-2
0.32067	-2
0.32433	-1
0.32800	-1
0.33167	-0
0.33533	0
0.33900	0
0.34267	1
0.34633	1
0.35000	1
0.35367	1
0.35733	1
0.36100	1
0.36467	1
0.36833	1
0.37200	2
0.37567	2
0.37933	2
0.38300	2
0.38667	2
0.39033	2
0.39400	2
0.39767	1
0.40133	1
0.40500	-0
0.40867	-1
0.41233	-1
0.41600	-1
0.41967	-1
0.42333	-1
0.42700	-1
0.43067	-1
0.43433	-2
0.43800	-2
0.44167	-2
0.44533	-2
0.44900	-2
0.45267	-2
0.45633	-2
0.46000	-2
0.46367	-2
0.46733	-2
0.47100	-2
0.47467	-2
0.47833	-2
0.48200	-1
0.48567	-1
0.48933	-1
0.49300	-0
0.49667	-0
0.50033	0
0.50400	0
0.50767	0
0.51133	0
0.51500	0
0.51867	0
0.52233	-0
0.52600	-0
0.52967	-1
0.53333	-1
0.53700	-1
0.54067	-2
0.54433	-2
0.54800	-2
0.55167	-2
0.55533	-2
0.55900	-2
0.56267	-2
0.56633	-2
0.57000	-2
0.57367	-2
0.57733	-2
0.58100	-2
0.58467	-1
0.58833	-1
0.59200	-1
0.59567	-0
0.59933	-0
0.60300	0
0.60667	0
0.61033	1
0.61400	1
0.61767	1
0.62133	1
0.62500	1
0.62867	1
0.63233	1
0.63600	1
0.63967	1
0.64333	1
0.64700	1
0.65067	1
0.65433	1
0.65800	1
0.66167	-0
0.66533	-0
0.66900	-1
0.67267	-1
0.67633	-1
0.68000	-1
0.68367	-1
0.68733	-1
0.69100	-0
0.69467	-0
0.69833	0
0.70200	0
0.70567	0
0.70933	0
0.71300	-0
0.71667	-0
0.72033	-0
0.72400	-1
0.72767	-1
0.73133	-2
0.73500	-2
0.73867	-2
0.74233	-2
0.74600	-2
0.74967	-3
0.75333	-3
0.75700	-3
0.76067	-3
0.76433	-3
0.76800	-3
0.77167	-3
0.77533	-3
0.77900	-3
0.78267	-2
0.78633	-2
0.79000	-2
0.79367	-2
0.79733	-2
0.80100	-2
0.80467	-2
0.80833	-2
0.81200	-1
0.81567	-1
0.81933	-1
0.82300	-0
0.82667	-0
0.83033	0
0.83400	0
0.83767	1
0.84133	1
0.84500	1
0.84867	2
0.85233	2
0.85600	2
0.85967	3
0.86333	3
0.86700	3
0.87067	3
0.87433	3
0.87800	3
0.88167	3
0.88533	3
0.88900	4
0.89267	4
0.89633	4
0.90000	4
0.90367	4
0.90733	4
0.91100	4
0.91467	4
0.91833	4
0.92200	4
0.92567	4
0.92933	4
0.93300	4
0.93667	4
0.94033	4
0.94400	4
0.94767	3
0.95133	3
0.95500	2
0.95867	2
0.96233	1
0.96600	-0
0.96967	-1
0.97333	-2
0.97700	-2
0.98067	-3
0.98433	-3
0.98800	-4
0.99167	-4
0.99533	-4
0.99900	-4
1.00267	-4
1.00633	-5
1.01000	-4
1.01367	-4
1.01733	-4
1.02100	-4
1.02467	-3
1.02833	-3
1.03200	-3
1.03567	-3
1.03933	-3
1.04300	-2
1.04667	-2
1.05033	-2
1.05400	-1
1.05767	-1
1.06133	-1
1.06500	-1
1.06867	-1
1.07233	-2
1.07600	-2
1.07967	-2
1.08333	-2
1.08700	-2
1.09067	-3
1.09433	-3
1.09800	-3
1.10167	-3
1.10533	-3
1.10900	-2
1.11267	-2
1.11633	-2
1.12000	-2
1.12367	-2
1.12733	-2
1.13100	-2
1.13467	-2
1.13833	-2
1.14200	-2
1.14567	-2
1.14933	-2
1.15300	-2
1.15667	-2
1.16033	-1
1.16400	-1
1.16767	-1
1.17133	-1
1.17500	-1
1.17867	-1
1.18233	-1
1.18600	-1
1.18967	-1
1.19333	-2
1.19700	-2
1.20067	-2
1.20433	-2
1.20800	-2
1.21167	-2
1.21533	-2
1.21900	-2
1.22267	-2
1.22633	-2
1.23000	-2
1.23367	-2
1.23733	-2
1.24100	-2
1.24467	-2
1.24833	-2
1.25200	-2
1.25567	-1
1.25933	-1
1.26300	-0
1.26667	0
1.27033	1
1.27400	1
1.27767	1
1.28133	1
1.28500	1
1.28867	2
1.29233	2
1.29600	2
1.29967	2
1.30333	3
1.30700	3
1.31067	3
1.31433	3
1.31800	3
1.32167	3
1.32533	3
1.32900	2
1.33267	2
1.33633	2
1.34000	1
1.34367	1
1.34733	1
1.35100	0
1.35467	-0
1.35833	-0
1.36200	-1
1.36567	-1
1.36933	-1
1.37300	-1
1.37667	-1
1.38033	-1
1.38400	-1
1.38767	-1
1.39133	-1
1.39500	-1
1.39867	-1
1.40233	-1
1.40600	-1
1.40967	-0
1.41333	-0
1.41700	-1
1.42067	-0
1.42433	-0
1.42800	-0
1.43167	0
1.43533	0
1.43900	1
1.44267	1
1.44633	1
1.45000	1
1.45367	1
1.45733	2
1.46100	2
1.46467	2
1.46833	2
1.47200	2
1.47567	1
1.47933	1
1.48300	0
1.48667	-0
1.49033	-1
1.49400	-1
1.49767	-1
1.50133	-2
1.50500	-2
1.50867	-2
1.51233	-2
1.51600	-2
1.51967	-2
1.52333	-2
1.52700	-2
1.53067	-2
1.53433	-2
1.53800	-2
1.54167	-2
1.54533	-2
1.54900	-2
1.55267	-2
1.55633	-2
1.56000	-2
1.56367	-1
1.56733	-1
1.57100	-1
1.57467	-1
1.57833	-1
1.58200	-1
1.58567	-1
1.58933	-1
1.59300	-1
1.59667	-2
1.60033	-2
1.60400	-4
1.60767	-5
1.61133	-7
1.61500	-9
1.61867	-12
1.62233	-15
1.62600	-18
1.62967	-21
1.63333	-25
1.63700	-29
1.64067	-33
1.64433	-36
1.64800	-40
1.65167	-44
1.65533	-47
1.65900	-51
1.66267	-54
1.66633	-59
1.67000	-63
1.67367	-68
1.67733	-73
1.68100	-77
1.68467	-82
1.68833	-86
1.69200	-89
1.69567	-92
1.69933	-95
1.70300	-97
1.70667	-99
1.71033	-101
1.71400	-102
1.71767	-103
1.72133	-104
1.72500	-105
1.72867	-105
1.73233	-106
1.73600	-107
1.73967	-108
1.74333	-109
1.74700	-110
1.75067	-110
1.75433	-110
1.75800	-110
1.76167	-109
1.76533	-109
1.76900	-108
1.77267	-107
1.77633	-107
1.78000	-108
1.78367	-108
1.78733	-109
1.79100	-110
1.79467	-111
1.79833	-112
1.80200	-113
1.80567	-114
1.80933	-114
1.81300	-115
1.81667	-115
1.82033	-115
1.82400	-115
1.82767	-115
1.83133	-115
1.83500	-115
1.83867	-115
1.84233	-114
1.84600	-114
1.84967	-113
1.85333	-113
1.85700	-113
1.86067	-113
1.86433	-114
1.86800	-114
1.87167	-115
1.87533	-115
1.87900	-115
1.88267	-115
1.88633	-115
1.89000	-114
1.89367	-114
1.89733	-114
1.90100	-113
1.90467	-113
1.90833	-113
1.91200	-113
1.91567	-113
1.91933	-113
1.92300	-112
1.92667	-112
1.93033	-112
1.93400	-111
1.93767	-111
1.94133	-110
1.94500	-110
1.94867	-110
1.95233	-110
1.95600	-109
1.95967	-109
1.96333	-109
1.96700	-108
1.97067	-107
1.97433	-107
1.97800	-107
1.98167	-106
1.98533	-106
1.98900	-106
1.99267	-106
1.99633	-106
2.00000	-106
2.00367	-106
2.00733	-106
2.01100	-106
2.01467	-105
2.01833	-105
2.02200	-105
2.02567	-105
2.02933	-105
2.03300	-104
2.03667	-104
2.04033	-103
2.04400	-103
2.04767	-102
2.05133	-102
2.05500	-102
2.05867	-102
2.06233	-102
2.06600	-101
2.06967	-101
2.07333	-101
2.07700	-100
2.08067	-99
2.08433	-99
2.08800	-98
2.09167	-97
2.09533	-97
2.09900	-96
2.10267	-96
2.10633	-96
2.11000	-96
2.11367	-96
2.11733	-96
2.12100	-96
2.12467	-95
2.12833	-96
2.13200	-96
2.13567	-96
2.13933	-96
2.14300	-95
2.14667	-94
2.15033	-93
2.15400	-93
2.15767	-93
2.16133	-92
2.16500	-93
2.16867	-93
2.17233	-93
2.17600	-93
2.17967	-93
2.18333	-93
2.18700	-92
2.19067	-92
2.19433	-91
2.19800	-91
2.20167	-90
2.20533	-90
2.20900	-89
2.21267	-89
2.21633	-88
2.22000	-87
2.22367	-86
2.22733	-86
2.23100	-85
2.23467	-85
2.23833	-85
2.24200	-85
2.24567	-86
2.24933	-86
2.25300	-86
2.25667	-86
2.26033	-85
2.26400	-85
2.26767	-84
2.27133	-84
2.27500	-83
2.27867	-83
2.28233	-83
2.28600	-83
2.28967	-83
2.29333	-83
2.29700	-83
2.30067	-82
2.30433	-82
2.30800	-82
2.31167	-82
2.31533	-81
2.31900	-81
2.32267	-81
2.32633	-81
2.33000	-81
2.33367	-81
2.33733	-80
2.34100	-80
2.34467	-79
2.34833	-78
2.35200	-77
2.35567	-75
2.35933	-74
2.36300	-72
2.36667	-71
2.37033	-69
2.37400	-67
2.37767	-64
2.38133	-61
2.38500	-58
2.38867	-54
2.39233	-50
2.39600	-46
2.39967	-41
2.40333	-37
2.40700	-32
2.41067	-28
2.41433	-24
2.41800	-20
2.42167	-17
2.42533	-15
2.42900	-13
2.43267	-12
2.43633	-11
2.44000	-10
2.44367	-9
2.44733	-8
2.45100	-7
2.45467	-6
2.45833	-5
2.46200	-4
2.46567	-4
2.46933	-3
2.47300	-2
2.47667	-1
2.48033	0
2.48400	1
2.48767	2
2.49133	3
2.49500	5
2.49867	6
2.50233	7
2.50600	8
2.50967	8
2.51333	9
2.51700	9
2.52067	9
2.52433	10
2.52800	10
2.53167	11
2.53533	12
2.53900	13
2.54267	13
2.54633	14
2.55000	15
2.55367	15
2.55733	15
2.56100	14
2.56467	14
2.56833	14
2.57200	14
2.57567	15
2.57933	15
2.58300	16
2.58667	16
2.59033	17
2.59400	17
2.59767	18
2.60133	18
2.60500	18
2.60867	18
2.61233	18
2.61600	18
2.61967	18
2.62333	18
2.62700	18
2.63067	18
2.63433	19
2.63800	19
2.64167	20
2.64533	20
2.64900	21
2.65267	21
2.65633	21
2.66000	21
2.66367	22
2.66733	22
2.67100	22
2.67467	22
2.67833	22
2.68200	22
2.68567	22
2.68933	22
2.69300	23
2.69667	23
2.70033	24
2.70400	24
2.70767	25
2.71133	25
2.71500	26
2.71867	26
2.72233	26
2.72600	26
2.72967	26
2.73333	26
2.73700	26
2.74067	26
2.74433	25
2.74800	25
2.75167	25
2.75533	26
2.75900	26
2.76267	26
2.76633	27
2.77000	27
2.77367	27
2.77733	27
2.78100	28
2.78467	28
2.78833	28
2.79200	28
2.79567	28
2.79933	28
2.80300	28
2.80667	27
2.81033	27
2.81400	27
2.81767	26
2.82133	26
2.82500	26
2.82867	27
2.83233	27
2.83600	27
2.83967	26
2.84333	24
2.84700	20
2.85067	15
2.85433	7
2.85800	-4
2.86167	-20
2.86533	-39
2.86900	-63
2.87267	-91
2.87633	-123
2.88000	-160
2.88367	-200
2.88733	-244
2.89100	-291
2.89467	-341
2.89833	-393
2.90200	-446
2.90567	-501
2.90933	-556
2.91300	-611
2.91667	-666
2.92033	-721
2.92400	-774
2.92767	-825
2.93133	-877
2.93500	-933
2.93867	-992
2.94233	-1046
2.94600	-1083
2.94967	-1097
2.95333	-1085
2.95700	-1049
2.96067	-993
2.96433	-924
2.96800	-847
2.97167	-766
2.97533	-686
2.97900	-609
2.98267	-536
2.98633	-468
2.99000	-406
2.99367	-351
2.99733	-301
3.00100	-258
3.00467	-220
3.00833	-187
3.01200	-158
3.01567	-133
3.01933	-112
3.02300	-94
3.02667	-78
3.03033	-64
3.03400	-53
3.03767	-43
3.04133	-34
3.04500	-27
3.04867	-20
3.05233	-15
3.05600	-10
3.05967	-6
3.06333	-2
3.06700	1
3.07067	3
3.07433	6
3.07800	7
3.08167	9
3.08533	10
3.08900	11
3.09267	12
3.09633	13
3.10000	13
3.10367	14
3.10733	14
3.11100	15
3.11467	15
3.11833	15
3.12200	16
3.12567	16
3.12933	17
3.13300	17
3.13667	18
3.14033	18
3.14400	18
3.14767	18
3.15133	18
3.15500	19
3.15867	19
3.16233	19
3.16600	20
3.16967	20
3.17333	20
3.17700	21
3.18067	21
3.18433	22
3.18800	22
3.19167	22
3.19533	22
3.19900	22
3.20267	22
3.20633	23
3.21000	23
3.21367	23
3.21733	23
3.22100	23
3.22467	23
3.22833	23
3.23200	23
3.23567	23
3.23933	23
3.24300	23
3.24667	23
3.25033	23
3.25400	23
3.25767	23
3.26133	23
3.26500	23
3.26867	23
3.27233	23
3.27600	23
3.27967	23
3.28333	23
3.28700	23
3.29067	23
3.29433	23
3.29800	23
3.30167	23
3.30533	24
3.30900	24
3.31267	24
3.31633	24
3.32000	25
3.32367	25
3.32733	25
3.33100	26
3.33467	26
3.33833	27
3.34200	27
3.34567	28
3.34933	28
3.35300	28
3.35667	29
3.36033	29
3.36400	29
3.36767	29
3.37133	30
3.37500	30
3.37867	30
3.38233	30
3.38600	30
3.38967	30
3.39333	30
3.39700	30
3.40067	30
3.40433	30
3.40800	30
3.41167	30
3.41533	30
3.41900	29
3.42267	29
3.42633	29
3.43000	29
3.43367	28
3.43733	28
3.44100	28
3.44467	28
3.44833	28
3.45200	28
3.45567	28
3.45933	27
3.46300	27
3.46667	27
3.47033	28
3.47400	28
3.47767	28
3.48133	28
3.48500	28
3.48867	28
3.49233	28
3.49600	28
3.49967	28
3.50333	28
3.50700	29
3.51067	29
3.51433	29
3.51800	30
3.52167	30
3.52533	30
3.52900	30
3.53267	30
3.53633	30
3.54000	30
3.54367	30
3.54733	30
3.55100	30
3.55467	29
3.55833	29
3.56200	28
3.56567	28
3.56933	27
3.57300	27
3.57667	27
3.58033	27
3.58400	26
3.58767	27
3.59133	27
3.59500	27
3.59867	27
3.60233	27
3.60600	27
3.60967	27
3.61333	27
3.61700	27
3.62067	27
3.62433	27
3.62800	27
3.63167	27
3.63533	27
3.63900	27
3.64267	27
3.64633	28
3.65000	28
3.65367	28
3.65733	28
3.66100	28
3.66467	28
3.66833	28
3.67200	28
3.67567	28
3.67933	28
3.68300	28
3.68667	28
3.69033	28
3.69400	28
3.69767	29
3.70133	29
3.70500	29
3.70867	29
3.71233	30
3.71600	29
3.71967	29
3.72333	29
3.72700	29
3.73067	29
3.73433	29
3.73800	29
3.74167	29
3.74533	29
3.74900	29
3.75267	28
3.75633	28
3.76000	28
3.76367	28
3.76733	27
3.77100	27
3.77467	28
3.77833	28
3.78200	28
3.78567	28
3.78933	28
3.79300	28
3.79667	28
3.80033	28
3.80400	28
3.80767	28
3.81133	28
3.81500	28
3.81867	28
3.82233	28
3.82600	28
3.82967	28
3.83333	28
3.83700	28
3.84067	29
3.84433	29
3.84800	29
3.85167	30
3.85533	30
3.85900	30
3.86267	30
3.86633	29
3.87000	29
3.87367	29
3.87733	29
3.88100	29
3.88467	28
3.88833	28
3.89200	28
3.89567	28
3.89933	28
3.90300	28
3.90667	27
3.91033	27
3.91400	27
3.91767	28
3.92133	28
3.92500	28
3.92867	28
3.93233	28
3.93600	28
3.93967	28
3.94333	28
3.94700	28
3.95067	27
3.95433	27
3.95800	27
3.96167	27
3.96533	27
3.96900	27
3.97267	27
3.97633	27
3.98000	27
3.98367	27
3.98733	27
3.99100	27
3.99467	27
3.99833	26

[Chromatogram (Ch3)]
Interval(msec)	220
# of Points	1091
Start Time(min)	0.002
End Time(min)	3.998
R.Time (min)	Intensity
0.00167	0
0.00533	-1
0.00900	-3
0.01267	-2
0.01633	-1
0.02000	1
0.02367	3
0.02733	2
0.03100	-1
0.03467	-3
0.03833	-4
0.04200	-4
0.04567	-2
0.04933	-1
0.05300	1
0.05667	4
0.06033	5
0.06400	4
0.06767	3
0.07133	3
0.07500	4
0.07867	4
0.08233	5
0.08600	5
0.08967	4
0.09333	4
0.09700	3
0.10067	1
0.10433	2
0.10800	3
0.11167	5
0.11533	7
0.11900	6
0.12267	5
0.12633	2
0.13000	-1
0.13367	-3
0.13733	-2
0.14100	-1
0.14467	-1
0.14833	-2
0.15200	-1
0.15567	1
0.15933	1
0.16300	3
0.16667	4
0.17033	5
0.17400	6
0.17767	5
0.18133	5
0.18500	6
0.18867	6
0.19233	4
0.19600	3
0.19967	1
0.20333	-0
0.20700	1
0.21067	3
0.21433	3
0.21800	4
0.22167	4
0.22533	4
0.22900	4
0.23267	4
0.23633	4
0.24000	7
0.24367	8
0.24733	8
0.25100	6
0.25467	6
0.25833	4
0.26200	5
0.26567	6
0.26933	7
0.27300	7
0.27667	5
0.28033	3
0.28400	2
0.28767	3
0.29133	4
0.29500	6
0.29867	6
0.30233	6
0.30600	6
0.30967	5
0.31333	5
0.31700	4
0.32067	4
0.32433	3
0.32800	5
0.33167	8
0.33533	10
0.33900	10
0.34267	8
0.34633	8
0.35000	7
0.35367	5
0.35733	4
0.36100	6
0.36467	9
0.36833	10
0.37200	9
0.37567	8
0.37933	8
0.38300	7
0.38667	5
0.39033	1
0.39400	1
0.39767	2
0.40133	5
0.40500	6
0.40867	8
0.41233	11
0.41600	13
0.41967	9
0.42333	7
0.42700	5
0.43067	6
0.43433	7
0.43800	6
0.44167	8
0.44533	7
0.44900	4
0.45267	3
0.45633	2
0.46000	1
0.46367	2
0.46733	4
0.47100	6
0.47467	7
0.47833	8
0.48200	5
0.48567	1
0.48933	-0
0.49300	3
0.49667	8
0.50033	10
0.50400	9
0.50767	6
0.51133	5
0.51500	3
0.51867	2
0.52233	0
0.52600	-1
0.52967	1
0.53333	4
0.53700	6
0.54067	8
0.54433	9
0.54800	9
0.55167	10
0.55533	9
0.55900	9
0.56267	8
0.56633	7
0.57000	8
0.57367	9
0.57733	10
0.58100	9
0.58467	8
0.58833	9
0.59200	8
0.59567	10
0.59933	11
0.60300	11
0.60667	11
0.61033	9
0.61400	7
0.61767	7
0.62133	9
0.62500	10
0.62867	10
0.63233	8
0.63600	6
0.63967	7
0.64333	9
0.64700	9
0.65067	9
0.65433	10
0.65800	9
0.66167	8
0.66533	7
0.66900	7
0.67267	8
0.67633	10
0.68000	10
0.68367	12
0.68733	15
0.69100	17
0.69467	17
0.69833	15
0.70200	15
0.70567	14
0.70933	11
0.71300	10
0.71667	11
0.72033	11
0.72400	14
0.72767	13
0.73133	11
0.73500	11
0.73867	13
0.74233	15
0.74600	16
0.74967	17
0.75333	15
0.75700	13
0.76067	12
0.76433	12
0.76800	11
0.77167	10
0.77533	11
0.77900	12
0.78267	12
0.78633	11
0.79000	12
0.79367	12
0.79733	12
0.80100	12
0.80467	15
0.80833	15
0.81200	13
0.81567	11
0.81933	9
0.82300	11
0.82667	12
0.83033	15
0.83400	19
0.83767	20
0.84133	17
0.84500	15
0.84867	14
0.85233	12
0.85600	10
0.85967	11
0.86333	13
0.86700	14
0.87067	13
0.87433	13
0.87800	14
0.88167	14
0.88533	16
0.88900	16
0.89267	17
0.89633	17
0.90000	15
0.90367	16
0.90733	17
0.91100	17
0.91467	17
0.91833	13
0.92200	11
0.92567	11
0.92933	12
0.93300	12
0.93667	12
0.94033	11
0.94400	11
0.94767	10
0.95133	10
0.95500	12
0.95867	11
0.96233	11
0.96600	11
0.96967	10
0.97333	10
0.97700	11
0.98067	15
0.98433	18
0.98800	18
0.99167	18
0.99533	17
0.99900	15
1.00267	13
1.00633	14
1.01000	15
1.01367	15
1.01733	12
1.02100	11
1.02467	12
1.02833	13
1.03200	14
1.03567	15
1.03933	15
1.04300	16
1.04667	18
1.05033	18
1.05400	17
1.05767	17
1.06133	17
1.06500	17
1.06867	18
1.07233	19
1.07600	19
1.07967	18
1.08333	18
1.08700	16
1.09067	15
1.09433	14
1.09800	15
1.10167	17
1.10533	21
1.10900	22
1.11267	20
1.11633	19
1.12000	19
1.12367	19
1.12733	18
1.13100	19
1.13467	21
1.13833	23
1.14200	23
1.14567	24
1.14933	23
1.15300	21
1.15667	20
1.16033	20
1.16400	21
1.16767	22
1.17133	22
1.17500	22
1.17867	21
1.18233	20
1.18600	19
1.18967	18
1.19333	16
1.19700	14
1.20067	13
1.20433	13
1.20800	13
1.21167	13
1.21533	15
1.21900	17
1.22267	16
1.22633	14
1.23000	16
1.23367	18
1.23733	19
1.24100	19
1.24467	18
1.24833	15
1.25200	13
1.25567	13
1.25933	14
1.26300	16
1.26667	19
1.27033	20
1.27400	21
1.27767	21
1.28133	19
1.28500	19
1.28867	18
1.29233	17
1.29600	17
1.29967	18
1.30333	17
1.30700	16
1.31067	18
1.31433	18
1.31800	18
1.32167	19
1.32533	19
1.32900	18
1.33267	16
1.33633	15
1.34000	16
1.34367	17
1.34733	20
1.35100	20
1.35467	20
1.35833	20
1.36200	19
1.36567	18
1.36933	17
1.37300	16
1.37667	16
1.38033	16
1.38400	16
1.38767	19
1.39133	23
1.39500	24
1.39867	25
1.40233	26
1.40600	25
1.40967	25
1.41333	26
1.41700	27
1.42067	25
1.42433	24
1.42800	24
1.43167	24
1.43533	23
1.43900	24
1.44267	24
1.44633	23
1.45000	22
1.45367	21
1.45733	20
1.46100	22
1.46467	24
1.46833	25
1.47200	26
1.47567	27
1.47933	26
1.48300	24
1.48667	21
1.49033	20
1.49400	19
1.49767	21
1.50133	20
1.50500	19
1.50867	19
1.51233	21
1.51600	22
1.51967	21
1.52333	18
1.52700	16
1.53067	17
1.53433	20
1.53800	21
1.54167	20
1.54533	20
1.54900	22
1.55267	21
1.55633	20
1.56000	20
1.56367	21
1.56733	22
1.57100	22
1.57467	23
1.57833	22
1.58200	23
1.58567	23
1.58933	22
1.59300	22
1.59667	21
1.60033	20
1.60400	20
1.60767	21
1.61133	22
1.61500	24
1.61867	23
1.62233	23
1.62600	24
1.62967	24
1.63333	23
1.63700	24
1.64067	23
1.64433	24
1.64800	26
1.65167	28
1.65533	28
1.65900	27
1.66267	26
1.66633	27
1.67000	30
1.67367	32
1.67733	33
1.68100	33
1.68467	36
1.68833	36
1.69200	37
1.69567	36
1.69933	34
1.70300	34
1.70667	34
1.71033	34
1.71400	33
1.71767	33
1.72133	33
1.72500	32
1.72867	31
1.73233	30
1.73600	32
1.73967	36
1.74333	37
1.74700	37
1.75067	37
1.75433	35
1.75800	33
1.76167	35
1.76533	35
1.76900	38
1.77267	41
1.77633	42
1.78000	41
1.78367	40
1.78733	40
1.79100	39
1.79467	39
1.79833	40
1.80200	43
1.80567	44
1.80933	46
1.81300	47
1.81667	47
1.82033	47
1.82400	47
1.82767	48
1.83133	46
1.83500	45
1.83867	44
1.84233	44
1.84600	47
1.84967	49
1.85333	49
1.85700	50
1.86067	49
1.86433	49
1.86800	50
1.87167	50
1.87533	53
1.87900	55
1.88267	56
1.88633	57
1.89000	55
1.89367	54
1.89733	55
1.90100	55
1.90467	56
1.90833	57
1.91200	58
1.91567	58
1.91933	59
1.92300	61
1.92667	63
1.93033	64
1.93400	65
1.93767	65
1.94133	68
1.94500	69
1.94867	67
1.95233	66
1.95600	67
1.95967	67
1.96333	66
1.96700	64
1.97067	63
1.97433	64
1.97800	64
1.98167	66
1.98533	69
1.98900	73
1.99267	77
1.99633	78
2.00000	78
2.00367	76
2.00733	75
2.01100	77
2.01467	80
2.01833	81
2.02200	84
2.02567	86
2.02933	86
2.03300	85
2.03667	85
2.04033	87
2.04400	88
2.04767	90
2.05133	92
2.05500	91
2.05867	90
2.06233	89
2.06600	90
2.06967	90
2.07333	91
2.07700	94
2.08067	96
2.08433	96
2.08800	95
2.09167	97
2.09533	99
2.09900	101
2.10267	102
2.10633	102
2.11000	103
2.11367	107
2.11733	109
2.12100	111
2.12467	116
2.12833	121
2.13200	122
2.13567	121
2.13933	122
2.14300	124
2.14667	124
2.15033	124
2.15400	124
2.15767	124
2.16133	124
2.16500	126
2.16867	126
2.17233	130
2.17600	132
2.17967	133
2.18333	134
2.18700	136
2.19067	139
2.19433	144
2.19800	149
2.20167	152
2.20533	151
2.20900	149
2.21267	149
2.21633	151
2.22000	152
2.22367	153
2.22733	155
2.23100	157
2.23467	160
2.23833	162
2.24200	164
2.24567	166
2.24933	167
2.25300	168
2.25667	169
2.26033	171
2.26400	172
2.26767	172
2.27133	175
2.27500	176
2.27867	179
2.28233	184
2.28600	187
2.28967	188
2.29333	191
2.29700	193
2.30067	194
2.30433	194
2.30800	193
2.31167	191
2.31533	191
2.31900	196
2.32267	201
2.32633	204
2.33000	204
2.33367	204
2.33733	206
2.34100	209
2.34467	212
2.34833	216
2.35200	218
2.35567	221
2.35933	223
2.36300	224
2.36667	224
2.37033	227
2.37400	230
2.37767	231
2.38133	234
2.38500	236
2.38867	235
2.39233	235
2.39600	239
2.39967	243
2.40333	246
2.40700	251
2.41067	255
2.41433	256
2.41800	259
2.42167	260
2.42533	262
2.42900	265
2.43267	269
2.43633	270
2.44000	273
2.44367	330
2.44733	478
2.45100	633
2.45467	763
2.45833	838
2.46200	847
2.46567	818
2.46933	780
2.47300	749
2.47667	727
2.48033	712
2.48400	692
2.48767	659
2.49133	617
2.49500	576
2.49867	539
2.50233	512
2.50600	493
2.50967	484
2.51333	485
2.51700	497
2.52067	515
2.52433	536
2.52800	558
2.53167	569
2.53533	570
2.53900	560
2.54267	540
2.54633	512
2.55000	481
2.55367	453
2.55733	430
2.56100	411
2.56467	395
2.56833	382
2.57200	375
2.57567	369
2.57933	365
2.58300	365
2.58667	367
2.59033	367
2.59400	365
2.59767	362
2.60133	357
2.60500	347
2.60867	333
2.61233	316
2.61600	302
2.61967	288
2.62333	277
2.62700	271
2.63067	266
2.63433	264
2.63800	263
2.64167	264
2.64533	267
2.64900	269
2.65267	269
2.65633	267
2.66000	265
2.66367	261
2.66733	255
2.67100	248
2.67467	240
2.67833	231
2.68200	225
2.68567	216
2.68933	206
2.69300	200
2.69667	194
2.70033	188
2.70400	184
2.70767	181
2.71133	179
2.71500	178
2.71867	177
2.72233	179
2.72600	183
2.72967	185
2.73333	187
2.73700	188
2.74067	188
2.74433	189
2.74800	192
2.75167	193
2.75533	196
2.75900	200
2.76267	201
2.76633	201
2.77000	198
2.77367	199
2.77733	203
2.78100	206
2.78467	207
2.78833	207
2.79200	209
2.79567	212
2.79933	214
2.80300	214
2.80667	217
2.81033	219
2.81400	224
2.81767	231
2.82133	243
2.82500	268
2.82867	317
2.83233	413
2.83600	575
2.83967	824
2.84333	1177
2.84700	1632
2.85067	2173
2.85433	2769
2.85800	3376
2.86167	3947
2.86533	4434
2.86900	4799
2.87267	5020
2.87633	5094
2.88000	5032
2.88367	4855
2.88733	4596
2.89100	4283
2.89467	3941
2.89833	3591
2.90200	3243
2.90567	2911
2.90933	2601
2.91300	2318
2.91667	2063
2.92033	1832
2.92400	1629
2.92767	1450
2.93133	1296
2.93500	1161
2.93867	1042
2.94233	936
2.94600	845
2.94967	766
2.95333	696
2.95700	636
2.96067	585
2.96433	537
2.96800	496
2.97167	461
2.97533	429
2.97900	403
2.98267	380
2.98633	359
2.99000	338
2.99367	320
2.99733	307
3.00100	297
3.00467	286
3.00833	275
3.01200	265
3.01567	253
3.01933	244
3.02300	237
3.02667	232
3.03033	227
3.03400	222
3.03767	219
3.04133	216
3.04500	214
3.04867	212
3.05233	209
3.05600	207
3.05967	205
3.06333	205
3.06700	204
3.07067	202
3.07433	202
3.07800	202
3.08167	201
3.08533	201
3.08900	198
3.09267	195
3.09633	195
3.10000	196
3.10367	196
3.10733	197
3.11100	196
3.11467	195
3.11833	194
3.12200	194
3.12567	193
3.12933	194
3.13300	196
3.13667	198
3.14033	198
3.14400	199
3.14767	200
3.15133	201
3.15500	199
3.15867	199
3.16233	200
3.16600	200
3.16967	201
3.17333	203
3.17700	206
3.18067	208
3.18433	208
3.18800	208
3.19167	208
3.19533	209
3.19900	209
3.20267	210
3.20633	212
3.21000	216
3.21367	215
3.21733	213
3.22100	212
3.22467	210
3.22833	211
3.23200	213
3.23567	215
3.23933	218
3.24300	221
3.24667	224
3.25033	225
3.25400	225
3.25767	225
3.26133	226
3.26500	226
3.26867	227
3.27233	227
3.27600	228
3.27967	229
3.28333	231
3.28700	234
3.29067	236
3.29433	236
3.29800	238
3.30167	240
3.30533	241
3.30900	242
3.31267	242
3.31633	241
3.32000	241
3.32367	244
3.32733	247
3.33100	248
3.33467	246
3.33833	244
3.34200	242
3.34567	243
3.34933	246
3.35300	248
3.35667	249
3.36033	248
3.36400	248
3.36767	250
3.37133	250
3.37500	251
3.37867	254
3.38233	257
3.38600	259
3.38967	260
3.39333	259
3.39700	260
3.40067	260
3.40433	261
3.40800	263
3.41167	266
3.41533	268
3.41900	269
3.42267	268
3.42633	268
3.43000	269
3.43367	269
3.43733	270
3.44100	271
3.44467	271
3.44833	270
3.45200	272
3.45567	273
3.45933	274
3.46300	277
3.46667	279
3.47033	280
3.47400	281
3.47767	280
3.48133	279
3.48500	282
3.48867	284
3.49233	287
3.49600	289
3.49967	290
3.50333	292
3.50700	292
3.51067	294
3.51433	295
3.51800	296
3.52167	297
3.52533	298
3.52900	300
3.53267	300
3.53633	298
3.54000	295
3.54367	293
3.54733	293
3.55100	295
3.55467	297
3.55833	297
3.56200	296
3.56567	295
3.56933	297
3.57300	298
3.57667	296
3.58033	291
3.58400	280
3.58767	262
3.59133	247
3.59500	238
3.59867	239
3.60233	247
3.60600	259
3.60967	274
3.61333	291
3.61700	309
3.62067	329
3.62433	351
3.62800	372
3.63167	394
3.63533	416
3.63900	436
3.64267	456
3.64633	471
3.65000	484
3.65367	495
3.65733	506
3.66100	517
3.66467	527
3.66833	537
3.67200	543
3.67567	545
3.67933	548
3.68300	551
3.68667	553
3.69033	556
3.69400	559
3.69767	563
3.70133	567
3.70500	570
3.70867	573
3.71233	572
3.71600	572
3.71967	573
3.72333	576
3.72700	579
3.73067	580
3.73433	583
3.73800	586
3.74167	589
3.74533	590
3.74900	589
3.75267	586
3.75633	586
3.76000	588
3.76367	589
3.76733	589
3.77100	589
3.77467	588
3.77833	590
3.78200	592
3.78567	591
3.78933	589
3.79300	587
3.79667	586
3.80033	589
3.80400	590
3.80767	591
3.81133	592
3.81500	593
3.81867	592
3.82233	591
3.82600	592
3.82967	592
3.83333	593
3.83700	593
3.84067	592
3.84433	592
3.84800	595
3.85167	596
3.85533	597
3.85900	597
3.86267	597
3.86633	597
3.87000	599
3.87367	600
3.87733	601
3.88100	601
3.88467	602
3.88833	603
3.89200	601
3.89567	600
3.89933	602
3.90300	605
3.90667	607
3.91033	607
3.91400	609
3.91767	609
3.92133	608
3.92500	609
3.92867	609
3.93233	608
3.93600	607
3.93967	604
3.94333	604
3.94700	606
3.95067	607
3.95433	607
3.95800	606
3.96167	605
3.96533	603
3.96900	601
3.97267	601
3.97633	603
3.98000	604
3.98367	602
3.98733	600
3.99100	600
3.99467	599
3.99833	595

[Status Trace (Column Oven Temperature)]
Interval(msec)	1000
# of Points	240
Start Time(min)	0.009
End Time(min)	3.992
Intensity Units	
Intensity Multiplier	1
R.Time (min)	Intensity
0.00895	35.00
0.02562	35.01
0.04228	35.03
0.05895	35.04
0.07562	35.04
0.09228	35.05
0.10895	35.05
0.12562	35.04
0.14228	35.04
0.15895	35.03
0.17562	35.01
0.19228	35.00
0.20895	35.00
0.22562	35.00
0.24228	34.99
0.25895	35.00
0.27562	35.02
0.29228	35.02
0.30895	35.02
0.32562	35.01
0.34228	35.00
0.35895	34.99
0.37562	34.98
0.39228	34.97
0.40895	34.98
0.42562	34.99
0.44228	34.99
0.45895	35.00
0.47562	35.00
0.49228	34.99
0.50895	35.00
0.52562	35.00
0.54228	35.01
0.55895	35.02
0.57562	35.01
0.59228	35.01
0.60895	35.00
0.62562	35.00
0.64228	35.00
0.65895	35.01
0.67562	35.01
0.69228	35.01
0.70895	35.01
0.72562	35.02
0.74228	35.03
0.75895	35.04
0.77562	35.05
0.79228	35.05
0.80895	35.05
0.82562	35.04
0.84228	35.03
0.85895	35.01
0.87562	35.00
0.89228	34.98
0.90895	34.97
0.92562	34.96
0.94228	34.96
0.95895	34.96
0.97562	34.99
0.99228	35.01
1.00895	35.03
1.02562	35.02
1.04228	35.02
1.05895	35.01
1.07562	35.01
1.09228	35.02
1.10895	35.04
1.12562	35.04
1.14228	35.04
1.15895	35.04
1.17562	35.03
1.19228	35.04
1.20895	35.04
1.22562	35.04
1.24228	35.04
1.25895	35.01
1.27562	35.01
1.29228	35.00
1.30895	34.99
1.32562	34.98
1.34228	34.97
1.35895	34.98
1.37562	34.99
1.39228	34.99
1.40895	34.99
1.42562	34.99
1.44228	34.98
1.45895	34.97
1.47562	34.96
1.49228	34.96
1.50895	34.96
1.52562	34.96
1.54228	34.96
1.55895	34.97
1.57562	34.97
1.59228	34.98
1.60895	35.04
1.62562	35.19
1.64228	35.39
1.65895	35.65
1.67562	36.00
1.69228	36.36
1.70895	36.70
1.72562	37.05
1.74228	37.39
1.75895	37.70
1.77562	38.01
1.79228	38.35
1.80895	38.69
1.82562	39.03
1.84228	39.35
1.85895	39.69
1.87562	40.04
1.89228	40.36
1.90895	40.71
1.92562	41.02
1.94228	41.35
1.95895	41.68
1.97562	41.99
1.99228	42.33
2.00895	42.66
2.02562	43.00
2.04228	43.31
2.05895	43.64
2.07562	43.96
2.09228	44.27
2.10895	44.59
2.12562	44.93
2.14228	45.24
2.15895	45.56
2.17562	45.89
2.19228	46.22
2.20895	46.56
2.22562	46.85
2.24228	47.20
2.25895	47.54
2.27562	47.86
2.29228	48.20
2.30895	48.53
2.32562	48.86
2.34228	49.17
2.35895	49.46
2.37562	49.66
2.39228	49.72
2.40895	49.70
2.42562	49.71
2.44228	49.72
2.45895	49.73
2.47562	49.75
2.49228	49.74
2.50895	49.76
2.52562	49.79
2.54228	49.79
2.55895	49.83
2.57562	49.83
2.59228	49.83
2.60895	49.82
2.62562	49.84
2.64228	49.84
2.65895	49.85
2.67562	49.86
2.69228	49.86
2.70895	49.84
2.72562	49.85
2.74228	49.86
2.75895	49.85
2.77562	49.85
2.79228	49.85
2.80895	49.87
2.82562	49.87
2.84228	49.88
2.85895	49.89
2.87562	49.90
2.89228	49.91
2.90895	49.92
2.92562	49.94
2.94228	49.95
2.95895	49.95
2.97562	49.95
2.99228	49.95
3.00895	49.96
3.02562	49.97
3.04228	49.97
3.05895	49.98
3.07562	49.98
3.09228	49.98
3.10895	49.99
3.12562	50.00
3.14228	50.01
3.15895	50.01
3.17562	50.02
3.19228	50.02
3.20895	50.03
3.22562	50.04
3.24228	50.05
3.25895	50.07
3.27562	50.09
3.29228	50.11
3.30895	50.11
3.32562	50.11
3.34228	50.10
3.35895	50.08
3.37562	50.06
3.39228	50.04
3.40895	50.04
3.42562	50.04
3.44228	50.05
3.45895	50.05
3.47562	50.05
3.49228	50.04
3.50895	50.04
3.52562	50.03
3.54228	50.02
3.55895	50.04
3.57562	50.05
3.59228	50.06
3.60895	50.06
3.62562	50.05
3.64228	50.06
3.65895	50.06
3.67562	50.06
3.69228	50.05
3.70895	50.06
3.72562	50.06
3.74228	50.06
3.75895	50.07
3.77562	50.07
3.79228	50.07
3.80895	50.06
3.82562	50.05
3.84228	50.04
3.85895	50.04
3.87562	50.04
3.89228	50.05
3.90895	50.05
3.92562	50.05
3.94228	50.05
3.95895	50.06
3.97562	50.07
3.99228	50.08

[Status Trace (Injection Unit Temperature)]
Interval(msec)	1000
# of Points	240
Start Time(min)	0.009
End Time(min)	3.992
Intensity Units	
Intensity Multiplier	1
R.Time (min)	Intensity
0.00895	99.98
0.02562	99.98
0.04228	99.97
0.05895	99.97
0.07562	99.98
0.09228	99.98
0.10895	99.98
0.12562	99.97
0.14228	99.98
0.15895	99.98
0.17562	99.98
0.19228	99.98
0.20895	99.98
0.22562	99.98
0.24228	99.97
0.25895	99.98
0.27562	99.98
0.29228	99.98
0.30895	99.98
0.32562	99.98
0.34228	99.98
0.35895	99.98
0.37562	99.98
0.39228	99.98
0.40895	99.98
0.42562	99.98
0.44228	99.98
0.45895	99.98
0.47562	99.98
0.49228	99.98
0.50895	99.98
0.52562	99.98
0.54228	99.98
0.55895	99.98
0.57562	99.98
0.59228	99.98
0.60895	99.98
0.62562	99.98
0.64228	99.98
0.65895	99.99
0.67562	99.98
0.69228	99.98
0.70895	99.98
0.72562	99.98
0.74228	99.98
0.75895	99.99
0.77562	99.98
0.79228	99.98
0.80895	99.98
0.82562	99.98
0.84228	99.98
0.85895	99.99
0.87562	99.98
0.89228	99.99
0.90895	99.98
0.92562	99.98
0.94228	99.99
0.95895	99.99
0.97562	99.98
0.99228	99.98
1.00895	99.98
1.02562	99.98
1.04228	99.99
1.05895	99.98
1.07562	99.99
1.09228	99.99
1.10895	99.98
1.12562	99.98
1.14228	99.98
1.15895	99.98
1.17562	99.98
1.19228	99.99
1.20895	99.98
1.22562	99.97
1.24228	99.98
1.25895	99.98
1.27562	99.98
1.29228	99.98
1.30895	99.97
1.32562	99.98
1.34228	99.98
1.35895	99.97
1.37562	99.98
1.39228	99.98
1.40895	99.98
1.42562	99.98
1.44228	99.97
1.45895	99.98
1.47562	99.98
1.49228	99.98
1.50895	99.98
1.52562	99.98
1.54228	99.98
1.55895	99.98
1.57562	99.98
1.59228	99.98
1.60895	99.98
1.62562	99.98
1.64228	99.98
1.65895	99.98
1.67562	99.98
1.69228	99.98
1.70895	99.98
1.72562	99.98
1.74228	99.98
1.75895	99.98
1.77562	99.98
1.79228	99.97
1.80895	99.98
1.82562	99.98
1.84228	99.98
1.85895	99.98
1.87562	99.98
1.89228	99.98
1.90895	99.98
1.92562	99.98
1.94228	99.98
1.95895	99.98
1.97562	99.98
1.99228	99.98
2.00895	99.98
2.02562	99.97
2.04228	99.97
2.05895	99.97
2.07562	99.97
2.09228	99.97
2.10895	99.97
2.12562	99.97
2.14228	99.97
2.15895	99.97
2.17562	99.97
2.19228	99.97
2.20895	99.97
2.22562	99.97
2.24228	99.97
2.25895	99.97
2.27562	99.97
2.29228	99.97
2.30895	99.97
2.32562	99.97
2.34228	99.97
2.35895	99.97
2.37562	99.97
2.39228	99.97
2.40895	99.97
2.42562	99.97
2.44228	99.97
2.45895	99.97
2.47562	99.97
2.49228	99.97
2.50895	99.97
2.52562	99.97
2.54228	99.97
2.55895	99.97
2.57562	99.97
2.59228	99.98
2.60895	99.97
2.62562	99.98
2.64228	99.98
2.65895	99.98
2.67562	99.98
2.69228	99.98
2.70895	99.98
2.72562	99.98
2.74228	99.98
2.75895	99.98
2.77562	99.99
2.79228	99.99
2.80895	99.98
2.82562	99.99
2.84228	99.99
2.85895	99.99
2.87562	99.99
2.89228	100.00
2.90895	99.99
2.92562	100.00
2.94228	100.00
2.95895	100.00
2.97562	100.00
2.99228	100.00
3.00895	100.01
3.02562	100.00
3.04228	100.01
3.05895	100.01
3.07562	100.01
3.09228	100.01
3.10895	100.02
3.12562	100.02
3.14228	100.01
3.15895	100.01
3.17562	100.02
3.19228	100.02
3.20895	100.01
3.22562	100.02
3.24228	100.02
3.25895	100.02
3.27562	100.02
3.29228	100.02
3.30895	100.03
3.32562	100.03
3.34228	100.03
3.35895	100.03
3.37562	100.03
3.39228	100.03
3.40895	100.03
3.42562	100.03
3.44228	100.03
3.45895	100.03
3.47562	100.03
3.49228	100.03
3.50895	100.03
3.52562	100.03
3.54228	100.04
3.55895	100.04
3.57562	100.04
3.59228	100.04
3.60895	100.04
3.62562	100.04
3.64228	100.04
3.65895	100.04
3.67562	100.04
3.69228	100.04
3.70895	100.04
3.72562	100.04
3.74228	100.04
3.75895	100.04
3.77562	100.04
3.79228	100.05
3.80895	100.04
3.82562	100.05
3.84228	100.05
3.85895	100.05
3.87562	100.05
3.89228	100.05
3.90895	100.05
3.92562	100.05
3.94228	100.05
3.95895	100.05
3.97562	100.05
3.99228	100.05

[Status Trace (Carrier Gas Pressure)]
Interval(msec)	1000
# of Points	240
Start Time(min)	0.009
End Time(min)	3.992
Intensity Units	
Intensity Multiplier	1
R.Time (min)	Intensity
0.00895	58.00
0.02562	55.25
0.04228	57.30
0.05895	59.34
0.07562	59.31
0.09228	58.03
0.10895	57.98
0.12562	58.01
0.14228	58.01
0.15895	58.00
0.17562	58.00
0.19228	58.00
0.20895	58.00
0.22562	58.00
0.24228	58.00
0.25895	58.00
0.27562	58.00
0.29228	58.00
0.30895	58.00
0.32562	58.00
0.34228	58.00
0.35895	58.00
0.37562	58.00
0.39228	58.00
0.40895	58.00
0.42562	58.00
0.44228	58.00
0.45895	58.00
0.47562	58.00
0.49228	58.00
0.50895	58.00
0.52562	58.00
0.54228	58.00
0.55895	58.00
0.57562	58.00
0.59228	58.00
0.60895	58.00
0.62562	58.00
0.64228	58.00
0.65895	58.00
0.67562	58.00
0.69228	58.00
0.70895	58.00
0.72562	58.00
0.74228	58.00
0.75895	58.00
0.77562	58.00
0.79228	58.00
0.80895	58.00
0.82562	58.00
0.84228	58.00
0.85895	58.00
0.87562	58.00
0.89228	58.00
0.90895	58.00
0.92562	58.00
0.94228	58.00
0.95895	58.00
0.97562	58.00
0.99228	58.00
1.00895	58.00
1.02562	58.00
1.04228	58.00
1.05895	58.00
1.07562	58.00
1.09228	58.00
1.10895	58.00
1.12562	58.00
1.14228	58.00
1.15895	58.00
1.17562	58.00
1.19228	58.00
1.20895	58.00
1.22562	58.00
1.24228	58.00
1.25895	58.00
1.27562	58.00
1.29228	58.00
1.30895	58.00
1.32562	58.00
1.34228	58.00
1.35895	58.00
1.37562	58.00
1.39228	58.00
1.40895	58.00
1.42562	58.00
1.44228	58.00
1.45895	58.00
1.47562	58.00
1.49228	58.00
1.50895	58.00
1.52562	58.00
1.54228	58.00
1.55895	58.00
1.57562	58.00
1.59228	58.00
1.60895	58.00
1.62562	58.00
1.64228	58.00
1.65895	58.00
1.67562	58.01
1.69228	58.00
1.70895	58.00
1.72562	58.00
1.74228	58.00
1.75895	58.00
1.77562	58.00
1.79228	58.00
1.80895	58.00
1.82562	58.00
1.84228	58.00
1.85895	58.00
1.87562	58.00
1.89228	58.00
1.90895	58.00
1.92562	58.00
1.94228	58.00
1.95895	58.00
1.97562	58.00
1.99228	58.00
2.00895	58.00
2.02562	58.00
2.04228	58.00
2.05895	58.00
2.07562	58.00
2.09228	58.00
2.10895	58.00
2.12562	58.00
2.14228	58.00
2.15895	58.00
2.17562	58.00
2.19228	58.00
2.20895	58.00
2.22562	58.00
2.24228	58.00
2.25895	58.00
2.27562	58.00
2.29228	58.00
2.30895	58.00
2.32562	58.00
2.34228	58.00
2.35895	58.00
2.37562	58.00
2.39228	57.99
2.40895	57.99
2.42562	58.00
2.44228	58.00
2.45895	58.00
2.47562	58.00
2.49228	58.00
2.50895	58.00
2.52562	57.99
2.54228	58.00
2.55895	58.00
2.57562	58.00
2.59228	58.00
2.60895	58.00
2.62562	58.00
2.64228	58.00
2.65895	58.00
2.67562	58.00
2.69228	58.00
2.70895	58.00
2.72562	58.00
2.74228	58.00
2.75895	58.00
2.77562	58.00
2.79228	58.00
2.80895	58.00
2.82562	58.00
2.84228	58.00
2.85895	58.00
2.87562	58.00
2.89228	58.00
2.90895	58.00
2.92562	58.00
2.94228	58.00
2.95895	58.00
2.97562	58.00
2.99228	58.00
3.00895	58.00
3.02562	58.00
3.04228	58.00
3.05895	58.00
3.07562	58.00
3.09228	58.00
3.10895	58.00
3.12562	58.00
3.14228	58.00
3.15895	58.00
3.17562	58.00
3.19228	58.00
3.20895	58.00
3.22562	58.00
3.24228	58.00
3.25895	58.00
3.27562	58.00
3.29228	58.00
3.30895	58.00
3.32562	58.00
3.34228	58.00
3.35895	58.00
3.37562	58.00
3.39228	58.00
3.40895	58.00
3.42562	58.00
3.44228	58.00
3.45895	58.00
3.47562	58.00
3.49228	58.00
3.50895	58.00
3.52562	58.00
3.54228	58.00
3.55895	58.00
3.57562	58.00
3.59228	58.00
3.60895	58.00
3.62562	58.00
3.64228	58.00
3.65895	58.00
3.67562	58.00
3.69228	58.00
3.70895	58.00
3.72562	58.00
3.74228	58.00
3.75895	58.00
3.77562	58.00
3.79228	58.00
3.80895	58.00
3.82562	58.00
3.84228	58.00
3.85895	58.00
3.87562	58.00
3.89228	58.00
3.90895	58.00
3.92562	58.00
3.94228	58.00
3.95895	58.00
3.97562	58.00
3.99228	58.00

[Status Trace (Carrier Gas Flow)]
Interval(msec)	1000
# of Points	240
Start Time(min)	0.009
End Time(min)	3.992
Intensity Units	
Intensity Multiplier	1
R.Time (min)	Intensity
0.00895	34.51
0.02562	34.53
0.04228	34.54
0.05895	34.55
0.07562	34.50
0.09228	34.52
0.10895	34.52
0.12562	34.52
0.14228	34.52
0.15895	34.52
0.17562	34.52
0.19228	34.52
0.20895	34.52
0.22562	34.51
0.24228	34.52
0.25895	34.52
0.27562	34.52
0.29228	34.52
0.30895	34.52
0.32562	34.52
0.34228	34.52
0.35895	34.51
0.37562	34.52
0.39228	34.52
0.40895	34.52
0.42562	34.52
0.44228	34.52
0.45895	34.52
0.47562	34.52
0.49228	34.52
0.50895	34.52
0.52562	34.52
0.54228	34.52
0.55895	34.52
0.57562	34.52
0.59228	34.52
0.60895	34.52
0.62562	34.52
0.64228	34.52
0.65895	34.52
0.67562	34.52
0.69228	34.52
0.70895	34.52
0.72562	34.52
0.74228	34.53
0.75895	34.52
0.77562	34.52
0.79228	34.52
0.80895	34.52
0.82562	34.52
0.84228	34.52
0.85895	34.52
0.87562	34.52
0.89228	34.52
0.90895	34.52
0.92562	34.52
0.94228	34.52
0.95895	34.52
0.97562	34.52
0.99228	34.52
1.00895	34.52
1.02562	34.52
1.04228	34.53
1.05895	34.53
1.07562	34.52
1.09228	34.52
1.10895	34.51
1.12562	34.51
1.14228	34.51
1.15895	34.53
1.17562	34.52
1.19228	34.52
1.20895	34.52
1.22562	34.52
1.24228	34.52
1.25895	34.52
1.27562	34.52
1.29228	34.53
1.30895	34.53
1.32562	34.51
1.34228	34.51
1.35895	34.52
1.37562	34.52
1.39228	34.52
1.40895	34.52
1.42562	34.52
1.44228	34.52
1.45895	34.52
1.47562	34.52
1.49228	34.52
1.50895	34.52
1.52562	34.52
1.54228	34.52
1.55895	34.52
1.57562	34.52
1.59228	34.52
1.60895	34.52
1.62562	34.52
1.64228	34.52
1.65895	34.51
1.67562	34.52
1.69228	34.52
1.70895	34.51
1.72562	34.52
1.74228	34.52
1.75895	34.52
1.77562	34.52
1.79228	34.53
1.80895	34.51
1.82562	34.51
1.84228	34.52
1.85895	34.52
1.87562	34.52
1.89228	34.52
1.90895	34.52
1.92562	34.52
1.94228	34.52
1.95895	34.52
1.97562	34.52
1.99228	34.52
2.00895	34.52
2.02562	34.52
2.04228	34.52
2.05895	34.52
2.07562	34.52
2.09228	34.51
2.10895	34.52
2.12562	34.52
2.14228	34.52
2.15895	34.51
2.17562	34.53
2.19228	34.52
2.20895	34.52
2.22562	34.52
2.24228	34.52
2.25895	34.52
2.27562	34.52
2.29228	34.52
2.30895	34.52
2.32562	34.52
2.34228	34.52
2.35895	34.52
2.37562	34.52
2.39228	34.52
2.40895	34.52
2.42562	34.52
2.44228	34.52
2.45895	34.52
2.47562	34.52
2.49228	34.52
2.50895	34.46
2.52562	34.52
2.54228	34.52
2.55895	34.52
2.57562	34.52
2.59228	34.52
2.60895	34.51
2.62562	34.52
2.64228	34.52
2.65895	34.52
2.67562	34.52
2.69228	34.52
2.70895	34.52
2.72562	34.52
2.74228	34.52
2.75895	34.51
2.77562	34.52
2.79228	34.52
2.80895	34.52
2.82562	34.52
2.84228	34.52
2.85895	34.52
2.87562	34.52
2.89228	34.52
2.90895	34.52
2.92562	34.52
2.94228	34.52
2.95895	34.52
2.97562	34.52
2.99228	34.52
3.00895	34.52
3.02562	34.52
3.04228	34.52
3.05895	34.52
3.07562	34.52
3.09228	34.52
3.10895	34.52
3.12562	34.52
3.14228	34.52
3.15895	34.52
3.17562	34.51
3.19228	34.52
3.20895	34.52
3.22562	34.52
3.24228	34.52
3.25895	34.52
3.27562	34.51
3.29228	34.52
3.30895	34.51
3.32562	34.52
3.34228	34.52
3.35895	34.52
3.37562	34.53
3.39228	34.52
3.40895	34.52
3.42562	34.52
3.44228	34.52
3.45895	34.52
3.47562	34.52
3.49228	34.52
3.50895	34.52
3.52562	34.52
3.54228	34.52
3.55895	34.52
3.57562	34.52
3.59228	34.52
3.60895	34.52
3.62562	34.51
3.64228	34.53
3.65895	34.52
3.67562	34.51
3.69228	34.52
3.70895	34.52
3.72562	34.52
3.74228	34.52
3.75895	34.52
3.77562	34.51
3.79228	34.52
3.80895	34.52
3.82562	34.52
3.84228	34.52
3.85895	34.51
3.87562	34.52
3.89228	34.52
3.90895	34.52
3.92562	34.52
3.94228	34.52
3.95895	34.52
3.97562	34.52
3.99228	34.52

[Status Trace (Column Flow)]
Interval(msec)	1000
# of Points	240
Start Time(min)	0.009
End Time(min)	3.992
Intensity Units	
Intensity Multiplier	1
R.Time (min)	Intensity
0.00895	5.52
0.02562	5.20
0.04228	5.44
0.05895	5.68
0.07562	5.67
0.09228	5.52
0.10895	5.52
0.12562	5.52
0.14228	5.52
0.15895	5.52
0.17562	5.52
0.19228	5.52
0.20895	5.52
0.22562	5.52
0.24228	5.52
0.25895	5.52
0.27562	5.52
0.29228	5.52
0.30895	5.52
0.32562	5.52
0.34228	5.52
0.35895	5.52
0.37562	5.52
0.39228	5.52
0.40895	5.52
0.42562	5.52
0.44228	5.52
0.45895	5.52
0.47562	5.52
0.49228	5.52
0.50895	5.52
0.52562	5.52
0.54228	5.52
0.55895	5.52
0.57562	5.52
0.59228	5.52
0.60895	5.52
0.62562	5.52
0.64228	5.52
0.65895	5.52
0.67562	5.52
0.69228	5.52
0.70895	5.52
0.72562	5.52
0.74228	5.52
0.75895	5.52
0.77562	5.52
0.79228	5.52
0.80895	5.52
0.82562	5.52
0.84228	5.52
0.85895	5.52
0.87562	5.52
0.89228	5.52
0.90895	5.52
0.92562	5.52
0.94228	5.52
0.95895	5.52
0.97562	5.52
0.99228	5.52
1.00895	5.52
1.02562	5.52
1.04228	5.52
1.05895	5.52
1.07562	5.52
1.09228	5.52
1.10895	5.52
1.12562	5.52
1.14228	5.52
1.15895	5.52
1.17562	5.52
1.19228	5.52
1.20895	5.52
1.22562	5.52
1.24228	5.52
1.25895	5.52
1.27562	5.52
1.29228	5.52
1.30895	5.52
1.32562	5.52
1.34228	5.52
1.35895	5.52
1.37562	5.52
1.39228	5.52
1.40895	5.52
1.42562	5.52
1.44228	5.52
1.45895	5.52
1.47562	5.52
1.49228	5.52
1.50895	5.52
1.52562	5.52
1.54228	5.52
1.55895	5.52
1.57562	5.52
1.59228	5.52
1.60895	5.52
1.62562	5.52
1.64228	5.51
1.65895	5.50
1.67562	5.49
1.69228	5.48
1.70895	5.47
1.72562	5.46
1.74228	5.45
1.75895	5.44
1.77562	5.43
1.79228	5.42
1.80895	5.41
1.82562	5.40
1.84228	5.39
1.85895	5.38
1.87562	5.37
1.89228	5.36
1.90895	5.35
1.92562	5.34
1.94228	5.33
1.95895	5.32
1.97562	5.31
1.99228	5.30
2.00895	5.29
2.02562	5.28
2.04228	5.27
2.05895	5.26
2.07562	5.25
2.09228	5.24
2.10895	5.23
2.12562	5.22
2.14228	5.21
2.15895	5.20
2.17562	5.19
2.19228	5.18
2.20895	5.18
2.22562	5.17
2.24228	5.16
2.25895	5.15
2.27562	5.14
2.29228	5.13
2.30895	5.12
2.32562	5.11
2.34228	5.10
2.35895	5.09
2.37562	5.09
2.39228	5.09
2.40895	5.09
2.42562	5.09
2.44228	5.09
2.45895	5.09
2.47562	5.09
2.49228	5.09
2.50895	5.08
2.52562	5.08
2.54228	5.08
2.55895	5.08
2.57562	5.08
2.59228	5.08
2.60895	5.08
2.62562	5.08
2.64228	5.08
2.65895	5.08
2.67562	5.08
2.69228	5.08
2.70895	5.08
2.72562	5.08
2.74228	5.08
2.75895	5.08
2.77562	5.08
2.79228	5.08
2.80895	5.08
2.82562	5.08
2.84228	5.08
2.85895	5.08
2.87562	5.08
2.89228	5.08
2.90895	5.08
2.92562	5.08
2.94228	5.08
2.95895	5.08
2.97562	5.08
2.99228	5.08
3.00895	5.08
3.02562	5.08
3.04228	5.08
3.05895	5.08
3.07562	5.08
3.09228	5.08
3.10895	5.08
3.12562	5.08
3.14228	5.08
3.15895	5.08
3.17562	5.08
3.19228	5.08
3.20895	5.08
3.22562	5.08
3.24228	5.08
3.25895	5.08
3.27562	5.08
3.29228	5.08
3.30895	5.08
3.32562	5.08
3.34228	5.08
3.35895	5.08
3.37562	5.08
3.39228	5.08
3.40895	5.08
3.42562	5.08
3.44228	5.08
3.45895	5.08
3.47562	5.08
3.49228	5.08
3.50895	5.08
3.52562	5.08
3.54228	5.08
3.55895	5.08
3.57562	5.08
3.59228	5.08
3.60895	5.08
3.62562	5.08
3.64228	5.08
3.65895	5.08
3.67562	5.08
3.69228	5.08
3.70895	5.08
3.72562	5.08
3.74228	5.08
3.75895	5.08
3.77562	5.08
3.79228	5.08
3.80895	5.08
3.82562	5.08
3.84228	5.08
3.85895	5.08
3.87562	5.08
3.89228	5.08
3.90895	5.08
3.92562	5.08
3.94228	5.08
3.95895	5.08
3.97562	5.08
3.99228	5.08

[Status Trace (Linear Velocity)]
Interval(msec)	1000
# of Points	240
Start Time(min)	0.009
End Time(min)	3.992
Intensity Units	
Intensity Multiplier	1
R.Time (min)	Intensity
0.00895	39.02
0.02562	37.21
0.04228	38.55
0.05895	39.89
0.07562	39.87
0.09228	39.04
0.10895	39.00
0.12562	39.02
0.14228	39.02
0.15895	39.02
0.17562	39.02
0.19228	39.02
0.20895	39.02
0.22562	39.02
0.24228	39.02
0.25895	39.02
0.27562	39.02
0.29228	39.01
0.30895	39.02
0.32562	39.02
0.34228	39.02
0.35895	39.02
0.37562	39.02
0.39228	39.02
0.40895	39.02
0.42562	39.02
0.44228	39.02
0.45895	39.02
0.47562	39.02
0.49228	39.02
0.50895	39.02
0.52562	39.02
0.54228	39.02
0.55895	39.02
0.57562	39.02
0.59228	39.02
0.60895	39.02
0.62562	39.02
0.64228	39.02
0.65895	39.02
0.67562	39.02
0.69228	39.01
0.70895	39.02
0.72562	39.02
0.74228	39.01
0.75895	39.01
0.77562	39.01
0.79228	39.01
0.80895	39.01
0.82562	39.01
0.84228	39.01
0.85895	39.02
0.87562	39.02
0.89228	39.02
0.90895	39.02
0.92562	39.02
0.94228	39.02
0.95895	39.02
0.97562	39.02
0.99228	39.02
1.00895	39.01
1.02562	39.01
1.04228	39.01
1.05895	39.02
1.07562	39.02
1.09228	39.01
1.10895	39.01
1.12562	39.01
1.14228	39.01
1.15895	39.01
1.17562	39.01
1.19228	39.01
1.20895	39.01
1.22562	39.01
1.24228	39.01
1.25895	39.02
1.27562	39.02
1.29228	39.02
1.30895	39.02
1.32562	39.02
1.34228	39.02
1.35895	39.02
1.37562	39.02
1.39228	39.02
1.40895	39.02
1.42562	39.02
1.44228	39.02
1.45895	39.02
1.47562	39.02
1.49228	39.02
1.50895	39.02
1.52562	39.02
1.54228	39.02
1.55895	39.02
1.57562	39.02
1.59228	39.02
1.60895	39.02
1.62562	39.00
1.64228	38.98
1.65895	38.96
1.67562	38.92
1.69228	38.89
1.70895	38.86
1.72562	38.82
1.74228	38.79
1.75895	38.76
1.77562	38.73
1.79228	38.70
1.80895	38.67
1.82562	38.63
1.84228	38.60
1.85895	38.58
1.87562	38.54
1.89228	38.51
1.90895	38.48
1.92562	38.45
1.94228	38.42
1.95895	38.39
1.97562	38.36
1.99228	38.33
2.00895	38.30
2.02562	38.26
2.04228	38.23
2.05895	38.21
2.07562	38.18
2.09228	38.15
2.10895	38.12
2.12562	38.09
2.14228	38.06
2.15895	38.03
2.17562	38.00
2.19228	37.97
2.20895	37.94
2.22562	37.91
2.24228	37.88
2.25895	37.85
2.27562	37.82
2.29228	37.79
2.30895	37.77
2.32562	37.73
2.34228	37.71
2.35895	37.68
2.37562	37.66
2.39228	37.65
2.40895	37.65
2.42562	37.66
2.44228	37.66
2.45895	37.66
2.47562	37.65
2.49228	37.65
2.50895	37.65
2.52562	37.64
2.54228	37.65
2.55895	37.65
2.57562	37.65
2.59228	37.65
2.60895	37.65
2.62562	37.65
2.64228	37.65
2.65895	37.65
2.67562	37.64
2.69228	37.65
2.70895	37.65
2.72562	37.65
2.74228	37.64
2.75895	37.65
2.77562	37.65
2.79228	37.65
2.80895	37.65
2.82562	37.64
2.84228	37.64
2.85895	37.64
2.87562	37.64
2.89228	37.64
2.90895	37.64
2.92562	37.64
2.94228	37.64
2.95895	37.64
2.97562	37.64
2.99228	37.64
3.00895	37.64
3.02562	37.64
3.04228	37.63
3.05895	37.63
3.07562	37.63
3.09228	37.63
3.10895	37.63
3.12562	37.63
3.14228	37.63
3.15895	37.63
3.17562	37.63
3.19228	37.63
3.20895	37.63
3.22562	37.63
3.24228	37.63
3.25895	37.63
3.27562	37.62
3.29228	37.62
3.30895	37.62
3.32562	37.62
3.34228	37.62
3.35895	37.63
3.37562	37.63
3.39228	37.63
3.40895	37.63
3.42562	37.63
3.44228	37.63
3.45895	37.63
3.47562	37.63
3.49228	37.63
3.50895	37.63
3.52562	37.63
3.54228	37.63
3.55895	37.63
3.57562	37.63
3.59228	37.63
3.60895	37.63
3.62562	37.63
3.64228	37.63
3.65895	37.63
3.67562	37.63
3.69228	37.63
3.70895	37.63
3.72562	37.63
3.74228	37.63
3.75895	37.63
3.77562	37.63
3.79228	37.63
3.80895	37.63
3.82562	37.63
3.84228	37.63
3.85895	37.63
3.87562	37.63
3.89228	37.63
3.90895	37.63
3.92562	37.63
3.94228	37.63
3.95895	37.63
3.97562	37.63
3.99228	37.63

