[Header]
Application Name	LabSolutions
Version	5.110
Data File Name	C:\Users\User\Desktop\GC Analyses\Jack\Nachusa Grasslands Sampling\T2 Timepoint July 12th\T2_07122022_042.gcd
Output Date	3/14/2023
Output Time	3:42:32 PM

[File Information]
Type	Data File
Generated	3/10/2023 5:03:07 PM
Generated by	System Administrator
Modified	3/10/2023 5:09:51 PM
Modified by	System Administrator

[Sample Information]
Operator Name	System Administrator
Acquired	3/10/2023 5:05:50 PM
Sample Type	0:Unknown
Level	0
Sample Name	042
Sample ID	042
ISTD Amount1	1
ISTD Amount2	1
ISTD Amount3	1
ISTD Amount4	1
ISTD Amount5	1
ISTD Amount6	1
ISTD Amount7	1
ISTD Amount8	1
ISTD Amount9	1
ISTD Amount10	1
ISTD Amount11	1
ISTD Amount12	1
ISTD Amount13	1
ISTD Amount14	1
ISTD Amount15	1
ISTD Amount16	1
ISTD Amount17	1
ISTD Amount18	1
ISTD Amount19	1
ISTD Amount20	1
ISTD Amount21	1
ISTD Amount22	1
ISTD Amount23	1
ISTD Amount24	1
ISTD Amount25	1
ISTD Amount26	1
ISTD Amount27	1
ISTD Amount28	1
ISTD Amount29	1
ISTD Amount30	1
ISTD Amount31	1
ISTD Amount32	1
Sample Amount	1
Dilution Factor	1
Vial#	41
Injection Volume	1
Injection Count	1
Bar Code	

[Original Files]
Data File	C:\Users\User\Desktop\GC Analyses\Jack\Nachusa Grasslands Sampling\T1 Timepoint July 12th\T2_07122022_042.gcd
Method File	C:\LabSolutions\Data\GHG_4min_2022\ghg3_togas_w_acet_4 min_new_int.gcm
Batch File	C:\LabSolutions\Data\AutoSamplerTesting\T2_07122022.gcb
Report Format File	c:\LabSolutions\System\DEFAULT.lsr

[File Description]


[Configuration]
Instrument Name	C0B7VH3-Instrument1
Instrument #	1
Line #	1
# of Detectors	3
Detector ID	DET#1	DET#2	DET#3
Detector Name	FID	PTCD	ECD
# of Channels	1	1	1

[Peak Table(Ch1)]
# of Peaks	3
Peak#	R.Time	I.Time	F.Time	Area	Height	A/H	Conc.	Mark	ID#	Name	k'	Plate #	Plate Ht.	Tailing	Resolution	Sep.Factor	Area Ratio	Height Ratio	Conc. %	Norm Conc.
1	1.476	1.432	1.538	29397	14040	2.094	207.541	   	1	CO	0.000	9472	15.836	1.282	0.000	0.000	0	0	33.163	33.163
2	1.567	1.538	1.626	4612	2254	2.046	89.176	 V 	2	CH4	0.062	10409	14.411	0.000	1.502	0.000	0	0	14.250	14.250
3	1.996	1.949	2.502	1311293	626382	2.093	329.099	   	3	CO2	0.353	17392	8.624	1.274	7.033	5.680	0	0	52.587	52.587

[Peak Table(Ch2)]
# of Peaks	0

[Peak Table(Ch3)]
# of Peaks	4
Peak#	R.Time	I.Time	F.Time	Area	Height	A/H	Conc.	Mark	ID#	Name	k'	Plate #	Plate Ht.	Tailing	Resolution	Sep.Factor	Area Ratio	Height Ratio	Conc. %	Norm Conc.
1	2.462	2.227	2.513	2357	657	3.588	0.000	   			0.000	9127	16.435	0.000	0.000	0.000	0	0	0.000	0.000
2	2.535	2.513	2.642	1587	365	4.344	0.000	 V 			0.030	4788	31.331	0.000	0.587	0.000	0	0	0.000	0.000
3	2.656	2.642	2.722	310	118	2.630	0.000	 V 			0.079	1842	81.453	0.000	0.614	2.650	0	0	0.000	0.000
4	2.876	2.799	3.082	18298	4817	3.799	0.467	   	1	N2O	0.168	13237	11.332	1.636	1.266	2.132	0	0	100.000	100.000

[Compound Results(Ch1)]
# of IDs	6
ID#	Name	R.Time	Area	Height	Conc.	Curve	3rd	2nd	1st	Constant	Area Ratio	Height Ratio	Conc. %	Norm Conc.
1	CO	1.476	29397	14040	207.541	Linear	0.000000e+00	0.000000e+00	1.416423e+002	0.000000e+00	0	0	33.163	33.163
2	CH4	1.567	4612	2254	89.176	Linear	0.000000e+00	0.000000e+00	5.171738e+001	0.000000e+00	0	0	14.250	14.250
3	CO2	1.996	1311293	626382	329.099	Linear	0.000000e+00	0.000000e+00	3.984494e+003	0.000000e+00	0	0	52.587	52.587
4	Ethylene	0.000	0	0	0.000	Linear	0.000000e+00	0.000000e+00	0.000000e+00	0.000000e+00	0	0	0.000	0.000
5	Acetylene	0.000	0	0	0.000	Linear	0.000000e+00	0.000000e+00	0.000000e+00	0.000000e+00	0	0	0.000	0.000
6	Ethane	0.000	0	0	0.000	Linear	0.000000e+00	0.000000e+00	0.000000e+00	0.000000e+00	0	0	0.000	0.000

[Compound Results(Ch2)]
# of IDs	5
ID#	Name	R.Time	Area	Height	Conc.	Curve	3rd	2nd	1st	Constant	Area Ratio	Height Ratio	Conc. %	Norm Conc.
1	Hydrogen	0.000	0	0	0.000	Linear	0.000000e+00	0.000000e+00	0.000000e+00	0.000000e+00	0	0	0.000	0.000
2	Oxygen	0.000	0	0	0.000	Linear	0.000000e+00	0.000000e+00	0.000000e+00	0.000000e+00	0	0	0.000	0.000
3	Nitrogen	0.000	0	0	0.000	Linear	0.000000e+00	0.000000e+00	0.000000e+00	0.000000e+00	0	0	0.000	0.000
4	Methane	0.000	0	0	0.000	Linear	0.000000e+00	0.000000e+00	0.000000e+00	0.000000e+00	0	0	0.000	0.000
5	Carbon Monoxide	0.000	0	0	0.000	Linear	0.000000e+00	0.000000e+00	0.000000e+00	0.000000e+00	0	0	0.000	0.000

[Compound Results(Ch3)]
# of IDs	2
ID#	Name	R.Time	Area	Height	Conc.	Curve	3rd	2nd	1st	Constant	Area Ratio	Height Ratio	Conc. %	Norm Conc.
1	N2O	2.876	18298	4817	0.467	Linear	0.000000e+00	0.000000e+00	3.915173e+004	0.000000e+00	0	0	100.000	100.000
2	SF6	0.000	0	0	0.000	Linear	0.000000e+00	0.000000e+00	0.000000e+00	0.000000e+00	0	0	0.000	0.000

[Group Results(Ch1)]
# of Groups	0

[Group Results(Ch2)]
# of Groups	0

[Group Results(Ch3)]
# of Groups	0

[Chromatogram (Ch1)]
Interval(msec)	220
# of Points	1091
Start Time(min)	0.002
End Time(min)	3.998
R.Time (min)	Intensity
0.00167	-21
0.00533	-24
0.00900	-29
0.01267	-31
0.01633	-30
0.02000	-26
0.02367	-22
0.02733	-19
0.03100	-14
0.03467	-5
0.03833	7
0.04200	16
0.04567	16
0.04933	10
0.05300	5
0.05667	4
0.06033	4
0.06400	4
0.06767	7
0.07133	11
0.07500	15
0.07867	21
0.08233	25
0.08600	23
0.08967	16
0.09333	10
0.09700	5
0.10067	2
0.10433	1
0.10800	-1
0.11167	-3
0.11533	2
0.11900	13
0.12267	18
0.12633	18
0.13000	18
0.13367	19
0.13733	19
0.14100	17
0.14467	17
0.14833	18
0.15200	20
0.15567	20
0.15933	19
0.16300	20
0.16667	22
0.17033	28
0.17400	36
0.17767	40
0.18133	42
0.18500	44
0.18867	45
0.19233	45
0.19600	44
0.19967	45
0.20333	38
0.20700	25
0.21067	12
0.21433	5
0.21800	2
0.22167	2
0.22533	11
0.22900	26
0.23267	38
0.23633	39
0.24000	32
0.24367	22
0.24733	12
0.25100	2
0.25467	-5
0.25833	-8
0.26200	-8
0.26567	-5
0.26933	1
0.27300	9
0.27667	17
0.28033	24
0.28400	28
0.28767	23
0.29133	9
0.29500	-0
0.29867	-6
0.30233	-9
0.30600	-12
0.30967	-10
0.31333	-5
0.31700	-1
0.32067	3
0.32433	10
0.32800	18
0.33167	25
0.33533	27
0.33900	24
0.34267	21
0.34633	24
0.35000	29
0.35367	34
0.35733	37
0.36100	34
0.36467	30
0.36833	28
0.37200	31
0.37567	34
0.37933	36
0.38300	34
0.38667	26
0.39033	14
0.39400	2
0.39767	-8
0.40133	-12
0.40500	-12
0.40867	-12
0.41233	-9
0.41600	-4
0.41967	1
0.42333	8
0.42700	16
0.43067	18
0.43433	19
0.43800	23
0.44167	28
0.44533	27
0.44900	25
0.45267	23
0.45633	25
0.46000	30
0.46367	36
0.46733	40
0.47100	43
0.47467	42
0.47833	40
0.48200	38
0.48567	32
0.48933	27
0.49300	25
0.49667	24
0.50033	24
0.50400	25
0.50767	28
0.51133	30
0.51500	31
0.51867	22
0.52233	8
0.52600	-4
0.52967	-7
0.53333	-8
0.53700	-6
0.54067	-1
0.54433	3
0.54800	6
0.55167	6
0.55533	6
0.55900	8
0.56267	12
0.56633	16
0.57000	19
0.57367	24
0.57733	29
0.58100	31
0.58467	27
0.58833	19
0.59200	12
0.59567	8
0.59933	4
0.60300	2
0.60667	2
0.61033	2
0.61400	-0
0.61767	1
0.62133	2
0.62500	3
0.62867	8
0.63233	17
0.63600	22
0.63967	25
0.64333	29
0.64700	31
0.65067	27
0.65433	22
0.65800	12
0.66167	1
0.66533	-3
0.66900	-1
0.67267	4
0.67633	7
0.68000	4
0.68367	-1
0.68733	-3
0.69100	-9
0.69467	-12
0.69833	-11
0.70200	-9
0.70567	-5
0.70933	-1
0.71300	2
0.71667	-5
0.72033	-13
0.72400	-15
0.72767	-8
0.73133	6
0.73500	18
0.73867	27
0.74233	32
0.74600	29
0.74967	16
0.75333	1
0.75700	-9
0.76067	-16
0.76433	-15
0.76800	-10
0.77167	-3
0.77533	2
0.77900	-1
0.78267	-6
0.78633	-9
0.79000	-8
0.79367	-7
0.79733	-4
0.80100	-1
0.80467	1
0.80833	-1
0.81200	-3
0.81567	-6
0.81933	-9
0.82300	-12
0.82667	-11
0.83033	-2
0.83400	9
0.83767	13
0.84133	13
0.84500	7
0.84867	-5
0.85233	-12
0.85600	-16
0.85967	-14
0.86333	-10
0.86700	-6
0.87067	-6
0.87433	-8
0.87800	-8
0.88167	-5
0.88533	-3
0.88900	-3
0.89267	-4
0.89633	-6
0.90000	-11
0.90367	-15
0.90733	-15
0.91100	-17
0.91467	-16
0.91833	-10
0.92200	-5
0.92567	-7
0.92933	-9
0.93300	-11
0.93667	-13
0.94033	-14
0.94400	-12
0.94767	-9
0.95133	-5
0.95500	2
0.95867	8
0.96233	8
0.96600	2
0.96967	-4
0.97333	-8
0.97700	-12
0.98067	-15
0.98433	-12
0.98800	-3
0.99167	7
0.99533	12
0.99900	9
1.00267	-2
1.00633	-13
1.01000	-22
1.01367	-29
1.01733	-34
1.02100	-34
1.02467	-28
1.02833	-23
1.03200	-22
1.03567	-19
1.03933	-15
1.04300	-13
1.04667	-13
1.05033	-12
1.05400	-6
1.05767	1
1.06133	6
1.06500	11
1.06867	17
1.07233	24
1.07600	23
1.07967	16
1.08333	8
1.08700	3
1.09067	-0
1.09433	-6
1.09800	-11
1.10167	-10
1.10533	-7
1.10900	-3
1.11267	0
1.11633	2
1.12000	0
1.12367	-3
1.12733	-5
1.13100	-2
1.13467	8
1.13833	15
1.14200	16
1.14567	13
1.14933	12
1.15300	14
1.15667	19
1.16033	25
1.16400	28
1.16767	25
1.17133	23
1.17500	22
1.17867	21
1.18233	18
1.18600	14
1.18967	7
1.19333	4
1.19700	3
1.20067	-1
1.20433	-9
1.20800	-14
1.21167	-16
1.21533	-17
1.21900	-18
1.22267	-12
1.22633	-1
1.23000	6
1.23367	13
1.23733	17
1.24100	20
1.24467	18
1.24833	11
1.25200	4
1.25567	-1
1.25933	-4
1.26300	-5
1.26667	-2
1.27033	2
1.27400	5
1.27767	9
1.28133	11
1.28500	11
1.28867	11
1.29233	11
1.29600	10
1.29967	12
1.30333	17
1.30700	18
1.31067	14
1.31433	8
1.31800	2
1.32167	-1
1.32533	-1
1.32900	2
1.33267	4
1.33633	3
1.34000	-1
1.34367	-7
1.34733	-11
1.35100	-11
1.35467	-10
1.35833	-11
1.36200	-10
1.36567	-6
1.36933	-1
1.37300	2
1.37667	2
1.38033	-1
1.38400	-6
1.38767	-13
1.39133	-20
1.39500	-22
1.39867	-18
1.40233	-13
1.40600	-10
1.40967	-8
1.41333	-7
1.41700	-10
1.42067	-11
1.42433	-13
1.42800	-12
1.43167	-4
1.43533	6
1.43900	34
1.44267	139
1.44633	399
1.45000	1070
1.45367	2586
1.45733	4968
1.46100	7709
1.46467	10249
1.46833	12258
1.47200	13570
1.47567	14042
1.47933	13577
1.48300	12230
1.48667	10286
1.49033	8151
1.49400	6169
1.49767	4527
1.50133	3265
1.50500	2338
1.50867	1678
1.51233	1215
1.51600	891
1.51967	668
1.52333	516
1.52700	414
1.53067	336
1.53433	279
1.53800	254
1.54167	300
1.54533	476
1.54900	796
1.55267	1202
1.55633	1600
1.56000	1930
1.56367	2162
1.56733	2267
1.57100	2210
1.57467	1995
1.57833	1668
1.58200	1305
1.58567	972
1.58933	702
1.59300	496
1.59667	345
1.60033	242
1.60400	171
1.60767	121
1.61133	85
1.61500	61
1.61867	42
1.62233	28
1.62600	20
1.62967	18
1.63333	17
1.63700	12
1.64067	6
1.64433	0
1.64800	-3
1.65167	-0
1.65533	9
1.65900	17
1.66267	21
1.66633	24
1.67000	24
1.67367	21
1.67733	18
1.68100	13
1.68467	11
1.68833	10
1.69200	10
1.69567	11
1.69933	11
1.70300	8
1.70667	7
1.71033	11
1.71400	12
1.71767	12
1.72133	12
1.72500	15
1.72867	18
1.73233	18
1.73600	20
1.73967	25
1.74333	28
1.74700	28
1.75067	27
1.75433	26
1.75800	20
1.76167	9
1.76533	-5
1.76900	-19
1.77267	-29
1.77633	-35
1.78000	-36
1.78367	-32
1.78733	-25
1.79100	-16
1.79467	-9
1.79833	-6
1.80200	-8
1.80567	-14
1.80933	-13
1.81300	-11
1.81667	-9
1.82033	-6
1.82400	-5
1.82767	-7
1.83133	-12
1.83500	-19
1.83867	-23
1.84233	-23
1.84600	-20
1.84967	-12
1.85333	-8
1.85700	-10
1.86067	-13
1.86433	-13
1.86800	-11
1.87167	-9
1.87533	-5
1.87900	-0
1.88267	4
1.88633	5
1.89000	-2
1.89367	-9
1.89733	-18
1.90100	-24
1.90467	-28
1.90833	-28
1.91200	-26
1.91567	-23
1.91933	-17
1.92300	-6
1.92667	3
1.93033	5
1.93400	2
1.93767	-1
1.94133	-2
1.94500	0
1.94867	10
1.95233	36
1.95600	173
1.95967	947
1.96333	4330
1.96700	15532
1.97067	44042
1.97433	100613
1.97800	189536
1.98167	302605
1.98533	421290
1.98900	524883
1.99267	596723
1.99633	626423
2.00000	610867
2.00367	555097
2.00733	471903
2.01100	377883
2.01467	287779
2.01833	210806
2.02200	150293
2.02567	105470
2.02933	73616
2.03300	51591
2.03667	36616
2.04033	26508
2.04400	19682
2.04767	15047
2.05133	11866
2.05500	9645
2.05867	8061
2.06233	6899
2.06600	6026
2.06967	5353
2.07333	4815
2.07700	4374
2.08067	4003
2.08433	3692
2.08800	3432
2.09167	3212
2.09533	3017
2.09900	2841
2.10267	2682
2.10633	2538
2.11000	2412
2.11367	2299
2.11733	2194
2.12100	2095
2.12467	2004
2.12833	1923
2.13200	1848
2.13567	1776
2.13933	1709
2.14300	1645
2.14667	1590
2.15033	1537
2.15400	1486
2.15767	1436
2.16133	1390
2.16500	1346
2.16867	1305
2.17233	1266
2.17600	1234
2.17967	1203
2.18333	1171
2.18700	1140
2.19067	1113
2.19433	1082
2.19800	1048
2.20167	1013
2.20533	985
2.20900	963
2.21267	944
2.21633	924
2.22000	906
2.22367	892
2.22733	873
2.23100	852
2.23467	834
2.23833	818
2.24200	801
2.24567	787
2.24933	777
2.25300	767
2.25667	753
2.26033	737
2.26400	724
2.26767	714
2.27133	703
2.27500	689
2.27867	673
2.28233	658
2.28600	648
2.28967	637
2.29333	628
2.29700	625
2.30067	624
2.30433	623
2.30800	619
2.31167	615
2.31533	609
2.31900	599
2.32267	582
2.32633	561
2.33000	543
2.33367	531
2.33733	526
2.34100	525
2.34467	523
2.34833	517
2.35200	513
2.35567	508
2.35933	501
2.36300	495
2.36667	485
2.37033	476
2.37400	474
2.37767	478
2.38133	484
2.38500	488
2.38867	491
2.39233	491
2.39600	487
2.39967	477
2.40333	462
2.40700	449
2.41067	442
2.41433	440
2.41800	438
2.42167	431
2.42533	427
2.42900	428
2.43267	431
2.43633	431
2.44000	429
2.44367	420
2.44733	409
2.45100	400
2.45467	392
2.45833	388
2.46200	388
2.46567	391
2.46933	392
2.47300	393
2.47667	392
2.48033	385
2.48400	378
2.48767	375
2.49133	375
2.49500	375
2.49867	374
2.50233	374
2.50600	369
2.50967	361
2.51333	350
2.51700	346
2.52067	351
2.52433	361
2.52800	370
2.53167	373
2.53533	374
2.53900	373
2.54267	374
2.54633	372
2.55000	371
2.55367	369
2.55733	370
2.56100	371
2.56467	369
2.56833	364
2.57200	357
2.57567	349
2.57933	344
2.58300	344
2.58667	347
2.59033	353
2.59400	362
2.59767	369
2.60133	374
2.60500	371
2.60867	360
2.61233	345
2.61600	333
2.61967	324
2.62333	315
2.62700	311
2.63067	314
2.63433	321
2.63800	327
2.64167	332
2.64533	333
2.64900	334
2.65267	337
2.65633	342
2.66000	349
2.66367	355
2.66733	357
2.67100	357
2.67467	353
2.67833	346
2.68200	336
2.68567	327
2.68933	326
2.69300	330
2.69667	332
2.70033	335
2.70400	339
2.70767	343
2.71133	348
2.71500	357
2.71867	360
2.72233	359
2.72600	356
2.72967	353
2.73333	350
2.73700	343
2.74067	335
2.74433	330
2.74800	331
2.75167	336
2.75533	340
2.75900	341
2.76267	341
2.76633	339
2.77000	340
2.77367	339
2.77733	336
2.78100	333
2.78467	332
2.78833	335
2.79200	339
2.79567	343
2.79933	342
2.80300	337
2.80667	332
2.81033	326
2.81400	320
2.81767	314
2.82133	311
2.82500	314
2.82867	319
2.83233	320
2.83600	319
2.83967	319
2.84333	322
2.84700	325
2.85067	325
2.85433	324
2.85800	326
2.86167	329
2.86533	333
2.86900	333
2.87267	330
2.87633	330
2.88000	337
2.88367	345
2.88733	348
2.89100	345
2.89467	338
2.89833	330
2.90200	322
2.90567	315
2.90933	313
2.91300	315
2.91667	317
2.92033	320
2.92400	324
2.92767	330
2.93133	336
2.93500	339
2.93867	339
2.94233	338
2.94600	337
2.94967	336
2.95333	336
2.95700	341
2.96067	346
2.96433	343
2.96800	336
2.97167	333
2.97533	336
2.97900	336
2.98267	330
2.98633	323
2.99000	319
2.99367	319
2.99733	324
3.00100	327
3.00467	330
3.00833	336
3.01200	341
3.01567	342
3.01933	340
3.02300	336
3.02667	332
3.03033	327
3.03400	321
3.03767	315
3.04133	315
3.04500	320
3.04867	327
3.05233	329
3.05600	331
3.05967	329
3.06333	326
3.06700	324
3.07067	322
3.07433	321
3.07800	326
3.08167	332
3.08533	336
3.08900	333
3.09267	326
3.09633	320
3.10000	316
3.10367	316
3.10733	319
3.11100	322
3.11467	324
3.11833	326
3.12200	322
3.12567	317
3.12933	313
3.13300	311
3.13667	310
3.14033	311
3.14400	311
3.14767	307
3.15133	303
3.15500	302
3.15867	304
3.16233	311
3.16600	318
3.16967	323
3.17333	327
3.17700	325
3.18067	319
3.18433	312
3.18800	305
3.19167	302
3.19533	301
3.19900	303
3.20267	307
3.20633	310
3.21000	313
3.21367	316
3.21733	319
3.22100	319
3.22467	315
3.22833	312
3.23200	311
3.23567	313
3.23933	314
3.24300	310
3.24667	305
3.25033	305
3.25400	308
3.25767	309
3.26133	310
3.26500	311
3.26867	310
3.27233	311
3.27600	313
3.27967	313
3.28333	311
3.28700	307
3.29067	302
3.29433	297
3.29800	290
3.30167	284
3.30533	281
3.30900	283
3.31267	286
3.31633	287
3.32000	285
3.32367	283
3.32733	284
3.33100	287
3.33467	290
3.33833	289
3.34200	288
3.34567	288
3.34933	292
3.35300	298
3.35667	298
3.36033	295
3.36400	292
3.36767	292
3.37133	297
3.37500	304
3.37867	311
3.38233	311
3.38600	306
3.38967	298
3.39333	288
3.39700	281
3.40067	282
3.40433	284
3.40800	290
3.41167	290
3.41533	286
3.41900	283
3.42267	280
3.42633	278
3.43000	280
3.43367	283
3.43733	281
3.44100	274
3.44467	265
3.44833	262
3.45200	259
3.45567	255
3.45933	254
3.46300	258
3.46667	263
3.47033	273
3.47400	285
3.47767	294
3.48133	296
3.48500	294
3.48867	286
3.49233	281
3.49600	281
3.49967	284
3.50333	285
3.50700	281
3.51067	277
3.51433	272
3.51800	267
3.52167	259
3.52533	250
3.52900	248
3.53267	253
3.53633	260
3.54000	265
3.54367	269
3.54733	272
3.55100	275
3.55467	279
3.55833	285
3.56200	289
3.56567	294
3.56933	295
3.57300	289
3.57667	279
3.58033	268
3.58400	262
3.58767	260
3.59133	258
3.59500	259
3.59867	259
3.60233	260
3.60600	263
3.60967	269
3.61333	272
3.61700	271
3.62067	265
3.62433	255
3.62800	245
3.63167	239
3.63533	239
3.63900	242
3.64267	248
3.64633	250
3.65000	252
3.65367	252
3.65733	251
3.66100	245
3.66467	236
3.66833	230
3.67200	229
3.67567	227
3.67933	225
3.68300	223
3.68667	218
3.69033	215
3.69400	220
3.69767	226
3.70133	224
3.70500	217
3.70867	212
3.71233	209
3.71600	208
3.71967	210
3.72333	215
3.72700	220
3.73067	223
3.73433	228
3.73800	238
3.74167	242
3.74533	240
3.74900	237
3.75267	235
3.75633	237
3.76000	243
3.76367	251
3.76733	255
3.77100	257
3.77467	259
3.77833	258
3.78200	250
3.78567	243
3.78933	238
3.79300	241
3.79667	247
3.80033	251
3.80400	251
3.80767	245
3.81133	236
3.81500	227
3.81867	218
3.82233	210
3.82600	205
3.82967	203
3.83333	204
3.83700	204
3.84067	202
3.84433	201
3.84800	202
3.85167	208
3.85533	217
3.85900	224
3.86267	227
3.86633	225
3.87000	218
3.87367	211
3.87733	205
3.88100	204
3.88467	204
3.88833	204
3.89200	204
3.89567	203
3.89933	200
3.90300	198
3.90667	198
3.91033	195
3.91400	191
3.91767	187
3.92133	186
3.92500	186
3.92867	187
3.93233	191
3.93600	197
3.93967	197
3.94333	196
3.94700	196
3.95067	197
3.95433	198
3.95800	198
3.96167	200
3.96533	206
3.96900	213
3.97267	215
3.97633	214
3.98000	214
3.98367	212
3.98733	203
3.99100	194
3.99467	191
3.99833	191

[Chromatogram (Ch2)]
Interval(msec)	220
# of Points	1091
Start Time(min)	0.002
End Time(min)	3.998
R.Time (min)	Intensity
0.00167	1
0.00533	1
0.00900	1
0.01267	1
0.01633	1
0.02000	1
0.02367	1
0.02733	1
0.03100	1
0.03467	1
0.03833	1
0.04200	1
0.04567	1
0.04933	1
0.05300	1
0.05667	0
0.06033	0
0.06400	-0
0.06767	-1
0.07133	-1
0.07500	-1
0.07867	-1
0.08233	-1
0.08600	-0
0.08967	0
0.09333	0
0.09700	1
0.10067	1
0.10433	2
0.10800	2
0.11167	2
0.11533	2
0.11900	2
0.12267	2
0.12633	2
0.13000	2
0.13367	2
0.13733	2
0.14100	2
0.14467	2
0.14833	1
0.15200	1
0.15567	1
0.15933	1
0.16300	1
0.16667	1
0.17033	0
0.17400	0
0.17767	-0
0.18133	-0
0.18500	-0
0.18867	-1
0.19233	-1
0.19600	-0
0.19967	-0
0.20333	0
0.20700	0
0.21067	0
0.21433	0
0.21800	0
0.22167	0
0.22533	0
0.22900	0
0.23267	-0
0.23633	-0
0.24000	-0
0.24367	-1
0.24733	-1
0.25100	-1
0.25467	-1
0.25833	-1
0.26200	-1
0.26567	-1
0.26933	-1
0.27300	-0
0.27667	-0
0.28033	0
0.28400	0
0.28767	1
0.29133	1
0.29500	2
0.29867	2
0.30233	3
0.30600	3
0.30967	3
0.31333	3
0.31700	3
0.32067	3
0.32433	3
0.32800	3
0.33167	3
0.33533	3
0.33900	2
0.34267	2
0.34633	1
0.35000	1
0.35367	1
0.35733	1
0.36100	1
0.36467	1
0.36833	1
0.37200	1
0.37567	1
0.37933	1
0.38300	1
0.38667	0
0.39033	0
0.39400	0
0.39767	-0
0.40133	-1
0.40500	-1
0.40867	-1
0.41233	-1
0.41600	-2
0.41967	-2
0.42333	-2
0.42700	-2
0.43067	-2
0.43433	-2
0.43800	-2
0.44167	-2
0.44533	-2
0.44900	-2
0.45267	-2
0.45633	-2
0.46000	-3
0.46367	-3
0.46733	-3
0.47100	-3
0.47467	-3
0.47833	-3
0.48200	-3
0.48567	-3
0.48933	-3
0.49300	-3
0.49667	-3
0.50033	-3
0.50400	-3
0.50767	-3
0.51133	-2
0.51500	-2
0.51867	-2
0.52233	-1
0.52600	-1
0.52967	-0
0.53333	-0
0.53700	0
0.54067	0
0.54433	1
0.54800	1
0.55167	1
0.55533	1
0.55900	1
0.56267	1
0.56633	1
0.57000	1
0.57367	1
0.57733	1
0.58100	1
0.58467	0
0.58833	0
0.59200	0
0.59567	0
0.59933	0
0.60300	0
0.60667	0
0.61033	0
0.61400	0
0.61767	0
0.62133	0
0.62500	1
0.62867	1
0.63233	1
0.63600	1
0.63967	1
0.64333	1
0.64700	1
0.65067	1
0.65433	1
0.65800	1
0.66167	1
0.66533	1
0.66900	1
0.67267	1
0.67633	1
0.68000	1
0.68367	1
0.68733	0
0.69100	0
0.69467	-0
0.69833	-0
0.70200	-0
0.70567	-0
0.70933	-0
0.71300	-1
0.71667	-1
0.72033	-1
0.72400	-1
0.72767	-1
0.73133	-1
0.73500	-1
0.73867	-1
0.74233	-1
0.74600	-1
0.74967	-1
0.75333	-1
0.75700	-0
0.76067	-0
0.76433	-0
0.76800	0
0.77167	0
0.77533	0
0.77900	0
0.78267	0
0.78633	0
0.79000	0
0.79367	0
0.79733	-0
0.80100	0
0.80467	0
0.80833	0
0.81200	0
0.81567	0
0.81933	0
0.82300	0
0.82667	0
0.83033	0
0.83400	0
0.83767	0
0.84133	0
0.84500	0
0.84867	1
0.85233	1
0.85600	1
0.85967	1
0.86333	2
0.86700	2
0.87067	2
0.87433	2
0.87800	3
0.88167	3
0.88533	3
0.88900	3
0.89267	3
0.89633	2
0.90000	2
0.90367	2
0.90733	1
0.91100	1
0.91467	1
0.91833	0
0.92200	0
0.92567	-0
0.92933	-1
0.93300	-1
0.93667	-1
0.94033	-1
0.94400	-2
0.94767	-2
0.95133	-1
0.95500	-1
0.95867	-1
0.96233	-1
0.96600	-1
0.96967	-1
0.97333	-1
0.97700	-1
0.98067	-0
0.98433	-0
0.98800	0
0.99167	0
0.99533	0
0.99900	-0
1.00267	-0
1.00633	-0
1.01000	-0
1.01367	-0
1.01733	-0
1.02100	-0
1.02467	-1
1.02833	-1
1.03200	-1
1.03567	-2
1.03933	-2
1.04300	-3
1.04667	-3
1.05033	-4
1.05400	-4
1.05767	-4
1.06133	-5
1.06500	-5
1.06867	-5
1.07233	-5
1.07600	-5
1.07967	-5
1.08333	-5
1.08700	-5
1.09067	-5
1.09433	-5
1.09800	-5
1.10167	-5
1.10533	-5
1.10900	-5
1.11267	-5
1.11633	-5
1.12000	-5
1.12367	-4
1.12733	-4
1.13100	-3
1.13467	-3
1.13833	-2
1.14200	-2
1.14567	-1
1.14933	-1
1.15300	-1
1.15667	-1
1.16033	-1
1.16400	-1
1.16767	-1
1.17133	-0
1.17500	-0
1.17867	-0
1.18233	-0
1.18600	-0
1.18967	-0
1.19333	-0
1.19700	-1
1.20067	-1
1.20433	-2
1.20800	-2
1.21167	-3
1.21533	-3
1.21900	-3
1.22267	-3
1.22633	-3
1.23000	-3
1.23367	-3
1.23733	-3
1.24100	-3
1.24467	-3
1.24833	-3
1.25200	-3
1.25567	-3
1.25933	-3
1.26300	-3
1.26667	-3
1.27033	-4
1.27400	-4
1.27767	-3
1.28133	-3
1.28500	-3
1.28867	-3
1.29233	-3
1.29600	-3
1.29967	-3
1.30333	-3
1.30700	-3
1.31067	-3
1.31433	-3
1.31800	-3
1.32167	-3
1.32533	-3
1.32900	-4
1.33267	-4
1.33633	-4
1.34000	-4
1.34367	-3
1.34733	-3
1.35100	-3
1.35467	-3
1.35833	-3
1.36200	-3
1.36567	-4
1.36933	-4
1.37300	-4
1.37667	-4
1.38033	-3
1.38400	-3
1.38767	-3
1.39133	-3
1.39500	-2
1.39867	-2
1.40233	-1
1.40600	-1
1.40967	-1
1.41333	-1
1.41700	-1
1.42067	-1
1.42433	-1
1.42800	-1
1.43167	-1
1.43533	-1
1.43900	-0
1.44267	-0
1.44633	-0
1.45000	-1
1.45367	-1
1.45733	-1
1.46100	-2
1.46467	-2
1.46833	-2
1.47200	-2
1.47567	-2
1.47933	-2
1.48300	-2
1.48667	-2
1.49033	-1
1.49400	-1
1.49767	-0
1.50133	-0
1.50500	0
1.50867	1
1.51233	1
1.51600	0
1.51967	0
1.52333	-0
1.52700	-0
1.53067	-1
1.53433	-1
1.53800	-1
1.54167	-2
1.54533	-2
1.54900	-3
1.55267	-3
1.55633	-3
1.56000	-4
1.56367	-4
1.56733	-4
1.57100	-4
1.57467	-5
1.57833	-5
1.58200	-5
1.58567	-5
1.58933	-5
1.59300	-6
1.59667	-6
1.60033	-6
1.60400	-7
1.60767	-8
1.61133	-10
1.61500	-11
1.61867	-13
1.62233	-15
1.62600	-18
1.62967	-21
1.63333	-24
1.63700	-26
1.64067	-30
1.64433	-33
1.64800	-36
1.65167	-40
1.65533	-44
1.65900	-48
1.66267	-52
1.66633	-56
1.67000	-61
1.67367	-67
1.67733	-72
1.68100	-78
1.68467	-83
1.68833	-88
1.69200	-92
1.69567	-96
1.69933	-99
1.70300	-102
1.70667	-104
1.71033	-105
1.71400	-107
1.71767	-108
1.72133	-108
1.72500	-108
1.72867	-108
1.73233	-108
1.73600	-108
1.73967	-108
1.74333	-108
1.74700	-107
1.75067	-107
1.75433	-107
1.75800	-106
1.76167	-106
1.76533	-106
1.76900	-106
1.77267	-107
1.77633	-108
1.78000	-109
1.78367	-111
1.78733	-112
1.79100	-113
1.79467	-114
1.79833	-115
1.80200	-115
1.80567	-115
1.80933	-115
1.81300	-115
1.81667	-114
1.82033	-114
1.82400	-115
1.82767	-115
1.83133	-116
1.83500	-116
1.83867	-116
1.84233	-116
1.84600	-115
1.84967	-115
1.85333	-115
1.85700	-115
1.86067	-116
1.86433	-116
1.86800	-116
1.87167	-117
1.87533	-117
1.87900	-116
1.88267	-116
1.88633	-115
1.89000	-115
1.89367	-114
1.89733	-114
1.90100	-114
1.90467	-114
1.90833	-114
1.91200	-114
1.91567	-113
1.91933	-113
1.92300	-112
1.92667	-112
1.93033	-111
1.93400	-110
1.93767	-110
1.94133	-110
1.94500	-110
1.94867	-110
1.95233	-110
1.95600	-110
1.95967	-110
1.96333	-110
1.96700	-110
1.97067	-110
1.97433	-110
1.97800	-110
1.98167	-109
1.98533	-109
1.98900	-109
1.99267	-109
1.99633	-108
2.00000	-108
2.00367	-107
2.00733	-107
2.01100	-107
2.01467	-107
2.01833	-107
2.02200	-107
2.02567	-106
2.02933	-106
2.03300	-105
2.03667	-104
2.04033	-104
2.04400	-103
2.04767	-103
2.05133	-103
2.05500	-103
2.05867	-102
2.06233	-102
2.06600	-102
2.06967	-102
2.07333	-102
2.07700	-102
2.08067	-102
2.08433	-102
2.08800	-101
2.09167	-100
2.09533	-99
2.09900	-98
2.10267	-97
2.10633	-97
2.11000	-97
2.11367	-97
2.11733	-98
2.12100	-98
2.12467	-98
2.12833	-98
2.13200	-97
2.13567	-97
2.13933	-97
2.14300	-96
2.14667	-96
2.15033	-95
2.15400	-95
2.15767	-95
2.16133	-96
2.16500	-96
2.16867	-96
2.17233	-96
2.17600	-96
2.17967	-95
2.18333	-94
2.18700	-94
2.19067	-93
2.19433	-93
2.19800	-92
2.20167	-92
2.20533	-91
2.20900	-91
2.21267	-90
2.21633	-90
2.22000	-89
2.22367	-88
2.22733	-88
2.23100	-87
2.23467	-87
2.23833	-86
2.24200	-86
2.24567	-85
2.24933	-84
2.25300	-84
2.25667	-84
2.26033	-84
2.26400	-84
2.26767	-85
2.27133	-85
2.27500	-85
2.27867	-85
2.28233	-85
2.28600	-84
2.28967	-83
2.29333	-83
2.29700	-82
2.30067	-81
2.30433	-81
2.30800	-80
2.31167	-80
2.31533	-79
2.31900	-79
2.32267	-79
2.32633	-79
2.33000	-79
2.33367	-78
2.33733	-78
2.34100	-78
2.34467	-78
2.34833	-78
2.35200	-78
2.35567	-78
2.35933	-78
2.36300	-78
2.36667	-77
2.37033	-75
2.37400	-73
2.37767	-69
2.38133	-66
2.38500	-62
2.38867	-57
2.39233	-53
2.39600	-48
2.39967	-43
2.40333	-38
2.40700	-34
2.41067	-29
2.41433	-26
2.41800	-22
2.42167	-20
2.42533	-17
2.42900	-16
2.43267	-14
2.43633	-13
2.44000	-12
2.44367	-11
2.44733	-11
2.45100	-10
2.45467	-9
2.45833	-9
2.46200	-7
2.46567	-6
2.46933	-4
2.47300	-3
2.47667	-2
2.48033	-1
2.48400	0
2.48767	1
2.49133	2
2.49500	3
2.49867	4
2.50233	5
2.50600	6
2.50967	6
2.51333	7
2.51700	9
2.52067	10
2.52433	11
2.52800	12
2.53167	12
2.53533	13
2.53900	13
2.54267	13
2.54633	14
2.55000	14
2.55367	15
2.55733	15
2.56100	15
2.56467	15
2.56833	16
2.57200	16
2.57567	16
2.57933	16
2.58300	16
2.58667	16
2.59033	16
2.59400	16
2.59767	17
2.60133	17
2.60500	17
2.60867	18
2.61233	18
2.61600	17
2.61967	17
2.62333	16
2.62700	16
2.63067	15
2.63433	15
2.63800	14
2.64167	14
2.64533	14
2.64900	14
2.65267	14
2.65633	15
2.66000	16
2.66367	16
2.66733	17
2.67100	18
2.67467	18
2.67833	18
2.68200	19
2.68567	19
2.68933	19
2.69300	20
2.69667	20
2.70033	21
2.70400	21
2.70767	22
2.71133	22
2.71500	23
2.71867	24
2.72233	25
2.72600	25
2.72967	25
2.73333	25
2.73700	25
2.74067	25
2.74433	24
2.74800	24
2.75167	24
2.75533	23
2.75900	23
2.76267	23
2.76633	23
2.77000	23
2.77367	24
2.77733	24
2.78100	25
2.78467	25
2.78833	26
2.79200	26
2.79567	26
2.79933	27
2.80300	27
2.80667	27
2.81033	26
2.81400	26
2.81767	25
2.82133	25
2.82500	24
2.82867	24
2.83233	23
2.83600	23
2.83967	22
2.84333	20
2.84700	17
2.85067	11
2.85433	3
2.85800	-8
2.86167	-23
2.86533	-42
2.86900	-66
2.87267	-94
2.87633	-127
2.88000	-163
2.88367	-204
2.88733	-248
2.89100	-295
2.89467	-345
2.89833	-396
2.90200	-450
2.90567	-504
2.90933	-559
2.91300	-614
2.91667	-669
2.92033	-723
2.92400	-776
2.92767	-827
2.93133	-878
2.93500	-933
2.93867	-991
2.94233	-1044
2.94600	-1082
2.94967	-1097
2.95333	-1086
2.95700	-1051
2.96067	-997
2.96433	-929
2.96800	-852
2.97167	-772
2.97533	-692
2.97900	-615
2.98267	-541
2.98633	-473
2.99000	-411
2.99367	-355
2.99733	-306
3.00100	-262
3.00467	-224
3.00833	-190
3.01200	-161
3.01567	-136
3.01933	-115
3.02300	-96
3.02667	-81
3.03033	-67
3.03400	-55
3.03767	-46
3.04133	-37
3.04500	-30
3.04867	-23
3.05233	-18
3.05600	-13
3.05967	-9
3.06333	-5
3.06700	-2
3.07067	1
3.07433	3
3.07800	5
3.08167	6
3.08533	8
3.08900	9
3.09267	10
3.09633	11
3.10000	12
3.10367	13
3.10733	13
3.11100	14
3.11467	15
3.11833	15
3.12200	16
3.12567	16
3.12933	16
3.13300	17
3.13667	17
3.14033	17
3.14400	18
3.14767	18
3.15133	18
3.15500	18
3.15867	17
3.16233	17
3.16600	17
3.16967	17
3.17333	16
3.17700	16
3.18067	17
3.18433	17
3.18800	17
3.19167	17
3.19533	17
3.19900	17
3.20267	17
3.20633	17
3.21000	18
3.21367	18
3.21733	18
3.22100	19
3.22467	19
3.22833	19
3.23200	20
3.23567	20
3.23933	21
3.24300	21
3.24667	22
3.25033	22
3.25400	23
3.25767	23
3.26133	23
3.26500	23
3.26867	23
3.27233	23
3.27600	23
3.27967	23
3.28333	23
3.28700	23
3.29067	22
3.29433	22
3.29800	22
3.30167	22
3.30533	22
3.30900	22
3.31267	22
3.31633	22
3.32000	23
3.32367	23
3.32733	23
3.33100	23
3.33467	24
3.33833	24
3.34200	24
3.34567	25
3.34933	25
3.35300	25
3.35667	25
3.36033	26
3.36400	26
3.36767	26
3.37133	26
3.37500	26
3.37867	26
3.38233	26
3.38600	27
3.38967	26
3.39333	26
3.39700	26
3.40067	26
3.40433	26
3.40800	26
3.41167	26
3.41533	26
3.41900	26
3.42267	26
3.42633	26
3.43000	26
3.43367	26
3.43733	26
3.44100	26
3.44467	26
3.44833	26
3.45200	26
3.45567	26
3.45933	26
3.46300	27
3.46667	27
3.47033	27
3.47400	27
3.47767	27
3.48133	28
3.48500	28
3.48867	28
3.49233	28
3.49600	28
3.49967	28
3.50333	28
3.50700	28
3.51067	28
3.51433	28
3.51800	28
3.52167	28
3.52533	28
3.52900	28
3.53267	28
3.53633	28
3.54000	28
3.54367	28
3.54733	28
3.55100	27
3.55467	27
3.55833	27
3.56200	27
3.56567	26
3.56933	26
3.57300	26
3.57667	26
3.58033	26
3.58400	26
3.58767	26
3.59133	26
3.59500	25
3.59867	25
3.60233	25
3.60600	25
3.60967	25
3.61333	25
3.61700	26
3.62067	26
3.62433	26
3.62800	26
3.63167	26
3.63533	26
3.63900	27
3.64267	27
3.64633	27
3.65000	27
3.65367	27
3.65733	27
3.66100	28
3.66467	28
3.66833	28
3.67200	27
3.67567	27
3.67933	27
3.68300	27
3.68667	27
3.69033	27
3.69400	27
3.69767	28
3.70133	28
3.70500	28
3.70867	28
3.71233	28
3.71600	28
3.71967	28
3.72333	28
3.72700	28
3.73067	27
3.73433	27
3.73800	27
3.74167	27
3.74533	26
3.74900	26
3.75267	26
3.75633	26
3.76000	26
3.76367	26
3.76733	26
3.77100	26
3.77467	26
3.77833	26
3.78200	26
3.78567	26
3.78933	26
3.79300	26
3.79667	26
3.80033	26
3.80400	26
3.80767	26
3.81133	26
3.81500	26
3.81867	26
3.82233	26
3.82600	26
3.82967	26
3.83333	26
3.83700	26
3.84067	26
3.84433	26
3.84800	26
3.85167	26
3.85533	25
3.85900	25
3.86267	25
3.86633	25
3.87000	25
3.87367	25
3.87733	24
3.88100	24
3.88467	24
3.88833	24
3.89200	25
3.89567	25
3.89933	25
3.90300	25
3.90667	25
3.91033	25
3.91400	25
3.91767	25
3.92133	25
3.92500	25
3.92867	25
3.93233	25
3.93600	26
3.93967	26
3.94333	26
3.94700	26
3.95067	26
3.95433	26
3.95800	26
3.96167	26
3.96533	26
3.96900	26
3.97267	26
3.97633	26
3.98000	26
3.98367	25
3.98733	25
3.99100	26
3.99467	25
3.99833	25

[Chromatogram (Ch3)]
Interval(msec)	220
# of Points	1091
Start Time(min)	0.002
End Time(min)	3.998
R.Time (min)	Intensity
0.00167	-1
0.00533	-2
0.00900	-4
0.01267	-3
0.01633	-1
0.02000	0
0.02367	1
0.02733	2
0.03100	1
0.03467	1
0.03833	2
0.04200	2
0.04567	4
0.04933	5
0.05300	5
0.05667	6
0.06033	7
0.06400	7
0.06767	8
0.07133	7
0.07500	5
0.07867	4
0.08233	3
0.08600	6
0.08967	8
0.09333	7
0.09700	6
0.10067	5
0.10433	5
0.10800	3
0.11167	4
0.11533	5
0.11900	4
0.12267	3
0.12633	4
0.13000	6
0.13367	5
0.13733	5
0.14100	7
0.14467	8
0.14833	8
0.15200	9
0.15567	8
0.15933	9
0.16300	9
0.16667	7
0.17033	6
0.17400	7
0.17767	5
0.18133	3
0.18500	0
0.18867	-0
0.19233	0
0.19600	2
0.19967	4
0.20333	5
0.20700	4
0.21067	4
0.21433	3
0.21800	2
0.22167	2
0.22533	2
0.22900	2
0.23267	3
0.23633	3
0.24000	3
0.24367	2
0.24733	3
0.25100	7
0.25467	10
0.25833	10
0.26200	9
0.26567	7
0.26933	5
0.27300	5
0.27667	6
0.28033	7
0.28400	8
0.28767	8
0.29133	9
0.29500	11
0.29867	11
0.30233	9
0.30600	8
0.30967	8
0.31333	6
0.31700	7
0.32067	6
0.32433	5
0.32800	6
0.33167	6
0.33533	7
0.33900	7
0.34267	6
0.34633	7
0.35000	6
0.35367	5
0.35733	6
0.36100	7
0.36467	6
0.36833	5
0.37200	6
0.37567	7
0.37933	7
0.38300	8
0.38667	8
0.39033	7
0.39400	7
0.39767	8
0.40133	9
0.40500	9
0.40867	9
0.41233	10
0.41600	9
0.41967	8
0.42333	6
0.42700	7
0.43067	8
0.43433	8
0.43800	6
0.44167	6
0.44533	6
0.44900	5
0.45267	5
0.45633	5
0.46000	6
0.46367	9
0.46733	11
0.47100	11
0.47467	11
0.47833	11
0.48200	11
0.48567	11
0.48933	13
0.49300	13
0.49667	11
0.50033	10
0.50400	9
0.50767	8
0.51133	7
0.51500	7
0.51867	9
0.52233	9
0.52600	8
0.52967	6
0.53333	6
0.53700	6
0.54067	6
0.54433	5
0.54800	4
0.55167	5
0.55533	5
0.55900	6
0.56267	6
0.56633	6
0.57000	6
0.57367	6
0.57733	7
0.58100	8
0.58467	10
0.58833	10
0.59200	8
0.59567	7
0.59933	9
0.60300	10
0.60667	9
0.61033	8
0.61400	8
0.61767	8
0.62133	9
0.62500	10
0.62867	11
0.63233	12
0.63600	12
0.63967	11
0.64333	10
0.64700	10
0.65067	10
0.65433	11
0.65800	12
0.66167	11
0.66533	9
0.66900	10
0.67267	10
0.67633	11
0.68000	12
0.68367	14
0.68733	13
0.69100	14
0.69467	15
0.69833	15
0.70200	16
0.70567	17
0.70933	16
0.71300	15
0.71667	15
0.72033	14
0.72400	14
0.72767	14
0.73133	15
0.73500	17
0.73867	16
0.74233	15
0.74600	14
0.74967	13
0.75333	12
0.75700	12
0.76067	12
0.76433	12
0.76800	15
0.77167	17
0.77533	17
0.77900	16
0.78267	13
0.78633	12
0.79000	11
0.79367	13
0.79733	13
0.80100	13
0.80467	11
0.80833	10
0.81200	12
0.81567	14
0.81933	14
0.82300	12
0.82667	10
0.83033	10
0.83400	10
0.83767	10
0.84133	12
0.84500	14
0.84867	15
0.85233	16
0.85600	16
0.85967	16
0.86333	16
0.86700	14
0.87067	15
0.87433	16
0.87800	17
0.88167	18
0.88533	16
0.88900	15
0.89267	17
0.89633	19
0.90000	20
0.90367	19
0.90733	16
0.91100	12
0.91467	11
0.91833	11
0.92200	13
0.92567	16
0.92933	18
0.93300	17
0.93667	16
0.94033	16
0.94400	16
0.94767	16
0.95133	15
0.95500	15
0.95867	13
0.96233	12
0.96600	10
0.96967	11
0.97333	13
0.97700	15
0.98067	16
0.98433	16
0.98800	15
0.99167	15
0.99533	15
0.99900	15
1.00267	16
1.00633	16
1.01000	15
1.01367	15
1.01733	15
1.02100	13
1.02467	12
1.02833	14
1.03200	15
1.03567	14
1.03933	15
1.04300	16
1.04667	16
1.05033	15
1.05400	15
1.05767	15
1.06133	15
1.06500	16
1.06867	18
1.07233	18
1.07600	17
1.07967	16
1.08333	14
1.08700	14
1.09067	15
1.09433	15
1.09800	14
1.10167	16
1.10533	18
1.10900	19
1.11267	20
1.11633	18
1.12000	17
1.12367	17
1.12733	18
1.13100	19
1.13467	19
1.13833	20
1.14200	21
1.14567	22
1.14933	21
1.15300	20
1.15667	20
1.16033	19
1.16400	18
1.16767	18
1.17133	18
1.17500	17
1.17867	17
1.18233	18
1.18600	16
1.18967	16
1.19333	17
1.19700	16
1.20067	16
1.20433	17
1.20800	17
1.21167	18
1.21533	18
1.21900	17
1.22267	18
1.22633	19
1.23000	20
1.23367	19
1.23733	18
1.24100	19
1.24467	20
1.24833	20
1.25200	21
1.25567	21
1.25933	21
1.26300	20
1.26667	20
1.27033	21
1.27400	23
1.27767	24
1.28133	25
1.28500	25
1.28867	24
1.29233	24
1.29600	25
1.29967	25
1.30333	24
1.30700	22
1.31067	21
1.31433	20
1.31800	18
1.32167	16
1.32533	17
1.32900	18
1.33267	19
1.33633	19
1.34000	19
1.34367	19
1.34733	19
1.35100	20
1.35467	21
1.35833	21
1.36200	22
1.36567	22
1.36933	23
1.37300	22
1.37667	21
1.38033	20
1.38400	21
1.38767	21
1.39133	23
1.39500	23
1.39867	24
1.40233	23
1.40600	20
1.40967	22
1.41333	22
1.41700	23
1.42067	22
1.42433	23
1.42800	23
1.43167	22
1.43533	24
1.43900	26
1.44267	27
1.44633	26
1.45000	25
1.45367	26
1.45733	27
1.46100	28
1.46467	29
1.46833	28
1.47200	27
1.47567	24
1.47933	22
1.48300	23
1.48667	23
1.49033	24
1.49400	22
1.49767	22
1.50133	23
1.50500	25
1.50867	26
1.51233	27
1.51600	26
1.51967	26
1.52333	27
1.52700	25
1.53067	22
1.53433	22
1.53800	24
1.54167	25
1.54533	25
1.54900	28
1.55267	31
1.55633	30
1.56000	29
1.56367	26
1.56733	23
1.57100	23
1.57467	25
1.57833	26
1.58200	27
1.58567	28
1.58933	27
1.59300	26
1.59667	25
1.60033	25
1.60400	25
1.60767	27
1.61133	27
1.61500	27
1.61867	29
1.62233	30
1.62600	30
1.62967	30
1.63333	29
1.63700	25
1.64067	23
1.64433	22
1.64800	23
1.65167	27
1.65533	28
1.65900	30
1.66267	31
1.66633	32
1.67000	31
1.67367	31
1.67733	33
1.68100	36
1.68467	38
1.68833	37
1.69200	36
1.69567	37
1.69933	36
1.70300	38
1.70667	40
1.71033	44
1.71400	45
1.71767	46
1.72133	45
1.72500	44
1.72867	41
1.73233	39
1.73600	40
1.73967	41
1.74333	40
1.74700	39
1.75067	38
1.75433	37
1.75800	37
1.76167	34
1.76533	35
1.76900	38
1.77267	40
1.77633	42
1.78000	43
1.78367	43
1.78733	42
1.79100	43
1.79467	44
1.79833	44
1.80200	46
1.80567	47
1.80933	49
1.81300	48
1.81667	47
1.82033	50
1.82400	51
1.82767	51
1.83133	50
1.83500	50
1.83867	52
1.84233	54
1.84600	54
1.84967	56
1.85333	56
1.85700	54
1.86067	54
1.86433	52
1.86800	50
1.87167	52
1.87533	56
1.87900	58
1.88267	62
1.88633	62
1.89000	61
1.89367	61
1.89733	62
1.90100	62
1.90467	62
1.90833	63
1.91200	64
1.91567	66
1.91933	66
1.92300	65
1.92667	63
1.93033	63
1.93400	66
1.93767	67
1.94133	68
1.94500	69
1.94867	69
1.95233	68
1.95600	70
1.95967	72
1.96333	73
1.96700	73
1.97067	74
1.97433	74
1.97800	74
1.98167	72
1.98533	71
1.98900	72
1.99267	73
1.99633	75
2.00000	77
2.00367	78
2.00733	82
2.01100	83
2.01467	83
2.01833	84
2.02200	83
2.02567	83
2.02933	85
2.03300	86
2.03667	87
2.04033	87
2.04400	87
2.04767	88
2.05133	89
2.05500	92
2.05867	93
2.06233	94
2.06600	97
2.06967	101
2.07333	104
2.07700	106
2.08067	108
2.08433	110
2.08800	109
2.09167	107
2.09533	108
2.09900	111
2.10267	114
2.10633	117
2.11000	119
2.11367	118
2.11733	118
2.12100	119
2.12467	122
2.12833	125
2.13200	126
2.13567	127
2.13933	125
2.14300	126
2.14667	128
2.15033	129
2.15400	132
2.15767	134
2.16133	137
2.16500	140
2.16867	142
2.17233	142
2.17600	143
2.17967	146
2.18333	149
2.18700	152
2.19067	153
2.19433	153
2.19800	153
2.20167	154
2.20533	155
2.20900	155
2.21267	156
2.21633	157
2.22000	158
2.22367	161
2.22733	164
2.23100	167
2.23467	168
2.23833	170
2.24200	171
2.24567	173
2.24933	173
2.25300	173
2.25667	173
2.26033	173
2.26400	176
2.26767	178
2.27133	179
2.27500	180
2.27867	182
2.28233	184
2.28600	186
2.28967	188
2.29333	191
2.29700	193
2.30067	194
2.30433	195
2.30800	197
2.31167	198
2.31533	199
2.31900	203
2.32267	203
2.32633	203
2.33000	204
2.33367	208
2.33733	210
2.34100	213
2.34467	218
2.34833	222
2.35200	223
2.35567	224
2.35933	227
2.36300	231
2.36667	233
2.37033	235
2.37400	234
2.37767	234
2.38133	233
2.38500	235
2.38867	237
2.39233	240
2.39600	243
2.39967	247
2.40333	251
2.40700	257
2.41067	261
2.41433	263
2.41800	264
2.42167	267
2.42533	269
2.42900	270
2.43267	273
2.43633	276
2.44000	282
2.44367	342
2.44733	488
2.45100	643
2.45467	772
2.45833	848
2.46200	859
2.46567	830
2.46933	792
2.47300	763
2.47667	746
2.48033	734
2.48400	715
2.48767	680
2.49133	637
2.49500	594
2.49867	558
2.50233	531
2.50600	513
2.50967	501
2.51333	501
2.51700	510
2.52067	525
2.52433	546
2.52800	565
2.53167	578
2.53533	580
2.53900	572
2.54267	556
2.54633	534
2.55000	506
2.55367	476
2.55733	451
2.56100	431
2.56467	414
2.56833	401
2.57200	392
2.57567	386
2.57933	384
2.58300	382
2.58667	380
2.59033	379
2.59400	378
2.59767	376
2.60133	374
2.60500	371
2.60867	366
2.61233	357
2.61600	349
2.61967	342
2.62333	339
2.62700	337
2.63067	336
2.63433	338
2.63800	341
2.64167	343
2.64533	345
2.64900	349
2.65267	351
2.65633	353
2.66000	352
2.66367	349
2.66733	343
2.67100	335
2.67467	327
2.67833	315
2.68200	302
2.68567	292
2.68933	285
2.69300	280
2.69667	274
2.70033	265
2.70400	260
2.70767	254
2.71133	249
2.71500	248
2.71867	247
2.72233	246
2.72600	246
2.72967	246
2.73333	246
2.73700	246
2.74067	249
2.74433	251
2.74800	253
2.75167	254
2.75533	254
2.75900	253
2.76267	252
2.76633	254
2.77000	256
2.77367	256
2.77733	255
2.78100	255
2.78467	257
2.78833	257
2.79200	254
2.79567	253
2.79933	253
2.80300	255
2.80667	257
2.81033	259
2.81400	262
2.81767	268
2.82133	278
2.82500	303
2.82867	354
2.83233	447
2.83600	604
2.83967	851
2.84333	1200
2.84700	1649
2.85067	2187
2.85433	2776
2.85800	3376
2.86167	3939
2.86533	4415
2.86900	4772
2.87267	4989
2.87633	5062
2.88000	5002
2.88367	4831
2.88733	4576
2.89100	4265
2.89467	3927
2.89833	3580
2.90200	3240
2.90567	2914
2.90933	2610
2.91300	2333
2.91667	2082
2.92033	1854
2.92400	1651
2.92767	1472
2.93133	1318
2.93500	1185
2.93867	1067
2.94233	965
2.94600	876
2.94967	798
2.95333	728
2.95700	666
2.96067	613
2.96433	568
2.96800	529
2.97167	496
2.97533	465
2.97900	438
2.98267	414
2.98633	395
2.99000	376
2.99367	359
2.99733	344
3.00100	333
3.00467	323
3.00833	314
3.01200	305
3.01567	297
3.01933	289
3.02300	282
3.02667	274
3.03033	269
3.03400	263
3.03767	259
3.04133	254
3.04500	250
3.04867	250
3.05233	249
3.05600	248
3.05967	246
3.06333	243
3.06700	241
3.07067	240
3.07433	235
3.07800	229
3.08167	225
3.08533	224
3.08900	224
3.09267	225
3.09633	225
3.10000	225
3.10367	225
3.10733	224
3.11100	223
3.11467	221
3.11833	221
3.12200	222
3.12567	221
3.12933	221
3.13300	222
3.13667	225
3.14033	229
3.14400	232
3.14767	231
3.15133	231
3.15500	230
3.15867	231
3.16233	232
3.16600	236
3.16967	239
3.17333	238
3.17700	235
3.18067	232
3.18433	232
3.18800	233
3.19167	233
3.19533	235
3.19900	237
3.20267	236
3.20633	238
3.21000	240
3.21367	242
3.21733	245
3.22100	247
3.22467	246
3.22833	245
3.23200	246
3.23567	246
3.23933	248
3.24300	252
3.24667	256
3.25033	257
3.25400	255
3.25767	253
3.26133	252
3.26500	250
3.26867	251
3.27233	253
3.27600	254
3.27967	256
3.28333	257
3.28700	258
3.29067	261
3.29433	263
3.29800	266
3.30167	268
3.30533	269
3.30900	269
3.31267	269
3.31633	268
3.32000	264
3.32367	263
3.32733	265
3.33100	268
3.33467	271
3.33833	274
3.34200	276
3.34567	276
3.34933	276
3.35300	275
3.35667	273
3.36033	272
3.36400	276
3.36767	277
3.37133	280
3.37500	283
3.37867	282
3.38233	282
3.38600	283
3.38967	282
3.39333	283
3.39700	283
3.40067	284
3.40433	287
3.40800	287
3.41167	288
3.41533	289
3.41900	290
3.42267	292
3.42633	293
3.43000	293
3.43367	293
3.43733	294
3.44100	295
3.44467	297
3.44833	299
3.45200	300
3.45567	302
3.45933	303
3.46300	303
3.46667	303
3.47033	305
3.47400	306
3.47767	307
3.48133	309
3.48500	311
3.48867	312
3.49233	312
3.49600	314
3.49967	316
3.50333	316
3.50700	314
3.51067	314
3.51433	315
3.51800	316
3.52167	315
3.52533	314
3.52900	315
3.53267	317
3.53633	317
3.54000	319
3.54367	319
3.54733	318
3.55100	319
3.55467	317
3.55833	312
3.56200	303
3.56567	287
3.56933	273
3.57300	264
3.57667	263
3.58033	269
3.58400	280
3.58767	295
3.59133	314
3.59500	334
3.59867	356
3.60233	378
3.60600	398
3.60967	416
3.61333	433
3.61700	450
3.62067	466
3.62433	480
3.62800	493
3.63167	506
3.63533	520
3.63900	529
3.64267	534
3.64633	538
3.65000	545
3.65367	552
3.65733	558
3.66100	564
3.66467	569
3.66833	572
3.67200	576
3.67567	580
3.67933	583
3.68300	585
3.68667	587
3.69033	588
3.69400	590
3.69767	592
3.70133	594
3.70500	594
3.70867	596
3.71233	598
3.71600	597
3.71967	595
3.72333	595
3.72700	596
3.73067	596
3.73433	595
3.73800	592
3.74167	590
3.74533	592
3.74900	593
3.75267	593
3.75633	593
3.76000	597
3.76367	598
3.76733	598
3.77100	596
3.77467	595
3.77833	592
3.78200	591
3.78567	591
3.78933	590
3.79300	589
3.79667	589
3.80033	591
3.80400	592
3.80767	595
3.81133	598
3.81500	602
3.81867	603
3.82233	603
3.82600	603
3.82967	601
3.83333	600
3.83700	599
3.84067	599
3.84433	600
3.84800	601
3.85167	604
3.85533	605
3.85900	603
3.86267	599
3.86633	596
3.87000	595
3.87367	596
3.87733	597
3.88100	597
3.88467	599
3.88833	600
3.89200	601
3.89567	601
3.89933	602
3.90300	601
3.90667	602
3.91033	602
3.91400	605
3.91767	607
3.92133	608
3.92500	608
3.92867	610
3.93233	609
3.93600	608
3.93967	609
3.94333	612
3.94700	612
3.95067	613
3.95433	611
3.95800	609
3.96167	609
3.96533	610
3.96900	611
3.97267	611
3.97633	611
3.98000	610
3.98367	607
3.98733	608
3.99100	608
3.99467	606
3.99833	601

[Status Trace (Column Oven Temperature)]
Interval(msec)	1000
# of Points	240
Start Time(min)	0.005
End Time(min)	3.989
Intensity Units	
Intensity Multiplier	1
R.Time (min)	Intensity
0.00528	35.03
0.02195	35.03
0.03862	35.03
0.05528	35.04
0.07195	35.04
0.08862	35.04
0.10528	35.03
0.12195	35.03
0.13862	35.02
0.15528	35.02
0.17195	35.03
0.18862	35.04
0.20528	35.03
0.22195	35.03
0.23862	35.03
0.25528	35.04
0.27195	35.03
0.28862	35.02
0.30528	35.01
0.32195	34.99
0.33862	34.99
0.35528	34.98
0.37195	34.99
0.38862	34.99
0.40528	35.00
0.42195	35.00
0.43862	35.02
0.45528	35.02
0.47195	35.04
0.48862	35.05
0.50528	35.05
0.52195	35.04
0.53862	35.03
0.55528	35.03
0.57195	35.03
0.58862	35.02
0.60528	35.02
0.62195	35.02
0.63862	35.00
0.65528	35.00
0.67195	35.00
0.68862	35.01
0.70528	35.01
0.72195	35.01
0.73862	35.01
0.75528	35.01
0.77195	35.01
0.78862	35.01
0.80528	35.00
0.82195	35.01
0.83862	35.01
0.85528	34.99
0.87195	34.98
0.88862	34.98
0.90528	34.98
0.92195	34.99
0.93862	34.99
0.95528	34.99
0.97195	34.98
0.98862	34.97
1.00528	34.96
1.02195	34.96
1.03862	34.97
1.05528	34.99
1.07195	35.00
1.08862	35.01
1.10528	35.02
1.12195	35.03
1.13862	35.02
1.15528	35.01
1.17195	35.00
1.18862	35.00
1.20528	35.01
1.22195	35.01
1.23862	35.02
1.25528	35.01
1.27195	35.01
1.28862	35.01
1.30528	35.01
1.32195	35.02
1.33862	35.02
1.35528	35.03
1.37195	35.03
1.38862	35.02
1.40528	35.01
1.42195	34.99
1.43862	34.99
1.45528	34.99
1.47195	34.98
1.48862	34.97
1.50528	34.97
1.52195	34.96
1.53862	34.97
1.55528	34.98
1.57195	35.00
1.58862	35.01
1.60528	35.06
1.62195	35.16
1.63862	35.33
1.65528	35.56
1.67195	35.89
1.68862	36.29
1.70528	36.65
1.72195	36.99
1.73862	37.30
1.75528	37.60
1.77195	37.94
1.78862	38.28
1.80528	38.61
1.82195	38.95
1.83862	39.29
1.85528	39.62
1.87195	39.96
1.88862	40.28
1.90528	40.62
1.92195	40.93
1.93862	41.26
1.95528	41.59
1.97195	41.91
1.98862	42.23
2.00528	42.55
2.02195	42.88
2.03862	43.20
2.05528	43.53
2.07195	43.87
2.08862	44.18
2.10528	44.50
2.12195	44.83
2.13862	45.14
2.15528	45.49
2.17195	45.82
2.18862	46.15
2.20528	46.47
2.22195	46.80
2.23862	47.11
2.25528	47.44
2.27195	47.79
2.28862	48.13
2.30528	48.43
2.32195	48.77
2.33862	49.09
2.35528	49.42
2.37195	49.67
2.38862	49.74
2.40528	49.73
2.42195	49.74
2.43862	49.73
2.45528	49.75
2.47195	49.74
2.48862	49.76
2.50528	49.77
2.52195	49.77
2.53862	49.79
2.55528	49.79
2.57195	49.80
2.58862	49.81
2.60528	49.79
2.62195	49.82
2.63862	49.84
2.65528	49.84
2.67195	49.85
2.68862	49.86
2.70528	49.85
2.72195	49.84
2.73862	49.86
2.75528	49.87
2.77195	49.87
2.78862	49.85
2.80528	49.85
2.82195	49.88
2.83862	49.91
2.85528	49.90
2.87195	49.91
2.88862	49.91
2.90528	49.92
2.92195	49.92
2.93862	49.92
2.95528	49.93
2.97195	49.95
2.98862	49.96
3.00528	49.97
3.02195	49.98
3.03862	49.99
3.05528	49.98
3.07195	49.99
3.08862	49.99
3.10528	49.98
3.12195	49.98
3.13862	50.00
3.15528	50.03
3.17195	50.05
3.18862	50.07
3.20528	50.08
3.22195	50.09
3.23862	50.09
3.25528	50.09
3.27195	50.10
3.28862	50.10
3.30528	50.11
3.32195	50.10
3.33862	50.09
3.35528	50.08
3.37195	50.07
3.38862	50.07
3.40528	50.08
3.42195	50.08
3.43862	50.07
3.45528	50.07
3.47195	50.06
3.48862	50.04
3.50528	50.04
3.52195	50.03
3.53862	50.04
3.55528	50.05
3.57195	50.06
3.58862	50.06
3.60528	50.07
3.62195	50.07
3.63862	50.06
3.65528	50.06
3.67195	50.05
3.68862	50.04
3.70528	50.04
3.72195	50.03
3.73862	50.04
3.75528	50.04
3.77195	50.04
3.78862	50.05
3.80528	50.05
3.82195	50.05
3.83862	50.06
3.85528	50.07
3.87195	50.08
3.88862	50.08
3.90528	50.09
3.92195	50.09
3.93862	50.09
3.95528	50.09
3.97195	50.09
3.98862	50.10

[Status Trace (Injection Unit Temperature)]
Interval(msec)	1000
# of Points	240
Start Time(min)	0.005
End Time(min)	3.989
Intensity Units	
Intensity Multiplier	1
R.Time (min)	Intensity
0.00528	99.98
0.02195	99.97
0.03862	99.98
0.05528	99.98
0.07195	99.98
0.08862	99.98
0.10528	99.98
0.12195	99.98
0.13862	99.98
0.15528	99.98
0.17195	99.98
0.18862	99.98
0.20528	99.98
0.22195	99.98
0.23862	99.98
0.25528	99.98
0.27195	99.98
0.28862	99.99
0.30528	99.98
0.32195	99.98
0.33862	99.98
0.35528	99.98
0.37195	99.98
0.38862	99.98
0.40528	99.99
0.42195	99.98
0.43862	99.99
0.45528	99.98
0.47195	99.99
0.48862	99.98
0.50528	99.98
0.52195	99.98
0.53862	99.99
0.55528	99.98
0.57195	99.98
0.58862	99.99
0.60528	99.99
0.62195	99.99
0.63862	99.99
0.65528	99.98
0.67195	99.99
0.68862	99.99
0.70528	99.99
0.72195	99.99
0.73862	99.99
0.75528	99.99
0.77195	99.99
0.78862	99.99
0.80528	99.99
0.82195	99.98
0.83862	99.99
0.85528	99.99
0.87195	99.99
0.88862	99.99
0.90528	99.98
0.92195	99.99
0.93862	99.99
0.95528	99.98
0.97195	99.99
0.98862	99.99
1.00528	99.99
1.02195	99.99
1.03862	99.99
1.05528	99.99
1.07195	99.99
1.08862	99.99
1.10528	99.98
1.12195	99.99
1.13862	99.98
1.15528	99.99
1.17195	99.99
1.18862	99.99
1.20528	99.98
1.22195	99.98
1.23862	99.99
1.25528	99.98
1.27195	99.99
1.28862	99.98
1.30528	99.99
1.32195	99.99
1.33862	99.98
1.35528	99.98
1.37195	99.98
1.38862	99.98
1.40528	99.98
1.42195	99.98
1.43862	99.98
1.45528	99.99
1.47195	99.99
1.48862	99.99
1.50528	99.98
1.52195	99.98
1.53862	99.99
1.55528	99.99
1.57195	99.99
1.58862	99.99
1.60528	99.98
1.62195	99.98
1.63862	99.98
1.65528	99.99
1.67195	99.99
1.68862	99.98
1.70528	99.98
1.72195	99.99
1.73862	99.99
1.75528	99.98
1.77195	99.99
1.78862	99.99
1.80528	99.98
1.82195	99.98
1.83862	99.98
1.85528	99.99
1.87195	99.98
1.88862	99.98
1.90528	99.98
1.92195	99.98
1.93862	99.98
1.95528	99.98
1.97195	99.98
1.98862	99.98
2.00528	99.98
2.02195	99.98
2.03862	99.98
2.05528	99.97
2.07195	99.98
2.08862	99.98
2.10528	99.97
2.12195	99.97
2.13862	99.97
2.15528	99.97
2.17195	99.97
2.18862	99.97
2.20528	99.97
2.22195	99.97
2.23862	99.97
2.25528	99.97
2.27195	99.97
2.28862	99.97
2.30528	99.97
2.32195	99.97
2.33862	99.97
2.35528	99.98
2.37195	99.97
2.38862	99.98
2.40528	99.97
2.42195	99.97
2.43862	99.98
2.45528	99.97
2.47195	99.97
2.48862	99.98
2.50528	99.98
2.52195	99.98
2.53862	99.98
2.55528	99.98
2.57195	99.99
2.58862	99.98
2.60528	99.99
2.62195	99.98
2.63862	99.98
2.65528	99.99
2.67195	99.99
2.68862	99.99
2.70528	99.99
2.72195	99.99
2.73862	99.99
2.75528	99.99
2.77195	99.99
2.78862	100.00
2.80528	100.00
2.82195	100.00
2.83862	100.00
2.85528	100.00
2.87195	100.00
2.88862	100.00
2.90528	100.00
2.92195	100.00
2.93862	100.01
2.95528	100.00
2.97195	100.01
2.98862	100.01
3.00528	100.01
3.02195	100.00
3.03862	100.01
3.05528	100.01
3.07195	100.01
3.08862	100.01
3.10528	100.01
3.12195	100.01
3.13862	100.01
3.15528	100.02
3.17195	100.02
3.18862	100.02
3.20528	100.02
3.22195	100.01
3.23862	100.02
3.25528	100.01
3.27195	100.02
3.28862	100.02
3.30528	100.01
3.32195	100.02
3.33862	100.02
3.35528	100.02
3.37195	100.02
3.38862	100.02
3.40528	100.02
3.42195	100.02
3.43862	100.02
3.45528	100.02
3.47195	100.02
3.48862	100.03
3.50528	100.02
3.52195	100.03
3.53862	100.03
3.55528	100.03
3.57195	100.03
3.58862	100.03
3.60528	100.03
3.62195	100.03
3.63862	100.03
3.65528	100.03
3.67195	100.03
3.68862	100.04
3.70528	100.03
3.72195	100.03
3.73862	100.04
3.75528	100.03
3.77195	100.04
3.78862	100.04
3.80528	100.04
3.82195	100.04
3.83862	100.04
3.85528	100.04
3.87195	100.04
3.88862	100.04
3.90528	100.05
3.92195	100.04
3.93862	100.04
3.95528	100.05
3.97195	100.04
3.98862	100.04

[Status Trace (Carrier Gas Pressure)]
Interval(msec)	1000
# of Points	240
Start Time(min)	0.005
End Time(min)	3.989
Intensity Units	
Intensity Multiplier	1
R.Time (min)	Intensity
0.00528	58.00
0.02195	55.72
0.03862	56.70
0.05528	58.94
0.07195	59.65
0.08862	58.16
0.10528	57.97
0.12195	58.01
0.13862	58.01
0.15528	58.01
0.17195	58.00
0.18862	58.00
0.20528	58.00
0.22195	58.00
0.23862	58.00
0.25528	58.00
0.27195	58.00
0.28862	58.00
0.30528	58.00
0.32195	58.00
0.33862	58.00
0.35528	58.00
0.37195	58.00
0.38862	58.00
0.40528	58.00
0.42195	58.00
0.43862	58.00
0.45528	58.00
0.47195	58.00
0.48862	58.00
0.50528	58.00
0.52195	58.00
0.53862	58.00
0.55528	58.00
0.57195	58.00
0.58862	58.00
0.60528	58.00
0.62195	58.00
0.63862	58.00
0.65528	58.00
0.67195	58.00
0.68862	58.00
0.70528	58.00
0.72195	58.00
0.73862	58.00
0.75528	58.00
0.77195	58.00
0.78862	58.00
0.80528	58.00
0.82195	58.00
0.83862	58.00
0.85528	58.00
0.87195	58.00
0.88862	58.00
0.90528	58.00
0.92195	58.00
0.93862	58.00
0.95528	58.00
0.97195	58.00
0.98862	58.00
1.00528	58.00
1.02195	58.00
1.03862	58.00
1.05528	58.00
1.07195	58.00
1.08862	58.00
1.10528	58.00
1.12195	58.00
1.13862	58.00
1.15528	58.00
1.17195	58.00
1.18862	58.00
1.20528	58.00
1.22195	58.00
1.23862	58.00
1.25528	58.00
1.27195	58.00
1.28862	58.00
1.30528	58.00
1.32195	58.00
1.33862	58.00
1.35528	58.00
1.37195	58.00
1.38862	58.00
1.40528	58.00
1.42195	58.00
1.43862	58.00
1.45528	58.00
1.47195	58.00
1.48862	58.00
1.50528	58.00
1.52195	58.00
1.53862	58.00
1.55528	58.00
1.57195	58.00
1.58862	58.00
1.60528	58.00
1.62195	58.00
1.63862	58.00
1.65528	58.00
1.67195	58.01
1.68862	58.01
1.70528	58.00
1.72195	58.00
1.73862	58.00
1.75528	58.00
1.77195	58.00
1.78862	58.00
1.80528	58.00
1.82195	58.00
1.83862	58.00
1.85528	58.00
1.87195	58.00
1.88862	58.00
1.90528	58.00
1.92195	58.00
1.93862	58.00
1.95528	58.00
1.97195	58.00
1.98862	58.00
2.00528	58.00
2.02195	58.00
2.03862	58.00
2.05528	58.00
2.07195	58.00
2.08862	58.00
2.10528	58.00
2.12195	58.00
2.13862	58.00
2.15528	58.00
2.17195	58.00
2.18862	58.00
2.20528	58.00
2.22195	58.00
2.23862	58.00
2.25528	58.00
2.27195	58.00
2.28862	58.00
2.30528	58.00
2.32195	58.00
2.33862	58.00
2.35528	58.00
2.37195	58.00
2.38862	57.99
2.40528	57.99
2.42195	58.00
2.43862	58.00
2.45528	58.00
2.47195	58.00
2.48862	58.00
2.50528	57.99
2.52195	57.99
2.53862	58.00
2.55528	58.00
2.57195	58.00
2.58862	58.00
2.60528	58.00
2.62195	58.00
2.63862	58.00
2.65528	58.00
2.67195	58.00
2.68862	58.00
2.70528	58.00
2.72195	58.00
2.73862	58.00
2.75528	58.00
2.77195	58.00
2.78862	58.00
2.80528	58.00
2.82195	58.00
2.83862	58.00
2.85528	58.00
2.87195	58.00
2.88862	58.00
2.90528	58.00
2.92195	58.00
2.93862	58.00
2.95528	58.00
2.97195	58.00
2.98862	58.00
3.00528	58.00
3.02195	58.00
3.03862	58.00
3.05528	58.00
3.07195	58.00
3.08862	58.00
3.10528	58.00
3.12195	58.00
3.13862	58.00
3.15528	58.00
3.17195	58.00
3.18862	58.00
3.20528	58.00
3.22195	58.00
3.23862	58.00
3.25528	58.00
3.27195	58.00
3.28862	58.00
3.30528	58.00
3.32195	58.00
3.33862	58.00
3.35528	58.00
3.37195	58.00
3.38862	58.00
3.40528	58.00
3.42195	58.00
3.43862	58.00
3.45528	58.00
3.47195	58.00
3.48862	58.00
3.50528	58.00
3.52195	58.00
3.53862	58.00
3.55528	58.00
3.57195	58.00
3.58862	58.00
3.60528	58.00
3.62195	58.00
3.63862	58.00
3.65528	58.00
3.67195	58.00
3.68862	58.00
3.70528	58.00
3.72195	58.00
3.73862	58.00
3.75528	58.00
3.77195	58.00
3.78862	58.00
3.80528	58.00
3.82195	58.00
3.83862	58.00
3.85528	58.00
3.87195	58.00
3.88862	58.00
3.90528	58.00
3.92195	58.00
3.93862	58.00
3.95528	58.00
3.97195	58.00
3.98862	58.00

[Status Trace (Carrier Gas Flow)]
Interval(msec)	1000
# of Points	240
Start Time(min)	0.005
End Time(min)	3.989
Intensity Units	
Intensity Multiplier	1
R.Time (min)	Intensity
0.00528	34.52
0.02195	34.54
0.03862	34.54
0.05528	34.55
0.07195	34.49
0.08862	34.52
0.10528	34.52
0.12195	34.52
0.13862	34.52
0.15528	34.52
0.17195	34.52
0.18862	34.52
0.20528	34.52
0.22195	34.52
0.23862	34.52
0.25528	34.52
0.27195	34.52
0.28862	34.52
0.30528	34.52
0.32195	34.52
0.33862	34.52
0.35528	34.51
0.37195	34.52
0.38862	34.52
0.40528	34.52
0.42195	34.52
0.43862	34.52
0.45528	34.52
0.47195	34.52
0.48862	34.52
0.50528	34.52
0.52195	34.53
0.53862	34.52
0.55528	34.52
0.57195	34.52
0.58862	34.52
0.60528	34.52
0.62195	34.52
0.63862	34.52
0.65528	34.52
0.67195	34.52
0.68862	34.52
0.70528	34.52
0.72195	34.52
0.73862	34.52
0.75528	34.51
0.77195	34.52
0.78862	34.52
0.80528	34.52
0.82195	34.51
0.83862	34.51
0.85528	34.53
0.87195	34.53
0.88862	34.52
0.90528	34.51
0.92195	34.52
0.93862	34.52
0.95528	34.52
0.97195	34.52
0.98862	34.52
1.00528	34.52
1.02195	34.52
1.03862	34.52
1.05528	34.52
1.07195	34.52
1.08862	34.52
1.10528	34.52
1.12195	34.52
1.13862	34.52
1.15528	34.52
1.17195	34.52
1.18862	34.52
1.20528	34.52
1.22195	34.52
1.23862	34.52
1.25528	34.52
1.27195	34.52
1.28862	34.52
1.30528	34.52
1.32195	34.52
1.33862	34.52
1.35528	34.52
1.37195	34.52
1.38862	34.52
1.40528	34.52
1.42195	34.52
1.43862	34.52
1.45528	34.52
1.47195	34.52
1.48862	34.52
1.50528	34.52
1.52195	34.52
1.53862	34.52
1.55528	34.52
1.57195	34.52
1.58862	34.52
1.60528	34.52
1.62195	34.52
1.63862	34.52
1.65528	34.52
1.67195	34.52
1.68862	34.52
1.70528	34.52
1.72195	34.52
1.73862	34.52
1.75528	34.52
1.77195	34.52
1.78862	34.52
1.80528	34.51
1.82195	34.51
1.83862	34.52
1.85528	34.51
1.87195	34.51
1.88862	34.51
1.90528	34.52
1.92195	34.53
1.93862	34.51
1.95528	34.52
1.97195	34.52
1.98862	34.52
2.00528	34.52
2.02195	34.51
2.03862	34.52
2.05528	34.53
2.07195	34.52
2.08862	34.53
2.10528	34.51
2.12195	34.52
2.13862	34.52
2.15528	34.51
2.17195	34.52
2.18862	34.52
2.20528	34.52
2.22195	34.52
2.23862	34.52
2.25528	34.52
2.27195	34.52
2.28862	34.52
2.30528	34.52
2.32195	34.52
2.33862	34.52
2.35528	34.52
2.37195	34.52
2.38862	34.52
2.40528	34.52
2.42195	34.52
2.43862	34.53
2.45528	34.51
2.47195	34.52
2.48862	34.52
2.50528	34.53
2.52195	34.52
2.53862	34.51
2.55528	34.52
2.57195	34.52
2.58862	34.52
2.60528	34.52
2.62195	34.52
2.63862	34.52
2.65528	34.51
2.67195	34.52
2.68862	34.52
2.70528	34.52
2.72195	34.52
2.73862	34.52
2.75528	34.51
2.77195	34.52
2.78862	34.52
2.80528	34.52
2.82195	34.51
2.83862	34.52
2.85528	34.52
2.87195	34.52
2.88862	34.52
2.90528	34.52
2.92195	34.52
2.93862	34.52
2.95528	34.51
2.97195	34.52
2.98862	34.52
3.00528	34.52
3.02195	34.52
3.03862	34.52
3.05528	34.52
3.07195	34.52
3.08862	34.52
3.10528	34.52
3.12195	34.52
3.13862	34.52
3.15528	34.51
3.17195	34.52
3.18862	34.52
3.20528	34.52
3.22195	34.52
3.23862	34.52
3.25528	34.51
3.27195	34.51
3.28862	34.52
3.30528	34.52
3.32195	34.52
3.33862	34.52
3.35528	34.52
3.37195	34.53
3.38862	34.52
3.40528	34.52
3.42195	34.52
3.43862	34.52
3.45528	34.52
3.47195	34.52
3.48862	34.52
3.50528	34.52
3.52195	34.52
3.53862	34.52
3.55528	34.52
3.57195	34.52
3.58862	34.51
3.60528	34.52
3.62195	34.52
3.63862	34.51
3.65528	34.52
3.67195	34.51
3.68862	34.52
3.70528	34.52
3.72195	34.52
3.73862	34.52
3.75528	34.52
3.77195	34.51
3.78862	34.51
3.80528	34.52
3.82195	34.52
3.83862	34.51
3.85528	34.51
3.87195	34.52
3.88862	34.51
3.90528	34.52
3.92195	34.52
3.93862	34.52
3.95528	34.51
3.97195	34.51
3.98862	34.52

[Status Trace (Column Flow)]
Interval(msec)	1000
# of Points	240
Start Time(min)	0.005
End Time(min)	3.989
Intensity Units	
Intensity Multiplier	1
R.Time (min)	Intensity
0.00528	5.52
0.02195	5.25
0.03862	5.37
0.05528	5.63
0.07195	5.71
0.08862	5.54
0.10528	5.51
0.12195	5.52
0.13862	5.52
0.15528	5.52
0.17195	5.52
0.18862	5.52
0.20528	5.52
0.22195	5.52
0.23862	5.52
0.25528	5.52
0.27195	5.52
0.28862	5.52
0.30528	5.52
0.32195	5.52
0.33862	5.52
0.35528	5.52
0.37195	5.52
0.38862	5.52
0.40528	5.52
0.42195	5.52
0.43862	5.52
0.45528	5.52
0.47195	5.52
0.48862	5.52
0.50528	5.52
0.52195	5.52
0.53862	5.52
0.55528	5.52
0.57195	5.52
0.58862	5.52
0.60528	5.52
0.62195	5.52
0.63862	5.52
0.65528	5.52
0.67195	5.52
0.68862	5.52
0.70528	5.52
0.72195	5.52
0.73862	5.52
0.75528	5.52
0.77195	5.52
0.78862	5.52
0.80528	5.52
0.82195	5.52
0.83862	5.52
0.85528	5.52
0.87195	5.52
0.88862	5.52
0.90528	5.52
0.92195	5.52
0.93862	5.52
0.95528	5.52
0.97195	5.52
0.98862	5.52
1.00528	5.52
1.02195	5.52
1.03862	5.52
1.05528	5.52
1.07195	5.52
1.08862	5.52
1.10528	5.52
1.12195	5.52
1.13862	5.52
1.15528	5.52
1.17195	5.52
1.18862	5.52
1.20528	5.52
1.22195	5.52
1.23862	5.52
1.25528	5.52
1.27195	5.52
1.28862	5.52
1.30528	5.52
1.32195	5.52
1.33862	5.52
1.35528	5.52
1.37195	5.52
1.38862	5.52
1.40528	5.52
1.42195	5.52
1.43862	5.52
1.45528	5.52
1.47195	5.52
1.48862	5.52
1.50528	5.52
1.52195	5.52
1.53862	5.52
1.55528	5.52
1.57195	5.52
1.58862	5.52
1.60528	5.52
1.62195	5.51
1.63862	5.51
1.65528	5.50
1.67195	5.49
1.68862	5.48
1.70528	5.47
1.72195	5.46
1.73862	5.45
1.75528	5.44
1.77195	5.43
1.78862	5.42
1.80528	5.41
1.82195	5.40
1.83862	5.39
1.85528	5.38
1.87195	5.37
1.88862	5.36
1.90528	5.35
1.92195	5.34
1.93862	5.33
1.95528	5.32
1.97195	5.31
1.98862	5.30
2.00528	5.29
2.02195	5.28
2.03862	5.27
2.05528	5.26
2.07195	5.25
2.08862	5.24
2.10528	5.23
2.12195	5.22
2.13862	5.21
2.15528	5.20
2.17195	5.19
2.18862	5.19
2.20528	5.18
2.22195	5.17
2.23862	5.16
2.25528	5.15
2.27195	5.14
2.28862	5.13
2.30528	5.12
2.32195	5.11
2.33862	5.10
2.35528	5.09
2.37195	5.08
2.38862	5.08
2.40528	5.08
2.42195	5.08
2.43862	5.08
2.45528	5.08
2.47195	5.08
2.48862	5.08
2.50528	5.08
2.52195	5.08
2.53862	5.08
2.55528	5.08
2.57195	5.08
2.58862	5.08
2.60528	5.08
2.62195	5.08
2.63862	5.08
2.65528	5.08
2.67195	5.08
2.68862	5.08
2.70528	5.08
2.72195	5.08
2.73862	5.08
2.75528	5.08
2.77195	5.08
2.78862	5.08
2.80528	5.08
2.82195	5.08
2.83862	5.08
2.85528	5.08
2.87195	5.08
2.88862	5.08
2.90528	5.08
2.92195	5.08
2.93862	5.08
2.95528	5.08
2.97195	5.08
2.98862	5.08
3.00528	5.08
3.02195	5.08
3.03862	5.08
3.05528	5.08
3.07195	5.08
3.08862	5.08
3.10528	5.08
3.12195	5.08
3.13862	5.08
3.15528	5.08
3.17195	5.07
3.18862	5.07
3.20528	5.07
3.22195	5.07
3.23862	5.07
3.25528	5.07
3.27195	5.07
3.28862	5.07
3.30528	5.07
3.32195	5.07
3.33862	5.07
3.35528	5.07
3.37195	5.07
3.38862	5.07
3.40528	5.07
3.42195	5.07
3.43862	5.07
3.45528	5.07
3.47195	5.07
3.48862	5.08
3.50528	5.08
3.52195	5.08
3.53862	5.08
3.55528	5.08
3.57195	5.08
3.58862	5.07
3.60528	5.07
3.62195	5.07
3.63862	5.07
3.65528	5.08
3.67195	5.08
3.68862	5.08
3.70528	5.08
3.72195	5.08
3.73862	5.08
3.75528	5.08
3.77195	5.08
3.78862	5.08
3.80528	5.08
3.82195	5.08
3.83862	5.07
3.85528	5.07
3.87195	5.07
3.88862	5.07
3.90528	5.07
3.92195	5.07
3.93862	5.07
3.95528	5.07
3.97195	5.07
3.98862	5.07

[Status Trace (Linear Velocity)]
Interval(msec)	1000
# of Points	240
Start Time(min)	0.005
End Time(min)	3.989
Intensity Units	
Intensity Multiplier	1
R.Time (min)	Intensity
0.00528	39.01
0.02195	37.52
0.03862	38.16
0.05528	39.63
0.07195	40.09
0.08862	39.12
0.10528	39.00
0.12195	39.02
0.13862	39.02
0.15528	39.02
0.17195	39.02
0.18862	39.01
0.20528	39.01
0.22195	39.01
0.23862	39.01
0.25528	39.01
0.27195	39.01
0.28862	39.01
0.30528	39.02
0.32195	39.02
0.33862	39.02
0.35528	39.02
0.37195	39.02
0.38862	39.02
0.40528	39.02
0.42195	39.02
0.43862	39.02
0.45528	39.01
0.47195	39.01
0.48862	39.01
0.50528	39.01
0.52195	39.01
0.53862	39.01
0.55528	39.01
0.57195	39.01
0.58862	39.01
0.60528	39.01
0.62195	39.01
0.63862	39.02
0.65528	39.02
0.67195	39.02
0.68862	39.02
0.70528	39.02
0.72195	39.01
0.73862	39.02
0.75528	39.01
0.77195	39.02
0.78862	39.01
0.80528	39.02
0.82195	39.02
0.83862	39.02
0.85528	39.02
0.87195	39.02
0.88862	39.02
0.90528	39.02
0.92195	39.02
0.93862	39.02
0.95528	39.02
0.97195	39.02
0.98862	39.02
1.00528	39.02
1.02195	39.02
1.03862	39.02
1.05528	39.02
1.07195	39.02
1.08862	39.02
1.10528	39.01
1.12195	39.01
1.13862	39.01
1.15528	39.01
1.17195	39.02
1.18862	39.02
1.20528	39.02
1.22195	39.01
1.23862	39.01
1.25528	39.01
1.27195	39.01
1.28862	39.01
1.30528	39.02
1.32195	39.01
1.33862	39.01
1.35528	39.01
1.37195	39.01
1.38862	39.01
1.40528	39.01
1.42195	39.02
1.43862	39.02
1.45528	39.02
1.47195	39.02
1.48862	39.02
1.50528	39.02
1.52195	39.02
1.53862	39.02
1.55528	39.02
1.57195	39.02
1.58862	39.02
1.60528	39.01
1.62195	39.00
1.63862	38.99
1.65528	38.96
1.67195	38.93
1.68862	38.90
1.70528	38.86
1.72195	38.83
1.73862	38.80
1.75528	38.77
1.77195	38.74
1.78862	38.71
1.80528	38.67
1.82195	38.64
1.83862	38.61
1.85528	38.58
1.87195	38.55
1.88862	38.52
1.90528	38.48
1.92195	38.45
1.93862	38.43
1.95528	38.39
1.97195	38.36
1.98862	38.34
2.00528	38.30
2.02195	38.27
2.03862	38.25
2.05528	38.22
2.07195	38.18
2.08862	38.16
2.10528	38.13
2.12195	38.10
2.13862	38.07
2.15528	38.04
2.17195	38.01
2.18862	37.98
2.20528	37.95
2.22195	37.92
2.23862	37.89
2.25528	37.86
2.27195	37.83
2.28862	37.80
2.30528	37.77
2.32195	37.74
2.33862	37.72
2.35528	37.68
2.37195	37.66
2.38862	37.65
2.40528	37.65
2.42195	37.65
2.43862	37.66
2.45528	37.65
2.47195	37.65
2.48862	37.65
2.50528	37.65
2.52195	37.64
2.53862	37.65
2.55528	37.65
2.57195	37.65
2.58862	37.65
2.60528	37.65
2.62195	37.65
2.63862	37.65
2.65528	37.65
2.67195	37.65
2.68862	37.64
2.70528	37.64
2.72195	37.65
2.73862	37.65
2.75528	37.64
2.77195	37.64
2.78862	37.64
2.80528	37.65
2.82195	37.64
2.83862	37.64
2.85528	37.64
2.87195	37.64
2.88862	37.64
2.90528	37.64
2.92195	37.64
2.93862	37.64
2.95528	37.64
2.97195	37.64
2.98862	37.64
3.00528	37.64
3.02195	37.63
3.03862	37.63
3.05528	37.63
3.07195	37.63
3.08862	37.63
3.10528	37.63
3.12195	37.63
3.13862	37.63
3.15528	37.63
3.17195	37.63
3.18862	37.63
3.20528	37.62
3.22195	37.62
3.23862	37.62
3.25528	37.62
3.27195	37.62
3.28862	37.62
3.30528	37.62
3.32195	37.62
3.33862	37.62
3.35528	37.62
3.37195	37.63
3.38862	37.63
3.40528	37.63
3.42195	37.63
3.43862	37.63
3.45528	37.63
3.47195	37.63
3.48862	37.63
3.50528	37.63
3.52195	37.63
3.53862	37.63
3.55528	37.63
3.57195	37.63
3.58862	37.63
3.60528	37.63
3.62195	37.63
3.63862	37.63
3.65528	37.63
3.67195	37.63
3.68862	37.63
3.70528	37.63
3.72195	37.63
3.73862	37.63
3.75528	37.63
3.77195	37.63
3.78862	37.63
3.80528	37.63
3.82195	37.63
3.83862	37.63
3.85528	37.63
3.87195	37.63
3.88862	37.62
3.90528	37.62
3.92195	37.62
3.93862	37.62
3.95528	37.62
3.97195	37.62
3.98862	37.62

