[Header]
Application Name	LabSolutions
Version	5.110
Data File Name	C:\Users\User\Desktop\GC Analyses\Jack\Nachusa Grasslands Sampling\T2 Timepoint July 12th\T2_07122022_010.gcd
Output Date	3/14/2023
Output Time	3:42:30 PM

[File Information]
Type	Data File
Generated	3/10/2023 1:24:11 PM
Generated by	System Administrator
Modified	3/10/2023 1:30:46 PM
Modified by	System Administrator

[Sample Information]
Operator Name	System Administrator
Acquired	3/10/2023 1:26:45 PM
Sample Type	0:Unknown
Level	0
Sample Name	010
Sample ID	010
ISTD Amount1	1
ISTD Amount2	1
ISTD Amount3	1
ISTD Amount4	1
ISTD Amount5	1
ISTD Amount6	1
ISTD Amount7	1
ISTD Amount8	1
ISTD Amount9	1
ISTD Amount10	1
ISTD Amount11	1
ISTD Amount12	1
ISTD Amount13	1
ISTD Amount14	1
ISTD Amount15	1
ISTD Amount16	1
ISTD Amount17	1
ISTD Amount18	1
ISTD Amount19	1
ISTD Amount20	1
ISTD Amount21	1
ISTD Amount22	1
ISTD Amount23	1
ISTD Amount24	1
ISTD Amount25	1
ISTD Amount26	1
ISTD Amount27	1
ISTD Amount28	1
ISTD Amount29	1
ISTD Amount30	1
ISTD Amount31	1
ISTD Amount32	1
Sample Amount	1
Dilution Factor	1
Vial#	9
Injection Volume	1
Injection Count	1
Bar Code	

[Original Files]
Data File	C:\Users\User\Desktop\GC Analyses\Jack\Nachusa Grasslands Sampling\T1 Timepoint July 12th\T2_07122022_010.gcd
Method File	C:\LabSolutions\Data\GHG_4min_2022\ghg3_togas_w_acet_4 min_new_int.gcm
Batch File	C:\LabSolutions\Data\AutoSamplerTesting\T2_07122022.gcb
Report Format File	c:\LabSolutions\System\DEFAULT.lsr

[File Description]


[Configuration]
Instrument Name	C0B7VH3-Instrument1
Instrument #	1
Line #	1
# of Detectors	3
Detector ID	DET#1	DET#2	DET#3
Detector Name	FID	PTCD	ECD
# of Channels	1	1	1

[Peak Table(Ch1)]
# of Peaks	3
Peak#	R.Time	I.Time	F.Time	Area	Height	A/H	Conc.	Mark	ID#	Name	k'	Plate #	Plate Ht.	Tailing	Resolution	Sep.Factor	Area Ratio	Height Ratio	Conc. %	Norm Conc.
1	1.476	1.439	1.538	26293	12515	2.101	185.632	   	1	CO	0.000	9436	15.897	1.298	0.000	0.000	0	0	29.665	29.665
2	1.567	1.538	1.615	4313	2172	1.986	83.401	 V 	2	CH4	0.062	10882	13.785	0.000	1.517	0.000	0	0	13.328	13.328
3	1.996	1.952	2.429	1421359	682112	2.084	356.723	   	3	CO2	0.353	17498	8.572	1.282	7.122	5.680	0	0	57.007	57.007

[Peak Table(Ch2)]
# of Peaks	0

[Peak Table(Ch3)]
# of Peaks	5
Peak#	R.Time	I.Time	F.Time	Area	Height	A/H	Conc.	Mark	ID#	Name	k'	Plate #	Plate Ht.	Tailing	Resolution	Sep.Factor	Area Ratio	Height Ratio	Conc. %	Norm Conc.
1	2.462	2.110	2.513	2510	600	4.183	0.000	   			0.000	6620	22.657	0.000	0.000	0.000	0	0	0.000	0.000
2	2.539	2.513	2.638	2009	392	5.122	0.000	 V 			0.031	1572	95.444	0.000	0.408	0.000	0	0	0.000	0.000
3	2.667	2.638	2.796	1223	170	7.186	0.000	 V 			0.083	24	6158.779	0.000	0.106	2.667	0	0	0.000	0.000
4	2.876	2.796	3.192	20076	5106	3.932	0.513	 V 	1	N2O	0.168	13110	11.441	1.661	0.185	2.018	0	0	100.000	100.000
5	3.426	3.250	3.947	8909	397	22.458	0.000	   	2	SF6	0.392	599	250.401	1.955	1.666	2.327	0	0	0.000	0.000

[Compound Results(Ch1)]
# of IDs	6
ID#	Name	R.Time	Area	Height	Conc.	Curve	3rd	2nd	1st	Constant	Area Ratio	Height Ratio	Conc. %	Norm Conc.
1	CO	1.476	26293	12515	185.632	Linear	0.000000e+00	0.000000e+00	1.416423e+002	0.000000e+00	0	0	29.665	29.665
2	CH4	1.567	4313	2172	83.401	Linear	0.000000e+00	0.000000e+00	5.171738e+001	0.000000e+00	0	0	13.328	13.328
3	CO2	1.996	1421359	682112	356.723	Linear	0.000000e+00	0.000000e+00	3.984494e+003	0.000000e+00	0	0	57.007	57.007
4	Ethylene	0.000	0	0	0.000	Linear	0.000000e+00	0.000000e+00	0.000000e+00	0.000000e+00	0	0	0.000	0.000
5	Acetylene	0.000	0	0	0.000	Linear	0.000000e+00	0.000000e+00	0.000000e+00	0.000000e+00	0	0	0.000	0.000
6	Ethane	0.000	0	0	0.000	Linear	0.000000e+00	0.000000e+00	0.000000e+00	0.000000e+00	0	0	0.000	0.000

[Compound Results(Ch2)]
# of IDs	5
ID#	Name	R.Time	Area	Height	Conc.	Curve	3rd	2nd	1st	Constant	Area Ratio	Height Ratio	Conc. %	Norm Conc.
1	Hydrogen	0.000	0	0	0.000	Linear	0.000000e+00	0.000000e+00	0.000000e+00	0.000000e+00	0	0	0.000	0.000
2	Oxygen	0.000	0	0	0.000	Linear	0.000000e+00	0.000000e+00	0.000000e+00	0.000000e+00	0	0	0.000	0.000
3	Nitrogen	0.000	0	0	0.000	Linear	0.000000e+00	0.000000e+00	0.000000e+00	0.000000e+00	0	0	0.000	0.000
4	Methane	0.000	0	0	0.000	Linear	0.000000e+00	0.000000e+00	0.000000e+00	0.000000e+00	0	0	0.000	0.000
5	Carbon Monoxide	0.000	0	0	0.000	Linear	0.000000e+00	0.000000e+00	0.000000e+00	0.000000e+00	0	0	0.000	0.000

[Compound Results(Ch3)]
# of IDs	2
ID#	Name	R.Time	Area	Height	Conc.	Curve	3rd	2nd	1st	Constant	Area Ratio	Height Ratio	Conc. %	Norm Conc.
1	N2O	2.876	20076	5106	0.513	Linear	0.000000e+00	0.000000e+00	3.915173e+004	0.000000e+00	0	0	100.000	100.000
2	SF6	3.426	8909	397	0.000	Linear	0.000000e+00	0.000000e+00	0.000000e+00	0.000000e+00	0	0	0.000	0.000

[Group Results(Ch1)]
# of Groups	0

[Group Results(Ch2)]
# of Groups	0

[Group Results(Ch3)]
# of Groups	0

[Chromatogram (Ch1)]
Interval(msec)	220
# of Points	1091
Start Time(min)	0.002
End Time(min)	3.998
R.Time (min)	Intensity
0.00167	7
0.00533	19
0.00900	25
0.01267	21
0.01633	7
0.02000	-2
0.02367	-7
0.02733	-9
0.03100	-10
0.03467	-14
0.03833	-18
0.04200	-20
0.04567	-21
0.04933	-23
0.05300	-29
0.05667	-32
0.06033	-29
0.06400	-24
0.06767	-20
0.07133	-19
0.07500	-22
0.07867	-26
0.08233	-24
0.08600	-16
0.08967	-10
0.09333	-13
0.09700	-16
0.10067	-20
0.10433	-21
0.10800	-19
0.11167	-16
0.11533	-14
0.11900	-16
0.12267	-19
0.12633	-19
0.13000	-16
0.13367	-15
0.13733	-16
0.14100	-11
0.14467	-6
0.14833	-3
0.15200	-7
0.15567	-14
0.15933	-20
0.16300	-23
0.16667	-22
0.17033	-23
0.17400	-27
0.17767	-35
0.18133	-42
0.18500	-44
0.18867	-40
0.19233	-35
0.19600	-28
0.19967	-19
0.20333	-13
0.20700	-14
0.21067	-19
0.21433	-22
0.21800	-19
0.22167	-12
0.22533	-9
0.22900	-8
0.23267	-8
0.23633	-5
0.24000	-0
0.24367	4
0.24733	9
0.25100	11
0.25467	10
0.25833	8
0.26200	2
0.26567	-3
0.26933	-6
0.27300	-6
0.27667	-7
0.28033	-6
0.28400	1
0.28767	5
0.29133	8
0.29500	14
0.29867	21
0.30233	29
0.30600	35
0.30967	38
0.31333	39
0.31700	41
0.32067	48
0.32433	58
0.32800	67
0.33167	73
0.33533	76
0.33900	75
0.34267	68
0.34633	62
0.35000	60
0.35367	63
0.35733	67
0.36100	72
0.36467	71
0.36833	67
0.37200	63
0.37567	62
0.37933	65
0.38300	68
0.38667	74
0.39033	76
0.39400	76
0.39767	74
0.40133	72
0.40500	68
0.40867	60
0.41233	48
0.41600	34
0.41967	21
0.42333	14
0.42700	10
0.43067	11
0.43433	14
0.43800	13
0.44167	7
0.44533	1
0.44900	-2
0.45267	-2
0.45633	-3
0.46000	-2
0.46367	-1
0.46733	-4
0.47100	-8
0.47467	-8
0.47833	-4
0.48200	4
0.48567	6
0.48933	2
0.49300	-2
0.49667	-1
0.50033	-2
0.50400	-11
0.50767	-26
0.51133	-37
0.51500	-38
0.51867	-33
0.52233	-26
0.52600	-19
0.52967	-17
0.53333	-16
0.53700	-15
0.54067	-18
0.54433	-20
0.54800	-22
0.55167	-25
0.55533	-30
0.55900	-35
0.56267	-35
0.56633	-30
0.57000	-23
0.57367	-18
0.57733	-17
0.58100	-19
0.58467	-25
0.58833	-36
0.59200	-48
0.59567	-60
0.59933	-68
0.60300	-75
0.60667	-80
0.61033	-81
0.61400	-76
0.61767	-65
0.62133	-52
0.62500	-43
0.62867	-38
0.63233	-34
0.63600	-33
0.63967	-35
0.64333	-38
0.64700	-40
0.65067	-36
0.65433	-34
0.65800	-38
0.66167	-44
0.66533	-49
0.66900	-50
0.67267	-48
0.67633	-47
0.68000	-44
0.68367	-42
0.68733	-39
0.69100	-32
0.69467	-26
0.69833	-24
0.70200	-28
0.70567	-33
0.70933	-36
0.71300	-40
0.71667	-44
0.72033	-49
0.72400	-51
0.72767	-50
0.73133	-46
0.73500	-43
0.73867	-41
0.74233	-42
0.74600	-43
0.74967	-39
0.75333	-36
0.75700	-33
0.76067	-29
0.76433	-27
0.76800	-32
0.77167	-39
0.77533	-44
0.77900	-45
0.78267	-43
0.78633	-41
0.79000	-41
0.79367	-43
0.79733	-47
0.80100	-53
0.80467	-57
0.80833	-56
0.81200	-57
0.81567	-58
0.81933	-59
0.82300	-63
0.82667	-64
0.83033	-63
0.83400	-62
0.83767	-61
0.84133	-61
0.84500	-59
0.84867	-58
0.85233	-57
0.85600	-57
0.85967	-57
0.86333	-54
0.86700	-51
0.87067	-49
0.87433	-50
0.87800	-53
0.88167	-56
0.88533	-61
0.88900	-65
0.89267	-67
0.89633	-65
0.90000	-60
0.90367	-56
0.90733	-54
0.91100	-48
0.91467	-43
0.91833	-41
0.92200	-39
0.92567	-33
0.92933	-21
0.93300	-10
0.93667	-11
0.94033	-20
0.94400	-31
0.94767	-40
0.95133	-45
0.95500	-46
0.95867	-43
0.96233	-37
0.96600	-32
0.96967	-32
0.97333	-36
0.97700	-41
0.98067	-48
0.98433	-60
0.98800	-74
0.99167	-86
0.99533	-92
0.99900	-92
1.00267	-91
1.00633	-88
1.01000	-86
1.01367	-85
1.01733	-81
1.02100	-76
1.02467	-72
1.02833	-71
1.03200	-71
1.03567	-69
1.03933	-63
1.04300	-59
1.04667	-63
1.05033	-72
1.05400	-78
1.05767	-79
1.06133	-75
1.06500	-74
1.06867	-75
1.07233	-73
1.07600	-68
1.07967	-61
1.08333	-56
1.08700	-54
1.09067	-56
1.09433	-57
1.09800	-56
1.10167	-56
1.10533	-59
1.10900	-67
1.11267	-74
1.11633	-76
1.12000	-74
1.12367	-74
1.12733	-75
1.13100	-75
1.13467	-77
1.13833	-79
1.14200	-81
1.14567	-79
1.14933	-76
1.15300	-73
1.15667	-68
1.16033	-60
1.16400	-55
1.16767	-53
1.17133	-57
1.17500	-66
1.17867	-75
1.18233	-76
1.18600	-72
1.18967	-71
1.19333	-74
1.19700	-78
1.20067	-79
1.20433	-78
1.20800	-76
1.21167	-72
1.21533	-67
1.21900	-62
1.22267	-60
1.22633	-60
1.23000	-62
1.23367	-66
1.23733	-66
1.24100	-64
1.24467	-61
1.24833	-60
1.25200	-59
1.25567	-56
1.25933	-50
1.26300	-48
1.26667	-49
1.27033	-54
1.27400	-59
1.27767	-65
1.28133	-71
1.28500	-71
1.28867	-61
1.29233	-49
1.29600	-45
1.29967	-47
1.30333	-54
1.30700	-63
1.31067	-70
1.31433	-77
1.31800	-79
1.32167	-79
1.32533	-84
1.32900	-94
1.33267	-104
1.33633	-109
1.34000	-110
1.34367	-110
1.34733	-108
1.35100	-105
1.35467	-96
1.35833	-88
1.36200	-85
1.36567	-84
1.36933	-81
1.37300	-76
1.37667	-71
1.38033	-68
1.38400	-64
1.38767	-58
1.39133	-54
1.39500	-58
1.39867	-66
1.40233	-73
1.40600	-81
1.40967	-88
1.41333	-86
1.41700	-79
1.42067	-78
1.42433	-85
1.42800	-95
1.43167	-103
1.43533	-107
1.43900	-89
1.44267	2
1.44633	245
1.45000	854
1.45367	2196
1.45733	4307
1.46100	6749
1.46467	9017
1.46833	10818
1.47200	12002
1.47567	12445
1.47933	12058
1.48300	10887
1.48667	9176
1.49033	7284
1.49400	5517
1.49767	4044
1.50133	2907
1.50500	2075
1.50867	1481
1.51233	1065
1.51600	776
1.51967	578
1.52333	440
1.52700	345
1.53067	277
1.53433	227
1.53800	202
1.54167	244
1.54533	409
1.54900	717
1.55267	1106
1.55633	1492
1.56000	1818
1.56367	2046
1.56733	2152
1.57100	2106
1.57467	1896
1.57833	1567
1.58200	1202
1.58567	864
1.58933	588
1.59300	385
1.59667	248
1.60033	161
1.60400	100
1.60767	55
1.61133	24
1.61500	5
1.61867	-5
1.62233	-4
1.62600	3
1.62967	12
1.63333	13
1.63700	5
1.64067	-7
1.64433	-16
1.64800	-20
1.65167	-26
1.65533	-31
1.65900	-33
1.66267	-28
1.66633	-18
1.67000	-7
1.67367	-1
1.67733	-1
1.68100	-8
1.68467	-19
1.68833	-30
1.69200	-40
1.69567	-46
1.69933	-49
1.70300	-46
1.70667	-38
1.71033	-29
1.71400	-24
1.71767	-23
1.72133	-20
1.72500	-20
1.72867	-25
1.73233	-33
1.73600	-41
1.73967	-46
1.74333	-48
1.74700	-50
1.75067	-49
1.75433	-42
1.75800	-33
1.76167	-27
1.76533	-24
1.76900	-21
1.77267	-22
1.77633	-26
1.78000	-28
1.78367	-26
1.78733	-26
1.79100	-31
1.79467	-39
1.79833	-48
1.80200	-54
1.80567	-54
1.80933	-50
1.81300	-45
1.81667	-47
1.82033	-51
1.82400	-52
1.82767	-49
1.83133	-47
1.83500	-49
1.83867	-52
1.84233	-52
1.84600	-52
1.84967	-52
1.85333	-49
1.85700	-46
1.86067	-44
1.86433	-40
1.86800	-34
1.87167	-32
1.87533	-34
1.87900	-37
1.88267	-39
1.88633	-37
1.89000	-32
1.89367	-31
1.89733	-32
1.90100	-36
1.90467	-40
1.90833	-40
1.91200	-40
1.91567	-40
1.91933	-41
1.92300	-44
1.92667	-41
1.93033	-28
1.93400	-14
1.93767	-7
1.94133	-6
1.94500	-8
1.94867	-11
1.95233	4
1.95600	128
1.95967	859
1.96333	4153
1.96700	15396
1.97067	44850
1.97433	104702
1.97800	200446
1.98167	323397
1.98533	453282
1.98900	567478
1.99267	647635
1.99633	682150
2.00000	667003
2.00367	607442
2.00733	517382
2.01100	414949
2.01467	316335
2.01833	231824
2.02200	165248
2.02567	115861
2.02933	80731
2.03300	56434
2.03667	39914
2.04033	28779
2.04400	21281
2.04767	16198
2.05133	12706
2.05500	10266
2.05867	8526
2.06233	7251
2.06600	6291
2.06967	5556
2.07333	4983
2.07700	4517
2.08067	4131
2.08433	3808
2.08800	3532
2.09167	3291
2.09533	3077
2.09900	2883
2.10267	2710
2.10633	2558
2.11000	2422
2.11367	2299
2.11733	2189
2.12100	2084
2.12467	1987
2.12833	1897
2.13200	1816
2.13567	1748
2.13933	1686
2.14300	1627
2.14667	1571
2.15033	1516
2.15400	1459
2.15767	1405
2.16133	1358
2.16500	1314
2.16867	1269
2.17233	1228
2.17600	1191
2.17967	1158
2.18333	1129
2.18700	1103
2.19067	1077
2.19433	1049
2.19800	1020
2.20167	993
2.20533	969
2.20900	945
2.21267	919
2.21633	892
2.22000	871
2.22367	857
2.22733	838
2.23100	811
2.23467	787
2.23833	766
2.24200	747
2.24567	732
2.24933	721
2.25300	711
2.25667	698
2.26033	685
2.26400	673
2.26767	661
2.27133	649
2.27500	641
2.27867	630
2.28233	615
2.28600	601
2.28967	591
2.29333	582
2.29700	570
2.30067	558
2.30433	544
2.30800	530
2.31167	523
2.31533	519
2.31900	517
2.32267	513
2.32633	502
2.33000	493
2.33367	486
2.33733	478
2.34100	465
2.34467	455
2.34833	456
2.35200	460
2.35567	463
2.35933	461
2.36300	453
2.36667	445
2.37033	439
2.37400	431
2.37767	417
2.38133	402
2.38500	393
2.38867	389
2.39233	388
2.39600	392
2.39967	396
2.40333	395
2.40700	392
2.41067	387
2.41433	379
2.41800	371
2.42167	367
2.42533	364
2.42900	362
2.43267	366
2.43633	377
2.44000	386
2.44367	384
2.44733	373
2.45100	360
2.45467	349
2.45833	338
2.46200	327
2.46567	322
2.46933	327
2.47300	335
2.47667	336
2.48033	329
2.48400	320
2.48767	308
2.49133	299
2.49500	297
2.49867	300
2.50233	306
2.50600	308
2.50967	308
2.51333	305
2.51700	300
2.52067	293
2.52433	286
2.52800	283
2.53167	282
2.53533	284
2.53900	291
2.54267	295
2.54633	297
2.55000	295
2.55367	289
2.55733	281
2.56100	278
2.56467	282
2.56833	282
2.57200	276
2.57567	270
2.57933	266
2.58300	263
2.58667	262
2.59033	264
2.59400	270
2.59767	276
2.60133	278
2.60500	278
2.60867	281
2.61233	285
2.61600	288
2.61967	289
2.62333	290
2.62700	290
2.63067	291
2.63433	294
2.63800	297
2.64167	298
2.64533	299
2.64900	295
2.65267	287
2.65633	279
2.66000	274
2.66367	267
2.66733	260
2.67100	255
2.67467	253
2.67833	258
2.68200	261
2.68567	265
2.68933	271
2.69300	273
2.69667	274
2.70033	275
2.70400	281
2.70767	289
2.71133	294
2.71500	296
2.71867	294
2.72233	289
2.72600	284
2.72967	280
2.73333	273
2.73700	262
2.74067	254
2.74433	252
2.74800	256
2.75167	259
2.75533	259
2.75900	260
2.76267	260
2.76633	266
2.77000	278
2.77367	288
2.77733	293
2.78100	294
2.78467	294
2.78833	294
2.79200	293
2.79567	290
2.79933	283
2.80300	278
2.80667	278
2.81033	281
2.81400	286
2.81767	289
2.82133	294
2.82500	303
2.82867	308
2.83233	308
2.83600	304
2.83967	300
2.84333	295
2.84700	286
2.85067	274
2.85433	267
2.85800	267
2.86167	274
2.86533	282
2.86900	287
2.87267	287
2.87633	287
2.88000	289
2.88367	296
2.88733	301
2.89100	302
2.89467	299
2.89833	288
2.90200	278
2.90567	273
2.90933	275
2.91300	277
2.91667	279
2.92033	286
2.92400	292
2.92767	297
2.93133	302
2.93500	303
2.93867	304
2.94233	308
2.94600	315
2.94967	319
2.95333	322
2.95700	325
2.96067	323
2.96433	318
2.96800	313
2.97167	310
2.97533	309
2.97900	308
2.98267	307
2.98633	303
2.99000	299
2.99367	300
2.99733	304
3.00100	309
3.00467	314
3.00833	318
3.01200	321
3.01567	322
3.01933	322
3.02300	319
3.02667	315
3.03033	311
3.03400	303
3.03767	294
3.04133	287
3.04500	287
3.04867	295
3.05233	303
3.05600	307
3.05967	312
3.06333	319
3.06700	324
3.07067	328
3.07433	330
3.07800	329
3.08167	322
3.08533	313
3.08900	306
3.09267	301
3.09633	299
3.10000	298
3.10367	299
3.10733	301
3.11100	305
3.11467	308
3.11833	312
3.12200	318
3.12567	326
3.12933	334
3.13300	335
3.13667	332
3.14033	326
3.14400	319
3.14767	317
3.15133	323
3.15500	330
3.15867	330
3.16233	325
3.16600	316
3.16967	311
3.17333	311
3.17700	315
3.18067	319
3.18433	321
3.18800	318
3.19167	314
3.19533	314
3.19900	320
3.20267	329
3.20633	336
3.21000	335
3.21367	330
3.21733	324
3.22100	318
3.22467	316
3.22833	317
3.23200	325
3.23567	338
3.23933	350
3.24300	356
3.24667	355
3.25033	349
3.25400	344
3.25767	336
3.26133	325
3.26500	311
3.26867	300
3.27233	295
3.27600	297
3.27967	306
3.28333	318
3.28700	326
3.29067	329
3.29433	330
3.29800	328
3.30167	326
3.30533	327
3.30900	329
3.31267	332
3.31633	332
3.32000	330
3.32367	325
3.32733	317
3.33100	309
3.33467	306
3.33833	306
3.34200	312
3.34567	319
3.34933	327
3.35300	335
3.35667	336
3.36033	327
3.36400	315
3.36767	309
3.37133	306
3.37500	305
3.37867	302
3.38233	297
3.38600	297
3.38967	300
3.39333	305
3.39700	311
3.40067	318
3.40433	327
3.40800	342
3.41167	354
3.41533	358
3.41900	353
3.42267	342
3.42633	327
3.43000	314
3.43367	306
3.43733	306
3.44100	313
3.44467	323
3.44833	327
3.45200	327
3.45567	325
3.45933	328
3.46300	330
3.46667	327
3.47033	321
3.47400	312
3.47767	304
3.48133	300
3.48500	298
3.48867	298
3.49233	301
3.49600	304
3.49967	306
3.50333	306
3.50700	303
3.51067	295
3.51433	290
3.51800	285
3.52167	283
3.52533	288
3.52900	297
3.53267	302
3.53633	302
3.54000	303
3.54367	308
3.54733	314
3.55100	313
3.55467	309
3.55833	308
3.56200	310
3.56567	313
3.56933	311
3.57300	307
3.57667	304
3.58033	301
3.58400	301
3.58767	305
3.59133	312
3.59500	316
3.59867	315
3.60233	311
3.60600	308
3.60967	304
3.61333	299
3.61700	292
3.62067	284
3.62433	282
3.62800	284
3.63167	287
3.63533	291
3.63900	292
3.64267	292
3.64633	292
3.65000	296
3.65367	304
3.65733	311
3.66100	309
3.66467	303
3.66833	299
3.67200	297
3.67567	293
3.67933	284
3.68300	277
3.68667	272
3.69033	267
3.69400	263
3.69767	264
3.70133	266
3.70500	268
3.70867	274
3.71233	281
3.71600	288
3.71967	288
3.72333	289
3.72700	290
3.73067	290
3.73433	292
3.73800	295
3.74167	298
3.74533	295
3.74900	285
3.75267	275
3.75633	267
3.76000	266
3.76367	270
3.76733	275
3.77100	279
3.77467	280
3.77833	282
3.78200	280
3.78567	280
3.78933	284
3.79300	286
3.79667	281
3.80033	274
3.80400	273
3.80767	276
3.81133	276
3.81500	271
3.81867	268
3.82233	265
3.82600	264
3.82967	267
3.83333	271
3.83700	268
3.84067	263
3.84433	260
3.84800	253
3.85167	245
3.85533	243
3.85900	250
3.86267	259
3.86633	264
3.87000	265
3.87367	262
3.87733	263
3.88100	268
3.88467	272
3.88833	271
3.89200	263
3.89567	257
3.89933	256
3.90300	254
3.90667	252
3.91033	250
3.91400	242
3.91767	233
3.92133	227
3.92500	229
3.92867	235
3.93233	241
3.93600	246
3.93967	251
3.94333	257
3.94700	263
3.95067	265
3.95433	269
3.95800	269
3.96167	266
3.96533	261
3.96900	254
3.97267	246
3.97633	239
3.98000	236
3.98367	234
3.98733	230
3.99100	225
3.99467	219
3.99833	213

[Chromatogram (Ch2)]
Interval(msec)	220
# of Points	1091
Start Time(min)	0.002
End Time(min)	3.998
R.Time (min)	Intensity
0.00167	0
0.00533	1
0.00900	1
0.01267	1
0.01633	1
0.02000	1
0.02367	1
0.02733	1
0.03100	1
0.03467	1
0.03833	1
0.04200	1
0.04567	1
0.04933	1
0.05300	2
0.05667	2
0.06033	2
0.06400	2
0.06767	2
0.07133	2
0.07500	1
0.07867	1
0.08233	1
0.08600	0
0.08967	-0
0.09333	-1
0.09700	-1
0.10067	-1
0.10433	-1
0.10800	-0
0.11167	0
0.11533	0
0.11900	0
0.12267	0
0.12633	1
0.13000	1
0.13367	1
0.13733	1
0.14100	1
0.14467	1
0.14833	1
0.15200	1
0.15567	1
0.15933	1
0.16300	1
0.16667	1
0.17033	1
0.17400	1
0.17767	1
0.18133	1
0.18500	1
0.18867	2
0.19233	2
0.19600	2
0.19967	2
0.20333	2
0.20700	3
0.21067	3
0.21433	3
0.21800	3
0.22167	3
0.22533	3
0.22900	3
0.23267	4
0.23633	4
0.24000	4
0.24367	4
0.24733	4
0.25100	4
0.25467	4
0.25833	5
0.26200	5
0.26567	5
0.26933	5
0.27300	5
0.27667	5
0.28033	5
0.28400	4
0.28767	4
0.29133	4
0.29500	4
0.29867	3
0.30233	3
0.30600	3
0.30967	2
0.31333	2
0.31700	2
0.32067	1
0.32433	1
0.32800	0
0.33167	-0
0.33533	-0
0.33900	-1
0.34267	-0
0.34633	-0
0.35000	-0
0.35367	-0
0.35733	0
0.36100	0
0.36467	0
0.36833	0
0.37200	0
0.37567	0
0.37933	0
0.38300	-0
0.38667	-0
0.39033	-1
0.39400	-1
0.39767	-1
0.40133	-1
0.40500	-1
0.40867	-1
0.41233	-0
0.41600	-0
0.41967	1
0.42333	1
0.42700	2
0.43067	2
0.43433	2
0.43800	2
0.44167	2
0.44533	2
0.44900	2
0.45267	2
0.45633	2
0.46000	2
0.46367	2
0.46733	2
0.47100	2
0.47467	1
0.47833	1
0.48200	1
0.48567	0
0.48933	0
0.49300	0
0.49667	-0
0.50033	-0
0.50400	-0
0.50767	-0
0.51133	-0
0.51500	0
0.51867	0
0.52233	1
0.52600	1
0.52967	1
0.53333	0
0.53700	0
0.54067	0
0.54433	-0
0.54800	-0
0.55167	-0
0.55533	-0
0.55900	-0
0.56267	-0
0.56633	-0
0.57000	0
0.57367	0
0.57733	0
0.58100	1
0.58467	1
0.58833	1
0.59200	1
0.59567	1
0.59933	2
0.60300	2
0.60667	2
0.61033	3
0.61400	3
0.61767	3
0.62133	3
0.62500	3
0.62867	3
0.63233	3
0.63600	2
0.63967	2
0.64333	2
0.64700	2
0.65067	2
0.65433	2
0.65800	2
0.66167	2
0.66533	3
0.66900	2
0.67267	2
0.67633	2
0.68000	2
0.68367	2
0.68733	1
0.69100	1
0.69467	1
0.69833	1
0.70200	1
0.70567	0
0.70933	-0
0.71300	-0
0.71667	-0
0.72033	-0
0.72400	0
0.72767	0
0.73133	0
0.73500	0
0.73867	1
0.74233	1
0.74600	1
0.74967	1
0.75333	1
0.75700	0
0.76067	0
0.76433	-0
0.76800	-1
0.77167	-1
0.77533	-1
0.77900	-1
0.78267	-1
0.78633	-1
0.79000	-1
0.79367	-1
0.79733	-1
0.80100	-0
0.80467	-0
0.80833	-0
0.81200	0
0.81567	0
0.81933	0
0.82300	0
0.82667	0
0.83033	0
0.83400	-0
0.83767	-0
0.84133	0
0.84500	0
0.84867	0
0.85233	0
0.85600	0
0.85967	1
0.86333	1
0.86700	1
0.87067	1
0.87433	2
0.87800	2
0.88167	2
0.88533	3
0.88900	3
0.89267	3
0.89633	3
0.90000	4
0.90367	4
0.90733	4
0.91100	4
0.91467	4
0.91833	4
0.92200	4
0.92567	4
0.92933	4
0.93300	3
0.93667	3
0.94033	3
0.94400	3
0.94767	2
0.95133	2
0.95500	2
0.95867	3
0.96233	3
0.96600	2
0.96967	2
0.97333	2
0.97700	2
0.98067	1
0.98433	1
0.98800	1
0.99167	1
0.99533	1
0.99900	0
1.00267	0
1.00633	-0
1.01000	-0
1.01367	-0
1.01733	-1
1.02100	-1
1.02467	-1
1.02833	-0
1.03200	-0
1.03567	0
1.03933	0
1.04300	0
1.04667	1
1.05033	1
1.05400	1
1.05767	1
1.06133	1
1.06500	1
1.06867	1
1.07233	1
1.07600	1
1.07967	1
1.08333	1
1.08700	1
1.09067	1
1.09433	1
1.09800	1
1.10167	0
1.10533	0
1.10900	-0
1.11267	-0
1.11633	-0
1.12000	-0
1.12367	-0
1.12733	-0
1.13100	-0
1.13467	0
1.13833	0
1.14200	1
1.14567	1
1.14933	1
1.15300	1
1.15667	1
1.16033	1
1.16400	1
1.16767	1
1.17133	1
1.17500	1
1.17867	1
1.18233	1
1.18600	1
1.18967	1
1.19333	1
1.19700	1
1.20067	0
1.20433	0
1.20800	-0
1.21167	-0
1.21533	-1
1.21900	-1
1.22267	-1
1.22633	-1
1.23000	-1
1.23367	-1
1.23733	-1
1.24100	-1
1.24467	-1
1.24833	-1
1.25200	-1
1.25567	-1
1.25933	-1
1.26300	-1
1.26667	-1
1.27033	-1
1.27400	-2
1.27767	-2
1.28133	-2
1.28500	-2
1.28867	-3
1.29233	-3
1.29600	-3
1.29967	-3
1.30333	-3
1.30700	-3
1.31067	-3
1.31433	-3
1.31800	-3
1.32167	-2
1.32533	-2
1.32900	-1
1.33267	-0
1.33633	0
1.34000	1
1.34367	1
1.34733	2
1.35100	2
1.35467	2
1.35833	2
1.36200	2
1.36567	2
1.36933	2
1.37300	2
1.37667	2
1.38033	1
1.38400	1
1.38767	1
1.39133	0
1.39500	0
1.39867	-0
1.40233	-0
1.40600	-0
1.40967	-0
1.41333	-0
1.41700	-0
1.42067	0
1.42433	0
1.42800	1
1.43167	1
1.43533	1
1.43900	1
1.44267	1
1.44633	1
1.45000	1
1.45367	1
1.45733	2
1.46100	2
1.46467	2
1.46833	2
1.47200	2
1.47567	2
1.47933	2
1.48300	2
1.48667	2
1.49033	2
1.49400	2
1.49767	2
1.50133	2
1.50500	1
1.50867	1
1.51233	1
1.51600	0
1.51967	-0
1.52333	-1
1.52700	-1
1.53067	-2
1.53433	-2
1.53800	-2
1.54167	-2
1.54533	-2
1.54900	-2
1.55267	-2
1.55633	-3
1.56000	-3
1.56367	-3
1.56733	-3
1.57100	-2
1.57467	-2
1.57833	-2
1.58200	-1
1.58567	-1
1.58933	-1
1.59300	-1
1.59667	-1
1.60033	-2
1.60400	-3
1.60767	-4
1.61133	-5
1.61500	-7
1.61867	-9
1.62233	-12
1.62600	-15
1.62967	-18
1.63333	-21
1.63700	-24
1.64067	-28
1.64433	-31
1.64800	-35
1.65167	-39
1.65533	-43
1.65900	-47
1.66267	-52
1.66633	-57
1.67000	-62
1.67367	-67
1.67733	-72
1.68100	-77
1.68467	-81
1.68833	-85
1.69200	-89
1.69567	-92
1.69933	-95
1.70300	-97
1.70667	-99
1.71033	-101
1.71400	-102
1.71767	-103
1.72133	-104
1.72500	-105
1.72867	-106
1.73233	-106
1.73600	-106
1.73967	-106
1.74333	-106
1.74700	-106
1.75067	-105
1.75433	-105
1.75800	-104
1.76167	-104
1.76533	-105
1.76900	-106
1.77267	-107
1.77633	-108
1.78000	-109
1.78367	-111
1.78733	-111
1.79100	-112
1.79467	-113
1.79833	-113
1.80200	-114
1.80567	-114
1.80933	-114
1.81300	-114
1.81667	-114
1.82033	-114
1.82400	-114
1.82767	-114
1.83133	-114
1.83500	-113
1.83867	-113
1.84233	-113
1.84600	-113
1.84967	-113
1.85333	-113
1.85700	-113
1.86067	-113
1.86433	-113
1.86800	-112
1.87167	-112
1.87533	-112
1.87900	-112
1.88267	-112
1.88633	-112
1.89000	-112
1.89367	-112
1.89733	-112
1.90100	-111
1.90467	-111
1.90833	-111
1.91200	-111
1.91567	-111
1.91933	-111
1.92300	-112
1.92667	-112
1.93033	-112
1.93400	-112
1.93767	-112
1.94133	-111
1.94500	-111
1.94867	-111
1.95233	-111
1.95600	-111
1.95967	-110
1.96333	-109
1.96700	-109
1.97067	-108
1.97433	-108
1.97800	-107
1.98167	-107
1.98533	-106
1.98900	-106
1.99267	-106
1.99633	-105
2.00000	-105
2.00367	-105
2.00733	-105
2.01100	-105
2.01467	-105
2.01833	-105
2.02200	-104
2.02567	-103
2.02933	-102
2.03300	-101
2.03667	-101
2.04033	-101
2.04400	-101
2.04767	-101
2.05133	-100
2.05500	-100
2.05867	-100
2.06233	-100
2.06600	-99
2.06967	-99
2.07333	-99
2.07700	-99
2.08067	-99
2.08433	-99
2.08800	-99
2.09167	-100
2.09533	-100
2.09900	-100
2.10267	-100
2.10633	-100
2.11000	-99
2.11367	-99
2.11733	-98
2.12100	-97
2.12467	-97
2.12833	-97
2.13200	-97
2.13567	-96
2.13933	-96
2.14300	-96
2.14667	-96
2.15033	-96
2.15400	-96
2.15767	-95
2.16133	-95
2.16500	-94
2.16867	-93
2.17233	-92
2.17600	-90
2.17967	-90
2.18333	-89
2.18700	-89
2.19067	-89
2.19433	-88
2.19800	-88
2.20167	-87
2.20533	-87
2.20900	-86
2.21267	-86
2.21633	-85
2.22000	-84
2.22367	-84
2.22733	-84
2.23100	-83
2.23467	-84
2.23833	-84
2.24200	-84
2.24567	-85
2.24933	-85
2.25300	-85
2.25667	-85
2.26033	-84
2.26400	-84
2.26767	-83
2.27133	-83
2.27500	-82
2.27867	-82
2.28233	-81
2.28600	-81
2.28967	-80
2.29333	-80
2.29700	-80
2.30067	-80
2.30433	-80
2.30800	-80
2.31167	-79
2.31533	-79
2.31900	-80
2.32267	-80
2.32633	-80
2.33000	-80
2.33367	-79
2.33733	-79
2.34100	-77
2.34467	-76
2.34833	-74
2.35200	-73
2.35567	-72
2.35933	-71
2.36300	-70
2.36667	-68
2.37033	-67
2.37400	-65
2.37767	-62
2.38133	-59
2.38500	-56
2.38867	-52
2.39233	-48
2.39600	-44
2.39967	-39
2.40333	-35
2.40700	-31
2.41067	-26
2.41433	-22
2.41800	-19
2.42167	-16
2.42533	-14
2.42900	-13
2.43267	-12
2.43633	-11
2.44000	-9
2.44367	-8
2.44733	-7
2.45100	-6
2.45467	-5
2.45833	-4
2.46200	-4
2.46567	-3
2.46933	-2
2.47300	-1
2.47667	-0
2.48033	1
2.48400	2
2.48767	3
2.49133	4
2.49500	6
2.49867	7
2.50233	8
2.50600	8
2.50967	9
2.51333	10
2.51700	10
2.52067	11
2.52433	11
2.52800	12
2.53167	12
2.53533	13
2.53900	14
2.54267	14
2.54633	15
2.55000	16
2.55367	17
2.55733	17
2.56100	17
2.56467	16
2.56833	16
2.57200	16
2.57567	16
2.57933	16
2.58300	16
2.58667	17
2.59033	17
2.59400	17
2.59767	18
2.60133	18
2.60500	18
2.60867	19
2.61233	19
2.61600	20
2.61967	20
2.62333	20
2.62700	21
2.63067	21
2.63433	21
2.63800	21
2.64167	21
2.64533	21
2.64900	21
2.65267	21
2.65633	21
2.66000	21
2.66367	22
2.66733	22
2.67100	22
2.67467	22
2.67833	22
2.68200	22
2.68567	22
2.68933	22
2.69300	21
2.69667	21
2.70033	21
2.70400	22
2.70767	22
2.71133	23
2.71500	24
2.71867	25
2.72233	26
2.72600	27
2.72967	28
2.73333	28
2.73700	29
2.74067	29
2.74433	29
2.74800	29
2.75167	30
2.75533	30
2.75900	30
2.76267	29
2.76633	29
2.77000	29
2.77367	28
2.77733	28
2.78100	28
2.78467	27
2.78833	27
2.79200	27
2.79567	27
2.79933	26
2.80300	27
2.80667	27
2.81033	27
2.81400	26
2.81767	27
2.82133	27
2.82500	27
2.82867	28
2.83233	28
2.83600	28
2.83967	27
2.84333	26
2.84700	22
2.85067	17
2.85433	9
2.85800	-3
2.86167	-18
2.86533	-37
2.86900	-61
2.87267	-89
2.87633	-122
2.88000	-158
2.88367	-199
2.88733	-243
2.89100	-290
2.89467	-340
2.89833	-392
2.90200	-445
2.90567	-500
2.90933	-556
2.91300	-611
2.91667	-666
2.92033	-721
2.92400	-773
2.92767	-825
2.93133	-877
2.93500	-932
2.93867	-991
2.94233	-1045
2.94600	-1084
2.94967	-1099
2.95333	-1088
2.95700	-1052
2.96067	-997
2.96433	-928
2.96800	-851
2.97167	-770
2.97533	-690
2.97900	-612
2.98267	-538
2.98633	-470
2.99000	-409
2.99367	-353
2.99733	-304
3.00100	-260
3.00467	-222
3.00833	-188
3.01200	-159
3.01567	-133
3.01933	-111
3.02300	-93
3.02667	-76
3.03033	-63
3.03400	-51
3.03767	-41
3.04133	-33
3.04500	-26
3.04867	-20
3.05233	-14
3.05600	-10
3.05967	-6
3.06333	-3
3.06700	0
3.07067	2
3.07433	4
3.07800	6
3.08167	7
3.08533	9
3.08900	10
3.09267	11
3.09633	12
3.10000	13
3.10367	14
3.10733	15
3.11100	16
3.11467	17
3.11833	17
3.12200	18
3.12567	19
3.12933	19
3.13300	20
3.13667	20
3.14033	20
3.14400	20
3.14767	20
3.15133	20
3.15500	20
3.15867	20
3.16233	21
3.16600	21
3.16967	21
3.17333	22
3.17700	22
3.18067	22
3.18433	23
3.18800	23
3.19167	23
3.19533	23
3.19900	23
3.20267	24
3.20633	24
3.21000	24
3.21367	24
3.21733	25
3.22100	25
3.22467	25
3.22833	25
3.23200	26
3.23567	26
3.23933	26
3.24300	26
3.24667	26
3.25033	26
3.25400	26
3.25767	26
3.26133	26
3.26500	27
3.26867	27
3.27233	27
3.27600	27
3.27967	27
3.28333	27
3.28700	27
3.29067	27
3.29433	28
3.29800	28
3.30167	28
3.30533	28
3.30900	28
3.31267	28
3.31633	28
3.32000	28
3.32367	28
3.32733	27
3.33100	27
3.33467	27
3.33833	27
3.34200	28
3.34567	28
3.34933	28
3.35300	29
3.35667	29
3.36033	29
3.36400	29
3.36767	29
3.37133	30
3.37500	30
3.37867	30
3.38233	30
3.38600	31
3.38967	31
3.39333	31
3.39700	31
3.40067	32
3.40433	32
3.40800	32
3.41167	32
3.41533	32
3.41900	32
3.42267	32
3.42633	32
3.43000	32
3.43367	31
3.43733	31
3.44100	31
3.44467	31
3.44833	31
3.45200	31
3.45567	31
3.45933	31
3.46300	30
3.46667	30
3.47033	31
3.47400	30
3.47767	30
3.48133	30
3.48500	30
3.48867	30
3.49233	30
3.49600	30
3.49967	30
3.50333	30
3.50700	30
3.51067	30
3.51433	30
3.51800	30
3.52167	30
3.52533	31
3.52900	31
3.53267	31
3.53633	31
3.54000	31
3.54367	31
3.54733	31
3.55100	30
3.55467	30
3.55833	30
3.56200	30
3.56567	30
3.56933	30
3.57300	30
3.57667	30
3.58033	30
3.58400	30
3.58767	30
3.59133	30
3.59500	30
3.59867	30
3.60233	30
3.60600	30
3.60967	30
3.61333	30
3.61700	30
3.62067	30
3.62433	30
3.62800	30
3.63167	30
3.63533	30
3.63900	30
3.64267	30
3.64633	30
3.65000	30
3.65367	30
3.65733	30
3.66100	30
3.66467	30
3.66833	30
3.67200	30
3.67567	30
3.67933	30
3.68300	30
3.68667	30
3.69033	29
3.69400	29
3.69767	29
3.70133	29
3.70500	29
3.70867	29
3.71233	29
3.71600	29
3.71967	29
3.72333	29
3.72700	29
3.73067	29
3.73433	28
3.73800	28
3.74167	28
3.74533	28
3.74900	28
3.75267	28
3.75633	28
3.76000	28
3.76367	28
3.76733	28
3.77100	28
3.77467	28
3.77833	28
3.78200	29
3.78567	29
3.78933	29
3.79300	29
3.79667	29
3.80033	29
3.80400	29
3.80767	29
3.81133	29
3.81500	29
3.81867	30
3.82233	30
3.82600	30
3.82967	30
3.83333	30
3.83700	30
3.84067	31
3.84433	31
3.84800	31
3.85167	31
3.85533	31
3.85900	31
3.86267	31
3.86633	31
3.87000	31
3.87367	31
3.87733	31
3.88100	31
3.88467	30
3.88833	30
3.89200	30
3.89567	29
3.89933	29
3.90300	29
3.90667	29
3.91033	29
3.91400	29
3.91767	28
3.92133	28
3.92500	28
3.92867	28
3.93233	28
3.93600	29
3.93967	29
3.94333	29
3.94700	29
3.95067	29
3.95433	29
3.95800	29
3.96167	30
3.96533	30
3.96900	30
3.97267	30
3.97633	31
3.98000	31
3.98367	31
3.98733	31
3.99100	31
3.99467	31
3.99833	31

[Chromatogram (Ch3)]
Interval(msec)	220
# of Points	1091
Start Time(min)	0.002
End Time(min)	3.998
R.Time (min)	Intensity
0.00167	-1
0.00533	-1
0.00900	-1
0.01267	0
0.01633	2
0.02000	4
0.02367	2
0.02733	-0
0.03100	-2
0.03467	-4
0.03833	-2
0.04200	-1
0.04567	-1
0.04933	-1
0.05300	-3
0.05667	-4
0.06033	-6
0.06400	-5
0.06767	-3
0.07133	-1
0.07500	-1
0.07867	-0
0.08233	1
0.08600	-1
0.08967	-2
0.09333	-2
0.09700	-2
0.10067	-0
0.10433	0
0.10800	-1
0.11167	-2
0.11533	-3
0.11900	-4
0.12267	-3
0.12633	-2
0.13000	-2
0.13367	-3
0.13733	-5
0.14100	-3
0.14467	-2
0.14833	-1
0.15200	-2
0.15567	-3
0.15933	-2
0.16300	-3
0.16667	-4
0.17033	-7
0.17400	-6
0.17767	-3
0.18133	-1
0.18500	-1
0.18867	-1
0.19233	2
0.19600	5
0.19967	4
0.20333	2
0.20700	2
0.21067	3
0.21433	2
0.21800	1
0.22167	2
0.22533	2
0.22900	-0
0.23267	-2
0.23633	-3
0.24000	-5
0.24367	-5
0.24733	-6
0.25100	-6
0.25467	-6
0.25833	-7
0.26200	-7
0.26567	-8
0.26933	-8
0.27300	-9
0.27667	-10
0.28033	-7
0.28400	-5
0.28767	-7
0.29133	-9
0.29500	-9
0.29867	-9
0.30233	-9
0.30600	-8
0.30967	-7
0.31333	-6
0.31700	-5
0.32067	-4
0.32433	-4
0.32800	-7
0.33167	-7
0.33533	-7
0.33900	-5
0.34267	-5
0.34633	-4
0.35000	-3
0.35367	-3
0.35733	-5
0.36100	-6
0.36467	-5
0.36833	-3
0.37200	-3
0.37567	-2
0.37933	-2
0.38300	-1
0.38667	-2
0.39033	-5
0.39400	-6
0.39767	-4
0.40133	-2
0.40500	-2
0.40867	-1
0.41233	0
0.41600	-2
0.41967	-3
0.42333	-3
0.42700	-3
0.43067	-1
0.43433	-0
0.43800	0
0.44167	0
0.44533	-2
0.44900	-5
0.45267	-6
0.45633	-7
0.46000	-8
0.46367	-9
0.46733	-8
0.47100	-6
0.47467	-5
0.47833	-4
0.48200	-4
0.48567	-3
0.48933	-4
0.49300	-4
0.49667	-1
0.50033	2
0.50400	2
0.50767	1
0.51133	-1
0.51500	-4
0.51867	-5
0.52233	-4
0.52600	-3
0.52967	-3
0.53333	-0
0.53700	1
0.54067	3
0.54433	3
0.54800	-1
0.55167	-3
0.55533	-4
0.55900	-6
0.56267	-6
0.56633	-5
0.57000	-4
0.57367	-5
0.57733	-6
0.58100	-5
0.58467	-4
0.58833	-6
0.59200	-6
0.59567	-5
0.59933	-4
0.60300	-4
0.60667	-4
0.61033	-5
0.61400	-5
0.61767	-4
0.62133	-3
0.62500	-3
0.62867	-1
0.63233	1
0.63600	3
0.63967	4
0.64333	2
0.64700	-1
0.65067	-2
0.65433	-3
0.65800	-4
0.66167	-5
0.66533	-6
0.66900	-6
0.67267	-6
0.67633	-4
0.68000	-4
0.68367	-4
0.68733	-5
0.69100	-6
0.69467	-5
0.69833	-2
0.70200	-1
0.70567	-1
0.70933	-0
0.71300	1
0.71667	1
0.72033	1
0.72400	-1
0.72767	-1
0.73133	-0
0.73500	0
0.73867	2
0.74233	2
0.74600	1
0.74967	-0
0.75333	0
0.75700	0
0.76067	2
0.76433	3
0.76800	3
0.77167	2
0.77533	-1
0.77900	-2
0.78267	-3
0.78633	-1
0.79000	1
0.79367	3
0.79733	3
0.80100	2
0.80467	2
0.80833	3
0.81200	1
0.81567	2
0.81933	2
0.82300	2
0.82667	1
0.83033	1
0.83400	3
0.83767	5
0.84133	5
0.84500	6
0.84867	6
0.85233	6
0.85600	7
0.85967	7
0.86333	7
0.86700	9
0.87067	8
0.87433	5
0.87800	2
0.88167	1
0.88533	2
0.88900	4
0.89267	5
0.89633	3
0.90000	5
0.90367	5
0.90733	6
0.91100	7
0.91467	9
0.91833	7
0.92200	7
0.92567	5
0.92933	6
0.93300	5
0.93667	4
0.94033	4
0.94400	3
0.94767	3
0.95133	2
0.95500	2
0.95867	1
0.96233	-1
0.96600	-1
0.96967	-0
0.97333	2
0.97700	4
0.98067	5
0.98433	6
0.98800	6
0.99167	5
0.99533	5
0.99900	3
1.00267	3
1.00633	3
1.01000	0
1.01367	0
1.01733	3
1.02100	5
1.02467	7
1.02833	8
1.03200	8
1.03567	8
1.03933	8
1.04300	8
1.04667	6
1.05033	6
1.05400	8
1.05767	7
1.06133	6
1.06500	7
1.06867	9
1.07233	10
1.07600	10
1.07967	12
1.08333	13
1.08700	13
1.09067	12
1.09433	10
1.09800	9
1.10167	9
1.10533	8
1.10900	8
1.11267	6
1.11633	8
1.12000	7
1.12367	7
1.12733	8
1.13100	10
1.13467	12
1.13833	13
1.14200	13
1.14567	13
1.14933	11
1.15300	10
1.15667	9
1.16033	11
1.16400	10
1.16767	8
1.17133	7
1.17500	6
1.17867	5
1.18233	5
1.18600	7
1.18967	9
1.19333	9
1.19700	7
1.20067	7
1.20433	6
1.20800	5
1.21167	3
1.21533	0
1.21900	-2
1.22267	-3
1.22633	-2
1.23000	-1
1.23367	-1
1.23733	1
1.24100	5
1.24467	7
1.24833	5
1.25200	3
1.25567	4
1.25933	7
1.26300	9
1.26667	11
1.27033	11
1.27400	11
1.27767	10
1.28133	8
1.28500	7
1.28867	6
1.29233	7
1.29600	8
1.29967	10
1.30333	11
1.30700	10
1.31067	7
1.31433	6
1.31800	7
1.32167	9
1.32533	7
1.32900	7
1.33267	6
1.33633	9
1.34000	10
1.34367	11
1.34733	11
1.35100	11
1.35467	10
1.35833	11
1.36200	11
1.36567	11
1.36933	12
1.37300	11
1.37667	7
1.38033	4
1.38400	5
1.38767	6
1.39133	6
1.39500	7
1.39867	9
1.40233	10
1.40600	11
1.40967	12
1.41333	11
1.41700	10
1.42067	9
1.42433	8
1.42800	8
1.43167	8
1.43533	8
1.43900	8
1.44267	7
1.44633	6
1.45000	4
1.45367	3
1.45733	4
1.46100	5
1.46467	5
1.46833	5
1.47200	6
1.47567	9
1.47933	10
1.48300	8
1.48667	5
1.49033	3
1.49400	2
1.49767	3
1.50133	4
1.50500	3
1.50867	3
1.51233	-0
1.51600	-2
1.51967	-3
1.52333	-2
1.52700	0
1.53067	3
1.53433	4
1.53800	4
1.54167	4
1.54533	3
1.54900	3
1.55267	5
1.55633	5
1.56000	5
1.56367	4
1.56733	4
1.57100	7
1.57467	10
1.57833	12
1.58200	12
1.58567	9
1.58933	6
1.59300	6
1.59667	5
1.60033	3
1.60400	4
1.60767	5
1.61133	5
1.61500	6
1.61867	7
1.62233	8
1.62600	7
1.62967	7
1.63333	7
1.63700	6
1.64067	8
1.64433	8
1.64800	9
1.65167	11
1.65533	11
1.65900	9
1.66267	7
1.66633	7
1.67000	8
1.67367	10
1.67733	13
1.68100	15
1.68467	15
1.68833	15
1.69200	14
1.69567	16
1.69933	18
1.70300	19
1.70667	20
1.71033	22
1.71400	21
1.71767	21
1.72133	23
1.72500	23
1.72867	21
1.73233	18
1.73600	15
1.73967	15
1.74333	15
1.74700	16
1.75067	19
1.75433	19
1.75800	20
1.76167	22
1.76533	23
1.76900	22
1.77267	22
1.77633	22
1.78000	24
1.78367	24
1.78733	25
1.79100	27
1.79467	27
1.79833	26
1.80200	25
1.80567	25
1.80933	24
1.81300	24
1.81667	24
1.82033	24
1.82400	25
1.82767	24
1.83133	24
1.83500	26
1.83867	28
1.84233	28
1.84600	30
1.84967	31
1.85333	33
1.85700	33
1.86067	34
1.86433	35
1.86800	34
1.87167	32
1.87533	32
1.87900	32
1.88267	30
1.88633	31
1.89000	32
1.89367	35
1.89733	38
1.90100	38
1.90467	39
1.90833	40
1.91200	40
1.91567	40
1.91933	40
1.92300	40
1.92667	39
1.93033	39
1.93400	40
1.93767	41
1.94133	42
1.94500	43
1.94867	42
1.95233	41
1.95600	41
1.95967	42
1.96333	42
1.96700	42
1.97067	44
1.97433	46
1.97800	47
1.98167	47
1.98533	47
1.98900	48
1.99267	49
1.99633	49
2.00000	48
2.00367	49
2.00733	51
2.01100	55
2.01467	56
2.01833	57
2.02200	59
2.02567	59
2.02933	60
2.03300	59
2.03667	58
2.04033	58
2.04400	59
2.04767	61
2.05133	61
2.05500	62
2.05867	66
2.06233	68
2.06600	65
2.06967	65
2.07333	66
2.07700	66
2.08067	65
2.08433	64
2.08800	65
2.09167	67
2.09533	68
2.09900	69
2.10267	67
2.10633	67
2.11000	71
2.11367	74
2.11733	75
2.12100	75
2.12467	77
2.12833	78
2.13200	78
2.13567	79
2.13933	81
2.14300	82
2.14667	82
2.15033	82
2.15400	83
2.15767	84
2.16133	84
2.16500	84
2.16867	85
2.17233	89
2.17600	92
2.17967	92
2.18333	93
2.18700	97
2.19067	99
2.19433	98
2.19800	97
2.20167	98
2.20533	98
2.20900	98
2.21267	97
2.21633	97
2.22000	100
2.22367	103
2.22733	105
2.23100	108
2.23467	111
2.23833	112
2.24200	112
2.24567	112
2.24933	112
2.25300	111
2.25667	111
2.26033	115
2.26400	118
2.26767	121
2.27133	121
2.27500	122
2.27867	123
2.28233	123
2.28600	122
2.28967	123
2.29333	125
2.29700	127
2.30067	127
2.30433	129
2.30800	131
2.31167	133
2.31533	136
2.31900	139
2.32267	141
2.32633	143
2.33000	145
2.33367	146
2.33733	147
2.34100	150
2.34467	153
2.34833	154
2.35200	154
2.35567	154
2.35933	155
2.36300	158
2.36667	160
2.37033	160
2.37400	161
2.37767	164
2.38133	168
2.38500	171
2.38867	174
2.39233	174
2.39600	177
2.39967	182
2.40333	186
2.40700	191
2.41067	195
2.41433	196
2.41800	199
2.42167	201
2.42533	203
2.42900	206
2.43267	209
2.43633	215
2.44000	221
2.44367	267
2.44733	386
2.45100	520
2.45467	633
2.45833	706
2.46200	727
2.46567	710
2.46933	683
2.47300	660
2.47667	648
2.48033	642
2.48400	633
2.48767	614
2.49133	584
2.49500	550
2.49867	519
2.50233	493
2.50600	477
2.50967	467
2.51333	463
2.51700	467
2.52067	477
2.52433	491
2.52800	510
2.53167	524
2.53533	530
2.53900	532
2.54267	525
2.54633	511
2.55000	492
2.55367	473
2.55733	454
2.56100	437
2.56467	422
2.56833	408
2.57200	397
2.57567	391
2.57933	389
2.58300	389
2.58667	389
2.59033	390
2.59400	389
2.59767	386
2.60133	382
2.60500	375
2.60867	364
2.61233	352
2.61600	338
2.61967	323
2.62333	310
2.62700	299
2.63067	291
2.63433	287
2.63800	286
2.64167	291
2.64533	296
2.64900	303
2.65267	311
2.65633	319
2.66000	326
2.66367	329
2.66733	330
2.67100	329
2.67467	327
2.67833	324
2.68200	320
2.68567	318
2.68933	314
2.69300	311
2.69667	308
2.70033	304
2.70400	297
2.70767	292
2.71133	287
2.71500	285
2.71867	284
2.72233	283
2.72600	280
2.72967	277
2.73333	278
2.73700	279
2.74067	281
2.74433	283
2.74800	284
2.75167	283
2.75533	282
2.75900	282
2.76267	284
2.76633	287
2.77000	288
2.77367	288
2.77733	287
2.78100	286
2.78467	286
2.78833	287
2.79200	287
2.79567	288
2.79933	289
2.80300	289
2.80667	290
2.81033	291
2.81400	292
2.81767	293
2.82133	300
2.82500	320
2.82867	364
2.83233	448
2.83600	598
2.83967	839
2.84333	1184
2.84700	1636
2.85067	2183
2.85433	2795
2.85800	3428
2.86167	4028
2.86533	4550
2.86900	4950
2.87267	5201
2.87633	5299
2.88000	5254
2.88367	5090
2.88733	4834
2.89100	4511
2.89467	4156
2.89833	3790
2.90200	3431
2.90567	3086
2.90933	2762
2.91300	2466
2.91667	2198
2.92033	1958
2.92400	1743
2.92767	1556
2.93133	1392
2.93500	1249
2.93867	1122
2.94233	1012
2.94600	917
2.94967	834
2.95333	763
2.95700	701
2.96067	649
2.96433	604
2.96800	563
2.97167	528
2.97533	495
2.97900	466
2.98267	442
2.98633	421
2.99000	403
2.99367	388
2.99733	373
3.00100	362
3.00467	350
3.00833	338
3.01200	327
3.01567	317
3.01933	311
3.02300	307
3.02667	303
3.03033	298
3.03400	291
3.03767	286
3.04133	280
3.04500	273
3.04867	268
3.05233	265
3.05600	264
3.05967	264
3.06333	263
3.06700	261
3.07067	259
3.07433	258
3.07800	256
3.08167	256
3.08533	255
3.08900	254
3.09267	253
3.09633	252
3.10000	250
3.10367	249
3.10733	248
3.11100	251
3.11467	250
3.11833	247
3.12200	245
3.12567	244
3.12933	244
3.13300	245
3.13667	245
3.14033	244
3.14400	245
3.14767	246
3.15133	249
3.15500	246
3.15867	245
3.16233	244
3.16600	245
3.16967	247
3.17333	248
3.17700	248
3.18067	249
3.18433	248
3.18800	245
3.19167	243
3.19533	244
3.19900	244
3.20267	244
3.20633	244
3.21000	246
3.21367	247
3.21733	249
3.22100	251
3.22467	252
3.22833	252
3.23200	254
3.23567	256
3.23933	249
3.24300	241
3.24667	237
3.25033	241
3.25400	254
3.25767	273
3.26133	297
3.26500	325
3.26867	353
3.27233	378
3.27600	404
3.27967	428
3.28333	452
3.28700	472
3.29067	492
3.29433	511
3.29800	526
3.30167	541
3.30533	555
3.30900	567
3.31267	579
3.31633	589
3.32000	599
3.32367	608
3.32733	617
3.33100	625
3.33467	630
3.33833	635
3.34200	639
3.34567	644
3.34933	649
3.35300	654
3.35667	660
3.36033	667
3.36400	672
3.36767	676
3.37133	680
3.37500	688
3.37867	694
3.38233	699
3.38600	702
3.38967	705
3.39333	707
3.39700	709
3.40067	710
3.40433	710
3.40800	712
3.41167	713
3.41533	716
3.41900	720
3.42267	722
3.42633	724
3.43000	723
3.43367	720
3.43733	717
3.44100	715
3.44467	713
3.44833	713
3.45200	713
3.45567	713
3.45933	712
3.46300	712
3.46667	712
3.47033	711
3.47400	708
3.47767	705
3.48133	704
3.48500	703
3.48867	702
3.49233	703
3.49600	704
3.49967	700
3.50333	696
3.50700	694
3.51067	691
3.51433	690
3.51800	688
3.52167	686
3.52533	683
3.52900	679
3.53267	676
3.53633	674
3.54000	674
3.54367	675
3.54733	676
3.55100	674
3.55467	670
3.55833	667
3.56200	665
3.56567	666
3.56933	664
3.57300	662
3.57667	660
3.58033	659
3.58400	659
3.58767	657
3.59133	656
3.59500	656
3.59867	656
3.60233	653
3.60600	648
3.60967	644
3.61333	643
3.61700	642
3.62067	641
3.62433	641
3.62800	641
3.63167	641
3.63533	639
3.63900	639
3.64267	638
3.64633	635
3.65000	631
3.65367	631
3.65733	630
3.66100	630
3.66467	629
3.66833	629
3.67200	628
3.67567	624
3.67933	620
3.68300	620
3.68667	620
3.69033	620
3.69400	619
3.69767	619
3.70133	621
3.70500	623
3.70867	622
3.71233	622
3.71600	624
3.71967	624
3.72333	623
3.72700	620
3.73067	619
3.73433	618
3.73800	619
3.74167	621
3.74533	621
3.74900	619
3.75267	615
3.75633	614
3.76000	614
3.76367	614
3.76733	614
3.77100	612
3.77467	612
3.77833	611
3.78200	612
3.78567	613
3.78933	614
3.79300	614
3.79667	614
3.80033	615
3.80400	615
3.80767	612
3.81133	612
3.81500	613
3.81867	614
3.82233	612
3.82600	612
3.82967	611
3.83333	610
3.83700	609
3.84067	609
3.84433	609
3.84800	609
3.85167	609
3.85533	609
3.85900	609
3.86267	608
3.86633	606
3.87000	604
3.87367	602
3.87733	600
3.88100	598
3.88467	598
3.88833	597
3.89200	598
3.89567	598
3.89933	599
3.90300	602
3.90667	604
3.91033	602
3.91400	602
3.91767	600
3.92133	594
3.92500	588
3.92867	586
3.93233	584
3.93600	583
3.93967	583
3.94333	584
3.94700	584
3.95067	587
3.95433	588
3.95800	591
3.96167	591
3.96533	589
3.96900	585
3.97267	582
3.97633	579
3.98000	578
3.98367	576
3.98733	574
3.99100	571
3.99467	568
3.99833	564

[Status Trace (Column Oven Temperature)]
Interval(msec)	1000
# of Points	240
Start Time(min)	0.008
End Time(min)	3.991
Intensity Units	
Intensity Multiplier	1
R.Time (min)	Intensity
0.00768	35.05
0.02435	35.03
0.04102	35.03
0.05768	35.02
0.07435	35.03
0.09102	35.04
0.10768	35.06
0.12435	35.05
0.14102	35.05
0.15768	35.05
0.17435	35.04
0.19102	35.03
0.20768	35.01
0.22435	35.00
0.24102	35.00
0.25768	34.98
0.27435	34.97
0.29102	34.97
0.30768	34.98
0.32435	34.98
0.34102	34.99
0.35768	34.99
0.37435	35.00
0.39102	35.00
0.40768	35.01
0.42435	34.99
0.44102	34.99
0.45768	34.98
0.47435	34.99
0.49102	35.00
0.50768	34.98
0.52435	34.99
0.54102	35.00
0.55768	35.01
0.57435	35.01
0.59102	35.00
0.60768	34.99
0.62435	34.98
0.64102	34.98
0.65768	34.98
0.67435	34.99
0.69102	34.99
0.70768	35.00
0.72435	35.00
0.74102	35.00
0.75768	35.00
0.77435	35.01
0.79102	35.02
0.80768	35.02
0.82435	35.02
0.84102	35.02
0.85768	35.02
0.87435	35.00
0.89102	34.99
0.90768	34.98
0.92435	34.97
0.94102	34.96
0.95768	34.96
0.97435	34.96
0.99102	34.96
1.00768	34.96
1.02435	34.96
1.04102	34.96
1.05768	34.97
1.07435	34.97
1.09102	34.97
1.10768	34.98
1.12435	34.98
1.14102	34.98
1.15768	34.97
1.17435	34.96
1.19102	34.97
1.20768	34.98
1.22435	34.98
1.24102	34.98
1.25768	34.98
1.27435	34.99
1.29102	35.02
1.30768	35.03
1.32435	35.02
1.34102	35.00
1.35768	34.99
1.37435	34.99
1.39102	35.00
1.40768	35.00
1.42435	35.00
1.44102	34.99
1.45768	34.97
1.47435	34.96
1.49102	34.96
1.50768	34.97
1.52435	34.97
1.54102	34.99
1.55768	34.99
1.57435	34.98
1.59102	35.00
1.60768	35.05
1.62435	35.16
1.64102	35.34
1.65768	35.60
1.67435	35.97
1.69102	36.33
1.70768	36.68
1.72435	37.03
1.74102	37.34
1.75768	37.64
1.77435	37.99
1.79102	38.33
1.80768	38.66
1.82435	39.00
1.84102	39.31
1.85768	39.64
1.87435	39.97
1.89102	40.31
1.90768	40.65
1.92435	40.98
1.94102	41.30
1.95768	41.64
1.97435	41.96
1.99102	42.28
2.00768	42.63
2.02435	42.94
2.04102	43.26
2.05768	43.57
2.07435	43.89
2.09102	44.24
2.10768	44.56
2.12435	44.89
2.14102	45.22
2.15768	45.55
2.17435	45.86
2.19102	46.20
2.20768	46.51
2.22435	46.83
2.24102	47.17
2.25768	47.52
2.27435	47.84
2.29102	48.17
2.30768	48.50
2.32435	48.85
2.34102	49.14
2.35768	49.43
2.37435	49.64
2.39102	49.70
2.40768	49.69
2.42435	49.70
2.44102	49.69
2.45768	49.71
2.47435	49.72
2.49102	49.74
2.50768	49.75
2.52435	49.78
2.54102	49.78
2.55768	49.79
2.57435	49.81
2.59102	49.81
2.60768	49.82
2.62435	49.81
2.64102	49.83
2.65768	49.84
2.67435	49.84
2.69102	49.87
2.70768	49.88
2.72435	49.86
2.74102	49.84
2.75768	49.85
2.77435	49.87
2.79102	49.87
2.80768	49.88
2.82435	49.89
2.84102	49.89
2.85768	49.89
2.87435	49.89
2.89102	49.90
2.90768	49.91
2.92435	49.92
2.94102	49.96
2.95768	49.97
2.97435	49.99
2.99102	49.99
3.00768	50.00
3.02435	50.00
3.04102	50.01
3.05768	50.03
3.07435	50.05
3.09102	50.06
3.10768	50.07
3.12435	50.07
3.14102	50.08
3.15768	50.09
3.17435	50.09
3.19102	50.10
3.20768	50.09
3.22435	50.09
3.24102	50.10
3.25768	50.10
3.27435	50.10
3.29102	50.10
3.30768	50.09
3.32435	50.10
3.34102	50.10
3.35768	50.10
3.37435	50.08
3.39102	50.07
3.40768	50.05
3.42435	50.04
3.44102	50.04
3.45768	50.03
3.47435	50.04
3.49102	50.04
3.50768	50.04
3.52435	50.03
3.54102	50.02
3.55768	50.03
3.57435	50.02
3.59102	50.03
3.60768	50.02
3.62435	50.03
3.64102	50.03
3.65768	50.04
3.67435	50.03
3.69102	50.03
3.70768	50.04
3.72435	50.05
3.74102	50.06
3.75768	50.07
3.77435	50.07
3.79102	50.07
3.80768	50.07
3.82435	50.06
3.84102	50.06
3.85768	50.05
3.87435	50.05
3.89102	50.06
3.90768	50.06
3.92435	50.07
3.94102	50.06
3.95768	50.06
3.97435	50.05
3.99102	50.05

[Status Trace (Injection Unit Temperature)]
Interval(msec)	1000
# of Points	240
Start Time(min)	0.008
End Time(min)	3.991
Intensity Units	
Intensity Multiplier	1
R.Time (min)	Intensity
0.00768	99.98
0.02435	99.98
0.04102	99.99
0.05768	99.98
0.07435	99.98
0.09102	99.98
0.10768	99.98
0.12435	99.98
0.14102	99.98
0.15768	99.98
0.17435	99.98
0.19102	99.98
0.20768	99.98
0.22435	99.98
0.24102	99.99
0.25768	99.98
0.27435	99.98
0.29102	99.99
0.30768	99.98
0.32435	99.98
0.34102	99.99
0.35768	99.98
0.37435	99.98
0.39102	99.98
0.40768	99.98
0.42435	99.98
0.44102	99.99
0.45768	99.99
0.47435	99.99
0.49102	99.98
0.50768	99.98
0.52435	99.98
0.54102	99.98
0.55768	99.98
0.57435	99.98
0.59102	99.98
0.60768	99.98
0.62435	99.98
0.64102	99.98
0.65768	99.98
0.67435	99.98
0.69102	99.98
0.70768	99.98
0.72435	99.98
0.74102	99.98
0.75768	99.98
0.77435	99.98
0.79102	99.98
0.80768	99.98
0.82435	99.98
0.84102	99.98
0.85768	99.98
0.87435	99.98
0.89102	99.98
0.90768	99.98
0.92435	99.98
0.94102	99.98
0.95768	99.98
0.97435	99.98
0.99102	99.98
1.00768	99.98
1.02435	99.98
1.04102	99.98
1.05768	99.98
1.07435	99.97
1.09102	99.98
1.10768	99.97
1.12435	99.97
1.14102	99.97
1.15768	99.98
1.17435	99.98
1.19102	99.97
1.20768	99.97
1.22435	99.98
1.24102	99.97
1.25768	99.98
1.27435	99.98
1.29102	99.98
1.30768	99.98
1.32435	99.98
1.34102	99.98
1.35768	99.98
1.37435	99.98
1.39102	99.98
1.40768	99.98
1.42435	99.98
1.44102	99.98
1.45768	99.98
1.47435	99.98
1.49102	99.98
1.50768	99.98
1.52435	99.98
1.54102	99.99
1.55768	99.97
1.57435	99.98
1.59102	99.98
1.60768	99.98
1.62435	99.98
1.64102	99.98
1.65768	99.98
1.67435	99.99
1.69102	99.98
1.70768	99.98
1.72435	99.98
1.74102	99.98
1.75768	99.98
1.77435	99.98
1.79102	99.98
1.80768	99.98
1.82435	99.98
1.84102	99.98
1.85768	99.98
1.87435	99.98
1.89102	99.98
1.90768	99.98
1.92435	99.98
1.94102	99.98
1.95768	99.98
1.97435	99.98
1.99102	99.98
2.00768	99.98
2.02435	99.98
2.04102	99.98
2.05768	99.98
2.07435	99.97
2.09102	99.98
2.10768	99.97
2.12435	99.97
2.14102	99.97
2.15768	99.97
2.17435	99.97
2.19102	99.97
2.20768	99.97
2.22435	99.97
2.24102	99.97
2.25768	99.97
2.27435	99.97
2.29102	99.97
2.30768	99.97
2.32435	99.97
2.34102	99.96
2.35768	99.97
2.37435	99.96
2.39102	99.97
2.40768	99.96
2.42435	99.97
2.44102	99.96
2.45768	99.97
2.47435	99.97
2.49102	99.97
2.50768	99.97
2.52435	99.97
2.54102	99.97
2.55768	99.97
2.57435	99.97
2.59102	99.97
2.60768	99.98
2.62435	99.97
2.64102	99.98
2.65768	99.98
2.67435	99.98
2.69102	99.99
2.70768	99.99
2.72435	99.99
2.74102	99.99
2.75768	100.00
2.77435	99.99
2.79102	100.00
2.80768	99.99
2.82435	100.00
2.84102	100.00
2.85768	100.00
2.87435	100.00
2.89102	100.00
2.90768	100.00
2.92435	100.00
2.94102	100.01
2.95768	100.01
2.97435	100.01
2.99102	100.01
3.00768	100.01
3.02435	100.01
3.04102	100.02
3.05768	100.01
3.07435	100.02
3.09102	100.02
3.10768	100.01
3.12435	100.02
3.14102	100.02
3.15768	100.02
3.17435	100.02
3.19102	100.02
3.20768	100.02
3.22435	100.03
3.24102	100.03
3.25768	100.03
3.27435	100.03
3.29102	100.03
3.30768	100.03
3.32435	100.02
3.34102	100.03
3.35768	100.03
3.37435	100.03
3.39102	100.03
3.40768	100.02
3.42435	100.03
3.44102	100.03
3.45768	100.03
3.47435	100.03
3.49102	100.03
3.50768	100.03
3.52435	100.03
3.54102	100.03
3.55768	100.03
3.57435	100.03
3.59102	100.04
3.60768	100.04
3.62435	100.04
3.64102	100.03
3.65768	100.03
3.67435	100.03
3.69102	100.03
3.70768	100.04
3.72435	100.04
3.74102	100.04
3.75768	100.04
3.77435	100.04
3.79102	100.04
3.80768	100.04
3.82435	100.04
3.84102	100.04
3.85768	100.04
3.87435	100.04
3.89102	100.04
3.90768	100.04
3.92435	100.04
3.94102	100.04
3.95768	100.04
3.97435	100.04
3.99102	100.04

[Status Trace (Carrier Gas Pressure)]
Interval(msec)	1000
# of Points	240
Start Time(min)	0.008
End Time(min)	3.991
Intensity Units	
Intensity Multiplier	1
R.Time (min)	Intensity
0.00768	58.00
0.02435	55.45
0.04102	57.08
0.05768	59.26
0.07435	59.50
0.09102	58.07
0.10768	57.98
0.12435	58.01
0.14102	58.01
0.15768	58.01
0.17435	58.00
0.19102	58.00
0.20768	58.00
0.22435	58.00
0.24102	58.00
0.25768	58.00
0.27435	58.00
0.29102	58.00
0.30768	58.00
0.32435	58.00
0.34102	58.00
0.35768	58.00
0.37435	58.00
0.39102	58.00
0.40768	58.00
0.42435	58.00
0.44102	58.00
0.45768	58.00
0.47435	58.00
0.49102	58.00
0.50768	58.00
0.52435	58.00
0.54102	58.00
0.55768	58.00
0.57435	58.00
0.59102	58.00
0.60768	58.00
0.62435	58.00
0.64102	58.00
0.65768	58.00
0.67435	58.00
0.69102	58.00
0.70768	58.00
0.72435	58.00
0.74102	58.00
0.75768	58.00
0.77435	58.00
0.79102	58.00
0.80768	58.00
0.82435	58.00
0.84102	58.00
0.85768	58.00
0.87435	58.00
0.89102	58.00
0.90768	58.00
0.92435	58.00
0.94102	58.00
0.95768	58.00
0.97435	58.00
0.99102	58.00
1.00768	58.00
1.02435	58.00
1.04102	58.00
1.05768	58.00
1.07435	58.00
1.09102	58.00
1.10768	58.00
1.12435	58.00
1.14102	58.00
1.15768	58.00
1.17435	58.00
1.19102	58.00
1.20768	58.00
1.22435	58.00
1.24102	58.00
1.25768	58.00
1.27435	58.00
1.29102	58.00
1.30768	58.00
1.32435	58.00
1.34102	58.00
1.35768	58.00
1.37435	58.00
1.39102	58.00
1.40768	58.00
1.42435	58.00
1.44102	58.00
1.45768	58.00
1.47435	58.00
1.49102	58.00
1.50768	58.00
1.52435	58.00
1.54102	58.00
1.55768	58.00
1.57435	58.00
1.59102	58.00
1.60768	58.00
1.62435	58.00
1.64102	58.00
1.65768	58.00
1.67435	58.01
1.69102	58.00
1.70768	58.00
1.72435	58.00
1.74102	58.00
1.75768	58.00
1.77435	58.00
1.79102	58.00
1.80768	58.00
1.82435	58.00
1.84102	58.00
1.85768	58.00
1.87435	58.00
1.89102	58.00
1.90768	58.00
1.92435	58.00
1.94102	58.00
1.95768	58.00
1.97435	58.00
1.99102	58.00
2.00768	58.00
2.02435	58.00
2.04102	58.00
2.05768	58.00
2.07435	58.00
2.09102	58.00
2.10768	58.00
2.12435	58.00
2.14102	58.00
2.15768	58.00
2.17435	58.00
2.19102	58.00
2.20768	58.00
2.22435	58.00
2.24102	58.00
2.25768	58.00
2.27435	58.00
2.29102	58.00
2.30768	58.00
2.32435	58.00
2.34102	58.00
2.35768	58.00
2.37435	58.00
2.39102	57.99
2.40768	57.99
2.42435	58.00
2.44102	58.00
2.45768	58.00
2.47435	58.00
2.49102	58.00
2.50768	58.00
2.52435	57.99
2.54102	58.00
2.55768	58.00
2.57435	58.00
2.59102	58.00
2.60768	58.00
2.62435	58.00
2.64102	58.00
2.65768	58.00
2.67435	58.00
2.69102	58.00
2.70768	58.00
2.72435	58.00
2.74102	58.00
2.75768	58.00
2.77435	58.00
2.79102	58.00
2.80768	58.00
2.82435	58.00
2.84102	58.00
2.85768	58.00
2.87435	58.00
2.89102	58.00
2.90768	58.00
2.92435	58.00
2.94102	58.00
2.95768	58.00
2.97435	58.00
2.99102	58.00
3.00768	58.00
3.02435	58.00
3.04102	58.00
3.05768	58.00
3.07435	58.00
3.09102	58.00
3.10768	58.00
3.12435	58.00
3.14102	58.00
3.15768	58.00
3.17435	58.00
3.19102	58.00
3.20768	58.00
3.22435	58.00
3.24102	58.00
3.25768	58.00
3.27435	58.00
3.29102	58.00
3.30768	58.00
3.32435	58.00
3.34102	58.00
3.35768	58.00
3.37435	58.00
3.39102	58.00
3.40768	58.00
3.42435	58.00
3.44102	58.00
3.45768	58.00
3.47435	58.00
3.49102	58.00
3.50768	58.00
3.52435	58.00
3.54102	58.00
3.55768	58.00
3.57435	58.00
3.59102	58.00
3.60768	58.00
3.62435	58.00
3.64102	58.00
3.65768	58.00
3.67435	58.00
3.69102	58.00
3.70768	58.00
3.72435	58.00
3.74102	58.00
3.75768	58.00
3.77435	58.00
3.79102	58.00
3.80768	58.00
3.82435	58.00
3.84102	58.00
3.85768	58.00
3.87435	58.00
3.89102	58.00
3.90768	58.00
3.92435	58.00
3.94102	58.00
3.95768	58.00
3.97435	58.00
3.99102	58.00

[Status Trace (Carrier Gas Flow)]
Interval(msec)	1000
# of Points	240
Start Time(min)	0.008
End Time(min)	3.991
Intensity Units	
Intensity Multiplier	1
R.Time (min)	Intensity
0.00768	34.52
0.02435	34.53
0.04102	34.55
0.05768	34.55
0.07435	34.50
0.09102	34.51
0.10768	34.52
0.12435	34.52
0.14102	34.52
0.15768	34.52
0.17435	34.52
0.19102	34.52
0.20768	34.52
0.22435	34.52
0.24102	34.52
0.25768	34.52
0.27435	34.52
0.29102	34.52
0.30768	34.52
0.32435	34.52
0.34102	34.52
0.35768	34.52
0.37435	34.51
0.39102	34.52
0.40768	34.52
0.42435	34.52
0.44102	34.51
0.45768	34.52
0.47435	34.52
0.49102	34.52
0.50768	34.52
0.52435	34.52
0.54102	34.52
0.55768	34.52
0.57435	34.52
0.59102	34.52
0.60768	34.52
0.62435	34.52
0.64102	34.52
0.65768	34.51
0.67435	34.52
0.69102	34.52
0.70768	34.52
0.72435	34.52
0.74102	34.51
0.75768	34.52
0.77435	34.52
0.79102	34.52
0.80768	34.52
0.82435	34.52
0.84102	34.52
0.85768	34.52
0.87435	34.51
0.89102	34.52
0.90768	34.52
0.92435	34.52
0.94102	34.52
0.95768	34.52
0.97435	34.52
0.99102	34.52
1.00768	34.52
1.02435	34.52
1.04102	34.52
1.05768	34.52
1.07435	34.52
1.09102	34.52
1.10768	34.52
1.12435	34.52
1.14102	34.52
1.15768	34.52
1.17435	34.52
1.19102	34.52
1.20768	34.52
1.22435	34.52
1.24102	34.52
1.25768	34.52
1.27435	34.52
1.29102	34.52
1.30768	34.52
1.32435	34.52
1.34102	34.52
1.35768	34.52
1.37435	34.52
1.39102	34.52
1.40768	34.52
1.42435	34.52
1.44102	34.52
1.45768	34.52
1.47435	34.52
1.49102	34.52
1.50768	34.52
1.52435	34.52
1.54102	34.52
1.55768	34.52
1.57435	34.52
1.59102	34.51
1.60768	34.52
1.62435	34.52
1.64102	34.52
1.65768	34.52
1.67435	34.52
1.69102	34.52
1.70768	34.52
1.72435	34.52
1.74102	34.52
1.75768	34.53
1.77435	34.52
1.79102	34.52
1.80768	34.52
1.82435	34.52
1.84102	34.51
1.85768	34.52
1.87435	34.52
1.89102	34.52
1.90768	34.52
1.92435	34.51
1.94102	34.52
1.95768	34.52
1.97435	34.52
1.99102	34.52
2.00768	34.51
2.02435	34.52
2.04102	34.52
2.05768	34.52
2.07435	34.52
2.09102	34.52
2.10768	34.52
2.12435	34.52
2.14102	34.52
2.15768	34.52
2.17435	34.52
2.19102	34.52
2.20768	34.51
2.22435	34.52
2.24102	34.52
2.25768	34.52
2.27435	34.52
2.29102	34.51
2.30768	34.52
2.32435	34.52
2.34102	34.52
2.35768	34.52
2.37435	34.52
2.39102	34.51
2.40768	34.52
2.42435	34.51
2.44102	34.52
2.45768	34.52
2.47435	34.51
2.49102	34.51
2.50768	34.40
2.52435	34.52
2.54102	34.52
2.55768	34.52
2.57435	34.52
2.59102	34.52
2.60768	34.52
2.62435	34.51
2.64102	34.52
2.65768	34.52
2.67435	34.52
2.69102	34.52
2.70768	34.52
2.72435	34.52
2.74102	34.52
2.75768	34.52
2.77435	34.52
2.79102	34.52
2.80768	34.52
2.82435	34.52
2.84102	34.51
2.85768	34.52
2.87435	34.52
2.89102	34.52
2.90768	34.52
2.92435	34.52
2.94102	34.52
2.95768	34.52
2.97435	34.51
2.99102	34.52
3.00768	34.52
3.02435	34.52
3.04102	34.51
3.05768	34.51
3.07435	34.52
3.09102	34.52
3.10768	34.52
3.12435	34.52
3.14102	34.51
3.15768	34.52
3.17435	34.52
3.19102	34.52
3.20768	34.52
3.22435	34.52
3.24102	34.52
3.25768	34.52
3.27435	34.52
3.29102	34.52
3.30768	34.52
3.32435	34.52
3.34102	34.51
3.35768	34.52
3.37435	34.52
3.39102	34.52
3.40768	34.52
3.42435	34.52
3.44102	34.52
3.45768	34.52
3.47435	34.52
3.49102	34.52
3.50768	34.52
3.52435	34.52
3.54102	34.52
3.55768	34.52
3.57435	34.52
3.59102	34.52
3.60768	34.52
3.62435	34.52
3.64102	34.52
3.65768	34.53
3.67435	34.51
3.69102	34.52
3.70768	34.52
3.72435	34.52
3.74102	34.52
3.75768	34.51
3.77435	34.52
3.79102	34.52
3.80768	34.52
3.82435	34.52
3.84102	34.51
3.85768	34.52
3.87435	34.51
3.89102	34.51
3.90768	34.52
3.92435	34.52
3.94102	34.52
3.95768	34.51
3.97435	34.51
3.99102	34.51

[Status Trace (Column Flow)]
Interval(msec)	1000
# of Points	240
Start Time(min)	0.008
End Time(min)	3.991
Intensity Units	
Intensity Multiplier	1
R.Time (min)	Intensity
0.00768	5.51
0.02435	5.22
0.04102	5.40
0.05768	5.66
0.07435	5.69
0.09102	5.52
0.10768	5.51
0.12435	5.51
0.14102	5.51
0.15768	5.51
0.17435	5.51
0.19102	5.51
0.20768	5.51
0.22435	5.51
0.24102	5.51
0.25768	5.51
0.27435	5.51
0.29102	5.51
0.30768	5.51
0.32435	5.51
0.34102	5.51
0.35768	5.51
0.37435	5.51
0.39102	5.51
0.40768	5.51
0.42435	5.51
0.44102	5.51
0.45768	5.51
0.47435	5.51
0.49102	5.51
0.50768	5.51
0.52435	5.51
0.54102	5.51
0.55768	5.51
0.57435	5.51
0.59102	5.51
0.60768	5.51
0.62435	5.51
0.64102	5.51
0.65768	5.51
0.67435	5.51
0.69102	5.51
0.70768	5.51
0.72435	5.51
0.74102	5.51
0.75768	5.51
0.77435	5.51
0.79102	5.51
0.80768	5.51
0.82435	5.51
0.84102	5.51
0.85768	5.51
0.87435	5.51
0.89102	5.51
0.90768	5.51
0.92435	5.51
0.94102	5.51
0.95768	5.51
0.97435	5.51
0.99102	5.51
1.00768	5.51
1.02435	5.51
1.04102	5.51
1.05768	5.51
1.07435	5.51
1.09102	5.51
1.10768	5.51
1.12435	5.51
1.14102	5.51
1.15768	5.51
1.17435	5.51
1.19102	5.51
1.20768	5.51
1.22435	5.51
1.24102	5.51
1.25768	5.51
1.27435	5.51
1.29102	5.51
1.30768	5.51
1.32435	5.51
1.34102	5.51
1.35768	5.51
1.37435	5.51
1.39102	5.51
1.40768	5.51
1.42435	5.51
1.44102	5.51
1.45768	5.51
1.47435	5.51
1.49102	5.51
1.50768	5.51
1.52435	5.51
1.54102	5.51
1.55768	5.51
1.57435	5.51
1.59102	5.51
1.60768	5.51
1.62435	5.51
1.64102	5.50
1.65768	5.49
1.67435	5.48
1.69102	5.47
1.70768	5.46
1.72435	5.45
1.74102	5.44
1.75768	5.43
1.77435	5.42
1.79102	5.41
1.80768	5.40
1.82435	5.39
1.84102	5.38
1.85768	5.37
1.87435	5.36
1.89102	5.35
1.90768	5.34
1.92435	5.33
1.94102	5.32
1.95768	5.31
1.97435	5.30
1.99102	5.29
2.00768	5.28
2.02435	5.27
2.04102	5.26
2.05768	5.25
2.07435	5.24
2.09102	5.23
2.10768	5.22
2.12435	5.21
2.14102	5.20
2.15768	5.19
2.17435	5.19
2.19102	5.18
2.20768	5.17
2.22435	5.16
2.24102	5.15
2.25768	5.14
2.27435	5.13
2.29102	5.12
2.30768	5.11
2.32435	5.10
2.34102	5.09
2.35768	5.09
2.37435	5.08
2.39102	5.08
2.40768	5.08
2.42435	5.08
2.44102	5.08
2.45768	5.08
2.47435	5.08
2.49102	5.08
2.50768	5.08
2.52435	5.07
2.54102	5.08
2.55768	5.08
2.57435	5.07
2.59102	5.07
2.60768	5.07
2.62435	5.07
2.64102	5.07
2.65768	5.07
2.67435	5.07
2.69102	5.07
2.70768	5.07
2.72435	5.07
2.74102	5.07
2.75768	5.07
2.77435	5.07
2.79102	5.07
2.80768	5.07
2.82435	5.07
2.84102	5.07
2.85768	5.07
2.87435	5.07
2.89102	5.07
2.90768	5.07
2.92435	5.07
2.94102	5.07
2.95768	5.07
2.97435	5.07
2.99102	5.07
3.00768	5.07
3.02435	5.07
3.04102	5.07
3.05768	5.07
3.07435	5.07
3.09102	5.07
3.10768	5.07
3.12435	5.07
3.14102	5.07
3.15768	5.07
3.17435	5.07
3.19102	5.07
3.20768	5.07
3.22435	5.07
3.24102	5.07
3.25768	5.07
3.27435	5.07
3.29102	5.07
3.30768	5.07
3.32435	5.07
3.34102	5.07
3.35768	5.07
3.37435	5.07
3.39102	5.07
3.40768	5.07
3.42435	5.07
3.44102	5.07
3.45768	5.07
3.47435	5.07
3.49102	5.07
3.50768	5.07
3.52435	5.07
3.54102	5.07
3.55768	5.07
3.57435	5.07
3.59102	5.07
3.60768	5.07
3.62435	5.07
3.64102	5.07
3.65768	5.07
3.67435	5.07
3.69102	5.07
3.70768	5.07
3.72435	5.07
3.74102	5.07
3.75768	5.07
3.77435	5.07
3.79102	5.07
3.80768	5.07
3.82435	5.07
3.84102	5.07
3.85768	5.07
3.87435	5.07
3.89102	5.07
3.90768	5.07
3.92435	5.07
3.94102	5.07
3.95768	5.07
3.97435	5.07
3.99102	5.07

[Status Trace (Linear Velocity)]
Interval(msec)	1000
# of Points	240
Start Time(min)	0.008
End Time(min)	3.991
Intensity Units	
Intensity Multiplier	1
R.Time (min)	Intensity
0.00768	39.01
0.02435	37.34
0.04102	38.41
0.05768	39.84
0.07435	39.99
0.09102	39.06
0.10768	39.00
0.12435	39.02
0.14102	39.02
0.15768	39.01
0.17435	39.01
0.19102	39.01
0.20768	39.01
0.22435	39.02
0.24102	39.02
0.25768	39.02
0.27435	39.02
0.29102	39.02
0.30768	39.02
0.32435	39.02
0.34102	39.02
0.35768	39.01
0.37435	39.01
0.39102	39.01
0.40768	39.01
0.42435	39.01
0.44102	39.02
0.45768	39.02
0.47435	39.02
0.49102	39.02
0.50768	39.02
0.52435	39.02
0.54102	39.01
0.55768	39.01
0.57435	39.01
0.59102	39.01
0.60768	39.02
0.62435	39.02
0.64102	39.02
0.65768	39.02
0.67435	39.02
0.69102	39.02
0.70768	39.01
0.72435	39.01
0.74102	39.01
0.75768	39.01
0.77435	39.01
0.79102	39.01
0.80768	39.01
0.82435	39.01
0.84102	39.01
0.85768	39.01
0.87435	39.01
0.89102	39.02
0.90768	39.02
0.92435	39.02
0.94102	39.02
0.95768	39.02
0.97435	39.02
0.99102	39.02
1.00768	39.02
1.02435	39.02
1.04102	39.02
1.05768	39.02
1.07435	39.02
1.09102	39.02
1.10768	39.02
1.12435	39.02
1.14102	39.02
1.15768	39.02
1.17435	39.02
1.19102	39.02
1.20768	39.02
1.22435	39.02
1.24102	39.02
1.25768	39.02
1.27435	39.02
1.29102	39.01
1.30768	39.01
1.32435	39.01
1.34102	39.01
1.35768	39.02
1.37435	39.02
1.39102	39.01
1.40768	39.01
1.42435	39.01
1.44102	39.02
1.45768	39.02
1.47435	39.02
1.49102	39.02
1.50768	39.02
1.52435	39.02
1.54102	39.02
1.55768	39.01
1.57435	39.02
1.59102	39.01
1.60768	39.01
1.62435	39.00
1.64102	38.98
1.65768	38.96
1.67435	38.93
1.69102	38.89
1.70768	38.85
1.72435	38.82
1.74102	38.79
1.75768	38.76
1.77435	38.73
1.79102	38.70
1.80768	38.67
1.82435	38.64
1.84102	38.60
1.85768	38.57
1.87435	38.55
1.89102	38.51
1.90768	38.48
1.92435	38.45
1.94102	38.42
1.95768	38.39
1.97435	38.36
1.99102	38.33
2.00768	38.30
2.02435	38.27
2.04102	38.24
2.05768	38.21
2.07435	38.18
2.09102	38.15
2.10768	38.12
2.12435	38.09
2.14102	38.06
2.15768	38.03
2.17435	38.00
2.19102	37.97
2.20768	37.94
2.22435	37.92
2.24102	37.88
2.25768	37.85
2.27435	37.82
2.29102	37.79
2.30768	37.76
2.32435	37.74
2.34102	37.71
2.35768	37.68
2.37435	37.66
2.39102	37.65
2.40768	37.65
2.42435	37.66
2.44102	37.66
2.45768	37.65
2.47435	37.65
2.49102	37.65
2.50768	37.65
2.52435	37.64
2.54102	37.65
2.55768	37.65
2.57435	37.65
2.59102	37.65
2.60768	37.65
2.62435	37.65
2.64102	37.65
2.65768	37.64
2.67435	37.64
2.69102	37.64
2.70768	37.64
2.72435	37.64
2.74102	37.64
2.75768	37.64
2.77435	37.64
2.79102	37.64
2.80768	37.64
2.82435	37.64
2.84102	37.64
2.85768	37.64
2.87435	37.64
2.89102	37.64
2.90768	37.64
2.92435	37.64
2.94102	37.63
2.95768	37.63
2.97435	37.63
2.99102	37.63
3.00768	37.63
3.02435	37.63
3.04102	37.63
3.05768	37.63
3.07435	37.63
3.09102	37.62
3.10768	37.62
3.12435	37.62
3.14102	37.62
3.15768	37.62
3.17435	37.62
3.19102	37.62
3.20768	37.62
3.22435	37.62
3.24102	37.62
3.25768	37.62
3.27435	37.62
3.29102	37.62
3.30768	37.62
3.32435	37.62
3.34102	37.62
3.35768	37.62
3.37435	37.62
3.39102	37.62
3.40768	37.63
3.42435	37.63
3.44102	37.63
3.45768	37.63
3.47435	37.63
3.49102	37.63
3.50768	37.63
3.52435	37.63
3.54102	37.63
3.55768	37.63
3.57435	37.63
3.59102	37.63
3.60768	37.63
3.62435	37.63
3.64102	37.63
3.65768	37.63
3.67435	37.63
3.69102	37.63
3.70768	37.63
3.72435	37.63
3.74102	37.62
3.75768	37.62
3.77435	37.62
3.79102	37.62
3.80768	37.62
3.82435	37.62
3.84102	37.63
3.85768	37.63
3.87435	37.63
3.89102	37.63
3.90768	37.63
3.92435	37.62
3.94102	37.62
3.95768	37.62
3.97435	37.63
3.99102	37.63

