[Header]
Application Name	LabSolutions
Version	5.110
Data File Name	C:\Users\User\Desktop\GC Analyses\Jack\Nachusa Grasslands Sampling\T3 Timepoint July 12th\T3_07122022_023.gcd
Output Date	3/14/2023
Output Time	3:43:31 PM

[File Information]
Type	Data File
Generated	3/13/2023 4:57:35 PM
Generated by	System Administrator
Modified	3/13/2023 5:04:20 PM
Modified by	System Administrator

[Sample Information]
Operator Name	System Administrator
Acquired	3/13/2023 5:00:19 PM
Sample Type	0:Unknown
Level	0
Sample Name	023
Sample ID	023
ISTD Amount1	1
ISTD Amount2	1
ISTD Amount3	1
ISTD Amount4	1
ISTD Amount5	1
ISTD Amount6	1
ISTD Amount7	1
ISTD Amount8	1
ISTD Amount9	1
ISTD Amount10	1
ISTD Amount11	1
ISTD Amount12	1
ISTD Amount13	1
ISTD Amount14	1
ISTD Amount15	1
ISTD Amount16	1
ISTD Amount17	1
ISTD Amount18	1
ISTD Amount19	1
ISTD Amount20	1
ISTD Amount21	1
ISTD Amount22	1
ISTD Amount23	1
ISTD Amount24	1
ISTD Amount25	1
ISTD Amount26	1
ISTD Amount27	1
ISTD Amount28	1
ISTD Amount29	1
ISTD Amount30	1
ISTD Amount31	1
ISTD Amount32	1
Sample Amount	1
Dilution Factor	1
Vial#	22
Injection Volume	1
Injection Count	1
Bar Code	

[Original Files]
Data File	C:\Users\User\Desktop\GC Analyses\Jack\Nachusa Grasslands Sampling\T3 Timepoint July 12th\T3_07122022_023.gcd
Method File	C:\LabSolutions\Data\GHG_4min_2022\ghg3_togas_w_acet_4 min_new_int.gcm
Batch File	C:\LabSolutions\Data\AutoSamplerTesting\T3_07122022.gcb
Report Format File	c:\LabSolutions\System\DEFAULT.lsr

[File Description]


[Configuration]
Instrument Name	C0B7VH3-Instrument1
Instrument #	1
Line #	1
# of Detectors	3
Detector ID	DET#1	DET#2	DET#3
Detector Name	FID	PTCD	ECD
# of Channels	1	1	1

[Peak Table(Ch1)]
# of Peaks	3
Peak#	R.Time	I.Time	F.Time	Area	Height	A/H	Conc.	Mark	ID#	Name	k'	Plate #	Plate Ht.	Tailing	Resolution	Sep.Factor	Area Ratio	Height Ratio	Conc. %	Norm Conc.
1	1.457	1.373	1.509	1912	947	2.019	13.499	   	1	CO	0.000	14749	10.170	0.805	0.000	0.000	0	0	1.430	1.430
2	1.571	1.534	1.626	20672	10494	1.970	399.719	   	2	CH4	0.078	11585	12.948	1.138	2.137	0.000	0	0	42.342	42.342
3	2.000	1.952	2.304	2114962	1016191	2.081	530.798	   	3	CO2	0.372	17553	8.546	1.173	7.224	4.774	0	0	56.228	56.228

[Peak Table(Ch2)]
# of Peaks	0

[Peak Table(Ch3)]
# of Peaks	5
Peak#	R.Time	I.Time	F.Time	Area	Height	A/H	Conc.	Mark	ID#	Name	k'	Plate #	Plate Ht.	Tailing	Resolution	Sep.Factor	Area Ratio	Height Ratio	Conc. %	Norm Conc.
1	2.458	2.323	2.510	1694	526	3.221	0.000	   			0.000	11570	12.964	0.000	0.000	0.000	0	0	0.000	0.000
2	2.528	2.510	2.583	833	281	2.968	0.000	 V 			0.028	6320	23.735	0.000	0.637	0.000	0	0	0.000	0.000
3	2.601	2.583	2.678	411	123	3.348	0.000	 V 			0.058	2828	53.032	0.000	0.454	2.053	0	0	0.000	0.000
4	2.880	2.803	3.067	57439	15026	3.823	1.467	   	1	N2O	0.172	12781	11.736	1.554	1.873	2.949	0	0	100.000	100.000
5	3.313	3.151	3.965	17523	623	28.105	0.000	   	2	SF6	0.348	261	575.209	2.484	0.938	2.026	0	0	0.000	0.000

[Compound Results(Ch1)]
# of IDs	6
ID#	Name	R.Time	Area	Height	Conc.	Curve	3rd	2nd	1st	Constant	Area Ratio	Height Ratio	Conc. %	Norm Conc.
1	CO	1.457	1912	947	13.499	Linear	0.000000e+00	0.000000e+00	1.416423e+002	0.000000e+00	0	0	1.430	1.430
2	CH4	1.571	20672	10494	399.719	Linear	0.000000e+00	0.000000e+00	5.171738e+001	0.000000e+00	0	0	42.342	42.342
3	CO2	2.000	2114962	1016191	530.798	Linear	0.000000e+00	0.000000e+00	3.984494e+003	0.000000e+00	0	0	56.228	56.228
4	Ethylene	0.000	0	0	0.000	Linear	0.000000e+00	0.000000e+00	0.000000e+00	0.000000e+00	0	0	0.000	0.000
5	Acetylene	0.000	0	0	0.000	Linear	0.000000e+00	0.000000e+00	0.000000e+00	0.000000e+00	0	0	0.000	0.000
6	Ethane	0.000	0	0	0.000	Linear	0.000000e+00	0.000000e+00	0.000000e+00	0.000000e+00	0	0	0.000	0.000

[Compound Results(Ch2)]
# of IDs	5
ID#	Name	R.Time	Area	Height	Conc.	Curve	3rd	2nd	1st	Constant	Area Ratio	Height Ratio	Conc. %	Norm Conc.
1	Hydrogen	0.000	0	0	0.000	Linear	0.000000e+00	0.000000e+00	0.000000e+00	0.000000e+00	0	0	0.000	0.000
2	Oxygen	0.000	0	0	0.000	Linear	0.000000e+00	0.000000e+00	0.000000e+00	0.000000e+00	0	0	0.000	0.000
3	Nitrogen	0.000	0	0	0.000	Linear	0.000000e+00	0.000000e+00	0.000000e+00	0.000000e+00	0	0	0.000	0.000
4	Methane	0.000	0	0	0.000	Linear	0.000000e+00	0.000000e+00	0.000000e+00	0.000000e+00	0	0	0.000	0.000
5	Carbon Monoxide	0.000	0	0	0.000	Linear	0.000000e+00	0.000000e+00	0.000000e+00	0.000000e+00	0	0	0.000	0.000

[Compound Results(Ch3)]
# of IDs	2
ID#	Name	R.Time	Area	Height	Conc.	Curve	3rd	2nd	1st	Constant	Area Ratio	Height Ratio	Conc. %	Norm Conc.
1	N2O	2.880	57439	15026	1.467	Linear	0.000000e+00	0.000000e+00	3.915173e+004	0.000000e+00	0	0	100.000	100.000
2	SF6	3.313	17523	623	0.000	Linear	0.000000e+00	0.000000e+00	0.000000e+00	0.000000e+00	0	0	0.000	0.000

[Group Results(Ch1)]
# of Groups	0

[Group Results(Ch2)]
# of Groups	0

[Group Results(Ch3)]
# of Groups	0

[Chromatogram (Ch1)]
Interval(msec)	220
# of Points	1091
Start Time(min)	0.002
End Time(min)	3.998
R.Time (min)	Intensity
0.00167	13
0.00533	17
0.00900	16
0.01267	12
0.01633	9
0.02000	9
0.02367	8
0.02733	9
0.03100	6
0.03467	4
0.03833	4
0.04200	11
0.04567	15
0.04933	15
0.05300	12
0.05667	6
0.06033	4
0.06400	10
0.06767	17
0.07133	16
0.07500	18
0.07867	19
0.08233	20
0.08600	21
0.08967	18
0.09333	15
0.09700	15
0.10067	12
0.10433	9
0.10800	8
0.11167	10
0.11533	10
0.11900	7
0.12267	2
0.12633	-0
0.13000	3
0.13367	8
0.13733	19
0.14100	25
0.14467	22
0.14833	14
0.15200	6
0.15567	2
0.15933	1
0.16300	-1
0.16667	-1
0.17033	6
0.17400	18
0.17767	26
0.18133	29
0.18500	28
0.18867	28
0.19233	30
0.19600	29
0.19967	30
0.20333	28
0.20700	25
0.21067	26
0.21433	33
0.21800	32
0.22167	23
0.22533	19
0.22900	22
0.23267	28
0.23633	39
0.24000	48
0.24367	54
0.24733	55
0.25100	54
0.25467	49
0.25833	39
0.26200	29
0.26567	20
0.26933	12
0.27300	5
0.27667	5
0.28033	11
0.28400	15
0.28767	20
0.29133	20
0.29500	16
0.29867	12
0.30233	12
0.30600	11
0.30967	8
0.31333	6
0.31700	7
0.32067	11
0.32433	13
0.32800	11
0.33167	8
0.33533	5
0.33900	-1
0.34267	-5
0.34633	-4
0.35000	-0
0.35367	5
0.35733	6
0.36100	6
0.36467	3
0.36833	-5
0.37200	-10
0.37567	-11
0.37933	-12
0.38300	-11
0.38667	-11
0.39033	-10
0.39400	-10
0.39767	-11
0.40133	-12
0.40500	-15
0.40867	-17
0.41233	-17
0.41600	-16
0.41967	-14
0.42333	-16
0.42700	-18
0.43067	-17
0.43433	-11
0.43800	-1
0.44167	6
0.44533	10
0.44900	12
0.45267	10
0.45633	9
0.46000	6
0.46367	5
0.46733	7
0.47100	5
0.47467	-1
0.47833	-7
0.48200	-10
0.48567	-8
0.48933	-4
0.49300	-0
0.49667	-1
0.50033	-3
0.50400	-7
0.50767	-5
0.51133	-1
0.51500	2
0.51867	2
0.52233	-0
0.52600	-5
0.52967	-10
0.53333	-15
0.53700	-18
0.54067	-20
0.54433	-20
0.54800	-17
0.55167	-16
0.55533	-16
0.55900	-13
0.56267	-11
0.56633	-7
0.57000	-3
0.57367	1
0.57733	4
0.58100	5
0.58467	3
0.58833	3
0.59200	6
0.59567	15
0.59933	19
0.60300	13
0.60667	4
0.61033	-5
0.61400	-11
0.61767	-13
0.62133	-12
0.62500	-10
0.62867	-9
0.63233	-5
0.63600	5
0.63967	16
0.64333	24
0.64700	24
0.65067	9
0.65433	-11
0.65800	-25
0.66167	-33
0.66533	-39
0.66900	-43
0.67267	-45
0.67633	-45
0.68000	-38
0.68367	-30
0.68733	-30
0.69100	-30
0.69467	-28
0.69833	-23
0.70200	-18
0.70567	-15
0.70933	-17
0.71300	-25
0.71667	-31
0.72033	-29
0.72400	-25
0.72767	-18
0.73133	-13
0.73500	-9
0.73867	-3
0.74233	1
0.74600	1
0.74967	-1
0.75333	-2
0.75700	-2
0.76067	-2
0.76433	-5
0.76800	-13
0.77167	-19
0.77533	-16
0.77900	-8
0.78267	-6
0.78633	-7
0.79000	-12
0.79367	-17
0.79733	-23
0.80100	-27
0.80467	-30
0.80833	-27
0.81200	-21
0.81567	-16
0.81933	-9
0.82300	-3
0.82667	-3
0.83033	-7
0.83400	-11
0.83767	-16
0.84133	-20
0.84500	-18
0.84867	-12
0.85233	-12
0.85600	-17
0.85967	-23
0.86333	-26
0.86700	-23
0.87067	-18
0.87433	-15
0.87800	-16
0.88167	-15
0.88533	-12
0.88900	-10
0.89267	-14
0.89633	-22
0.90000	-30
0.90367	-33
0.90733	-32
0.91100	-31
0.91467	-30
0.91833	-28
0.92200	-26
0.92567	-26
0.92933	-24
0.93300	-21
0.93667	-18
0.94033	-15
0.94400	-11
0.94767	-10
0.95133	-11
0.95500	-14
0.95867	-19
0.96233	-24
0.96600	-21
0.96967	-19
0.97333	-18
0.97700	-15
0.98067	-14
0.98433	-19
0.98800	-24
0.99167	-28
0.99533	-34
0.99900	-33
1.00267	-31
1.00633	-30
1.01000	-29
1.01367	-29
1.01733	-28
1.02100	-26
1.02467	-25
1.02833	-23
1.03200	-19
1.03567	-10
1.03933	2
1.04300	12
1.04667	11
1.05033	0
1.05400	-10
1.05767	-17
1.06133	-17
1.06500	-15
1.06867	-14
1.07233	-13
1.07600	-14
1.07967	-14
1.08333	-11
1.08700	-6
1.09067	-1
1.09433	2
1.09800	5
1.10167	6
1.10533	6
1.10900	6
1.11267	10
1.11633	14
1.12000	21
1.12367	25
1.12733	27
1.13100	32
1.13467	38
1.13833	39
1.14200	38
1.14567	37
1.14933	33
1.15300	25
1.15667	14
1.16033	4
1.16400	-1
1.16767	-4
1.17133	-6
1.17500	-7
1.17867	-7
1.18233	-4
1.18600	2
1.18967	9
1.19333	14
1.19700	18
1.20067	18
1.20433	16
1.20800	13
1.21167	19
1.21533	27
1.21900	30
1.22267	27
1.22633	17
1.23000	11
1.23367	9
1.23733	9
1.24100	12
1.24467	17
1.24833	22
1.25200	28
1.25567	32
1.25933	27
1.26300	16
1.26667	5
1.27033	-1
1.27400	-4
1.27767	2
1.28133	13
1.28500	22
1.28867	28
1.29233	27
1.29600	19
1.29967	6
1.30333	-4
1.30700	-10
1.31067	-15
1.31433	-20
1.31800	-24
1.32167	-24
1.32533	-20
1.32900	-15
1.33267	-9
1.33633	-4
1.34000	-3
1.34367	-5
1.34733	-8
1.35100	-9
1.35467	-5
1.35833	1
1.36200	5
1.36567	9
1.36933	8
1.37300	2
1.37667	-4
1.38033	-4
1.38400	1
1.38767	-1
1.39133	-6
1.39500	-8
1.39867	-6
1.40233	-6
1.40600	-5
1.40967	-4
1.41333	-3
1.41700	-2
1.42067	-3
1.42433	-6
1.42800	-8
1.43167	-12
1.43533	-10
1.43900	4
1.44267	51
1.44633	194
1.45000	448
1.45367	645
1.45733	690
1.46100	600
1.46467	436
1.46833	253
1.47200	94
1.47567	-17
1.47933	-88
1.48300	-148
1.48667	-201
1.49033	-246
1.49400	-289
1.49767	-331
1.50133	-365
1.50500	-392
1.50867	-415
1.51233	-423
1.51600	-424
1.51967	-424
1.52333	-424
1.52700	-420
1.53067	-413
1.53433	-394
1.53800	-328
1.54167	-76
1.54533	643
1.54900	2047
1.55267	3994
1.55633	6063
1.56000	7886
1.56367	9271
1.56733	10095
1.57100	10221
1.57467	9555
1.57833	8218
1.58200	6530
1.58567	4849
1.58933	3412
1.59300	2300
1.59667	1496
1.60033	940
1.60400	565
1.60767	316
1.61133	155
1.61500	53
1.61867	-11
1.62233	-58
1.62600	-92
1.62967	-110
1.63333	-119
1.63700	-125
1.64067	-129
1.64433	-131
1.64800	-129
1.65167	-127
1.65533	-129
1.65900	-126
1.66267	-124
1.66633	-122
1.67000	-124
1.67367	-128
1.67733	-129
1.68100	-120
1.68467	-109
1.68833	-101
1.69200	-99
1.69567	-102
1.69933	-108
1.70300	-114
1.70667	-120
1.71033	-122
1.71400	-120
1.71767	-113
1.72133	-107
1.72500	-101
1.72867	-100
1.73233	-99
1.73600	-97
1.73967	-94
1.74333	-87
1.74700	-77
1.75067	-74
1.75433	-80
1.75800	-91
1.76167	-103
1.76533	-111
1.76900	-115
1.77267	-114
1.77633	-108
1.78000	-101
1.78367	-94
1.78733	-91
1.79100	-94
1.79467	-95
1.79833	-96
1.80200	-97
1.80567	-98
1.80933	-97
1.81300	-97
1.81667	-97
1.82033	-98
1.82400	-97
1.82767	-94
1.83133	-92
1.83500	-88
1.83867	-89
1.84233	-91
1.84600	-87
1.84967	-79
1.85333	-73
1.85700	-71
1.86067	-70
1.86433	-66
1.86800	-63
1.87167	-62
1.87533	-62
1.87900	-64
1.88267	-65
1.88633	-69
1.89000	-76
1.89367	-83
1.89733	-83
1.90100	-77
1.90467	-73
1.90833	-75
1.91200	-79
1.91567	-83
1.91933	-77
1.92300	-73
1.92667	-71
1.93033	-71
1.93400	-72
1.93767	-68
1.94133	-61
1.94500	-55
1.94867	-54
1.95233	-43
1.95600	45
1.95967	624
1.96333	3543
1.96700	14668
1.97067	47069
1.97433	119716
1.97800	246304
1.98167	421117
1.98533	617589
1.98900	800479
1.99267	939070
1.99633	1013820
2.00000	1016190
2.00367	949961
2.00733	830838
2.01100	683002
2.01467	531591
2.01833	395446
2.02200	284117
2.02567	199207
2.02933	137608
2.03300	94445
2.03667	64889
2.04033	44933
2.04400	31547
2.04767	22572
2.05133	16521
2.05500	12400
2.05867	9558
2.06233	7557
2.06600	6118
2.06967	5064
2.07333	4275
2.07700	3670
2.08067	3197
2.08433	2819
2.08800	2514
2.09167	2260
2.09533	2046
2.09900	1867
2.10267	1718
2.10633	1589
2.11000	1471
2.11367	1365
2.11733	1268
2.12100	1183
2.12467	1112
2.12833	1050
2.13200	995
2.13567	945
2.13933	899
2.14300	860
2.14667	829
2.15033	799
2.15400	766
2.15767	739
2.16133	722
2.16500	703
2.16867	677
2.17233	646
2.17600	612
2.17967	582
2.18333	551
2.18700	523
2.19067	504
2.19433	488
2.19800	473
2.20167	459
2.20533	451
2.20900	443
2.21267	431
2.21633	418
2.22000	407
2.22367	392
2.22733	380
2.23100	374
2.23467	371
2.23833	365
2.24200	360
2.24567	355
2.24933	350
2.25300	346
2.25667	342
2.26033	340
2.26400	336
2.26767	323
2.27133	307
2.27500	295
2.27867	292
2.28233	289
2.28600	286
2.28967	282
2.29333	279
2.29700	277
2.30067	274
2.30433	268
2.30800	262
2.31167	259
2.31533	257
2.31900	255
2.32267	252
2.32633	249
2.33000	250
2.33367	253
2.33733	254
2.34100	256
2.34467	258
2.34833	259
2.35200	260
2.35567	258
2.35933	250
2.36300	246
2.36667	245
2.37033	240
2.37400	231
2.37767	221
2.38133	214
2.38500	212
2.38867	212
2.39233	209
2.39600	205
2.39967	209
2.40333	218
2.40700	228
2.41067	231
2.41433	233
2.41800	229
2.42167	222
2.42533	212
2.42900	196
2.43267	183
2.43633	177
2.44000	178
2.44367	186
2.44733	194
2.45100	200
2.45467	202
2.45833	199
2.46200	196
2.46567	195
2.46933	192
2.47300	180
2.47667	168
2.48033	162
2.48400	162
2.48767	168
2.49133	176
2.49500	185
2.49867	189
2.50233	190
2.50600	195
2.50967	193
2.51333	190
2.51700	190
2.52067	190
2.52433	189
2.52800	187
2.53167	183
2.53533	184
2.53900	195
2.54267	205
2.54633	210
2.55000	208
2.55367	204
2.55733	194
2.56100	182
2.56467	168
2.56833	155
2.57200	147
2.57567	145
2.57933	143
2.58300	141
2.58667	146
2.59033	152
2.59400	157
2.59767	159
2.60133	162
2.60500	166
2.60867	166
2.61233	169
2.61600	171
2.61967	173
2.62333	176
2.62700	180
2.63067	187
2.63433	197
2.63800	200
2.64167	188
2.64533	175
2.64900	162
2.65267	156
2.65633	158
2.66000	163
2.66367	166
2.66733	162
2.67100	154
2.67467	154
2.67833	157
2.68200	161
2.68567	165
2.68933	169
2.69300	177
2.69667	182
2.70033	185
2.70400	187
2.70767	185
2.71133	182
2.71500	175
2.71867	172
2.72233	167
2.72600	161
2.72967	150
2.73333	138
2.73700	137
2.74067	143
2.74433	149
2.74800	156
2.75167	165
2.75533	174
2.75900	180
2.76267	183
2.76633	187
2.77000	189
2.77367	192
2.77733	187
2.78100	181
2.78467	170
2.78833	161
2.79200	159
2.79567	161
2.79933	166
2.80300	170
2.80667	171
2.81033	168
2.81400	160
2.81767	150
2.82133	146
2.82500	146
2.82867	146
2.83233	148
2.83600	152
2.83967	153
2.84333	150
2.84700	150
2.85067	155
2.85433	163
2.85800	168
2.86167	166
2.86533	162
2.86900	160
2.87267	162
2.87633	165
2.88000	169
2.88367	169
2.88733	166
2.89100	161
2.89467	162
2.89833	164
2.90200	164
2.90567	163
2.90933	161
2.91300	160
2.91667	161
2.92033	166
2.92400	172
2.92767	171
2.93133	163
2.93500	158
2.93867	158
2.94233	163
2.94600	172
2.94967	180
2.95333	185
2.95700	189
2.96067	191
2.96433	191
2.96800	188
2.97167	185
2.97533	179
2.97900	174
2.98267	170
2.98633	164
2.99000	153
2.99367	146
2.99733	142
3.00100	143
3.00467	147
3.00833	147
3.01200	144
3.01567	140
3.01933	144
3.02300	150
3.02667	153
3.03033	158
3.03400	169
3.03767	179
3.04133	181
3.04500	181
3.04867	178
3.05233	168
3.05600	155
3.05967	143
3.06333	136
3.06700	133
3.07067	135
3.07433	140
3.07800	149
3.08167	156
3.08533	160
3.08900	165
3.09267	167
3.09633	166
3.10000	162
3.10367	155
3.10733	150
3.11100	148
3.11467	153
3.11833	161
3.12200	167
3.12567	163
3.12933	152
3.13300	144
3.13667	136
3.14033	132
3.14400	134
3.14767	137
3.15133	138
3.15500	136
3.15867	135
3.16233	132
3.16600	134
3.16967	140
3.17333	143
3.17700	145
3.18067	148
3.18433	149
3.18800	147
3.19167	140
3.19533	133
3.19900	130
3.20267	132
3.20633	134
3.21000	138
3.21367	144
3.21733	149
3.22100	152
3.22467	151
3.22833	147
3.23200	149
3.23567	147
3.23933	135
3.24300	119
3.24667	108
3.25033	102
3.25400	94
3.25767	89
3.26133	87
3.26500	85
3.26867	83
3.27233	82
3.27600	78
3.27967	76
3.28333	78
3.28700	85
3.29067	93
3.29433	100
3.29800	108
3.30167	112
3.30533	111
3.30900	112
3.31267	115
3.31633	114
3.32000	113
3.32367	114
3.32733	113
3.33100	112
3.33467	112
3.33833	120
3.34200	129
3.34567	135
3.34933	131
3.35300	123
3.35667	115
3.36033	107
3.36400	106
3.36767	111
3.37133	110
3.37500	107
3.37867	109
3.38233	115
3.38600	121
3.38967	121
3.39333	119
3.39700	109
3.40067	93
3.40433	82
3.40800	81
3.41167	82
3.41533	80
3.41900	81
3.42267	84
3.42633	86
3.43000	91
3.43367	97
3.43733	105
3.44100	113
3.44467	117
3.44833	113
3.45200	106
3.45567	98
3.45933	92
3.46300	92
3.46667	91
3.47033	85
3.47400	80
3.47767	78
3.48133	80
3.48500	85
3.48867	87
3.49233	90
3.49600	94
3.49967	97
3.50333	100
3.50700	101
3.51067	101
3.51433	103
3.51800	105
3.52167	105
3.52533	104
3.52900	102
3.53267	99
3.53633	96
3.54000	95
3.54367	91
3.54733	85
3.55100	81
3.55467	83
3.55833	88
3.56200	95
3.56567	100
3.56933	103
3.57300	103
3.57667	98
3.58033	89
3.58400	83
3.58767	78
3.59133	70
3.59500	60
3.59867	55
3.60233	56
3.60600	62
3.60967	71
3.61333	84
3.61700	97
3.62067	104
3.62433	105
3.62800	101
3.63167	95
3.63533	88
3.63900	80
3.64267	74
3.64633	73
3.65000	71
3.65367	66
3.65733	63
3.66100	55
3.66467	49
3.66833	52
3.67200	56
3.67567	61
3.67933	66
3.68300	72
3.68667	75
3.69033	72
3.69400	70
3.69767	64
3.70133	59
3.70500	55
3.70867	52
3.71233	53
3.71600	56
3.71967	55
3.72333	54
3.72700	56
3.73067	57
3.73433	63
3.73800	70
3.74167	73
3.74533	71
3.74900	71
3.75267	73
3.75633	77
3.76000	83
3.76367	80
3.76733	71
3.77100	64
3.77467	62
3.77833	63
3.78200	58
3.78567	53
3.78933	55
3.79300	60
3.79667	61
3.80033	58
3.80400	52
3.80767	44
3.81133	40
3.81500	40
3.81867	43
3.82233	45
3.82600	44
3.82967	40
3.83333	39
3.83700	44
3.84067	48
3.84433	48
3.84800	44
3.85167	44
3.85533	45
3.85900	47
3.86267	50
3.86633	48
3.87000	43
3.87367	42
3.87733	44
3.88100	41
3.88467	38
3.88833	37
3.89200	36
3.89567	39
3.89933	41
3.90300	39
3.90667	36
3.91033	35
3.91400	37
3.91767	40
3.92133	43
3.92500	46
3.92867	47
3.93233	47
3.93600	45
3.93967	43
3.94333	45
3.94700	46
3.95067	46
3.95433	45
3.95800	39
3.96167	32
3.96533	26
3.96900	23
3.97267	25
3.97633	27
3.98000	27
3.98367	25
3.98733	20
3.99100	19
3.99467	21
3.99833	22

[Chromatogram (Ch2)]
Interval(msec)	220
# of Points	1091
Start Time(min)	0.002
End Time(min)	3.998
R.Time (min)	Intensity
0.00167	-1
0.00533	-1
0.00900	-1
0.01267	-1
0.01633	-1
0.02000	-1
0.02367	-0
0.02733	-0
0.03100	-0
0.03467	0
0.03833	0
0.04200	1
0.04567	1
0.04933	1
0.05300	1
0.05667	2
0.06033	2
0.06400	1
0.06767	1
0.07133	1
0.07500	1
0.07867	0
0.08233	0
0.08600	0
0.08967	1
0.09333	1
0.09700	1
0.10067	1
0.10433	1
0.10800	1
0.11167	1
0.11533	1
0.11900	1
0.12267	1
0.12633	1
0.13000	1
0.13367	1
0.13733	1
0.14100	1
0.14467	1
0.14833	1
0.15200	1
0.15567	1
0.15933	1
0.16300	1
0.16667	1
0.17033	1
0.17400	1
0.17767	1
0.18133	0
0.18500	0
0.18867	-0
0.19233	-1
0.19600	-1
0.19967	-1
0.20333	-2
0.20700	-2
0.21067	-2
0.21433	-2
0.21800	-2
0.22167	-1
0.22533	-1
0.22900	-1
0.23267	-0
0.23633	-0
0.24000	-0
0.24367	-0
0.24733	-0
0.25100	-0
0.25467	-1
0.25833	-1
0.26200	-1
0.26567	-2
0.26933	-2
0.27300	-3
0.27667	-3
0.28033	-3
0.28400	-3
0.28767	-3
0.29133	-3
0.29500	-3
0.29867	-3
0.30233	-3
0.30600	-2
0.30967	-2
0.31333	-2
0.31700	-2
0.32067	-2
0.32433	-2
0.32800	-2
0.33167	-2
0.33533	-2
0.33900	-1
0.34267	-1
0.34633	-1
0.35000	-1
0.35367	-1
0.35733	-1
0.36100	-1
0.36467	-1
0.36833	-1
0.37200	-1
0.37567	-2
0.37933	-2
0.38300	-2
0.38667	-2
0.39033	-2
0.39400	-2
0.39767	-2
0.40133	-2
0.40500	-2
0.40867	-2
0.41233	-2
0.41600	-2
0.41967	-1
0.42333	-1
0.42700	-1
0.43067	-1
0.43433	-0
0.43800	-0
0.44167	-0
0.44533	-1
0.44900	-1
0.45267	-1
0.45633	-1
0.46000	-1
0.46367	-0
0.46733	-0
0.47100	-0
0.47467	-0
0.47833	-0
0.48200	-0
0.48567	-0
0.48933	-0
0.49300	-0
0.49667	-1
0.50033	-1
0.50400	-1
0.50767	-1
0.51133	-1
0.51500	-1
0.51867	-1
0.52233	-1
0.52600	-1
0.52967	-1
0.53333	-1
0.53700	-1
0.54067	-1
0.54433	-1
0.54800	-1
0.55167	-1
0.55533	-0
0.55900	-0
0.56267	-0
0.56633	-0
0.57000	0
0.57367	0
0.57733	0
0.58100	0
0.58467	0
0.58833	0
0.59200	0
0.59567	-0
0.59933	-0
0.60300	-0
0.60667	-0
0.61033	0
0.61400	0
0.61767	0
0.62133	0
0.62500	0
0.62867	0
0.63233	1
0.63600	1
0.63967	1
0.64333	1
0.64700	1
0.65067	1
0.65433	2
0.65800	2
0.66167	2
0.66533	2
0.66900	1
0.67267	1
0.67633	1
0.68000	1
0.68367	1
0.68733	2
0.69100	2
0.69467	2
0.69833	2
0.70200	2
0.70567	2
0.70933	2
0.71300	2
0.71667	2
0.72033	2
0.72400	2
0.72767	2
0.73133	2
0.73500	2
0.73867	2
0.74233	1
0.74600	1
0.74967	0
0.75333	0
0.75700	-0
0.76067	-1
0.76433	-1
0.76800	-1
0.77167	-1
0.77533	-1
0.77900	-1
0.78267	-2
0.78633	-2
0.79000	-2
0.79367	-2
0.79733	-3
0.80100	-3
0.80467	-3
0.80833	-3
0.81200	-3
0.81567	-3
0.81933	-2
0.82300	-2
0.82667	-2
0.83033	-2
0.83400	-2
0.83767	-2
0.84133	-2
0.84500	-3
0.84867	-3
0.85233	-3
0.85600	-2
0.85967	-2
0.86333	-2
0.86700	-2
0.87067	-2
0.87433	-2
0.87800	-2
0.88167	-2
0.88533	-2
0.88900	-2
0.89267	-2
0.89633	-2
0.90000	-2
0.90367	-2
0.90733	-2
0.91100	-2
0.91467	-2
0.91833	-2
0.92200	-2
0.92567	-2
0.92933	-2
0.93300	-2
0.93667	-2
0.94033	-2
0.94400	-1
0.94767	-1
0.95133	-1
0.95500	-1
0.95867	-1
0.96233	-1
0.96600	-0
0.96967	-0
0.97333	0
0.97700	0
0.98067	1
0.98433	1
0.98800	1
0.99167	1
0.99533	0
0.99900	1
1.00267	1
1.00633	0
1.01000	0
1.01367	-0
1.01733	-0
1.02100	-0
1.02467	-0
1.02833	-0
1.03200	-0
1.03567	-0
1.03933	-0
1.04300	0
1.04667	0
1.05033	0
1.05400	1
1.05767	1
1.06133	1
1.06500	1
1.06867	1
1.07233	1
1.07600	1
1.07967	1
1.08333	1
1.08700	1
1.09067	1
1.09433	1
1.09800	1
1.10167	1
1.10533	1
1.10900	1
1.11267	1
1.11633	1
1.12000	0
1.12367	0
1.12733	0
1.13100	-0
1.13467	-0
1.13833	-1
1.14200	-1
1.14567	-1
1.14933	-1
1.15300	-1
1.15667	-1
1.16033	-1
1.16400	-1
1.16767	-1
1.17133	-1
1.17500	-1
1.17867	-1
1.18233	-1
1.18600	-0
1.18967	-0
1.19333	-0
1.19700	-0
1.20067	-0
1.20433	-0
1.20800	-0
1.21167	-0
1.21533	0
1.21900	0
1.22267	0
1.22633	-0
1.23000	-0
1.23367	-1
1.23733	-1
1.24100	-2
1.24467	-2
1.24833	-2
1.25200	-2
1.25567	-2
1.25933	-2
1.26300	-2
1.26667	-2
1.27033	-2
1.27400	-2
1.27767	-2
1.28133	-2
1.28500	-2
1.28867	-2
1.29233	-2
1.29600	-2
1.29967	-2
1.30333	-2
1.30700	-2
1.31067	-2
1.31433	-2
1.31800	-1
1.32167	-1
1.32533	-1
1.32900	-0
1.33267	-0
1.33633	0
1.34000	0
1.34367	1
1.34733	1
1.35100	1
1.35467	1
1.35833	1
1.36200	1
1.36567	1
1.36933	1
1.37300	1
1.37667	1
1.38033	0
1.38400	0
1.38767	-0
1.39133	-1
1.39500	-1
1.39867	-1
1.40233	-2
1.40600	-2
1.40967	-2
1.41333	-2
1.41700	-3
1.42067	-3
1.42433	-3
1.42800	-3
1.43167	-3
1.43533	-3
1.43900	-3
1.44267	-3
1.44633	-3
1.45000	-3
1.45367	-3
1.45733	-3
1.46100	-2
1.46467	-2
1.46833	-2
1.47200	-2
1.47567	-1
1.47933	-1
1.48300	-1
1.48667	-1
1.49033	-1
1.49400	-1
1.49767	-1
1.50133	-1
1.50500	-2
1.50867	-2
1.51233	-2
1.51600	-2
1.51967	-2
1.52333	-2
1.52700	-2
1.53067	-3
1.53433	-3
1.53800	-3
1.54167	-4
1.54533	-4
1.54900	-3
1.55267	-3
1.55633	-3
1.56000	-2
1.56367	-2
1.56733	-2
1.57100	-2
1.57467	-2
1.57833	-2
1.58200	-2
1.58567	-2
1.58933	-2
1.59300	-2
1.59667	-2
1.60033	-3
1.60400	-3
1.60767	-4
1.61133	-6
1.61500	-7
1.61867	-9
1.62233	-12
1.62600	-15
1.62967	-18
1.63333	-21
1.63700	-24
1.64067	-28
1.64433	-31
1.64800	-35
1.65167	-39
1.65533	-43
1.65900	-48
1.66267	-52
1.66633	-57
1.67000	-62
1.67367	-67
1.67733	-72
1.68100	-78
1.68467	-82
1.68833	-87
1.69200	-91
1.69567	-94
1.69933	-96
1.70300	-98
1.70667	-100
1.71033	-101
1.71400	-103
1.71767	-104
1.72133	-105
1.72500	-106
1.72867	-107
1.73233	-108
1.73600	-108
1.73967	-108
1.74333	-108
1.74700	-108
1.75067	-108
1.75433	-108
1.75800	-107
1.76167	-107
1.76533	-107
1.76900	-107
1.77267	-107
1.77633	-107
1.78000	-108
1.78367	-109
1.78733	-109
1.79100	-110
1.79467	-110
1.79833	-111
1.80200	-111
1.80567	-112
1.80933	-112
1.81300	-113
1.81667	-114
1.82033	-114
1.82400	-115
1.82767	-115
1.83133	-115
1.83500	-115
1.83867	-115
1.84233	-115
1.84600	-115
1.84967	-115
1.85333	-115
1.85700	-116
1.86067	-116
1.86433	-116
1.86800	-116
1.87167	-116
1.87533	-116
1.87900	-115
1.88267	-115
1.88633	-115
1.89000	-115
1.89367	-115
1.89733	-114
1.90100	-114
1.90467	-114
1.90833	-113
1.91200	-113
1.91567	-112
1.91933	-112
1.92300	-111
1.92667	-111
1.93033	-111
1.93400	-110
1.93767	-110
1.94133	-110
1.94500	-110
1.94867	-110
1.95233	-110
1.95600	-110
1.95967	-109
1.96333	-109
1.96700	-109
1.97067	-108
1.97433	-108
1.97800	-108
1.98167	-108
1.98533	-107
1.98900	-107
1.99267	-107
1.99633	-107
2.00000	-107
2.00367	-107
2.00733	-106
2.01100	-106
2.01467	-105
2.01833	-105
2.02200	-104
2.02567	-104
2.02933	-104
2.03300	-103
2.03667	-103
2.04033	-103
2.04400	-103
2.04767	-103
2.05133	-103
2.05500	-103
2.05867	-103
2.06233	-102
2.06600	-102
2.06967	-102
2.07333	-101
2.07700	-101
2.08067	-100
2.08433	-100
2.08800	-100
2.09167	-100
2.09533	-100
2.09900	-100
2.10267	-100
2.10633	-100
2.11000	-100
2.11367	-99
2.11733	-98
2.12100	-97
2.12467	-96
2.12833	-95
2.13200	-95
2.13567	-95
2.13933	-94
2.14300	-94
2.14667	-93
2.15033	-93
2.15400	-93
2.15767	-92
2.16133	-92
2.16500	-92
2.16867	-92
2.17233	-93
2.17600	-93
2.17967	-93
2.18333	-94
2.18700	-94
2.19067	-94
2.19433	-95
2.19800	-94
2.20167	-94
2.20533	-93
2.20900	-92
2.21267	-91
2.21633	-90
2.22000	-90
2.22367	-89
2.22733	-89
2.23100	-88
2.23467	-87
2.23833	-87
2.24200	-86
2.24567	-86
2.24933	-86
2.25300	-86
2.25667	-86
2.26033	-86
2.26400	-86
2.26767	-86
2.27133	-85
2.27500	-85
2.27867	-85
2.28233	-84
2.28600	-84
2.28967	-83
2.29333	-82
2.29700	-82
2.30067	-82
2.30433	-82
2.30800	-82
2.31167	-83
2.31533	-84
2.31900	-84
2.32267	-84
2.32633	-84
2.33000	-84
2.33367	-83
2.33733	-82
2.34100	-81
2.34467	-80
2.34833	-79
2.35200	-77
2.35567	-76
2.35933	-75
2.36300	-73
2.36667	-71
2.37033	-69
2.37400	-66
2.37767	-62
2.38133	-59
2.38500	-55
2.38867	-51
2.39233	-48
2.39600	-44
2.39967	-39
2.40333	-35
2.40700	-31
2.41067	-26
2.41433	-23
2.41800	-19
2.42167	-16
2.42533	-14
2.42900	-12
2.43267	-10
2.43633	-9
2.44000	-8
2.44367	-7
2.44733	-6
2.45100	-5
2.45467	-5
2.45833	-4
2.46200	-4
2.46567	-4
2.46933	-4
2.47300	-3
2.47667	-3
2.48033	-2
2.48400	-1
2.48767	1
2.49133	2
2.49500	4
2.49867	5
2.50233	6
2.50600	6
2.50967	7
2.51333	8
2.51700	9
2.52067	10
2.52433	10
2.52800	11
2.53167	12
2.53533	13
2.53900	14
2.54267	15
2.54633	15
2.55000	16
2.55367	16
2.55733	16
2.56100	17
2.56467	17
2.56833	17
2.57200	17
2.57567	16
2.57933	16
2.58300	15
2.58667	15
2.59033	15
2.59400	16
2.59767	17
2.60133	18
2.60500	18
2.60867	19
2.61233	20
2.61600	20
2.61967	21
2.62333	21
2.62700	22
2.63067	22
2.63433	22
2.63800	22
2.64167	22
2.64533	21
2.64900	20
2.65267	19
2.65633	18
2.66000	17
2.66367	17
2.66733	17
2.67100	17
2.67467	18
2.67833	18
2.68200	19
2.68567	20
2.68933	21
2.69300	22
2.69667	23
2.70033	23
2.70400	24
2.70767	25
2.71133	26
2.71500	26
2.71867	26
2.72233	26
2.72600	26
2.72967	25
2.73333	25
2.73700	24
2.74067	23
2.74433	23
2.74800	23
2.75167	22
2.75533	22
2.75900	23
2.76267	23
2.76633	23
2.77000	24
2.77367	24
2.77733	25
2.78100	25
2.78467	26
2.78833	26
2.79200	26
2.79567	26
2.79933	26
2.80300	26
2.80667	26
2.81033	26
2.81400	26
2.81767	26
2.82133	26
2.82500	26
2.82867	26
2.83233	26
2.83600	26
2.83967	25
2.84333	24
2.84700	22
2.85067	18
2.85433	11
2.85800	1
2.86167	-13
2.86533	-32
2.86900	-56
2.87267	-86
2.87633	-121
2.88000	-162
2.88367	-208
2.88733	-260
2.89100	-317
2.89467	-379
2.89833	-445
2.90200	-516
2.90567	-590
2.90933	-668
2.91300	-749
2.91667	-833
2.92033	-920
2.92400	-1010
2.92767	-1101
2.93133	-1195
2.93500	-1291
2.93867	-1386
2.94233	-1474
2.94600	-1539
2.94967	-1572
2.95333	-1568
2.95700	-1527
2.96067	-1457
2.96433	-1365
2.96800	-1259
2.97167	-1146
2.97533	-1032
2.97900	-920
2.98267	-814
2.98633	-716
2.99000	-626
2.99367	-544
2.99733	-471
3.00100	-407
3.00467	-350
3.00833	-300
3.01200	-257
3.01567	-219
3.01933	-187
3.02300	-159
3.02667	-135
3.03033	-114
3.03400	-96
3.03767	-80
3.04133	-67
3.04500	-56
3.04867	-47
3.05233	-39
3.05600	-32
3.05967	-26
3.06333	-21
3.06700	-16
3.07067	-13
3.07433	-10
3.07800	-7
3.08167	-4
3.08533	-2
3.08900	-0
3.09267	2
3.09633	3
3.10000	4
3.10367	5
3.10733	7
3.11100	8
3.11467	8
3.11833	9
3.12200	10
3.12567	10
3.12933	11
3.13300	11
3.13667	11
3.14033	12
3.14400	12
3.14767	12
3.15133	13
3.15500	13
3.15867	14
3.16233	14
3.16600	15
3.16967	16
3.17333	16
3.17700	17
3.18067	17
3.18433	17
3.18800	18
3.19167	18
3.19533	18
3.19900	19
3.20267	19
3.20633	19
3.21000	19
3.21367	19
3.21733	20
3.22100	20
3.22467	20
3.22833	20
3.23200	20
3.23567	20
3.23933	21
3.24300	21
3.24667	21
3.25033	22
3.25400	22
3.25767	22
3.26133	22
3.26500	23
3.26867	23
3.27233	23
3.27600	23
3.27967	23
3.28333	23
3.28700	24
3.29067	24
3.29433	24
3.29800	24
3.30167	24
3.30533	25
3.30900	25
3.31267	25
3.31633	25
3.32000	26
3.32367	26
3.32733	26
3.33100	26
3.33467	27
3.33833	27
3.34200	27
3.34567	27
3.34933	27
3.35300	27
3.35667	27
3.36033	27
3.36400	27
3.36767	27
3.37133	27
3.37500	27
3.37867	28
3.38233	28
3.38600	28
3.38967	27
3.39333	27
3.39700	27
3.40067	27
3.40433	26
3.40800	26
3.41167	26
3.41533	26
3.41900	25
3.42267	25
3.42633	25
3.43000	25
3.43367	26
3.43733	26
3.44100	26
3.44467	26
3.44833	27
3.45200	27
3.45567	27
3.45933	28
3.46300	28
3.46667	28
3.47033	28
3.47400	29
3.47767	28
3.48133	28
3.48500	28
3.48867	28
3.49233	27
3.49600	27
3.49967	27
3.50333	27
3.50700	26
3.51067	26
3.51433	26
3.51800	25
3.52167	25
3.52533	25
3.52900	25
3.53267	25
3.53633	25
3.54000	24
3.54367	24
3.54733	24
3.55100	24
3.55467	24
3.55833	24
3.56200	24
3.56567	24
3.56933	24
3.57300	24
3.57667	24
3.58033	25
3.58400	25
3.58767	25
3.59133	25
3.59500	26
3.59867	26
3.60233	26
3.60600	26
3.60967	26
3.61333	26
3.61700	27
3.62067	27
3.62433	27
3.62800	27
3.63167	27
3.63533	27
3.63900	26
3.64267	26
3.64633	27
3.65000	27
3.65367	27
3.65733	27
3.66100	27
3.66467	27
3.66833	27
3.67200	27
3.67567	27
3.67933	27
3.68300	27
3.68667	27
3.69033	27
3.69400	27
3.69767	27
3.70133	27
3.70500	28
3.70867	28
3.71233	28
3.71600	28
3.71967	28
3.72333	28
3.72700	28
3.73067	28
3.73433	28
3.73800	28
3.74167	28
3.74533	28
3.74900	28
3.75267	28
3.75633	28
3.76000	28
3.76367	27
3.76733	27
3.77100	27
3.77467	27
3.77833	27
3.78200	27
3.78567	26
3.78933	26
3.79300	26
3.79667	26
3.80033	25
3.80400	25
3.80767	25
3.81133	24
3.81500	24
3.81867	24
3.82233	24
3.82600	24
3.82967	24
3.83333	24
3.83700	24
3.84067	24
3.84433	24
3.84800	24
3.85167	24
3.85533	24
3.85900	25
3.86267	25
3.86633	25
3.87000	25
3.87367	26
3.87733	26
3.88100	26
3.88467	26
3.88833	26
3.89200	26
3.89567	26
3.89933	26
3.90300	26
3.90667	26
3.91033	26
3.91400	26
3.91767	26
3.92133	26
3.92500	26
3.92867	26
3.93233	26
3.93600	26
3.93967	26
3.94333	26
3.94700	26
3.95067	26
3.95433	26
3.95800	27
3.96167	27
3.96533	27
3.96900	27
3.97267	27
3.97633	27
3.98000	28
3.98367	28
3.98733	28
3.99100	28
3.99467	28
3.99833	27

[Chromatogram (Ch3)]
Interval(msec)	220
# of Points	1091
Start Time(min)	0.002
End Time(min)	3.998
R.Time (min)	Intensity
0.00167	-0
0.00533	-2
0.00900	-3
0.01267	-2
0.01633	-1
0.02000	-0
0.02367	-0
0.02733	-1
0.03100	-2
0.03467	-1
0.03833	-1
0.04200	-2
0.04567	-2
0.04933	-1
0.05300	-1
0.05667	-4
0.06033	-5
0.06400	-5
0.06767	-3
0.07133	-2
0.07500	-1
0.07867	1
0.08233	1
0.08600	-1
0.08967	-1
0.09333	1
0.09700	2
0.10067	2
0.10433	1
0.10800	1
0.11167	1
0.11533	2
0.11900	1
0.12267	0
0.12633	0
0.13000	-3
0.13367	-5
0.13733	-5
0.14100	-3
0.14467	-1
0.14833	-2
0.15200	-2
0.15567	-1
0.15933	0
0.16300	3
0.16667	3
0.17033	3
0.17400	5
0.17767	4
0.18133	4
0.18500	2
0.18867	1
0.19233	1
0.19600	1
0.19967	1
0.20333	1
0.20700	0
0.21067	0
0.21433	1
0.21800	1
0.22167	1
0.22533	-1
0.22900	-4
0.23267	-6
0.23633	-8
0.24000	-8
0.24367	-6
0.24733	-3
0.25100	-1
0.25467	-0
0.25833	-1
0.26200	-3
0.26567	-5
0.26933	-5
0.27300	-4
0.27667	-4
0.28033	-4
0.28400	-2
0.28767	-2
0.29133	-1
0.29500	2
0.29867	3
0.30233	4
0.30600	3
0.30967	2
0.31333	0
0.31700	-0
0.32067	0
0.32433	1
0.32800	2
0.33167	3
0.33533	5
0.33900	7
0.34267	6
0.34633	5
0.35000	5
0.35367	5
0.35733	7
0.36100	6
0.36467	5
0.36833	5
0.37200	5
0.37567	4
0.37933	4
0.38300	5
0.38667	5
0.39033	5
0.39400	5
0.39767	6
0.40133	9
0.40500	11
0.40867	10
0.41233	9
0.41600	9
0.41967	8
0.42333	9
0.42700	9
0.43067	8
0.43433	7
0.43800	6
0.44167	5
0.44533	3
0.44900	3
0.45267	6
0.45633	10
0.46000	13
0.46367	13
0.46733	13
0.47100	13
0.47467	11
0.47833	11
0.48200	11
0.48567	11
0.48933	12
0.49300	12
0.49667	11
0.50033	10
0.50400	8
0.50767	9
0.51133	8
0.51500	6
0.51867	6
0.52233	9
0.52600	12
0.52967	12
0.53333	10
0.53700	12
0.54067	13
0.54433	12
0.54800	11
0.55167	10
0.55533	9
0.55900	9
0.56267	7
0.56633	7
0.57000	7
0.57367	8
0.57733	9
0.58100	9
0.58467	9
0.58833	7
0.59200	6
0.59567	8
0.59933	12
0.60300	13
0.60667	11
0.61033	11
0.61400	10
0.61767	11
0.62133	12
0.62500	12
0.62867	13
0.63233	13
0.63600	14
0.63967	14
0.64333	13
0.64700	10
0.65067	10
0.65433	12
0.65800	14
0.66167	13
0.66533	13
0.66900	13
0.67267	15
0.67633	15
0.68000	14
0.68367	12
0.68733	12
0.69100	13
0.69467	14
0.69833	16
0.70200	18
0.70567	19
0.70933	18
0.71300	16
0.71667	13
0.72033	11
0.72400	11
0.72767	11
0.73133	14
0.73500	15
0.73867	15
0.74233	16
0.74600	16
0.74967	16
0.75333	15
0.75700	13
0.76067	12
0.76433	12
0.76800	14
0.77167	18
0.77533	20
0.77900	20
0.78267	19
0.78633	19
0.79000	19
0.79367	20
0.79733	19
0.80100	16
0.80467	14
0.80833	14
0.81200	15
0.81567	17
0.81933	19
0.82300	20
0.82667	19
0.83033	17
0.83400	14
0.83767	14
0.84133	17
0.84500	18
0.84867	19
0.85233	18
0.85600	20
0.85967	23
0.86333	23
0.86700	23
0.87067	24
0.87433	25
0.87800	25
0.88167	24
0.88533	23
0.88900	23
0.89267	23
0.89633	22
0.90000	20
0.90367	19
0.90733	17
0.91100	16
0.91467	17
0.91833	19
0.92200	19
0.92567	20
0.92933	21
0.93300	22
0.93667	24
0.94033	25
0.94400	25
0.94767	26
0.95133	24
0.95500	22
0.95867	21
0.96233	21
0.96600	22
0.96967	24
0.97333	25
0.97700	26
0.98067	26
0.98433	25
0.98800	24
0.99167	23
0.99533	22
0.99900	22
1.00267	20
1.00633	20
1.01000	22
1.01367	23
1.01733	23
1.02100	23
1.02467	23
1.02833	23
1.03200	22
1.03567	23
1.03933	25
1.04300	27
1.04667	27
1.05033	26
1.05400	25
1.05767	22
1.06133	21
1.06500	22
1.06867	21
1.07233	23
1.07600	26
1.07967	25
1.08333	26
1.08700	26
1.09067	24
1.09433	26
1.09800	27
1.10167	27
1.10533	27
1.10900	29
1.11267	30
1.11633	29
1.12000	30
1.12367	29
1.12733	29
1.13100	29
1.13467	29
1.13833	28
1.14200	27
1.14567	26
1.14933	25
1.15300	26
1.15667	27
1.16033	29
1.16400	31
1.16767	31
1.17133	30
1.17500	30
1.17867	29
1.18233	28
1.18600	26
1.18967	26
1.19333	26
1.19700	27
1.20067	28
1.20433	28
1.20800	28
1.21167	27
1.21533	28
1.21900	28
1.22267	29
1.22633	28
1.23000	26
1.23367	26
1.23733	28
1.24100	30
1.24467	31
1.24833	31
1.25200	32
1.25567	32
1.25933	32
1.26300	31
1.26667	30
1.27033	29
1.27400	30
1.27767	32
1.28133	34
1.28500	34
1.28867	34
1.29233	35
1.29600	34
1.29967	32
1.30333	32
1.30700	31
1.31067	31
1.31433	31
1.31800	30
1.32167	31
1.32533	33
1.32900	33
1.33267	34
1.33633	33
1.34000	32
1.34367	34
1.34733	38
1.35100	38
1.35467	35
1.35833	33
1.36200	33
1.36567	34
1.36933	37
1.37300	39
1.37667	39
1.38033	39
1.38400	40
1.38767	40
1.39133	40
1.39500	40
1.39867	42
1.40233	41
1.40600	39
1.40967	37
1.41333	35
1.41700	34
1.42067	35
1.42433	35
1.42800	35
1.43167	35
1.43533	36
1.43900	36
1.44267	37
1.44633	38
1.45000	39
1.45367	38
1.45733	37
1.46100	37
1.46467	36
1.46833	36
1.47200	38
1.47567	41
1.47933	40
1.48300	38
1.48667	38
1.49033	37
1.49400	39
1.49767	39
1.50133	39
1.50500	40
1.50867	41
1.51233	39
1.51600	38
1.51967	37
1.52333	36
1.52700	36
1.53067	37
1.53433	37
1.53800	37
1.54167	37
1.54533	38
1.54900	40
1.55267	40
1.55633	38
1.56000	37
1.56367	37
1.56733	37
1.57100	39
1.57467	40
1.57833	40
1.58200	41
1.58567	43
1.58933	45
1.59300	47
1.59667	47
1.60033	46
1.60400	44
1.60767	44
1.61133	45
1.61500	44
1.61867	45
1.62233	45
1.62600	46
1.62967	45
1.63333	44
1.63700	42
1.64067	40
1.64433	39
1.64800	42
1.65167	45
1.65533	47
1.65900	49
1.66267	47
1.66633	45
1.67000	45
1.67367	48
1.67733	52
1.68100	53
1.68467	52
1.68833	53
1.69200	54
1.69567	54
1.69933	54
1.70300	53
1.70667	53
1.71033	52
1.71400	50
1.71767	50
1.72133	52
1.72500	53
1.72867	55
1.73233	57
1.73600	58
1.73967	58
1.74333	58
1.74700	58
1.75067	59
1.75433	61
1.75800	62
1.76167	63
1.76533	64
1.76900	63
1.77267	62
1.77633	63
1.78000	63
1.78367	64
1.78733	66
1.79100	66
1.79467	66
1.79833	66
1.80200	66
1.80567	66
1.80933	67
1.81300	68
1.81667	71
1.82033	74
1.82400	75
1.82767	76
1.83133	74
1.83500	72
1.83867	70
1.84233	71
1.84600	72
1.84967	72
1.85333	74
1.85700	76
1.86067	79
1.86433	79
1.86800	77
1.87167	76
1.87533	76
1.87900	77
1.88267	80
1.88633	80
1.89000	80
1.89367	81
1.89733	81
1.90100	81
1.90467	83
1.90833	85
1.91200	87
1.91567	89
1.91933	91
1.92300	92
1.92667	91
1.93033	89
1.93400	89
1.93767	91
1.94133	91
1.94500	92
1.94867	93
1.95233	94
1.95600	95
1.95967	96
1.96333	98
1.96700	98
1.97067	98
1.97433	100
1.97800	102
1.98167	104
1.98533	106
1.98900	107
1.99267	104
1.99633	103
2.00000	104
2.00367	104
2.00733	106
2.01100	107
2.01467	108
2.01833	111
2.02200	113
2.02567	114
2.02933	114
2.03300	116
2.03667	118
2.04033	121
2.04400	125
2.04767	127
2.05133	126
2.05500	127
2.05867	126
2.06233	125
2.06600	127
2.06967	130
2.07333	132
2.07700	132
2.08067	133
2.08433	135
2.08800	136
2.09167	137
2.09533	139
2.09900	140
2.10267	141
2.10633	141
2.11000	142
2.11367	143
2.11733	143
2.12100	143
2.12467	142
2.12833	143
2.13200	146
2.13567	146
2.13933	146
2.14300	149
2.14667	153
2.15033	155
2.15400	155
2.15767	156
2.16133	156
2.16500	158
2.16867	161
2.17233	163
2.17600	162
2.17967	162
2.18333	163
2.18700	165
2.19067	168
2.19433	168
2.19800	167
2.20167	168
2.20533	170
2.20900	171
2.21267	172
2.21633	171
2.22000	171
2.22367	173
2.22733	175
2.23100	177
2.23467	177
2.23833	177
2.24200	178
2.24567	180
2.24933	182
2.25300	184
2.25667	185
2.26033	186
2.26400	186
2.26767	185
2.27133	186
2.27500	187
2.27867	188
2.28233	190
2.28600	191
2.28967	194
2.29333	195
2.29700	196
2.30067	195
2.30433	194
2.30800	197
2.31167	200
2.31533	201
2.31900	201
2.32267	202
2.32633	203
2.33000	204
2.33367	205
2.33733	205
2.34100	208
2.34467	211
2.34833	212
2.35200	211
2.35567	209
2.35933	210
2.36300	212
2.36667	213
2.37033	213
2.37400	212
2.37767	216
2.38133	218
2.38500	218
2.38867	217
2.39233	218
2.39600	220
2.39967	222
2.40333	224
2.40700	227
2.41067	228
2.41433	231
2.41800	232
2.42167	233
2.42533	234
2.42900	234
2.43267	231
2.43633	233
2.44000	237
2.44367	286
2.44733	408
2.45100	537
2.45467	641
2.45833	694
2.46200	692
2.46567	665
2.46933	635
2.47300	614
2.47667	603
2.48033	587
2.48400	558
2.48767	516
2.49133	473
2.49500	436
2.49867	407
2.50233	386
2.50600	376
2.50967	374
2.51333	380
2.51700	395
2.52067	411
2.52433	425
2.52800	432
2.53167	427
2.53533	413
2.53900	389
2.54267	365
2.54633	341
2.55000	318
2.55367	297
2.55733	282
2.56100	270
2.56467	261
2.56833	255
2.57200	250
2.57567	247
2.57933	244
2.58300	244
2.58667	244
2.59033	247
2.59400	251
2.59767	253
2.60133	255
2.60500	254
2.60867	251
2.61233	244
2.61600	237
2.61967	230
2.62333	223
2.62700	213
2.63067	203
2.63433	193
2.63800	186
2.64167	181
2.64533	174
2.64900	167
2.65267	159
2.65633	149
2.66000	139
2.66367	131
2.66733	124
2.67100	120
2.67467	117
2.67833	113
2.68200	113
2.68567	111
2.68933	108
2.69300	108
2.69667	110
2.70033	112
2.70400	114
2.70767	116
2.71133	119
2.71500	121
2.71867	123
2.72233	127
2.72600	131
2.72967	134
2.73333	138
2.73700	143
2.74067	146
2.74433	150
2.74800	152
2.75167	154
2.75533	156
2.75900	156
2.76267	155
2.76633	155
2.77000	156
2.77367	158
2.77733	162
2.78100	165
2.78467	169
2.78833	171
2.79200	175
2.79567	179
2.79933	183
2.80300	185
2.80667	189
2.81033	194
2.81400	199
2.81767	209
2.82133	232
2.82500	280
2.82867	385
2.83233	593
2.83600	968
2.83967	1579
2.84333	2477
2.84700	3684
2.85067	5182
2.85433	6899
2.85800	8729
2.86167	10543
2.86533	12194
2.86900	13557
2.87267	14540
2.87633	15091
2.88000	15216
2.88367	14955
2.88733	14381
2.89100	13578
2.89467	12624
2.89833	11592
2.90200	10537
2.90567	9496
2.90933	8503
2.91300	7574
2.91667	6724
2.92033	5951
2.92400	5254
2.92767	4629
2.93133	4071
2.93500	3575
2.93867	3139
2.94233	2757
2.94600	2421
2.94967	2125
2.95333	1866
2.95700	1641
2.96067	1444
2.96433	1274
2.96800	1127
2.97167	1000
2.97533	888
2.97900	792
2.98267	710
2.98633	641
2.99000	579
2.99367	527
2.99733	481
3.00100	440
3.00467	404
3.00833	372
3.01200	344
3.01567	320
3.01933	299
3.02300	283
3.02667	272
3.03033	261
3.03400	252
3.03767	246
3.04133	240
3.04500	233
3.04867	226
3.05233	220
3.05600	213
3.05967	209
3.06333	205
3.06700	202
3.07067	200
3.07433	198
3.07800	197
3.08167	196
3.08533	195
3.08900	193
3.09267	192
3.09633	191
3.10000	190
3.10367	190
3.10733	189
3.11100	187
3.11467	185
3.11833	185
3.12200	185
3.12567	186
3.12933	188
3.13300	188
3.13667	184
3.14033	170
3.14400	151
3.14767	145
3.15133	156
3.15500	180
3.15867	216
3.16233	254
3.16600	297
3.16967	343
3.17333	387
3.17700	429
3.18067	469
3.18433	507
3.18800	545
3.19167	579
3.19533	609
3.19900	635
3.20267	655
3.20633	673
3.21000	688
3.21367	701
3.21733	712
3.22100	723
3.22467	732
3.22833	741
3.23200	749
3.23567	757
3.23933	765
3.24300	770
3.24667	776
3.25033	781
3.25400	786
3.25767	790
3.26133	793
3.26500	798
3.26867	806
3.27233	813
3.27600	822
3.27967	831
3.28333	836
3.28700	838
3.29067	842
3.29433	845
3.29800	848
3.30167	852
3.30533	856
3.30900	860
3.31267	863
3.31633	864
3.32000	865
3.32367	866
3.32733	869
3.33100	870
3.33467	869
3.33833	870
3.34200	871
3.34567	870
3.34933	868
3.35300	867
3.35667	866
3.36033	868
3.36400	869
3.36767	869
3.37133	867
3.37500	866
3.37867	867
3.38233	868
3.38600	866
3.38967	864
3.39333	862
3.39700	859
3.40067	856
3.40433	852
3.40800	851
3.41167	848
3.41533	845
3.41900	842
3.42267	840
3.42633	837
3.43000	837
3.43367	838
3.43733	837
3.44100	833
3.44467	829
3.44833	827
3.45200	825
3.45567	824
3.45933	824
3.46300	822
3.46667	821
3.47033	819
3.47400	818
3.47767	815
3.48133	811
3.48500	806
3.48867	804
3.49233	805
3.49600	804
3.49967	804
3.50333	802
3.50700	801
3.51067	800
3.51433	800
3.51800	798
3.52167	798
3.52533	798
3.52900	797
3.53267	795
3.53633	793
3.54000	790
3.54367	787
3.54733	786
3.55100	784
3.55467	781
3.55833	776
3.56200	775
3.56567	775
3.56933	775
3.57300	776
3.57667	777
3.58033	777
3.58400	780
3.58767	781
3.59133	777
3.59500	773
3.59867	770
3.60233	768
3.60600	769
3.60967	768
3.61333	768
3.61700	768
3.62067	763
3.62433	760
3.62800	756
3.63167	755
3.63533	754
3.63900	754
3.64267	752
3.64633	748
3.65000	748
3.65367	749
3.65733	752
3.66100	752
3.66467	751
3.66833	749
3.67200	742
3.67567	736
3.67933	732
3.68300	728
3.68667	725
3.69033	721
3.69400	717
3.69767	714
3.70133	712
3.70500	712
3.70867	711
3.71233	710
3.71600	709
3.71967	706
3.72333	703
3.72700	699
3.73067	694
3.73433	690
3.73800	689
3.74167	689
3.74533	688
3.74900	686
3.75267	683
3.75633	680
3.76000	678
3.76367	675
3.76733	673
3.77100	672
3.77467	671
3.77833	670
3.78200	670
3.78567	669
3.78933	668
3.79300	668
3.79667	665
3.80033	662
3.80400	660
3.80767	658
3.81133	655
3.81500	652
3.81867	651
3.82233	648
3.82600	646
3.82967	646
3.83333	645
3.83700	642
3.84067	638
3.84433	634
3.84800	630
3.85167	626
3.85533	624
3.85900	623
3.86267	625
3.86633	624
3.87000	622
3.87367	621
3.87733	619
3.88100	617
3.88467	615
3.88833	614
3.89200	612
3.89567	611
3.89933	608
3.90300	604
3.90667	603
3.91033	604
3.91400	603
3.91767	603
3.92133	603
3.92500	601
3.92867	597
3.93233	594
3.93600	591
3.93967	588
3.94333	584
3.94700	580
3.95067	576
3.95433	574
3.95800	573
3.96167	575
3.96533	577
3.96900	577
3.97267	575
3.97633	572
3.98000	567
3.98367	566
3.98733	570
3.99100	573
3.99467	570
3.99833	565

[Status Trace (Column Oven Temperature)]
Interval(msec)	1000
# of Points	240
Start Time(min)	0.003
End Time(min)	3.986
Intensity Units	
Intensity Multiplier	1
R.Time (min)	Intensity
0.00303	35.03
0.01970	35.03
0.03637	35.01
0.05303	35.02
0.06970	35.01
0.08637	35.02
0.10303	35.02
0.11970	35.02
0.13637	35.01
0.15303	35.00
0.16970	35.00
0.18637	35.01
0.20303	35.02
0.21970	35.01
0.23637	35.00
0.25303	35.01
0.26970	35.02
0.28637	35.04
0.30303	35.05
0.31970	35.05
0.33637	35.05
0.35303	35.05
0.36970	35.05
0.38637	35.06
0.40303	35.05
0.41970	35.04
0.43637	35.04
0.45303	35.04
0.46970	35.03
0.48637	35.02
0.50303	35.02
0.51970	35.02
0.53637	35.02
0.55303	35.02
0.56970	35.02
0.58637	35.01
0.60303	35.00
0.61970	35.01
0.63637	34.99
0.65303	34.99
0.66970	34.99
0.68637	34.98
0.70303	34.98
0.71970	34.98
0.73637	34.98
0.75303	34.99
0.76970	35.00
0.78637	35.01
0.80303	35.02
0.81970	35.02
0.83637	35.02
0.85303	35.02
0.86970	35.02
0.88637	35.03
0.90303	35.04
0.91970	35.03
0.93637	35.02
0.95303	35.01
0.96970	35.00
0.98637	35.00
1.00303	35.00
1.01970	35.00
1.03637	35.00
1.05303	34.99
1.06970	34.99
1.08637	34.98
1.10303	34.98
1.11970	34.99
1.13637	34.99
1.15303	34.99
1.16970	34.99
1.18637	34.99
1.20303	34.98
1.21970	34.99
1.23637	35.00
1.25303	35.00
1.26970	35.00
1.28637	35.00
1.30303	35.00
1.31970	35.00
1.33637	35.00
1.35303	34.98
1.36970	34.97
1.38637	34.98
1.40303	34.99
1.41970	34.99
1.43637	34.99
1.45303	34.99
1.46970	34.99
1.48637	34.99
1.50303	35.00
1.51970	35.00
1.53637	35.01
1.55303	35.00
1.56970	35.01
1.58637	35.00
1.60303	35.03
1.61970	35.13
1.63637	35.29
1.65303	35.53
1.66970	35.86
1.68637	36.23
1.70303	36.58
1.71970	36.93
1.73637	37.26
1.75303	37.57
1.76970	37.89
1.78637	38.22
1.80303	38.55
1.81970	38.90
1.83637	39.22
1.85303	39.56
1.86970	39.90
1.88637	40.23
1.90303	40.57
1.91970	40.89
1.93637	41.21
1.95303	41.53
1.96970	41.85
1.98637	42.19
2.00303	42.50
2.01970	42.82
2.03637	43.15
2.05303	43.47
2.06970	43.78
2.08637	44.12
2.10303	44.45
2.11970	44.78
2.13637	45.10
2.15303	45.43
2.16970	45.76
2.18637	46.10
2.20303	46.43
2.21970	46.75
2.23637	47.06
2.25303	47.39
2.26970	47.73
2.28637	48.05
2.30303	48.39
2.31970	48.76
2.33637	49.07
2.35303	49.36
2.36970	49.58
2.38637	49.68
2.40303	49.69
2.41970	49.69
2.43637	49.69
2.45303	49.69
2.46970	49.72
2.48637	49.72
2.50303	49.74
2.51970	49.75
2.53637	49.76
2.55303	49.78
2.56970	49.79
2.58637	49.81
2.60303	49.80
2.61970	49.80
2.63637	49.81
2.65303	49.86
2.66970	49.88
2.68637	49.88
2.70303	49.84
2.71970	49.83
2.73637	49.86
2.75303	49.87
2.76970	49.86
2.78637	49.86
2.80303	49.86
2.81970	49.86
2.83637	49.86
2.85303	49.86
2.86970	49.86
2.88637	49.87
2.90303	49.88
2.91970	49.90
2.93637	49.92
2.95303	49.95
2.96970	49.97
2.98637	49.98
3.00303	50.00
3.01970	50.00
3.03637	50.00
3.05303	50.01
3.06970	50.02
3.08637	50.02
3.10303	50.03
3.11970	50.04
3.13637	50.06
3.15303	50.07
3.16970	50.07
3.18637	50.08
3.20303	50.09
3.21970	50.10
3.23637	50.10
3.25303	50.10
3.26970	50.10
3.28637	50.09
3.30303	50.08
3.31970	50.07
3.33637	50.06
3.35303	50.05
3.36970	50.04
3.38637	50.05
3.40303	50.06
3.41970	50.06
3.43637	50.06
3.45303	50.04
3.46970	50.03
3.48637	50.04
3.50303	50.05
3.51970	50.07
3.53637	50.08
3.55303	50.09
3.56970	50.09
3.58637	50.09
3.60303	50.09
3.61970	50.09
3.63637	50.09
3.65303	50.09
3.66970	50.08
3.68637	50.07
3.70303	50.06
3.71970	50.06
3.73637	50.05
3.75303	50.05
3.76970	50.05
3.78637	50.06
3.80303	50.07
3.81970	50.08
3.83637	50.08
3.85303	50.08
3.86970	50.08
3.88637	50.08
3.90303	50.07
3.91970	50.07
3.93637	50.07
3.95303	50.07
3.96970	50.07
3.98637	50.06

[Status Trace (Injection Unit Temperature)]
Interval(msec)	1000
# of Points	240
Start Time(min)	0.003
End Time(min)	3.986
Intensity Units	
Intensity Multiplier	1
R.Time (min)	Intensity
0.00303	99.97
0.01970	99.97
0.03637	99.98
0.05303	99.98
0.06970	99.97
0.08637	99.97
0.10303	99.98
0.11970	99.98
0.13637	99.98
0.15303	99.98
0.16970	99.98
0.18637	99.98
0.20303	99.97
0.21970	99.98
0.23637	99.98
0.25303	99.98
0.26970	99.98
0.28637	99.98
0.30303	99.97
0.31970	99.98
0.33637	99.97
0.35303	99.98
0.36970	99.98
0.38637	99.98
0.40303	99.98
0.41970	99.97
0.43637	99.97
0.45303	99.98
0.46970	99.98
0.48637	99.98
0.50303	99.98
0.51970	99.98
0.53637	99.98
0.55303	99.98
0.56970	99.98
0.58637	99.98
0.60303	99.98
0.61970	99.98
0.63637	99.98
0.65303	99.98
0.66970	99.98
0.68637	99.98
0.70303	99.98
0.71970	99.98
0.73637	99.98
0.75303	99.98
0.76970	99.98
0.78637	99.98
0.80303	99.98
0.81970	99.99
0.83637	99.98
0.85303	99.98
0.86970	99.98
0.88637	99.99
0.90303	99.98
0.91970	99.99
0.93637	99.99
0.95303	99.98
0.96970	99.98
0.98637	99.98
1.00303	99.98
1.01970	99.98
1.03637	99.98
1.05303	99.98
1.06970	99.98
1.08637	99.98
1.10303	99.98
1.11970	99.98
1.13637	99.98
1.15303	99.98
1.16970	99.98
1.18637	99.98
1.20303	99.98
1.21970	99.98
1.23637	99.98
1.25303	99.98
1.26970	99.98
1.28637	99.98
1.30303	99.98
1.31970	99.98
1.33637	99.97
1.35303	99.98
1.36970	99.97
1.38637	99.98
1.40303	99.98
1.41970	99.97
1.43637	99.98
1.45303	99.98
1.46970	99.98
1.48637	99.97
1.50303	99.98
1.51970	99.98
1.53637	99.98
1.55303	99.98
1.56970	99.98
1.58637	99.98
1.60303	99.98
1.61970	99.98
1.63637	99.98
1.65303	99.98
1.66970	99.98
1.68637	99.98
1.70303	99.98
1.71970	99.98
1.73637	99.98
1.75303	99.98
1.76970	99.98
1.78637	99.99
1.80303	99.98
1.81970	99.98
1.83637	99.98
1.85303	99.98
1.86970	99.98
1.88637	99.98
1.90303	99.98
1.91970	99.98
1.93637	99.98
1.95303	99.99
1.96970	99.98
1.98637	99.98
2.00303	99.98
2.01970	99.98
2.03637	99.98
2.05303	99.98
2.06970	99.98
2.08637	99.98
2.10303	99.98
2.11970	99.98
2.13637	99.98
2.15303	99.98
2.16970	99.98
2.18637	99.98
2.20303	99.98
2.21970	99.98
2.23637	99.98
2.25303	99.98
2.26970	99.98
2.28637	99.98
2.30303	99.98
2.31970	99.97
2.33637	99.98
2.35303	99.97
2.36970	99.98
2.38637	99.97
2.40303	99.97
2.41970	99.97
2.43637	99.97
2.45303	99.98
2.46970	99.98
2.48637	99.97
2.50303	99.98
2.51970	99.98
2.53637	99.97
2.55303	99.98
2.56970	99.98
2.58637	99.98
2.60303	99.98
2.61970	99.98
2.63637	99.98
2.65303	99.98
2.66970	99.98
2.68637	99.98
2.70303	99.98
2.71970	99.98
2.73637	99.98
2.75303	99.99
2.76970	99.99
2.78637	99.99
2.80303	99.99
2.81970	99.99
2.83637	99.99
2.85303	99.99
2.86970	99.99
2.88637	99.99
2.90303	100.00
2.91970	100.00
2.93637	100.00
2.95303	100.00
2.96970	100.01
2.98637	100.00
3.00303	100.01
3.01970	100.01
3.03637	100.01
3.05303	100.01
3.06970	100.01
3.08637	100.01
3.10303	100.02
3.11970	100.02
3.13637	100.02
3.15303	100.01
3.16970	100.02
3.18637	100.02
3.20303	100.02
3.21970	100.02
3.23637	100.02
3.25303	100.02
3.26970	100.02
3.28637	100.02
3.30303	100.02
3.31970	100.02
3.33637	100.02
3.35303	100.02
3.36970	100.02
3.38637	100.03
3.40303	100.02
3.41970	100.03
3.43637	100.03
3.45303	100.03
3.46970	100.03
3.48637	100.03
3.50303	100.03
3.51970	100.03
3.53637	100.04
3.55303	100.03
3.56970	100.04
3.58637	100.03
3.60303	100.04
3.61970	100.04
3.63637	100.04
3.65303	100.04
3.66970	100.04
3.68637	100.04
3.70303	100.04
3.71970	100.04
3.73637	100.04
3.75303	100.04
3.76970	100.04
3.78637	100.05
3.80303	100.04
3.81970	100.05
3.83637	100.05
3.85303	100.04
3.86970	100.04
3.88637	100.04
3.90303	100.04
3.91970	100.05
3.93637	100.05
3.95303	100.05
3.96970	100.05
3.98637	100.05

[Status Trace (Carrier Gas Pressure)]
Interval(msec)	1000
# of Points	240
Start Time(min)	0.003
End Time(min)	3.986
Intensity Units	
Intensity Multiplier	1
R.Time (min)	Intensity
0.00303	58.00
0.01970	56.22
0.03637	56.43
0.05303	58.72
0.06970	59.82
0.08637	58.23
0.10303	57.97
0.11970	58.01
0.13637	58.01
0.15303	58.01
0.16970	58.00
0.18637	58.00
0.20303	58.00
0.21970	58.00
0.23637	58.00
0.25303	58.00
0.26970	58.00
0.28637	58.00
0.30303	58.00
0.31970	58.00
0.33637	58.00
0.35303	58.00
0.36970	58.00
0.38637	58.00
0.40303	58.00
0.41970	58.00
0.43637	58.00
0.45303	58.00
0.46970	58.00
0.48637	58.00
0.50303	58.00
0.51970	58.00
0.53637	58.00
0.55303	58.00
0.56970	58.00
0.58637	58.00
0.60303	58.00
0.61970	58.00
0.63637	58.00
0.65303	58.00
0.66970	58.00
0.68637	58.00
0.70303	58.00
0.71970	58.00
0.73637	58.00
0.75303	58.00
0.76970	58.00
0.78637	58.00
0.80303	58.00
0.81970	58.00
0.83637	58.00
0.85303	58.00
0.86970	58.00
0.88637	58.00
0.90303	58.00
0.91970	58.00
0.93637	58.00
0.95303	58.00
0.96970	58.00
0.98637	58.00
1.00303	58.00
1.01970	58.00
1.03637	58.00
1.05303	58.00
1.06970	58.00
1.08637	58.00
1.10303	58.00
1.11970	58.00
1.13637	58.00
1.15303	58.00
1.16970	58.00
1.18637	58.00
1.20303	58.00
1.21970	58.00
1.23637	58.00
1.25303	58.00
1.26970	58.00
1.28637	58.00
1.30303	58.00
1.31970	58.00
1.33637	58.00
1.35303	58.00
1.36970	58.00
1.38637	58.00
1.40303	58.00
1.41970	58.00
1.43637	58.00
1.45303	58.00
1.46970	58.00
1.48637	58.00
1.50303	58.00
1.51970	58.00
1.53637	58.00
1.55303	58.00
1.56970	58.00
1.58637	58.00
1.60303	58.00
1.61970	58.00
1.63637	58.01
1.65303	58.01
1.66970	58.01
1.68637	58.01
1.70303	58.00
1.71970	58.00
1.73637	58.00
1.75303	58.00
1.76970	58.00
1.78637	58.00
1.80303	58.00
1.81970	58.00
1.83637	58.00
1.85303	58.00
1.86970	58.00
1.88637	58.00
1.90303	58.00
1.91970	58.00
1.93637	58.00
1.95303	58.00
1.96970	58.00
1.98637	58.00
2.00303	58.00
2.01970	58.00
2.03637	58.00
2.05303	58.00
2.06970	58.00
2.08637	58.00
2.10303	58.00
2.11970	58.00
2.13637	58.00
2.15303	58.00
2.16970	58.00
2.18637	58.00
2.20303	58.00
2.21970	58.00
2.23637	58.00
2.25303	58.00
2.26970	58.00
2.28637	58.00
2.30303	58.00
2.31970	58.00
2.33637	58.00
2.35303	58.00
2.36970	58.00
2.38637	57.99
2.40303	57.99
2.41970	58.00
2.43637	58.00
2.45303	58.00
2.46970	58.00
2.48637	58.00
2.50303	57.97
2.51970	58.01
2.53637	57.99
2.55303	58.00
2.56970	58.00
2.58637	58.00
2.60303	58.00
2.61970	58.00
2.63637	58.00
2.65303	58.00
2.66970	58.00
2.68637	58.00
2.70303	58.00
2.71970	58.00
2.73637	58.00
2.75303	58.00
2.76970	58.00
2.78637	58.00
2.80303	58.00
2.81970	58.00
2.83637	58.00
2.85303	58.00
2.86970	58.00
2.88637	58.00
2.90303	58.00
2.91970	58.00
2.93637	58.00
2.95303	58.00
2.96970	58.00
2.98637	58.00
3.00303	58.00
3.01970	58.00
3.03637	58.00
3.05303	58.00
3.06970	58.00
3.08637	58.00
3.10303	58.00
3.11970	58.00
3.13637	58.00
3.15303	58.00
3.16970	58.00
3.18637	58.00
3.20303	58.00
3.21970	58.00
3.23637	58.00
3.25303	58.00
3.26970	58.00
3.28637	58.00
3.30303	58.00
3.31970	58.00
3.33637	58.00
3.35303	58.00
3.36970	58.00
3.38637	58.00
3.40303	58.00
3.41970	58.00
3.43637	58.00
3.45303	58.00
3.46970	58.00
3.48637	58.00
3.50303	58.00
3.51970	58.00
3.53637	58.00
3.55303	58.00
3.56970	58.00
3.58637	58.00
3.60303	58.00
3.61970	58.00
3.63637	58.00
3.65303	58.00
3.66970	58.00
3.68637	58.00
3.70303	58.00
3.71970	58.00
3.73637	58.00
3.75303	58.00
3.76970	58.00
3.78637	58.00
3.80303	58.00
3.81970	58.00
3.83637	58.00
3.85303	58.00
3.86970	58.00
3.88637	58.00
3.90303	58.00
3.91970	58.00
3.93637	58.00
3.95303	58.00
3.96970	58.00
3.98637	58.00

[Status Trace (Carrier Gas Flow)]
Interval(msec)	1000
# of Points	240
Start Time(min)	0.003
End Time(min)	3.986
Intensity Units	
Intensity Multiplier	1
R.Time (min)	Intensity
0.00303	34.53
0.01970	34.59
0.03637	34.54
0.05303	34.55
0.06970	34.49
0.08637	34.52
0.10303	34.52
0.11970	34.52
0.13637	34.52
0.15303	34.52
0.16970	34.52
0.18637	34.52
0.20303	34.52
0.21970	34.52
0.23637	34.52
0.25303	34.52
0.26970	34.51
0.28637	34.52
0.30303	34.52
0.31970	34.52
0.33637	34.52
0.35303	34.52
0.36970	34.52
0.38637	34.52
0.40303	34.52
0.41970	34.52
0.43637	34.52
0.45303	34.52
0.46970	34.52
0.48637	34.52
0.50303	34.52
0.51970	34.52
0.53637	34.52
0.55303	34.51
0.56970	34.52
0.58637	34.52
0.60303	34.52
0.61970	34.52
0.63637	34.53
0.65303	34.52
0.66970	34.51
0.68637	34.52
0.70303	34.52
0.71970	34.52
0.73637	34.52
0.75303	34.52
0.76970	34.52
0.78637	34.52
0.80303	34.52
0.81970	34.52
0.83637	34.52
0.85303	34.52
0.86970	34.52
0.88637	34.52
0.90303	34.52
0.91970	34.52
0.93637	34.52
0.95303	34.52
0.96970	34.52
0.98637	34.52
1.00303	34.52
1.01970	34.52
1.03637	34.52
1.05303	34.52
1.06970	34.52
1.08637	34.52
1.10303	34.52
1.11970	34.52
1.13637	34.52
1.15303	34.52
1.16970	34.52
1.18637	34.52
1.20303	34.51
1.21970	34.52
1.23637	34.52
1.25303	34.52
1.26970	34.52
1.28637	34.52
1.30303	34.52
1.31970	34.52
1.33637	34.52
1.35303	34.52
1.36970	34.52
1.38637	34.52
1.40303	34.52
1.41970	34.52
1.43637	34.52
1.45303	34.52
1.46970	34.52
1.48637	34.52
1.50303	34.52
1.51970	34.52
1.53637	34.52
1.55303	34.51
1.56970	34.52
1.58637	34.52
1.60303	34.51
1.61970	34.52
1.63637	34.53
1.65303	34.52
1.66970	34.51
1.68637	34.53
1.70303	34.52
1.71970	34.53
1.73637	34.52
1.75303	34.51
1.76970	34.52
1.78637	34.52
1.80303	34.52
1.81970	34.52
1.83637	34.52
1.85303	34.51
1.86970	34.52
1.88637	34.52
1.90303	34.52
1.91970	34.52
1.93637	34.52
1.95303	34.52
1.96970	34.52
1.98637	34.52
2.00303	34.52
2.01970	34.52
2.03637	34.53
2.05303	34.51
2.06970	34.52
2.08637	34.52
2.10303	34.52
2.11970	34.51
2.13637	34.52
2.15303	34.52
2.16970	34.52
2.18637	34.52
2.20303	34.52
2.21970	34.52
2.23637	34.52
2.25303	34.52
2.26970	34.52
2.28637	34.52
2.30303	34.52
2.31970	34.51
2.33637	34.52
2.35303	34.52
2.36970	34.52
2.38637	34.51
2.40303	34.51
2.41970	34.51
2.43637	34.52
2.45303	34.52
2.46970	34.52
2.48637	34.52
2.50303	34.70
2.51970	34.52
2.53637	34.51
2.55303	34.52
2.56970	34.52
2.58637	34.52
2.60303	34.52
2.61970	34.51
2.63637	34.52
2.65303	34.52
2.66970	34.52
2.68637	34.52
2.70303	34.52
2.71970	34.52
2.73637	34.51
2.75303	34.52
2.76970	34.52
2.78637	34.52
2.80303	34.52
2.81970	34.52
2.83637	34.52
2.85303	34.52
2.86970	34.51
2.88637	34.52
2.90303	34.52
2.91970	34.52
2.93637	34.51
2.95303	34.52
2.96970	34.52
2.98637	34.52
3.00303	34.52
3.01970	34.52
3.03637	34.52
3.05303	34.52
3.06970	34.52
3.08637	34.52
3.10303	34.52
3.11970	34.52
3.13637	34.52
3.15303	34.51
3.16970	34.52
3.18637	34.52
3.20303	34.51
3.21970	34.52
3.23637	34.52
3.25303	34.52
3.26970	34.51
3.28637	34.52
3.30303	34.52
3.31970	34.52
3.33637	34.52
3.35303	34.52
3.36970	34.52
3.38637	34.52
3.40303	34.51
3.41970	34.52
3.43637	34.52
3.45303	34.52
3.46970	34.51
3.48637	34.52
3.50303	34.51
3.51970	34.52
3.53637	34.52
3.55303	34.52
3.56970	34.52
3.58637	34.52
3.60303	34.52
3.61970	34.52
3.63637	34.52
3.65303	34.52
3.66970	34.52
3.68637	34.52
3.70303	34.52
3.71970	34.52
3.73637	34.52
3.75303	34.52
3.76970	34.52
3.78637	34.52
3.80303	34.52
3.81970	34.52
3.83637	34.52
3.85303	34.52
3.86970	34.52
3.88637	34.52
3.90303	34.52
3.91970	34.52
3.93637	34.52
3.95303	34.52
3.96970	34.52
3.98637	34.52

[Status Trace (Column Flow)]
Interval(msec)	1000
# of Points	240
Start Time(min)	0.003
End Time(min)	3.986
Intensity Units	
Intensity Multiplier	1
R.Time (min)	Intensity
0.00303	5.53
0.01970	5.32
0.03637	5.35
0.05303	5.61
0.06970	5.74
0.08637	5.55
0.10303	5.52
0.11970	5.53
0.13637	5.53
0.15303	5.53
0.16970	5.53
0.18637	5.53
0.20303	5.53
0.21970	5.53
0.23637	5.53
0.25303	5.53
0.26970	5.53
0.28637	5.53
0.30303	5.53
0.31970	5.53
0.33637	5.53
0.35303	5.53
0.36970	5.53
0.38637	5.53
0.40303	5.53
0.41970	5.53
0.43637	5.53
0.45303	5.53
0.46970	5.53
0.48637	5.53
0.50303	5.53
0.51970	5.53
0.53637	5.53
0.55303	5.53
0.56970	5.53
0.58637	5.53
0.60303	5.53
0.61970	5.53
0.63637	5.53
0.65303	5.53
0.66970	5.53
0.68637	5.53
0.70303	5.53
0.71970	5.53
0.73637	5.53
0.75303	5.53
0.76970	5.53
0.78637	5.53
0.80303	5.53
0.81970	5.53
0.83637	5.53
0.85303	5.53
0.86970	5.53
0.88637	5.53
0.90303	5.53
0.91970	5.53
0.93637	5.53
0.95303	5.53
0.96970	5.53
0.98637	5.53
1.00303	5.53
1.01970	5.53
1.03637	5.53
1.05303	5.53
1.06970	5.53
1.08637	5.53
1.10303	5.53
1.11970	5.53
1.13637	5.53
1.15303	5.53
1.16970	5.53
1.18637	5.53
1.20303	5.53
1.21970	5.53
1.23637	5.53
1.25303	5.53
1.26970	5.53
1.28637	5.53
1.30303	5.53
1.31970	5.53
1.33637	5.53
1.35303	5.53
1.36970	5.53
1.38637	5.53
1.40303	5.53
1.41970	5.53
1.43637	5.53
1.45303	5.53
1.46970	5.53
1.48637	5.53
1.50303	5.53
1.51970	5.53
1.53637	5.53
1.55303	5.53
1.56970	5.53
1.58637	5.53
1.60303	5.53
1.61970	5.53
1.63637	5.52
1.65303	5.51
1.66970	5.50
1.68637	5.49
1.70303	5.48
1.71970	5.47
1.73637	5.46
1.75303	5.45
1.76970	5.44
1.78637	5.43
1.80303	5.42
1.81970	5.41
1.83637	5.40
1.85303	5.39
1.86970	5.38
1.88637	5.37
1.90303	5.36
1.91970	5.35
1.93637	5.34
1.95303	5.33
1.96970	5.32
1.98637	5.31
2.00303	5.30
2.01970	5.29
2.03637	5.28
2.05303	5.27
2.06970	5.26
2.08637	5.25
2.10303	5.24
2.11970	5.23
2.13637	5.22
2.15303	5.21
2.16970	5.20
2.18637	5.19
2.20303	5.18
2.21970	5.18
2.23637	5.17
2.25303	5.16
2.26970	5.15
2.28637	5.14
2.30303	5.13
2.31970	5.12
2.33637	5.11
2.35303	5.10
2.36970	5.10
2.38637	5.09
2.40303	5.09
2.41970	5.09
2.43637	5.09
2.45303	5.09
2.46970	5.09
2.48637	5.09
2.50303	5.09
2.51970	5.09
2.53637	5.09
2.55303	5.09
2.56970	5.09
2.58637	5.09
2.60303	5.09
2.61970	5.09
2.63637	5.09
2.65303	5.09
2.66970	5.09
2.68637	5.09
2.70303	5.09
2.71970	5.09
2.73637	5.09
2.75303	5.09
2.76970	5.09
2.78637	5.09
2.80303	5.09
2.81970	5.09
2.83637	5.09
2.85303	5.09
2.86970	5.09
2.88637	5.09
2.90303	5.09
2.91970	5.09
2.93637	5.09
2.95303	5.09
2.96970	5.09
2.98637	5.09
3.00303	5.09
3.01970	5.08
3.03637	5.09
3.05303	5.08
3.06970	5.08
3.08637	5.08
3.10303	5.08
3.11970	5.08
3.13637	5.08
3.15303	5.08
3.16970	5.08
3.18637	5.08
3.20303	5.08
3.21970	5.08
3.23637	5.08
3.25303	5.08
3.26970	5.08
3.28637	5.08
3.30303	5.08
3.31970	5.08
3.33637	5.08
3.35303	5.08
3.36970	5.08
3.38637	5.08
3.40303	5.08
3.41970	5.08
3.43637	5.08
3.45303	5.08
3.46970	5.08
3.48637	5.08
3.50303	5.08
3.51970	5.08
3.53637	5.08
3.55303	5.08
3.56970	5.08
3.58637	5.08
3.60303	5.08
3.61970	5.08
3.63637	5.08
3.65303	5.08
3.66970	5.08
3.68637	5.08
3.70303	5.08
3.71970	5.08
3.73637	5.08
3.75303	5.08
3.76970	5.08
3.78637	5.08
3.80303	5.08
3.81970	5.08
3.83637	5.08
3.85303	5.08
3.86970	5.08
3.88637	5.08
3.90303	5.08
3.91970	5.08
3.93637	5.08
3.95303	5.08
3.96970	5.08
3.98637	5.08

[Status Trace (Linear Velocity)]
Interval(msec)	1000
# of Points	240
Start Time(min)	0.003
End Time(min)	3.986
Intensity Units	
Intensity Multiplier	1
R.Time (min)	Intensity
0.00303	39.02
0.01970	37.85
0.03637	37.99
0.05303	39.49
0.06970	40.21
0.08637	39.17
0.10303	39.00
0.11970	39.02
0.13637	39.02
0.15303	39.02
0.16970	39.02
0.18637	39.02
0.20303	39.02
0.21970	39.02
0.23637	39.02
0.25303	39.02
0.26970	39.02
0.28637	39.02
0.30303	39.01
0.31970	39.01
0.33637	39.01
0.35303	39.01
0.36970	39.01
0.38637	39.01
0.40303	39.01
0.41970	39.01
0.43637	39.01
0.45303	39.02
0.46970	39.02
0.48637	39.02
0.50303	39.02
0.51970	39.02
0.53637	39.02
0.55303	39.02
0.56970	39.02
0.58637	39.02
0.60303	39.02
0.61970	39.02
0.63637	39.02
0.65303	39.02
0.66970	39.02
0.68637	39.02
0.70303	39.02
0.71970	39.02
0.73637	39.02
0.75303	39.02
0.76970	39.02
0.78637	39.02
0.80303	39.02
0.81970	39.02
0.83637	39.02
0.85303	39.02
0.86970	39.02
0.88637	39.02
0.90303	39.01
0.91970	39.02
0.93637	39.02
0.95303	39.02
0.96970	39.02
0.98637	39.02
1.00303	39.02
1.01970	39.02
1.03637	39.02
1.05303	39.02
1.06970	39.02
1.08637	39.02
1.10303	39.02
1.11970	39.02
1.13637	39.02
1.15303	39.02
1.16970	39.02
1.18637	39.02
1.20303	39.02
1.21970	39.02
1.23637	39.02
1.25303	39.02
1.26970	39.02
1.28637	39.02
1.30303	39.02
1.31970	39.02
1.33637	39.02
1.35303	39.02
1.36970	39.02
1.38637	39.02
1.40303	39.02
1.41970	39.02
1.43637	39.02
1.45303	39.02
1.46970	39.02
1.48637	39.02
1.50303	39.02
1.51970	39.02
1.53637	39.02
1.55303	39.02
1.56970	39.02
1.58637	39.02
1.60303	39.02
1.61970	39.01
1.63637	38.99
1.65303	38.97
1.66970	38.94
1.68637	38.90
1.70303	38.87
1.71970	38.83
1.73637	38.80
1.75303	38.77
1.76970	38.74
1.78637	38.71
1.80303	38.68
1.81970	38.65
1.83637	38.62
1.85303	38.59
1.86970	38.55
1.88637	38.52
1.90303	38.49
1.91970	38.46
1.93637	38.43
1.95303	38.40
1.96970	38.37
1.98637	38.34
2.00303	38.31
2.01970	38.28
2.03637	38.25
2.05303	38.22
2.06970	38.19
2.08637	38.16
2.10303	38.13
2.11970	38.10
2.13637	38.07
2.15303	38.04
2.16970	38.01
2.18637	37.98
2.20303	37.95
2.21970	37.92
2.23637	37.90
2.25303	37.87
2.26970	37.83
2.28637	37.81
2.30303	37.78
2.31970	37.74
2.33637	37.72
2.35303	37.69
2.36970	37.67
2.38637	37.66
2.40303	37.66
2.41970	37.66
2.43637	37.66
2.45303	37.66
2.46970	37.66
2.48637	37.66
2.50303	37.64
2.51970	37.67
2.53637	37.65
2.55303	37.66
2.56970	37.65
2.58637	37.65
2.60303	37.65
2.61970	37.65
2.63637	37.65
2.65303	37.65
2.66970	37.64
2.68637	37.64
2.70303	37.65
2.71970	37.65
2.73637	37.65
2.75303	37.64
2.76970	37.65
2.78637	37.65
2.80303	37.65
2.81970	37.65
2.83637	37.65
2.85303	37.65
2.86970	37.65
2.88637	37.65
2.90303	37.65
2.91970	37.64
2.93637	37.64
2.95303	37.64
2.96970	37.64
2.98637	37.64
3.00303	37.63
3.01970	37.63
3.03637	37.63
3.05303	37.63
3.06970	37.63
3.08637	37.63
3.10303	37.63
3.11970	37.63
3.13637	37.63
3.15303	37.63
3.16970	37.63
3.18637	37.63
3.20303	37.63
3.21970	37.63
3.23637	37.63
3.25303	37.63
3.26970	37.63
3.28637	37.63
3.30303	37.63
3.31970	37.63
3.33637	37.63
3.35303	37.63
3.36970	37.63
3.38637	37.63
3.40303	37.63
3.41970	37.63
3.43637	37.63
3.45303	37.63
3.46970	37.63
3.48637	37.63
3.50303	37.63
3.51970	37.63
3.53637	37.63
3.55303	37.63
3.56970	37.63
3.58637	37.63
3.60303	37.63
3.61970	37.63
3.63637	37.63
3.65303	37.63
3.66970	37.63
3.68637	37.63
3.70303	37.63
3.71970	37.63
3.73637	37.63
3.75303	37.63
3.76970	37.63
3.78637	37.63
3.80303	37.63
3.81970	37.63
3.83637	37.63
3.85303	37.63
3.86970	37.63
3.88637	37.63
3.90303	37.63
3.91970	37.63
3.93637	37.63
3.95303	37.63
3.96970	37.63
3.98637	37.63

