[Header]
Application Name	LabSolutions
Version	5.110
Data File Name	C:\Users\User\Desktop\GC Analyses\Jack\Nachusa Grasslands Sampling\T3 Timepoint July 12th\T3_07122022_019.gcd
Output Date	3/14/2023
Output Time	3:43:31 PM

[File Information]
Type	Data File
Generated	3/13/2023 4:30:38 PM
Generated by	System Administrator
Modified	3/13/2023 4:37:20 PM
Modified by	System Administrator

[Sample Information]
Operator Name	System Administrator
Acquired	3/13/2023 4:33:19 PM
Sample Type	0:Unknown
Level	0
Sample Name	019
Sample ID	019
ISTD Amount1	1
ISTD Amount2	1
ISTD Amount3	1
ISTD Amount4	1
ISTD Amount5	1
ISTD Amount6	1
ISTD Amount7	1
ISTD Amount8	1
ISTD Amount9	1
ISTD Amount10	1
ISTD Amount11	1
ISTD Amount12	1
ISTD Amount13	1
ISTD Amount14	1
ISTD Amount15	1
ISTD Amount16	1
ISTD Amount17	1
ISTD Amount18	1
ISTD Amount19	1
ISTD Amount20	1
ISTD Amount21	1
ISTD Amount22	1
ISTD Amount23	1
ISTD Amount24	1
ISTD Amount25	1
ISTD Amount26	1
ISTD Amount27	1
ISTD Amount28	1
ISTD Amount29	1
ISTD Amount30	1
ISTD Amount31	1
ISTD Amount32	1
Sample Amount	1
Dilution Factor	1
Vial#	18
Injection Volume	1
Injection Count	1
Bar Code	

[Original Files]
Data File	C:\Users\User\Desktop\GC Analyses\Jack\Nachusa Grasslands Sampling\T3 Timepoint July 12th\T3_07122022_019.gcd
Method File	C:\LabSolutions\Data\GHG_4min_2022\ghg3_togas_w_acet_4 min_new_int.gcm
Batch File	C:\LabSolutions\Data\AutoSamplerTesting\T3_07122022.gcb
Report Format File	c:\LabSolutions\System\DEFAULT.lsr

[File Description]


[Configuration]
Instrument Name	C0B7VH3-Instrument1
Instrument #	1
Line #	1
# of Detectors	3
Detector ID	DET#1	DET#2	DET#3
Detector Name	FID	PTCD	ECD
# of Channels	1	1	1

[Peak Table(Ch1)]
# of Peaks	3
Peak#	R.Time	I.Time	F.Time	Area	Height	A/H	Conc.	Mark	ID#	Name	k'	Plate #	Plate Ht.	Tailing	Resolution	Sep.Factor	Area Ratio	Height Ratio	Conc. %	Norm Conc.
1	1.476	1.421	1.534	29406	14462	2.033	207.605	   	1	CO	0.000	9556	15.697	1.228	0.000	0.000	0	0	28.206	28.206
2	1.571	1.538	1.637	4335	2165	2.002	83.812	   	2	CH4	0.065	11467	13.081	1.247	1.601	0.000	0	0	11.387	11.387
3	2.000	1.949	2.315	1771575	856936	2.067	444.617	   	3	CO2	0.355	17660	8.494	1.185	7.217	5.500	0	0	60.407	60.407

[Peak Table(Ch2)]
# of Peaks	0

[Peak Table(Ch3)]
# of Peaks	5
Peak#	R.Time	I.Time	F.Time	Area	Height	A/H	Conc.	Mark	ID#	Name	k'	Plate #	Plate Ht.	Tailing	Resolution	Sep.Factor	Area Ratio	Height Ratio	Conc. %	Norm Conc.
1	2.462	2.304	2.510	1707	528	3.231	0.000	   			0.000	10407	14.413	0.000	0.000	0.000	0	0	0.000	0.000
2	2.528	2.510	2.583	884	294	3.010	0.000	 V 			0.027	4966	30.208	0.000	0.550	0.000	0	0	0.000	0.000
3	2.605	2.583	2.678	433	121	3.574	0.000	 V 			0.058	1014	147.995	0.000	0.327	2.167	0	0	0.000	0.000
4	2.880	2.766	3.067	17891	4747	3.769	0.457	   	1	N2O	0.170	13382	11.209	1.516	1.288	2.923	0	0	100.000	100.000
5	3.357	3.155	3.962	17075	634	26.952	0.000	   	2	SF6	0.363	344	436.126	1.960	1.158	2.140	0	0	0.000	0.000

[Compound Results(Ch1)]
# of IDs	6
ID#	Name	R.Time	Area	Height	Conc.	Curve	3rd	2nd	1st	Constant	Area Ratio	Height Ratio	Conc. %	Norm Conc.
1	CO	1.476	29406	14462	207.605	Linear	0.000000e+00	0.000000e+00	1.416423e+002	0.000000e+00	0	0	28.206	28.206
2	CH4	1.571	4335	2165	83.812	Linear	0.000000e+00	0.000000e+00	5.171738e+001	0.000000e+00	0	0	11.387	11.387
3	CO2	2.000	1771575	856936	444.617	Linear	0.000000e+00	0.000000e+00	3.984494e+003	0.000000e+00	0	0	60.407	60.407
4	Ethylene	0.000	0	0	0.000	Linear	0.000000e+00	0.000000e+00	0.000000e+00	0.000000e+00	0	0	0.000	0.000
5	Acetylene	0.000	0	0	0.000	Linear	0.000000e+00	0.000000e+00	0.000000e+00	0.000000e+00	0	0	0.000	0.000
6	Ethane	0.000	0	0	0.000	Linear	0.000000e+00	0.000000e+00	0.000000e+00	0.000000e+00	0	0	0.000	0.000

[Compound Results(Ch2)]
# of IDs	5
ID#	Name	R.Time	Area	Height	Conc.	Curve	3rd	2nd	1st	Constant	Area Ratio	Height Ratio	Conc. %	Norm Conc.
1	Hydrogen	0.000	0	0	0.000	Linear	0.000000e+00	0.000000e+00	0.000000e+00	0.000000e+00	0	0	0.000	0.000
2	Oxygen	0.000	0	0	0.000	Linear	0.000000e+00	0.000000e+00	0.000000e+00	0.000000e+00	0	0	0.000	0.000
3	Nitrogen	0.000	0	0	0.000	Linear	0.000000e+00	0.000000e+00	0.000000e+00	0.000000e+00	0	0	0.000	0.000
4	Methane	0.000	0	0	0.000	Linear	0.000000e+00	0.000000e+00	0.000000e+00	0.000000e+00	0	0	0.000	0.000
5	Carbon Monoxide	0.000	0	0	0.000	Linear	0.000000e+00	0.000000e+00	0.000000e+00	0.000000e+00	0	0	0.000	0.000

[Compound Results(Ch3)]
# of IDs	2
ID#	Name	R.Time	Area	Height	Conc.	Curve	3rd	2nd	1st	Constant	Area Ratio	Height Ratio	Conc. %	Norm Conc.
1	N2O	2.880	17891	4747	0.457	Linear	0.000000e+00	0.000000e+00	3.915173e+004	0.000000e+00	0	0	100.000	100.000
2	SF6	3.357	17075	634	0.000	Linear	0.000000e+00	0.000000e+00	0.000000e+00	0.000000e+00	0	0	0.000	0.000

[Group Results(Ch1)]
# of Groups	0

[Group Results(Ch2)]
# of Groups	0

[Group Results(Ch3)]
# of Groups	0

[Chromatogram (Ch1)]
Interval(msec)	220
# of Points	1091
Start Time(min)	0.002
End Time(min)	3.998
R.Time (min)	Intensity
0.00167	17
0.00533	16
0.00900	14
0.01267	6
0.01633	2
0.02000	-1
0.02367	-0
0.02733	2
0.03100	5
0.03467	8
0.03833	8
0.04200	8
0.04567	8
0.04933	10
0.05300	9
0.05667	7
0.06033	7
0.06400	10
0.06767	15
0.07133	18
0.07500	20
0.07867	20
0.08233	20
0.08600	19
0.08967	17
0.09333	16
0.09700	14
0.10067	11
0.10433	5
0.10800	1
0.11167	1
0.11533	-0
0.11900	2
0.12267	13
0.12633	25
0.13000	27
0.13367	22
0.13733	15
0.14100	11
0.14467	13
0.14833	20
0.15200	28
0.15567	30
0.15933	25
0.16300	16
0.16667	11
0.17033	8
0.17400	2
0.17767	-2
0.18133	-3
0.18500	2
0.18867	14
0.19233	31
0.19600	45
0.19967	53
0.20333	55
0.20700	58
0.21067	64
0.21433	71
0.21800	78
0.22167	80
0.22533	73
0.22900	60
0.23267	46
0.23633	38
0.24000	35
0.24367	37
0.24733	43
0.25100	50
0.25467	58
0.25833	66
0.26200	69
0.26567	69
0.26933	73
0.27300	78
0.27667	83
0.28033	86
0.28400	84
0.28767	78
0.29133	77
0.29500	76
0.29867	75
0.30233	73
0.30600	70
0.30967	65
0.31333	62
0.31700	64
0.32067	68
0.32433	70
0.32800	67
0.33167	68
0.33533	73
0.33900	76
0.34267	70
0.34633	59
0.35000	44
0.35367	29
0.35733	16
0.36100	5
0.36467	-7
0.36833	-17
0.37200	-19
0.37567	-18
0.37933	-14
0.38300	-11
0.38667	-8
0.39033	-1
0.39400	3
0.39767	4
0.40133	8
0.40500	12
0.40867	11
0.41233	4
0.41600	-4
0.41967	-7
0.42333	-6
0.42700	-3
0.43067	5
0.43433	15
0.43800	24
0.44167	26
0.44533	22
0.44900	13
0.45267	3
0.45633	-6
0.46000	-14
0.46367	-19
0.46733	-20
0.47100	-21
0.47467	-20
0.47833	-18
0.48200	-15
0.48567	-16
0.48933	-15
0.49300	-10
0.49667	-1
0.50033	5
0.50400	5
0.50767	1
0.51133	-5
0.51500	-8
0.51867	-8
0.52233	-6
0.52600	-6
0.52967	-13
0.53333	-20
0.53700	-23
0.54067	-22
0.54433	-22
0.54800	-20
0.55167	-18
0.55533	-17
0.55900	-17
0.56267	-12
0.56633	-1
0.57000	11
0.57367	17
0.57733	14
0.58100	8
0.58467	3
0.58833	-1
0.59200	-5
0.59567	-9
0.59933	-13
0.60300	-15
0.60667	-17
0.61033	-17
0.61400	-16
0.61767	-18
0.62133	-21
0.62500	-23
0.62867	-25
0.63233	-24
0.63600	-12
0.63967	1
0.64333	9
0.64700	13
0.65067	15
0.65433	11
0.65800	5
0.66167	-2
0.66533	-9
0.66900	-15
0.67267	-19
0.67633	-21
0.68000	-23
0.68367	-29
0.68733	-38
0.69100	-46
0.69467	-56
0.69833	-57
0.70200	-55
0.70567	-53
0.70933	-48
0.71300	-37
0.71667	-33
0.72033	-36
0.72400	-36
0.72767	-28
0.73133	-20
0.73500	-15
0.73867	-11
0.74233	-7
0.74600	-7
0.74967	-7
0.75333	-7
0.75700	-11
0.76067	-17
0.76433	-24
0.76800	-29
0.77167	-26
0.77533	-18
0.77900	-8
0.78267	-5
0.78633	-9
0.79000	-11
0.79367	-12
0.79733	-14
0.80100	-18
0.80467	-22
0.80833	-26
0.81200	-25
0.81567	-21
0.81933	-20
0.82300	-21
0.82667	-24
0.83033	-30
0.83400	-34
0.83767	-33
0.84133	-27
0.84500	-22
0.84867	-25
0.85233	-30
0.85600	-33
0.85967	-34
0.86333	-32
0.86700	-31
0.87067	-31
0.87433	-29
0.87800	-27
0.88167	-28
0.88533	-31
0.88900	-29
0.89267	-22
0.89633	-16
0.90000	-14
0.90367	-17
0.90733	-26
0.91100	-35
0.91467	-41
0.91833	-50
0.92200	-58
0.92567	-60
0.92933	-59
0.93300	-56
0.93667	-49
0.94033	-37
0.94400	-25
0.94767	-21
0.95133	-22
0.95500	-24
0.95867	-26
0.96233	-29
0.96600	-37
0.96967	-43
0.97333	-42
0.97700	-41
0.98067	-45
0.98433	-52
0.98800	-58
0.99167	-63
0.99533	-62
0.99900	-56
1.00267	-52
1.00633	-52
1.01000	-50
1.01367	-47
1.01733	-48
1.02100	-49
1.02467	-51
1.02833	-47
1.03200	-44
1.03567	-45
1.03933	-48
1.04300	-50
1.04667	-49
1.05033	-45
1.05400	-43
1.05767	-41
1.06133	-41
1.06500	-43
1.06867	-46
1.07233	-48
1.07600	-51
1.07967	-58
1.08333	-66
1.08700	-70
1.09067	-64
1.09433	-55
1.09800	-46
1.10167	-43
1.10533	-49
1.10900	-57
1.11267	-64
1.11633	-70
1.12000	-76
1.12367	-80
1.12733	-79
1.13100	-77
1.13467	-76
1.13833	-72
1.14200	-63
1.14567	-57
1.14933	-49
1.15300	-44
1.15667	-43
1.16033	-46
1.16400	-52
1.16767	-59
1.17133	-61
1.17500	-59
1.17867	-56
1.18233	-54
1.18600	-59
1.18967	-64
1.19333	-67
1.19700	-68
1.20067	-69
1.20433	-67
1.20800	-66
1.21167	-60
1.21533	-53
1.21900	-49
1.22267	-48
1.22633	-49
1.23000	-51
1.23367	-51
1.23733	-49
1.24100	-48
1.24467	-45
1.24833	-45
1.25200	-50
1.25567	-60
1.25933	-71
1.26300	-80
1.26667	-85
1.27033	-83
1.27400	-71
1.27767	-60
1.28133	-53
1.28500	-49
1.28867	-49
1.29233	-53
1.29600	-58
1.29967	-60
1.30333	-60
1.30700	-61
1.31067	-67
1.31433	-74
1.31800	-77
1.32167	-77
1.32533	-78
1.32900	-80
1.33267	-78
1.33633	-74
1.34000	-71
1.34367	-71
1.34733	-69
1.35100	-67
1.35467	-69
1.35833	-72
1.36200	-73
1.36567	-74
1.36933	-78
1.37300	-82
1.37667	-82
1.38033	-80
1.38400	-76
1.38767	-71
1.39133	-67
1.39500	-66
1.39867	-67
1.40233	-69
1.40600	-66
1.40967	-66
1.41333	-71
1.41700	-75
1.42067	-78
1.42433	-77
1.42800	-72
1.43167	-64
1.43533	-62
1.43900	-61
1.44267	-32
1.44633	143
1.45000	719
1.45367	2018
1.45733	4231
1.46100	7013
1.46467	9742
1.46833	11982
1.47200	13537
1.47567	14276
1.47933	14076
1.48300	12923
1.48667	11026
1.49033	8766
1.49400	6544
1.49767	4628
1.50133	3114
1.50500	1992
1.50867	1196
1.51233	650
1.51600	286
1.51967	47
1.52333	-105
1.52700	-201
1.53067	-263
1.53433	-302
1.53800	-319
1.54167	-288
1.54533	-150
1.54900	133
1.55267	533
1.55633	965
1.56000	1352
1.56367	1650
1.56733	1831
1.57100	1867
1.57467	1743
1.57833	1480
1.58200	1146
1.58567	809
1.58933	512
1.59300	275
1.59667	101
1.60033	-16
1.60400	-88
1.60767	-131
1.61133	-162
1.61500	-187
1.61867	-207
1.62233	-222
1.62600	-231
1.62967	-241
1.63333	-250
1.63700	-257
1.64067	-261
1.64433	-264
1.64800	-266
1.65167	-266
1.65533	-262
1.65900	-252
1.66267	-240
1.66633	-227
1.67000	-217
1.67367	-214
1.67733	-216
1.68100	-219
1.68467	-225
1.68833	-228
1.69200	-228
1.69567	-226
1.69933	-222
1.70300	-218
1.70667	-211
1.71033	-198
1.71400	-188
1.71767	-182
1.72133	-176
1.72500	-168
1.72867	-158
1.73233	-152
1.73600	-153
1.73967	-160
1.74333	-167
1.74700	-175
1.75067	-182
1.75433	-188
1.75800	-191
1.76167	-185
1.76533	-176
1.76900	-169
1.77267	-162
1.77633	-160
1.78000	-160
1.78367	-159
1.78733	-157
1.79100	-154
1.79467	-153
1.79833	-157
1.80200	-158
1.80567	-154
1.80933	-153
1.81300	-154
1.81667	-155
1.82033	-157
1.82400	-160
1.82767	-161
1.83133	-165
1.83500	-176
1.83867	-186
1.84233	-194
1.84600	-197
1.84967	-193
1.85333	-187
1.85700	-184
1.86067	-185
1.86433	-185
1.86800	-181
1.87167	-174
1.87533	-168
1.87900	-165
1.88267	-163
1.88633	-158
1.89000	-148
1.89367	-142
1.89733	-146
1.90100	-151
1.90467	-154
1.90833	-155
1.91200	-156
1.91567	-158
1.91933	-163
1.92300	-167
1.92667	-167
1.93033	-161
1.93400	-153
1.93767	-149
1.94133	-147
1.94500	-142
1.94867	-137
1.95233	-123
1.95600	-51
1.95967	370
1.96333	2495
1.96700	10766
1.97067	35338
1.97433	91605
1.97800	192045
1.98167	334218
1.98533	498018
1.98900	654385
1.99267	776957
1.99633	847570
2.00000	856834
2.00367	806576
2.00733	709404
2.01100	585730
2.01467	457375
2.01833	341047
2.02200	245447
2.02567	172276
2.02933	119055
2.03300	81704
2.03667	56105
2.04033	38809
2.04400	27199
2.04767	19412
2.05133	14164
2.05500	10591
2.05867	8120
2.06233	6383
2.06600	5136
2.06967	4225
2.07333	3543
2.07700	3020
2.08067	2613
2.08433	2290
2.08800	2029
2.09167	1809
2.09533	1623
2.09900	1470
2.10267	1344
2.10633	1239
2.11000	1148
2.11367	1064
2.11733	988
2.12100	919
2.12467	855
2.12833	802
2.13200	755
2.13567	714
2.13933	676
2.14300	643
2.14667	610
2.15033	577
2.15400	551
2.15767	525
2.16133	497
2.16500	475
2.16867	458
2.17233	443
2.17600	431
2.17967	419
2.18333	402
2.18700	384
2.19067	365
2.19433	342
2.19800	317
2.20167	293
2.20533	277
2.20900	264
2.21267	253
2.21633	245
2.22000	240
2.22367	235
2.22733	228
2.23100	222
2.23467	218
2.23833	212
2.24200	208
2.24567	209
2.24933	206
2.25300	199
2.25667	188
2.26033	176
2.26400	168
2.26767	164
2.27133	167
2.27500	176
2.27867	175
2.28233	165
2.28600	156
2.28967	146
2.29333	140
2.29700	136
2.30067	132
2.30433	128
2.30800	126
2.31167	122
2.31533	115
2.31900	109
2.32267	103
2.32633	96
2.33000	92
2.33367	91
2.33733	93
2.34100	96
2.34467	99
2.34833	102
2.35200	108
2.35567	115
2.35933	118
2.36300	118
2.36667	115
2.37033	111
2.37400	105
2.37767	101
2.38133	98
2.38500	99
2.38867	100
2.39233	97
2.39600	95
2.39967	96
2.40333	94
2.40700	85
2.41067	75
2.41433	67
2.41800	68
2.42167	76
2.42533	84
2.42900	90
2.43267	93
2.43633	89
2.44000	78
2.44367	64
2.44733	53
2.45100	49
2.45467	49
2.45833	46
2.46200	44
2.46567	45
2.46933	51
2.47300	60
2.47667	66
2.48033	62
2.48400	57
2.48767	57
2.49133	62
2.49500	64
2.49867	61
2.50233	52
2.50600	48
2.50967	52
2.51333	55
2.51700	58
2.52067	62
2.52433	65
2.52800	68
2.53167	66
2.53533	59
2.53900	58
2.54267	62
2.54633	65
2.55000	69
2.55367	73
2.55733	79
2.56100	88
2.56467	95
2.56833	96
2.57200	93
2.57567	88
2.57933	84
2.58300	85
2.58667	90
2.59033	92
2.59400	89
2.59767	85
2.60133	84
2.60500	88
2.60867	93
2.61233	97
2.61600	98
2.61967	97
2.62333	97
2.62700	101
2.63067	106
2.63433	110
2.63800	114
2.64167	116
2.64533	110
2.64900	101
2.65267	93
2.65633	90
2.66000	86
2.66367	86
2.66733	88
2.67100	88
2.67467	89
2.67833	91
2.68200	90
2.68567	87
2.68933	83
2.69300	83
2.69667	88
2.70033	90
2.70400	89
2.70767	89
2.71133	89
2.71500	90
2.71867	96
2.72233	101
2.72600	103
2.72967	101
2.73333	97
2.73700	90
2.74067	81
2.74433	74
2.74800	71
2.75167	72
2.75533	76
2.75900	76
2.76267	77
2.76633	76
2.77000	72
2.77367	69
2.77733	70
2.78100	76
2.78467	85
2.78833	94
2.79200	98
2.79567	95
2.79933	91
2.80300	91
2.80667	91
2.81033	93
2.81400	93
2.81767	91
2.82133	88
2.82500	81
2.82867	71
2.83233	67
2.83600	69
2.83967	74
2.84333	78
2.84700	81
2.85067	82
2.85433	85
2.85800	90
2.86167	95
2.86533	99
2.86900	102
2.87267	102
2.87633	100
2.88000	100
2.88367	102
2.88733	97
2.89100	81
2.89467	66
2.89833	55
2.90200	49
2.90567	47
2.90933	51
2.91300	59
2.91667	70
2.92033	78
2.92400	80
2.92767	82
2.93133	83
2.93500	80
2.93867	73
2.94233	68
2.94600	66
2.94967	65
2.95333	66
2.95700	70
2.96067	75
2.96433	76
2.96800	73
2.97167	77
2.97533	86
2.97900	92
2.98267	95
2.98633	94
2.99000	86
2.99367	71
2.99733	54
3.00100	38
3.00467	35
3.00833	43
3.01200	51
3.01567	55
3.01933	58
3.02300	56
3.02667	54
3.03033	56
3.03400	61
3.03767	71
3.04133	80
3.04500	82
3.04867	82
3.05233	87
3.05600	95
3.05967	101
3.06333	99
3.06700	92
3.07067	83
3.07433	73
3.07800	63
3.08167	53
3.08533	47
3.08900	45
3.09267	42
3.09633	41
3.10000	43
3.10367	48
3.10733	59
3.11100	68
3.11467	70
3.11833	67
3.12200	66
3.12567	67
3.12933	75
3.13300	79
3.13667	72
3.14033	60
3.14400	53
3.14767	55
3.15133	60
3.15500	65
3.15867	68
3.16233	66
3.16600	59
3.16967	53
3.17333	47
3.17700	42
3.18067	40
3.18433	40
3.18800	39
3.19167	37
3.19533	37
3.19900	41
3.20267	51
3.20633	63
3.21000	71
3.21367	67
3.21733	57
3.22100	50
3.22467	50
3.22833	55
3.23200	61
3.23567	58
3.23933	51
3.24300	47
3.24667	48
3.25033	50
3.25400	52
3.25767	53
3.26133	51
3.26500	49
3.26867	47
3.27233	48
3.27600	44
3.27967	36
3.28333	30
3.28700	27
3.29067	28
3.29433	35
3.29800	40
3.30167	41
3.30533	41
3.30900	40
3.31267	41
3.31633	41
3.32000	43
3.32367	43
3.32733	38
3.33100	31
3.33467	23
3.33833	19
3.34200	22
3.34567	25
3.34933	26
3.35300	25
3.35667	23
3.36033	24
3.36400	25
3.36767	25
3.37133	24
3.37500	21
3.37867	17
3.38233	17
3.38600	23
3.38967	29
3.39333	28
3.39700	25
3.40067	26
3.40433	26
3.40800	22
3.41167	17
3.41533	17
3.41900	14
3.42267	14
3.42633	15
3.43000	14
3.43367	15
3.43733	23
3.44100	33
3.44467	39
3.44833	43
3.45200	42
3.45567	37
3.45933	34
3.46300	27
3.46667	21
3.47033	16
3.47400	7
3.47767	-2
3.48133	-10
3.48500	-17
3.48867	-17
3.49233	-10
3.49600	1
3.49967	10
3.50333	17
3.50700	18
3.51067	16
3.51433	15
3.51800	10
3.52167	-1
3.52533	-11
3.52900	-19
3.53267	-25
3.53633	-29
3.54000	-31
3.54367	-29
3.54733	-24
3.55100	-14
3.55467	-6
3.55833	2
3.56200	5
3.56567	5
3.56933	3
3.57300	3
3.57667	4
3.58033	3
3.58400	2
3.58767	3
3.59133	6
3.59500	7
3.59867	8
3.60233	8
3.60600	8
3.60967	5
3.61333	-0
3.61700	-2
3.62067	-3
3.62433	-3
3.62800	-4
3.63167	-7
3.63533	-10
3.63900	-9
3.64267	-8
3.64633	-8
3.65000	-8
3.65367	-10
3.65733	-12
3.66100	-12
3.66467	-6
3.66833	-3
3.67200	-5
3.67567	-9
3.67933	-10
3.68300	-9
3.68667	-6
3.69033	-5
3.69400	-6
3.69767	-11
3.70133	-19
3.70500	-24
3.70867	-25
3.71233	-21
3.71600	-22
3.71967	-28
3.72333	-32
3.72700	-32
3.73067	-29
3.73433	-25
3.73800	-20
3.74167	-15
3.74533	-12
3.74900	-12
3.75267	-15
3.75633	-18
3.76000	-21
3.76367	-21
3.76733	-19
3.77100	-13
3.77467	-8
3.77833	-4
3.78200	-3
3.78567	-7
3.78933	-13
3.79300	-21
3.79667	-27
3.80033	-32
3.80400	-34
3.80767	-38
3.81133	-41
3.81500	-45
3.81867	-48
3.82233	-49
3.82600	-45
3.82967	-39
3.83333	-37
3.83700	-38
3.84067	-40
3.84433	-41
3.84800	-42
3.85167	-43
3.85533	-45
3.85900	-48
3.86267	-49
3.86633	-50
3.87000	-47
3.87367	-39
3.87733	-27
3.88100	-22
3.88467	-21
3.88833	-23
3.89200	-24
3.89567	-28
3.89933	-35
3.90300	-39
3.90667	-43
3.91033	-44
3.91400	-43
3.91767	-40
3.92133	-37
3.92500	-37
3.92867	-36
3.93233	-33
3.93600	-29
3.93967	-22
3.94333	-14
3.94700	-12
3.95067	-18
3.95433	-30
3.95800	-40
3.96167	-51
3.96533	-58
3.96900	-57
3.97267	-55
3.97633	-52
3.98000	-51
3.98367	-52
3.98733	-53
3.99100	-59
3.99467	-65
3.99833	-61

[Chromatogram (Ch2)]
Interval(msec)	220
# of Points	1091
Start Time(min)	0.002
End Time(min)	3.998
R.Time (min)	Intensity
0.00167	-0
0.00533	-0
0.00900	-0
0.01267	-0
0.01633	-1
0.02000	-1
0.02367	-0
0.02733	-0
0.03100	-0
0.03467	-0
0.03833	0
0.04200	-0
0.04567	-0
0.04933	-0
0.05300	-1
0.05667	-1
0.06033	-1
0.06400	-2
0.06767	-2
0.07133	-2
0.07500	-3
0.07867	-3
0.08233	-3
0.08600	-3
0.08967	-3
0.09333	-3
0.09700	-2
0.10067	-2
0.10433	-1
0.10800	-1
0.11167	-0
0.11533	0
0.11900	1
0.12267	1
0.12633	1
0.13000	1
0.13367	1
0.13733	1
0.14100	1
0.14467	1
0.14833	1
0.15200	1
0.15567	0
0.15933	-0
0.16300	-1
0.16667	-1
0.17033	-2
0.17400	-2
0.17767	-2
0.18133	-2
0.18500	-2
0.18867	-2
0.19233	-2
0.19600	-2
0.19967	-2
0.20333	-2
0.20700	-2
0.21067	-2
0.21433	-2
0.21800	-2
0.22167	-3
0.22533	-2
0.22900	-2
0.23267	-2
0.23633	-2
0.24000	-2
0.24367	-2
0.24733	-1
0.25100	-2
0.25467	-2
0.25833	-2
0.26200	-2
0.26567	-3
0.26933	-3
0.27300	-2
0.27667	-2
0.28033	-2
0.28400	-2
0.28767	-2
0.29133	-2
0.29500	-2
0.29867	-2
0.30233	-2
0.30600	-2
0.30967	-2
0.31333	-2
0.31700	-1
0.32067	-1
0.32433	-1
0.32800	-1
0.33167	-1
0.33533	-1
0.33900	-2
0.34267	-2
0.34633	-2
0.35000	-2
0.35367	-2
0.35733	-1
0.36100	-1
0.36467	-1
0.36833	-1
0.37200	-0
0.37567	-0
0.37933	0
0.38300	0
0.38667	1
0.39033	1
0.39400	1
0.39767	1
0.40133	1
0.40500	1
0.40867	1
0.41233	0
0.41600	-0
0.41967	-1
0.42333	-1
0.42700	-1
0.43067	-1
0.43433	-1
0.43800	-0
0.44167	-0
0.44533	-0
0.44900	-0
0.45267	-0
0.45633	-0
0.46000	-1
0.46367	-1
0.46733	-1
0.47100	-1
0.47467	-1
0.47833	-0
0.48200	0
0.48567	1
0.48933	1
0.49300	1
0.49667	0
0.50033	-0
0.50400	-1
0.50767	-1
0.51133	-2
0.51500	-3
0.51867	-3
0.52233	-4
0.52600	-4
0.52967	-5
0.53333	-5
0.53700	-4
0.54067	-4
0.54433	-4
0.54800	-3
0.55167	-3
0.55533	-2
0.55900	-2
0.56267	-1
0.56633	-1
0.57000	-0
0.57367	0
0.57733	0
0.58100	-0
0.58467	-0
0.58833	-0
0.59200	-1
0.59567	-1
0.59933	-1
0.60300	-2
0.60667	-2
0.61033	-2
0.61400	-2
0.61767	-2
0.62133	-3
0.62500	-3
0.62867	-3
0.63233	-3
0.63600	-3
0.63967	-3
0.64333	-3
0.64700	-2
0.65067	-2
0.65433	-2
0.65800	-2
0.66167	-2
0.66533	-2
0.66900	-2
0.67267	-2
0.67633	-2
0.68000	-2
0.68367	-3
0.68733	-3
0.69100	-3
0.69467	-4
0.69833	-4
0.70200	-4
0.70567	-4
0.70933	-4
0.71300	-4
0.71667	-4
0.72033	-4
0.72400	-3
0.72767	-3
0.73133	-3
0.73500	-3
0.73867	-3
0.74233	-3
0.74600	-3
0.74967	-3
0.75333	-2
0.75700	-2
0.76067	-2
0.76433	-1
0.76800	-1
0.77167	-1
0.77533	-1
0.77900	-1
0.78267	-1
0.78633	-1
0.79000	-1
0.79367	-1
0.79733	-1
0.80100	-1
0.80467	-1
0.80833	-1
0.81200	-2
0.81567	-2
0.81933	-2
0.82300	-2
0.82667	-2
0.83033	-2
0.83400	-3
0.83767	-3
0.84133	-3
0.84500	-2
0.84867	-2
0.85233	-2
0.85600	-2
0.85967	-2
0.86333	-1
0.86700	-2
0.87067	-2
0.87433	-2
0.87800	-3
0.88167	-3
0.88533	-4
0.88900	-4
0.89267	-4
0.89633	-4
0.90000	-4
0.90367	-4
0.90733	-4
0.91100	-4
0.91467	-4
0.91833	-3
0.92200	-3
0.92567	-3
0.92933	-3
0.93300	-3
0.93667	-3
0.94033	-3
0.94400	-4
0.94767	-4
0.95133	-4
0.95500	-5
0.95867	-5
0.96233	-5
0.96600	-4
0.96967	-4
0.97333	-3
0.97700	-3
0.98067	-2
0.98433	-2
0.98800	-2
0.99167	-2
0.99533	-2
0.99900	-2
1.00267	-2
1.00633	-2
1.01000	-2
1.01367	-2
1.01733	-2
1.02100	-2
1.02467	-2
1.02833	-2
1.03200	-2
1.03567	-2
1.03933	-2
1.04300	-2
1.04667	-2
1.05033	-2
1.05400	-2
1.05767	-2
1.06133	-2
1.06500	-2
1.06867	-2
1.07233	-2
1.07600	-3
1.07967	-3
1.08333	-4
1.08700	-4
1.09067	-5
1.09433	-5
1.09800	-5
1.10167	-5
1.10533	-5
1.10900	-5
1.11267	-5
1.11633	-5
1.12000	-5
1.12367	-5
1.12733	-5
1.13100	-5
1.13467	-4
1.13833	-4
1.14200	-4
1.14567	-3
1.14933	-3
1.15300	-3
1.15667	-2
1.16033	-2
1.16400	-2
1.16767	-1
1.17133	-1
1.17500	-2
1.17867	-2
1.18233	-2
1.18600	-3
1.18967	-3
1.19333	-4
1.19700	-4
1.20067	-5
1.20433	-5
1.20800	-5
1.21167	-6
1.21533	-6
1.21900	-5
1.22267	-5
1.22633	-5
1.23000	-6
1.23367	-5
1.23733	-5
1.24100	-5
1.24467	-5
1.24833	-5
1.25200	-5
1.25567	-6
1.25933	-6
1.26300	-6
1.26667	-5
1.27033	-5
1.27400	-5
1.27767	-5
1.28133	-5
1.28500	-5
1.28867	-5
1.29233	-4
1.29600	-4
1.29967	-4
1.30333	-4
1.30700	-4
1.31067	-3
1.31433	-3
1.31800	-3
1.32167	-2
1.32533	-2
1.32900	-2
1.33267	-2
1.33633	-2
1.34000	-2
1.34367	-2
1.34733	-2
1.35100	-2
1.35467	-2
1.35833	-2
1.36200	-2
1.36567	-2
1.36933	-2
1.37300	-2
1.37667	-2
1.38033	-2
1.38400	-2
1.38767	-2
1.39133	-2
1.39500	-2
1.39867	-1
1.40233	-1
1.40600	-1
1.40967	-0
1.41333	-0
1.41700	0
1.42067	1
1.42433	1
1.42800	1
1.43167	1
1.43533	1
1.43900	1
1.44267	1
1.44633	1
1.45000	0
1.45367	-0
1.45733	-1
1.46100	-1
1.46467	-1
1.46833	-2
1.47200	-2
1.47567	-2
1.47933	-3
1.48300	-3
1.48667	-3
1.49033	-3
1.49400	-3
1.49767	-3
1.50133	-3
1.50500	-3
1.50867	-3
1.51233	-3
1.51600	-3
1.51967	-3
1.52333	-4
1.52700	-3
1.53067	-4
1.53433	-4
1.53800	-4
1.54167	-4
1.54533	-4
1.54900	-4
1.55267	-4
1.55633	-4
1.56000	-4
1.56367	-4
1.56733	-4
1.57100	-4
1.57467	-4
1.57833	-3
1.58200	-3
1.58567	-3
1.58933	-3
1.59300	-3
1.59667	-3
1.60033	-3
1.60400	-4
1.60767	-5
1.61133	-6
1.61500	-8
1.61867	-11
1.62233	-14
1.62600	-17
1.62967	-20
1.63333	-23
1.63700	-27
1.64067	-30
1.64433	-34
1.64800	-37
1.65167	-41
1.65533	-44
1.65900	-48
1.66267	-52
1.66633	-56
1.67000	-61
1.67367	-66
1.67733	-72
1.68100	-77
1.68467	-82
1.68833	-86
1.69200	-90
1.69567	-94
1.69933	-96
1.70300	-98
1.70667	-100
1.71033	-102
1.71400	-103
1.71767	-104
1.72133	-106
1.72500	-107
1.72867	-107
1.73233	-108
1.73600	-109
1.73967	-110
1.74333	-110
1.74700	-111
1.75067	-112
1.75433	-112
1.75800	-113
1.76167	-113
1.76533	-113
1.76900	-113
1.77267	-114
1.77633	-114
1.78000	-114
1.78367	-114
1.78733	-114
1.79100	-114
1.79467	-114
1.79833	-114
1.80200	-113
1.80567	-114
1.80933	-114
1.81300	-115
1.81667	-115
1.82033	-115
1.82400	-116
1.82767	-116
1.83133	-116
1.83500	-117
1.83867	-116
1.84233	-116
1.84600	-115
1.84967	-115
1.85333	-115
1.85700	-114
1.86067	-115
1.86433	-115
1.86800	-115
1.87167	-115
1.87533	-116
1.87900	-116
1.88267	-116
1.88633	-116
1.89000	-116
1.89367	-115
1.89733	-115
1.90100	-115
1.90467	-115
1.90833	-114
1.91200	-113
1.91567	-112
1.91933	-112
1.92300	-111
1.92667	-111
1.93033	-111
1.93400	-111
1.93767	-110
1.94133	-110
1.94500	-110
1.94867	-110
1.95233	-110
1.95600	-110
1.95967	-110
1.96333	-110
1.96700	-110
1.97067	-110
1.97433	-110
1.97800	-110
1.98167	-110
1.98533	-110
1.98900	-110
1.99267	-109
1.99633	-109
2.00000	-108
2.00367	-108
2.00733	-107
2.01100	-107
2.01467	-106
2.01833	-106
2.02200	-105
2.02567	-104
2.02933	-104
2.03300	-104
2.03667	-104
2.04033	-104
2.04400	-104
2.04767	-103
2.05133	-103
2.05500	-103
2.05867	-102
2.06233	-102
2.06600	-102
2.06967	-102
2.07333	-101
2.07700	-102
2.08067	-102
2.08433	-102
2.08800	-102
2.09167	-102
2.09533	-102
2.09900	-102
2.10267	-102
2.10633	-101
2.11000	-101
2.11367	-100
2.11733	-100
2.12100	-100
2.12467	-99
2.12833	-99
2.13200	-98
2.13567	-98
2.13933	-98
2.14300	-97
2.14667	-97
2.15033	-96
2.15400	-95
2.15767	-95
2.16133	-94
2.16500	-94
2.16867	-94
2.17233	-94
2.17600	-93
2.17967	-93
2.18333	-92
2.18700	-92
2.19067	-92
2.19433	-91
2.19800	-91
2.20167	-90
2.20533	-89
2.20900	-88
2.21267	-88
2.21633	-87
2.22000	-87
2.22367	-87
2.22733	-87
2.23100	-87
2.23467	-87
2.23833	-87
2.24200	-88
2.24567	-88
2.24933	-88
2.25300	-88
2.25667	-88
2.26033	-88
2.26400	-87
2.26767	-87
2.27133	-87
2.27500	-87
2.27867	-86
2.28233	-86
2.28600	-85
2.28967	-85
2.29333	-84
2.29700	-84
2.30067	-84
2.30433	-84
2.30800	-84
2.31167	-84
2.31533	-84
2.31900	-84
2.32267	-84
2.32633	-84
2.33000	-84
2.33367	-83
2.33733	-82
2.34100	-81
2.34467	-80
2.34833	-79
2.35200	-78
2.35567	-77
2.35933	-77
2.36300	-76
2.36667	-75
2.37033	-74
2.37400	-72
2.37767	-69
2.38133	-66
2.38500	-62
2.38867	-58
2.39233	-53
2.39600	-49
2.39967	-44
2.40333	-39
2.40700	-35
2.41067	-30
2.41433	-26
2.41800	-23
2.42167	-19
2.42533	-17
2.42900	-15
2.43267	-13
2.43633	-12
2.44000	-11
2.44367	-10
2.44733	-9
2.45100	-9
2.45467	-8
2.45833	-8
2.46200	-7
2.46567	-6
2.46933	-4
2.47300	-3
2.47667	-2
2.48033	-1
2.48400	0
2.48767	1
2.49133	2
2.49500	2
2.49867	3
2.50233	4
2.50600	5
2.50967	6
2.51333	6
2.51700	7
2.52067	8
2.52433	8
2.52800	9
2.53167	10
2.53533	11
2.53900	11
2.54267	12
2.54633	12
2.55000	13
2.55367	14
2.55733	14
2.56100	14
2.56467	14
2.56833	14
2.57200	14
2.57567	13
2.57933	13
2.58300	13
2.58667	13
2.59033	13
2.59400	13
2.59767	14
2.60133	14
2.60500	15
2.60867	15
2.61233	15
2.61600	15
2.61967	15
2.62333	15
2.62700	15
2.63067	14
2.63433	14
2.63800	14
2.64167	14
2.64533	14
2.64900	14
2.65267	15
2.65633	16
2.66000	16
2.66367	17
2.66733	18
2.67100	19
2.67467	19
2.67833	20
2.68200	20
2.68567	21
2.68933	21
2.69300	21
2.69667	21
2.70033	21
2.70400	21
2.70767	21
2.71133	21
2.71500	22
2.71867	22
2.72233	22
2.72600	23
2.72967	23
2.73333	22
2.73700	22
2.74067	21
2.74433	21
2.74800	20
2.75167	20
2.75533	20
2.75900	20
2.76267	20
2.76633	21
2.77000	21
2.77367	21
2.77733	21
2.78100	21
2.78467	22
2.78833	22
2.79200	22
2.79567	22
2.79933	22
2.80300	23
2.80667	23
2.81033	24
2.81400	24
2.81767	25
2.82133	25
2.82500	25
2.82867	26
2.83233	26
2.83600	26
2.83967	26
2.84333	25
2.84700	23
2.85067	19
2.85433	13
2.85800	4
2.86167	-9
2.86533	-26
2.86900	-47
2.87267	-72
2.87633	-101
2.88000	-135
2.88367	-173
2.88733	-215
2.89100	-260
2.89467	-308
2.89833	-359
2.90200	-412
2.90567	-466
2.90933	-521
2.91300	-576
2.91667	-632
2.92033	-688
2.92400	-743
2.92767	-796
2.93133	-847
2.93500	-901
2.93867	-959
2.94233	-1017
2.94600	-1068
2.94967	-1100
2.95333	-1106
2.95700	-1087
2.96067	-1044
2.96433	-984
2.96800	-912
2.97167	-833
2.97533	-751
2.97900	-671
2.98267	-594
2.98633	-522
2.99000	-455
2.99367	-395
2.99733	-341
3.00100	-294
3.00467	-252
3.00833	-215
3.01200	-183
3.01567	-155
3.01933	-131
3.02300	-111
3.02667	-93
3.03033	-78
3.03400	-66
3.03767	-55
3.04133	-45
3.04500	-37
3.04867	-30
3.05233	-24
3.05600	-19
3.05967	-14
3.06333	-11
3.06700	-7
3.07067	-4
3.07433	-2
3.07800	0
3.08167	2
3.08533	4
3.08900	5
3.09267	7
3.09633	8
3.10000	9
3.10367	9
3.10733	10
3.11100	11
3.11467	12
3.11833	13
3.12200	13
3.12567	14
3.12933	15
3.13300	15
3.13667	16
3.14033	16
3.14400	16
3.14767	17
3.15133	17
3.15500	17
3.15867	18
3.16233	18
3.16600	18
3.16967	19
3.17333	19
3.17700	19
3.18067	18
3.18433	18
3.18800	18
3.19167	18
3.19533	19
3.19900	19
3.20267	19
3.20633	19
3.21000	19
3.21367	19
3.21733	20
3.22100	20
3.22467	20
3.22833	20
3.23200	21
3.23567	21
3.23933	21
3.24300	21
3.24667	21
3.25033	22
3.25400	22
3.25767	22
3.26133	22
3.26500	23
3.26867	22
3.27233	23
3.27600	23
3.27967	23
3.28333	23
3.28700	23
3.29067	24
3.29433	24
3.29800	24
3.30167	25
3.30533	25
3.30900	25
3.31267	26
3.31633	26
3.32000	26
3.32367	27
3.32733	27
3.33100	27
3.33467	27
3.33833	27
3.34200	27
3.34567	27
3.34933	27
3.35300	27
3.35667	27
3.36033	27
3.36400	27
3.36767	27
3.37133	27
3.37500	27
3.37867	27
3.38233	27
3.38600	27
3.38967	27
3.39333	27
3.39700	27
3.40067	27
3.40433	27
3.40800	27
3.41167	27
3.41533	27
3.41900	27
3.42267	26
3.42633	26
3.43000	26
3.43367	26
3.43733	26
3.44100	26
3.44467	26
3.44833	26
3.45200	26
3.45567	26
3.45933	26
3.46300	26
3.46667	26
3.47033	25
3.47400	25
3.47767	25
3.48133	25
3.48500	25
3.48867	25
3.49233	25
3.49600	25
3.49967	25
3.50333	25
3.50700	25
3.51067	24
3.51433	24
3.51800	24
3.52167	24
3.52533	23
3.52900	23
3.53267	23
3.53633	23
3.54000	24
3.54367	24
3.54733	24
3.55100	25
3.55467	25
3.55833	25
3.56200	25
3.56567	25
3.56933	25
3.57300	25
3.57667	25
3.58033	24
3.58400	24
3.58767	24
3.59133	24
3.59500	24
3.59867	24
3.60233	23
3.60600	23
3.60967	23
3.61333	23
3.61700	23
3.62067	23
3.62433	23
3.62800	23
3.63167	23
3.63533	23
3.63900	23
3.64267	23
3.64633	23
3.65000	23
3.65367	23
3.65733	23
3.66100	23
3.66467	23
3.66833	23
3.67200	23
3.67567	23
3.67933	23
3.68300	23
3.68667	23
3.69033	23
3.69400	23
3.69767	24
3.70133	24
3.70500	24
3.70867	23
3.71233	23
3.71600	23
3.71967	23
3.72333	23
3.72700	23
3.73067	24
3.73433	24
3.73800	24
3.74167	24
3.74533	24
3.74900	24
3.75267	24
3.75633	25
3.76000	25
3.76367	25
3.76733	25
3.77100	25
3.77467	26
3.77833	26
3.78200	26
3.78567	26
3.78933	26
3.79300	27
3.79667	27
3.80033	27
3.80400	27
3.80767	27
3.81133	27
3.81500	26
3.81867	26
3.82233	26
3.82600	26
3.82967	26
3.83333	26
3.83700	26
3.84067	26
3.84433	26
3.84800	26
3.85167	26
3.85533	25
3.85900	25
3.86267	25
3.86633	24
3.87000	24
3.87367	24
3.87733	24
3.88100	24
3.88467	24
3.88833	24
3.89200	24
3.89567	24
3.89933	24
3.90300	24
3.90667	24
3.91033	24
3.91400	25
3.91767	25
3.92133	25
3.92500	25
3.92867	25
3.93233	25
3.93600	25
3.93967	25
3.94333	25
3.94700	25
3.95067	25
3.95433	25
3.95800	25
3.96167	25
3.96533	25
3.96900	25
3.97267	25
3.97633	25
3.98000	25
3.98367	25
3.98733	25
3.99100	25
3.99467	25
3.99833	25

[Chromatogram (Ch3)]
Interval(msec)	220
# of Points	1091
Start Time(min)	0.002
End Time(min)	3.998
R.Time (min)	Intensity
0.00167	0
0.00533	2
0.00900	3
0.01267	3
0.01633	4
0.02000	3
0.02367	4
0.02733	5
0.03100	5
0.03467	6
0.03833	4
0.04200	3
0.04567	3
0.04933	2
0.05300	2
0.05667	1
0.06033	0
0.06400	-0
0.06767	0
0.07133	1
0.07500	1
0.07867	0
0.08233	0
0.08600	0
0.08967	0
0.09333	-1
0.09700	0
0.10067	2
0.10433	4
0.10800	7
0.11167	9
0.11533	10
0.11900	9
0.12267	6
0.12633	3
0.13000	3
0.13367	4
0.13733	4
0.14100	4
0.14467	4
0.14833	2
0.15200	0
0.15567	-0
0.15933	1
0.16300	1
0.16667	2
0.17033	1
0.17400	0
0.17767	-0
0.18133	-1
0.18500	-2
0.18867	-2
0.19233	-3
0.19600	-3
0.19967	-1
0.20333	2
0.20700	4
0.21067	6
0.21433	6
0.21800	5
0.22167	5
0.22533	6
0.22900	6
0.23267	7
0.23633	5
0.24000	4
0.24367	3
0.24733	2
0.25100	2
0.25467	1
0.25833	2
0.26200	2
0.26567	2
0.26933	0
0.27300	0
0.27667	1
0.28033	2
0.28400	5
0.28767	8
0.29133	10
0.29500	11
0.29867	10
0.30233	9
0.30600	7
0.30967	3
0.31333	1
0.31700	0
0.32067	2
0.32433	2
0.32800	-0
0.33167	-1
0.33533	-0
0.33900	1
0.34267	2
0.34633	2
0.35000	1
0.35367	1
0.35733	2
0.36100	2
0.36467	1
0.36833	1
0.37200	4
0.37567	5
0.37933	6
0.38300	5
0.38667	6
0.39033	7
0.39400	8
0.39767	7
0.40133	6
0.40500	5
0.40867	4
0.41233	4
0.41600	5
0.41967	7
0.42333	7
0.42700	6
0.43067	6
0.43433	6
0.43800	6
0.44167	5
0.44533	8
0.44900	10
0.45267	11
0.45633	11
0.46000	9
0.46367	9
0.46733	8
0.47100	7
0.47467	6
0.47833	5
0.48200	4
0.48567	4
0.48933	4
0.49300	5
0.49667	5
0.50033	4
0.50400	6
0.50767	7
0.51133	6
0.51500	5
0.51867	4
0.52233	2
0.52600	2
0.52967	3
0.53333	3
0.53700	3
0.54067	4
0.54433	2
0.54800	-2
0.55167	-2
0.55533	-0
0.55900	-0
0.56267	-0
0.56633	2
0.57000	5
0.57367	5
0.57733	4
0.58100	4
0.58467	4
0.58833	2
0.59200	1
0.59567	-1
0.59933	-3
0.60300	-3
0.60667	1
0.61033	6
0.61400	7
0.61767	7
0.62133	7
0.62500	8
0.62867	9
0.63233	9
0.63600	9
0.63967	9
0.64333	7
0.64700	6
0.65067	6
0.65433	7
0.65800	7
0.66167	7
0.66533	6
0.66900	4
0.67267	4
0.67633	4
0.68000	4
0.68367	5
0.68733	5
0.69100	5
0.69467	5
0.69833	6
0.70200	7
0.70567	8
0.70933	9
0.71300	9
0.71667	8
0.72033	6
0.72400	6
0.72767	5
0.73133	3
0.73500	3
0.73867	5
0.74233	5
0.74600	5
0.74967	4
0.75333	6
0.75700	7
0.76067	9
0.76433	12
0.76800	11
0.77167	9
0.77533	8
0.77900	8
0.78267	7
0.78633	7
0.79000	8
0.79367	9
0.79733	10
0.80100	10
0.80467	11
0.80833	11
0.81200	12
0.81567	13
0.81933	12
0.82300	10
0.82667	9
0.83033	9
0.83400	11
0.83767	11
0.84133	9
0.84500	10
0.84867	10
0.85233	11
0.85600	11
0.85967	12
0.86333	13
0.86700	13
0.87067	13
0.87433	12
0.87800	12
0.88167	12
0.88533	12
0.88900	14
0.89267	14
0.89633	12
0.90000	12
0.90367	13
0.90733	12
0.91100	10
0.91467	10
0.91833	12
0.92200	12
0.92567	12
0.92933	13
0.93300	12
0.93667	12
0.94033	12
0.94400	13
0.94767	13
0.95133	12
0.95500	13
0.95867	14
0.96233	15
0.96600	17
0.96967	20
0.97333	20
0.97700	18
0.98067	16
0.98433	16
0.98800	15
0.99167	15
0.99533	15
0.99900	17
1.00267	18
1.00633	20
1.01000	20
1.01367	21
1.01733	21
1.02100	21
1.02467	19
1.02833	18
1.03200	18
1.03567	18
1.03933	21
1.04300	23
1.04667	22
1.05033	20
1.05400	20
1.05767	19
1.06133	19
1.06500	19
1.06867	18
1.07233	17
1.07600	17
1.07967	18
1.08333	17
1.08700	16
1.09067	17
1.09433	17
1.09800	16
1.10167	15
1.10533	16
1.10900	18
1.11267	19
1.11633	20
1.12000	21
1.12367	22
1.12733	23
1.13100	23
1.13467	24
1.13833	24
1.14200	24
1.14567	22
1.14933	21
1.15300	20
1.15667	18
1.16033	19
1.16400	20
1.16767	24
1.17133	25
1.17500	23
1.17867	24
1.18233	23
1.18600	21
1.18967	20
1.19333	20
1.19700	20
1.20067	22
1.20433	22
1.20800	21
1.21167	20
1.21533	20
1.21900	18
1.22267	19
1.22633	20
1.23000	19
1.23367	19
1.23733	20
1.24100	19
1.24467	20
1.24833	21
1.25200	22
1.25567	20
1.25933	18
1.26300	16
1.26667	17
1.27033	18
1.27400	19
1.27767	21
1.28133	21
1.28500	20
1.28867	20
1.29233	23
1.29600	24
1.29967	23
1.30333	22
1.30700	22
1.31067	20
1.31433	20
1.31800	21
1.32167	23
1.32533	24
1.32900	24
1.33267	26
1.33633	28
1.34000	29
1.34367	29
1.34733	30
1.35100	30
1.35467	30
1.35833	28
1.36200	27
1.36567	27
1.36933	25
1.37300	25
1.37667	26
1.38033	26
1.38400	27
1.38767	28
1.39133	28
1.39500	27
1.39867	28
1.40233	29
1.40600	30
1.40967	31
1.41333	30
1.41700	29
1.42067	28
1.42433	26
1.42800	25
1.43167	25
1.43533	27
1.43900	29
1.44267	30
1.44633	29
1.45000	28
1.45367	27
1.45733	26
1.46100	28
1.46467	31
1.46833	30
1.47200	28
1.47567	28
1.47933	28
1.48300	27
1.48667	29
1.49033	31
1.49400	32
1.49767	32
1.50133	31
1.50500	29
1.50867	28
1.51233	27
1.51600	25
1.51967	21
1.52333	21
1.52700	19
1.53067	20
1.53433	21
1.53800	23
1.54167	21
1.54533	21
1.54900	21
1.55267	22
1.55633	24
1.56000	26
1.56367	26
1.56733	27
1.57100	28
1.57467	28
1.57833	27
1.58200	25
1.58567	21
1.58933	20
1.59300	21
1.59667	23
1.60033	26
1.60400	28
1.60767	27
1.61133	26
1.61500	26
1.61867	27
1.62233	28
1.62600	29
1.62967	28
1.63333	27
1.63700	27
1.64067	28
1.64433	28
1.64800	30
1.65167	29
1.65533	30
1.65900	32
1.66267	35
1.66633	36
1.67000	35
1.67367	35
1.67733	36
1.68100	36
1.68467	36
1.68833	38
1.69200	38
1.69567	39
1.69933	41
1.70300	44
1.70667	43
1.71033	43
1.71400	42
1.71767	42
1.72133	41
1.72500	41
1.72867	41
1.73233	40
1.73600	40
1.73967	41
1.74333	42
1.74700	41
1.75067	39
1.75433	38
1.75800	39
1.76167	40
1.76533	41
1.76900	43
1.77267	45
1.77633	44
1.78000	43
1.78367	41
1.78733	40
1.79100	41
1.79467	44
1.79833	45
1.80200	44
1.80567	46
1.80933	48
1.81300	50
1.81667	50
1.82033	49
1.82400	50
1.82767	50
1.83133	49
1.83500	49
1.83867	50
1.84233	52
1.84600	53
1.84967	55
1.85333	55
1.85700	56
1.86067	58
1.86433	58
1.86800	56
1.87167	55
1.87533	55
1.87900	58
1.88267	59
1.88633	59
1.89000	59
1.89367	58
1.89733	59
1.90100	59
1.90467	59
1.90833	60
1.91200	62
1.91567	64
1.91933	64
1.92300	63
1.92667	64
1.93033	65
1.93400	66
1.93767	68
1.94133	71
1.94500	74
1.94867	77
1.95233	78
1.95600	79
1.95967	80
1.96333	78
1.96700	77
1.97067	78
1.97433	79
1.97800	80
1.98167	80
1.98533	79
1.98900	79
1.99267	79
1.99633	80
2.00000	83
2.00367	89
2.00733	92
2.01100	91
2.01467	91
2.01833	94
2.02200	96
2.02567	98
2.02933	99
2.03300	99
2.03667	98
2.04033	98
2.04400	99
2.04767	102
2.05133	104
2.05500	106
2.05867	106
2.06233	106
2.06600	105
2.06967	108
2.07333	110
2.07700	109
2.08067	110
2.08433	111
2.08800	112
2.09167	113
2.09533	112
2.09900	114
2.10267	118
2.10633	120
2.11000	123
2.11367	127
2.11733	128
2.12100	128
2.12467	128
2.12833	128
2.13200	129
2.13567	128
2.13933	131
2.14300	134
2.14667	135
2.15033	134
2.15400	134
2.15767	136
2.16133	139
2.16500	140
2.16867	140
2.17233	140
2.17600	141
2.17967	143
2.18333	145
2.18700	145
2.19067	147
2.19433	148
2.19800	149
2.20167	150
2.20533	152
2.20900	155
2.21267	154
2.21633	153
2.22000	153
2.22367	156
2.22733	158
2.23100	159
2.23467	161
2.23833	161
2.24200	164
2.24567	166
2.24933	167
2.25300	169
2.25667	172
2.26033	174
2.26400	174
2.26767	175
2.27133	176
2.27500	177
2.27867	176
2.28233	176
2.28600	178
2.28967	180
2.29333	180
2.29700	181
2.30067	180
2.30433	181
2.30800	183
2.31167	185
2.31533	185
2.31900	185
2.32267	185
2.32633	186
2.33000	187
2.33367	186
2.33733	187
2.34100	191
2.34467	193
2.34833	196
2.35200	199
2.35567	201
2.35933	203
2.36300	203
2.36667	201
2.37033	202
2.37400	204
2.37767	205
2.38133	202
2.38500	200
2.38867	198
2.39233	199
2.39600	203
2.39967	206
2.40333	209
2.40700	212
2.41067	213
2.41433	213
2.41800	213
2.42167	213
2.42533	211
2.42900	211
2.43267	212
2.43633	214
2.44000	218
2.44367	265
2.44733	385
2.45100	517
2.45467	627
2.45833	690
2.46200	698
2.46567	675
2.46933	651
2.47300	636
2.47667	627
2.48033	613
2.48400	584
2.48767	545
2.49133	504
2.49500	469
2.49867	444
2.50233	425
2.50600	413
2.50967	407
2.51333	411
2.51700	424
2.52067	440
2.52433	453
2.52800	459
2.53167	455
2.53533	441
2.53900	422
2.54267	396
2.54633	370
2.55000	346
2.55367	326
2.55733	310
2.56100	298
2.56467	290
2.56833	284
2.57200	280
2.57567	276
2.57933	274
2.58300	273
2.58667	274
2.59033	274
2.59400	276
2.59767	278
2.60133	280
2.60500	281
2.60867	279
2.61233	277
2.61600	272
2.61967	265
2.62333	258
2.62700	252
2.63067	244
2.63433	239
2.63800	234
2.64167	225
2.64533	214
2.64900	205
2.65267	198
2.65633	191
2.66000	182
2.66367	174
2.66733	165
2.67100	159
2.67467	156
2.67833	154
2.68200	152
2.68567	151
2.68933	150
2.69300	151
2.69667	151
2.70033	153
2.70400	155
2.70767	157
2.71133	158
2.71500	161
2.71867	163
2.72233	165
2.72600	168
2.72967	171
2.73333	173
2.73700	175
2.74067	178
2.74433	181
2.74800	183
2.75167	183
2.75533	183
2.75900	181
2.76267	181
2.76633	182
2.77000	186
2.77367	188
2.77733	192
2.78100	198
2.78467	202
2.78833	205
2.79200	206
2.79567	208
2.79933	212
2.80300	215
2.80667	218
2.81033	222
2.81400	228
2.81767	233
2.82133	239
2.82500	253
2.82867	283
2.83233	344
2.83600	457
2.83967	642
2.84333	919
2.84700	1297
2.85067	1771
2.85433	2322
2.85800	2911
2.86167	3492
2.86533	4017
2.86900	4447
2.87267	4750
2.87633	4914
2.88000	4940
2.88367	4839
2.88733	4635
2.89100	4361
2.89467	4040
2.89833	3700
2.90200	3356
2.90567	3021
2.90933	2706
2.91300	2415
2.91667	2148
2.92033	1907
2.92400	1690
2.92767	1500
2.93133	1334
2.93500	1188
2.93867	1057
2.94233	943
2.94600	845
2.94967	759
2.95333	685
2.95700	622
2.96067	565
2.96433	515
2.96800	472
2.97167	436
2.97533	405
2.97900	378
2.98267	355
2.98633	334
2.99000	315
2.99367	298
2.99733	286
3.00100	274
3.00467	263
3.00833	257
3.01200	249
3.01567	243
3.01933	238
3.02300	234
3.02667	231
3.03033	227
3.03400	223
3.03767	222
3.04133	220
3.04500	219
3.04867	218
3.05233	217
3.05600	216
3.05967	213
3.06333	210
3.06700	210
3.07067	210
3.07433	211
3.07800	211
3.08167	211
3.08533	209
3.08900	209
3.09267	211
3.09633	213
3.10000	214
3.10367	215
3.10733	215
3.11100	215
3.11467	213
3.11833	213
3.12200	213
3.12567	212
3.12933	213
3.13300	215
3.13667	215
3.14033	215
3.14400	212
3.14767	207
3.15133	207
3.15500	218
3.15867	237
3.16233	261
3.16600	291
3.16967	324
3.17333	361
3.17700	404
3.18067	450
3.18433	495
3.18800	537
3.19167	575
3.19533	609
3.19900	639
3.20267	665
3.20633	689
3.21000	710
3.21367	729
3.21733	746
3.22100	762
3.22467	774
3.22833	785
3.23200	795
3.23567	806
3.23933	813
3.24300	817
3.24667	822
3.25033	829
3.25400	835
3.25767	841
3.26133	845
3.26500	851
3.26867	856
3.27233	863
3.27600	871
3.27967	878
3.28333	886
3.28700	890
3.29067	894
3.29433	898
3.29800	902
3.30167	906
3.30533	910
3.30900	915
3.31267	920
3.31633	923
3.32000	927
3.32367	932
3.32733	936
3.33100	938
3.33467	941
3.33833	942
3.34200	945
3.34567	947
3.34933	949
3.35300	951
3.35667	953
3.36033	953
3.36400	948
3.36767	944
3.37133	941
3.37500	937
3.37867	933
3.38233	931
3.38600	928
3.38967	926
3.39333	922
3.39700	918
3.40067	915
3.40433	914
3.40800	912
3.41167	910
3.41533	906
3.41900	901
3.42267	898
3.42633	895
3.43000	891
3.43367	891
3.43733	890
3.44100	889
3.44467	886
3.44833	882
3.45200	878
3.45567	875
3.45933	872
3.46300	868
3.46667	864
3.47033	864
3.47400	863
3.47767	858
3.48133	853
3.48500	852
3.48867	851
3.49233	850
3.49600	852
3.49967	851
3.50333	852
3.50700	853
3.51067	852
3.51433	849
3.51800	847
3.52167	845
3.52533	843
3.52900	841
3.53267	839
3.53633	838
3.54000	837
3.54367	837
3.54733	837
3.55100	834
3.55467	832
3.55833	831
3.56200	830
3.56567	830
3.56933	832
3.57300	833
3.57667	834
3.58033	833
3.58400	828
3.58767	822
3.59133	818
3.59500	816
3.59867	815
3.60233	815
3.60600	816
3.60967	815
3.61333	814
3.61700	812
3.62067	810
3.62433	807
3.62800	803
3.63167	802
3.63533	798
3.63900	797
3.64267	796
3.64633	796
3.65000	794
3.65367	792
3.65733	792
3.66100	791
3.66467	790
3.66833	787
3.67200	783
3.67567	779
3.67933	774
3.68300	769
3.68667	764
3.69033	760
3.69400	758
3.69767	758
3.70133	757
3.70500	752
3.70867	747
3.71233	746
3.71600	746
3.71967	744
3.72333	743
3.72700	744
3.73067	742
3.73433	740
3.73800	739
3.74167	738
3.74533	738
3.74900	737
3.75267	736
3.75633	735
3.76000	736
3.76367	733
3.76733	728
3.77100	723
3.77467	720
3.77833	717
3.78200	715
3.78567	713
3.78933	713
3.79300	710
3.79667	706
3.80033	703
3.80400	701
3.80767	699
3.81133	698
3.81500	697
3.81867	694
3.82233	691
3.82600	689
3.82967	686
3.83333	686
3.83700	686
3.84067	686
3.84433	684
3.84800	682
3.85167	678
3.85533	676
3.85900	673
3.86267	672
3.86633	670
3.87000	666
3.87367	664
3.87733	661
3.88100	659
3.88467	657
3.88833	657
3.89200	656
3.89567	658
3.89933	658
3.90300	656
3.90667	654
3.91033	653
3.91400	652
3.91767	648
3.92133	642
3.92500	641
3.92867	642
3.93233	643
3.93600	642
3.93967	641
3.94333	639
3.94700	636
3.95067	633
3.95433	630
3.95800	627
3.96167	627
3.96533	626
3.96900	626
3.97267	626
3.97633	625
3.98000	624
3.98367	625
3.98733	625
3.99100	622
3.99467	619
3.99833	614

[Status Trace (Column Oven Temperature)]
Interval(msec)	1000
# of Points	240
Start Time(min)	0.016
End Time(min)	4.000
Intensity Units	
Intensity Multiplier	1
R.Time (min)	Intensity
0.01630	35.04
0.03297	35.03
0.04963	35.03
0.06630	35.04
0.08297	35.04
0.09963	35.03
0.11630	35.02
0.13297	35.01
0.14963	35.02
0.16630	35.02
0.18297	35.03
0.19963	35.03
0.21630	35.03
0.23297	35.03
0.24963	35.03
0.26630	35.04
0.28297	35.05
0.29963	35.05
0.31630	35.05
0.33297	35.04
0.34963	35.04
0.36630	35.03
0.38297	35.01
0.39963	35.00
0.41630	35.00
0.43297	34.99
0.44963	34.98
0.46630	34.97
0.48297	34.96
0.49963	34.97
0.51630	34.99
0.53297	34.99
0.54963	34.98
0.56630	34.97
0.58297	34.98
0.59963	34.98
0.61630	34.98
0.63297	34.98
0.64963	34.97
0.66630	34.98
0.68297	34.98
0.69963	34.99
0.71630	34.99
0.73297	34.99
0.74963	34.99
0.76630	34.98
0.78297	34.98
0.79963	34.97
0.81630	34.97
0.83297	34.98
0.84963	34.97
0.86630	34.97
0.88297	34.99
0.89963	35.00
0.91630	34.99
0.93297	34.99
0.94963	35.01
0.96630	35.00
0.98297	34.99
0.99963	34.99
1.01630	34.99
1.03297	34.98
1.04963	34.97
1.06630	34.98
1.08297	34.99
1.09963	35.01
1.11630	35.02
1.13297	35.02
1.14963	35.01
1.16630	35.01
1.18297	35.01
1.19963	35.02
1.21630	35.03
1.23297	35.05
1.24963	35.05
1.26630	35.06
1.28297	35.06
1.29963	35.05
1.31630	35.05
1.33297	35.04
1.34963	35.03
1.36630	35.04
1.38297	35.03
1.39963	35.01
1.41630	35.00
1.43297	35.00
1.44963	34.99
1.46630	34.99
1.48297	34.99
1.49963	35.00
1.51630	35.00
1.53297	35.01
1.54963	35.01
1.56630	35.02
1.58297	35.01
1.59963	35.03
1.61630	35.11
1.63297	35.27
1.64963	35.47
1.66630	35.77
1.68297	36.14
1.69963	36.48
1.71630	36.83
1.73297	37.17
1.74963	37.50
1.76630	37.85
1.78297	38.18
1.79963	38.50
1.81630	38.84
1.83297	39.18
1.84963	39.49
1.86630	39.82
1.88297	40.16
1.89963	40.49
1.91630	40.81
1.93297	41.13
1.94963	41.47
1.96630	41.79
1.98297	42.12
1.99963	42.45
2.01630	42.78
2.03297	43.10
2.04963	43.41
2.06630	43.73
2.08297	44.08
2.09963	44.41
2.11630	44.73
2.13297	45.07
2.14963	45.38
2.16630	45.71
2.18297	46.03
2.19963	46.35
2.21630	46.66
2.23297	47.01
2.24963	47.34
2.26630	47.67
2.28297	48.00
2.29963	48.33
2.31630	48.67
2.33297	48.98
2.34963	49.29
2.36630	49.56
2.38297	49.71
2.39963	49.72
2.41630	49.72
2.43297	49.71
2.44963	49.73
2.46630	49.74
2.48297	49.75
2.49963	49.75
2.51630	49.77
2.53297	49.78
2.54963	49.78
2.56630	49.79
2.58297	49.81
2.59963	49.80
2.61630	49.81
2.63297	49.85
2.64963	49.86
2.66630	49.84
2.68297	49.85
2.69963	49.86
2.71630	49.85
2.73297	49.87
2.74963	49.89
2.76630	49.90
2.78297	49.91
2.79963	49.91
2.81630	49.90
2.83297	49.90
2.84963	49.89
2.86630	49.88
2.88297	49.90
2.89963	49.91
2.91630	49.93
2.93297	49.96
2.94963	49.98
2.96630	49.99
2.98297	49.99
2.99963	50.00
3.01630	50.01
3.03297	50.03
3.04963	50.05
3.06630	50.06
3.08297	50.07
3.09963	50.07
3.11630	50.08
3.13297	50.09
3.14963	50.09
3.16630	50.09
3.18297	50.10
3.19963	50.10
3.21630	50.10
3.23297	50.11
3.24963	50.11
3.26630	50.10
3.28297	50.09
3.29963	50.06
3.31630	50.05
3.33297	50.03
3.34963	50.03
3.36630	50.01
3.38297	49.99
3.39963	49.98
3.41630	49.97
3.43297	49.97
3.44963	49.97
3.46630	49.97
3.48297	49.97
3.49963	49.98
3.51630	49.99
3.53297	50.00
3.54963	50.01
3.56630	50.02
3.58297	50.02
3.59963	50.04
3.61630	50.05
3.63297	50.05
3.64963	50.06
3.66630	50.07
3.68297	50.08
3.69963	50.08
3.71630	50.09
3.73297	50.09
3.74963	50.08
3.76630	50.07
3.78297	50.06
3.79963	50.05
3.81630	50.05
3.83297	50.05
3.84963	50.05
3.86630	50.06
3.88297	50.07
3.89963	50.07
3.91630	50.08
3.93297	50.07
3.94963	50.07
3.96630	50.07
3.98297	50.07
3.99963	50.08

[Status Trace (Injection Unit Temperature)]
Interval(msec)	1000
# of Points	240
Start Time(min)	0.016
End Time(min)	4.000
Intensity Units	
Intensity Multiplier	1
R.Time (min)	Intensity
0.01630	99.97
0.03297	99.98
0.04963	99.97
0.06630	99.98
0.08297	99.98
0.09963	99.98
0.11630	99.98
0.13297	99.97
0.14963	99.98
0.16630	99.98
0.18297	99.98
0.19963	99.97
0.21630	99.98
0.23297	99.98
0.24963	99.98
0.26630	99.98
0.28297	99.98
0.29963	99.98
0.31630	99.98
0.33297	99.98
0.34963	99.98
0.36630	99.98
0.38297	99.98
0.39963	99.98
0.41630	99.98
0.43297	99.98
0.44963	99.98
0.46630	99.98
0.48297	99.98
0.49963	99.98
0.51630	99.98
0.53297	99.97
0.54963	99.98
0.56630	99.98
0.58297	99.98
0.59963	99.98
0.61630	99.97
0.63297	99.97
0.64963	99.98
0.66630	99.98
0.68297	99.98
0.69963	99.98
0.71630	99.98
0.73297	99.97
0.74963	99.98
0.76630	99.98
0.78297	99.98
0.79963	99.97
0.81630	99.97
0.83297	99.97
0.84963	99.98
0.86630	99.98
0.88297	99.98
0.89963	99.98
0.91630	99.98
0.93297	99.97
0.94963	99.98
0.96630	99.98
0.98297	99.98
0.99963	99.98
1.01630	99.98
1.03297	99.98
1.04963	99.98
1.06630	99.98
1.08297	99.98
1.09963	99.98
1.11630	99.98
1.13297	99.98
1.14963	99.98
1.16630	99.98
1.18297	99.99
1.19963	99.98
1.21630	99.98
1.23297	99.98
1.24963	99.98
1.26630	99.98
1.28297	99.98
1.29963	99.98
1.31630	99.99
1.33297	99.98
1.34963	99.98
1.36630	99.98
1.38297	99.99
1.39963	99.98
1.41630	99.99
1.43297	99.99
1.44963	99.98
1.46630	99.98
1.48297	99.99
1.49963	99.99
1.51630	99.99
1.53297	99.98
1.54963	99.98
1.56630	99.98
1.58297	99.99
1.59963	99.99
1.61630	99.98
1.63297	99.99
1.64963	99.99
1.66630	99.98
1.68297	99.98
1.69963	99.99
1.71630	99.98
1.73297	99.98
1.74963	99.98
1.76630	99.97
1.78297	99.98
1.79963	99.98
1.81630	99.98
1.83297	99.98
1.84963	99.98
1.86630	99.98
1.88297	99.98
1.89963	99.98
1.91630	99.98
1.93297	99.98
1.94963	99.98
1.96630	99.97
1.98297	99.98
1.99963	99.98
2.01630	99.98
2.03297	99.98
2.04963	99.97
2.06630	99.97
2.08297	99.97
2.09963	99.97
2.11630	99.97
2.13297	99.97
2.14963	99.97
2.16630	99.97
2.18297	99.97
2.19963	99.97
2.21630	99.97
2.23297	99.96
2.24963	99.97
2.26630	99.96
2.28297	99.96
2.29963	99.97
2.31630	99.97
2.33297	99.96
2.34963	99.96
2.36630	99.96
2.38297	99.96
2.39963	99.97
2.41630	99.96
2.43297	99.96
2.44963	99.96
2.46630	99.96
2.48297	99.96
2.49963	99.97
2.51630	99.97
2.53297	99.97
2.54963	99.96
2.56630	99.96
2.58297	99.97
2.59963	99.97
2.61630	99.97
2.63297	99.96
2.64963	99.97
2.66630	99.97
2.68297	99.97
2.69963	99.97
2.71630	99.98
2.73297	99.98
2.74963	99.98
2.76630	99.97
2.78297	99.98
2.79963	99.98
2.81630	99.98
2.83297	99.98
2.84963	99.99
2.86630	99.98
2.88297	99.99
2.89963	99.99
2.91630	99.99
2.93297	99.99
2.94963	99.99
2.96630	100.00
2.98297	100.00
2.99963	100.00
3.01630	100.00
3.03297	100.00
3.04963	100.00
3.06630	100.00
3.08297	100.01
3.09963	100.01
3.11630	100.01
3.13297	100.01
3.14963	100.01
3.16630	100.01
3.18297	100.01
3.19963	100.01
3.21630	100.02
3.23297	100.02
3.24963	100.02
3.26630	100.02
3.28297	100.02
3.29963	100.03
3.31630	100.03
3.33297	100.03
3.34963	100.03
3.36630	100.03
3.38297	100.03
3.39963	100.03
3.41630	100.03
3.43297	100.04
3.44963	100.03
3.46630	100.04
3.48297	100.04
3.49963	100.04
3.51630	100.04
3.53297	100.04
3.54963	100.04
3.56630	100.04
3.58297	100.04
3.59963	100.04
3.61630	100.04
3.63297	100.05
3.64963	100.04
3.66630	100.04
3.68297	100.05
3.69963	100.05
3.71630	100.04
3.73297	100.05
3.74963	100.05
3.76630	100.05
3.78297	100.05
3.79963	100.05
3.81630	100.04
3.83297	100.04
3.84963	100.05
3.86630	100.05
3.88297	100.05
3.89963	100.05
3.91630	100.06
3.93297	100.05
3.94963	100.05
3.96630	100.05
3.98297	100.05
3.99963	100.05

[Status Trace (Carrier Gas Pressure)]
Interval(msec)	1000
# of Points	240
Start Time(min)	0.016
End Time(min)	4.000
Intensity Units	
Intensity Multiplier	1
R.Time (min)	Intensity
0.01630	56.93
0.03297	55.89
0.04963	58.27
0.06630	59.90
0.08297	58.48
0.09963	57.97
0.11630	58.00
0.13297	58.01
0.14963	58.01
0.16630	58.01
0.18297	58.00
0.19963	58.00
0.21630	58.00
0.23297	58.00
0.24963	58.00
0.26630	58.00
0.28297	58.00
0.29963	58.00
0.31630	58.00
0.33297	58.00
0.34963	58.00
0.36630	58.00
0.38297	58.00
0.39963	58.00
0.41630	58.00
0.43297	58.00
0.44963	58.00
0.46630	58.00
0.48297	58.00
0.49963	58.00
0.51630	58.00
0.53297	58.00
0.54963	58.00
0.56630	58.00
0.58297	58.00
0.59963	58.00
0.61630	58.00
0.63297	58.00
0.64963	58.00
0.66630	58.00
0.68297	58.00
0.69963	58.00
0.71630	58.00
0.73297	58.00
0.74963	58.00
0.76630	58.00
0.78297	58.00
0.79963	58.00
0.81630	58.00
0.83297	58.00
0.84963	58.00
0.86630	58.00
0.88297	58.00
0.89963	58.00
0.91630	58.00
0.93297	58.00
0.94963	58.00
0.96630	58.00
0.98297	58.00
0.99963	58.00
1.01630	58.00
1.03297	58.00
1.04963	58.00
1.06630	58.00
1.08297	58.00
1.09963	58.00
1.11630	58.00
1.13297	58.00
1.14963	58.00
1.16630	58.00
1.18297	58.00
1.19963	58.00
1.21630	58.00
1.23297	58.00
1.24963	58.00
1.26630	58.00
1.28297	58.00
1.29963	58.00
1.31630	58.00
1.33297	58.00
1.34963	58.00
1.36630	58.00
1.38297	58.00
1.39963	58.00
1.41630	58.00
1.43297	58.00
1.44963	58.00
1.46630	58.00
1.48297	58.00
1.49963	58.00
1.51630	58.00
1.53297	58.00
1.54963	58.00
1.56630	58.00
1.58297	58.00
1.59963	58.00
1.61630	58.00
1.63297	58.00
1.64963	58.00
1.66630	58.01
1.68297	58.01
1.69963	58.00
1.71630	58.00
1.73297	58.00
1.74963	58.00
1.76630	58.00
1.78297	58.00
1.79963	58.00
1.81630	58.00
1.83297	58.00
1.84963	58.00
1.86630	58.00
1.88297	58.00
1.89963	58.00
1.91630	58.00
1.93297	58.00
1.94963	58.00
1.96630	58.00
1.98297	58.00
1.99963	58.00
2.01630	58.00
2.03297	58.00
2.04963	58.00
2.06630	58.00
2.08297	58.00
2.09963	58.00
2.11630	58.00
2.13297	58.00
2.14963	58.00
2.16630	58.00
2.18297	58.00
2.19963	58.00
2.21630	58.00
2.23297	58.00
2.24963	58.00
2.26630	58.00
2.28297	58.00
2.29963	58.00
2.31630	58.00
2.33297	58.00
2.34963	58.00
2.36630	58.00
2.38297	57.99
2.39963	57.99
2.41630	58.00
2.43297	58.00
2.44963	58.00
2.46630	58.00
2.48297	58.00
2.49963	58.00
2.51630	57.99
2.53297	57.99
2.54963	58.00
2.56630	58.00
2.58297	58.00
2.59963	58.00
2.61630	58.00
2.63297	58.00
2.64963	58.00
2.66630	58.00
2.68297	58.00
2.69963	58.00
2.71630	58.00
2.73297	58.00
2.74963	58.00
2.76630	58.00
2.78297	58.00
2.79963	58.00
2.81630	58.00
2.83297	58.00
2.84963	58.00
2.86630	58.00
2.88297	58.00
2.89963	58.00
2.91630	58.00
2.93297	58.00
2.94963	58.00
2.96630	58.00
2.98297	58.00
2.99963	58.00
3.01630	58.00
3.03297	58.00
3.04963	58.00
3.06630	58.00
3.08297	58.00
3.09963	58.00
3.11630	58.00
3.13297	58.00
3.14963	58.00
3.16630	58.00
3.18297	58.00
3.19963	58.00
3.21630	58.00
3.23297	58.00
3.24963	58.00
3.26630	58.00
3.28297	58.00
3.29963	58.00
3.31630	58.00
3.33297	58.00
3.34963	58.00
3.36630	58.00
3.38297	58.00
3.39963	58.00
3.41630	58.00
3.43297	58.00
3.44963	58.00
3.46630	58.00
3.48297	58.00
3.49963	58.00
3.51630	58.00
3.53297	58.00
3.54963	58.00
3.56630	58.00
3.58297	58.00
3.59963	58.00
3.61630	58.00
3.63297	58.00
3.64963	58.00
3.66630	58.00
3.68297	58.00
3.69963	58.00
3.71630	58.00
3.73297	58.00
3.74963	58.00
3.76630	58.00
3.78297	58.00
3.79963	58.00
3.81630	58.00
3.83297	58.00
3.84963	58.00
3.86630	58.00
3.88297	58.00
3.89963	58.00
3.91630	58.00
3.93297	58.00
3.94963	58.00
3.96630	58.00
3.98297	58.00
3.99963	58.00

[Status Trace (Carrier Gas Flow)]
Interval(msec)	1000
# of Points	240
Start Time(min)	0.016
End Time(min)	4.000
Intensity Units	
Intensity Multiplier	1
R.Time (min)	Intensity
0.01630	33.82
0.03297	34.54
0.04963	34.55
0.06630	34.49
0.08297	34.51
0.09963	34.52
0.11630	34.52
0.13297	34.51
0.14963	34.51
0.16630	34.51
0.18297	34.52
0.19963	34.52
0.21630	34.52
0.23297	34.52
0.24963	34.52
0.26630	34.52
0.28297	34.52
0.29963	34.52
0.31630	34.52
0.33297	34.52
0.34963	34.52
0.36630	34.52
0.38297	34.52
0.39963	34.52
0.41630	34.51
0.43297	34.52
0.44963	34.52
0.46630	34.51
0.48297	34.52
0.49963	34.52
0.51630	34.52
0.53297	34.52
0.54963	34.51
0.56630	34.52
0.58297	34.52
0.59963	34.52
0.61630	34.51
0.63297	34.52
0.64963	34.52
0.66630	34.52
0.68297	34.52
0.69963	34.52
0.71630	34.52
0.73297	34.52
0.74963	34.52
0.76630	34.52
0.78297	34.52
0.79963	34.51
0.81630	34.52
0.83297	34.52
0.84963	34.52
0.86630	34.52
0.88297	34.52
0.89963	34.52
0.91630	34.52
0.93297	34.52
0.94963	34.52
0.96630	34.52
0.98297	34.52
0.99963	34.52
1.01630	34.52
1.03297	34.52
1.04963	34.52
1.06630	34.52
1.08297	34.52
1.09963	34.52
1.11630	34.52
1.13297	34.52
1.14963	34.52
1.16630	34.52
1.18297	34.51
1.19963	34.52
1.21630	34.52
1.23297	34.51
1.24963	34.52
1.26630	34.51
1.28297	34.52
1.29963	34.52
1.31630	34.52
1.33297	34.52
1.34963	34.52
1.36630	34.51
1.38297	34.52
1.39963	34.52
1.41630	34.52
1.43297	34.52
1.44963	34.51
1.46630	34.52
1.48297	34.52
1.49963	34.52
1.51630	34.53
1.53297	34.53
1.54963	34.53
1.56630	34.52
1.58297	34.51
1.59963	34.51
1.61630	34.51
1.63297	34.52
1.64963	34.53
1.66630	34.52
1.68297	34.52
1.69963	34.51
1.71630	34.53
1.73297	34.52
1.74963	34.51
1.76630	34.51
1.78297	34.51
1.79963	34.50
1.81630	34.52
1.83297	34.53
1.84963	34.52
1.86630	34.52
1.88297	34.52
1.89963	34.52
1.91630	34.53
1.93297	34.52
1.94963	34.51
1.96630	34.52
1.98297	34.52
1.99963	34.52
2.01630	34.52
2.03297	34.52
2.04963	34.51
2.06630	34.52
2.08297	34.52
2.09963	34.52
2.11630	34.52
2.13297	34.52
2.14963	34.52
2.16630	34.51
2.18297	34.52
2.19963	34.52
2.21630	34.52
2.23297	34.52
2.24963	34.52
2.26630	34.52
2.28297	34.52
2.29963	34.52
2.31630	34.52
2.33297	34.52
2.34963	34.52
2.36630	34.52
2.38297	34.53
2.39963	34.52
2.41630	34.52
2.43297	34.52
2.44963	34.52
2.46630	34.52
2.48297	34.51
2.49963	34.52
2.51630	34.52
2.53297	34.52
2.54963	34.52
2.56630	34.52
2.58297	34.52
2.59963	34.51
2.61630	34.52
2.63297	34.52
2.64963	34.52
2.66630	34.52
2.68297	34.52
2.69963	34.52
2.71630	34.52
2.73297	34.52
2.74963	34.52
2.76630	34.52
2.78297	34.52
2.79963	34.52
2.81630	34.53
2.83297	34.51
2.84963	34.52
2.86630	34.52
2.88297	34.52
2.89963	34.52
2.91630	34.52
2.93297	34.52
2.94963	34.52
2.96630	34.52
2.98297	34.52
2.99963	34.52
3.01630	34.52
3.03297	34.52
3.04963	34.52
3.06630	34.51
3.08297	34.51
3.09963	34.52
3.11630	34.52
3.13297	34.52
3.14963	34.52
3.16630	34.52
3.18297	34.52
3.19963	34.52
3.21630	34.52
3.23297	34.52
3.24963	34.52
3.26630	34.52
3.28297	34.52
3.29963	34.52
3.31630	34.52
3.33297	34.52
3.34963	34.52
3.36630	34.52
3.38297	34.52
3.39963	34.52
3.41630	34.52
3.43297	34.51
3.44963	34.52
3.46630	34.52
3.48297	34.52
3.49963	34.52
3.51630	34.52
3.53297	34.52
3.54963	34.52
3.56630	34.52
3.58297	34.52
3.59963	34.52
3.61630	34.52
3.63297	34.52
3.64963	34.52
3.66630	34.52
3.68297	34.52
3.69963	34.52
3.71630	34.52
3.73297	34.52
3.74963	34.52
3.76630	34.52
3.78297	34.52
3.79963	34.52
3.81630	34.52
3.83297	34.52
3.84963	34.52
3.86630	34.52
3.88297	34.52
3.89963	34.52
3.91630	34.51
3.93297	34.52
3.94963	34.53
3.96630	34.52
3.98297	34.52
3.99963	34.52

[Status Trace (Column Flow)]
Interval(msec)	1000
# of Points	240
Start Time(min)	0.016
End Time(min)	4.000
Intensity Units	
Intensity Multiplier	1
R.Time (min)	Intensity
0.01630	5.40
0.03297	5.28
0.04963	5.56
0.06630	5.75
0.08297	5.58
0.09963	5.52
0.11630	5.52
0.13297	5.53
0.14963	5.53
0.16630	5.53
0.18297	5.52
0.19963	5.52
0.21630	5.52
0.23297	5.52
0.24963	5.52
0.26630	5.52
0.28297	5.52
0.29963	5.52
0.31630	5.52
0.33297	5.52
0.34963	5.52
0.36630	5.52
0.38297	5.53
0.39963	5.53
0.41630	5.53
0.43297	5.53
0.44963	5.53
0.46630	5.53
0.48297	5.53
0.49963	5.53
0.51630	5.53
0.53297	5.53
0.54963	5.53
0.56630	5.53
0.58297	5.53
0.59963	5.53
0.61630	5.53
0.63297	5.53
0.64963	5.53
0.66630	5.53
0.68297	5.53
0.69963	5.53
0.71630	5.53
0.73297	5.53
0.74963	5.53
0.76630	5.53
0.78297	5.53
0.79963	5.53
0.81630	5.53
0.83297	5.53
0.84963	5.53
0.86630	5.53
0.88297	5.53
0.89963	5.53
0.91630	5.53
0.93297	5.53
0.94963	5.53
0.96630	5.53
0.98297	5.53
0.99963	5.53
1.01630	5.53
1.03297	5.53
1.04963	5.53
1.06630	5.53
1.08297	5.53
1.09963	5.53
1.11630	5.52
1.13297	5.52
1.14963	5.53
1.16630	5.53
1.18297	5.53
1.19963	5.52
1.21630	5.52
1.23297	5.52
1.24963	5.52
1.26630	5.52
1.28297	5.52
1.29963	5.52
1.31630	5.52
1.33297	5.52
1.34963	5.52
1.36630	5.52
1.38297	5.52
1.39963	5.53
1.41630	5.53
1.43297	5.53
1.44963	5.53
1.46630	5.53
1.48297	5.53
1.49963	5.53
1.51630	5.53
1.53297	5.53
1.54963	5.53
1.56630	5.53
1.58297	5.53
1.59963	5.53
1.61630	5.52
1.63297	5.52
1.64963	5.51
1.66630	5.50
1.68297	5.49
1.69963	5.48
1.71630	5.47
1.73297	5.46
1.74963	5.45
1.76630	5.44
1.78297	5.43
1.79963	5.42
1.81630	5.41
1.83297	5.40
1.84963	5.39
1.86630	5.38
1.88297	5.37
1.89963	5.36
1.91630	5.35
1.93297	5.34
1.94963	5.33
1.96630	5.32
1.98297	5.31
1.99963	5.30
2.01630	5.29
2.03297	5.28
2.04963	5.27
2.06630	5.26
2.08297	5.25
2.09963	5.24
2.11630	5.23
2.13297	5.22
2.14963	5.21
2.16630	5.20
2.18297	5.19
2.19963	5.18
2.21630	5.18
2.23297	5.17
2.24963	5.16
2.26630	5.15
2.28297	5.14
2.29963	5.13
2.31630	5.12
2.33297	5.11
2.34963	5.10
2.36630	5.09
2.38297	5.09
2.39963	5.09
2.41630	5.09
2.43297	5.09
2.44963	5.09
2.46630	5.09
2.48297	5.09
2.49963	5.09
2.51630	5.09
2.53297	5.09
2.54963	5.09
2.56630	5.09
2.58297	5.09
2.59963	5.09
2.61630	5.09
2.63297	5.09
2.64963	5.09
2.66630	5.09
2.68297	5.09
2.69963	5.09
2.71630	5.09
2.73297	5.09
2.74963	5.09
2.76630	5.08
2.78297	5.08
2.79963	5.08
2.81630	5.08
2.83297	5.09
2.84963	5.09
2.86630	5.09
2.88297	5.09
2.89963	5.08
2.91630	5.08
2.93297	5.08
2.94963	5.08
2.96630	5.08
2.98297	5.08
2.99963	5.08
3.01630	5.08
3.03297	5.08
3.04963	5.08
3.06630	5.08
3.08297	5.08
3.09963	5.08
3.11630	5.08
3.13297	5.08
3.14963	5.08
3.16630	5.08
3.18297	5.08
3.19963	5.08
3.21630	5.08
3.23297	5.08
3.24963	5.08
3.26630	5.08
3.28297	5.08
3.29963	5.08
3.31630	5.08
3.33297	5.08
3.34963	5.08
3.36630	5.08
3.38297	5.08
3.39963	5.08
3.41630	5.08
3.43297	5.08
3.44963	5.08
3.46630	5.08
3.48297	5.08
3.49963	5.08
3.51630	5.08
3.53297	5.08
3.54963	5.08
3.56630	5.08
3.58297	5.08
3.59963	5.08
3.61630	5.08
3.63297	5.08
3.64963	5.08
3.66630	5.08
3.68297	5.08
3.69963	5.08
3.71630	5.08
3.73297	5.08
3.74963	5.08
3.76630	5.08
3.78297	5.08
3.79963	5.08
3.81630	5.08
3.83297	5.08
3.84963	5.08
3.86630	5.08
3.88297	5.08
3.89963	5.08
3.91630	5.08
3.93297	5.08
3.94963	5.08
3.96630	5.08
3.98297	5.08
3.99963	5.08

[Status Trace (Linear Velocity)]
Interval(msec)	1000
# of Points	240
Start Time(min)	0.016
End Time(min)	4.000
Intensity Units	
Intensity Multiplier	1
R.Time (min)	Intensity
0.01630	38.31
0.03297	37.63
0.04963	39.19
0.06630	40.26
0.08297	39.33
0.09963	39.00
0.11630	39.02
0.13297	39.02
0.14963	39.02
0.16630	39.02
0.18297	39.02
0.19963	39.02
0.21630	39.02
0.23297	39.02
0.24963	39.02
0.26630	39.01
0.28297	39.01
0.29963	39.01
0.31630	39.01
0.33297	39.01
0.34963	39.01
0.36630	39.01
0.38297	39.02
0.39963	39.02
0.41630	39.02
0.43297	39.02
0.44963	39.02
0.46630	39.02
0.48297	39.02
0.49963	39.02
0.51630	39.02
0.53297	39.02
0.54963	39.02
0.56630	39.02
0.58297	39.02
0.59963	39.02
0.61630	39.02
0.63297	39.02
0.64963	39.02
0.66630	39.02
0.68297	39.02
0.69963	39.02
0.71630	39.02
0.73297	39.02
0.74963	39.02
0.76630	39.02
0.78297	39.02
0.79963	39.02
0.81630	39.02
0.83297	39.02
0.84963	39.02
0.86630	39.02
0.88297	39.02
0.89963	39.02
0.91630	39.02
0.93297	39.02
0.94963	39.02
0.96630	39.02
0.98297	39.02
0.99963	39.02
1.01630	39.02
1.03297	39.02
1.04963	39.02
1.06630	39.02
1.08297	39.02
1.09963	39.02
1.11630	39.02
1.13297	39.02
1.14963	39.02
1.16630	39.02
1.18297	39.02
1.19963	39.02
1.21630	39.01
1.23297	39.01
1.24963	39.01
1.26630	39.01
1.28297	39.01
1.29963	39.01
1.31630	39.01
1.33297	39.01
1.34963	39.01
1.36630	39.01
1.38297	39.01
1.39963	39.02
1.41630	39.02
1.43297	39.02
1.44963	39.02
1.46630	39.02
1.48297	39.02
1.49963	39.02
1.51630	39.02
1.53297	39.02
1.54963	39.02
1.56630	39.02
1.58297	39.02
1.59963	39.02
1.61630	39.01
1.63297	39.00
1.64963	38.98
1.66630	38.95
1.68297	38.91
1.69963	38.88
1.71630	38.84
1.73297	38.81
1.74963	38.78
1.76630	38.75
1.78297	38.71
1.79963	38.68
1.81630	38.65
1.83297	38.62
1.84963	38.59
1.86630	38.56
1.88297	38.53
1.89963	38.50
1.91630	38.47
1.93297	38.44
1.94963	38.41
1.96630	38.38
1.98297	38.35
1.99963	38.32
2.01630	38.28
2.03297	38.26
2.04963	38.23
2.06630	38.20
2.08297	38.17
2.09963	38.14
2.11630	38.11
2.13297	38.07
2.14963	38.05
2.16630	38.02
2.18297	37.99
2.19963	37.96
2.21630	37.93
2.23297	37.90
2.24963	37.87
2.26630	37.84
2.28297	37.81
2.29963	37.78
2.31630	37.75
2.33297	37.72
2.34963	37.69
2.36630	37.67
2.38297	37.66
2.39963	37.65
2.41630	37.66
2.43297	37.66
2.44963	37.66
2.46630	37.66
2.48297	37.66
2.49963	37.65
2.51630	37.65
2.53297	37.65
2.54963	37.65
2.56630	37.65
2.58297	37.65
2.59963	37.65
2.61630	37.65
2.63297	37.65
2.64963	37.65
2.66630	37.65
2.68297	37.65
2.69963	37.65
2.71630	37.65
2.73297	37.65
2.74963	37.64
2.76630	37.64
2.78297	37.64
2.79963	37.64
2.81630	37.64
2.83297	37.64
2.84963	37.64
2.86630	37.64
2.88297	37.64
2.89963	37.64
2.91630	37.64
2.93297	37.64
2.94963	37.64
2.96630	37.63
2.98297	37.63
2.99963	37.63
3.01630	37.63
3.03297	37.63
3.04963	37.63
3.06630	37.63
3.08297	37.63
3.09963	37.63
3.11630	37.63
3.13297	37.63
3.14963	37.63
3.16630	37.63
3.18297	37.63
3.19963	37.62
3.21630	37.62
3.23297	37.62
3.24963	37.62
3.26630	37.62
3.28297	37.63
3.29963	37.63
3.31630	37.63
3.33297	37.63
3.34963	37.63
3.36630	37.63
3.38297	37.63
3.39963	37.63
3.41630	37.64
3.43297	37.64
3.44963	37.64
3.46630	37.64
3.48297	37.64
3.49963	37.64
3.51630	37.63
3.53297	37.63
3.54963	37.63
3.56630	37.63
3.58297	37.63
3.59963	37.63
3.61630	37.63
3.63297	37.63
3.64963	37.63
3.66630	37.63
3.68297	37.63
3.69963	37.63
3.71630	37.63
3.73297	37.63
3.74963	37.63
3.76630	37.63
3.78297	37.63
3.79963	37.63
3.81630	37.63
3.83297	37.63
3.84963	37.63
3.86630	37.63
3.88297	37.63
3.89963	37.63
3.91630	37.63
3.93297	37.63
3.94963	37.63
3.96630	37.63
3.98297	37.63
3.99963	37.63

