[Header]
Application Name	LabSolutions
Version	5.110
Data File Name	C:\Users\User\Desktop\GC Analyses\Jack\Nachusa Grasslands Sampling\T3 Timepoint July 12th\T3_07122022_002.gcd
Output Date	3/14/2023
Output Time	3:43:29 PM

[File Information]
Type	Data File
Generated	3/13/2023 2:35:59 PM
Generated by	System Administrator
Modified	3/13/2023 2:42:28 PM
Modified by	System Administrator

[Sample Information]
Operator Name	System Administrator
Acquired	3/13/2023 2:38:26 PM
Sample Type	0:Unknown
Level	0
Sample Name	002
Sample ID	002
ISTD Amount1	1
ISTD Amount2	1
ISTD Amount3	1
ISTD Amount4	1
ISTD Amount5	1
ISTD Amount6	1
ISTD Amount7	1
ISTD Amount8	1
ISTD Amount9	1
ISTD Amount10	1
ISTD Amount11	1
ISTD Amount12	1
ISTD Amount13	1
ISTD Amount14	1
ISTD Amount15	1
ISTD Amount16	1
ISTD Amount17	1
ISTD Amount18	1
ISTD Amount19	1
ISTD Amount20	1
ISTD Amount21	1
ISTD Amount22	1
ISTD Amount23	1
ISTD Amount24	1
ISTD Amount25	1
ISTD Amount26	1
ISTD Amount27	1
ISTD Amount28	1
ISTD Amount29	1
ISTD Amount30	1
ISTD Amount31	1
ISTD Amount32	1
Sample Amount	1
Dilution Factor	1
Vial#	1
Injection Volume	1
Injection Count	1
Bar Code	

[Original Files]
Data File	C:\Users\User\Desktop\GC Analyses\Jack\Nachusa Grasslands Sampling\T3 Timepoint July 12th\T3_07122022_002.gcd
Method File	C:\LabSolutions\Data\GHG_4min_2022\ghg3_togas_w_acet_4 min_new_int.gcm
Batch File	C:\LabSolutions\Data\AutoSamplerTesting\T3_07122022.gcb
Report Format File	c:\LabSolutions\System\DEFAULT.lsr

[File Description]


[Configuration]
Instrument Name	C0B7VH3-Instrument1
Instrument #	1
Line #	1
# of Detectors	3
Detector ID	DET#1	DET#2	DET#3
Detector Name	FID	PTCD	ECD
# of Channels	1	1	1

[Peak Table(Ch1)]
# of Peaks	3
Peak#	R.Time	I.Time	F.Time	Area	Height	A/H	Conc.	Mark	ID#	Name	k'	Plate #	Plate Ht.	Tailing	Resolution	Sep.Factor	Area Ratio	Height Ratio	Conc. %	Norm Conc.
1	1.461	1.424	1.509	4138	2236	1.851	29.214	   	1	CO	0.000	11028	13.602	1.248	0.000	0.000	0	0	3.051	3.051
2	1.571	1.534	1.630	20757	10499	1.977	401.351	   	2	CH4	0.075	11513	13.029	1.172	1.926	0.000	0	0	41.912	41.912
3	2.000	1.949	2.411	2099986	1015794	2.067	527.040	   	3	CO2	0.369	17543	8.550	1.203	7.212	4.900	0	0	55.037	55.037

[Peak Table(Ch2)]
# of Peaks	0

[Peak Table(Ch3)]
# of Peaks	5
Peak#	R.Time	I.Time	F.Time	Area	Height	A/H	Conc.	Mark	ID#	Name	k'	Plate #	Plate Ht.	Tailing	Resolution	Sep.Factor	Area Ratio	Height Ratio	Conc. %	Norm Conc.
1	2.462	2.293	2.506	1584	453	3.499	0.000	   			0.000	10461	14.338	0.000	0.000	0.000	0	0	0.000	0.000
2	2.524	2.506	2.576	834	279	2.991	0.000	 V 			0.025	4509	33.265	0.000	0.505	0.000	0	0	0.000	0.000
3	2.609	2.576	2.664	556	170	3.262	0.000	 V 			0.060	4960	30.244	0.000	0.565	2.353	0	0	0.000	0.000
4	2.880	2.689	3.093	56781	14795	3.838	1.450	   	1	N2O	0.170	12831	11.690	1.559	2.172	2.850	0	0	100.000	100.000
5	3.463	3.173	3.672	805	49	16.531	0.000	   	2	SF6	0.407	816	183.886	0.876	1.987	2.395	0	0	0.000	0.000

[Compound Results(Ch1)]
# of IDs	6
ID#	Name	R.Time	Area	Height	Conc.	Curve	3rd	2nd	1st	Constant	Area Ratio	Height Ratio	Conc. %	Norm Conc.
1	CO	1.461	4138	2236	29.214	Linear	0.000000e+00	0.000000e+00	1.416423e+002	0.000000e+00	0	0	3.051	3.051
2	CH4	1.571	20757	10499	401.351	Linear	0.000000e+00	0.000000e+00	5.171738e+001	0.000000e+00	0	0	41.912	41.912
3	CO2	2.000	2099986	1015794	527.040	Linear	0.000000e+00	0.000000e+00	3.984494e+003	0.000000e+00	0	0	55.037	55.037
4	Ethylene	0.000	0	0	0.000	Linear	0.000000e+00	0.000000e+00	0.000000e+00	0.000000e+00	0	0	0.000	0.000
5	Acetylene	0.000	0	0	0.000	Linear	0.000000e+00	0.000000e+00	0.000000e+00	0.000000e+00	0	0	0.000	0.000
6	Ethane	0.000	0	0	0.000	Linear	0.000000e+00	0.000000e+00	0.000000e+00	0.000000e+00	0	0	0.000	0.000

[Compound Results(Ch2)]
# of IDs	5
ID#	Name	R.Time	Area	Height	Conc.	Curve	3rd	2nd	1st	Constant	Area Ratio	Height Ratio	Conc. %	Norm Conc.
1	Hydrogen	0.000	0	0	0.000	Linear	0.000000e+00	0.000000e+00	0.000000e+00	0.000000e+00	0	0	0.000	0.000
2	Oxygen	0.000	0	0	0.000	Linear	0.000000e+00	0.000000e+00	0.000000e+00	0.000000e+00	0	0	0.000	0.000
3	Nitrogen	0.000	0	0	0.000	Linear	0.000000e+00	0.000000e+00	0.000000e+00	0.000000e+00	0	0	0.000	0.000
4	Methane	0.000	0	0	0.000	Linear	0.000000e+00	0.000000e+00	0.000000e+00	0.000000e+00	0	0	0.000	0.000
5	Carbon Monoxide	0.000	0	0	0.000	Linear	0.000000e+00	0.000000e+00	0.000000e+00	0.000000e+00	0	0	0.000	0.000

[Compound Results(Ch3)]
# of IDs	2
ID#	Name	R.Time	Area	Height	Conc.	Curve	3rd	2nd	1st	Constant	Area Ratio	Height Ratio	Conc. %	Norm Conc.
1	N2O	2.880	56781	14795	1.450	Linear	0.000000e+00	0.000000e+00	3.915173e+004	0.000000e+00	0	0	100.000	100.000
2	SF6	3.463	805	49	0.000	Linear	0.000000e+00	0.000000e+00	0.000000e+00	0.000000e+00	0	0	0.000	0.000

[Group Results(Ch1)]
# of Groups	0

[Group Results(Ch2)]
# of Groups	0

[Group Results(Ch3)]
# of Groups	0

[Chromatogram (Ch1)]
Interval(msec)	220
# of Points	1091
Start Time(min)	0.002
End Time(min)	3.998
R.Time (min)	Intensity
0.00167	-1
0.00533	1
0.00900	2
0.01267	9
0.01633	20
0.02000	25
0.02367	27
0.02733	21
0.03100	14
0.03467	15
0.03833	17
0.04200	17
0.04567	14
0.04933	13
0.05300	14
0.05667	12
0.06033	10
0.06400	9
0.06767	4
0.07133	2
0.07500	4
0.07867	11
0.08233	15
0.08600	23
0.08967	32
0.09333	34
0.09700	32
0.10067	32
0.10433	33
0.10800	36
0.11167	42
0.11533	49
0.11900	45
0.12267	35
0.12633	27
0.13000	20
0.13367	16
0.13733	16
0.14100	24
0.14467	36
0.14833	41
0.15200	34
0.15567	27
0.15933	29
0.16300	32
0.16667	34
0.17033	39
0.17400	42
0.17767	43
0.18133	43
0.18500	43
0.18867	42
0.19233	44
0.19600	44
0.19967	43
0.20333	42
0.20700	43
0.21067	43
0.21433	39
0.21800	34
0.22167	37
0.22533	39
0.22900	35
0.23267	28
0.23633	22
0.24000	21
0.24367	30
0.24733	44
0.25100	55
0.25467	61
0.25833	63
0.26200	62
0.26567	56
0.26933	52
0.27300	54
0.27667	56
0.28033	57
0.28400	57
0.28767	59
0.29133	60
0.29500	53
0.29867	47
0.30233	45
0.30600	46
0.30967	46
0.31333	48
0.31700	47
0.32067	53
0.32433	55
0.32800	54
0.33167	56
0.33533	65
0.33900	72
0.34267	70
0.34633	66
0.35000	59
0.35367	56
0.35733	52
0.36100	48
0.36467	48
0.36833	51
0.37200	58
0.37567	66
0.37933	71
0.38300	69
0.38667	69
0.39033	61
0.39400	50
0.39767	38
0.40133	35
0.40500	43
0.40867	50
0.41233	60
0.41600	66
0.41967	65
0.42333	60
0.42700	60
0.43067	60
0.43433	61
0.43800	62
0.44167	65
0.44533	69
0.44900	75
0.45267	76
0.45633	74
0.46000	74
0.46367	75
0.46733	82
0.47100	88
0.47467	90
0.47833	83
0.48200	74
0.48567	70
0.48933	69
0.49300	69
0.49667	71
0.50033	71
0.50400	73
0.50767	75
0.51133	74
0.51500	74
0.51867	69
0.52233	65
0.52600	66
0.52967	69
0.53333	73
0.53700	78
0.54067	79
0.54433	82
0.54800	81
0.55167	78
0.55533	74
0.55900	74
0.56267	75
0.56633	77
0.57000	79
0.57367	78
0.57733	75
0.58100	76
0.58467	77
0.58833	80
0.59200	91
0.59567	103
0.59933	105
0.60300	99
0.60667	95
0.61033	92
0.61400	89
0.61767	86
0.62133	84
0.62500	85
0.62867	84
0.63233	85
0.63600	85
0.63967	82
0.64333	86
0.64700	93
0.65067	96
0.65433	93
0.65800	90
0.66167	89
0.66533	82
0.66900	73
0.67267	72
0.67633	74
0.68000	79
0.68367	85
0.68733	90
0.69100	90
0.69467	87
0.69833	88
0.70200	91
0.70567	93
0.70933	104
0.71300	109
0.71667	110
0.72033	109
0.72400	105
0.72767	99
0.73133	95
0.73500	94
0.73867	97
0.74233	104
0.74600	107
0.74967	107
0.75333	108
0.75700	104
0.76067	101
0.76433	100
0.76800	105
0.77167	103
0.77533	104
0.77900	108
0.78267	113
0.78633	116
0.79000	112
0.79367	109
0.79733	107
0.80100	107
0.80467	111
0.80833	116
0.81200	122
0.81567	122
0.81933	114
0.82300	105
0.82667	98
0.83033	94
0.83400	100
0.83767	108
0.84133	110
0.84500	110
0.84867	115
0.85233	118
0.85600	120
0.85967	122
0.86333	120
0.86700	107
0.87067	100
0.87433	105
0.87800	105
0.88167	101
0.88533	96
0.88900	98
0.89267	105
0.89633	108
0.90000	109
0.90367	123
0.90733	130
0.91100	126
0.91467	123
0.91833	120
0.92200	120
0.92567	116
0.92933	114
0.93300	113
0.93667	116
0.94033	124
0.94400	130
0.94767	156
0.95133	172
0.95500	171
0.95867	164
0.96233	153
0.96600	134
0.96967	115
0.97333	105
0.97700	102
0.98067	106
0.98433	105
0.98800	100
0.99167	89
0.99533	96
0.99900	100
1.00267	103
1.00633	106
1.01000	104
1.01367	114
1.01733	121
1.02100	122
1.02467	126
1.02833	140
1.03200	149
1.03567	148
1.03933	152
1.04300	144
1.04667	132
1.05033	129
1.05400	127
1.05767	126
1.06133	125
1.06500	116
1.06867	118
1.07233	134
1.07600	143
1.07967	145
1.08333	144
1.08700	141
1.09067	137
1.09433	132
1.09800	129
1.10167	134
1.10533	144
1.10900	147
1.11267	135
1.11633	125
1.12000	121
1.12367	121
1.12733	125
1.13100	142
1.13467	146
1.13833	141
1.14200	132
1.14567	119
1.14933	120
1.15300	123
1.15667	122
1.16033	123
1.16400	131
1.16767	141
1.17133	141
1.17500	138
1.17867	134
1.18233	130
1.18600	131
1.18967	138
1.19333	153
1.19700	161
1.20067	160
1.20433	155
1.20800	144
1.21167	131
1.21533	131
1.21900	141
1.22267	156
1.22633	164
1.23000	169
1.23367	169
1.23733	166
1.24100	158
1.24467	154
1.24833	160
1.25200	166
1.25567	164
1.25933	155
1.26300	148
1.26667	143
1.27033	142
1.27400	135
1.27767	135
1.28133	138
1.28500	145
1.28867	150
1.29233	153
1.29600	151
1.29967	141
1.30333	140
1.30700	146
1.31067	153
1.31433	158
1.31800	155
1.32167	147
1.32533	134
1.32900	124
1.33267	118
1.33633	120
1.34000	125
1.34367	127
1.34733	131
1.35100	140
1.35467	153
1.35833	162
1.36200	165
1.36567	164
1.36933	162
1.37300	164
1.37667	165
1.38033	164
1.38400	159
1.38767	152
1.39133	145
1.39500	145
1.39867	152
1.40233	165
1.40600	174
1.40967	179
1.41333	176
1.41700	168
1.42067	161
1.42433	156
1.42800	156
1.43167	162
1.43533	168
1.43900	177
1.44267	211
1.44633	383
1.45000	911
1.45367	1545
1.45733	1932
1.46100	2010
1.46467	1852
1.46833	1564
1.47200	1233
1.47567	922
1.47933	650
1.48300	399
1.48667	166
1.49033	-48
1.49400	-238
1.49767	-403
1.50133	-537
1.50500	-642
1.50867	-723
1.51233	-783
1.51600	-823
1.51967	-838
1.52333	-836
1.52700	-822
1.53067	-800
1.53433	-769
1.53800	-706
1.54167	-486
1.54533	159
1.54900	1473
1.55267	3367
1.55633	5444
1.56000	7314
1.56367	8763
1.56733	9677
1.57100	9925
1.57467	9385
1.57833	8142
1.58200	6501
1.58567	4825
1.58933	3367
1.59300	2224
1.59667	1392
1.60033	817
1.60400	430
1.60767	175
1.61133	8
1.61500	-102
1.61867	-171
1.62233	-212
1.62600	-240
1.62967	-261
1.63333	-271
1.63700	-268
1.64067	-260
1.64433	-251
1.64800	-245
1.65167	-239
1.65533	-237
1.65900	-234
1.66267	-233
1.66633	-230
1.67000	-225
1.67367	-221
1.67733	-213
1.68100	-207
1.68467	-204
1.68833	-201
1.69200	-201
1.69567	-201
1.69933	-200
1.70300	-198
1.70667	-192
1.71033	-187
1.71400	-184
1.71767	-185
1.72133	-188
1.72500	-187
1.72867	-183
1.73233	-177
1.73600	-172
1.73967	-165
1.74333	-159
1.74700	-151
1.75067	-146
1.75433	-150
1.75800	-151
1.76167	-149
1.76533	-141
1.76900	-135
1.77267	-131
1.77633	-125
1.78000	-120
1.78367	-117
1.78733	-115
1.79100	-111
1.79467	-108
1.79833	-106
1.80200	-106
1.80567	-101
1.80933	-94
1.81300	-91
1.81667	-89
1.82033	-83
1.82400	-79
1.82767	-83
1.83133	-86
1.83500	-88
1.83867	-88
1.84233	-89
1.84600	-97
1.84967	-110
1.85333	-117
1.85700	-118
1.86067	-116
1.86433	-113
1.86800	-106
1.87167	-103
1.87533	-108
1.87900	-106
1.88267	-99
1.88633	-94
1.89000	-91
1.89367	-91
1.89733	-89
1.90100	-88
1.90467	-85
1.90833	-78
1.91200	-73
1.91567	-69
1.91933	-67
1.92300	-71
1.92667	-75
1.93033	-73
1.93400	-70
1.93767	-67
1.94133	-63
1.94500	-59
1.94867	-55
1.95233	-45
1.95600	11
1.95967	370
1.96333	2303
1.96700	10253
1.97067	35130
1.97433	95064
1.97800	206742
1.98167	370164
1.98533	563087
1.98900	751060
1.99267	902269
1.99633	994327
2.00000	1015777
2.00367	966545
2.00733	859315
2.01100	716965
2.01467	565170
2.01833	424682
2.02200	307324
2.02567	216405
2.02933	149709
2.03300	102628
2.03667	70249
2.04033	48358
2.04400	33693
2.04767	23889
2.05133	17309
2.05500	12849
2.05867	9789
2.06233	7662
2.06600	6153
2.06967	5061
2.07333	4250
2.07700	3638
2.08067	3164
2.08433	2788
2.08800	2486
2.09167	2241
2.09533	2038
2.09900	1871
2.10267	1727
2.10633	1606
2.11000	1501
2.11367	1405
2.11733	1318
2.12100	1242
2.12467	1175
2.12833	1115
2.13200	1059
2.13567	1004
2.13933	956
2.14300	915
2.14667	875
2.15033	836
2.15400	805
2.15767	781
2.16133	758
2.16500	737
2.16867	717
2.17233	702
2.17600	687
2.17967	672
2.18333	655
2.18700	640
2.19067	620
2.19433	597
2.19800	575
2.20167	557
2.20533	543
2.20900	529
2.21267	516
2.21633	506
2.22000	499
2.22367	497
2.22733	489
2.23100	474
2.23467	458
2.23833	446
2.24200	436
2.24567	427
2.24933	421
2.25300	416
2.25667	414
2.26033	413
2.26400	407
2.26767	402
2.27133	395
2.27500	387
2.27867	377
2.28233	368
2.28600	365
2.28967	369
2.29333	370
2.29700	365
2.30067	361
2.30433	358
2.30800	362
2.31167	362
2.31533	360
2.31900	353
2.32267	348
2.32633	345
2.33000	343
2.33367	339
2.33733	333
2.34100	332
2.34467	331
2.34833	329
2.35200	325
2.35567	318
2.35933	311
2.36300	309
2.36667	310
2.37033	315
2.37400	319
2.37767	321
2.38133	314
2.38500	309
2.38867	314
2.39233	320
2.39600	322
2.39967	313
2.40333	300
2.40700	296
2.41067	291
2.41433	285
2.41800	280
2.42167	280
2.42533	284
2.42900	287
2.43267	291
2.43633	293
2.44000	295
2.44367	299
2.44733	301
2.45100	303
2.45467	304
2.45833	303
2.46200	299
2.46567	295
2.46933	293
2.47300	293
2.47667	296
2.48033	299
2.48400	296
2.48767	288
2.49133	278
2.49500	265
2.49867	247
2.50233	245
2.50600	254
2.50967	258
2.51333	258
2.51700	260
2.52067	264
2.52433	269
2.52800	273
2.53167	278
2.53533	286
2.53900	291
2.54267	284
2.54633	272
2.55000	263
2.55367	260
2.55733	264
2.56100	269
2.56467	269
2.56833	270
2.57200	270
2.57567	267
2.57933	265
2.58300	268
2.58667	276
2.59033	283
2.59400	290
2.59767	296
2.60133	300
2.60500	300
2.60867	299
2.61233	296
2.61600	291
2.61967	288
2.62333	285
2.62700	283
2.63067	280
2.63433	278
2.63800	271
2.64167	265
2.64533	266
2.64900	271
2.65267	276
2.65633	284
2.66000	296
2.66367	301
2.66733	297
2.67100	292
2.67467	291
2.67833	289
2.68200	285
2.68567	283
2.68933	281
2.69300	284
2.69667	289
2.70033	293
2.70400	295
2.70767	294
2.71133	295
2.71500	294
2.71867	293
2.72233	294
2.72600	294
2.72967	290
2.73333	290
2.73700	295
2.74067	301
2.74433	305
2.74800	308
2.75167	312
2.75533	315
2.75900	314
2.76267	316
2.76633	321
2.77000	328
2.77367	334
2.77733	335
2.78100	334
2.78467	331
2.78833	322
2.79200	313
2.79567	304
2.79933	292
2.80300	287
2.80667	288
2.81033	285
2.81400	279
2.81767	278
2.82133	279
2.82500	283
2.82867	291
2.83233	296
2.83600	301
2.83967	310
2.84333	316
2.84700	320
2.85067	328
2.85433	336
2.85800	345
2.86167	347
2.86533	341
2.86900	331
2.87267	325
2.87633	322
2.88000	319
2.88367	318
2.88733	318
2.89100	317
2.89467	316
2.89833	318
2.90200	332
2.90567	352
2.90933	363
2.91300	358
2.91667	349
2.92033	339
2.92400	331
2.92767	322
2.93133	317
2.93500	316
2.93867	315
2.94233	316
2.94600	321
2.94967	331
2.95333	340
2.95700	344
2.96067	345
2.96433	340
2.96800	332
2.97167	326
2.97533	323
2.97900	328
2.98267	331
2.98633	333
2.99000	340
2.99367	350
2.99733	350
3.00100	347
3.00467	349
3.00833	348
3.01200	350
3.01567	365
3.01933	380
3.02300	379
3.02667	374
3.03033	368
3.03400	361
3.03767	354
3.04133	349
3.04500	348
3.04867	356
3.05233	368
3.05600	374
3.05967	371
3.06333	367
3.06700	363
3.07067	359
3.07433	356
3.07800	355
3.08167	357
3.08533	356
3.08900	355
3.09267	353
3.09633	353
3.10000	356
3.10367	360
3.10733	364
3.11100	364
3.11467	355
3.11833	347
3.12200	337
3.12567	330
3.12933	327
3.13300	327
3.13667	329
3.14033	334
3.14400	342
3.14767	346
3.15133	352
3.15500	357
3.15867	362
3.16233	370
3.16600	372
3.16967	368
3.17333	362
3.17700	354
3.18067	352
3.18433	355
3.18800	364
3.19167	373
3.19533	372
3.19900	367
3.20267	365
3.20633	367
3.21000	368
3.21367	366
3.21733	366
3.22100	369
3.22467	373
3.22833	367
3.23200	362
3.23567	359
3.23933	361
3.24300	363
3.24667	360
3.25033	357
3.25400	358
3.25767	359
3.26133	360
3.26500	362
3.26867	367
3.27233	370
3.27600	369
3.27967	367
3.28333	359
3.28700	354
3.29067	352
3.29433	349
3.29800	349
3.30167	351
3.30533	359
3.30900	368
3.31267	376
3.31633	376
3.32000	372
3.32367	368
3.32733	359
3.33100	352
3.33467	352
3.33833	355
3.34200	361
3.34567	368
3.34933	372
3.35300	376
3.35667	374
3.36033	365
3.36400	357
3.36767	347
3.37133	336
3.37500	335
3.37867	344
3.38233	355
3.38600	368
3.38967	379
3.39333	382
3.39700	379
3.40067	375
3.40433	374
3.40800	377
3.41167	379
3.41533	383
3.41900	390
3.42267	396
3.42633	402
3.43000	405
3.43367	402
3.43733	394
3.44100	384
3.44467	375
3.44833	370
3.45200	364
3.45567	360
3.45933	360
3.46300	362
3.46667	366
3.47033	371
3.47400	379
3.47767	384
3.48133	386
3.48500	382
3.48867	379
3.49233	376
3.49600	375
3.49967	373
3.50333	372
3.50700	371
3.51067	374
3.51433	379
3.51800	381
3.52167	378
3.52533	376
3.52900	377
3.53267	381
3.53633	386
3.54000	388
3.54367	386
3.54733	385
3.55100	388
3.55467	390
3.55833	386
3.56200	377
3.56567	373
3.56933	375
3.57300	380
3.57667	383
3.58033	382
3.58400	379
3.58767	378
3.59133	377
3.59500	377
3.59867	378
3.60233	382
3.60600	386
3.60967	392
3.61333	396
3.61700	395
3.62067	387
3.62433	378
3.62800	373
3.63167	375
3.63533	378
3.63900	380
3.64267	384
3.64633	388
3.65000	386
3.65367	381
3.65733	381
3.66100	387
3.66467	389
3.66833	385
3.67200	379
3.67567	371
3.67933	366
3.68300	364
3.68667	363
3.69033	367
3.69400	376
3.69767	385
3.70133	387
3.70500	385
3.70867	383
3.71233	378
3.71600	375
3.71967	373
3.72333	380
3.72700	384
3.73067	387
3.73433	393
3.73800	395
3.74167	396
3.74533	396
3.74900	398
3.75267	403
3.75633	407
3.76000	405
3.76367	396
3.76733	382
3.77100	368
3.77467	358
3.77833	356
3.78200	357
3.78567	358
3.78933	357
3.79300	360
3.79667	363
3.80033	365
3.80400	367
3.80767	371
3.81133	381
3.81500	387
3.81867	388
3.82233	395
3.82600	399
3.82967	403
3.83333	409
3.83700	406
3.84067	397
3.84433	392
3.84800	391
3.85167	388
3.85533	384
3.85900	382
3.86267	385
3.86633	395
3.87000	403
3.87367	405
3.87733	403
3.88100	400
3.88467	398
3.88833	398
3.89200	398
3.89567	398
3.89933	395
3.90300	391
3.90667	389
3.91033	390
3.91400	392
3.91767	393
3.92133	399
3.92500	406
3.92867	409
3.93233	407
3.93600	405
3.93967	402
3.94333	399
3.94700	401
3.95067	414
3.95433	427
3.95800	435
3.96167	440
3.96533	440
3.96900	433
3.97267	423
3.97633	415
3.98000	413
3.98367	415
3.98733	412
3.99100	416
3.99467	423
3.99833	432

[Chromatogram (Ch2)]
Interval(msec)	220
# of Points	1091
Start Time(min)	0.002
End Time(min)	3.998
R.Time (min)	Intensity
0.00167	-1
0.00533	-2
0.00900	-2
0.01267	-2
0.01633	-3
0.02000	-3
0.02367	-3
0.02733	-4
0.03100	-5
0.03467	-5
0.03833	-6
0.04200	-6
0.04567	-6
0.04933	-7
0.05300	-7
0.05667	-7
0.06033	-7
0.06400	-7
0.06767	-8
0.07133	-8
0.07500	-9
0.07867	-10
0.08233	-10
0.08600	-11
0.08967	-11
0.09333	-12
0.09700	-12
0.10067	-12
0.10433	-13
0.10800	-13
0.11167	-13
0.11533	-13
0.11900	-14
0.12267	-14
0.12633	-15
0.13000	-15
0.13367	-16
0.13733	-17
0.14100	-17
0.14467	-18
0.14833	-18
0.15200	-19
0.15567	-19
0.15933	-20
0.16300	-20
0.16667	-21
0.17033	-21
0.17400	-22
0.17767	-22
0.18133	-23
0.18500	-23
0.18867	-24
0.19233	-24
0.19600	-24
0.19967	-25
0.20333	-25
0.20700	-25
0.21067	-26
0.21433	-26
0.21800	-27
0.22167	-27
0.22533	-27
0.22900	-27
0.23267	-28
0.23633	-28
0.24000	-28
0.24367	-28
0.24733	-28
0.25100	-28
0.25467	-28
0.25833	-28
0.26200	-29
0.26567	-29
0.26933	-29
0.27300	-29
0.27667	-29
0.28033	-30
0.28400	-31
0.28767	-31
0.29133	-32
0.29500	-32
0.29867	-32
0.30233	-32
0.30600	-33
0.30967	-33
0.31333	-33
0.31700	-33
0.32067	-34
0.32433	-34
0.32800	-35
0.33167	-35
0.33533	-36
0.33900	-36
0.34267	-36
0.34633	-36
0.35000	-37
0.35367	-37
0.35733	-37
0.36100	-38
0.36467	-38
0.36833	-39
0.37200	-39
0.37567	-40
0.37933	-40
0.38300	-40
0.38667	-40
0.39033	-41
0.39400	-41
0.39767	-41
0.40133	-42
0.40500	-42
0.40867	-42
0.41233	-43
0.41600	-43
0.41967	-44
0.42333	-44
0.42700	-44
0.43067	-44
0.43433	-44
0.43800	-45
0.44167	-45
0.44533	-45
0.44900	-46
0.45267	-46
0.45633	-46
0.46000	-46
0.46367	-46
0.46733	-47
0.47100	-47
0.47467	-47
0.47833	-48
0.48200	-48
0.48567	-49
0.48933	-49
0.49300	-49
0.49667	-49
0.50033	-50
0.50400	-50
0.50767	-50
0.51133	-51
0.51500	-51
0.51867	-52
0.52233	-53
0.52600	-53
0.52967	-54
0.53333	-55
0.53700	-55
0.54067	-56
0.54433	-56
0.54800	-56
0.55167	-56
0.55533	-56
0.55900	-57
0.56267	-57
0.56633	-57
0.57000	-57
0.57367	-58
0.57733	-58
0.58100	-58
0.58467	-58
0.58833	-59
0.59200	-59
0.59567	-60
0.59933	-60
0.60300	-60
0.60667	-61
0.61033	-61
0.61400	-61
0.61767	-62
0.62133	-62
0.62500	-63
0.62867	-63
0.63233	-63
0.63600	-63
0.63967	-63
0.64333	-63
0.64700	-63
0.65067	-63
0.65433	-63
0.65800	-63
0.66167	-63
0.66533	-63
0.66900	-63
0.67267	-63
0.67633	-64
0.68000	-64
0.68367	-65
0.68733	-65
0.69100	-66
0.69467	-67
0.69833	-67
0.70200	-68
0.70567	-69
0.70933	-69
0.71300	-69
0.71667	-70
0.72033	-70
0.72400	-71
0.72767	-71
0.73133	-72
0.73500	-72
0.73867	-72
0.74233	-72
0.74600	-72
0.74967	-72
0.75333	-72
0.75700	-72
0.76067	-72
0.76433	-72
0.76800	-73
0.77167	-73
0.77533	-73
0.77900	-73
0.78267	-73
0.78633	-73
0.79000	-73
0.79367	-74
0.79733	-74
0.80100	-74
0.80467	-74
0.80833	-74
0.81200	-75
0.81567	-75
0.81933	-75
0.82300	-76
0.82667	-76
0.83033	-77
0.83400	-77
0.83767	-77
0.84133	-78
0.84500	-78
0.84867	-78
0.85233	-79
0.85600	-79
0.85967	-80
0.86333	-80
0.86700	-81
0.87067	-81
0.87433	-82
0.87800	-82
0.88167	-82
0.88533	-83
0.88900	-83
0.89267	-84
0.89633	-85
0.90000	-86
0.90367	-86
0.90733	-86
0.91100	-87
0.91467	-87
0.91833	-87
0.92200	-87
0.92567	-87
0.92933	-87
0.93300	-87
0.93667	-88
0.94033	-88
0.94400	-88
0.94767	-88
0.95133	-88
0.95500	-89
0.95867	-89
0.96233	-89
0.96600	-90
0.96967	-90
0.97333	-90
0.97700	-91
0.98067	-91
0.98433	-91
0.98800	-92
0.99167	-92
0.99533	-93
0.99900	-93
1.00267	-94
1.00633	-94
1.01000	-94
1.01367	-95
1.01733	-95
1.02100	-95
1.02467	-95
1.02833	-94
1.03200	-94
1.03567	-94
1.03933	-94
1.04300	-94
1.04667	-94
1.05033	-94
1.05400	-94
1.05767	-94
1.06133	-95
1.06500	-95
1.06867	-95
1.07233	-95
1.07600	-96
1.07967	-96
1.08333	-97
1.08700	-97
1.09067	-98
1.09433	-98
1.09800	-99
1.10167	-100
1.10533	-100
1.10900	-101
1.11267	-101
1.11633	-102
1.12000	-102
1.12367	-103
1.12733	-103
1.13100	-103
1.13467	-104
1.13833	-104
1.14200	-104
1.14567	-104
1.14933	-105
1.15300	-105
1.15667	-105
1.16033	-105
1.16400	-105
1.16767	-105
1.17133	-106
1.17500	-106
1.17867	-106
1.18233	-106
1.18600	-107
1.18967	-107
1.19333	-107
1.19700	-107
1.20067	-107
1.20433	-107
1.20800	-107
1.21167	-107
1.21533	-108
1.21900	-108
1.22267	-108
1.22633	-108
1.23000	-108
1.23367	-108
1.23733	-108
1.24100	-108
1.24467	-109
1.24833	-109
1.25200	-109
1.25567	-110
1.25933	-110
1.26300	-110
1.26667	-111
1.27033	-111
1.27400	-111
1.27767	-112
1.28133	-112
1.28500	-112
1.28867	-112
1.29233	-113
1.29600	-113
1.29967	-113
1.30333	-114
1.30700	-115
1.31067	-116
1.31433	-117
1.31800	-117
1.32167	-118
1.32533	-118
1.32900	-119
1.33267	-119
1.33633	-119
1.34000	-120
1.34367	-120
1.34733	-120
1.35100	-120
1.35467	-120
1.35833	-120
1.36200	-120
1.36567	-120
1.36933	-120
1.37300	-121
1.37667	-121
1.38033	-121
1.38400	-122
1.38767	-122
1.39133	-123
1.39500	-123
1.39867	-124
1.40233	-124
1.40600	-124
1.40967	-124
1.41333	-124
1.41700	-124
1.42067	-124
1.42433	-124
1.42800	-125
1.43167	-125
1.43533	-125
1.43900	-125
1.44267	-125
1.44633	-125
1.45000	-125
1.45367	-125
1.45733	-126
1.46100	-126
1.46467	-126
1.46833	-127
1.47200	-127
1.47567	-127
1.47933	-127
1.48300	-127
1.48667	-127
1.49033	-127
1.49400	-127
1.49767	-127
1.50133	-127
1.50500	-127
1.50867	-127
1.51233	-127
1.51600	-127
1.51967	-127
1.52333	-128
1.52700	-128
1.53067	-128
1.53433	-129
1.53800	-129
1.54167	-130
1.54533	-130
1.54900	-130
1.55267	-131
1.55633	-131
1.56000	-132
1.56367	-132
1.56733	-132
1.57100	-132
1.57467	-132
1.57833	-133
1.58200	-133
1.58567	-133
1.58933	-134
1.59300	-135
1.59667	-135
1.60033	-137
1.60400	-138
1.60767	-140
1.61133	-142
1.61500	-144
1.61867	-147
1.62233	-150
1.62600	-154
1.62967	-157
1.63333	-161
1.63700	-165
1.64067	-169
1.64433	-173
1.64800	-177
1.65167	-181
1.65533	-185
1.65900	-189
1.66267	-193
1.66633	-198
1.67000	-203
1.67367	-208
1.67733	-213
1.68100	-218
1.68467	-222
1.68833	-225
1.69200	-228
1.69567	-231
1.69933	-234
1.70300	-236
1.70667	-239
1.71033	-241
1.71400	-243
1.71767	-245
1.72133	-246
1.72500	-247
1.72867	-248
1.73233	-248
1.73600	-249
1.73967	-249
1.74333	-249
1.74700	-249
1.75067	-249
1.75433	-250
1.75800	-251
1.76167	-252
1.76533	-253
1.76900	-255
1.77267	-256
1.77633	-257
1.78000	-258
1.78367	-258
1.78733	-259
1.79100	-259
1.79467	-259
1.79833	-259
1.80200	-259
1.80567	-258
1.80933	-257
1.81300	-257
1.81667	-258
1.82033	-258
1.82400	-259
1.82767	-260
1.83133	-261
1.83500	-262
1.83867	-262
1.84233	-262
1.84600	-262
1.84967	-262
1.85333	-262
1.85700	-263
1.86067	-263
1.86433	-264
1.86800	-264
1.87167	-265
1.87533	-265
1.87900	-265
1.88267	-264
1.88633	-264
1.89000	-263
1.89367	-263
1.89733	-263
1.90100	-263
1.90467	-263
1.90833	-263
1.91200	-263
1.91567	-263
1.91933	-264
1.92300	-264
1.92667	-265
1.93033	-265
1.93400	-265
1.93767	-265
1.94133	-265
1.94500	-265
1.94867	-264
1.95233	-264
1.95600	-264
1.95967	-263
1.96333	-263
1.96700	-263
1.97067	-263
1.97433	-263
1.97800	-263
1.98167	-263
1.98533	-264
1.98900	-264
1.99267	-264
1.99633	-264
2.00000	-264
2.00367	-264
2.00733	-263
2.01100	-263
2.01467	-263
2.01833	-264
2.02200	-264
2.02567	-264
2.02933	-263
2.03300	-263
2.03667	-263
2.04033	-263
2.04400	-263
2.04767	-264
2.05133	-264
2.05500	-264
2.05867	-264
2.06233	-264
2.06600	-264
2.06967	-263
2.07333	-263
2.07700	-263
2.08067	-263
2.08433	-263
2.08800	-263
2.09167	-263
2.09533	-262
2.09900	-262
2.10267	-262
2.10633	-262
2.11000	-262
2.11367	-262
2.11733	-262
2.12100	-263
2.12467	-263
2.12833	-263
2.13200	-263
2.13567	-264
2.13933	-264
2.14300	-264
2.14667	-263
2.15033	-263
2.15400	-262
2.15767	-262
2.16133	-262
2.16500	-261
2.16867	-261
2.17233	-260
2.17600	-260
2.17967	-260
2.18333	-259
2.18700	-259
2.19067	-259
2.19433	-259
2.19800	-259
2.20167	-258
2.20533	-258
2.20900	-258
2.21267	-258
2.21633	-258
2.22000	-258
2.22367	-258
2.22733	-258
2.23100	-258
2.23467	-258
2.23833	-258
2.24200	-257
2.24567	-257
2.24933	-257
2.25300	-257
2.25667	-257
2.26033	-257
2.26400	-257
2.26767	-257
2.27133	-258
2.27500	-258
2.27867	-258
2.28233	-258
2.28600	-257
2.28967	-257
2.29333	-256
2.29700	-256
2.30067	-256
2.30433	-257
2.30800	-257
2.31167	-257
2.31533	-256
2.31900	-256
2.32267	-256
2.32633	-255
2.33000	-255
2.33367	-254
2.33733	-254
2.34100	-254
2.34467	-254
2.34833	-254
2.35200	-254
2.35567	-253
2.35933	-253
2.36300	-252
2.36667	-251
2.37033	-250
2.37400	-248
2.37767	-246
2.38133	-243
2.38500	-240
2.38867	-236
2.39233	-232
2.39600	-228
2.39967	-223
2.40333	-219
2.40700	-215
2.41067	-211
2.41433	-208
2.41800	-204
2.42167	-201
2.42533	-199
2.42900	-197
2.43267	-195
2.43633	-194
2.44000	-194
2.44367	-194
2.44733	-193
2.45100	-192
2.45467	-191
2.45833	-190
2.46200	-189
2.46567	-188
2.46933	-188
2.47300	-187
2.47667	-187
2.48033	-186
2.48400	-186
2.48767	-185
2.49133	-184
2.49500	-183
2.49867	-182
2.50233	-181
2.50600	-180
2.50967	-179
2.51333	-179
2.51700	-178
2.52067	-178
2.52433	-177
2.52800	-176
2.53167	-176
2.53533	-175
2.53900	-175
2.54267	-175
2.54633	-175
2.55000	-175
2.55367	-174
2.55733	-174
2.56100	-173
2.56467	-172
2.56833	-172
2.57200	-172
2.57567	-172
2.57933	-172
2.58300	-172
2.58667	-172
2.59033	-172
2.59400	-172
2.59767	-172
2.60133	-172
2.60500	-172
2.60867	-172
2.61233	-172
2.61600	-172
2.61967	-172
2.62333	-172
2.62700	-172
2.63067	-172
2.63433	-171
2.63800	-171
2.64167	-172
2.64533	-172
2.64900	-172
2.65267	-172
2.65633	-171
2.66000	-171
2.66367	-172
2.66733	-172
2.67100	-172
2.67467	-173
2.67833	-173
2.68200	-173
2.68567	-174
2.68933	-174
2.69300	-174
2.69667	-174
2.70033	-174
2.70400	-174
2.70767	-174
2.71133	-175
2.71500	-175
2.71867	-175
2.72233	-175
2.72600	-175
2.72967	-175
2.73333	-174
2.73700	-174
2.74067	-174
2.74433	-174
2.74800	-174
2.75167	-174
2.75533	-174
2.75900	-174
2.76267	-173
2.76633	-173
2.77000	-173
2.77367	-173
2.77733	-173
2.78100	-173
2.78467	-173
2.78833	-173
2.79200	-174
2.79567	-174
2.79933	-175
2.80300	-175
2.80667	-175
2.81033	-175
2.81400	-175
2.81767	-176
2.82133	-176
2.82500	-176
2.82867	-176
2.83233	-177
2.83600	-177
2.83967	-178
2.84333	-179
2.84700	-182
2.85067	-187
2.85433	-195
2.85800	-205
2.86167	-220
2.86533	-240
2.86900	-264
2.87267	-294
2.87633	-330
2.88000	-372
2.88367	-419
2.88733	-471
2.89100	-529
2.89467	-592
2.89833	-659
2.90200	-730
2.90567	-805
2.90933	-884
2.91300	-965
2.91667	-1049
2.92033	-1137
2.92400	-1226
2.92767	-1318
2.93133	-1412
2.93500	-1508
2.93867	-1603
2.94233	-1687
2.94600	-1748
2.94967	-1774
2.95333	-1763
2.95700	-1718
2.96067	-1644
2.96433	-1549
2.96800	-1442
2.97167	-1329
2.97533	-1215
2.97900	-1105
2.98267	-1001
2.98633	-904
2.99000	-816
2.99367	-737
2.99733	-666
3.00100	-603
3.00467	-548
3.00833	-500
3.01200	-458
3.01567	-421
3.01933	-390
3.02300	-362
3.02667	-339
3.03033	-319
3.03400	-302
3.03767	-288
3.04133	-275
3.04500	-265
3.04867	-256
3.05233	-248
3.05600	-241
3.05967	-236
3.06333	-231
3.06700	-227
3.07067	-223
3.07433	-220
3.07800	-218
3.08167	-215
3.08533	-214
3.08900	-212
3.09267	-211
3.09633	-209
3.10000	-208
3.10367	-208
3.10733	-207
3.11100	-206
3.11467	-206
3.11833	-205
3.12200	-205
3.12567	-204
3.12933	-204
3.13300	-203
3.13667	-203
3.14033	-202
3.14400	-202
3.14767	-202
3.15133	-202
3.15500	-202
3.15867	-202
3.16233	-202
3.16600	-202
3.16967	-201
3.17333	-201
3.17700	-201
3.18067	-201
3.18433	-200
3.18800	-200
3.19167	-200
3.19533	-200
3.19900	-200
3.20267	-200
3.20633	-200
3.21000	-199
3.21367	-199
3.21733	-200
3.22100	-200
3.22467	-200
3.22833	-201
3.23200	-201
3.23567	-202
3.23933	-202
3.24300	-203
3.24667	-203
3.25033	-203
3.25400	-203
3.25767	-202
3.26133	-202
3.26500	-201
3.26867	-200
3.27233	-200
3.27600	-199
3.27967	-199
3.28333	-198
3.28700	-198
3.29067	-198
3.29433	-198
3.29800	-197
3.30167	-197
3.30533	-197
3.30900	-196
3.31267	-196
3.31633	-196
3.32000	-196
3.32367	-195
3.32733	-195
3.33100	-195
3.33467	-195
3.33833	-195
3.34200	-195
3.34567	-195
3.34933	-195
3.35300	-195
3.35667	-195
3.36033	-195
3.36400	-195
3.36767	-195
3.37133	-195
3.37500	-196
3.37867	-196
3.38233	-196
3.38600	-196
3.38967	-196
3.39333	-197
3.39700	-197
3.40067	-197
3.40433	-197
3.40800	-198
3.41167	-198
3.41533	-198
3.41900	-198
3.42267	-199
3.42633	-199
3.43000	-200
3.43367	-200
3.43733	-201
3.44100	-201
3.44467	-202
3.44833	-202
3.45200	-203
3.45567	-203
3.45933	-203
3.46300	-203
3.46667	-204
3.47033	-204
3.47400	-204
3.47767	-204
3.48133	-204
3.48500	-204
3.48867	-204
3.49233	-204
3.49600	-204
3.49967	-204
3.50333	-204
3.50700	-204
3.51067	-204
3.51433	-204
3.51800	-204
3.52167	-205
3.52533	-205
3.52900	-205
3.53267	-205
3.53633	-205
3.54000	-205
3.54367	-205
3.54733	-205
3.55100	-205
3.55467	-205
3.55833	-206
3.56200	-206
3.56567	-206
3.56933	-206
3.57300	-206
3.57667	-207
3.58033	-207
3.58400	-207
3.58767	-207
3.59133	-207
3.59500	-207
3.59867	-208
3.60233	-208
3.60600	-208
3.60967	-209
3.61333	-209
3.61700	-209
3.62067	-209
3.62433	-209
3.62800	-209
3.63167	-209
3.63533	-209
3.63900	-209
3.64267	-209
3.64633	-209
3.65000	-209
3.65367	-210
3.65733	-210
3.66100	-210
3.66467	-210
3.66833	-210
3.67200	-210
3.67567	-210
3.67933	-210
3.68300	-211
3.68667	-211
3.69033	-211
3.69400	-211
3.69767	-211
3.70133	-211
3.70500	-211
3.70867	-212
3.71233	-212
3.71600	-212
3.71967	-213
3.72333	-213
3.72700	-213
3.73067	-213
3.73433	-213
3.73800	-213
3.74167	-214
3.74533	-214
3.74900	-214
3.75267	-214
3.75633	-214
3.76000	-214
3.76367	-214
3.76733	-214
3.77100	-215
3.77467	-215
3.77833	-215
3.78200	-215
3.78567	-215
3.78933	-215
3.79300	-215
3.79667	-215
3.80033	-215
3.80400	-215
3.80767	-215
3.81133	-215
3.81500	-215
3.81867	-215
3.82233	-215
3.82600	-215
3.82967	-215
3.83333	-215
3.83700	-216
3.84067	-216
3.84433	-216
3.84800	-216
3.85167	-216
3.85533	-217
3.85900	-217
3.86267	-217
3.86633	-217
3.87000	-217
3.87367	-217
3.87733	-217
3.88100	-217
3.88467	-217
3.88833	-217
3.89200	-217
3.89567	-217
3.89933	-217
3.90300	-217
3.90667	-216
3.91033	-216
3.91400	-216
3.91767	-216
3.92133	-216
3.92500	-217
3.92867	-217
3.93233	-217
3.93600	-218
3.93967	-218
3.94333	-219
3.94700	-219
3.95067	-219
3.95433	-220
3.95800	-220
3.96167	-220
3.96533	-220
3.96900	-220
3.97267	-220
3.97633	-220
3.98000	-220
3.98367	-220
3.98733	-221
3.99100	-221
3.99467	-221
3.99833	-221

[Chromatogram (Ch3)]
Interval(msec)	220
# of Points	1091
Start Time(min)	0.002
End Time(min)	3.998
R.Time (min)	Intensity
0.00167	-0
0.00533	0
0.00900	-0
0.01267	0
0.01633	1
0.02000	1
0.02367	0
0.02733	-1
0.03100	0
0.03467	-1
0.03833	-3
0.04200	-5
0.04567	-6
0.04933	-7
0.05300	-5
0.05667	-5
0.06033	-5
0.06400	-4
0.06767	-5
0.07133	-6
0.07500	-6
0.07867	-6
0.08233	-4
0.08600	-2
0.08967	-0
0.09333	1
0.09700	1
0.10067	-0
0.10433	-0
0.10800	-2
0.11167	-5
0.11533	-6
0.11900	-4
0.12267	-3
0.12633	-3
0.13000	-3
0.13367	-2
0.13733	-1
0.14100	-1
0.14467	-3
0.14833	-3
0.15200	-2
0.15567	-4
0.15933	-4
0.16300	-3
0.16667	-2
0.17033	-3
0.17400	-2
0.17767	-2
0.18133	-2
0.18500	-3
0.18867	-2
0.19233	-0
0.19600	0
0.19967	0
0.20333	0
0.20700	-1
0.21067	-2
0.21433	-2
0.21800	-4
0.22167	-4
0.22533	-4
0.22900	-4
0.23267	-3
0.23633	-1
0.24000	1
0.24367	2
0.24733	3
0.25100	2
0.25467	2
0.25833	3
0.26200	2
0.26567	1
0.26933	1
0.27300	2
0.27667	3
0.28033	4
0.28400	4
0.28767	4
0.29133	2
0.29500	-0
0.29867	0
0.30233	2
0.30600	3
0.30967	1
0.31333	-1
0.31700	-3
0.32067	-3
0.32433	-3
0.32800	-4
0.33167	-3
0.33533	-2
0.33900	-2
0.34267	-3
0.34633	-3
0.35000	-4
0.35367	-2
0.35733	-0
0.36100	1
0.36467	-1
0.36833	-2
0.37200	-2
0.37567	-4
0.37933	-5
0.38300	-6
0.38667	-5
0.39033	-1
0.39400	2
0.39767	1
0.40133	-1
0.40500	-4
0.40867	-5
0.41233	-5
0.41600	-4
0.41967	-3
0.42333	-2
0.42700	-1
0.43067	-2
0.43433	-1
0.43800	-2
0.44167	-4
0.44533	-6
0.44900	-6
0.45267	-6
0.45633	-6
0.46000	-5
0.46367	-3
0.46733	-2
0.47100	-1
0.47467	-1
0.47833	-3
0.48200	-5
0.48567	-7
0.48933	-6
0.49300	-4
0.49667	-2
0.50033	-0
0.50400	-0
0.50767	-1
0.51133	-2
0.51500	-2
0.51867	-3
0.52233	-2
0.52600	0
0.52967	2
0.53333	3
0.53700	3
0.54067	1
0.54433	-2
0.54800	-3
0.55167	-4
0.55533	-5
0.55900	-5
0.56267	-5
0.56633	-5
0.57000	-4
0.57367	-4
0.57733	-4
0.58100	-5
0.58467	-5
0.58833	-4
0.59200	-4
0.59567	-4
0.59933	-4
0.60300	-5
0.60667	-6
0.61033	-7
0.61400	-7
0.61767	-6
0.62133	-5
0.62500	-5
0.62867	-6
0.63233	-6
0.63600	-6
0.63967	-5
0.64333	-6
0.64700	-6
0.65067	-7
0.65433	-8
0.65800	-7
0.66167	-6
0.66533	-5
0.66900	-4
0.67267	-2
0.67633	-3
0.68000	-3
0.68367	-4
0.68733	-4
0.69100	-3
0.69467	-3
0.69833	-5
0.70200	-8
0.70567	-10
0.70933	-10
0.71300	-8
0.71667	-6
0.72033	-5
0.72400	-5
0.72767	-3
0.73133	-1
0.73500	1
0.73867	2
0.74233	1
0.74600	1
0.74967	-1
0.75333	-4
0.75700	-6
0.76067	-6
0.76433	-6
0.76800	-5
0.77167	-3
0.77533	-1
0.77900	-0
0.78267	1
0.78633	-2
0.79000	-4
0.79367	-2
0.79733	-3
0.80100	-2
0.80467	1
0.80833	1
0.81200	2
0.81567	4
0.81933	3
0.82300	2
0.82667	-1
0.83033	-2
0.83400	-0
0.83767	1
0.84133	-1
0.84500	-2
0.84867	-4
0.85233	-4
0.85600	-3
0.85967	-2
0.86333	-3
0.86700	-3
0.87067	-4
0.87433	-3
0.87800	-1
0.88167	-0
0.88533	0
0.88900	-2
0.89267	-4
0.89633	-5
0.90000	-6
0.90367	-8
0.90733	-8
0.91100	-9
0.91467	-9
0.91833	-7
0.92200	-7
0.92567	-5
0.92933	-4
0.93300	-2
0.93667	-1
0.94033	-2
0.94400	-3
0.94767	-4
0.95133	-5
0.95500	-4
0.95867	-1
0.96233	-1
0.96600	-4
0.96967	-5
0.97333	-6
0.97700	-7
0.98067	-7
0.98433	-3
0.98800	0
0.99167	0
0.99533	1
0.99900	1
1.00267	0
1.00633	-0
1.01000	-1
1.01367	-1
1.01733	-1
1.02100	-1
1.02467	-1
1.02833	-0
1.03200	1
1.03567	3
1.03933	2
1.04300	2
1.04667	1
1.05033	-0
1.05400	0
1.05767	3
1.06133	4
1.06500	5
1.06867	4
1.07233	4
1.07600	5
1.07967	7
1.08333	7
1.08700	6
1.09067	6
1.09433	5
1.09800	5
1.10167	6
1.10533	6
1.10900	4
1.11267	2
1.11633	3
1.12000	5
1.12367	5
1.12733	4
1.13100	4
1.13467	5
1.13833	5
1.14200	4
1.14567	3
1.14933	4
1.15300	4
1.15667	4
1.16033	4
1.16400	5
1.16767	6
1.17133	5
1.17500	7
1.17867	7
1.18233	5
1.18600	4
1.18967	4
1.19333	5
1.19700	7
1.20067	6
1.20433	6
1.20800	7
1.21167	6
1.21533	3
1.21900	0
1.22267	-1
1.22633	1
1.23000	4
1.23367	4
1.23733	4
1.24100	3
1.24467	1
1.24833	1
1.25200	1
1.25567	1
1.25933	3
1.26300	5
1.26667	4
1.27033	3
1.27400	1
1.27767	2
1.28133	3
1.28500	4
1.28867	4
1.29233	4
1.29600	4
1.29967	5
1.30333	7
1.30700	7
1.31067	8
1.31433	9
1.31800	9
1.32167	8
1.32533	9
1.32900	9
1.33267	11
1.33633	11
1.34000	12
1.34367	10
1.34733	7
1.35100	5
1.35467	4
1.35833	3
1.36200	4
1.36567	4
1.36933	4
1.37300	4
1.37667	5
1.38033	6
1.38400	7
1.38767	8
1.39133	7
1.39500	5
1.39867	3
1.40233	1
1.40600	-1
1.40967	-0
1.41333	2
1.41700	4
1.42067	3
1.42433	3
1.42800	5
1.43167	7
1.43533	8
1.43900	9
1.44267	8
1.44633	7
1.45000	6
1.45367	8
1.45733	12
1.46100	12
1.46467	10
1.46833	8
1.47200	7
1.47567	7
1.47933	9
1.48300	9
1.48667	9
1.49033	12
1.49400	13
1.49767	14
1.50133	11
1.50500	10
1.50867	11
1.51233	11
1.51600	11
1.51967	10
1.52333	10
1.52700	11
1.53067	12
1.53433	11
1.53800	10
1.54167	11
1.54533	11
1.54900	11
1.55267	8
1.55633	5
1.56000	3
1.56367	2
1.56733	4
1.57100	5
1.57467	6
1.57833	6
1.58200	5
1.58567	4
1.58933	2
1.59300	0
1.59667	2
1.60033	5
1.60400	4
1.60767	4
1.61133	5
1.61500	4
1.61867	2
1.62233	1
1.62600	2
1.62967	4
1.63333	5
1.63700	6
1.64067	9
1.64433	11
1.64800	11
1.65167	13
1.65533	14
1.65900	14
1.66267	14
1.66633	13
1.67000	11
1.67367	11
1.67733	11
1.68100	12
1.68467	14
1.68833	16
1.69200	16
1.69567	16
1.69933	15
1.70300	16
1.70667	18
1.71033	20
1.71400	20
1.71767	18
1.72133	19
1.72500	19
1.72867	19
1.73233	18
1.73600	16
1.73967	15
1.74333	15
1.74700	17
1.75067	18
1.75433	18
1.75800	20
1.76167	21
1.76533	23
1.76900	25
1.77267	25
1.77633	22
1.78000	19
1.78367	17
1.78733	17
1.79100	18
1.79467	21
1.79833	23
1.80200	24
1.80567	25
1.80933	26
1.81300	27
1.81667	29
1.82033	29
1.82400	29
1.82767	30
1.83133	29
1.83500	31
1.83867	31
1.84233	30
1.84600	32
1.84967	34
1.85333	36
1.85700	36
1.86067	36
1.86433	38
1.86800	38
1.87167	39
1.87533	40
1.87900	39
1.88267	38
1.88633	37
1.89000	38
1.89367	39
1.89733	40
1.90100	39
1.90467	40
1.90833	40
1.91200	41
1.91567	43
1.91933	45
1.92300	46
1.92667	48
1.93033	48
1.93400	51
1.93767	52
1.94133	52
1.94500	54
1.94867	56
1.95233	57
1.95600	58
1.95967	57
1.96333	57
1.96700	56
1.97067	56
1.97433	59
1.97800	61
1.98167	62
1.98533	64
1.98900	65
1.99267	65
1.99633	66
2.00000	68
2.00367	69
2.00733	69
2.01100	70
2.01467	69
2.01833	70
2.02200	72
2.02567	73
2.02933	74
2.03300	75
2.03667	74
2.04033	77
2.04400	80
2.04767	80
2.05133	81
2.05500	81
2.05867	80
2.06233	80
2.06600	80
2.06967	82
2.07333	84
2.07700	87
2.08067	89
2.08433	91
2.08800	91
2.09167	90
2.09533	90
2.09900	89
2.10267	90
2.10633	93
2.11000	97
2.11367	98
2.11733	100
2.12100	102
2.12467	104
2.12833	104
2.13200	107
2.13567	109
2.13933	110
2.14300	110
2.14667	112
2.15033	115
2.15400	116
2.15767	116
2.16133	117
2.16500	119
2.16867	120
2.17233	122
2.17600	124
2.17967	126
2.18333	125
2.18700	125
2.19067	124
2.19433	124
2.19800	125
2.20167	127
2.20533	128
2.20900	131
2.21267	131
2.21633	131
2.22000	132
2.22367	134
2.22733	133
2.23100	134
2.23467	137
2.23833	138
2.24200	139
2.24567	140
2.24933	141
2.25300	144
2.25667	146
2.26033	146
2.26400	146
2.26767	145
2.27133	143
2.27500	143
2.27867	145
2.28233	148
2.28600	150
2.28967	149
2.29333	150
2.29700	150
2.30067	151
2.30433	152
2.30800	153
2.31167	153
2.31533	153
2.31900	154
2.32267	154
2.32633	154
2.33000	155
2.33367	156
2.33733	157
2.34100	157
2.34467	160
2.34833	161
2.35200	162
2.35567	163
2.35933	165
2.36300	167
2.36667	169
2.37033	170
2.37400	169
2.37767	168
2.38133	168
2.38500	166
2.38867	163
2.39233	165
2.39600	167
2.39967	167
2.40333	169
2.40700	169
2.41067	169
2.41433	170
2.41800	172
2.42167	174
2.42533	176
2.42900	177
2.43267	176
2.43633	173
2.44000	173
2.44367	208
2.44733	305
2.45100	418
2.45467	510
2.45833	556
2.46200	558
2.46567	543
2.46933	533
2.47300	529
2.47667	518
2.48033	495
2.48400	459
2.48767	421
2.49133	388
2.49500	361
2.49867	340
2.50233	328
2.50600	327
2.50967	333
2.51333	344
2.51700	357
2.52067	367
2.52433	367
2.52800	357
2.53167	341
2.53533	321
2.53900	297
2.54267	272
2.54633	253
2.55000	239
2.55367	227
2.55733	217
2.56100	210
2.56467	207
2.56833	206
2.57200	204
2.57567	201
2.57933	201
2.58300	202
2.58667	205
2.59033	211
2.59400	218
2.59767	225
2.60133	231
2.60500	236
2.60867	236
2.61233	231
2.61600	223
2.61967	213
2.62333	197
2.62700	177
2.63067	157
2.63433	138
2.63800	123
2.64167	110
2.64533	96
2.64900	83
2.65267	74
2.65633	66
2.66000	56
2.66367	51
2.66733	49
2.67100	49
2.67467	49
2.67833	49
2.68200	49
2.68567	51
2.68933	54
2.69300	58
2.69667	62
2.70033	66
2.70400	70
2.70767	75
2.71133	82
2.71500	87
2.71867	89
2.72233	92
2.72600	96
2.72967	98
2.73333	99
2.73700	101
2.74067	103
2.74433	107
2.74800	112
2.75167	116
2.75533	118
2.75900	121
2.76267	122
2.76633	124
2.77000	127
2.77367	131
2.77733	134
2.78100	136
2.78467	136
2.78833	137
2.79200	140
2.79567	144
2.79933	148
2.80300	153
2.80667	157
2.81033	159
2.81400	161
2.81767	167
2.82133	185
2.82500	229
2.82867	320
2.83233	501
2.83600	834
2.83967	1389
2.84333	2220
2.84700	3356
2.85067	4784
2.85433	6445
2.85800	8239
2.86167	10033
2.86533	11692
2.86900	13088
2.87267	14116
2.87633	14718
2.88000	14893
2.88367	14682
2.88733	14151
2.89100	13378
2.89467	12446
2.89833	11426
2.90200	10379
2.90567	9347
2.90933	8364
2.91300	7444
2.91667	6592
2.92033	5817
2.92400	5118
2.92767	4491
2.93133	3934
2.93500	3443
2.93867	3011
2.94233	2631
2.94600	2299
2.94967	2010
2.95333	1754
2.95700	1534
2.96067	1343
2.96433	1175
2.96800	1031
2.97167	907
2.97533	802
2.97900	709
2.98267	628
2.98633	560
2.99000	504
2.99367	455
2.99733	412
3.00100	374
3.00467	342
3.00833	313
3.01200	290
3.01567	268
3.01933	250
3.02300	232
3.02667	218
3.03033	205
3.03400	198
3.03767	191
3.04133	186
3.04500	182
3.04867	178
3.05233	174
3.05600	169
3.05967	164
3.06333	161
3.06700	158
3.07067	156
3.07433	157
3.07800	157
3.08167	154
3.08533	150
3.08900	147
3.09267	147
3.09633	146
3.10000	146
3.10367	148
3.10733	151
3.11100	153
3.11467	153
3.11833	153
3.12200	151
3.12567	149
3.12933	148
3.13300	148
3.13667	150
3.14033	151
3.14400	152
3.14767	153
3.15133	151
3.15500	150
3.15867	151
3.16233	153
3.16600	153
3.16967	154
3.17333	156
3.17700	157
3.18067	159
3.18433	159
3.18800	159
3.19167	160
3.19533	163
3.19900	166
3.20267	167
3.20633	167
3.21000	166
3.21367	167
3.21733	168
3.22100	170
3.22467	173
3.22833	176
3.23200	177
3.23567	176
3.23933	177
3.24300	180
3.24667	184
3.25033	185
3.25400	187
3.25767	188
3.26133	190
3.26500	191
3.26867	192
3.27233	192
3.27600	193
3.27967	194
3.28333	195
3.28700	198
3.29067	200
3.29433	202
3.29800	203
3.30167	204
3.30533	204
3.30900	205
3.31267	206
3.31633	209
3.32000	211
3.32367	212
3.32733	213
3.33100	215
3.33467	215
3.33833	215
3.34200	214
3.34567	214
3.34933	213
3.35300	214
3.35667	215
3.36033	218
3.36400	221
3.36767	224
3.37133	225
3.37500	225
3.37867	225
3.38233	224
3.38600	224
3.38967	225
3.39333	226
3.39700	226
3.40067	226
3.40433	226
3.40800	226
3.41167	224
3.41533	224
3.41900	226
3.42267	228
3.42633	230
3.43000	232
3.43367	233
3.43733	234
3.44100	234
3.44467	234
3.44833	234
3.45200	235
3.45567	235
3.45933	238
3.46300	241
3.46667	240
3.47033	239
3.47400	238
3.47767	237
3.48133	237
3.48500	238
3.48867	237
3.49233	234
3.49600	232
3.49967	230
3.50333	228
3.50700	229
3.51067	231
3.51433	232
3.51800	232
3.52167	232
3.52533	234
3.52900	235
3.53267	235
3.53633	235
3.54000	233
3.54367	231
3.54733	232
3.55100	234
3.55467	232
3.55833	229
3.56200	229
3.56567	229
3.56933	229
3.57300	228
3.57667	228
3.58033	226
3.58400	225
3.58767	225
3.59133	226
3.59500	227
3.59867	228
3.60233	228
3.60600	225
3.60967	223
3.61333	223
3.61700	226
3.62067	227
3.62433	228
3.62800	227
3.63167	226
3.63533	226
3.63900	227
3.64267	225
3.64633	222
3.65000	222
3.65367	223
3.65733	221
3.66100	221
3.66467	221
3.66833	220
3.67200	218
3.67567	219
3.67933	219
3.68300	219
3.68667	218
3.69033	219
3.69400	222
3.69767	222
3.70133	222
3.70500	223
3.70867	223
3.71233	223
3.71600	223
3.71967	221
3.72333	220
3.72700	219
3.73067	215
3.73433	210
3.73800	206
3.74167	208
3.74533	216
3.74900	227
3.75267	243
3.75633	262
3.76000	283
3.76367	304
3.76733	325
3.77100	346
3.77467	365
3.77833	383
3.78200	399
3.78567	414
3.78933	426
3.79300	438
3.79667	451
3.80033	465
3.80400	478
3.80767	491
3.81133	503
3.81500	517
3.81867	527
3.82233	535
3.82600	541
3.82967	549
3.83333	553
3.83700	556
3.84067	559
3.84433	562
3.84800	565
3.85167	569
3.85533	571
3.85900	573
3.86267	576
3.86633	579
3.87000	582
3.87367	583
3.87733	583
3.88100	582
3.88467	582
3.88833	582
3.89200	582
3.89567	580
3.89933	580
3.90300	578
3.90667	578
3.91033	581
3.91400	584
3.91767	587
3.92133	589
3.92500	589
3.92867	587
3.93233	587
3.93600	585
3.93967	582
3.94333	581
3.94700	580
3.95067	578
3.95433	575
3.95800	574
3.96167	574
3.96533	576
3.96900	576
3.97267	574
3.97633	571
3.98000	568
3.98367	565
3.98733	564
3.99100	562
3.99467	561
3.99833	557

[Status Trace (Column Oven Temperature)]
Interval(msec)	1000
# of Points	240
Start Time(min)	0.010
End Time(min)	3.993
Intensity Units	
Intensity Multiplier	1
R.Time (min)	Intensity
0.00963	34.99
0.02630	34.99
0.04297	34.98
0.05963	34.98
0.07630	34.98
0.09297	35.00
0.10963	34.99
0.12630	34.99
0.14297	35.00
0.15963	35.00
0.17630	35.01
0.19297	35.02
0.20963	35.02
0.22630	35.02
0.24297	35.01
0.25963	35.01
0.27630	35.01
0.29297	35.01
0.30963	35.00
0.32630	35.01
0.34297	35.00
0.35963	35.00
0.37630	35.00
0.39297	35.01
0.40963	35.02
0.42630	35.01
0.44297	35.00
0.45963	35.00
0.47630	35.00
0.49297	34.99
0.50963	35.00
0.52630	35.01
0.54297	35.02
0.55963	35.02
0.57630	35.02
0.59297	35.02
0.60963	35.02
0.62630	35.03
0.64297	35.02
0.65963	35.01
0.67630	35.01
0.69297	35.02
0.70963	35.02
0.72630	35.02
0.74297	35.02
0.75963	35.01
0.77630	35.00
0.79297	35.00
0.80963	34.99
0.82630	34.98
0.84297	34.98
0.85963	34.98
0.87630	34.98
0.89297	35.00
0.90963	35.01
0.92630	35.01
0.94297	35.01
0.95963	35.01
0.97630	35.00
0.99297	35.00
1.00963	35.01
1.02630	34.99
1.04297	34.98
1.05963	34.98
1.07630	34.99
1.09297	34.99
1.10963	35.00
1.12630	35.00
1.14297	35.00
1.15963	35.01
1.17630	35.00
1.19297	34.99
1.20963	34.99
1.22630	34.98
1.24297	34.96
1.25963	34.97
1.27630	34.97
1.29297	34.97
1.30963	34.99
1.32630	35.00
1.34297	35.00
1.35963	35.00
1.37630	35.01
1.39297	35.01
1.40963	35.01
1.42630	35.01
1.44297	35.02
1.45963	35.01
1.47630	35.01
1.49297	35.00
1.50963	34.99
1.52630	34.98
1.54297	34.96
1.55963	34.95
1.57630	34.95
1.59297	34.97
1.60963	35.04
1.62630	35.19
1.64297	35.40
1.65963	35.67
1.67630	36.03
1.69297	36.37
1.70963	36.72
1.72630	37.06
1.74297	37.37
1.75963	37.71
1.77630	38.05
1.79297	38.38
1.80963	38.69
1.82630	39.04
1.84297	39.37
1.85963	39.70
1.87630	40.03
1.89297	40.36
1.90963	40.68
1.92630	41.01
1.94297	41.33
1.95963	41.65
1.97630	41.98
1.99297	42.31
2.00963	42.63
2.02630	42.94
2.04297	43.28
2.05963	43.60
2.07630	43.95
2.09297	44.26
2.10963	44.60
2.12630	44.93
2.14297	45.26
2.15963	45.58
2.17630	45.91
2.19297	46.23
2.20963	46.56
2.22630	46.90
2.24297	47.21
2.25963	47.55
2.27630	47.90
2.29297	48.21
2.30963	48.55
2.32630	48.87
2.34297	49.18
2.35963	49.47
2.37630	49.67
2.39297	49.73
2.40963	49.75
2.42630	49.74
2.44297	49.77
2.45963	49.76
2.47630	49.78
2.49297	49.79
2.50963	49.81
2.52630	49.80
2.54297	49.81
2.55963	49.81
2.57630	49.81
2.59297	49.81
2.60963	49.82
2.62630	49.82
2.64297	49.83
2.65963	49.83
2.67630	49.85
2.69297	49.85
2.70963	49.87
2.72630	49.87
2.74297	49.86
2.75963	49.85
2.77630	49.85
2.79297	49.85
2.80963	49.86
2.82630	49.86
2.84297	49.87
2.85963	49.88
2.87630	49.91
2.89297	49.92
2.90963	49.93
2.92630	49.96
2.94297	49.98
2.95963	50.00
2.97630	50.02
2.99297	50.03
3.00963	50.04
3.02630	50.04
3.04297	50.04
3.05963	50.03
3.07630	50.04
3.09297	50.04
3.10963	50.05
3.12630	50.04
3.14297	50.06
3.15963	50.06
3.17630	50.07
3.19297	50.08
3.20963	50.08
3.22630	50.11
3.24297	50.12
3.25963	50.12
3.27630	50.12
3.29297	50.11
3.30963	50.09
3.32630	50.06
3.34297	50.04
3.35963	50.02
3.37630	50.00
3.39297	49.99
3.40963	49.98
3.42630	49.99
3.44297	49.99
3.45963	49.99
3.47630	49.99
3.49297	49.99
3.50963	49.99
3.52630	49.99
3.54297	49.98
3.55963	49.99
3.57630	50.00
3.59297	50.00
3.60963	50.01
3.62630	50.01
3.64297	50.01
3.65963	50.02
3.67630	50.03
3.69297	50.03
3.70963	50.04
3.72630	50.05
3.74297	50.07
3.75963	50.07
3.77630	50.07
3.79297	50.07
3.80963	50.06
3.82630	50.06
3.84297	50.06
3.85963	50.06
3.87630	50.06
3.89297	50.06
3.90963	50.05
3.92630	50.06
3.94297	50.07
3.95963	50.07
3.97630	50.08
3.99297	50.07

[Status Trace (Injection Unit Temperature)]
Interval(msec)	1000
# of Points	240
Start Time(min)	0.010
End Time(min)	3.993
Intensity Units	
Intensity Multiplier	1
R.Time (min)	Intensity
0.00963	99.98
0.02630	99.98
0.04297	99.98
0.05963	99.98
0.07630	99.98
0.09297	99.98
0.10963	99.98
0.12630	99.98
0.14297	99.98
0.15963	99.98
0.17630	99.98
0.19297	99.98
0.20963	99.98
0.22630	99.98
0.24297	99.98
0.25963	99.99
0.27630	99.99
0.29297	99.99
0.30963	99.99
0.32630	99.99
0.34297	99.99
0.35963	99.99
0.37630	99.99
0.39297	99.99
0.40963	99.99
0.42630	99.99
0.44297	99.99
0.45963	99.98
0.47630	99.98
0.49297	99.99
0.50963	99.99
0.52630	99.99
0.54297	99.99
0.55963	99.99
0.57630	99.99
0.59297	99.99
0.60963	99.99
0.62630	99.99
0.64297	99.99
0.65963	99.99
0.67630	99.98
0.69297	99.99
0.70963	99.99
0.72630	99.98
0.74297	99.99
0.75963	99.98
0.77630	99.98
0.79297	99.98
0.80963	99.98
0.82630	99.98
0.84297	99.99
0.85963	99.98
0.87630	99.98
0.89297	99.98
0.90963	99.98
0.92630	99.98
0.94297	99.98
0.95963	99.98
0.97630	99.98
0.99297	99.98
1.00963	99.98
1.02630	99.98
1.04297	99.98
1.05963	99.98
1.07630	99.98
1.09297	99.97
1.10963	99.98
1.12630	99.98
1.14297	99.98
1.15963	99.98
1.17630	99.98
1.19297	99.98
1.20963	99.98
1.22630	99.98
1.24297	99.98
1.25963	99.98
1.27630	99.98
1.29297	99.98
1.30963	99.98
1.32630	99.98
1.34297	99.98
1.35963	99.98
1.37630	99.98
1.39297	99.98
1.40963	99.98
1.42630	99.98
1.44297	99.98
1.45963	99.98
1.47630	99.98
1.49297	99.98
1.50963	99.98
1.52630	99.98
1.54297	99.98
1.55963	99.98
1.57630	99.98
1.59297	99.98
1.60963	99.98
1.62630	99.98
1.64297	99.98
1.65963	99.98
1.67630	99.98
1.69297	99.99
1.70963	99.98
1.72630	99.98
1.74297	99.99
1.75963	99.98
1.77630	99.99
1.79297	99.99
1.80963	99.98
1.82630	99.98
1.84297	99.98
1.85963	99.98
1.87630	99.98
1.89297	99.99
1.90963	99.98
1.92630	99.98
1.94297	99.98
1.95963	99.98
1.97630	99.98
1.99297	99.98
2.00963	99.98
2.02630	99.98
2.04297	99.98
2.05963	99.98
2.07630	99.98
2.09297	99.98
2.10963	99.98
2.12630	99.98
2.14297	99.98
2.15963	99.98
2.17630	99.98
2.19297	99.97
2.20963	99.97
2.22630	99.97
2.24297	99.98
2.25963	99.98
2.27630	99.97
2.29297	99.97
2.30963	99.97
2.32630	99.97
2.34297	99.97
2.35963	99.97
2.37630	99.97
2.39297	99.97
2.40963	99.98
2.42630	99.97
2.44297	99.97
2.45963	99.98
2.47630	99.97
2.49297	99.97
2.50963	99.98
2.52630	99.97
2.54297	99.98
2.55963	99.98
2.57630	99.98
2.59297	99.98
2.60963	99.98
2.62630	99.98
2.64297	99.98
2.65963	99.98
2.67630	99.98
2.69297	99.98
2.70963	99.98
2.72630	99.99
2.74297	99.99
2.75963	99.99
2.77630	99.99
2.79297	99.99
2.80963	99.99
2.82630	99.99
2.84297	99.99
2.85963	100.00
2.87630	100.00
2.89297	100.00
2.90963	100.00
2.92630	100.00
2.94297	100.00
2.95963	100.01
2.97630	100.01
2.99297	100.00
3.00963	100.01
3.02630	100.01
3.04297	100.01
3.05963	100.01
3.07630	100.01
3.09297	100.01
3.10963	100.02
3.12630	100.01
3.14297	100.02
3.15963	100.02
3.17630	100.02
3.19297	100.02
3.20963	100.02
3.22630	100.02
3.24297	100.02
3.25963	100.02
3.27630	100.02
3.29297	100.02
3.30963	100.02
3.32630	100.03
3.34297	100.03
3.35963	100.03
3.37630	100.02
3.39297	100.03
3.40963	100.02
3.42630	100.03
3.44297	100.03
3.45963	100.03
3.47630	100.03
3.49297	100.03
3.50963	100.03
3.52630	100.03
3.54297	100.03
3.55963	100.04
3.57630	100.04
3.59297	100.04
3.60963	100.04
3.62630	100.04
3.64297	100.04
3.65963	100.04
3.67630	100.04
3.69297	100.04
3.70963	100.04
3.72630	100.04
3.74297	100.04
3.75963	100.05
3.77630	100.05
3.79297	100.05
3.80963	100.04
3.82630	100.04
3.84297	100.05
3.85963	100.05
3.87630	100.05
3.89297	100.05
3.90963	100.04
3.92630	100.05
3.94297	100.05
3.95963	100.05
3.97630	100.05
3.99297	100.05

[Status Trace (Carrier Gas Pressure)]
Interval(msec)	1000
# of Points	240
Start Time(min)	0.010
End Time(min)	3.993
Intensity Units	
Intensity Multiplier	1
R.Time (min)	Intensity
0.00963	58.00
0.02630	55.14
0.04297	57.33
0.05963	59.49
0.07630	59.09
0.09297	58.03
0.10963	57.99
0.12630	58.01
0.14297	58.01
0.15963	58.01
0.17630	58.00
0.19297	58.00
0.20963	58.00
0.22630	58.00
0.24297	58.00
0.25963	58.00
0.27630	58.00
0.29297	58.00
0.30963	58.00
0.32630	58.00
0.34297	58.00
0.35963	58.00
0.37630	58.00
0.39297	58.00
0.40963	58.00
0.42630	58.00
0.44297	58.00
0.45963	58.00
0.47630	58.00
0.49297	58.00
0.50963	58.00
0.52630	58.00
0.54297	58.00
0.55963	58.00
0.57630	58.00
0.59297	58.00
0.60963	58.00
0.62630	58.00
0.64297	58.00
0.65963	58.00
0.67630	58.00
0.69297	58.00
0.70963	58.00
0.72630	58.00
0.74297	58.00
0.75963	58.00
0.77630	58.00
0.79297	58.00
0.80963	58.00
0.82630	58.00
0.84297	58.00
0.85963	58.00
0.87630	58.00
0.89297	58.00
0.90963	58.00
0.92630	58.00
0.94297	58.00
0.95963	58.00
0.97630	58.00
0.99297	58.00
1.00963	58.00
1.02630	58.00
1.04297	58.00
1.05963	58.00
1.07630	58.00
1.09297	58.00
1.10963	58.00
1.12630	58.00
1.14297	58.00
1.15963	58.00
1.17630	58.00
1.19297	58.00
1.20963	58.00
1.22630	58.00
1.24297	58.00
1.25963	58.00
1.27630	58.00
1.29297	58.00
1.30963	58.00
1.32630	58.00
1.34297	58.00
1.35963	58.00
1.37630	58.00
1.39297	58.00
1.40963	58.00
1.42630	58.00
1.44297	58.00
1.45963	58.00
1.47630	58.00
1.49297	58.00
1.50963	58.00
1.52630	58.00
1.54297	58.00
1.55963	58.00
1.57630	58.00
1.59297	58.00
1.60963	58.00
1.62630	58.01
1.64297	58.00
1.65963	58.00
1.67630	58.01
1.69297	58.00
1.70963	58.00
1.72630	58.00
1.74297	58.00
1.75963	58.00
1.77630	58.00
1.79297	58.00
1.80963	58.00
1.82630	58.00
1.84297	58.00
1.85963	58.00
1.87630	58.00
1.89297	58.00
1.90963	58.00
1.92630	58.00
1.94297	58.00
1.95963	58.00
1.97630	58.00
1.99297	58.00
2.00963	58.00
2.02630	58.00
2.04297	58.00
2.05963	58.00
2.07630	58.00
2.09297	58.00
2.10963	58.00
2.12630	58.00
2.14297	58.00
2.15963	58.00
2.17630	58.00
2.19297	58.00
2.20963	58.00
2.22630	58.00
2.24297	58.00
2.25963	58.00
2.27630	58.00
2.29297	58.00
2.30963	58.00
2.32630	58.00
2.34297	58.00
2.35963	58.00
2.37630	58.00
2.39297	57.99
2.40963	57.99
2.42630	58.00
2.44297	58.00
2.45963	58.00
2.47630	58.00
2.49297	58.00
2.50963	57.99
2.52630	57.97
2.54297	58.00
2.55963	58.00
2.57630	58.00
2.59297	58.00
2.60963	58.00
2.62630	58.00
2.64297	58.00
2.65963	58.00
2.67630	58.00
2.69297	58.00
2.70963	58.00
2.72630	58.00
2.74297	58.00
2.75963	58.00
2.77630	58.00
2.79297	58.00
2.80963	58.00
2.82630	58.00
2.84297	58.00
2.85963	58.00
2.87630	58.00
2.89297	58.00
2.90963	58.00
2.92630	58.00
2.94297	58.00
2.95963	58.00
2.97630	58.00
2.99297	58.00
3.00963	58.00
3.02630	58.00
3.04297	58.00
3.05963	58.00
3.07630	58.00
3.09297	58.00
3.10963	58.00
3.12630	58.00
3.14297	58.00
3.15963	58.00
3.17630	58.00
3.19297	58.00
3.20963	58.00
3.22630	58.00
3.24297	58.00
3.25963	58.00
3.27630	58.00
3.29297	58.00
3.30963	58.00
3.32630	58.00
3.34297	58.00
3.35963	58.00
3.37630	58.00
3.39297	58.00
3.40963	58.00
3.42630	58.00
3.44297	58.00
3.45963	58.00
3.47630	58.00
3.49297	58.00
3.50963	58.00
3.52630	58.00
3.54297	58.00
3.55963	58.00
3.57630	58.00
3.59297	58.00
3.60963	58.00
3.62630	58.00
3.64297	58.00
3.65963	58.00
3.67630	58.00
3.69297	58.00
3.70963	58.00
3.72630	58.00
3.74297	58.00
3.75963	58.00
3.77630	58.00
3.79297	58.00
3.80963	58.00
3.82630	58.00
3.84297	58.00
3.85963	58.00
3.87630	58.00
3.89297	58.00
3.90963	58.00
3.92630	58.00
3.94297	58.00
3.95963	58.00
3.97630	58.00
3.99297	58.00

[Status Trace (Carrier Gas Flow)]
Interval(msec)	1000
# of Points	240
Start Time(min)	0.010
End Time(min)	3.993
Intensity Units	
Intensity Multiplier	1
R.Time (min)	Intensity
0.00963	34.52
0.02630	34.54
0.04297	34.54
0.05963	34.55
0.07630	34.50
0.09297	34.52
0.10963	34.52
0.12630	34.52
0.14297	34.52
0.15963	34.52
0.17630	34.52
0.19297	34.52
0.20963	34.52
0.22630	34.52
0.24297	34.51
0.25963	34.52
0.27630	34.52
0.29297	34.52
0.30963	34.52
0.32630	34.52
0.34297	34.52
0.35963	34.52
0.37630	34.51
0.39297	34.51
0.40963	34.52
0.42630	34.52
0.44297	34.51
0.45963	34.52
0.47630	34.52
0.49297	34.52
0.50963	34.52
0.52630	34.52
0.54297	34.52
0.55963	34.52
0.57630	34.52
0.59297	34.52
0.60963	34.52
0.62630	34.53
0.64297	34.52
0.65963	34.51
0.67630	34.52
0.69297	34.52
0.70963	34.52
0.72630	34.51
0.74297	34.52
0.75963	34.52
0.77630	34.52
0.79297	34.52
0.80963	34.52
0.82630	34.52
0.84297	34.52
0.85963	34.52
0.87630	34.52
0.89297	34.52
0.90963	34.52
0.92630	34.52
0.94297	34.52
0.95963	34.53
0.97630	34.52
0.99297	34.52
1.00963	34.52
1.02630	34.52
1.04297	34.52
1.05963	34.51
1.07630	34.52
1.09297	34.52
1.10963	34.52
1.12630	34.52
1.14297	34.52
1.15963	34.52
1.17630	34.52
1.19297	34.51
1.20963	34.52
1.22630	34.51
1.24297	34.52
1.25963	34.52
1.27630	34.52
1.29297	34.52
1.30963	34.52
1.32630	34.52
1.34297	34.52
1.35963	34.52
1.37630	34.52
1.39297	34.52
1.40963	34.51
1.42630	34.52
1.44297	34.51
1.45963	34.52
1.47630	34.52
1.49297	34.52
1.50963	34.52
1.52630	34.52
1.54297	34.51
1.55963	34.52
1.57630	34.52
1.59297	34.52
1.60963	34.52
1.62630	34.51
1.64297	34.52
1.65963	34.52
1.67630	34.52
1.69297	34.52
1.70963	34.52
1.72630	34.52
1.74297	34.52
1.75963	34.52
1.77630	34.52
1.79297	34.52
1.80963	34.52
1.82630	34.52
1.84297	34.51
1.85963	34.52
1.87630	34.52
1.89297	34.52
1.90963	34.52
1.92630	34.52
1.94297	34.52
1.95963	34.52
1.97630	34.51
1.99297	34.52
2.00963	34.52
2.02630	34.52
2.04297	34.52
2.05963	34.52
2.07630	34.52
2.09297	34.52
2.10963	34.52
2.12630	34.52
2.14297	34.52
2.15963	34.52
2.17630	34.51
2.19297	34.52
2.20963	34.52
2.22630	34.52
2.24297	34.52
2.25963	34.52
2.27630	34.52
2.29297	34.52
2.30963	34.52
2.32630	34.51
2.34297	34.52
2.35963	34.52
2.37630	34.52
2.39297	34.52
2.40963	34.52
2.42630	34.52
2.44297	34.52
2.45963	34.52
2.47630	34.51
2.49297	34.52
2.50963	34.51
2.52630	34.52
2.54297	34.52
2.55963	34.52
2.57630	34.53
2.59297	34.52
2.60963	34.52
2.62630	34.51
2.64297	34.52
2.65963	34.52
2.67630	34.51
2.69297	34.52
2.70963	34.52
2.72630	34.52
2.74297	34.52
2.75963	34.52
2.77630	34.52
2.79297	34.51
2.80963	34.52
2.82630	34.52
2.84297	34.52
2.85963	34.52
2.87630	34.52
2.89297	34.52
2.90963	34.52
2.92630	34.51
2.94297	34.52
2.95963	34.52
2.97630	34.52
2.99297	34.52
3.00963	34.52
3.02630	34.52
3.04297	34.51
3.05963	34.52
3.07630	34.52
3.09297	34.52
3.10963	34.52
3.12630	34.52
3.14297	34.51
3.15963	34.52
3.17630	34.52
3.19297	34.51
3.20963	34.52
3.22630	34.52
3.24297	34.51
3.25963	34.51
3.27630	34.52
3.29297	34.53
3.30963	34.52
3.32630	34.52
3.34297	34.52
3.35963	34.52
3.37630	34.52
3.39297	34.52
3.40963	34.52
3.42630	34.52
3.44297	34.52
3.45963	34.52
3.47630	34.52
3.49297	34.52
3.50963	34.52
3.52630	34.52
3.54297	34.52
3.55963	34.52
3.57630	34.52
3.59297	34.52
3.60963	34.51
3.62630	34.52
3.64297	34.52
3.65963	34.52
3.67630	34.52
3.69297	34.52
3.70963	34.52
3.72630	34.52
3.74297	34.52
3.75963	34.52
3.77630	34.52
3.79297	34.52
3.80963	34.52
3.82630	34.52
3.84297	34.52
3.85963	34.52
3.87630	34.52
3.89297	34.52
3.90963	34.52
3.92630	34.52
3.94297	34.52
3.95963	34.52
3.97630	34.52
3.99297	34.52

[Status Trace (Column Flow)]
Interval(msec)	1000
# of Points	240
Start Time(min)	0.010
End Time(min)	3.993
Intensity Units	
Intensity Multiplier	1
R.Time (min)	Intensity
0.00963	5.52
0.02630	5.19
0.04297	5.44
0.05963	5.70
0.07630	5.65
0.09297	5.52
0.10963	5.52
0.12630	5.52
0.14297	5.52
0.15963	5.52
0.17630	5.52
0.19297	5.52
0.20963	5.52
0.22630	5.52
0.24297	5.52
0.25963	5.52
0.27630	5.52
0.29297	5.52
0.30963	5.52
0.32630	5.52
0.34297	5.52
0.35963	5.52
0.37630	5.52
0.39297	5.52
0.40963	5.52
0.42630	5.52
0.44297	5.52
0.45963	5.52
0.47630	5.52
0.49297	5.52
0.50963	5.52
0.52630	5.52
0.54297	5.52
0.55963	5.52
0.57630	5.52
0.59297	5.52
0.60963	5.52
0.62630	5.52
0.64297	5.52
0.65963	5.52
0.67630	5.52
0.69297	5.52
0.70963	5.52
0.72630	5.52
0.74297	5.52
0.75963	5.52
0.77630	5.52
0.79297	5.52
0.80963	5.52
0.82630	5.52
0.84297	5.52
0.85963	5.52
0.87630	5.52
0.89297	5.52
0.90963	5.52
0.92630	5.52
0.94297	5.52
0.95963	5.52
0.97630	5.52
0.99297	5.52
1.00963	5.52
1.02630	5.52
1.04297	5.52
1.05963	5.52
1.07630	5.52
1.09297	5.52
1.10963	5.52
1.12630	5.52
1.14297	5.52
1.15963	5.52
1.17630	5.52
1.19297	5.52
1.20963	5.52
1.22630	5.52
1.24297	5.52
1.25963	5.52
1.27630	5.52
1.29297	5.52
1.30963	5.52
1.32630	5.52
1.34297	5.52
1.35963	5.52
1.37630	5.52
1.39297	5.52
1.40963	5.52
1.42630	5.52
1.44297	5.52
1.45963	5.52
1.47630	5.52
1.49297	5.52
1.50963	5.52
1.52630	5.52
1.54297	5.52
1.55963	5.52
1.57630	5.52
1.59297	5.52
1.60963	5.52
1.62630	5.52
1.64297	5.51
1.65963	5.50
1.67630	5.49
1.69297	5.48
1.70963	5.47
1.72630	5.46
1.74297	5.45
1.75963	5.44
1.77630	5.43
1.79297	5.42
1.80963	5.41
1.82630	5.40
1.84297	5.39
1.85963	5.38
1.87630	5.37
1.89297	5.36
1.90963	5.35
1.92630	5.34
1.94297	5.33
1.95963	5.32
1.97630	5.31
1.99297	5.30
2.00963	5.29
2.02630	5.28
2.04297	5.27
2.05963	5.26
2.07630	5.25
2.09297	5.24
2.10963	5.23
2.12630	5.22
2.14297	5.21
2.15963	5.20
2.17630	5.19
2.19297	5.18
2.20963	5.17
2.22630	5.16
2.24297	5.16
2.25963	5.15
2.27630	5.14
2.29297	5.13
2.30963	5.12
2.32630	5.11
2.34297	5.10
2.35963	5.09
2.37630	5.09
2.39297	5.08
2.40963	5.08
2.42630	5.08
2.44297	5.08
2.45963	5.08
2.47630	5.08
2.49297	5.08
2.50963	5.08
2.52630	5.08
2.54297	5.08
2.55963	5.08
2.57630	5.08
2.59297	5.08
2.60963	5.08
2.62630	5.08
2.64297	5.08
2.65963	5.08
2.67630	5.08
2.69297	5.08
2.70963	5.08
2.72630	5.08
2.74297	5.08
2.75963	5.08
2.77630	5.08
2.79297	5.08
2.80963	5.08
2.82630	5.08
2.84297	5.08
2.85963	5.08
2.87630	5.08
2.89297	5.08
2.90963	5.08
2.92630	5.08
2.94297	5.08
2.95963	5.08
2.97630	5.08
2.99297	5.08
3.00963	5.08
3.02630	5.08
3.04297	5.08
3.05963	5.08
3.07630	5.08
3.09297	5.08
3.10963	5.08
3.12630	5.08
3.14297	5.08
3.15963	5.08
3.17630	5.08
3.19297	5.08
3.20963	5.08
3.22630	5.07
3.24297	5.07
3.25963	5.07
3.27630	5.07
3.29297	5.07
3.30963	5.08
3.32630	5.08
3.34297	5.08
3.35963	5.08
3.37630	5.08
3.39297	5.08
3.40963	5.08
3.42630	5.08
3.44297	5.08
3.45963	5.08
3.47630	5.08
3.49297	5.08
3.50963	5.08
3.52630	5.08
3.54297	5.08
3.55963	5.08
3.57630	5.08
3.59297	5.08
3.60963	5.08
3.62630	5.08
3.64297	5.08
3.65963	5.08
3.67630	5.08
3.69297	5.08
3.70963	5.08
3.72630	5.08
3.74297	5.08
3.75963	5.08
3.77630	5.08
3.79297	5.08
3.80963	5.08
3.82630	5.08
3.84297	5.08
3.85963	5.08
3.87630	5.08
3.89297	5.08
3.90963	5.08
3.92630	5.08
3.94297	5.08
3.95963	5.08
3.97630	5.08
3.99297	5.08

[Status Trace (Linear Velocity)]
Interval(msec)	1000
# of Points	240
Start Time(min)	0.010
End Time(min)	3.993
Intensity Units	
Intensity Multiplier	1
R.Time (min)	Intensity
0.00963	39.02
0.02630	37.14
0.04297	38.58
0.05963	39.99
0.07630	39.73
0.09297	39.04
0.10963	39.01
0.12630	39.02
0.14297	39.02
0.15963	39.02
0.17630	39.02
0.19297	39.02
0.20963	39.02
0.22630	39.02
0.24297	39.02
0.25963	39.02
0.27630	39.02
0.29297	39.02
0.30963	39.02
0.32630	39.02
0.34297	39.02
0.35963	39.02
0.37630	39.02
0.39297	39.02
0.40963	39.02
0.42630	39.02
0.44297	39.02
0.45963	39.02
0.47630	39.02
0.49297	39.02
0.50963	39.02
0.52630	39.02
0.54297	39.02
0.55963	39.01
0.57630	39.01
0.59297	39.02
0.60963	39.01
0.62630	39.01
0.64297	39.01
0.65963	39.02
0.67630	39.02
0.69297	39.02
0.70963	39.02
0.72630	39.01
0.74297	39.01
0.75963	39.02
0.77630	39.02
0.79297	39.02
0.80963	39.02
0.82630	39.02
0.84297	39.02
0.85963	39.02
0.87630	39.02
0.89297	39.02
0.90963	39.02
0.92630	39.02
0.94297	39.02
0.95963	39.02
0.97630	39.02
0.99297	39.02
1.00963	39.02
1.02630	39.02
1.04297	39.02
1.05963	39.02
1.07630	39.02
1.09297	39.02
1.10963	39.02
1.12630	39.02
1.14297	39.02
1.15963	39.02
1.17630	39.02
1.19297	39.02
1.20963	39.02
1.22630	39.02
1.24297	39.02
1.25963	39.02
1.27630	39.02
1.29297	39.02
1.30963	39.02
1.32630	39.02
1.34297	39.02
1.35963	39.02
1.37630	39.02
1.39297	39.02
1.40963	39.02
1.42630	39.02
1.44297	39.02
1.45963	39.02
1.47630	39.02
1.49297	39.02
1.50963	39.02
1.52630	39.02
1.54297	39.02
1.55963	39.02
1.57630	39.02
1.59297	39.02
1.60963	39.01
1.62630	39.00
1.64297	38.98
1.65963	38.95
1.67630	38.92
1.69297	38.89
1.70963	38.85
1.72630	38.82
1.74297	38.79
1.75963	38.76
1.77630	38.73
1.79297	38.69
1.80963	38.66
1.82630	38.63
1.84297	38.60
1.85963	38.57
1.87630	38.54
1.89297	38.51
1.90963	38.48
1.92630	38.45
1.94297	38.42
1.95963	38.39
1.97630	38.36
1.99297	38.33
2.00963	38.30
2.02630	38.27
2.04297	38.24
2.05963	38.21
2.07630	38.18
2.09297	38.15
2.10963	38.12
2.12630	38.09
2.14297	38.06
2.15963	38.03
2.17630	38.00
2.19297	37.97
2.20963	37.94
2.22630	37.91
2.24297	37.88
2.25963	37.85
2.27630	37.82
2.29297	37.79
2.30963	37.76
2.32630	37.73
2.34297	37.71
2.35963	37.68
2.37630	37.66
2.39297	37.65
2.40963	37.65
2.42630	37.65
2.44297	37.65
2.45963	37.65
2.47630	37.65
2.49297	37.65
2.50963	37.64
2.52630	37.63
2.54297	37.65
2.55963	37.65
2.57630	37.65
2.59297	37.65
2.60963	37.65
2.62630	37.65
2.64297	37.65
2.65963	37.65
2.67630	37.65
2.69297	37.65
2.70963	37.64
2.72630	37.64
2.74297	37.64
2.75963	37.65
2.77630	37.65
2.79297	37.65
2.80963	37.64
2.82630	37.64
2.84297	37.64
2.85963	37.64
2.87630	37.64
2.89297	37.64
2.90963	37.64
2.92630	37.64
2.94297	37.63
2.95963	37.63
2.97630	37.63
2.99297	37.63
3.00963	37.63
3.02630	37.63
3.04297	37.63
3.05963	37.63
3.07630	37.63
3.09297	37.63
3.10963	37.63
3.12630	37.63
3.14297	37.63
3.15963	37.63
3.17630	37.63
3.19297	37.63
3.20963	37.63
3.22630	37.62
3.24297	37.62
3.25963	37.62
3.27630	37.62
3.29297	37.62
3.30963	37.62
3.32630	37.63
3.34297	37.63
3.35963	37.63
3.37630	37.63
3.39297	37.63
3.40963	37.63
3.42630	37.63
3.44297	37.63
3.45963	37.63
3.47630	37.63
3.49297	37.63
3.50963	37.63
3.52630	37.63
3.54297	37.63
3.55963	37.63
3.57630	37.63
3.59297	37.63
3.60963	37.63
3.62630	37.63
3.64297	37.63
3.65963	37.63
3.67630	37.63
3.69297	37.63
3.70963	37.63
3.72630	37.63
3.74297	37.63
3.75963	37.63
3.77630	37.63
3.79297	37.63
3.80963	37.63
3.82630	37.63
3.84297	37.63
3.85963	37.63
3.87630	37.63
3.89297	37.63
3.90963	37.63
3.92630	37.63
3.94297	37.63
3.95963	37.63
3.97630	37.63
3.99297	37.63

