[Header]
Application Name	LabSolutions
Version	5.110
Data File Name	C:\Users\User\Desktop\GC Analyses\Jack\Nachusa Grasslands Sampling\T3 Timepoint July 12th\T3_07122022_066.gcd
Output Date	3/14/2023
Output Time	3:43:34 PM

[File Information]
Type	Data File
Generated	3/13/2023 9:51:16 PM
Generated by	System Administrator
Modified	3/13/2023 9:57:52 PM
Modified by	System Administrator

[Sample Information]
Operator Name	System Administrator
Acquired	3/13/2023 9:53:51 PM
Sample Type	0:Unknown
Level	0
Sample Name	066
Sample ID	066
ISTD Amount1	1
ISTD Amount2	1
ISTD Amount3	1
ISTD Amount4	1
ISTD Amount5	1
ISTD Amount6	1
ISTD Amount7	1
ISTD Amount8	1
ISTD Amount9	1
ISTD Amount10	1
ISTD Amount11	1
ISTD Amount12	1
ISTD Amount13	1
ISTD Amount14	1
ISTD Amount15	1
ISTD Amount16	1
ISTD Amount17	1
ISTD Amount18	1
ISTD Amount19	1
ISTD Amount20	1
ISTD Amount21	1
ISTD Amount22	1
ISTD Amount23	1
ISTD Amount24	1
ISTD Amount25	1
ISTD Amount26	1
ISTD Amount27	1
ISTD Amount28	1
ISTD Amount29	1
ISTD Amount30	1
ISTD Amount31	1
ISTD Amount32	1
Sample Amount	1
Dilution Factor	1
Vial#	65
Injection Volume	1
Injection Count	1
Bar Code	

[Original Files]
Data File	C:\Users\User\Desktop\GC Analyses\Jack\Nachusa Grasslands Sampling\T3 Timepoint July 12th\T3_07122022_066.gcd
Method File	C:\LabSolutions\Data\GHG_4min_2022\ghg3_togas_w_acet_4 min_new_int.gcm
Batch File	C:\LabSolutions\Data\AutoSamplerTesting\T3_07122022.gcb
Report Format File	c:\LabSolutions\System\DEFAULT.lsr

[File Description]


[Configuration]
Instrument Name	C0B7VH3-Instrument1
Instrument #	1
Line #	1
# of Detectors	3
Detector ID	DET#1	DET#2	DET#3
Detector Name	FID	PTCD	ECD
# of Channels	1	1	1

[Peak Table(Ch1)]
# of Peaks	3
Peak#	R.Time	I.Time	F.Time	Area	Height	A/H	Conc.	Mark	ID#	Name	k'	Plate #	Plate Ht.	Tailing	Resolution	Sep.Factor	Area Ratio	Height Ratio	Conc. %	Norm Conc.
1	1.476	1.439	1.534	26033	12831	2.029	183.797	   	1	CO	0.000	9689	15.482	1.273	0.000	0.000	0	0	17.605	17.605
2	1.571	1.538	1.608	4174	2223	1.878	80.711	   	2	CH4	0.065	12247	12.248	1.083	1.633	0.000	0	0	7.731	7.731
3	2.000	1.952	2.469	3105907	1488459	2.087	779.498	   	3	CO2	0.355	17524	8.560	1.186	7.320	5.500	0	0	74.664	74.664

[Peak Table(Ch2)]
# of Peaks	0

[Peak Table(Ch3)]
# of Peaks	5
Peak#	R.Time	I.Time	F.Time	Area	Height	A/H	Conc.	Mark	ID#	Name	k'	Plate #	Plate Ht.	Tailing	Resolution	Sep.Factor	Area Ratio	Height Ratio	Conc. %	Norm Conc.
1	2.462	2.290	2.510	2356	688	3.425	0.000	   			0.000	9498	15.793	0.000	0.000	0.000	0	0	0.000	0.000
2	2.528	2.510	2.579	1204	400	3.013	0.000	 V 			0.027	5206	28.814	0.000	0.547	0.000	0	0	0.000	0.000
3	2.601	2.579	2.682	710	191	3.726	0.000	 V 			0.057	926	162.012	0.000	0.304	2.111	0	0	0.000	0.000
4	2.880	2.697	3.133	19997	5102	3.919	0.511	   	1	N2O	0.170	13035	11.507	1.517	1.258	3.000	0	0	100.000	100.000
5	3.412	3.239	3.628	607	50	12.061	0.000	   	2	SF6	0.386	952	157.569	1.129	1.958	2.272	0	0	0.000	0.000

[Compound Results(Ch1)]
# of IDs	6
ID#	Name	R.Time	Area	Height	Conc.	Curve	3rd	2nd	1st	Constant	Area Ratio	Height Ratio	Conc. %	Norm Conc.
1	CO	1.476	26033	12831	183.797	Linear	0.000000e+00	0.000000e+00	1.416423e+002	0.000000e+00	0	0	17.605	17.605
2	CH4	1.571	4174	2223	80.711	Linear	0.000000e+00	0.000000e+00	5.171738e+001	0.000000e+00	0	0	7.731	7.731
3	CO2	2.000	3105907	1488459	779.498	Linear	0.000000e+00	0.000000e+00	3.984494e+003	0.000000e+00	0	0	74.664	74.664
4	Ethylene	0.000	0	0	0.000	Linear	0.000000e+00	0.000000e+00	0.000000e+00	0.000000e+00	0	0	0.000	0.000
5	Acetylene	0.000	0	0	0.000	Linear	0.000000e+00	0.000000e+00	0.000000e+00	0.000000e+00	0	0	0.000	0.000
6	Ethane	0.000	0	0	0.000	Linear	0.000000e+00	0.000000e+00	0.000000e+00	0.000000e+00	0	0	0.000	0.000

[Compound Results(Ch2)]
# of IDs	5
ID#	Name	R.Time	Area	Height	Conc.	Curve	3rd	2nd	1st	Constant	Area Ratio	Height Ratio	Conc. %	Norm Conc.
1	Hydrogen	0.000	0	0	0.000	Linear	0.000000e+00	0.000000e+00	0.000000e+00	0.000000e+00	0	0	0.000	0.000
2	Oxygen	0.000	0	0	0.000	Linear	0.000000e+00	0.000000e+00	0.000000e+00	0.000000e+00	0	0	0.000	0.000
3	Nitrogen	0.000	0	0	0.000	Linear	0.000000e+00	0.000000e+00	0.000000e+00	0.000000e+00	0	0	0.000	0.000
4	Methane	0.000	0	0	0.000	Linear	0.000000e+00	0.000000e+00	0.000000e+00	0.000000e+00	0	0	0.000	0.000
5	Carbon Monoxide	0.000	0	0	0.000	Linear	0.000000e+00	0.000000e+00	0.000000e+00	0.000000e+00	0	0	0.000	0.000

[Compound Results(Ch3)]
# of IDs	2
ID#	Name	R.Time	Area	Height	Conc.	Curve	3rd	2nd	1st	Constant	Area Ratio	Height Ratio	Conc. %	Norm Conc.
1	N2O	2.880	19997	5102	0.511	Linear	0.000000e+00	0.000000e+00	3.915173e+004	0.000000e+00	0	0	100.000	100.000
2	SF6	3.412	607	50	0.000	Linear	0.000000e+00	0.000000e+00	0.000000e+00	0.000000e+00	0	0	0.000	0.000

[Group Results(Ch1)]
# of Groups	0

[Group Results(Ch2)]
# of Groups	0

[Group Results(Ch3)]
# of Groups	0

[Chromatogram (Ch1)]
Interval(msec)	220
# of Points	1091
Start Time(min)	0.002
End Time(min)	3.998
R.Time (min)	Intensity
0.00167	28
0.00533	23
0.00900	12
0.01267	3
0.01633	2
0.02000	8
0.02367	19
0.02733	28
0.03100	35
0.03467	35
0.03833	32
0.04200	26
0.04567	19
0.04933	10
0.05300	6
0.05667	9
0.06033	11
0.06400	11
0.06767	14
0.07133	21
0.07500	29
0.07867	35
0.08233	41
0.08600	45
0.08967	49
0.09333	54
0.09700	51
0.10067	39
0.10433	25
0.10800	10
0.11167	0
0.11533	-3
0.11900	-1
0.12267	-0
0.12633	1
0.13000	4
0.13367	5
0.13733	3
0.14100	0
0.14467	1
0.14833	5
0.15200	5
0.15567	0
0.15933	-2
0.16300	-3
0.16667	-5
0.17033	-3
0.17400	3
0.17767	11
0.18133	24
0.18500	36
0.18867	41
0.19233	39
0.19600	40
0.19967	48
0.20333	51
0.20700	45
0.21067	38
0.21433	32
0.21800	32
0.22167	38
0.22533	40
0.22900	35
0.23267	32
0.23633	29
0.24000	22
0.24367	17
0.24733	18
0.25100	24
0.25467	33
0.25833	46
0.26200	60
0.26567	71
0.26933	71
0.27300	64
0.27667	57
0.28033	52
0.28400	48
0.28767	47
0.29133	45
0.29500	40
0.29867	34
0.30233	34
0.30600	39
0.30967	48
0.31333	57
0.31700	58
0.32067	54
0.32433	50
0.32800	46
0.33167	39
0.33533	34
0.33900	30
0.34267	24
0.34633	18
0.35000	19
0.35367	27
0.35733	42
0.36100	61
0.36467	73
0.36833	77
0.37200	76
0.37567	69
0.37933	63
0.38300	58
0.38667	48
0.39033	38
0.39400	35
0.39767	36
0.40133	38
0.40500	41
0.40867	41
0.41233	38
0.41600	33
0.41967	31
0.42333	31
0.42700	24
0.43067	19
0.43433	18
0.43800	23
0.44167	33
0.44533	47
0.44900	59
0.45267	62
0.45633	57
0.46000	49
0.46367	47
0.46733	53
0.47100	60
0.47467	63
0.47833	59
0.48200	54
0.48567	47
0.48933	41
0.49300	37
0.49667	34
0.50033	31
0.50400	29
0.50767	29
0.51133	28
0.51500	26
0.51867	23
0.52233	17
0.52600	14
0.52967	14
0.53333	13
0.53700	15
0.54067	21
0.54433	25
0.54800	25
0.55167	25
0.55533	29
0.55900	39
0.56267	50
0.56633	58
0.57000	61
0.57367	58
0.57733	53
0.58100	50
0.58467	47
0.58833	44
0.59200	44
0.59567	43
0.59933	41
0.60300	40
0.60667	40
0.61033	41
0.61400	38
0.61767	36
0.62133	38
0.62500	38
0.62867	36
0.63233	31
0.63600	25
0.63967	19
0.64333	19
0.64700	21
0.65067	23
0.65433	28
0.65800	39
0.66167	48
0.66533	54
0.66900	55
0.67267	51
0.67633	47
0.68000	44
0.68367	39
0.68733	34
0.69100	29
0.69467	22
0.69833	12
0.70200	4
0.70567	2
0.70933	-0
0.71300	-2
0.71667	4
0.72033	13
0.72400	19
0.72767	22
0.73133	28
0.73500	33
0.73867	33
0.74233	33
0.74600	34
0.74967	32
0.75333	29
0.75700	29
0.76067	36
0.76433	51
0.76800	62
0.77167	68
0.77533	67
0.77900	64
0.78267	61
0.78633	54
0.79000	46
0.79367	40
0.79733	37
0.80100	32
0.80467	25
0.80833	22
0.81200	16
0.81567	7
0.81933	-2
0.82300	-7
0.82667	-5
0.83033	0
0.83400	6
0.83767	11
0.84133	17
0.84500	23
0.84867	25
0.85233	22
0.85600	22
0.85967	25
0.86333	27
0.86700	28
0.87067	27
0.87433	26
0.87800	29
0.88167	34
0.88533	38
0.88900	39
0.89267	41
0.89633	45
0.90000	49
0.90367	49
0.90733	47
0.91100	44
0.91467	38
0.91833	33
0.92200	32
0.92567	38
0.92933	45
0.93300	51
0.93667	53
0.94033	49
0.94400	38
0.94767	26
0.95133	20
0.95500	25
0.95867	35
0.96233	43
0.96600	45
0.96967	41
0.97333	33
0.97700	23
0.98067	16
0.98433	11
0.98800	5
0.99167	1
0.99533	0
0.99900	5
1.00267	9
1.00633	9
1.01000	5
1.01367	2
1.01733	6
1.02100	13
1.02467	15
1.02833	14
1.03200	19
1.03567	24
1.03933	27
1.04300	26
1.04667	20
1.05033	8
1.05400	1
1.05767	-3
1.06133	-6
1.06500	-9
1.06867	-5
1.07233	6
1.07600	16
1.07967	19
1.08333	15
1.08700	11
1.09067	12
1.09433	14
1.09800	15
1.10167	18
1.10533	19
1.10900	21
1.11267	20
1.11633	19
1.12000	20
1.12367	22
1.12733	19
1.13100	13
1.13467	11
1.13833	8
1.14200	6
1.14567	9
1.14933	18
1.15300	28
1.15667	37
1.16033	49
1.16400	60
1.16767	69
1.17133	72
1.17500	66
1.17867	53
1.18233	39
1.18600	27
1.18967	19
1.19333	11
1.19700	5
1.20067	4
1.20433	8
1.20800	17
1.21167	25
1.21533	32
1.21900	39
1.22267	43
1.22633	45
1.23000	46
1.23367	45
1.23733	43
1.24100	41
1.24467	40
1.24833	42
1.25200	47
1.25567	54
1.25933	59
1.26300	62
1.26667	61
1.27033	56
1.27400	50
1.27767	47
1.28133	44
1.28500	41
1.28867	45
1.29233	57
1.29600	75
1.29967	85
1.30333	88
1.30700	88
1.31067	82
1.31433	72
1.31800	60
1.32167	48
1.32533	37
1.32900	30
1.33267	29
1.33633	34
1.34000	37
1.34367	39
1.34733	39
1.35100	38
1.35467	40
1.35833	51
1.36200	63
1.36567	66
1.36933	62
1.37300	59
1.37667	62
1.38033	71
1.38400	77
1.38767	75
1.39133	65
1.39500	53
1.39867	39
1.40233	31
1.40600	28
1.40967	31
1.41333	37
1.41700	43
1.42067	48
1.42433	51
1.42800	51
1.43167	48
1.43533	44
1.43900	48
1.44267	85
1.44633	222
1.45000	629
1.45367	1625
1.45733	3484
1.46100	5954
1.46467	8451
1.46833	10545
1.47200	12047
1.47567	12844
1.47933	12802
1.48300	11883
1.48667	10254
1.49033	8256
1.49400	6260
1.49767	4520
1.50133	3141
1.50500	2116
1.50867	1384
1.51233	874
1.51600	525
1.51967	290
1.52333	140
1.52700	52
1.53067	-4
1.53433	-45
1.53800	-63
1.54167	-33
1.54533	99
1.54900	377
1.55267	785
1.55633	1239
1.56000	1649
1.56367	1967
1.56733	2164
1.57100	2215
1.57467	2095
1.57833	1822
1.58200	1463
1.58567	1095
1.58933	776
1.59300	528
1.59667	341
1.60033	205
1.60400	114
1.60767	55
1.61133	18
1.61500	-5
1.61867	-17
1.62233	-19
1.62600	-16
1.62967	-13
1.63333	-20
1.63700	-34
1.64067	-45
1.64433	-46
1.64800	-36
1.65167	-28
1.65533	-23
1.65900	-24
1.66267	-31
1.66633	-39
1.67000	-41
1.67367	-38
1.67733	-38
1.68100	-33
1.68467	-27
1.68833	-28
1.69200	-33
1.69567	-30
1.69933	-24
1.70300	-19
1.70667	-17
1.71033	-15
1.71400	-12
1.71767	-6
1.72133	-5
1.72500	-12
1.72867	-25
1.73233	-35
1.73600	-36
1.73967	-36
1.74333	-36
1.74700	-34
1.75067	-32
1.75433	-28
1.75800	-23
1.76167	-20
1.76533	-22
1.76900	-25
1.77267	-24
1.77633	-19
1.78000	-10
1.78367	1
1.78733	8
1.79100	9
1.79467	3
1.79833	-2
1.80200	-6
1.80567	-12
1.80933	-15
1.81300	-14
1.81667	-10
1.82033	-2
1.82400	3
1.82767	5
1.83133	2
1.83500	-0
1.83867	4
1.84233	7
1.84600	9
1.84967	8
1.85333	8
1.85700	11
1.86067	10
1.86433	9
1.86800	10
1.87167	14
1.87533	23
1.87900	30
1.88267	30
1.88633	29
1.89000	27
1.89367	24
1.89733	19
1.90100	18
1.90467	17
1.90833	19
1.91200	21
1.91567	21
1.91933	19
1.92300	20
1.92667	23
1.93033	27
1.93400	28
1.93767	26
1.94133	24
1.94500	21
1.94867	19
1.95233	30
1.95600	132
1.95967	789
1.96333	4259
1.96700	18278
1.97067	61411
1.97433	162857
1.97800	345896
1.98167	604085
1.98533	896250
1.98900	1167619
1.99267	1372964
1.99633	1483783
2.00000	1488521
2.00367	1393883
2.00733	1222906
2.01100	1009693
2.01467	789767
2.01833	590394
2.02200	426092
2.02567	299937
2.02933	207913
2.03300	143163
2.03667	98691
2.04033	68587
2.04400	48348
2.04767	34750
2.05133	25574
2.05500	19313
2.05867	14976
2.06233	11921
2.06600	9725
2.06967	8106
2.07333	6881
2.07700	5930
2.08067	5181
2.08433	4583
2.08800	4102
2.09167	3706
2.09533	3372
2.09900	3088
2.10267	2846
2.10633	2638
2.11000	2456
2.11367	2295
2.11733	2153
2.12100	2026
2.12467	1915
2.12833	1817
2.13200	1728
2.13567	1645
2.13933	1567
2.14300	1495
2.14667	1428
2.15033	1363
2.15400	1306
2.15767	1254
2.16133	1208
2.16500	1164
2.16867	1118
2.17233	1074
2.17600	1035
2.17967	999
2.18333	963
2.18700	930
2.19067	899
2.19433	873
2.19800	853
2.20167	837
2.20533	826
2.20900	812
2.21267	788
2.21633	760
2.22000	738
2.22367	721
2.22733	705
2.23100	691
2.23467	678
2.23833	666
2.24200	652
2.24567	638
2.24933	624
2.25300	613
2.25667	605
2.26033	605
2.26400	601
2.26767	595
2.27133	585
2.27500	579
2.27867	575
2.28233	570
2.28600	561
2.28967	550
2.29333	542
2.29700	540
2.30067	533
2.30433	520
2.30800	509
2.31167	500
2.31533	493
2.31900	488
2.32267	484
2.32633	484
2.33000	486
2.33367	486
2.33733	483
2.34100	477
2.34467	467
2.34833	454
2.35200	443
2.35567	438
2.35933	435
2.36300	433
2.36667	433
2.37033	432
2.37400	431
2.37767	427
2.38133	420
2.38500	411
2.38867	405
2.39233	405
2.39600	406
2.39967	404
2.40333	402
2.40700	404
2.41067	409
2.41433	411
2.41800	414
2.42167	416
2.42533	416
2.42900	414
2.43267	408
2.43633	401
2.44000	394
2.44367	391
2.44733	388
2.45100	381
2.45467	373
2.45833	370
2.46200	373
2.46567	375
2.46933	374
2.47300	376
2.47667	377
2.48033	377
2.48400	377
2.48767	379
2.49133	378
2.49500	377
2.49867	380
2.50233	383
2.50600	377
2.50967	364
2.51333	353
2.51700	347
2.52067	347
2.52433	352
2.52800	358
2.53167	365
2.53533	368
2.53900	369
2.54267	369
2.54633	369
2.55000	366
2.55367	366
2.55733	367
2.56100	366
2.56467	363
2.56833	363
2.57200	362
2.57567	360
2.57933	354
2.58300	346
2.58667	341
2.59033	340
2.59400	345
2.59767	354
2.60133	361
2.60500	364
2.60867	364
2.61233	363
2.61600	364
2.61967	367
2.62333	371
2.62700	370
2.63067	362
2.63433	353
2.63800	349
2.64167	347
2.64533	344
2.64900	345
2.65267	346
2.65633	341
2.66000	336
2.66367	334
2.66733	332
2.67100	329
2.67467	327
2.67833	327
2.68200	327
2.68567	330
2.68933	333
2.69300	337
2.69667	342
2.70033	346
2.70400	346
2.70767	348
2.71133	352
2.71500	356
2.71867	359
2.72233	362
2.72600	365
2.72967	369
2.73333	377
2.73700	380
2.74067	379
2.74433	374
2.74800	365
2.75167	358
2.75533	356
2.75900	357
2.76267	359
2.76633	360
2.77000	362
2.77367	368
2.77733	367
2.78100	361
2.78467	356
2.78833	358
2.79200	365
2.79567	371
2.79933	375
2.80300	378
2.80667	381
2.81033	384
2.81400	384
2.81767	381
2.82133	373
2.82500	364
2.82867	358
2.83233	354
2.83600	354
2.83967	355
2.84333	356
2.84700	356
2.85067	355
2.85433	357
2.85800	364
2.86167	374
2.86533	380
2.86900	385
2.87267	391
2.87633	393
2.88000	391
2.88367	389
2.88733	390
2.89100	390
2.89467	383
2.89833	376
2.90200	374
2.90567	376
2.90933	377
2.91300	372
2.91667	361
2.92033	356
2.92400	358
2.92767	356
2.93133	354
2.93500	354
2.93867	357
2.94233	365
2.94600	373
2.94967	376
2.95333	378
2.95700	380
2.96067	377
2.96433	373
2.96800	372
2.97167	372
2.97533	374
2.97900	381
2.98267	389
2.98633	397
2.99000	402
2.99367	407
2.99733	412
3.00100	417
3.00467	418
3.00833	413
3.01200	404
3.01567	393
3.01933	383
3.02300	375
3.02667	368
3.03033	367
3.03400	365
3.03767	366
3.04133	368
3.04500	372
3.04867	374
3.05233	373
3.05600	370
3.05967	370
3.06333	374
3.06700	379
3.07067	383
3.07433	383
3.07800	381
3.08167	378
3.08533	375
3.08900	374
3.09267	376
3.09633	377
3.10000	376
3.10367	371
3.10733	364
3.11100	362
3.11467	368
3.11833	376
3.12200	381
3.12567	383
3.12933	385
3.13300	383
3.13667	381
3.14033	376
3.14400	373
3.14767	370
3.15133	364
3.15500	355
3.15867	347
3.16233	349
3.16600	355
3.16967	359
3.17333	361
3.17700	363
3.18067	364
3.18433	365
3.18800	365
3.19167	364
3.19533	361
3.19900	361
3.20267	366
3.20633	373
3.21000	380
3.21367	387
3.21733	390
3.22100	389
3.22467	382
3.22833	370
3.23200	360
3.23567	354
3.23933	353
3.24300	352
3.24667	352
3.25033	347
3.25400	342
3.25767	339
3.26133	342
3.26500	346
3.26867	349
3.27233	352
3.27600	356
3.27967	358
3.28333	361
3.28700	360
3.29067	355
3.29433	351
3.29800	351
3.30167	356
3.30533	365
3.30900	371
3.31267	373
3.31633	362
3.32000	345
3.32367	331
3.32733	325
3.33100	328
3.33467	332
3.33833	336
3.34200	337
3.34567	335
3.34933	331
3.35300	325
3.35667	322
3.36033	322
3.36400	322
3.36767	320
3.37133	318
3.37500	319
3.37867	319
3.38233	320
3.38600	319
3.38967	317
3.39333	318
3.39700	320
3.40067	325
3.40433	334
3.40800	341
3.41167	342
3.41533	343
3.41900	342
3.42267	340
3.42633	341
3.43000	346
3.43367	345
3.43733	335
3.44100	323
3.44467	316
3.44833	314
3.45200	314
3.45567	314
3.45933	310
3.46300	308
3.46667	309
3.47033	313
3.47400	319
3.47767	326
3.48133	329
3.48500	327
3.48867	321
3.49233	315
3.49600	311
3.49967	306
3.50333	304
3.50700	303
3.51067	306
3.51433	313
3.51800	320
3.52167	324
3.52533	324
3.52900	319
3.53267	311
3.53633	305
3.54000	305
3.54367	305
3.54733	300
3.55100	292
3.55467	287
3.55833	285
3.56200	283
3.56567	283
3.56933	286
3.57300	285
3.57667	284
3.58033	285
3.58400	282
3.58767	279
3.59133	278
3.59500	278
3.59867	278
3.60233	282
3.60600	282
3.60967	280
3.61333	278
3.61700	280
3.62067	282
3.62433	284
3.62800	283
3.63167	285
3.63533	289
3.63900	289
3.64267	290
3.64633	289
3.65000	282
3.65367	271
3.65733	264
3.66100	266
3.66467	276
3.66833	286
3.67200	286
3.67567	280
3.67933	275
3.68300	277
3.68667	279
3.69033	273
3.69400	269
3.69767	270
3.70133	273
3.70500	272
3.70867	268
3.71233	266
3.71600	262
3.71967	255
3.72333	255
3.72700	257
3.73067	259
3.73433	259
3.73800	263
3.74167	269
3.74533	270
3.74900	269
3.75267	268
3.75633	269
3.76000	270
3.76367	273
3.76733	274
3.77100	273
3.77467	273
3.77833	273
3.78200	274
3.78567	276
3.78933	268
3.79300	261
3.79667	258
3.80033	258
3.80400	258
3.80767	261
3.81133	267
3.81500	273
3.81867	279
3.82233	284
3.82600	281
3.82967	272
3.83333	261
3.83700	258
3.84067	258
3.84433	256
3.84800	251
3.85167	245
3.85533	240
3.85900	237
3.86267	234
3.86633	237
3.87000	243
3.87367	253
3.87733	259
3.88100	258
3.88467	253
3.88833	250
3.89200	248
3.89567	245
3.89933	238
3.90300	232
3.90667	230
3.91033	232
3.91400	238
3.91767	241
3.92133	240
3.92500	238
3.92867	238
3.93233	238
3.93600	240
3.93967	241
3.94333	237
3.94700	231
3.95067	227
3.95433	225
3.95800	229
3.96167	238
3.96533	247
3.96900	249
3.97267	249
3.97633	250
3.98000	254
3.98367	254
3.98733	254
3.99100	255
3.99467	258
3.99833	260

[Chromatogram (Ch2)]
Interval(msec)	220
# of Points	1091
Start Time(min)	0.002
End Time(min)	3.998
R.Time (min)	Intensity
0.00167	0
0.00533	1
0.00900	1
0.01267	1
0.01633	1
0.02000	0
0.02367	0
0.02733	0
0.03100	-0
0.03467	-0
0.03833	-0
0.04200	-0
0.04567	-0
0.04933	-0
0.05300	-0
0.05667	-0
0.06033	-1
0.06400	-1
0.06767	-1
0.07133	-2
0.07500	-2
0.07867	-2
0.08233	-3
0.08600	-3
0.08967	-3
0.09333	-4
0.09700	-4
0.10067	-4
0.10433	-4
0.10800	-4
0.11167	-4
0.11533	-4
0.11900	-4
0.12267	-4
0.12633	-4
0.13000	-4
0.13367	-3
0.13733	-3
0.14100	-3
0.14467	-2
0.14833	-1
0.15200	-1
0.15567	-0
0.15933	0
0.16300	1
0.16667	1
0.17033	1
0.17400	0
0.17767	-0
0.18133	-1
0.18500	-1
0.18867	-1
0.19233	-1
0.19600	-1
0.19967	-1
0.20333	-1
0.20700	-1
0.21067	-2
0.21433	-2
0.21800	-2
0.22167	-2
0.22533	-2
0.22900	-2
0.23267	-2
0.23633	-1
0.24000	-1
0.24367	-1
0.24733	-0
0.25100	0
0.25467	1
0.25833	1
0.26200	2
0.26567	2
0.26933	2
0.27300	2
0.27667	2
0.28033	2
0.28400	1
0.28767	1
0.29133	1
0.29500	1
0.29867	0
0.30233	0
0.30600	-0
0.30967	-0
0.31333	-1
0.31700	-1
0.32067	-1
0.32433	-1
0.32800	-1
0.33167	-1
0.33533	-1
0.33900	-1
0.34267	-1
0.34633	-2
0.35000	-2
0.35367	-2
0.35733	-1
0.36100	-1
0.36467	-2
0.36833	-2
0.37200	-2
0.37567	-2
0.37933	-3
0.38300	-3
0.38667	-3
0.39033	-3
0.39400	-3
0.39767	-3
0.40133	-3
0.40500	-3
0.40867	-3
0.41233	-3
0.41600	-3
0.41967	-2
0.42333	-2
0.42700	-2
0.43067	-2
0.43433	-2
0.43800	-2
0.44167	-1
0.44533	-1
0.44900	-1
0.45267	-1
0.45633	-1
0.46000	-1
0.46367	-1
0.46733	-1
0.47100	-1
0.47467	-1
0.47833	-1
0.48200	-1
0.48567	-2
0.48933	-2
0.49300	-2
0.49667	-2
0.50033	-2
0.50400	-2
0.50767	-2
0.51133	-2
0.51500	-2
0.51867	-2
0.52233	-2
0.52600	-2
0.52967	-2
0.53333	-2
0.53700	-2
0.54067	-2
0.54433	-1
0.54800	-1
0.55167	-1
0.55533	-1
0.55900	-1
0.56267	-2
0.56633	-2
0.57000	-2
0.57367	-2
0.57733	-2
0.58100	-2
0.58467	-2
0.58833	-2
0.59200	-2
0.59567	-2
0.59933	-2
0.60300	-2
0.60667	-1
0.61033	-1
0.61400	-1
0.61767	-1
0.62133	-1
0.62500	-0
0.62867	-0
0.63233	0
0.63600	0
0.63967	0
0.64333	0
0.64700	-0
0.65067	-0
0.65433	-1
0.65800	-1
0.66167	-1
0.66533	-2
0.66900	-2
0.67267	-2
0.67633	-2
0.68000	-2
0.68367	-2
0.68733	-2
0.69100	-2
0.69467	-2
0.69833	-2
0.70200	-2
0.70567	-1
0.70933	-2
0.71300	-2
0.71667	-2
0.72033	-2
0.72400	-2
0.72767	-2
0.73133	-2
0.73500	-2
0.73867	-1
0.74233	-1
0.74600	-1
0.74967	-1
0.75333	-1
0.75700	-1
0.76067	-1
0.76433	-1
0.76800	-2
0.77167	-2
0.77533	-2
0.77900	-2
0.78267	-2
0.78633	-2
0.79000	-2
0.79367	-2
0.79733	-2
0.80100	-2
0.80467	-2
0.80833	-2
0.81200	-2
0.81567	-3
0.81933	-3
0.82300	-3
0.82667	-3
0.83033	-3
0.83400	-3
0.83767	-3
0.84133	-3
0.84500	-3
0.84867	-3
0.85233	-2
0.85600	-2
0.85967	-2
0.86333	-2
0.86700	-2
0.87067	-2
0.87433	-2
0.87800	-2
0.88167	-2
0.88533	-2
0.88900	-2
0.89267	-2
0.89633	-3
0.90000	-3
0.90367	-3
0.90733	-3
0.91100	-3
0.91467	-3
0.91833	-3
0.92200	-3
0.92567	-3
0.92933	-3
0.93300	-3
0.93667	-3
0.94033	-2
0.94400	-2
0.94767	-2
0.95133	-2
0.95500	-2
0.95867	-2
0.96233	-2
0.96600	-2
0.96967	-3
0.97333	-3
0.97700	-3
0.98067	-4
0.98433	-4
0.98800	-4
0.99167	-4
0.99533	-4
0.99900	-4
1.00267	-4
1.00633	-4
1.01000	-4
1.01367	-4
1.01733	-4
1.02100	-4
1.02467	-4
1.02833	-3
1.03200	-3
1.03567	-2
1.03933	-2
1.04300	-2
1.04667	-1
1.05033	-1
1.05400	-1
1.05767	-0
1.06133	-0
1.06500	-0
1.06867	-0
1.07233	-0
1.07600	-0
1.07967	-0
1.08333	-0
1.08700	-0
1.09067	-0
1.09433	0
1.09800	0
1.10167	1
1.10533	1
1.10900	2
1.11267	2
1.11633	2
1.12000	2
1.12367	2
1.12733	1
1.13100	1
1.13467	1
1.13833	1
1.14200	0
1.14567	-0
1.14933	-1
1.15300	-1
1.15667	-2
1.16033	-2
1.16400	-3
1.16767	-3
1.17133	-3
1.17500	-3
1.17867	-3
1.18233	-4
1.18600	-4
1.18967	-4
1.19333	-4
1.19700	-4
1.20067	-4
1.20433	-4
1.20800	-5
1.21167	-5
1.21533	-5
1.21900	-5
1.22267	-4
1.22633	-4
1.23000	-3
1.23367	-3
1.23733	-2
1.24100	-2
1.24467	-2
1.24833	-1
1.25200	-1
1.25567	-1
1.25933	-1
1.26300	-1
1.26667	-1
1.27033	-1
1.27400	-1
1.27767	-1
1.28133	-1
1.28500	-1
1.28867	-1
1.29233	-1
1.29600	-1
1.29967	-1
1.30333	-2
1.30700	-2
1.31067	-2
1.31433	-2
1.31800	-2
1.32167	-2
1.32533	-2
1.32900	-2
1.33267	-2
1.33633	-2
1.34000	-1
1.34367	-1
1.34733	-1
1.35100	-0
1.35467	0
1.35833	0
1.36200	0
1.36567	1
1.36933	1
1.37300	1
1.37667	1
1.38033	1
1.38400	1
1.38767	1
1.39133	1
1.39500	1
1.39867	1
1.40233	1
1.40600	1
1.40967	1
1.41333	1
1.41700	1
1.42067	1
1.42433	1
1.42800	0
1.43167	-0
1.43533	-1
1.43900	-1
1.44267	-1
1.44633	-2
1.45000	-2
1.45367	-3
1.45733	-3
1.46100	-3
1.46467	-3
1.46833	-3
1.47200	-3
1.47567	-3
1.47933	-3
1.48300	-4
1.48667	-4
1.49033	-4
1.49400	-3
1.49767	-3
1.50133	-3
1.50500	-3
1.50867	-3
1.51233	-3
1.51600	-3
1.51967	-3
1.52333	-3
1.52700	-3
1.53067	-3
1.53433	-3
1.53800	-3
1.54167	-3
1.54533	-3
1.54900	-3
1.55267	-3
1.55633	-3
1.56000	-3
1.56367	-3
1.56733	-3
1.57100	-3
1.57467	-3
1.57833	-3
1.58200	-3
1.58567	-3
1.58933	-3
1.59300	-3
1.59667	-4
1.60033	-4
1.60400	-5
1.60767	-7
1.61133	-8
1.61500	-10
1.61867	-13
1.62233	-15
1.62600	-18
1.62967	-21
1.63333	-25
1.63700	-28
1.64067	-32
1.64433	-35
1.64800	-39
1.65167	-43
1.65533	-46
1.65900	-50
1.66267	-54
1.66633	-58
1.67000	-63
1.67367	-68
1.67733	-73
1.68100	-78
1.68467	-83
1.68833	-88
1.69200	-92
1.69567	-96
1.69933	-99
1.70300	-101
1.70667	-103
1.71033	-104
1.71400	-105
1.71767	-106
1.72133	-107
1.72500	-107
1.72867	-108
1.73233	-108
1.73600	-108
1.73967	-108
1.74333	-108
1.74700	-109
1.75067	-110
1.75433	-111
1.75800	-111
1.76167	-112
1.76533	-112
1.76900	-112
1.77267	-112
1.77633	-111
1.78000	-111
1.78367	-110
1.78733	-110
1.79100	-109
1.79467	-109
1.79833	-109
1.80200	-110
1.80567	-111
1.80933	-112
1.81300	-113
1.81667	-114
1.82033	-114
1.82400	-114
1.82767	-114
1.83133	-114
1.83500	-114
1.83867	-114
1.84233	-114
1.84600	-114
1.84967	-113
1.85333	-113
1.85700	-113
1.86067	-113
1.86433	-113
1.86800	-113
1.87167	-113
1.87533	-113
1.87900	-113
1.88267	-113
1.88633	-113
1.89000	-113
1.89367	-112
1.89733	-112
1.90100	-113
1.90467	-113
1.90833	-113
1.91200	-114
1.91567	-114
1.91933	-114
1.92300	-114
1.92667	-113
1.93033	-113
1.93400	-112
1.93767	-112
1.94133	-112
1.94500	-112
1.94867	-112
1.95233	-112
1.95600	-112
1.95967	-111
1.96333	-111
1.96700	-111
1.97067	-111
1.97433	-111
1.97800	-111
1.98167	-111
1.98533	-111
1.98900	-111
1.99267	-111
1.99633	-110
2.00000	-110
2.00367	-110
2.00733	-109
2.01100	-109
2.01467	-109
2.01833	-109
2.02200	-108
2.02567	-108
2.02933	-107
2.03300	-107
2.03667	-106
2.04033	-106
2.04400	-106
2.04767	-105
2.05133	-105
2.05500	-105
2.05867	-104
2.06233	-103
2.06600	-103
2.06967	-102
2.07333	-101
2.07700	-100
2.08067	-100
2.08433	-100
2.08800	-100
2.09167	-100
2.09533	-100
2.09900	-100
2.10267	-99
2.10633	-99
2.11000	-99
2.11367	-98
2.11733	-98
2.12100	-97
2.12467	-97
2.12833	-96
2.13200	-96
2.13567	-96
2.13933	-95
2.14300	-95
2.14667	-95
2.15033	-95
2.15400	-95
2.15767	-95
2.16133	-94
2.16500	-94
2.16867	-93
2.17233	-92
2.17600	-92
2.17967	-91
2.18333	-91
2.18700	-90
2.19067	-90
2.19433	-90
2.19800	-90
2.20167	-89
2.20533	-89
2.20900	-88
2.21267	-87
2.21633	-87
2.22000	-88
2.22367	-88
2.22733	-88
2.23100	-88
2.23467	-87
2.23833	-86
2.24200	-85
2.24567	-85
2.24933	-85
2.25300	-85
2.25667	-84
2.26033	-84
2.26400	-84
2.26767	-84
2.27133	-84
2.27500	-84
2.27867	-84
2.28233	-84
2.28600	-84
2.28967	-84
2.29333	-84
2.29700	-84
2.30067	-83
2.30433	-82
2.30800	-81
2.31167	-80
2.31533	-79
2.31900	-78
2.32267	-78
2.32633	-77
2.33000	-77
2.33367	-76
2.33733	-76
2.34100	-76
2.34467	-76
2.34833	-75
2.35200	-74
2.35567	-73
2.35933	-72
2.36300	-72
2.36667	-71
2.37033	-70
2.37400	-68
2.37767	-65
2.38133	-62
2.38500	-59
2.38867	-55
2.39233	-51
2.39600	-47
2.39967	-43
2.40333	-38
2.40700	-33
2.41067	-29
2.41433	-25
2.41800	-22
2.42167	-19
2.42533	-17
2.42900	-15
2.43267	-13
2.43633	-11
2.44000	-10
2.44367	-9
2.44733	-8
2.45100	-7
2.45467	-6
2.45833	-5
2.46200	-4
2.46567	-3
2.46933	-2
2.47300	-2
2.47667	-2
2.48033	-1
2.48400	-1
2.48767	0
2.49133	1
2.49500	3
2.49867	4
2.50233	5
2.50600	6
2.50967	6
2.51333	7
2.51700	7
2.52067	7
2.52433	7
2.52800	7
2.53167	8
2.53533	9
2.53900	10
2.54267	11
2.54633	12
2.55000	13
2.55367	14
2.55733	15
2.56100	15
2.56467	16
2.56833	16
2.57200	16
2.57567	16
2.57933	16
2.58300	16
2.58667	16
2.59033	17
2.59400	17
2.59767	17
2.60133	17
2.60500	17
2.60867	17
2.61233	17
2.61600	17
2.61967	17
2.62333	17
2.62700	17
2.63067	17
2.63433	17
2.63800	17
2.64167	17
2.64533	17
2.64900	17
2.65267	17
2.65633	18
2.66000	18
2.66367	18
2.66733	18
2.67100	19
2.67467	19
2.67833	20
2.68200	20
2.68567	20
2.68933	20
2.69300	21
2.69667	21
2.70033	21
2.70400	21
2.70767	21
2.71133	22
2.71500	22
2.71867	22
2.72233	22
2.72600	23
2.72967	23
2.73333	23
2.73700	24
2.74067	24
2.74433	25
2.74800	25
2.75167	25
2.75533	25
2.75900	26
2.76267	26
2.76633	26
2.77000	27
2.77367	27
2.77733	27
2.78100	27
2.78467	27
2.78833	27
2.79200	27
2.79567	27
2.79933	26
2.80300	26
2.80667	25
2.81033	25
2.81400	25
2.81767	24
2.82133	24
2.82500	24
2.82867	24
2.83233	24
2.83600	24
2.83967	23
2.84333	22
2.84700	20
2.85067	16
2.85433	10
2.85800	1
2.86167	-12
2.86533	-28
2.86900	-49
2.87267	-74
2.87633	-104
2.88000	-138
2.88367	-176
2.88733	-218
2.89100	-264
2.89467	-312
2.89833	-363
2.90200	-416
2.90567	-471
2.90933	-526
2.91300	-582
2.91667	-637
2.92033	-692
2.92400	-746
2.92767	-798
2.93133	-849
2.93500	-902
2.93867	-959
2.94233	-1016
2.94600	-1065
2.94967	-1094
2.95333	-1099
2.95700	-1077
2.96067	-1033
2.96433	-972
2.96800	-900
2.97167	-821
2.97533	-740
2.97900	-660
2.98267	-584
2.98633	-513
2.99000	-447
2.99367	-388
2.99733	-335
3.00100	-288
3.00467	-247
3.00833	-210
3.01200	-179
3.01567	-152
3.01933	-128
3.02300	-108
3.02667	-91
3.03033	-76
3.03400	-63
3.03767	-52
3.04133	-43
3.04500	-35
3.04867	-28
3.05233	-22
3.05600	-17
3.05967	-13
3.06333	-9
3.06700	-6
3.07067	-3
3.07433	-1
3.07800	1
3.08167	3
3.08533	5
3.08900	6
3.09267	7
3.09633	8
3.10000	9
3.10367	10
3.10733	10
3.11100	11
3.11467	12
3.11833	12
3.12200	13
3.12567	13
3.12933	13
3.13300	14
3.13667	14
3.14033	14
3.14400	14
3.14767	14
3.15133	14
3.15500	15
3.15867	15
3.16233	15
3.16600	16
3.16967	16
3.17333	16
3.17700	16
3.18067	17
3.18433	17
3.18800	17
3.19167	17
3.19533	17
3.19900	17
3.20267	18
3.20633	18
3.21000	18
3.21367	19
3.21733	19
3.22100	20
3.22467	20
3.22833	21
3.23200	22
3.23567	22
3.23933	23
3.24300	23
3.24667	24
3.25033	24
3.25400	24
3.25767	25
3.26133	25
3.26500	25
3.26867	26
3.27233	26
3.27600	26
3.27967	26
3.28333	26
3.28700	27
3.29067	27
3.29433	27
3.29800	28
3.30167	28
3.30533	28
3.30900	28
3.31267	28
3.31633	28
3.32000	27
3.32367	27
3.32733	27
3.33100	27
3.33467	27
3.33833	27
3.34200	27
3.34567	26
3.34933	26
3.35300	26
3.35667	26
3.36033	26
3.36400	26
3.36767	26
3.37133	26
3.37500	26
3.37867	26
3.38233	26
3.38600	26
3.38967	26
3.39333	26
3.39700	27
3.40067	27
3.40433	27
3.40800	27
3.41167	27
3.41533	27
3.41900	26
3.42267	26
3.42633	26
3.43000	26
3.43367	26
3.43733	25
3.44100	25
3.44467	25
3.44833	25
3.45200	25
3.45567	25
3.45933	24
3.46300	24
3.46667	24
3.47033	24
3.47400	24
3.47767	24
3.48133	24
3.48500	24
3.48867	24
3.49233	24
3.49600	24
3.49967	24
3.50333	24
3.50700	24
3.51067	25
3.51433	25
3.51800	25
3.52167	25
3.52533	25
3.52900	25
3.53267	25
3.53633	25
3.54000	25
3.54367	25
3.54733	25
3.55100	25
3.55467	25
3.55833	25
3.56200	25
3.56567	25
3.56933	25
3.57300	25
3.57667	25
3.58033	25
3.58400	25
3.58767	25
3.59133	25
3.59500	26
3.59867	26
3.60233	25
3.60600	25
3.60967	25
3.61333	25
3.61700	25
3.62067	25
3.62433	25
3.62800	25
3.63167	25
3.63533	25
3.63900	25
3.64267	25
3.64633	25
3.65000	25
3.65367	25
3.65733	25
3.66100	25
3.66467	25
3.66833	26
3.67200	26
3.67567	26
3.67933	26
3.68300	26
3.68667	26
3.69033	26
3.69400	26
3.69767	26
3.70133	25
3.70500	25
3.70867	25
3.71233	24
3.71600	24
3.71967	24
3.72333	24
3.72700	24
3.73067	24
3.73433	24
3.73800	24
3.74167	24
3.74533	24
3.74900	24
3.75267	24
3.75633	24
3.76000	24
3.76367	25
3.76733	25
3.77100	25
3.77467	25
3.77833	25
3.78200	25
3.78567	25
3.78933	25
3.79300	25
3.79667	25
3.80033	25
3.80400	25
3.80767	24
3.81133	24
3.81500	24
3.81867	24
3.82233	25
3.82600	25
3.82967	25
3.83333	25
3.83700	25
3.84067	25
3.84433	25
3.84800	25
3.85167	25
3.85533	25
3.85900	26
3.86267	26
3.86633	26
3.87000	26
3.87367	26
3.87733	26
3.88100	26
3.88467	27
3.88833	27
3.89200	27
3.89567	27
3.89933	27
3.90300	27
3.90667	27
3.91033	27
3.91400	27
3.91767	27
3.92133	27
3.92500	27
3.92867	27
3.93233	26
3.93600	26
3.93967	25
3.94333	25
3.94700	25
3.95067	25
3.95433	24
3.95800	25
3.96167	25
3.96533	25
3.96900	25
3.97267	25
3.97633	25
3.98000	25
3.98367	25
3.98733	25
3.99100	25
3.99467	26
3.99833	26

[Chromatogram (Ch3)]
Interval(msec)	220
# of Points	1091
Start Time(min)	0.002
End Time(min)	3.998
R.Time (min)	Intensity
0.00167	0
0.00533	1
0.00900	1
0.01267	1
0.01633	1
0.02000	2
0.02367	2
0.02733	3
0.03100	1
0.03467	-2
0.03833	-3
0.04200	-3
0.04567	-3
0.04933	-3
0.05300	-1
0.05667	2
0.06033	3
0.06400	4
0.06767	4
0.07133	2
0.07500	1
0.07867	1
0.08233	3
0.08600	5
0.08967	6
0.09333	6
0.09700	7
0.10067	6
0.10433	6
0.10800	8
0.11167	9
0.11533	9
0.11900	9
0.12267	11
0.12633	12
0.13000	13
0.13367	14
0.13733	14
0.14100	14
0.14467	14
0.14833	13
0.15200	12
0.15567	11
0.15933	11
0.16300	13
0.16667	14
0.17033	13
0.17400	11
0.17767	10
0.18133	10
0.18500	12
0.18867	13
0.19233	15
0.19600	14
0.19967	14
0.20333	13
0.20700	14
0.21067	17
0.21433	17
0.21800	17
0.22167	16
0.22533	16
0.22900	14
0.23267	14
0.23633	14
0.24000	14
0.24367	15
0.24733	15
0.25100	15
0.25467	15
0.25833	15
0.26200	13
0.26567	12
0.26933	12
0.27300	12
0.27667	13
0.28033	15
0.28400	15
0.28767	12
0.29133	13
0.29500	14
0.29867	16
0.30233	17
0.30600	16
0.30967	14
0.31333	13
0.31700	11
0.32067	10
0.32433	12
0.32800	14
0.33167	16
0.33533	16
0.33900	17
0.34267	18
0.34633	19
0.35000	17
0.35367	14
0.35733	13
0.36100	14
0.36467	14
0.36833	15
0.37200	17
0.37567	17
0.37933	16
0.38300	14
0.38667	15
0.39033	16
0.39400	17
0.39767	15
0.40133	14
0.40500	15
0.40867	16
0.41233	16
0.41600	17
0.41967	16
0.42333	13
0.42700	10
0.43067	8
0.43433	8
0.43800	9
0.44167	11
0.44533	12
0.44900	10
0.45267	7
0.45633	7
0.46000	7
0.46367	6
0.46733	5
0.47100	6
0.47467	7
0.47833	8
0.48200	7
0.48567	6
0.48933	8
0.49300	8
0.49667	6
0.50033	6
0.50400	5
0.50767	8
0.51133	10
0.51500	10
0.51867	8
0.52233	6
0.52600	6
0.52967	5
0.53333	5
0.53700	4
0.54067	3
0.54433	2
0.54800	2
0.55167	3
0.55533	6
0.55900	9
0.56267	11
0.56633	12
0.57000	13
0.57367	12
0.57733	12
0.58100	8
0.58467	6
0.58833	5
0.59200	5
0.59567	7
0.59933	9
0.60300	10
0.60667	11
0.61033	10
0.61400	11
0.61767	14
0.62133	14
0.62500	13
0.62867	12
0.63233	12
0.63600	10
0.63967	6
0.64333	4
0.64700	6
0.65067	6
0.65433	5
0.65800	5
0.66167	6
0.66533	7
0.66900	8
0.67267	7
0.67633	6
0.68000	6
0.68367	6
0.68733	6
0.69100	6
0.69467	6
0.69833	6
0.70200	7
0.70567	8
0.70933	8
0.71300	9
0.71667	7
0.72033	5
0.72400	4
0.72767	5
0.73133	5
0.73500	4
0.73867	4
0.74233	3
0.74600	4
0.74967	4
0.75333	4
0.75700	2
0.76067	1
0.76433	1
0.76800	-1
0.77167	-3
0.77533	-2
0.77900	0
0.78267	0
0.78633	-0
0.79000	1
0.79367	2
0.79733	2
0.80100	2
0.80467	2
0.80833	3
0.81200	2
0.81567	2
0.81933	3
0.82300	3
0.82667	5
0.83033	6
0.83400	7
0.83767	5
0.84133	3
0.84500	1
0.84867	1
0.85233	1
0.85600	0
0.85967	-1
0.86333	-2
0.86700	-2
0.87067	-0
0.87433	3
0.87800	6
0.88167	8
0.88533	7
0.88900	7
0.89267	6
0.89633	4
0.90000	3
0.90367	4
0.90733	2
0.91100	2
0.91467	2
0.91833	1
0.92200	1
0.92567	1
0.92933	1
0.93300	1
0.93667	1
0.94033	-0
0.94400	-1
0.94767	-0
0.95133	2
0.95500	3
0.95867	3
0.96233	3
0.96600	4
0.96967	3
0.97333	5
0.97700	4
0.98067	3
0.98433	4
0.98800	4
0.99167	3
0.99533	3
0.99900	2
1.00267	2
1.00633	4
1.01000	5
1.01367	6
1.01733	4
1.02100	3
1.02467	4
1.02833	4
1.03200	4
1.03567	4
1.03933	5
1.04300	7
1.04667	9
1.05033	9
1.05400	8
1.05767	7
1.06133	7
1.06500	6
1.06867	4
1.07233	4
1.07600	4
1.07967	6
1.08333	6
1.08700	4
1.09067	4
1.09433	5
1.09800	4
1.10167	4
1.10533	3
1.10900	4
1.11267	3
1.11633	2
1.12000	-0
1.12367	-1
1.12733	-1
1.13100	1
1.13467	2
1.13833	4
1.14200	6
1.14567	8
1.14933	7
1.15300	5
1.15667	6
1.16033	7
1.16400	8
1.16767	9
1.17133	10
1.17500	10
1.17867	9
1.18233	8
1.18600	7
1.18967	7
1.19333	6
1.19700	7
1.20067	7
1.20433	8
1.20800	9
1.21167	9
1.21533	6
1.21900	6
1.22267	6
1.22633	5
1.23000	5
1.23367	4
1.23733	3
1.24100	4
1.24467	5
1.24833	7
1.25200	8
1.25567	9
1.25933	11
1.26300	13
1.26667	14
1.27033	15
1.27400	14
1.27767	11
1.28133	10
1.28500	9
1.28867	8
1.29233	8
1.29600	8
1.29967	7
1.30333	5
1.30700	5
1.31067	5
1.31433	9
1.31800	11
1.32167	13
1.32533	12
1.32900	12
1.33267	13
1.33633	14
1.34000	15
1.34367	17
1.34733	15
1.35100	12
1.35467	11
1.35833	12
1.36200	13
1.36567	15
1.36933	15
1.37300	16
1.37667	17
1.38033	16
1.38400	15
1.38767	14
1.39133	13
1.39500	13
1.39867	12
1.40233	12
1.40600	13
1.40967	15
1.41333	19
1.41700	23
1.42067	24
1.42433	22
1.42800	21
1.43167	20
1.43533	20
1.43900	20
1.44267	22
1.44633	24
1.45000	24
1.45367	22
1.45733	21
1.46100	23
1.46467	24
1.46833	23
1.47200	23
1.47567	24
1.47933	26
1.48300	28
1.48667	29
1.49033	28
1.49400	27
1.49767	26
1.50133	25
1.50500	22
1.50867	20
1.51233	21
1.51600	22
1.51967	23
1.52333	20
1.52700	19
1.53067	20
1.53433	20
1.53800	21
1.54167	22
1.54533	24
1.54900	26
1.55267	25
1.55633	23
1.56000	22
1.56367	21
1.56733	22
1.57100	22
1.57467	22
1.57833	21
1.58200	20
1.58567	21
1.58933	21
1.59300	20
1.59667	20
1.60033	21
1.60400	21
1.60767	22
1.61133	23
1.61500	23
1.61867	23
1.62233	23
1.62600	21
1.62967	20
1.63333	19
1.63700	20
1.64067	22
1.64433	23
1.64800	22
1.65167	21
1.65533	22
1.65900	23
1.66267	24
1.66633	24
1.67000	25
1.67367	26
1.67733	26
1.68100	28
1.68467	31
1.68833	32
1.69200	33
1.69567	33
1.69933	33
1.70300	33
1.70667	34
1.71033	35
1.71400	34
1.71767	33
1.72133	31
1.72500	31
1.72867	34
1.73233	37
1.73600	38
1.73967	38
1.74333	35
1.74700	34
1.75067	35
1.75433	38
1.75800	39
1.76167	40
1.76533	40
1.76900	39
1.77267	38
1.77633	38
1.78000	38
1.78367	37
1.78733	37
1.79100	37
1.79467	36
1.79833	37
1.80200	39
1.80567	39
1.80933	40
1.81300	40
1.81667	41
1.82033	42
1.82400	43
1.82767	45
1.83133	45
1.83500	44
1.83867	43
1.84233	44
1.84600	47
1.84967	49
1.85333	53
1.85700	55
1.86067	56
1.86433	57
1.86800	56
1.87167	57
1.87533	56
1.87900	54
1.88267	53
1.88633	53
1.89000	53
1.89367	53
1.89733	55
1.90100	57
1.90467	60
1.90833	59
1.91200	57
1.91567	58
1.91933	60
1.92300	61
1.92667	63
1.93033	64
1.93400	64
1.93767	64
1.94133	65
1.94500	68
1.94867	73
1.95233	75
1.95600	75
1.95967	76
1.96333	77
1.96700	79
1.97067	79
1.97433	80
1.97800	81
1.98167	80
1.98533	80
1.98900	83
1.99267	87
1.99633	89
2.00000	91
2.00367	92
2.00733	92
2.01100	93
2.01467	94
2.01833	95
2.02200	96
2.02567	95
2.02933	96
2.03300	98
2.03667	100
2.04033	101
2.04400	101
2.04767	101
2.05133	100
2.05500	102
2.05867	105
2.06233	107
2.06600	110
2.06967	115
2.07333	118
2.07700	119
2.08067	119
2.08433	121
2.08800	122
2.09167	124
2.09533	127
2.09900	130
2.10267	133
2.10633	134
2.11000	134
2.11367	134
2.11733	136
2.12100	137
2.12467	136
2.12833	135
2.13200	136
2.13567	139
2.13933	141
2.14300	143
2.14667	145
2.15033	148
2.15400	150
2.15767	151
2.16133	154
2.16500	156
2.16867	157
2.17233	158
2.17600	159
2.17967	161
2.18333	160
2.18700	159
2.19067	161
2.19433	164
2.19800	166
2.20167	169
2.20533	170
2.20900	170
2.21267	170
2.21633	173
2.22000	175
2.22367	179
2.22733	181
2.23100	182
2.23467	182
2.23833	184
2.24200	184
2.24567	184
2.24933	186
2.25300	188
2.25667	190
2.26033	193
2.26400	193
2.26767	192
2.27133	193
2.27500	195
2.27867	197
2.28233	200
2.28600	201
2.28967	200
2.29333	202
2.29700	202
2.30067	202
2.30433	202
2.30800	204
2.31167	207
2.31533	209
2.31900	212
2.32267	212
2.32633	211
2.33000	210
2.33367	212
2.33733	214
2.34100	216
2.34467	218
2.34833	219
2.35200	221
2.35567	224
2.35933	227
2.36300	229
2.36667	229
2.37033	230
2.37400	232
2.37767	234
2.38133	235
2.38500	233
2.38867	230
2.39233	229
2.39600	230
2.39967	234
2.40333	239
2.40700	243
2.41067	246
2.41433	248
2.41800	250
2.42167	251
2.42533	253
2.42900	255
2.43267	255
2.43633	256
2.44000	257
2.44367	311
2.44733	460
2.45100	625
2.45467	762
2.45833	841
2.46200	850
2.46567	822
2.46933	784
2.47300	753
2.47667	736
2.48033	719
2.48400	690
2.48767	644
2.49133	594
2.49500	550
2.49867	515
2.50233	490
2.50600	474
2.50967	469
2.51333	476
2.51700	493
2.52067	516
2.52433	536
2.52800	547
2.53167	544
2.53533	527
2.53900	502
2.54267	471
2.54633	438
2.55000	408
2.55367	383
2.55733	361
2.56100	343
2.56467	329
2.56833	321
2.57200	315
2.57567	313
2.57933	313
2.58300	313
2.58667	315
2.59033	317
2.59400	319
2.59767	322
2.60133	322
2.60500	319
2.60867	314
2.61233	305
2.61600	294
2.61967	284
2.62333	275
2.62700	265
2.63067	255
2.63433	245
2.63800	233
2.64167	220
2.64533	208
2.64900	197
2.65267	186
2.65633	175
2.66000	164
2.66367	154
2.66733	143
2.67100	131
2.67467	125
2.67833	119
2.68200	114
2.68567	111
2.68933	109
2.69300	110
2.69667	112
2.70033	117
2.70400	123
2.70767	126
2.71133	127
2.71500	131
2.71867	136
2.72233	140
2.72600	144
2.72967	147
2.73333	151
2.73700	153
2.74067	156
2.74433	160
2.74800	166
2.75167	170
2.75533	173
2.75900	177
2.76267	180
2.76633	182
2.77000	185
2.77367	188
2.77733	190
2.78100	192
2.78467	196
2.78833	200
2.79200	205
2.79567	211
2.79933	216
2.80300	220
2.80667	225
2.81033	231
2.81400	236
2.81767	244
2.82133	255
2.82500	272
2.82867	305
2.83233	369
2.83600	483
2.83967	670
2.84333	950
2.84700	1338
2.85067	1830
2.85433	2404
2.85800	3027
2.86167	3646
2.86533	4211
2.86900	4682
2.87267	5023
2.87633	5212
2.88000	5252
2.88367	5157
2.88733	4953
2.89100	4673
2.89467	4341
2.89833	3983
2.90200	3619
2.90567	3263
2.90933	2925
2.91300	2608
2.91667	2319
2.92033	2058
2.92400	1827
2.92767	1621
2.93133	1439
2.93500	1276
2.93867	1134
2.94233	1010
2.94600	905
2.94967	814
2.95333	733
2.95700	662
2.96067	598
2.96433	544
2.96800	498
2.97167	458
2.97533	423
2.97900	393
2.98267	367
2.98633	344
2.99000	324
2.99367	306
2.99733	291
3.00100	277
3.00467	265
3.00833	255
3.01200	248
3.01567	242
3.01933	235
3.02300	229
3.02667	226
3.03033	223
3.03400	220
3.03767	216
3.04133	212
3.04500	211
3.04867	210
3.05233	208
3.05600	207
3.05967	206
3.06333	206
3.06700	206
3.07067	206
3.07433	206
3.07800	206
3.08167	206
3.08533	205
3.08900	203
3.09267	202
3.09633	201
3.10000	201
3.10367	201
3.10733	202
3.11100	202
3.11467	202
3.11833	203
3.12200	203
3.12567	203
3.12933	202
3.13300	201
3.13667	200
3.14033	200
3.14400	200
3.14767	201
3.15133	201
3.15500	202
3.15867	204
3.16233	206
3.16600	208
3.16967	212
3.17333	216
3.17700	217
3.18067	217
3.18433	218
3.18800	219
3.19167	220
3.19533	223
3.19900	224
3.20267	224
3.20633	224
3.21000	224
3.21367	225
3.21733	228
3.22100	232
3.22467	235
3.22833	236
3.23200	236
3.23567	237
3.23933	237
3.24300	239
3.24667	243
3.25033	244
3.25400	245
3.25767	246
3.26133	249
3.26500	252
3.26867	254
3.27233	255
3.27600	257
3.27967	260
3.28333	262
3.28700	264
3.29067	265
3.29433	264
3.29800	266
3.30167	268
3.30533	270
3.30900	274
3.31267	277
3.31633	280
3.32000	282
3.32367	284
3.32733	287
3.33100	288
3.33467	289
3.33833	290
3.34200	292
3.34567	294
3.34933	296
3.35300	297
3.35667	297
3.36033	299
3.36400	301
3.36767	301
3.37133	303
3.37500	304
3.37867	305
3.38233	306
3.38600	307
3.38967	309
3.39333	311
3.39700	315
3.40067	318
3.40433	321
3.40800	323
3.41167	326
3.41533	326
3.41900	326
3.42267	325
3.42633	324
3.43000	324
3.43367	324
3.43733	324
3.44100	323
3.44467	322
3.44833	323
3.45200	326
3.45567	327
3.45933	327
3.46300	327
3.46667	327
3.47033	329
3.47400	330
3.47767	330
3.48133	329
3.48500	328
3.48867	328
3.49233	330
3.49600	333
3.49967	334
3.50333	332
3.50700	330
3.51067	329
3.51433	327
3.51800	327
3.52167	328
3.52533	327
3.52900	326
3.53267	327
3.53633	328
3.54000	328
3.54367	330
3.54733	331
3.55100	332
3.55467	330
3.55833	326
3.56200	322
3.56567	322
3.56933	322
3.57300	321
3.57667	321
3.58033	323
3.58400	323
3.58767	321
3.59133	322
3.59500	320
3.59867	320
3.60233	325
3.60600	327
3.60967	327
3.61333	325
3.61700	325
3.62067	326
3.62433	325
3.62800	324
3.63167	325
3.63533	326
3.63900	326
3.64267	326
3.64633	325
3.65000	323
3.65367	323
3.65733	324
3.66100	323
3.66467	322
3.66833	322
3.67200	320
3.67567	321
3.67933	321
3.68300	322
3.68667	321
3.69033	321
3.69400	322
3.69767	323
3.70133	324
3.70500	326
3.70867	327
3.71233	326
3.71600	326
3.71967	325
3.72333	324
3.72700	324
3.73067	324
3.73433	323
3.73800	323
3.74167	324
3.74533	323
3.74900	318
3.75267	313
3.75633	306
3.76000	293
3.76367	281
3.76733	273
3.77100	270
3.77467	272
3.77833	278
3.78200	286
3.78567	296
3.78933	311
3.79300	327
3.79667	345
3.80033	361
3.80400	377
3.80767	394
3.81133	413
3.81500	433
3.81867	452
3.82233	470
3.82600	488
3.82967	503
3.83333	515
3.83700	528
3.84067	541
3.84433	552
3.84800	561
3.85167	570
3.85533	576
3.85900	581
3.86267	583
3.86633	586
3.87000	589
3.87367	591
3.87733	594
3.88100	597
3.88467	600
3.88833	602
3.89200	604
3.89567	608
3.89933	612
3.90300	615
3.90667	616
3.91033	617
3.91400	618
3.91767	619
3.92133	620
3.92500	619
3.92867	619
3.93233	618
3.93600	622
3.93967	625
3.94333	625
3.94700	625
3.95067	625
3.95433	625
3.95800	624
3.96167	624
3.96533	624
3.96900	622
3.97267	620
3.97633	620
3.98000	618
3.98367	617
3.98733	616
3.99100	617
3.99467	616
3.99833	613

[Status Trace (Column Oven Temperature)]
Interval(msec)	1000
# of Points	240
Start Time(min)	0.009
End Time(min)	3.993
Intensity Units	
Intensity Multiplier	1
R.Time (min)	Intensity
0.00930	35.02
0.02597	35.01
0.04263	35.00
0.05930	35.01
0.07597	35.03
0.09263	35.04
0.10930	35.06
0.12597	35.07
0.14263	35.06
0.15930	35.05
0.17597	35.05
0.19263	35.05
0.20930	35.05
0.22597	35.04
0.24263	35.02
0.25930	35.01
0.27597	35.01
0.29263	35.00
0.30930	35.00
0.32597	35.00
0.34263	34.99
0.35930	35.00
0.37597	35.01
0.39263	35.01
0.40930	35.01
0.42597	35.01
0.44263	34.99
0.45930	34.99
0.47597	35.00
0.49263	35.00
0.50930	35.00
0.52597	35.00
0.54263	34.99
0.55930	34.99
0.57597	35.00
0.59263	35.00
0.60930	34.99
0.62597	34.98
0.64263	34.97
0.65930	34.99
0.67597	34.98
0.69263	34.98
0.70930	34.99
0.72597	34.99
0.74263	34.98
0.75930	34.98
0.77597	34.98
0.79263	34.98
0.80930	34.99
0.82597	34.99
0.84263	35.00
0.85930	35.00
0.87597	35.00
0.89263	35.00
0.90930	35.00
0.92597	35.00
0.94263	35.00
0.95930	35.01
0.97597	35.03
0.99263	35.03
1.00930	35.03
1.02597	35.03
1.04263	35.02
1.05930	35.01
1.07597	35.00
1.09263	34.99
1.10930	34.98
1.12597	34.97
1.14263	34.97
1.15930	34.98
1.17597	34.99
1.19263	35.01
1.20930	35.02
1.22597	35.01
1.24263	35.00
1.25930	35.01
1.27597	35.01
1.29263	35.01
1.30930	35.01
1.32597	35.01
1.34263	35.00
1.35930	34.99
1.37597	34.98
1.39263	34.97
1.40930	34.98
1.42597	34.97
1.44263	34.97
1.45930	34.97
1.47597	34.97
1.49263	34.97
1.50930	34.97
1.52597	34.98
1.54263	34.97
1.55930	34.98
1.57597	34.98
1.59263	35.00
1.60930	35.06
1.62597	35.19
1.64263	35.39
1.65930	35.64
1.67597	35.99
1.69263	36.38
1.70930	36.72
1.72597	37.04
1.74263	37.38
1.75930	37.73
1.77597	38.04
1.79263	38.36
1.80930	38.71
1.82597	39.04
1.84263	39.36
1.85930	39.69
1.87597	40.02
1.89263	40.35
1.90930	40.69
1.92597	41.00
1.94263	41.34
1.95930	41.66
1.97597	42.01
1.99263	42.33
2.00930	42.68
2.02597	43.01
2.04263	43.33
2.05930	43.65
2.07597	43.97
2.09263	44.30
2.10930	44.63
2.12597	44.97
2.14263	45.31
2.15930	45.62
2.17597	45.94
2.19263	46.27
2.20930	46.59
2.22597	46.91
2.24263	47.23
2.25930	47.54
2.27597	47.88
2.29263	48.22
2.30930	48.54
2.32597	48.87
2.34263	49.17
2.35930	49.45
2.37597	49.65
2.39263	49.71
2.40930	49.71
2.42597	49.72
2.44263	49.73
2.45930	49.72
2.47597	49.75
2.49263	49.75
2.50930	49.77
2.52597	49.80
2.54263	49.80
2.55930	49.81
2.57597	49.82
2.59263	49.83
2.60930	49.83
2.62597	49.83
2.64263	49.84
2.65930	49.85
2.67597	49.84
2.69263	49.86
2.70930	49.87
2.72597	49.87
2.74263	49.87
2.75930	49.86
2.77597	49.85
2.79263	49.85
2.80930	49.87
2.82597	49.89
2.84263	49.91
2.85930	49.94
2.87597	49.96
2.89263	49.98
2.90930	49.99
2.92597	49.99
2.94263	49.99
2.95930	49.98
2.97597	49.98
2.99263	49.97
3.00930	49.98
3.02597	49.99
3.04263	49.99
3.05930	49.99
3.07597	50.00
3.09263	50.00
3.10930	50.02
3.12597	50.03
3.14263	50.06
3.15930	50.07
3.17597	50.09
3.19263	50.11
3.20930	50.12
3.22597	50.11
3.24263	50.10
3.25930	50.08
3.27597	50.07
3.29263	50.04
3.30930	50.03
3.32597	50.02
3.34263	50.01
3.35930	50.02
3.37597	50.01
3.39263	50.01
3.40930	50.00
3.42597	50.00
3.44263	50.01
3.45930	50.01
3.47597	50.01
3.49263	50.02
3.50930	50.02
3.52597	50.02
3.54263	50.02
3.55930	50.03
3.57597	50.03
3.59263	50.03
3.60930	50.03
3.62597	50.04
3.64263	50.04
3.65930	50.04
3.67597	50.04
3.69263	50.04
3.70930	50.06
3.72597	50.07
3.74263	50.07
3.75930	50.08
3.77597	50.08
3.79263	50.08
3.80930	50.09
3.82597	50.08
3.84263	50.08
3.85930	50.08
3.87597	50.07
3.89263	50.06
3.90930	50.05
3.92597	50.06
3.94263	50.07
3.95930	50.08
3.97597	50.08
3.99263	50.09

[Status Trace (Injection Unit Temperature)]
Interval(msec)	1000
# of Points	240
Start Time(min)	0.009
End Time(min)	3.993
Intensity Units	
Intensity Multiplier	1
R.Time (min)	Intensity
0.00930	99.98
0.02597	99.98
0.04263	99.98
0.05930	99.98
0.07597	99.98
0.09263	99.98
0.10930	99.98
0.12597	99.98
0.14263	99.98
0.15930	99.98
0.17597	99.98
0.19263	99.98
0.20930	99.98
0.22597	99.98
0.24263	99.98
0.25930	99.98
0.27597	99.98
0.29263	99.98
0.30930	99.98
0.32597	99.98
0.34263	99.98
0.35930	99.97
0.37597	99.98
0.39263	99.98
0.40930	99.98
0.42597	99.98
0.44263	99.98
0.45930	99.98
0.47597	99.97
0.49263	99.98
0.50930	99.98
0.52597	99.98
0.54263	99.98
0.55930	99.98
0.57597	99.97
0.59263	99.98
0.60930	99.98
0.62597	99.98
0.64263	99.98
0.65930	99.98
0.67597	99.98
0.69263	99.98
0.70930	99.97
0.72597	99.98
0.74263	99.98
0.75930	99.98
0.77597	99.98
0.79263	99.98
0.80930	99.98
0.82597	99.98
0.84263	99.98
0.85930	99.97
0.87597	99.97
0.89263	99.98
0.90930	99.98
0.92597	99.98
0.94263	99.98
0.95930	99.99
0.97597	99.98
0.99263	99.98
1.00930	99.98
1.02597	99.98
1.04263	99.98
1.05930	99.98
1.07597	99.98
1.09263	99.98
1.10930	99.97
1.12597	99.98
1.14263	99.98
1.15930	99.98
1.17597	99.98
1.19263	99.98
1.20930	99.98
1.22597	99.98
1.24263	99.98
1.25930	99.98
1.27597	99.98
1.29263	99.98
1.30930	99.98
1.32597	99.98
1.34263	99.98
1.35930	99.98
1.37597	99.98
1.39263	99.99
1.40930	99.98
1.42597	99.98
1.44263	99.98
1.45930	99.98
1.47597	99.98
1.49263	99.98
1.50930	99.98
1.52597	99.98
1.54263	99.98
1.55930	99.97
1.57597	99.99
1.59263	99.98
1.60930	99.98
1.62597	99.98
1.64263	99.98
1.65930	99.98
1.67597	99.98
1.69263	99.98
1.70930	99.99
1.72597	99.98
1.74263	99.98
1.75930	99.98
1.77597	99.98
1.79263	99.98
1.80930	99.98
1.82597	99.98
1.84263	99.98
1.85930	99.98
1.87597	99.98
1.89263	99.98
1.90930	99.97
1.92597	99.97
1.94263	99.97
1.95930	99.97
1.97597	99.98
1.99263	99.97
2.00930	99.97
2.02597	99.97
2.04263	99.98
2.05930	99.97
2.07597	99.97
2.09263	99.97
2.10930	99.97
2.12597	99.97
2.14263	99.97
2.15930	99.97
2.17597	99.97
2.19263	99.97
2.20930	99.97
2.22597	99.97
2.24263	99.98
2.25930	99.97
2.27597	99.97
2.29263	99.97
2.30930	99.97
2.32597	99.97
2.34263	99.97
2.35930	99.98
2.37597	99.97
2.39263	99.97
2.40930	99.97
2.42597	99.98
2.44263	99.98
2.45930	99.97
2.47597	99.98
2.49263	99.97
2.50930	99.97
2.52597	99.98
2.54263	99.97
2.55930	99.98
2.57597	99.98
2.59263	99.98
2.60930	99.98
2.62597	99.98
2.64263	99.98
2.65930	99.98
2.67597	99.98
2.69263	99.99
2.70930	99.99
2.72597	99.99
2.74263	99.98
2.75930	99.99
2.77597	99.99
2.79263	99.99
2.80930	99.99
2.82597	99.99
2.84263	99.99
2.85930	100.00
2.87597	100.00
2.89263	100.00
2.90930	100.00
2.92597	100.00
2.94263	100.00
2.95930	100.00
2.97597	100.01
2.99263	100.01
3.00930	100.00
3.02597	100.01
3.04263	100.01
3.05930	100.01
3.07597	100.01
3.09263	100.01
3.10930	100.02
3.12597	100.01
3.14263	100.01
3.15930	100.01
3.17597	100.02
3.19263	100.02
3.20930	100.02
3.22597	100.01
3.24263	100.02
3.25930	100.02
3.27597	100.02
3.29263	100.02
3.30930	100.02
3.32597	100.02
3.34263	100.02
3.35930	100.02
3.37597	100.03
3.39263	100.02
3.40930	100.02
3.42597	100.03
3.44263	100.03
3.45930	100.03
3.47597	100.03
3.49263	100.03
3.50930	100.03
3.52597	100.03
3.54263	100.04
3.55930	100.04
3.57597	100.04
3.59263	100.04
3.60930	100.04
3.62597	100.04
3.64263	100.04
3.65930	100.04
3.67597	100.04
3.69263	100.04
3.70930	100.04
3.72597	100.04
3.74263	100.04
3.75930	100.04
3.77597	100.04
3.79263	100.04
3.80930	100.04
3.82597	100.04
3.84263	100.04
3.85930	100.04
3.87597	100.05
3.89263	100.04
3.90930	100.04
3.92597	100.04
3.94263	100.04
3.95930	100.05
3.97597	100.05
3.99263	100.05

[Status Trace (Carrier Gas Pressure)]
Interval(msec)	1000
# of Points	240
Start Time(min)	0.009
End Time(min)	3.993
Intensity Units	
Intensity Multiplier	1
R.Time (min)	Intensity
0.00930	58.00
0.02597	55.17
0.04263	57.27
0.05930	59.43
0.07597	59.20
0.09263	58.04
0.10930	57.98
0.12597	58.01
0.14263	58.01
0.15930	58.00
0.17597	58.00
0.19263	58.00
0.20930	58.00
0.22597	58.00
0.24263	58.00
0.25930	58.00
0.27597	58.00
0.29263	58.00
0.30930	58.00
0.32597	58.00
0.34263	58.00
0.35930	58.00
0.37597	58.00
0.39263	58.00
0.40930	58.00
0.42597	58.00
0.44263	58.00
0.45930	58.00
0.47597	58.00
0.49263	58.00
0.50930	58.00
0.52597	58.00
0.54263	58.00
0.55930	58.00
0.57597	58.00
0.59263	58.00
0.60930	58.00
0.62597	58.00
0.64263	58.00
0.65930	58.00
0.67597	58.00
0.69263	58.00
0.70930	58.00
0.72597	58.00
0.74263	58.00
0.75930	58.00
0.77597	58.00
0.79263	58.00
0.80930	58.00
0.82597	58.00
0.84263	58.00
0.85930	58.00
0.87597	58.00
0.89263	58.00
0.90930	58.00
0.92597	58.00
0.94263	58.00
0.95930	58.00
0.97597	58.00
0.99263	58.00
1.00930	58.00
1.02597	58.00
1.04263	58.00
1.05930	58.00
1.07597	58.00
1.09263	58.00
1.10930	58.00
1.12597	58.00
1.14263	58.00
1.15930	58.00
1.17597	58.00
1.19263	58.00
1.20930	58.00
1.22597	58.00
1.24263	58.00
1.25930	58.00
1.27597	58.00
1.29263	58.00
1.30930	58.00
1.32597	58.00
1.34263	58.00
1.35930	58.00
1.37597	58.00
1.39263	58.00
1.40930	58.00
1.42597	58.00
1.44263	58.00
1.45930	58.00
1.47597	58.00
1.49263	58.00
1.50930	58.00
1.52597	58.00
1.54263	58.00
1.55930	58.00
1.57597	58.00
1.59263	58.00
1.60930	58.00
1.62597	58.00
1.64263	58.00
1.65930	58.00
1.67597	58.01
1.69263	58.00
1.70930	58.00
1.72597	58.00
1.74263	58.00
1.75930	58.00
1.77597	58.00
1.79263	58.00
1.80930	58.00
1.82597	58.00
1.84263	58.00
1.85930	58.00
1.87597	58.00
1.89263	58.00
1.90930	58.00
1.92597	58.00
1.94263	58.00
1.95930	58.00
1.97597	58.00
1.99263	58.00
2.00930	58.00
2.02597	58.00
2.04263	58.00
2.05930	58.00
2.07597	58.00
2.09263	58.00
2.10930	58.00
2.12597	58.00
2.14263	58.00
2.15930	58.00
2.17597	58.00
2.19263	58.00
2.20930	58.00
2.22597	58.00
2.24263	58.00
2.25930	58.00
2.27597	58.00
2.29263	58.00
2.30930	58.00
2.32597	58.00
2.34263	58.00
2.35930	58.00
2.37597	58.00
2.39263	57.99
2.40930	57.99
2.42597	58.00
2.44263	58.00
2.45930	58.00
2.47597	58.00
2.49263	58.00
2.50930	58.00
2.52597	57.99
2.54263	58.00
2.55930	58.00
2.57597	58.00
2.59263	58.00
2.60930	58.00
2.62597	58.00
2.64263	58.00
2.65930	58.00
2.67597	58.00
2.69263	58.00
2.70930	58.00
2.72597	58.00
2.74263	58.00
2.75930	58.00
2.77597	58.00
2.79263	58.00
2.80930	58.00
2.82597	58.00
2.84263	58.00
2.85930	58.00
2.87597	58.00
2.89263	58.00
2.90930	58.00
2.92597	58.00
2.94263	58.00
2.95930	58.00
2.97597	58.00
2.99263	58.00
3.00930	58.00
3.02597	58.00
3.04263	58.00
3.05930	58.00
3.07597	58.00
3.09263	58.00
3.10930	58.00
3.12597	58.00
3.14263	58.00
3.15930	58.00
3.17597	58.00
3.19263	58.00
3.20930	58.00
3.22597	58.00
3.24263	58.00
3.25930	58.00
3.27597	58.00
3.29263	58.00
3.30930	58.00
3.32597	58.00
3.34263	58.00
3.35930	58.00
3.37597	58.00
3.39263	58.00
3.40930	58.00
3.42597	58.00
3.44263	58.00
3.45930	58.00
3.47597	58.00
3.49263	58.00
3.50930	58.00
3.52597	58.00
3.54263	58.00
3.55930	58.00
3.57597	58.00
3.59263	58.00
3.60930	58.00
3.62597	58.00
3.64263	58.00
3.65930	58.00
3.67597	58.00
3.69263	58.00
3.70930	58.00
3.72597	58.00
3.74263	58.00
3.75930	58.00
3.77597	58.00
3.79263	58.00
3.80930	58.00
3.82597	58.00
3.84263	58.00
3.85930	58.00
3.87597	58.00
3.89263	58.00
3.90930	58.00
3.92597	58.00
3.94263	58.00
3.95930	58.00
3.97597	58.00
3.99263	58.00

[Status Trace (Carrier Gas Flow)]
Interval(msec)	1000
# of Points	240
Start Time(min)	0.009
End Time(min)	3.993
Intensity Units	
Intensity Multiplier	1
R.Time (min)	Intensity
0.00930	34.52
0.02597	34.53
0.04263	34.55
0.05930	34.55
0.07597	34.50
0.09263	34.52
0.10930	34.52
0.12597	34.53
0.14263	34.51
0.15930	34.52
0.17597	34.53
0.19263	34.51
0.20930	34.52
0.22597	34.52
0.24263	34.52
0.25930	34.52
0.27597	34.52
0.29263	34.51
0.30930	34.52
0.32597	34.51
0.34263	34.51
0.35930	34.52
0.37597	34.51
0.39263	34.52
0.40930	34.52
0.42597	34.52
0.44263	34.51
0.45930	34.52
0.47597	34.51
0.49263	34.52
0.50930	34.51
0.52597	34.53
0.54263	34.52
0.55930	34.51
0.57597	34.52
0.59263	34.52
0.60930	34.52
0.62597	34.52
0.64263	34.52
0.65930	34.52
0.67597	34.52
0.69263	34.52
0.70930	34.52
0.72597	34.52
0.74263	34.52
0.75930	34.52
0.77597	34.52
0.79263	34.52
0.80930	34.52
0.82597	34.52
0.84263	34.52
0.85930	34.52
0.87597	34.52
0.89263	34.52
0.90930	34.52
0.92597	34.52
0.94263	34.52
0.95930	34.52
0.97597	34.52
0.99263	34.52
1.00930	34.52
1.02597	34.52
1.04263	34.52
1.05930	34.52
1.07597	34.51
1.09263	34.52
1.10930	34.53
1.12597	34.52
1.14263	34.52
1.15930	34.52
1.17597	34.52
1.19263	34.51
1.20930	34.51
1.22597	34.51
1.24263	34.52
1.25930	34.52
1.27597	34.52
1.29263	34.51
1.30930	34.52
1.32597	34.52
1.34263	34.51
1.35930	34.52
1.37597	34.52
1.39263	34.52
1.40930	34.52
1.42597	34.52
1.44263	34.52
1.45930	34.52
1.47597	34.52
1.49263	34.52
1.50930	34.52
1.52597	34.51
1.54263	34.52
1.55930	34.52
1.57597	34.52
1.59263	34.51
1.60930	34.52
1.62597	34.52
1.64263	34.52
1.65930	34.52
1.67597	34.52
1.69263	34.52
1.70930	34.52
1.72597	34.51
1.74263	34.51
1.75930	34.52
1.77597	34.52
1.79263	34.52
1.80930	34.52
1.82597	34.52
1.84263	34.52
1.85930	34.52
1.87597	34.52
1.89263	34.52
1.90930	34.52
1.92597	34.52
1.94263	34.51
1.95930	34.52
1.97597	34.52
1.99263	34.52
2.00930	34.52
2.02597	34.52
2.04263	34.53
2.05930	34.52
2.07597	34.52
2.09263	34.52
2.10930	34.52
2.12597	34.52
2.14263	34.53
2.15930	34.52
2.17597	34.51
2.19263	34.51
2.20930	34.52
2.22597	34.52
2.24263	34.52
2.25930	34.51
2.27597	34.52
2.29263	34.53
2.30930	34.51
2.32597	34.53
2.34263	34.53
2.35930	34.51
2.37597	34.52
2.39263	34.51
2.40930	34.52
2.42597	34.52
2.44263	34.52
2.45930	34.51
2.47597	34.51
2.49263	34.53
2.50930	34.50
2.52597	34.51
2.54263	34.52
2.55930	34.52
2.57597	34.52
2.59263	34.52
2.60930	34.52
2.62597	34.52
2.64263	34.52
2.65930	34.51
2.67597	34.52
2.69263	34.52
2.70930	34.52
2.72597	34.52
2.74263	34.52
2.75930	34.52
2.77597	34.52
2.79263	34.52
2.80930	34.52
2.82597	34.52
2.84263	34.52
2.85930	34.52
2.87597	34.52
2.89263	34.52
2.90930	34.52
2.92597	34.53
2.94263	34.52
2.95930	34.52
2.97597	34.52
2.99263	34.52
3.00930	34.52
3.02597	34.52
3.04263	34.52
3.05930	34.52
3.07597	34.52
3.09263	34.51
3.10930	34.52
3.12597	34.52
3.14263	34.52
3.15930	34.51
3.17597	34.52
3.19263	34.52
3.20930	34.52
3.22597	34.52
3.24263	34.52
3.25930	34.52
3.27597	34.52
3.29263	34.52
3.30930	34.52
3.32597	34.52
3.34263	34.52
3.35930	34.51
3.37597	34.52
3.39263	34.52
3.40930	34.53
3.42597	34.52
3.44263	34.52
3.45930	34.52
3.47597	34.52
3.49263	34.52
3.50930	34.51
3.52597	34.52
3.54263	34.52
3.55930	34.52
3.57597	34.51
3.59263	34.52
3.60930	34.52
3.62597	34.52
3.64263	34.52
3.65930	34.52
3.67597	34.52
3.69263	34.52
3.70930	34.52
3.72597	34.52
3.74263	34.52
3.75930	34.51
3.77597	34.52
3.79263	34.52
3.80930	34.52
3.82597	34.52
3.84263	34.52
3.85930	34.52
3.87597	34.52
3.89263	34.52
3.90930	34.52
3.92597	34.52
3.94263	34.53
3.95930	34.51
3.97597	34.52
3.99263	34.52

[Status Trace (Column Flow)]
Interval(msec)	1000
# of Points	240
Start Time(min)	0.009
End Time(min)	3.993
Intensity Units	
Intensity Multiplier	1
R.Time (min)	Intensity
0.00930	5.54
0.02597	5.21
0.04263	5.45
0.05930	5.70
0.07597	5.68
0.09263	5.54
0.10930	5.53
0.12597	5.54
0.14263	5.54
0.15930	5.54
0.17597	5.54
0.19263	5.54
0.20930	5.54
0.22597	5.54
0.24263	5.54
0.25930	5.54
0.27597	5.54
0.29263	5.54
0.30930	5.54
0.32597	5.54
0.34263	5.54
0.35930	5.54
0.37597	5.54
0.39263	5.54
0.40930	5.54
0.42597	5.54
0.44263	5.54
0.45930	5.54
0.47597	5.54
0.49263	5.54
0.50930	5.54
0.52597	5.54
0.54263	5.54
0.55930	5.54
0.57597	5.54
0.59263	5.54
0.60930	5.54
0.62597	5.54
0.64263	5.54
0.65930	5.54
0.67597	5.54
0.69263	5.54
0.70930	5.54
0.72597	5.54
0.74263	5.54
0.75930	5.54
0.77597	5.54
0.79263	5.54
0.80930	5.54
0.82597	5.54
0.84263	5.54
0.85930	5.54
0.87597	5.54
0.89263	5.54
0.90930	5.54
0.92597	5.54
0.94263	5.54
0.95930	5.54
0.97597	5.54
0.99263	5.54
1.00930	5.54
1.02597	5.54
1.04263	5.54
1.05930	5.54
1.07597	5.54
1.09263	5.54
1.10930	5.54
1.12597	5.54
1.14263	5.54
1.15930	5.54
1.17597	5.54
1.19263	5.54
1.20930	5.54
1.22597	5.54
1.24263	5.54
1.25930	5.54
1.27597	5.54
1.29263	5.54
1.30930	5.54
1.32597	5.54
1.34263	5.54
1.35930	5.54
1.37597	5.54
1.39263	5.54
1.40930	5.54
1.42597	5.54
1.44263	5.54
1.45930	5.54
1.47597	5.54
1.49263	5.54
1.50930	5.54
1.52597	5.54
1.54263	5.54
1.55930	5.54
1.57597	5.54
1.59263	5.54
1.60930	5.54
1.62597	5.53
1.64263	5.53
1.65930	5.52
1.67597	5.51
1.69263	5.49
1.70930	5.48
1.72597	5.47
1.74263	5.46
1.75930	5.45
1.77597	5.44
1.79263	5.43
1.80930	5.42
1.82597	5.41
1.84263	5.40
1.85930	5.39
1.87597	5.38
1.89263	5.37
1.90930	5.36
1.92597	5.35
1.94263	5.34
1.95930	5.33
1.97597	5.32
1.99263	5.31
2.00930	5.30
2.02597	5.29
2.04263	5.28
2.05930	5.27
2.07597	5.26
2.09263	5.25
2.10930	5.24
2.12597	5.24
2.14263	5.23
2.15930	5.22
2.17597	5.21
2.19263	5.20
2.20930	5.19
2.22597	5.18
2.24263	5.17
2.25930	5.16
2.27597	5.15
2.29263	5.14
2.30930	5.13
2.32597	5.12
2.34263	5.12
2.35930	5.11
2.37597	5.10
2.39263	5.10
2.40930	5.10
2.42597	5.10
2.44263	5.10
2.45930	5.10
2.47597	5.10
2.49263	5.10
2.50930	5.10
2.52597	5.10
2.54263	5.10
2.55930	5.10
2.57597	5.10
2.59263	5.10
2.60930	5.10
2.62597	5.10
2.64263	5.10
2.65930	5.10
2.67597	5.10
2.69263	5.10
2.70930	5.10
2.72597	5.10
2.74263	5.10
2.75930	5.10
2.77597	5.10
2.79263	5.10
2.80930	5.10
2.82597	5.10
2.84263	5.09
2.85930	5.09
2.87597	5.09
2.89263	5.09
2.90930	5.09
2.92597	5.09
2.94263	5.09
2.95930	5.09
2.97597	5.09
2.99263	5.09
3.00930	5.09
3.02597	5.09
3.04263	5.09
3.05930	5.09
3.07597	5.09
3.09263	5.09
3.10930	5.09
3.12597	5.09
3.14263	5.09
3.15930	5.09
3.17597	5.09
3.19263	5.09
3.20930	5.09
3.22597	5.09
3.24263	5.09
3.25930	5.09
3.27597	5.09
3.29263	5.09
3.30930	5.09
3.32597	5.09
3.34263	5.09
3.35930	5.09
3.37597	5.09
3.39263	5.09
3.40930	5.09
3.42597	5.09
3.44263	5.09
3.45930	5.09
3.47597	5.09
3.49263	5.09
3.50930	5.09
3.52597	5.09
3.54263	5.09
3.55930	5.09
3.57597	5.09
3.59263	5.09
3.60930	5.09
3.62597	5.09
3.64263	5.09
3.65930	5.09
3.67597	5.09
3.69263	5.09
3.70930	5.09
3.72597	5.09
3.74263	5.09
3.75930	5.09
3.77597	5.09
3.79263	5.09
3.80930	5.09
3.82597	5.09
3.84263	5.09
3.85930	5.09
3.87597	5.09
3.89263	5.09
3.90930	5.09
3.92597	5.09
3.94263	5.09
3.95930	5.09
3.97597	5.09
3.99263	5.09

[Status Trace (Linear Velocity)]
Interval(msec)	1000
# of Points	240
Start Time(min)	0.009
End Time(min)	3.993
Intensity Units	
Intensity Multiplier	1
R.Time (min)	Intensity
0.00930	39.02
0.02597	37.16
0.04263	38.54
0.05930	39.96
0.07597	39.81
0.09263	39.04
0.10930	39.00
0.12597	39.02
0.14263	39.02
0.15930	39.02
0.17597	39.02
0.19263	39.02
0.20930	39.02
0.22597	39.02
0.24263	39.02
0.25930	39.02
0.27597	39.02
0.29263	39.02
0.30930	39.02
0.32597	39.02
0.34263	39.02
0.35930	39.02
0.37597	39.02
0.39263	39.02
0.40930	39.02
0.42597	39.02
0.44263	39.02
0.45930	39.02
0.47597	39.02
0.49263	39.02
0.50930	39.02
0.52597	39.02
0.54263	39.02
0.55930	39.02
0.57597	39.02
0.59263	39.02
0.60930	39.02
0.62597	39.02
0.64263	39.02
0.65930	39.02
0.67597	39.02
0.69263	39.02
0.70930	39.02
0.72597	39.02
0.74263	39.02
0.75930	39.02
0.77597	39.02
0.79263	39.02
0.80930	39.02
0.82597	39.02
0.84263	39.02
0.85930	39.02
0.87597	39.02
0.89263	39.02
0.90930	39.02
0.92597	39.02
0.94263	39.02
0.95930	39.02
0.97597	39.02
0.99263	39.02
1.00930	39.02
1.02597	39.02
1.04263	39.02
1.05930	39.02
1.07597	39.02
1.09263	39.02
1.10930	39.02
1.12597	39.02
1.14263	39.02
1.15930	39.02
1.17597	39.02
1.19263	39.02
1.20930	39.02
1.22597	39.02
1.24263	39.02
1.25930	39.02
1.27597	39.02
1.29263	39.02
1.30930	39.02
1.32597	39.02
1.34263	39.02
1.35930	39.02
1.37597	39.02
1.39263	39.02
1.40930	39.02
1.42597	39.02
1.44263	39.02
1.45930	39.02
1.47597	39.02
1.49263	39.02
1.50930	39.02
1.52597	39.02
1.54263	39.02
1.55930	39.02
1.57597	39.02
1.59263	39.02
1.60930	39.02
1.62597	39.00
1.64263	38.99
1.65930	38.96
1.67597	38.93
1.69263	38.89
1.70930	38.86
1.72597	38.82
1.74263	38.79
1.75930	38.76
1.77597	38.73
1.79263	38.70
1.80930	38.67
1.82597	38.63
1.84263	38.61
1.85930	38.57
1.87597	38.54
1.89263	38.51
1.90930	38.48
1.92597	38.45
1.94263	38.42
1.95930	38.39
1.97597	38.36
1.99263	38.33
2.00930	38.30
2.02597	38.27
2.04263	38.24
2.05930	38.21
2.07597	38.18
2.09263	38.15
2.10930	38.12
2.12597	38.09
2.14263	38.06
2.15930	38.03
2.17597	38.00
2.19263	37.97
2.20930	37.94
2.22597	37.91
2.24263	37.88
2.25930	37.86
2.27597	37.83
2.29263	37.79
2.30930	37.76
2.32597	37.74
2.34263	37.71
2.35930	37.68
2.37597	37.66
2.39263	37.66
2.40930	37.66
2.42597	37.66
2.44263	37.66
2.45930	37.66
2.47597	37.66
2.49263	37.66
2.50930	37.65
2.52597	37.65
2.54263	37.65
2.55930	37.65
2.57597	37.65
2.59263	37.65
2.60930	37.65
2.62597	37.65
2.64263	37.65
2.65930	37.65
2.67597	37.65
2.69263	37.65
2.70930	37.65
2.72597	37.65
2.74263	37.65
2.75930	37.65
2.77597	37.65
2.79263	37.65
2.80930	37.65
2.82597	37.65
2.84263	37.64
2.85930	37.64
2.87597	37.64
2.89263	37.64
2.90930	37.64
2.92597	37.64
2.94263	37.64
2.95930	37.64
2.97597	37.64
2.99263	37.64
3.00930	37.64
3.02597	37.64
3.04263	37.64
3.05930	37.64
3.07597	37.64
3.09263	37.64
3.10930	37.63
3.12597	37.63
3.14263	37.63
3.15930	37.63
3.17597	37.63
3.19263	37.63
3.20930	37.62
3.22597	37.63
3.24263	37.63
3.25930	37.63
3.27597	37.63
3.29263	37.63
3.30930	37.63
3.32597	37.63
3.34263	37.63
3.35930	37.63
3.37597	37.64
3.39263	37.63
3.40930	37.64
3.42597	37.64
3.44263	37.64
3.45930	37.64
3.47597	37.63
3.49263	37.63
3.50930	37.63
3.52597	37.63
3.54263	37.63
3.55930	37.63
3.57597	37.63
3.59263	37.63
3.60930	37.63
3.62597	37.63
3.64263	37.63
3.65930	37.63
3.67597	37.63
3.69263	37.63
3.70930	37.63
3.72597	37.63
3.74263	37.63
3.75930	37.63
3.77597	37.63
3.79263	37.63
3.80930	37.63
3.82597	37.63
3.84263	37.63
3.85930	37.63
3.87597	37.63
3.89263	37.63
3.90930	37.63
3.92597	37.63
3.94263	37.63
3.95930	37.63
3.97597	37.63
3.99263	37.63

