[Header]
Application Name	LabSolutions
Version	5.110
Data File Name	C:\Users\User\Desktop\GC Analyses\Jack\Nachusa Grasslands Sampling\T3 Timepoint July 12th\T3_07122022_033.gcd
Output Date	3/14/2023
Output Time	3:43:32 PM

[File Information]
Type	Data File
Generated	3/13/2023 6:06:02 PM
Generated by	System Administrator
Modified	3/13/2023 6:12:55 PM
Modified by	System Administrator

[Sample Information]
Operator Name	System Administrator
Acquired	3/13/2023 6:08:55 PM
Sample Type	0:Unknown
Level	0
Sample Name	033
Sample ID	033
ISTD Amount1	1
ISTD Amount2	1
ISTD Amount3	1
ISTD Amount4	1
ISTD Amount5	1
ISTD Amount6	1
ISTD Amount7	1
ISTD Amount8	1
ISTD Amount9	1
ISTD Amount10	1
ISTD Amount11	1
ISTD Amount12	1
ISTD Amount13	1
ISTD Amount14	1
ISTD Amount15	1
ISTD Amount16	1
ISTD Amount17	1
ISTD Amount18	1
ISTD Amount19	1
ISTD Amount20	1
ISTD Amount21	1
ISTD Amount22	1
ISTD Amount23	1
ISTD Amount24	1
ISTD Amount25	1
ISTD Amount26	1
ISTD Amount27	1
ISTD Amount28	1
ISTD Amount29	1
ISTD Amount30	1
ISTD Amount31	1
ISTD Amount32	1
Sample Amount	1
Dilution Factor	1
Vial#	32
Injection Volume	1
Injection Count	1
Bar Code	

[Original Files]
Data File	C:\Users\User\Desktop\GC Analyses\Jack\Nachusa Grasslands Sampling\T3 Timepoint July 12th\T3_07122022_033.gcd
Method File	C:\LabSolutions\Data\GHG_4min_2022\ghg3_togas_w_acet_4 min_new_int.gcm
Batch File	C:\LabSolutions\Data\AutoSamplerTesting\T3_07122022.gcb
Report Format File	c:\LabSolutions\System\DEFAULT.lsr

[File Description]


[Configuration]
Instrument Name	C0B7VH3-Instrument1
Instrument #	1
Line #	1
# of Detectors	3
Detector ID	DET#1	DET#2	DET#3
Detector Name	FID	PTCD	ECD
# of Channels	1	1	1

[Peak Table(Ch1)]
# of Peaks	3
Peak#	R.Time	I.Time	F.Time	Area	Height	A/H	Conc.	Mark	ID#	Name	k'	Plate #	Plate Ht.	Tailing	Resolution	Sep.Factor	Area Ratio	Height Ratio	Conc. %	Norm Conc.
1	1.476	1.439	1.527	20683	10191	2.030	146.026	   	1	CO	0.000	9770	15.353	1.187	0.000	0.000	0	0	16.660	16.660
2	1.571	1.538	1.608	3977	2099	1.895	76.908	   	2	CH4	0.065	12183	12.313	1.061	1.635	0.000	0	0	8.774	8.774
3	1.996	1.949	2.341	2604217	1258827	2.069	653.588	   	3	CO2	0.353	17537	8.553	1.317	7.256	5.462	0	0	74.566	74.566

[Peak Table(Ch2)]
# of Peaks	0

[Peak Table(Ch3)]
# of Peaks	5
Peak#	R.Time	I.Time	F.Time	Area	Height	A/H	Conc.	Mark	ID#	Name	k'	Plate #	Plate Ht.	Tailing	Resolution	Sep.Factor	Area Ratio	Height Ratio	Conc. %	Norm Conc.
1	2.462	2.337	2.510	1689	555	3.043	0.000	   			0.000	11094	13.521	0.000	0.000	0.000	0	0	0.000	0.000
2	2.528	2.510	2.583	887	301	2.947	0.000	 V 			0.027	6961	21.549	0.000	0.615	0.000	0	0	0.000	0.000
3	2.598	2.583	2.675	402	129	3.102	0.000	 V 			0.055	2898	51.760	0.000	0.443	2.056	0	0	0.000	0.000
4	2.880	2.697	3.078	18450	4611	4.001	0.471	   	1	N2O	0.170	13040	11.503	1.560	1.921	3.081	0	0	100.000	100.000
5	3.280	3.082	3.995	20429	647	31.574	0.000	   	2	SF6	0.332	173	865.036	2.264	0.729	1.956	0	0	0.000	0.000

[Compound Results(Ch1)]
# of IDs	6
ID#	Name	R.Time	Area	Height	Conc.	Curve	3rd	2nd	1st	Constant	Area Ratio	Height Ratio	Conc. %	Norm Conc.
1	CO	1.476	20683	10191	146.026	Linear	0.000000e+00	0.000000e+00	1.416423e+002	0.000000e+00	0	0	16.660	16.660
2	CH4	1.571	3977	2099	76.908	Linear	0.000000e+00	0.000000e+00	5.171738e+001	0.000000e+00	0	0	8.774	8.774
3	CO2	1.996	2604217	1258827	653.588	Linear	0.000000e+00	0.000000e+00	3.984494e+003	0.000000e+00	0	0	74.566	74.566
4	Ethylene	0.000	0	0	0.000	Linear	0.000000e+00	0.000000e+00	0.000000e+00	0.000000e+00	0	0	0.000	0.000
5	Acetylene	0.000	0	0	0.000	Linear	0.000000e+00	0.000000e+00	0.000000e+00	0.000000e+00	0	0	0.000	0.000
6	Ethane	0.000	0	0	0.000	Linear	0.000000e+00	0.000000e+00	0.000000e+00	0.000000e+00	0	0	0.000	0.000

[Compound Results(Ch2)]
# of IDs	5
ID#	Name	R.Time	Area	Height	Conc.	Curve	3rd	2nd	1st	Constant	Area Ratio	Height Ratio	Conc. %	Norm Conc.
1	Hydrogen	0.000	0	0	0.000	Linear	0.000000e+00	0.000000e+00	0.000000e+00	0.000000e+00	0	0	0.000	0.000
2	Oxygen	0.000	0	0	0.000	Linear	0.000000e+00	0.000000e+00	0.000000e+00	0.000000e+00	0	0	0.000	0.000
3	Nitrogen	0.000	0	0	0.000	Linear	0.000000e+00	0.000000e+00	0.000000e+00	0.000000e+00	0	0	0.000	0.000
4	Methane	0.000	0	0	0.000	Linear	0.000000e+00	0.000000e+00	0.000000e+00	0.000000e+00	0	0	0.000	0.000
5	Carbon Monoxide	0.000	0	0	0.000	Linear	0.000000e+00	0.000000e+00	0.000000e+00	0.000000e+00	0	0	0.000	0.000

[Compound Results(Ch3)]
# of IDs	2
ID#	Name	R.Time	Area	Height	Conc.	Curve	3rd	2nd	1st	Constant	Area Ratio	Height Ratio	Conc. %	Norm Conc.
1	N2O	2.880	18450	4611	0.471	Linear	0.000000e+00	0.000000e+00	3.915173e+004	0.000000e+00	0	0	100.000	100.000
2	SF6	3.280	20429	647	0.000	Linear	0.000000e+00	0.000000e+00	0.000000e+00	0.000000e+00	0	0	0.000	0.000

[Group Results(Ch1)]
# of Groups	0

[Group Results(Ch2)]
# of Groups	0

[Group Results(Ch3)]
# of Groups	0

[Chromatogram (Ch1)]
Interval(msec)	220
# of Points	1091
Start Time(min)	0.002
End Time(min)	3.998
R.Time (min)	Intensity
0.00167	22
0.00533	20
0.00900	20
0.01267	21
0.01633	23
0.02000	31
0.02367	42
0.02733	53
0.03100	68
0.03467	78
0.03833	83
0.04200	84
0.04567	83
0.04933	80
0.05300	79
0.05667	83
0.06033	92
0.06400	100
0.06767	108
0.07133	113
0.07500	113
0.07867	109
0.08233	103
0.08600	97
0.08967	91
0.09333	91
0.09700	94
0.10067	95
0.10433	95
0.10800	97
0.11167	98
0.11533	93
0.11900	84
0.12267	76
0.12633	74
0.13000	74
0.13367	74
0.13733	76
0.14100	77
0.14467	76
0.14833	70
0.15200	59
0.15567	53
0.15933	51
0.16300	52
0.16667	50
0.17033	47
0.17400	44
0.17767	39
0.18133	34
0.18500	25
0.18867	11
0.19233	-1
0.19600	-3
0.19967	-1
0.20333	4
0.20700	5
0.21067	2
0.21433	-3
0.21800	-9
0.22167	-11
0.22533	-11
0.22900	-8
0.23267	-8
0.23633	-7
0.24000	-1
0.24367	9
0.24733	18
0.25100	23
0.25467	25
0.25833	17
0.26200	-0
0.26567	-16
0.26933	-25
0.27300	-28
0.27667	-27
0.28033	-27
0.28400	-27
0.28767	-24
0.29133	-17
0.29500	-13
0.29867	-18
0.30233	-21
0.30600	-19
0.30967	-16
0.31333	-12
0.31700	-9
0.32067	-4
0.32433	2
0.32800	3
0.33167	-0
0.33533	-4
0.33900	-7
0.34267	-10
0.34633	-7
0.35000	-3
0.35367	2
0.35733	5
0.36100	9
0.36467	3
0.36833	-4
0.37200	-9
0.37567	-13
0.37933	-16
0.38300	-20
0.38667	-22
0.39033	-21
0.39400	-17
0.39767	-15
0.40133	-11
0.40500	-8
0.40867	-8
0.41233	-10
0.41600	-12
0.41967	-15
0.42333	-14
0.42700	-7
0.43067	1
0.43433	5
0.43800	2
0.44167	-0
0.44533	-3
0.44900	-5
0.45267	-9
0.45633	-13
0.46000	-19
0.46367	-25
0.46733	-28
0.47100	-27
0.47467	-25
0.47833	-20
0.48200	-24
0.48567	-30
0.48933	-32
0.49300	-34
0.49667	-32
0.50033	-25
0.50400	-13
0.50767	-1
0.51133	8
0.51500	10
0.51867	6
0.52233	-1
0.52600	-14
0.52967	-27
0.53333	-33
0.53700	-34
0.54067	-36
0.54433	-39
0.54800	-40
0.55167	-36
0.55533	-24
0.55900	-13
0.56267	-12
0.56633	-19
0.57000	-29
0.57367	-36
0.57733	-38
0.58100	-35
0.58467	-28
0.58833	-26
0.59200	-26
0.59567	-25
0.59933	-22
0.60300	-20
0.60667	-17
0.61033	-16
0.61400	-16
0.61767	-13
0.62133	-9
0.62500	-8
0.62867	-7
0.63233	-9
0.63600	-14
0.63967	-19
0.64333	-23
0.64700	-25
0.65067	-23
0.65433	-22
0.65800	-22
0.66167	-25
0.66533	-27
0.66900	-19
0.67267	-9
0.67633	-9
0.68000	-11
0.68367	-13
0.68733	-17
0.69100	-22
0.69467	-22
0.69833	-17
0.70200	-12
0.70567	-10
0.70933	-8
0.71300	-6
0.71667	-6
0.72033	-6
0.72400	-3
0.72767	0
0.73133	-3
0.73500	-12
0.73867	-25
0.74233	-38
0.74600	-45
0.74967	-47
0.75333	-47
0.75700	-41
0.76067	-34
0.76433	-33
0.76800	-37
0.77167	-38
0.77533	-35
0.77900	-31
0.78267	-29
0.78633	-25
0.79000	-17
0.79367	-7
0.79733	1
0.80100	8
0.80467	12
0.80833	12
0.81200	9
0.81567	7
0.81933	4
0.82300	2
0.82667	3
0.83033	5
0.83400	6
0.83767	8
0.84133	11
0.84500	11
0.84867	5
0.85233	-1
0.85600	-4
0.85967	-7
0.86333	-10
0.86700	-14
0.87067	-16
0.87433	-16
0.87800	-18
0.88167	-22
0.88533	-23
0.88900	-20
0.89267	-15
0.89633	-10
0.90000	-7
0.90367	-4
0.90733	-0
0.91100	4
0.91467	7
0.91833	8
0.92200	6
0.92567	0
0.92933	-7
0.93300	-16
0.93667	-22
0.94033	-24
0.94400	-25
0.94767	-23
0.95133	-19
0.95500	-11
0.95867	-3
0.96233	6
0.96600	14
0.96967	18
0.97333	18
0.97700	14
0.98067	9
0.98433	2
0.98800	-6
0.99167	-14
0.99533	-15
0.99900	-14
1.00267	-16
1.00633	-18
1.01000	-22
1.01367	-23
1.01733	-18
1.02100	-12
1.02467	-9
1.02833	-9
1.03200	-11
1.03567	-11
1.03933	-10
1.04300	-11
1.04667	-14
1.05033	-14
1.05400	-10
1.05767	-6
1.06133	-7
1.06500	-11
1.06867	-13
1.07233	-11
1.07600	-8
1.07967	-6
1.08333	-3
1.08700	-2
1.09067	-6
1.09433	-11
1.09800	-12
1.10167	-15
1.10533	-18
1.10900	-19
1.11267	-22
1.11633	-31
1.12000	-39
1.12367	-43
1.12733	-47
1.13100	-49
1.13467	-46
1.13833	-43
1.14200	-36
1.14567	-28
1.14933	-23
1.15300	-22
1.15667	-22
1.16033	-23
1.16400	-22
1.16767	-23
1.17133	-25
1.17500	-27
1.17867	-27
1.18233	-29
1.18600	-35
1.18967	-43
1.19333	-48
1.19700	-47
1.20067	-45
1.20433	-43
1.20800	-40
1.21167	-36
1.21533	-28
1.21900	-21
1.22267	-19
1.22633	-23
1.23000	-32
1.23367	-41
1.23733	-44
1.24100	-43
1.24467	-41
1.24833	-41
1.25200	-46
1.25567	-54
1.25933	-63
1.26300	-71
1.26667	-77
1.27033	-80
1.27400	-77
1.27767	-69
1.28133	-61
1.28500	-59
1.28867	-59
1.29233	-59
1.29600	-58
1.29967	-56
1.30333	-51
1.30700	-48
1.31067	-48
1.31433	-46
1.31800	-38
1.32167	-32
1.32533	-30
1.32900	-31
1.33267	-35
1.33633	-40
1.34000	-44
1.34367	-46
1.34733	-44
1.35100	-42
1.35467	-43
1.35833	-47
1.36200	-53
1.36567	-58
1.36933	-59
1.37300	-58
1.37667	-56
1.38033	-58
1.38400	-64
1.38767	-67
1.39133	-63
1.39500	-58
1.39867	-53
1.40233	-48
1.40600	-46
1.40967	-48
1.41333	-53
1.41700	-62
1.42067	-69
1.42433	-71
1.42800	-66
1.43167	-58
1.43533	-48
1.43900	-32
1.44267	20
1.44633	202
1.45000	682
1.45367	1669
1.45733	3273
1.46100	5218
1.46467	7082
1.46833	8585
1.47200	9608
1.47567	10070
1.47933	9875
1.48300	9008
1.48667	7626
1.49033	6014
1.49400	4452
1.49767	3116
1.50133	2065
1.50500	1291
1.50867	745
1.51233	368
1.51600	109
1.51967	-64
1.52333	-175
1.52700	-244
1.53067	-279
1.53433	-294
1.53800	-288
1.54167	-239
1.54533	-86
1.54900	216
1.55267	630
1.55633	1061
1.56000	1440
1.56367	1723
1.56733	1884
1.57100	1900
1.57467	1755
1.57833	1475
1.58200	1128
1.58567	791
1.58933	508
1.59300	290
1.59667	132
1.60033	23
1.60400	-53
1.60767	-101
1.61133	-134
1.61500	-160
1.61867	-174
1.62233	-177
1.62600	-170
1.62967	-165
1.63333	-163
1.63700	-166
1.64067	-171
1.64433	-171
1.64800	-169
1.65167	-165
1.65533	-161
1.65900	-156
1.66267	-158
1.66633	-166
1.67000	-172
1.67367	-172
1.67733	-162
1.68100	-150
1.68467	-142
1.68833	-137
1.69200	-136
1.69567	-135
1.69933	-138
1.70300	-144
1.70667	-154
1.71033	-162
1.71400	-160
1.71767	-150
1.72133	-144
1.72500	-141
1.72867	-140
1.73233	-142
1.73600	-149
1.73967	-155
1.74333	-157
1.74700	-158
1.75067	-159
1.75433	-162
1.75800	-165
1.76167	-165
1.76533	-158
1.76900	-149
1.77267	-142
1.77633	-136
1.78000	-133
1.78367	-135
1.78733	-136
1.79100	-143
1.79467	-153
1.79833	-158
1.80200	-160
1.80567	-157
1.80933	-152
1.81300	-148
1.81667	-143
1.82033	-136
1.82400	-129
1.82767	-126
1.83133	-126
1.83500	-129
1.83867	-128
1.84233	-122
1.84600	-115
1.84967	-113
1.85333	-112
1.85700	-111
1.86067	-109
1.86433	-106
1.86800	-103
1.87167	-103
1.87533	-100
1.87900	-96
1.88267	-92
1.88633	-97
1.89000	-108
1.89367	-121
1.89733	-128
1.90100	-130
1.90467	-127
1.90833	-119
1.91200	-111
1.91567	-109
1.91933	-112
1.92300	-116
1.92667	-117
1.93033	-117
1.93400	-113
1.93767	-107
1.94133	-100
1.94500	-96
1.94867	-92
1.95233	-75
1.95600	58
1.95967	915
1.96333	5129
1.96700	20834
1.97067	65557
1.97433	163507
1.97800	329690
1.98167	552989
1.98533	797244
1.98900	1018372
1.99267	1179924
1.99633	1258772
2.00000	1246449
2.00367	1151122
2.00733	995527
2.01100	810592
2.01467	626021
2.01833	462916
2.02200	331173
2.02567	231566
2.02933	159734
2.03300	109602
2.03667	75367
2.04033	52282
2.04400	36803
2.04767	26419
2.05133	19413
2.05500	14640
2.05867	11337
2.06233	9007
2.06600	7324
2.06967	6076
2.07333	5128
2.07700	4398
2.08067	3825
2.08433	3368
2.08800	2998
2.09167	2693
2.09533	2440
2.09900	2228
2.10267	2045
2.10633	1882
2.11000	1739
2.11367	1615
2.11733	1505
2.12100	1406
2.12467	1323
2.12833	1252
2.13200	1186
2.13567	1125
2.13933	1068
2.14300	1013
2.14667	961
2.15033	915
2.15400	877
2.15767	844
2.16133	811
2.16500	783
2.16867	753
2.17233	722
2.17600	691
2.17967	661
2.18333	638
2.18700	622
2.19067	602
2.19433	581
2.19800	559
2.20167	532
2.20533	503
2.20900	475
2.21267	453
2.21633	439
2.22000	433
2.22367	428
2.22733	424
2.23100	413
2.23467	400
2.23833	384
2.24200	369
2.24567	356
2.24933	347
2.25300	341
2.25667	338
2.26033	331
2.26400	324
2.26767	311
2.27133	293
2.27500	282
2.27867	275
2.28233	269
2.28600	265
2.28967	262
2.29333	261
2.29700	259
2.30067	255
2.30433	254
2.30800	252
2.31167	250
2.31533	250
2.31900	242
2.32267	236
2.32633	230
2.33000	224
2.33367	219
2.33733	218
2.34100	216
2.34467	211
2.34833	204
2.35200	197
2.35567	197
2.35933	200
2.36300	207
2.36667	209
2.37033	209
2.37400	208
2.37767	206
2.38133	205
2.38500	203
2.38867	196
2.39233	186
2.39600	180
2.39967	180
2.40333	185
2.40700	188
2.41067	183
2.41433	175
2.41800	168
2.42167	163
2.42533	154
2.42900	146
2.43267	139
2.43633	136
2.44000	135
2.44367	140
2.44733	152
2.45100	168
2.45467	178
2.45833	179
2.46200	171
2.46567	157
2.46933	141
2.47300	125
2.47667	114
2.48033	107
2.48400	102
2.48767	103
2.49133	109
2.49500	114
2.49867	118
2.50233	122
2.50600	127
2.50967	134
2.51333	141
2.51700	143
2.52067	139
2.52433	135
2.52800	128
2.53167	119
2.53533	116
2.53900	118
2.54267	125
2.54633	129
2.55000	127
2.55367	125
2.55733	122
2.56100	119
2.56467	115
2.56833	109
2.57200	103
2.57567	97
2.57933	92
2.58300	91
2.58667	91
2.59033	92
2.59400	95
2.59767	98
2.60133	106
2.60500	118
2.60867	126
2.61233	124
2.61600	121
2.61967	124
2.62333	125
2.62700	121
2.63067	113
2.63433	110
2.63800	111
2.64167	112
2.64533	110
2.64900	103
2.65267	95
2.65633	92
2.66000	91
2.66367	95
2.66733	101
2.67100	103
2.67467	103
2.67833	104
2.68200	108
2.68567	107
2.68933	98
2.69300	88
2.69667	87
2.70033	94
2.70400	100
2.70767	107
2.71133	114
2.71500	114
2.71867	110
2.72233	109
2.72600	110
2.72967	113
2.73333	117
2.73700	116
2.74067	114
2.74433	112
2.74800	116
2.75167	116
2.75533	114
2.75900	117
2.76267	115
2.76633	113
2.77000	112
2.77367	110
2.77733	110
2.78100	110
2.78467	112
2.78833	115
2.79200	118
2.79567	123
2.79933	127
2.80300	128
2.80667	128
2.81033	125
2.81400	125
2.81767	131
2.82133	140
2.82500	143
2.82867	139
2.83233	131
2.83600	119
2.83967	109
2.84333	104
2.84700	102
2.85067	104
2.85433	104
2.85800	103
2.86167	98
2.86533	95
2.86900	97
2.87267	101
2.87633	103
2.88000	104
2.88367	103
2.88733	102
2.89100	103
2.89467	103
2.89833	101
2.90200	99
2.90567	99
2.90933	102
2.91300	107
2.91667	111
2.92033	114
2.92400	115
2.92767	114
2.93133	116
2.93500	124
2.93867	134
2.94233	143
2.94600	152
2.94967	157
2.95333	151
2.95700	134
2.96067	109
2.96433	83
2.96800	67
2.97167	63
2.97533	67
2.97900	75
2.98267	85
2.98633	91
2.99000	91
2.99367	92
2.99733	99
3.00100	110
3.00467	119
3.00833	124
3.01200	127
3.01567	128
3.01933	129
3.02300	130
3.02667	128
3.03033	117
3.03400	108
3.03767	107
3.04133	108
3.04500	104
3.04867	96
3.05233	89
3.05600	87
3.05967	84
3.06333	84
3.06700	85
3.07067	91
3.07433	101
3.07800	110
3.08167	114
3.08533	116
3.08900	114
3.09267	113
3.09633	112
3.10000	108
3.10367	105
3.10733	104
3.11100	103
3.11467	101
3.11833	98
3.12200	100
3.12567	103
3.12933	106
3.13300	112
3.13667	119
3.14033	120
3.14400	114
3.14767	106
3.15133	98
3.15500	91
3.15867	81
3.16233	73
3.16600	70
3.16967	71
3.17333	71
3.17700	76
3.18067	81
3.18433	82
3.18800	82
3.19167	82
3.19533	84
3.19900	91
3.20267	96
3.20633	96
3.21000	95
3.21367	90
3.21733	82
3.22100	78
3.22467	78
3.22833	80
3.23200	80
3.23567	85
3.23933	91
3.24300	92
3.24667	86
3.25033	82
3.25400	83
3.25767	82
3.26133	78
3.26500	78
3.26867	74
3.27233	71
3.27600	71
3.27967	70
3.28333	67
3.28700	67
3.29067	72
3.29433	78
3.29800	85
3.30167	86
3.30533	81
3.30900	77
3.31267	76
3.31633	75
3.32000	75
3.32367	75
3.32733	74
3.33100	73
3.33467	74
3.33833	72
3.34200	69
3.34567	69
3.34933	72
3.35300	77
3.35667	78
3.36033	75
3.36400	76
3.36767	84
3.37133	94
3.37500	100
3.37867	101
3.38233	96
3.38600	89
3.38967	81
3.39333	75
3.39700	73
3.40067	70
3.40433	68
3.40800	69
3.41167	73
3.41533	77
3.41900	81
3.42267	79
3.42633	75
3.43000	70
3.43367	65
3.43733	60
3.44100	60
3.44467	69
3.44833	80
3.45200	85
3.45567	81
3.45933	76
3.46300	76
3.46667	81
3.47033	85
3.47400	81
3.47767	66
3.48133	44
3.48500	24
3.48867	11
3.49233	6
3.49600	7
3.49967	14
3.50333	24
3.50700	35
3.51067	42
3.51433	46
3.51800	47
3.52167	44
3.52533	42
3.52900	42
3.53267	43
3.53633	47
3.54000	51
3.54367	47
3.54733	35
3.55100	24
3.55467	19
3.55833	11
3.56200	8
3.56567	13
3.56933	20
3.57300	25
3.57667	26
3.58033	31
3.58400	38
3.58767	39
3.59133	34
3.59500	27
3.59867	24
3.60233	24
3.60600	31
3.60967	36
3.61333	31
3.61700	26
3.62067	26
3.62433	27
3.62800	30
3.63167	33
3.63533	36
3.63900	37
3.64267	38
3.64633	41
3.65000	46
3.65367	49
3.65733	46
3.66100	40
3.66467	35
3.66833	31
3.67200	30
3.67567	29
3.67933	26
3.68300	25
3.68667	27
3.69033	31
3.69400	36
3.69767	40
3.70133	37
3.70500	34
3.70867	38
3.71233	41
3.71600	41
3.71967	36
3.72333	29
3.72700	25
3.73067	22
3.73433	18
3.73800	17
3.74167	20
3.74533	29
3.74900	40
3.75267	46
3.75633	48
3.76000	46
3.76367	39
3.76733	28
3.77100	21
3.77467	20
3.77833	20
3.78200	23
3.78567	30
3.78933	32
3.79300	31
3.79667	29
3.80033	28
3.80400	30
3.80767	31
3.81133	29
3.81500	24
3.81867	22
3.82233	23
3.82600	25
3.82967	25
3.83333	24
3.83700	22
3.84067	23
3.84433	25
3.84800	26
3.85167	21
3.85533	16
3.85900	12
3.86267	10
3.86633	10
3.87000	12
3.87367	14
3.87733	15
3.88100	18
3.88467	17
3.88833	13
3.89200	10
3.89567	11
3.89933	13
3.90300	12
3.90667	11
3.91033	11
3.91400	15
3.91767	18
3.92133	17
3.92500	13
3.92867	12
3.93233	14
3.93600	17
3.93967	19
3.94333	17
3.94700	13
3.95067	12
3.95433	13
3.95800	17
3.96167	23
3.96533	27
3.96900	27
3.97267	22
3.97633	15
3.98000	10
3.98367	9
3.98733	14
3.99100	18
3.99467	17
3.99833	15

[Chromatogram (Ch2)]
Interval(msec)	220
# of Points	1091
Start Time(min)	0.002
End Time(min)	3.998
R.Time (min)	Intensity
0.00167	-1
0.00533	-1
0.00900	-1
0.01267	-1
0.01633	-1
0.02000	-1
0.02367	-1
0.02733	-1
0.03100	-1
0.03467	-2
0.03833	-2
0.04200	-2
0.04567	-2
0.04933	-2
0.05300	-2
0.05667	-2
0.06033	-2
0.06400	-2
0.06767	-2
0.07133	-2
0.07500	-2
0.07867	-2
0.08233	-1
0.08600	-1
0.08967	-1
0.09333	-0
0.09700	0
0.10067	1
0.10433	1
0.10800	2
0.11167	2
0.11533	3
0.11900	3
0.12267	3
0.12633	3
0.13000	3
0.13367	3
0.13733	3
0.14100	3
0.14467	3
0.14833	3
0.15200	3
0.15567	3
0.15933	3
0.16300	2
0.16667	2
0.17033	2
0.17400	1
0.17767	0
0.18133	-0
0.18500	-1
0.18867	-1
0.19233	-2
0.19600	-2
0.19967	-2
0.20333	-2
0.20700	-2
0.21067	-2
0.21433	-2
0.21800	-2
0.22167	-1
0.22533	-1
0.22900	-0
0.23267	-0
0.23633	-0
0.24000	0
0.24367	0
0.24733	0
0.25100	-0
0.25467	-0
0.25833	-0
0.26200	0
0.26567	0
0.26933	0
0.27300	0
0.27667	0
0.28033	1
0.28400	1
0.28767	1
0.29133	1
0.29500	2
0.29867	2
0.30233	2
0.30600	2
0.30967	2
0.31333	2
0.31700	2
0.32067	2
0.32433	2
0.32800	2
0.33167	2
0.33533	3
0.33900	2
0.34267	2
0.34633	2
0.35000	2
0.35367	1
0.35733	1
0.36100	0
0.36467	-0
0.36833	-1
0.37200	-1
0.37567	-1
0.37933	-1
0.38300	-1
0.38667	-1
0.39033	-1
0.39400	-1
0.39767	-1
0.40133	-1
0.40500	-1
0.40867	-1
0.41233	-1
0.41600	-1
0.41967	-1
0.42333	-1
0.42700	-1
0.43067	-2
0.43433	-2
0.43800	-2
0.44167	-2
0.44533	-2
0.44900	-2
0.45267	-3
0.45633	-3
0.46000	-3
0.46367	-3
0.46733	-3
0.47100	-2
0.47467	-2
0.47833	-2
0.48200	-2
0.48567	-2
0.48933	-1
0.49300	-1
0.49667	-2
0.50033	-2
0.50400	-2
0.50767	-2
0.51133	-2
0.51500	-2
0.51867	-2
0.52233	-2
0.52600	-1
0.52967	-1
0.53333	-1
0.53700	-1
0.54067	-1
0.54433	-1
0.54800	-1
0.55167	-1
0.55533	-1
0.55900	-1
0.56267	-1
0.56633	-1
0.57000	-0
0.57367	-0
0.57733	-0
0.58100	-0
0.58467	-0
0.58833	-0
0.59200	-0
0.59567	-0
0.59933	-0
0.60300	-0
0.60667	-0
0.61033	-0
0.61400	-0
0.61767	0
0.62133	0
0.62500	1
0.62867	1
0.63233	1
0.63600	1
0.63967	1
0.64333	1
0.64700	1
0.65067	1
0.65433	1
0.65800	1
0.66167	1
0.66533	1
0.66900	1
0.67267	1
0.67633	1
0.68000	1
0.68367	1
0.68733	1
0.69100	0
0.69467	0
0.69833	-0
0.70200	-1
0.70567	-1
0.70933	-1
0.71300	-1
0.71667	-2
0.72033	-2
0.72400	-3
0.72767	-3
0.73133	-3
0.73500	-3
0.73867	-4
0.74233	-4
0.74600	-4
0.74967	-4
0.75333	-4
0.75700	-5
0.76067	-5
0.76433	-5
0.76800	-5
0.77167	-6
0.77533	-6
0.77900	-6
0.78267	-6
0.78633	-6
0.79000	-6
0.79367	-6
0.79733	-6
0.80100	-6
0.80467	-6
0.80833	-6
0.81200	-6
0.81567	-6
0.81933	-5
0.82300	-5
0.82667	-4
0.83033	-4
0.83400	-4
0.83767	-4
0.84133	-4
0.84500	-4
0.84867	-4
0.85233	-4
0.85600	-4
0.85967	-4
0.86333	-4
0.86700	-4
0.87067	-4
0.87433	-4
0.87800	-3
0.88167	-3
0.88533	-3
0.88900	-3
0.89267	-3
0.89633	-2
0.90000	-2
0.90367	-2
0.90733	-2
0.91100	-2
0.91467	-2
0.91833	-2
0.92200	-2
0.92567	-2
0.92933	-2
0.93300	-2
0.93667	-2
0.94033	-2
0.94400	-2
0.94767	-2
0.95133	-2
0.95500	-3
0.95867	-3
0.96233	-3
0.96600	-3
0.96967	-3
0.97333	-3
0.97700	-3
0.98067	-3
0.98433	-3
0.98800	-3
0.99167	-3
0.99533	-3
0.99900	-3
1.00267	-3
1.00633	-3
1.01000	-3
1.01367	-3
1.01733	-3
1.02100	-3
1.02467	-3
1.02833	-2
1.03200	-2
1.03567	-2
1.03933	-2
1.04300	-2
1.04667	-2
1.05033	-2
1.05400	-2
1.05767	-2
1.06133	-2
1.06500	-2
1.06867	-2
1.07233	-2
1.07600	-2
1.07967	-2
1.08333	-2
1.08700	-2
1.09067	-2
1.09433	-1
1.09800	-1
1.10167	-1
1.10533	-0
1.10900	-0
1.11267	-0
1.11633	-0
1.12000	-0
1.12367	-1
1.12733	-1
1.13100	-2
1.13467	-2
1.13833	-2
1.14200	-2
1.14567	-2
1.14933	-2
1.15300	-2
1.15667	-2
1.16033	-2
1.16400	-2
1.16767	-2
1.17133	-2
1.17500	-2
1.17867	-2
1.18233	-2
1.18600	-2
1.18967	-2
1.19333	-2
1.19700	-2
1.20067	-2
1.20433	-2
1.20800	-2
1.21167	-2
1.21533	-2
1.21900	-2
1.22267	-3
1.22633	-3
1.23000	-3
1.23367	-3
1.23733	-4
1.24100	-4
1.24467	-4
1.24833	-4
1.25200	-5
1.25567	-5
1.25933	-4
1.26300	-4
1.26667	-4
1.27033	-3
1.27400	-3
1.27767	-3
1.28133	-3
1.28500	-3
1.28867	-3
1.29233	-3
1.29600	-3
1.29967	-3
1.30333	-3
1.30700	-2
1.31067	-2
1.31433	-2
1.31800	-2
1.32167	-3
1.32533	-3
1.32900	-3
1.33267	-3
1.33633	-3
1.34000	-4
1.34367	-4
1.34733	-4
1.35100	-5
1.35467	-5
1.35833	-5
1.36200	-5
1.36567	-5
1.36933	-4
1.37300	-4
1.37667	-3
1.38033	-3
1.38400	-2
1.38767	-2
1.39133	-3
1.39500	-3
1.39867	-3
1.40233	-4
1.40600	-4
1.40967	-5
1.41333	-5
1.41700	-5
1.42067	-5
1.42433	-5
1.42800	-4
1.43167	-4
1.43533	-4
1.43900	-4
1.44267	-4
1.44633	-5
1.45000	-5
1.45367	-5
1.45733	-5
1.46100	-5
1.46467	-5
1.46833	-5
1.47200	-5
1.47567	-6
1.47933	-6
1.48300	-6
1.48667	-6
1.49033	-6
1.49400	-5
1.49767	-5
1.50133	-5
1.50500	-5
1.50867	-5
1.51233	-5
1.51600	-5
1.51967	-5
1.52333	-5
1.52700	-4
1.53067	-4
1.53433	-4
1.53800	-3
1.54167	-3
1.54533	-3
1.54900	-3
1.55267	-3
1.55633	-3
1.56000	-3
1.56367	-3
1.56733	-3
1.57100	-3
1.57467	-4
1.57833	-4
1.58200	-4
1.58567	-4
1.58933	-4
1.59300	-4
1.59667	-4
1.60033	-5
1.60400	-6
1.60767	-7
1.61133	-9
1.61500	-11
1.61867	-13
1.62233	-16
1.62600	-19
1.62967	-22
1.63333	-25
1.63700	-28
1.64067	-32
1.64433	-36
1.64800	-39
1.65167	-43
1.65533	-47
1.65900	-51
1.66267	-54
1.66633	-58
1.67000	-63
1.67367	-67
1.67733	-72
1.68100	-77
1.68467	-82
1.68833	-87
1.69200	-92
1.69567	-96
1.69933	-100
1.70300	-103
1.70667	-105
1.71033	-107
1.71400	-109
1.71767	-110
1.72133	-111
1.72500	-111
1.72867	-112
1.73233	-112
1.73600	-111
1.73967	-111
1.74333	-110
1.74700	-110
1.75067	-109
1.75433	-109
1.75800	-109
1.76167	-109
1.76533	-109
1.76900	-109
1.77267	-110
1.77633	-111
1.78000	-112
1.78367	-113
1.78733	-114
1.79100	-114
1.79467	-115
1.79833	-115
1.80200	-115
1.80567	-115
1.80933	-115
1.81300	-116
1.81667	-116
1.82033	-116
1.82400	-116
1.82767	-116
1.83133	-115
1.83500	-115
1.83867	-115
1.84233	-115
1.84600	-115
1.84967	-115
1.85333	-115
1.85700	-114
1.86067	-115
1.86433	-114
1.86800	-114
1.87167	-114
1.87533	-114
1.87900	-115
1.88267	-115
1.88633	-115
1.89000	-116
1.89367	-116
1.89733	-116
1.90100	-116
1.90467	-116
1.90833	-115
1.91200	-115
1.91567	-114
1.91933	-113
1.92300	-113
1.92667	-112
1.93033	-112
1.93400	-112
1.93767	-112
1.94133	-112
1.94500	-111
1.94867	-111
1.95233	-111
1.95600	-110
1.95967	-110
1.96333	-110
1.96700	-110
1.97067	-110
1.97433	-110
1.97800	-110
1.98167	-110
1.98533	-110
1.98900	-110
1.99267	-109
1.99633	-109
2.00000	-109
2.00367	-109
2.00733	-109
2.01100	-108
2.01467	-108
2.01833	-107
2.02200	-107
2.02567	-107
2.02933	-107
2.03300	-106
2.03667	-106
2.04033	-105
2.04400	-105
2.04767	-105
2.05133	-104
2.05500	-104
2.05867	-104
2.06233	-103
2.06600	-103
2.06967	-103
2.07333	-103
2.07700	-102
2.08067	-101
2.08433	-101
2.08800	-100
2.09167	-100
2.09533	-100
2.09900	-99
2.10267	-99
2.10633	-98
2.11000	-98
2.11367	-98
2.11733	-98
2.12100	-98
2.12467	-98
2.12833	-98
2.13200	-98
2.13567	-98
2.13933	-97
2.14300	-97
2.14667	-97
2.15033	-97
2.15400	-97
2.15767	-96
2.16133	-96
2.16500	-95
2.16867	-95
2.17233	-94
2.17600	-94
2.17967	-95
2.18333	-95
2.18700	-95
2.19067	-94
2.19433	-94
2.19800	-93
2.20167	-93
2.20533	-92
2.20900	-92
2.21267	-91
2.21633	-90
2.22000	-90
2.22367	-89
2.22733	-89
2.23100	-88
2.23467	-88
2.23833	-87
2.24200	-87
2.24567	-87
2.24933	-86
2.25300	-86
2.25667	-86
2.26033	-87
2.26400	-87
2.26767	-86
2.27133	-86
2.27500	-85
2.27867	-85
2.28233	-84
2.28600	-83
2.28967	-83
2.29333	-82
2.29700	-82
2.30067	-81
2.30433	-81
2.30800	-81
2.31167	-81
2.31533	-81
2.31900	-81
2.32267	-81
2.32633	-81
2.33000	-81
2.33367	-81
2.33733	-81
2.34100	-81
2.34467	-81
2.34833	-80
2.35200	-79
2.35567	-78
2.35933	-77
2.36300	-76
2.36667	-74
2.37033	-72
2.37400	-69
2.37767	-66
2.38133	-63
2.38500	-60
2.38867	-56
2.39233	-52
2.39600	-47
2.39967	-43
2.40333	-39
2.40700	-34
2.41067	-30
2.41433	-26
2.41800	-22
2.42167	-19
2.42533	-17
2.42900	-15
2.43267	-13
2.43633	-12
2.44000	-11
2.44367	-10
2.44733	-10
2.45100	-9
2.45467	-8
2.45833	-7
2.46200	-6
2.46567	-5
2.46933	-4
2.47300	-3
2.47667	-2
2.48033	-2
2.48400	-1
2.48767	-0
2.49133	0
2.49500	2
2.49867	3
2.50233	4
2.50600	5
2.50967	6
2.51333	6
2.51700	7
2.52067	7
2.52433	8
2.52800	9
2.53167	9
2.53533	10
2.53900	11
2.54267	12
2.54633	13
2.55000	13
2.55367	14
2.55733	14
2.56100	14
2.56467	14
2.56833	14
2.57200	14
2.57567	14
2.57933	14
2.58300	15
2.58667	15
2.59033	15
2.59400	16
2.59767	16
2.60133	17
2.60500	17
2.60867	17
2.61233	17
2.61600	17
2.61967	16
2.62333	16
2.62700	16
2.63067	15
2.63433	15
2.63800	16
2.64167	16
2.64533	16
2.64900	17
2.65267	17
2.65633	18
2.66000	19
2.66367	20
2.66733	20
2.67100	20
2.67467	19
2.67833	19
2.68200	19
2.68567	19
2.68933	19
2.69300	19
2.69667	19
2.70033	19
2.70400	20
2.70767	20
2.71133	21
2.71500	22
2.71867	23
2.72233	23
2.72600	24
2.72967	24
2.73333	25
2.73700	25
2.74067	25
2.74433	25
2.74800	25
2.75167	25
2.75533	25
2.75900	24
2.76267	24
2.76633	23
2.77000	23
2.77367	23
2.77733	23
2.78100	23
2.78467	23
2.78833	23
2.79200	23
2.79567	24
2.79933	24
2.80300	24
2.80667	24
2.81033	24
2.81400	25
2.81767	25
2.82133	25
2.82500	25
2.82867	25
2.83233	25
2.83600	25
2.83967	25
2.84333	23
2.84700	21
2.85067	17
2.85433	11
2.85800	2
2.86167	-10
2.86533	-26
2.86900	-47
2.87267	-72
2.87633	-101
2.88000	-134
2.88367	-172
2.88733	-213
2.89100	-258
2.89467	-306
2.89833	-357
2.90200	-409
2.90567	-463
2.90933	-518
2.91300	-573
2.91667	-628
2.92033	-683
2.92400	-737
2.92767	-790
2.93133	-841
2.93500	-893
2.93867	-950
2.94233	-1009
2.94600	-1059
2.94967	-1091
2.95333	-1099
2.95700	-1081
2.96067	-1039
2.96433	-980
2.96800	-909
2.97167	-831
2.97533	-751
2.97900	-671
2.98267	-595
2.98633	-523
2.99000	-457
2.99367	-396
2.99733	-342
3.00100	-294
3.00467	-252
3.00833	-215
3.01200	-184
3.01567	-156
3.01933	-132
3.02300	-112
3.02667	-94
3.03033	-79
3.03400	-66
3.03767	-55
3.04133	-45
3.04500	-37
3.04867	-29
3.05233	-23
3.05600	-18
3.05967	-13
3.06333	-9
3.06700	-6
3.07067	-4
3.07433	-1
3.07800	1
3.08167	3
3.08533	4
3.08900	5
3.09267	6
3.09633	7
3.10000	8
3.10367	9
3.10733	10
3.11100	11
3.11467	11
3.11833	12
3.12200	12
3.12567	13
3.12933	13
3.13300	14
3.13667	14
3.14033	15
3.14400	15
3.14767	15
3.15133	16
3.15500	16
3.15867	17
3.16233	17
3.16600	18
3.16967	18
3.17333	18
3.17700	19
3.18067	19
3.18433	19
3.18800	19
3.19167	19
3.19533	19
3.19900	19
3.20267	19
3.20633	19
3.21000	20
3.21367	19
3.21733	19
3.22100	19
3.22467	19
3.22833	19
3.23200	19
3.23567	20
3.23933	20
3.24300	20
3.24667	20
3.25033	20
3.25400	21
3.25767	21
3.26133	21
3.26500	21
3.26867	21
3.27233	22
3.27600	22
3.27967	22
3.28333	23
3.28700	23
3.29067	23
3.29433	24
3.29800	24
3.30167	24
3.30533	24
3.30900	24
3.31267	24
3.31633	24
3.32000	24
3.32367	24
3.32733	24
3.33100	24
3.33467	24
3.33833	24
3.34200	24
3.34567	24
3.34933	24
3.35300	24
3.35667	24
3.36033	24
3.36400	24
3.36767	24
3.37133	24
3.37500	24
3.37867	24
3.38233	24
3.38600	24
3.38967	24
3.39333	24
3.39700	24
3.40067	24
3.40433	24
3.40800	24
3.41167	24
3.41533	24
3.41900	24
3.42267	24
3.42633	24
3.43000	24
3.43367	24
3.43733	24
3.44100	24
3.44467	24
3.44833	25
3.45200	25
3.45567	25
3.45933	26
3.46300	26
3.46667	26
3.47033	27
3.47400	27
3.47767	27
3.48133	27
3.48500	27
3.48867	27
3.49233	27
3.49600	27
3.49967	27
3.50333	27
3.50700	27
3.51067	27
3.51433	26
3.51800	26
3.52167	26
3.52533	26
3.52900	25
3.53267	25
3.53633	25
3.54000	25
3.54367	25
3.54733	25
3.55100	25
3.55467	25
3.55833	26
3.56200	26
3.56567	26
3.56933	26
3.57300	26
3.57667	26
3.58033	26
3.58400	26
3.58767	26
3.59133	26
3.59500	26
3.59867	26
3.60233	26
3.60600	26
3.60967	26
3.61333	26
3.61700	26
3.62067	26
3.62433	26
3.62800	26
3.63167	26
3.63533	26
3.63900	27
3.64267	27
3.64633	27
3.65000	27
3.65367	27
3.65733	27
3.66100	26
3.66467	26
3.66833	26
3.67200	26
3.67567	26
3.67933	26
3.68300	26
3.68667	26
3.69033	25
3.69400	25
3.69767	25
3.70133	25
3.70500	25
3.70867	25
3.71233	25
3.71600	26
3.71967	25
3.72333	25
3.72700	25
3.73067	25
3.73433	25
3.73800	25
3.74167	25
3.74533	25
3.74900	25
3.75267	26
3.75633	26
3.76000	26
3.76367	26
3.76733	26
3.77100	26
3.77467	26
3.77833	26
3.78200	26
3.78567	26
3.78933	26
3.79300	26
3.79667	26
3.80033	26
3.80400	26
3.80767	26
3.81133	26
3.81500	25
3.81867	25
3.82233	25
3.82600	25
3.82967	25
3.83333	25
3.83700	25
3.84067	25
3.84433	25
3.84800	25
3.85167	25
3.85533	25
3.85900	25
3.86267	25
3.86633	25
3.87000	25
3.87367	25
3.87733	25
3.88100	25
3.88467	25
3.88833	25
3.89200	25
3.89567	25
3.89933	26
3.90300	26
3.90667	26
3.91033	26
3.91400	26
3.91767	26
3.92133	26
3.92500	26
3.92867	26
3.93233	26
3.93600	27
3.93967	27
3.94333	27
3.94700	26
3.95067	26
3.95433	26
3.95800	26
3.96167	26
3.96533	26
3.96900	26
3.97267	26
3.97633	26
3.98000	26
3.98367	27
3.98733	27
3.99100	27
3.99467	27
3.99833	27

[Chromatogram (Ch3)]
Interval(msec)	220
# of Points	1091
Start Time(min)	0.002
End Time(min)	3.998
R.Time (min)	Intensity
0.00167	1
0.00533	1
0.00900	2
0.01267	2
0.01633	3
0.02000	3
0.02367	2
0.02733	1
0.03100	1
0.03467	1
0.03833	3
0.04200	4
0.04567	5
0.04933	6
0.05300	6
0.05667	6
0.06033	4
0.06400	2
0.06767	2
0.07133	3
0.07500	3
0.07867	3
0.08233	2
0.08600	1
0.08967	2
0.09333	4
0.09700	5
0.10067	6
0.10433	6
0.10800	5
0.11167	3
0.11533	0
0.11900	2
0.12267	4
0.12633	6
0.13000	7
0.13367	6
0.13733	5
0.14100	5
0.14467	6
0.14833	5
0.15200	6
0.15567	7
0.15933	10
0.16300	9
0.16667	7
0.17033	7
0.17400	7
0.17767	7
0.18133	9
0.18500	9
0.18867	7
0.19233	6
0.19600	6
0.19967	4
0.20333	2
0.20700	1
0.21067	2
0.21433	4
0.21800	6
0.22167	5
0.22533	5
0.22900	6
0.23267	7
0.23633	9
0.24000	10
0.24367	10
0.24733	11
0.25100	10
0.25467	10
0.25833	10
0.26200	9
0.26567	9
0.26933	8
0.27300	6
0.27667	5
0.28033	6
0.28400	6
0.28767	6
0.29133	5
0.29500	4
0.29867	6
0.30233	10
0.30600	11
0.30967	10
0.31333	10
0.31700	7
0.32067	5
0.32433	6
0.32800	5
0.33167	5
0.33533	6
0.33900	8
0.34267	8
0.34633	9
0.35000	12
0.35367	13
0.35733	13
0.36100	13
0.36467	12
0.36833	12
0.37200	10
0.37567	9
0.37933	7
0.38300	8
0.38667	7
0.39033	8
0.39400	9
0.39767	7
0.40133	6
0.40500	6
0.40867	6
0.41233	6
0.41600	7
0.41967	7
0.42333	8
0.42700	11
0.43067	13
0.43433	13
0.43800	15
0.44167	15
0.44533	13
0.44900	11
0.45267	9
0.45633	8
0.46000	8
0.46367	9
0.46733	11
0.47100	11
0.47467	12
0.47833	13
0.48200	13
0.48567	12
0.48933	10
0.49300	7
0.49667	8
0.50033	10
0.50400	8
0.50767	6
0.51133	5
0.51500	5
0.51867	5
0.52233	7
0.52600	8
0.52967	9
0.53333	10
0.53700	12
0.54067	14
0.54433	13
0.54800	12
0.55167	13
0.55533	15
0.55900	17
0.56267	17
0.56633	16
0.57000	15
0.57367	15
0.57733	15
0.58100	16
0.58467	16
0.58833	15
0.59200	14
0.59567	12
0.59933	11
0.60300	12
0.60667	15
0.61033	16
0.61400	16
0.61767	16
0.62133	15
0.62500	14
0.62867	14
0.63233	13
0.63600	13
0.63967	14
0.64333	14
0.64700	16
0.65067	16
0.65433	16
0.65800	16
0.66167	16
0.66533	16
0.66900	16
0.67267	15
0.67633	16
0.68000	17
0.68367	17
0.68733	18
0.69100	18
0.69467	16
0.69833	14
0.70200	13
0.70567	13
0.70933	15
0.71300	17
0.71667	19
0.72033	19
0.72400	19
0.72767	18
0.73133	19
0.73500	20
0.73867	19
0.74233	18
0.74600	18
0.74967	19
0.75333	19
0.75700	20
0.76067	21
0.76433	20
0.76800	19
0.77167	18
0.77533	18
0.77900	20
0.78267	21
0.78633	22
0.79000	23
0.79367	23
0.79733	22
0.80100	20
0.80467	18
0.80833	19
0.81200	18
0.81567	16
0.81933	16
0.82300	18
0.82667	17
0.83033	18
0.83400	22
0.83767	23
0.84133	23
0.84500	22
0.84867	23
0.85233	24
0.85600	23
0.85967	22
0.86333	19
0.86700	17
0.87067	16
0.87433	17
0.87800	19
0.88167	19
0.88533	20
0.88900	20
0.89267	20
0.89633	21
0.90000	19
0.90367	16
0.90733	17
0.91100	20
0.91467	23
0.91833	23
0.92200	24
0.92567	24
0.92933	24
0.93300	23
0.93667	23
0.94033	22
0.94400	20
0.94767	19
0.95133	21
0.95500	22
0.95867	25
0.96233	28
0.96600	29
0.96967	28
0.97333	26
0.97700	25
0.98067	27
0.98433	27
0.98800	27
0.99167	31
0.99533	32
0.99900	30
1.00267	26
1.00633	25
1.01000	26
1.01367	25
1.01733	24
1.02100	23
1.02467	23
1.02833	22
1.03200	22
1.03567	25
1.03933	28
1.04300	30
1.04667	30
1.05033	30
1.05400	30
1.05767	29
1.06133	27
1.06500	28
1.06867	29
1.07233	29
1.07600	29
1.07967	29
1.08333	27
1.08700	27
1.09067	28
1.09433	28
1.09800	27
1.10167	27
1.10533	28
1.10900	28
1.11267	27
1.11633	28
1.12000	28
1.12367	28
1.12733	29
1.13100	30
1.13467	31
1.13833	32
1.14200	30
1.14567	28
1.14933	26
1.15300	25
1.15667	24
1.16033	25
1.16400	27
1.16767	29
1.17133	31
1.17500	30
1.17867	28
1.18233	30
1.18600	30
1.18967	30
1.19333	29
1.19700	27
1.20067	29
1.20433	29
1.20800	29
1.21167	30
1.21533	30
1.21900	30
1.22267	31
1.22633	32
1.23000	33
1.23367	34
1.23733	36
1.24100	38
1.24467	36
1.24833	35
1.25200	36
1.25567	35
1.25933	34
1.26300	36
1.26667	36
1.27033	36
1.27400	36
1.27767	38
1.28133	38
1.28500	36
1.28867	33
1.29233	31
1.29600	30
1.29967	31
1.30333	33
1.30700	35
1.31067	37
1.31433	36
1.31800	34
1.32167	34
1.32533	35
1.32900	35
1.33267	35
1.33633	35
1.34000	34
1.34367	33
1.34733	35
1.35100	36
1.35467	36
1.35833	35
1.36200	34
1.36567	35
1.36933	36
1.37300	37
1.37667	35
1.38033	34
1.38400	34
1.38767	36
1.39133	37
1.39500	34
1.39867	33
1.40233	33
1.40600	32
1.40967	32
1.41333	33
1.41700	36
1.42067	38
1.42433	40
1.42800	39
1.43167	38
1.43533	35
1.43900	32
1.44267	32
1.44633	33
1.45000	34
1.45367	35
1.45733	35
1.46100	35
1.46467	36
1.46833	37
1.47200	36
1.47567	36
1.47933	37
1.48300	36
1.48667	34
1.49033	34
1.49400	36
1.49767	36
1.50133	36
1.50500	35
1.50867	34
1.51233	34
1.51600	34
1.51967	35
1.52333	35
1.52700	37
1.53067	38
1.53433	39
1.53800	38
1.54167	37
1.54533	37
1.54900	38
1.55267	41
1.55633	42
1.56000	42
1.56367	41
1.56733	41
1.57100	43
1.57467	42
1.57833	40
1.58200	40
1.58567	39
1.58933	39
1.59300	37
1.59667	36
1.60033	35
1.60400	36
1.60767	40
1.61133	40
1.61500	41
1.61867	42
1.62233	43
1.62600	44
1.62967	47
1.63333	49
1.63700	49
1.64067	50
1.64433	49
1.64800	48
1.65167	49
1.65533	50
1.65900	52
1.66267	54
1.66633	54
1.67000	55
1.67367	55
1.67733	53
1.68100	51
1.68467	49
1.68833	48
1.69200	49
1.69567	50
1.69933	52
1.70300	55
1.70667	57
1.71033	58
1.71400	60
1.71767	60
1.72133	62
1.72500	62
1.72867	60
1.73233	58
1.73600	57
1.73967	58
1.74333	60
1.74700	62
1.75067	60
1.75433	58
1.75800	58
1.76167	59
1.76533	59
1.76900	58
1.77267	59
1.77633	61
1.78000	62
1.78367	64
1.78733	68
1.79100	70
1.79467	70
1.79833	72
1.80200	72
1.80567	70
1.80933	67
1.81300	67
1.81667	68
1.82033	69
1.82400	71
1.82767	73
1.83133	73
1.83500	72
1.83867	72
1.84233	74
1.84600	76
1.84967	80
1.85333	81
1.85700	81
1.86067	80
1.86433	77
1.86800	77
1.87167	77
1.87533	76
1.87900	78
1.88267	79
1.88633	81
1.89000	83
1.89367	86
1.89733	88
1.90100	89
1.90467	88
1.90833	87
1.91200	86
1.91567	86
1.91933	87
1.92300	87
1.92667	87
1.93033	90
1.93400	92
1.93767	92
1.94133	92
1.94500	92
1.94867	92
1.95233	94
1.95600	95
1.95967	93
1.96333	94
1.96700	96
1.97067	97
1.97433	97
1.97800	98
1.98167	100
1.98533	103
1.98900	105
1.99267	107
1.99633	109
2.00000	109
2.00367	110
2.00733	111
2.01100	111
2.01467	110
2.01833	112
2.02200	111
2.02567	108
2.02933	111
2.03300	114
2.03667	115
2.04033	116
2.04400	119
2.04767	122
2.05133	123
2.05500	122
2.05867	121
2.06233	123
2.06600	124
2.06967	127
2.07333	129
2.07700	131
2.08067	131
2.08433	132
2.08800	133
2.09167	134
2.09533	135
2.09900	137
2.10267	137
2.10633	138
2.11000	137
2.11367	136
2.11733	137
2.12100	139
2.12467	142
2.12833	145
2.13200	148
2.13567	150
2.13933	151
2.14300	152
2.14667	153
2.15033	153
2.15400	155
2.15767	157
2.16133	159
2.16500	161
2.16867	161
2.17233	161
2.17600	163
2.17967	163
2.18333	164
2.18700	165
2.19067	167
2.19433	169
2.19800	169
2.20167	171
2.20533	172
2.20900	172
2.21267	171
2.21633	171
2.22000	169
2.22367	170
2.22733	175
2.23100	178
2.23467	178
2.23833	177
2.24200	178
2.24567	177
2.24933	174
2.25300	175
2.25667	177
2.26033	180
2.26400	182
2.26767	183
2.27133	186
2.27500	187
2.27867	185
2.28233	185
2.28600	185
2.28967	190
2.29333	193
2.29700	191
2.30067	189
2.30433	189
2.30800	191
2.31167	194
2.31533	197
2.31900	200
2.32267	203
2.32633	204
2.33000	204
2.33367	203
2.33733	203
2.34100	203
2.34467	204
2.34833	203
2.35200	203
2.35567	206
2.35933	207
2.36300	208
2.36667	210
2.37033	211
2.37400	211
2.37767	210
2.38133	211
2.38500	214
2.38867	213
2.39233	211
2.39600	211
2.39967	213
2.40333	215
2.40700	217
2.41067	219
2.41433	220
2.41800	221
2.42167	221
2.42533	220
2.42900	221
2.43267	223
2.43633	223
2.44000	228
2.44367	281
2.44733	412
2.45100	550
2.45467	663
2.45833	723
2.46200	725
2.46567	695
2.46933	663
2.47300	642
2.47667	627
2.48033	607
2.48400	576
2.48767	535
2.49133	494
2.49500	454
2.49867	422
2.50233	400
2.50600	390
2.50967	387
2.51333	393
2.51700	409
2.52067	430
2.52433	446
2.52800	453
2.53167	449
2.53533	433
2.53900	407
2.54267	378
2.54633	353
2.55000	330
2.55367	310
2.55733	293
2.56100	278
2.56467	269
2.56833	263
2.57200	258
2.57567	255
2.57933	254
2.58300	253
2.58667	254
2.59033	257
2.59400	261
2.59767	263
2.60133	261
2.60500	257
2.60867	251
2.61233	242
2.61600	230
2.61967	221
2.62333	212
2.62700	203
2.63067	195
2.63433	188
2.63800	180
2.64167	172
2.64533	164
2.64900	158
2.65267	151
2.65633	144
2.66000	139
2.66367	133
2.66733	126
2.67100	120
2.67467	114
2.67833	110
2.68200	109
2.68567	108
2.68933	109
2.69300	111
2.69667	112
2.70033	114
2.70400	115
2.70767	117
2.71133	119
2.71500	123
2.71867	127
2.72233	130
2.72600	133
2.72967	136
2.73333	138
2.73700	142
2.74067	146
2.74433	150
2.74800	154
2.75167	161
2.75533	164
2.75900	165
2.76267	167
2.76633	169
2.77000	173
2.77367	178
2.77733	182
2.78100	184
2.78467	186
2.78833	190
2.79200	193
2.79567	196
2.79933	198
2.80300	201
2.80667	205
2.81033	210
2.81400	217
2.81767	224
2.82133	233
2.82500	251
2.82867	286
2.83233	351
2.83600	467
2.83967	654
2.84333	929
2.84700	1303
2.85067	1769
2.85433	2302
2.85800	2870
2.86167	3426
2.86533	3924
2.86900	4326
2.87267	4604
2.87633	4742
2.88000	4746
2.88367	4634
2.88733	4431
2.89100	4163
2.89467	3855
2.89833	3528
2.90200	3199
2.90567	2880
2.90933	2579
2.91300	2302
2.91667	2051
2.92033	1826
2.92400	1626
2.92767	1446
2.93133	1284
2.93500	1144
2.93867	1022
2.94233	916
2.94600	824
2.94967	743
2.95333	674
2.95700	612
2.96067	559
2.96433	515
2.96800	476
2.97167	442
2.97533	412
2.97900	386
2.98267	365
2.98633	346
2.99000	326
2.99367	309
2.99733	296
3.00100	286
3.00467	280
3.00833	274
3.01200	267
3.01567	262
3.01933	257
3.02300	252
3.02667	248
3.03033	244
3.03400	240
3.03767	237
3.04133	235
3.04500	234
3.04867	232
3.05233	230
3.05600	229
3.05967	229
3.06333	227
3.06700	221
3.07067	200
3.07433	171
3.07800	159
3.08167	165
3.08533	185
3.08900	214
3.09267	248
3.09633	287
3.10000	329
3.10367	373
3.10733	417
3.11100	460
3.11467	501
3.11833	538
3.12200	572
3.12567	602
3.12933	630
3.13300	654
3.13667	675
3.14033	690
3.14400	703
3.14767	717
3.15133	729
3.15500	738
3.15867	746
3.16233	756
3.16600	767
3.16967	777
3.17333	785
3.17700	795
3.18067	803
3.18433	809
3.18800	817
3.19167	825
3.19533	830
3.19900	833
3.20267	837
3.20633	842
3.21000	849
3.21367	854
3.21733	861
3.22100	867
3.22467	872
3.22833	876
3.23200	879
3.23567	882
3.23933	887
3.24300	890
3.24667	891
3.25033	892
3.25400	895
3.25767	896
3.26133	895
3.26500	897
3.26867	899
3.27233	901
3.27600	904
3.27967	907
3.28333	908
3.28700	910
3.29067	912
3.29433	912
3.29800	911
3.30167	910
3.30533	909
3.30900	908
3.31267	910
3.31633	910
3.32000	907
3.32367	904
3.32733	902
3.33100	902
3.33467	902
3.33833	901
3.34200	898
3.34567	895
3.34933	893
3.35300	890
3.35667	888
3.36033	888
3.36400	890
3.36767	890
3.37133	887
3.37500	885
3.37867	882
3.38233	880
3.38600	878
3.38967	875
3.39333	874
3.39700	872
3.40067	871
3.40433	871
3.40800	870
3.41167	868
3.41533	867
3.41900	866
3.42267	864
3.42633	862
3.43000	860
3.43367	862
3.43733	862
3.44100	860
3.44467	860
3.44833	857
3.45200	853
3.45567	852
3.45933	849
3.46300	845
3.46667	845
3.47033	846
3.47400	845
3.47767	843
3.48133	841
3.48500	839
3.48867	836
3.49233	835
3.49600	833
3.49967	831
3.50333	828
3.50700	827
3.51067	827
3.51433	827
3.51800	828
3.52167	828
3.52533	827
3.52900	824
3.53267	822
3.53633	821
3.54000	820
3.54367	820
3.54733	822
3.55100	820
3.55467	817
3.55833	814
3.56200	810
3.56567	805
3.56933	803
3.57300	802
3.57667	801
3.58033	800
3.58400	801
3.58767	801
3.59133	800
3.59500	799
3.59867	796
3.60233	794
3.60600	793
3.60967	793
3.61333	794
3.61700	791
3.62067	789
3.62433	787
3.62800	786
3.63167	785
3.63533	783
3.63900	781
3.64267	780
3.64633	782
3.65000	783
3.65367	779
3.65733	773
3.66100	769
3.66467	769
3.66833	769
3.67200	766
3.67567	762
3.67933	757
3.68300	755
3.68667	755
3.69033	754
3.69400	754
3.69767	753
3.70133	750
3.70500	745
3.70867	739
3.71233	737
3.71600	737
3.71967	737
3.72333	735
3.72700	734
3.73067	735
3.73433	732
3.73800	730
3.74167	729
3.74533	725
3.74900	723
3.75267	721
3.75633	719
3.76000	716
3.76367	711
3.76733	708
3.77100	706
3.77467	707
3.77833	707
3.78200	705
3.78567	700
3.78933	696
3.79300	694
3.79667	693
3.80033	690
3.80400	687
3.80767	685
3.81133	682
3.81500	678
3.81867	674
3.82233	673
3.82600	672
3.82967	671
3.83333	670
3.83700	670
3.84067	671
3.84433	671
3.84800	669
3.85167	666
3.85533	663
3.85900	660
3.86267	658
3.86633	657
3.87000	658
3.87367	655
3.87733	650
3.88100	649
3.88467	649
3.88833	648
3.89200	645
3.89567	641
3.89933	639
3.90300	638
3.90667	636
3.91033	633
3.91400	632
3.91767	629
3.92133	627
3.92500	627
3.92867	628
3.93233	627
3.93600	624
3.93967	623
3.94333	620
3.94700	618
3.95067	617
3.95433	618
3.95800	619
3.96167	616
3.96533	613
3.96900	609
3.97267	605
3.97633	604
3.98000	604
3.98367	606
3.98733	607
3.99100	605
3.99467	604
3.99833	601

[Status Trace (Column Oven Temperature)]
Interval(msec)	1000
# of Points	240
Start Time(min)	0.015
End Time(min)	3.998
Intensity Units	
Intensity Multiplier	1
R.Time (min)	Intensity
0.01470	35.05
0.03137	35.07
0.04803	35.07
0.06470	35.08
0.08137	35.08
0.09803	35.07
0.11470	35.06
0.13137	35.05
0.14803	35.04
0.16470	35.04
0.18137	35.05
0.19803	35.06
0.21470	35.06
0.23137	35.05
0.24803	35.05
0.26470	35.05
0.28137	35.04
0.29803	35.02
0.31470	35.01
0.33137	35.01
0.34803	35.01
0.36470	35.02
0.38137	35.02
0.39803	35.01
0.41470	35.01
0.43137	35.02
0.44803	35.02
0.46470	35.03
0.48137	35.03
0.49803	35.03
0.51470	35.03
0.53137	35.02
0.54803	35.02
0.56470	35.02
0.58137	35.01
0.59803	35.01
0.61470	35.00
0.63137	34.99
0.64803	34.98
0.66470	34.97
0.68137	34.96
0.69803	34.96
0.71470	34.97
0.73137	34.98
0.74803	34.99
0.76470	35.00
0.78137	35.02
0.79803	35.02
0.81470	35.03
0.83137	35.03
0.84803	35.04
0.86470	35.03
0.88137	35.03
0.89803	35.02
0.91470	35.02
0.93137	35.03
0.94803	35.02
0.96470	35.02
0.98137	35.02
0.99803	35.02
1.01470	35.02
1.03137	35.02
1.04803	35.01
1.06470	35.02
1.08137	35.00
1.09803	34.99
1.11470	34.98
1.13137	34.99
1.14803	34.99
1.16470	34.98
1.18137	34.98
1.19803	34.97
1.21470	34.98
1.23137	34.99
1.24803	34.99
1.26470	34.99
1.28137	34.98
1.29803	34.98
1.31470	34.97
1.33137	34.98
1.34803	34.99
1.36470	34.98
1.38137	34.98
1.39803	34.98
1.41470	35.00
1.43137	35.00
1.44803	35.00
1.46470	35.01
1.48137	35.01
1.49803	35.01
1.51470	35.01
1.53137	35.01
1.54803	35.00
1.56470	35.01
1.58137	35.00
1.59803	35.02
1.61470	35.10
1.63137	35.25
1.64803	35.46
1.66470	35.74
1.68137	36.10
1.69803	36.49
1.71470	36.84
1.73137	37.17
1.74803	37.47
1.76470	37.80
1.78137	38.15
1.79803	38.48
1.81470	38.81
1.83137	39.13
1.84803	39.47
1.86470	39.79
1.88137	40.13
1.89803	40.47
1.91470	40.78
1.93137	41.11
1.94803	41.43
1.96470	41.76
1.98137	42.08
1.99803	42.42
2.01470	42.74
2.03137	43.08
2.04803	43.39
2.06470	43.73
2.08137	44.03
2.09803	44.35
2.11470	44.69
2.13137	45.02
2.14803	45.35
2.16470	45.67
2.18137	46.01
2.19803	46.34
2.21470	46.65
2.23137	46.99
2.24803	47.32
2.26470	47.65
2.28137	47.97
2.29803	48.29
2.31470	48.63
2.33137	48.96
2.34803	49.27
2.36470	49.55
2.38137	49.69
2.39803	49.72
2.41470	49.71
2.43137	49.71
2.44803	49.72
2.46470	49.70
2.48137	49.72
2.49803	49.73
2.51470	49.74
2.53137	49.75
2.54803	49.76
2.56470	49.78
2.58137	49.79
2.59803	49.79
2.61470	49.81
2.63137	49.82
2.64803	49.83
2.66470	49.83
2.68137	49.85
2.69803	49.87
2.71470	49.86
2.73137	49.84
2.74803	49.85
2.76470	49.86
2.78137	49.87
2.79803	49.87
2.81470	49.87
2.83137	49.87
2.84803	49.89
2.86470	49.90
2.88137	49.90
2.89803	49.91
2.91470	49.92
2.93137	49.93
2.94803	49.94
2.96470	49.95
2.98137	49.95
2.99803	49.96
3.01470	49.98
3.03137	49.99
3.04803	49.99
3.06470	50.00
3.08137	50.01
3.09803	50.02
3.11470	50.03
3.13137	50.03
3.14803	50.03
3.16470	50.03
3.18137	50.04
3.19803	50.05
3.21470	50.06
3.23137	50.08
3.24803	50.08
3.26470	50.08
3.28137	50.08
3.29803	50.08
3.31470	50.08
3.33137	50.07
3.34803	50.07
3.36470	50.08
3.38137	50.09
3.39803	50.09
3.41470	50.10
3.43137	50.11
3.44803	50.10
3.46470	50.09
3.48137	50.08
3.49803	50.08
3.51470	50.09
3.53137	50.09
3.54803	50.08
3.56470	50.08
3.58137	50.08
3.59803	50.07
3.61470	50.06
3.63137	50.06
3.64803	50.07
3.66470	50.07
3.68137	50.06
3.69803	50.06
3.71470	50.07
3.73137	50.07
3.74803	50.07
3.76470	50.06
3.78137	50.06
3.79803	50.06
3.81470	50.07
3.83137	50.07
3.84803	50.08
3.86470	50.09
3.88137	50.09
3.89803	50.09
3.91470	50.08
3.93137	50.07
3.94803	50.07
3.96470	50.07
3.98137	50.06
3.99803	50.06

[Status Trace (Injection Unit Temperature)]
Interval(msec)	1000
# of Points	240
Start Time(min)	0.015
End Time(min)	3.998
Intensity Units	
Intensity Multiplier	1
R.Time (min)	Intensity
0.01470	99.99
0.03137	99.98
0.04803	99.98
0.06470	99.98
0.08137	99.99
0.09803	99.99
0.11470	99.99
0.13137	99.99
0.14803	99.99
0.16470	99.99
0.18137	99.98
0.19803	99.98
0.21470	99.98
0.23137	99.98
0.24803	99.98
0.26470	99.99
0.28137	99.98
0.29803	99.98
0.31470	99.98
0.33137	99.98
0.34803	99.98
0.36470	99.99
0.38137	99.99
0.39803	99.98
0.41470	99.98
0.43137	99.99
0.44803	99.99
0.46470	99.98
0.48137	99.98
0.49803	99.98
0.51470	99.98
0.53137	99.99
0.54803	99.98
0.56470	99.98
0.58137	99.98
0.59803	99.98
0.61470	99.98
0.63137	99.99
0.64803	99.98
0.66470	99.98
0.68137	99.98
0.69803	99.98
0.71470	99.98
0.73137	99.98
0.74803	99.99
0.76470	99.98
0.78137	99.98
0.79803	99.98
0.81470	99.98
0.83137	99.98
0.84803	99.98
0.86470	99.98
0.88137	99.98
0.89803	99.98
0.91470	99.98
0.93137	99.98
0.94803	99.98
0.96470	99.98
0.98137	99.98
0.99803	99.98
1.01470	99.98
1.03137	99.98
1.04803	99.98
1.06470	99.98
1.08137	99.98
1.09803	99.98
1.11470	99.98
1.13137	99.99
1.14803	99.98
1.16470	99.99
1.18137	99.98
1.19803	99.99
1.21470	99.99
1.23137	99.99
1.24803	99.99
1.26470	99.99
1.28137	99.99
1.29803	99.99
1.31470	99.99
1.33137	99.98
1.34803	99.99
1.36470	99.99
1.38137	99.99
1.39803	99.99
1.41470	99.98
1.43137	99.99
1.44803	99.99
1.46470	99.99
1.48137	99.99
1.49803	99.99
1.51470	99.99
1.53137	99.99
1.54803	99.99
1.56470	99.99
1.58137	99.99
1.59803	99.99
1.61470	99.99
1.63137	99.98
1.64803	99.99
1.66470	99.98
1.68137	99.99
1.69803	99.98
1.71470	99.98
1.73137	99.99
1.74803	99.98
1.76470	99.98
1.78137	99.98
1.79803	99.98
1.81470	99.98
1.83137	99.98
1.84803	99.97
1.86470	99.97
1.88137	99.98
1.89803	99.98
1.91470	99.98
1.93137	99.98
1.94803	99.97
1.96470	99.98
1.98137	99.98
1.99803	99.98
2.01470	99.98
2.03137	99.98
2.04803	99.98
2.06470	99.97
2.08137	99.97
2.09803	99.98
2.11470	99.97
2.13137	99.97
2.14803	99.97
2.16470	99.97
2.18137	99.97
2.19803	99.97
2.21470	99.97
2.23137	99.97
2.24803	99.97
2.26470	99.98
2.28137	99.97
2.29803	99.98
2.31470	99.97
2.33137	99.97
2.34803	99.97
2.36470	99.97
2.38137	99.97
2.39803	99.98
2.41470	99.98
2.43137	99.98
2.44803	99.98
2.46470	99.97
2.48137	99.98
2.49803	99.98
2.51470	99.98
2.53137	99.98
2.54803	99.98
2.56470	99.98
2.58137	99.98
2.59803	99.98
2.61470	99.98
2.63137	99.99
2.64803	99.98
2.66470	99.99
2.68137	99.99
2.69803	99.99
2.71470	99.99
2.73137	99.99
2.74803	99.99
2.76470	100.00
2.78137	99.99
2.79803	99.99
2.81470	100.00
2.83137	100.00
2.84803	100.00
2.86470	100.00
2.88137	100.00
2.89803	100.01
2.91470	100.01
2.93137	100.01
2.94803	100.01
2.96470	100.01
2.98137	100.01
2.99803	100.01
3.01470	100.02
3.03137	100.02
3.04803	100.02
3.06470	100.01
3.08137	100.02
3.09803	100.01
3.11470	100.02
3.13137	100.01
3.14803	100.02
3.16470	100.02
3.18137	100.02
3.19803	100.02
3.21470	100.02
3.23137	100.02
3.24803	100.02
3.26470	100.02
3.28137	100.02
3.29803	100.02
3.31470	100.01
3.33137	100.02
3.34803	100.02
3.36470	100.02
3.38137	100.02
3.39803	100.02
3.41470	100.03
3.43137	100.02
3.44803	100.02
3.46470	100.03
3.48137	100.03
3.49803	100.02
3.51470	100.03
3.53137	100.02
3.54803	100.03
3.56470	100.02
3.58137	100.03
3.59803	100.03
3.61470	100.03
3.63137	100.02
3.64803	100.03
3.66470	100.03
3.68137	100.03
3.69803	100.03
3.71470	100.03
3.73137	100.03
3.74803	100.03
3.76470	100.03
3.78137	100.03
3.79803	100.03
3.81470	100.03
3.83137	100.04
3.84803	100.04
3.86470	100.04
3.88137	100.03
3.89803	100.03
3.91470	100.03
3.93137	100.04
3.94803	100.04
3.96470	100.03
3.98137	100.04
3.99803	100.04

[Status Trace (Carrier Gas Pressure)]
Interval(msec)	1000
# of Points	240
Start Time(min)	0.015
End Time(min)	3.998
Intensity Units	
Intensity Multiplier	1
R.Time (min)	Intensity
0.01470	57.18
0.03137	55.55
0.04803	58.04
0.06470	59.87
0.08137	58.63
0.09803	57.98
0.11470	58.00
0.13137	58.01
0.14803	58.01
0.16470	58.01
0.18137	58.00
0.19803	58.00
0.21470	58.00
0.23137	58.00
0.24803	58.00
0.26470	58.00
0.28137	58.00
0.29803	58.00
0.31470	58.00
0.33137	58.00
0.34803	58.00
0.36470	58.00
0.38137	58.00
0.39803	58.00
0.41470	58.00
0.43137	58.00
0.44803	58.00
0.46470	58.00
0.48137	58.00
0.49803	58.00
0.51470	58.00
0.53137	58.00
0.54803	58.00
0.56470	58.00
0.58137	58.00
0.59803	58.00
0.61470	58.00
0.63137	58.00
0.64803	58.00
0.66470	58.00
0.68137	58.00
0.69803	58.00
0.71470	58.00
0.73137	58.00
0.74803	58.00
0.76470	58.00
0.78137	58.00
0.79803	58.00
0.81470	58.00
0.83137	58.00
0.84803	58.00
0.86470	58.00
0.88137	58.00
0.89803	58.00
0.91470	58.00
0.93137	58.00
0.94803	58.00
0.96470	58.00
0.98137	58.00
0.99803	58.00
1.01470	58.00
1.03137	58.00
1.04803	58.00
1.06470	58.00
1.08137	58.00
1.09803	58.00
1.11470	58.00
1.13137	58.00
1.14803	58.00
1.16470	58.00
1.18137	58.00
1.19803	58.00
1.21470	58.00
1.23137	58.00
1.24803	58.00
1.26470	58.00
1.28137	58.00
1.29803	58.00
1.31470	58.00
1.33137	58.00
1.34803	58.00
1.36470	58.00
1.38137	58.00
1.39803	58.00
1.41470	58.00
1.43137	58.00
1.44803	58.00
1.46470	58.00
1.48137	58.00
1.49803	58.00
1.51470	58.00
1.53137	58.00
1.54803	58.00
1.56470	58.00
1.58137	58.00
1.59803	58.00
1.61470	58.00
1.63137	58.00
1.64803	58.00
1.66470	58.00
1.68137	58.01
1.69803	58.00
1.71470	58.00
1.73137	58.00
1.74803	58.00
1.76470	58.00
1.78137	58.00
1.79803	58.00
1.81470	58.00
1.83137	58.00
1.84803	58.00
1.86470	58.00
1.88137	58.00
1.89803	58.00
1.91470	58.00
1.93137	58.00
1.94803	58.00
1.96470	58.00
1.98137	58.00
1.99803	58.00
2.01470	58.00
2.03137	58.00
2.04803	58.00
2.06470	58.00
2.08137	58.00
2.09803	58.00
2.11470	58.00
2.13137	58.00
2.14803	58.00
2.16470	58.00
2.18137	58.00
2.19803	58.00
2.21470	58.00
2.23137	58.00
2.24803	58.00
2.26470	58.00
2.28137	58.00
2.29803	58.00
2.31470	58.00
2.33137	58.00
2.34803	58.00
2.36470	58.00
2.38137	58.00
2.39803	57.99
2.41470	58.00
2.43137	58.00
2.44803	58.00
2.46470	58.00
2.48137	58.00
2.49803	58.00
2.51470	57.99
2.53137	57.99
2.54803	58.00
2.56470	58.00
2.58137	58.00
2.59803	58.00
2.61470	58.00
2.63137	58.00
2.64803	58.00
2.66470	58.00
2.68137	58.00
2.69803	58.00
2.71470	58.00
2.73137	58.00
2.74803	58.00
2.76470	58.00
2.78137	58.00
2.79803	58.00
2.81470	58.00
2.83137	58.00
2.84803	58.00
2.86470	58.00
2.88137	58.00
2.89803	58.00
2.91470	58.00
2.93137	58.00
2.94803	58.00
2.96470	58.00
2.98137	58.00
2.99803	58.00
3.01470	58.00
3.03137	58.00
3.04803	58.00
3.06470	58.00
3.08137	58.00
3.09803	58.00
3.11470	58.00
3.13137	58.00
3.14803	58.00
3.16470	58.00
3.18137	58.00
3.19803	58.00
3.21470	58.00
3.23137	58.00
3.24803	58.00
3.26470	58.00
3.28137	58.00
3.29803	58.00
3.31470	58.00
3.33137	58.00
3.34803	58.00
3.36470	58.00
3.38137	58.00
3.39803	58.00
3.41470	58.00
3.43137	58.00
3.44803	58.00
3.46470	58.00
3.48137	58.00
3.49803	58.00
3.51470	58.00
3.53137	58.00
3.54803	58.00
3.56470	58.00
3.58137	58.00
3.59803	58.00
3.61470	58.00
3.63137	58.00
3.64803	58.00
3.66470	58.00
3.68137	58.00
3.69803	58.00
3.71470	58.00
3.73137	58.00
3.74803	58.00
3.76470	58.00
3.78137	58.00
3.79803	58.00
3.81470	58.00
3.83137	58.00
3.84803	58.00
3.86470	58.00
3.88137	58.00
3.89803	58.00
3.91470	58.00
3.93137	58.00
3.94803	58.00
3.96470	58.00
3.98137	58.00
3.99803	58.00

[Status Trace (Carrier Gas Flow)]
Interval(msec)	1000
# of Points	240
Start Time(min)	0.015
End Time(min)	3.998
Intensity Units	
Intensity Multiplier	1
R.Time (min)	Intensity
0.01470	33.85
0.03137	34.53
0.04803	34.55
0.06470	34.51
0.08137	34.51
0.09803	34.52
0.11470	34.52
0.13137	34.52
0.14803	34.52
0.16470	34.51
0.18137	34.52
0.19803	34.52
0.21470	34.52
0.23137	34.52
0.24803	34.52
0.26470	34.52
0.28137	34.52
0.29803	34.52
0.31470	34.52
0.33137	34.52
0.34803	34.52
0.36470	34.52
0.38137	34.52
0.39803	34.52
0.41470	34.52
0.43137	34.52
0.44803	34.52
0.46470	34.52
0.48137	34.52
0.49803	34.52
0.51470	34.52
0.53137	34.52
0.54803	34.52
0.56470	34.52
0.58137	34.52
0.59803	34.52
0.61470	34.52
0.63137	34.52
0.64803	34.52
0.66470	34.52
0.68137	34.52
0.69803	34.52
0.71470	34.53
0.73137	34.51
0.74803	34.52
0.76470	34.52
0.78137	34.52
0.79803	34.53
0.81470	34.52
0.83137	34.52
0.84803	34.52
0.86470	34.52
0.88137	34.52
0.89803	34.52
0.91470	34.52
0.93137	34.51
0.94803	34.52
0.96470	34.52
0.98137	34.52
0.99803	34.52
1.01470	34.52
1.03137	34.52
1.04803	34.51
1.06470	34.52
1.08137	34.51
1.09803	34.51
1.11470	34.52
1.13137	34.52
1.14803	34.52
1.16470	34.52
1.18137	34.52
1.19803	34.51
1.21470	34.52
1.23137	34.52
1.24803	34.52
1.26470	34.52
1.28137	34.52
1.29803	34.52
1.31470	34.52
1.33137	34.52
1.34803	34.52
1.36470	34.52
1.38137	34.52
1.39803	34.52
1.41470	34.52
1.43137	34.52
1.44803	34.52
1.46470	34.52
1.48137	34.52
1.49803	34.52
1.51470	34.52
1.53137	34.52
1.54803	34.52
1.56470	34.52
1.58137	34.52
1.59803	34.52
1.61470	34.52
1.63137	34.52
1.64803	34.52
1.66470	34.52
1.68137	34.52
1.69803	34.52
1.71470	34.52
1.73137	34.52
1.74803	34.52
1.76470	34.52
1.78137	34.52
1.79803	34.52
1.81470	34.51
1.83137	34.52
1.84803	34.52
1.86470	34.52
1.88137	34.51
1.89803	34.53
1.91470	34.52
1.93137	34.52
1.94803	34.51
1.96470	34.52
1.98137	34.52
1.99803	34.52
2.01470	34.52
2.03137	34.51
2.04803	34.52
2.06470	34.52
2.08137	34.52
2.09803	34.51
2.11470	34.52
2.13137	34.52
2.14803	34.53
2.16470	34.52
2.18137	34.52
2.19803	34.52
2.21470	34.51
2.23137	34.52
2.24803	34.52
2.26470	34.53
2.28137	34.53
2.29803	34.52
2.31470	34.51
2.33137	34.53
2.34803	34.52
2.36470	34.52
2.38137	34.51
2.39803	34.52
2.41470	34.52
2.43137	34.52
2.44803	34.52
2.46470	34.52
2.48137	34.52
2.49803	34.52
2.51470	34.52
2.53137	34.52
2.54803	34.52
2.56470	34.52
2.58137	34.52
2.59803	34.52
2.61470	34.52
2.63137	34.52
2.64803	34.52
2.66470	34.52
2.68137	34.52
2.69803	34.51
2.71470	34.52
2.73137	34.52
2.74803	34.52
2.76470	34.52
2.78137	34.52
2.79803	34.53
2.81470	34.52
2.83137	34.52
2.84803	34.52
2.86470	34.52
2.88137	34.51
2.89803	34.52
2.91470	34.52
2.93137	34.52
2.94803	34.52
2.96470	34.51
2.98137	34.52
2.99803	34.52
3.01470	34.52
3.03137	34.52
3.04803	34.52
3.06470	34.52
3.08137	34.52
3.09803	34.52
3.11470	34.52
3.13137	34.52
3.14803	34.52
3.16470	34.52
3.18137	34.52
3.19803	34.52
3.21470	34.52
3.23137	34.52
3.24803	34.52
3.26470	34.52
3.28137	34.52
3.29803	34.52
3.31470	34.51
3.33137	34.52
3.34803	34.52
3.36470	34.52
3.38137	34.52
3.39803	34.52
3.41470	34.52
3.43137	34.52
3.44803	34.52
3.46470	34.52
3.48137	34.52
3.49803	34.52
3.51470	34.52
3.53137	34.51
3.54803	34.52
3.56470	34.52
3.58137	34.52
3.59803	34.51
3.61470	34.52
3.63137	34.52
3.64803	34.52
3.66470	34.52
3.68137	34.52
3.69803	34.52
3.71470	34.52
3.73137	34.52
3.74803	34.51
3.76470	34.52
3.78137	34.52
3.79803	34.52
3.81470	34.52
3.83137	34.52
3.84803	34.52
3.86470	34.52
3.88137	34.52
3.89803	34.52
3.91470	34.52
3.93137	34.52
3.94803	34.52
3.96470	34.52
3.98137	34.52
3.99803	34.52

[Status Trace (Column Flow)]
Interval(msec)	1000
# of Points	240
Start Time(min)	0.015
End Time(min)	3.998
Intensity Units	
Intensity Multiplier	1
R.Time (min)	Intensity
0.01470	5.43
0.03137	5.24
0.04803	5.53
0.06470	5.75
0.08137	5.60
0.09803	5.52
0.11470	5.53
0.13137	5.53
0.14803	5.53
0.16470	5.53
0.18137	5.53
0.19803	5.53
0.21470	5.53
0.23137	5.53
0.24803	5.53
0.26470	5.53
0.28137	5.53
0.29803	5.53
0.31470	5.53
0.33137	5.53
0.34803	5.53
0.36470	5.53
0.38137	5.53
0.39803	5.53
0.41470	5.53
0.43137	5.53
0.44803	5.53
0.46470	5.53
0.48137	5.53
0.49803	5.53
0.51470	5.53
0.53137	5.53
0.54803	5.53
0.56470	5.53
0.58137	5.53
0.59803	5.53
0.61470	5.53
0.63137	5.53
0.64803	5.53
0.66470	5.53
0.68137	5.53
0.69803	5.53
0.71470	5.53
0.73137	5.53
0.74803	5.53
0.76470	5.53
0.78137	5.53
0.79803	5.53
0.81470	5.53
0.83137	5.53
0.84803	5.53
0.86470	5.53
0.88137	5.53
0.89803	5.53
0.91470	5.53
0.93137	5.53
0.94803	5.53
0.96470	5.53
0.98137	5.53
0.99803	5.53
1.01470	5.53
1.03137	5.53
1.04803	5.53
1.06470	5.53
1.08137	5.53
1.09803	5.53
1.11470	5.53
1.13137	5.53
1.14803	5.53
1.16470	5.53
1.18137	5.53
1.19803	5.53
1.21470	5.53
1.23137	5.53
1.24803	5.53
1.26470	5.53
1.28137	5.53
1.29803	5.53
1.31470	5.53
1.33137	5.53
1.34803	5.53
1.36470	5.53
1.38137	5.53
1.39803	5.53
1.41470	5.53
1.43137	5.53
1.44803	5.53
1.46470	5.53
1.48137	5.53
1.49803	5.53
1.51470	5.53
1.53137	5.53
1.54803	5.53
1.56470	5.53
1.58137	5.53
1.59803	5.53
1.61470	5.53
1.63137	5.52
1.64803	5.52
1.66470	5.51
1.68137	5.50
1.69803	5.48
1.71470	5.47
1.73137	5.46
1.74803	5.45
1.76470	5.44
1.78137	5.43
1.79803	5.42
1.81470	5.41
1.83137	5.40
1.84803	5.39
1.86470	5.38
1.88137	5.37
1.89803	5.36
1.91470	5.35
1.93137	5.34
1.94803	5.33
1.96470	5.32
1.98137	5.31
1.99803	5.30
2.01470	5.29
2.03137	5.28
2.04803	5.27
2.06470	5.26
2.08137	5.26
2.09803	5.25
2.11470	5.24
2.13137	5.23
2.14803	5.22
2.16470	5.21
2.18137	5.20
2.19803	5.19
2.21470	5.18
2.23137	5.17
2.24803	5.16
2.26470	5.15
2.28137	5.14
2.29803	5.13
2.31470	5.12
2.33137	5.11
2.34803	5.11
2.36470	5.10
2.38137	5.09
2.39803	5.09
2.41470	5.09
2.43137	5.09
2.44803	5.09
2.46470	5.09
2.48137	5.09
2.49803	5.09
2.51470	5.09
2.53137	5.09
2.54803	5.09
2.56470	5.09
2.58137	5.09
2.59803	5.09
2.61470	5.09
2.63137	5.09
2.64803	5.09
2.66470	5.09
2.68137	5.09
2.69803	5.09
2.71470	5.09
2.73137	5.09
2.74803	5.09
2.76470	5.09
2.78137	5.09
2.79803	5.09
2.81470	5.09
2.83137	5.09
2.84803	5.09
2.86470	5.09
2.88137	5.09
2.89803	5.09
2.91470	5.09
2.93137	5.09
2.94803	5.09
2.96470	5.09
2.98137	5.09
2.99803	5.09
3.01470	5.09
3.03137	5.09
3.04803	5.09
3.06470	5.09
3.08137	5.09
3.09803	5.09
3.11470	5.09
3.13137	5.09
3.14803	5.09
3.16470	5.09
3.18137	5.08
3.19803	5.08
3.21470	5.08
3.23137	5.08
3.24803	5.08
3.26470	5.08
3.28137	5.08
3.29803	5.08
3.31470	5.08
3.33137	5.08
3.34803	5.08
3.36470	5.08
3.38137	5.08
3.39803	5.08
3.41470	5.08
3.43137	5.08
3.44803	5.08
3.46470	5.08
3.48137	5.08
3.49803	5.08
3.51470	5.08
3.53137	5.08
3.54803	5.08
3.56470	5.08
3.58137	5.08
3.59803	5.08
3.61470	5.08
3.63137	5.08
3.64803	5.08
3.66470	5.08
3.68137	5.08
3.69803	5.08
3.71470	5.08
3.73137	5.08
3.74803	5.08
3.76470	5.08
3.78137	5.08
3.79803	5.08
3.81470	5.08
3.83137	5.08
3.84803	5.08
3.86470	5.08
3.88137	5.08
3.89803	5.08
3.91470	5.08
3.93137	5.08
3.94803	5.08
3.96470	5.08
3.98137	5.08
3.99803	5.08

[Status Trace (Linear Velocity)]
Interval(msec)	1000
# of Points	240
Start Time(min)	0.015
End Time(min)	3.998
Intensity Units	
Intensity Multiplier	1
R.Time (min)	Intensity
0.01470	38.48
0.03137	37.41
0.04803	39.04
0.06470	40.24
0.08137	39.43
0.09803	39.00
0.11470	39.01
0.13137	39.02
0.14803	39.02
0.16470	39.02
0.18137	39.02
0.19803	39.01
0.21470	39.01
0.23137	39.01
0.24803	39.01
0.26470	39.01
0.28137	39.02
0.29803	39.02
0.31470	39.02
0.33137	39.02
0.34803	39.02
0.36470	39.02
0.38137	39.02
0.39803	39.02
0.41470	39.02
0.43137	39.02
0.44803	39.02
0.46470	39.02
0.48137	39.02
0.49803	39.02
0.51470	39.02
0.53137	39.02
0.54803	39.02
0.56470	39.02
0.58137	39.02
0.59803	39.02
0.61470	39.02
0.63137	39.02
0.64803	39.02
0.66470	39.02
0.68137	39.02
0.69803	39.02
0.71470	39.02
0.73137	39.02
0.74803	39.02
0.76470	39.02
0.78137	39.02
0.79803	39.02
0.81470	39.02
0.83137	39.02
0.84803	39.02
0.86470	39.02
0.88137	39.02
0.89803	39.02
0.91470	39.02
0.93137	39.02
0.94803	39.02
0.96470	39.02
0.98137	39.02
0.99803	39.02
1.01470	39.02
1.03137	39.02
1.04803	39.02
1.06470	39.02
1.08137	39.02
1.09803	39.02
1.11470	39.02
1.13137	39.02
1.14803	39.02
1.16470	39.02
1.18137	39.02
1.19803	39.02
1.21470	39.02
1.23137	39.02
1.24803	39.02
1.26470	39.02
1.28137	39.02
1.29803	39.02
1.31470	39.02
1.33137	39.02
1.34803	39.02
1.36470	39.02
1.38137	39.02
1.39803	39.02
1.41470	39.02
1.43137	39.02
1.44803	39.02
1.46470	39.02
1.48137	39.02
1.49803	39.02
1.51470	39.02
1.53137	39.02
1.54803	39.02
1.56470	39.02
1.58137	39.02
1.59803	39.02
1.61470	39.01
1.63137	39.00
1.64803	38.98
1.66470	38.95
1.68137	38.92
1.69803	38.88
1.71470	38.84
1.73137	38.81
1.74803	38.78
1.76470	38.75
1.78137	38.72
1.79803	38.69
1.81470	38.66
1.83137	38.62
1.84803	38.59
1.86470	38.56
1.88137	38.53
1.89803	38.50
1.91470	38.47
1.93137	38.44
1.94803	38.41
1.96470	38.38
1.98137	38.35
1.99803	38.32
2.01470	38.29
2.03137	38.26
2.04803	38.23
2.06470	38.20
2.08137	38.17
2.09803	38.14
2.11470	38.11
2.13137	38.08
2.14803	38.05
2.16470	38.02
2.18137	37.99
2.19803	37.96
2.21470	37.93
2.23137	37.90
2.24803	37.87
2.26470	37.84
2.28137	37.81
2.29803	37.79
2.31470	37.76
2.33137	37.73
2.34803	37.70
2.36470	37.67
2.38137	37.66
2.39803	37.65
2.41470	37.66
2.43137	37.66
2.44803	37.66
2.46470	37.66
2.48137	37.66
2.49803	37.66
2.51470	37.65
2.53137	37.65
2.54803	37.66
2.56470	37.65
2.58137	37.65
2.59803	37.65
2.61470	37.65
2.63137	37.65
2.64803	37.65
2.66470	37.65
2.68137	37.65
2.69803	37.65
2.71470	37.65
2.73137	37.65
2.74803	37.65
2.76470	37.65
2.78137	37.65
2.79803	37.65
2.81470	37.65
2.83137	37.65
2.84803	37.64
2.86470	37.64
2.88137	37.64
2.89803	37.64
2.91470	37.64
2.93137	37.64
2.94803	37.64
2.96470	37.64
2.98137	37.64
2.99803	37.64
3.01470	37.64
3.03137	37.64
3.04803	37.63
3.06470	37.63
3.08137	37.63
3.09803	37.63
3.11470	37.63
3.13137	37.63
3.14803	37.63
3.16470	37.63
3.18137	37.63
3.19803	37.63
3.21470	37.63
3.23137	37.63
3.24803	37.63
3.26470	37.63
3.28137	37.63
3.29803	37.63
3.31470	37.63
3.33137	37.63
3.34803	37.63
3.36470	37.63
3.38137	37.63
3.39803	37.63
3.41470	37.63
3.43137	37.63
3.44803	37.63
3.46470	37.63
3.48137	37.63
3.49803	37.63
3.51470	37.63
3.53137	37.63
3.54803	37.63
3.56470	37.63
3.58137	37.63
3.59803	37.63
3.61470	37.63
3.63137	37.63
3.64803	37.63
3.66470	37.63
3.68137	37.63
3.69803	37.63
3.71470	37.63
3.73137	37.63
3.74803	37.63
3.76470	37.63
3.78137	37.63
3.79803	37.63
3.81470	37.63
3.83137	37.63
3.84803	37.63
3.86470	37.63
3.88137	37.63
3.89803	37.63
3.91470	37.63
3.93137	37.63
3.94803	37.63
3.96470	37.63
3.98137	37.63
3.99803	37.63

