[Header]
Application Name	LabSolutions
Version	5.110
Data File Name	C:\Users\User\Desktop\GC Analyses\Jack\Nachusa Grasslands Sampling\T3 Timepoint July 12th\T3_07122022_027.gcd
Output Date	3/14/2023
Output Time	3:43:31 PM

[File Information]
Type	Data File
Generated	3/13/2023 5:25:17 PM
Generated by	System Administrator
Modified	3/13/2023 5:31:55 PM
Modified by	System Administrator

[Sample Information]
Operator Name	System Administrator
Acquired	3/13/2023 5:27:53 PM
Sample Type	0:Unknown
Level	0
Sample Name	027
Sample ID	027
ISTD Amount1	1
ISTD Amount2	1
ISTD Amount3	1
ISTD Amount4	1
ISTD Amount5	1
ISTD Amount6	1
ISTD Amount7	1
ISTD Amount8	1
ISTD Amount9	1
ISTD Amount10	1
ISTD Amount11	1
ISTD Amount12	1
ISTD Amount13	1
ISTD Amount14	1
ISTD Amount15	1
ISTD Amount16	1
ISTD Amount17	1
ISTD Amount18	1
ISTD Amount19	1
ISTD Amount20	1
ISTD Amount21	1
ISTD Amount22	1
ISTD Amount23	1
ISTD Amount24	1
ISTD Amount25	1
ISTD Amount26	1
ISTD Amount27	1
ISTD Amount28	1
ISTD Amount29	1
ISTD Amount30	1
ISTD Amount31	1
ISTD Amount32	1
Sample Amount	1
Dilution Factor	1
Vial#	26
Injection Volume	1
Injection Count	1
Bar Code	

[Original Files]
Data File	C:\Users\User\Desktop\GC Analyses\Jack\Nachusa Grasslands Sampling\T3 Timepoint July 12th\T3_07122022_027.gcd
Method File	C:\LabSolutions\Data\GHG_4min_2022\ghg3_togas_w_acet_4 min_new_int.gcm
Batch File	C:\LabSolutions\Data\AutoSamplerTesting\T3_07122022.gcb
Report Format File	c:\LabSolutions\System\DEFAULT.lsr

[File Description]


[Configuration]
Instrument Name	C0B7VH3-Instrument1
Instrument #	1
Line #	1
# of Detectors	3
Detector ID	DET#1	DET#2	DET#3
Detector Name	FID	PTCD	ECD
# of Channels	1	1	1

[Peak Table(Ch1)]
# of Peaks	3
Peak#	R.Time	I.Time	F.Time	Area	Height	A/H	Conc.	Mark	ID#	Name	k'	Plate #	Plate Ht.	Tailing	Resolution	Sep.Factor	Area Ratio	Height Ratio	Conc. %	Norm Conc.
1	1.476	1.428	1.531	26940	13237	2.035	190.200	   	1	CO	0.000	9577	15.663	1.250	0.000	0.000	0	0	19.634	19.634
2	1.571	1.538	1.630	4077	2096	1.945	78.842	   	2	CH4	0.065	11840	12.668	1.140	1.615	0.000	0	0	8.139	8.139
3	2.000	1.952	2.440	2787957	1339553	2.081	699.702	   	3	CO2	0.355	17562	8.541	1.181	7.264	5.500	0	0	72.228	72.228

[Peak Table(Ch2)]
# of Peaks	0

[Peak Table(Ch3)]
# of Peaks	5
Peak#	R.Time	I.Time	F.Time	Area	Height	A/H	Conc.	Mark	ID#	Name	k'	Plate #	Plate Ht.	Tailing	Resolution	Sep.Factor	Area Ratio	Height Ratio	Conc. %	Norm Conc.
1	2.462	2.330	2.510	1776	552	3.215	0.000	   			0.000	10693	14.027	0.000	0.000	0.000	0	0	0.000	0.000
2	2.528	2.510	2.583	914	301	3.033	0.000	 V 			0.027	6313	23.760	0.000	0.593	0.000	0	0	0.000	0.000
3	2.601	2.583	2.671	407	136	2.978	0.000	 V 			0.057	1313	114.248	0.000	0.354	2.111	0	0	0.000	0.000
4	2.880	2.807	3.030	17281	4658	3.710	0.441	   	1	N2O	0.170	13468	11.138	1.513	1.442	3.000	0	0	100.000	100.000
5	3.375	3.199	3.995	18837	712	26.457	0.000	   	2	SF6	0.371	293	511.346	2.219	1.116	2.184	0	0	0.000	0.000

[Compound Results(Ch1)]
# of IDs	6
ID#	Name	R.Time	Area	Height	Conc.	Curve	3rd	2nd	1st	Constant	Area Ratio	Height Ratio	Conc. %	Norm Conc.
1	CO	1.476	26940	13237	190.200	Linear	0.000000e+00	0.000000e+00	1.416423e+002	0.000000e+00	0	0	19.634	19.634
2	CH4	1.571	4077	2096	78.842	Linear	0.000000e+00	0.000000e+00	5.171738e+001	0.000000e+00	0	0	8.139	8.139
3	CO2	2.000	2787957	1339553	699.702	Linear	0.000000e+00	0.000000e+00	3.984494e+003	0.000000e+00	0	0	72.228	72.228
4	Ethylene	0.000	0	0	0.000	Linear	0.000000e+00	0.000000e+00	0.000000e+00	0.000000e+00	0	0	0.000	0.000
5	Acetylene	0.000	0	0	0.000	Linear	0.000000e+00	0.000000e+00	0.000000e+00	0.000000e+00	0	0	0.000	0.000
6	Ethane	0.000	0	0	0.000	Linear	0.000000e+00	0.000000e+00	0.000000e+00	0.000000e+00	0	0	0.000	0.000

[Compound Results(Ch2)]
# of IDs	5
ID#	Name	R.Time	Area	Height	Conc.	Curve	3rd	2nd	1st	Constant	Area Ratio	Height Ratio	Conc. %	Norm Conc.
1	Hydrogen	0.000	0	0	0.000	Linear	0.000000e+00	0.000000e+00	0.000000e+00	0.000000e+00	0	0	0.000	0.000
2	Oxygen	0.000	0	0	0.000	Linear	0.000000e+00	0.000000e+00	0.000000e+00	0.000000e+00	0	0	0.000	0.000
3	Nitrogen	0.000	0	0	0.000	Linear	0.000000e+00	0.000000e+00	0.000000e+00	0.000000e+00	0	0	0.000	0.000
4	Methane	0.000	0	0	0.000	Linear	0.000000e+00	0.000000e+00	0.000000e+00	0.000000e+00	0	0	0.000	0.000
5	Carbon Monoxide	0.000	0	0	0.000	Linear	0.000000e+00	0.000000e+00	0.000000e+00	0.000000e+00	0	0	0.000	0.000

[Compound Results(Ch3)]
# of IDs	2
ID#	Name	R.Time	Area	Height	Conc.	Curve	3rd	2nd	1st	Constant	Area Ratio	Height Ratio	Conc. %	Norm Conc.
1	N2O	2.880	17281	4658	0.441	Linear	0.000000e+00	0.000000e+00	3.915173e+004	0.000000e+00	0	0	100.000	100.000
2	SF6	3.375	18837	712	0.000	Linear	0.000000e+00	0.000000e+00	0.000000e+00	0.000000e+00	0	0	0.000	0.000

[Group Results(Ch1)]
# of Groups	0

[Group Results(Ch2)]
# of Groups	0

[Group Results(Ch3)]
# of Groups	0

[Chromatogram (Ch1)]
Interval(msec)	220
# of Points	1091
Start Time(min)	0.002
End Time(min)	3.998
R.Time (min)	Intensity
0.00167	27
0.00533	40
0.00900	52
0.01267	58
0.01633	55
0.02000	51
0.02367	52
0.02733	55
0.03100	59
0.03467	60
0.03833	61
0.04200	61
0.04567	60
0.04933	61
0.05300	59
0.05667	56
0.06033	58
0.06400	64
0.06767	69
0.07133	72
0.07500	71
0.07867	67
0.08233	61
0.08600	58
0.08967	67
0.09333	79
0.09700	87
0.10067	87
0.10433	80
0.10800	67
0.11167	54
0.11533	47
0.11900	44
0.12267	44
0.12633	43
0.13000	41
0.13367	35
0.13733	36
0.14100	42
0.14467	48
0.14833	53
0.15200	57
0.15567	59
0.15933	59
0.16300	57
0.16667	53
0.17033	54
0.17400	53
0.17767	52
0.18133	53
0.18500	54
0.18867	54
0.19233	50
0.19600	48
0.19967	53
0.20333	58
0.20700	59
0.21067	58
0.21433	59
0.21800	62
0.22167	61
0.22533	60
0.22900	62
0.23267	66
0.23633	70
0.24000	74
0.24367	79
0.24733	88
0.25100	98
0.25467	103
0.25833	102
0.26200	101
0.26567	101
0.26933	102
0.27300	103
0.27667	101
0.28033	102
0.28400	104
0.28767	107
0.29133	109
0.29500	112
0.29867	115
0.30233	115
0.30600	111
0.30967	107
0.31333	110
0.31700	117
0.32067	122
0.32433	124
0.32800	129
0.33167	138
0.33533	142
0.33900	142
0.34267	140
0.34633	141
0.35000	142
0.35367	139
0.35733	139
0.36100	142
0.36467	148
0.36833	154
0.37200	152
0.37567	145
0.37933	138
0.38300	130
0.38667	118
0.39033	108
0.39400	100
0.39767	96
0.40133	94
0.40500	91
0.40867	88
0.41233	86
0.41600	83
0.41967	81
0.42333	78
0.42700	79
0.43067	83
0.43433	88
0.43800	86
0.44167	79
0.44533	72
0.44900	65
0.45267	57
0.45633	56
0.46000	59
0.46367	63
0.46733	65
0.47100	65
0.47467	62
0.47833	63
0.48200	64
0.48567	61
0.48933	55
0.49300	52
0.49667	51
0.50033	45
0.50400	32
0.50767	22
0.51133	22
0.51500	31
0.51867	41
0.52233	45
0.52600	41
0.52967	36
0.53333	35
0.53700	35
0.54067	35
0.54433	33
0.54800	25
0.55167	20
0.55533	14
0.55900	6
0.56267	2
0.56633	5
0.57000	11
0.57367	18
0.57733	22
0.58100	26
0.58467	28
0.58833	29
0.59200	30
0.59567	30
0.59933	30
0.60300	32
0.60667	34
0.61033	35
0.61400	35
0.61767	29
0.62133	24
0.62500	21
0.62867	19
0.63233	19
0.63600	21
0.63967	25
0.64333	27
0.64700	22
0.65067	17
0.65433	18
0.65800	19
0.66167	24
0.66533	29
0.66900	34
0.67267	40
0.67633	50
0.68000	57
0.68367	52
0.68733	34
0.69100	15
0.69467	0
0.69833	-10
0.70200	-16
0.70567	-18
0.70933	-13
0.71300	-6
0.71667	-2
0.72033	-4
0.72400	-9
0.72767	-5
0.73133	1
0.73500	10
0.73867	18
0.74233	24
0.74600	26
0.74967	28
0.75333	28
0.75700	27
0.76067	24
0.76433	23
0.76800	25
0.77167	29
0.77533	28
0.77900	21
0.78267	17
0.78633	13
0.79000	9
0.79367	1
0.79733	-4
0.80100	1
0.80467	11
0.80833	18
0.81200	22
0.81567	24
0.81933	23
0.82300	19
0.82667	17
0.83033	17
0.83400	20
0.83767	19
0.84133	13
0.84500	8
0.84867	7
0.85233	4
0.85600	-6
0.85967	-17
0.86333	-23
0.86700	-21
0.87067	-14
0.87433	-6
0.87800	-1
0.88167	4
0.88533	3
0.88900	1
0.89267	-4
0.89633	-11
0.90000	-16
0.90367	-19
0.90733	-20
0.91100	-18
0.91467	-9
0.91833	-1
0.92200	6
0.92567	13
0.92933	15
0.93300	8
0.93667	7
0.94033	12
0.94400	14
0.94767	9
0.95133	3
0.95500	-4
0.95867	-10
0.96233	-12
0.96600	-10
0.96967	-5
0.97333	-2
0.97700	-4
0.98067	-8
0.98433	-7
0.98800	-1
0.99167	4
0.99533	5
0.99900	3
1.00267	0
1.00633	-1
1.01000	1
1.01367	3
1.01733	4
1.02100	-1
1.02467	-6
1.02833	-14
1.03200	-26
1.03567	-30
1.03933	-26
1.04300	-18
1.04667	-11
1.05033	-5
1.05400	0
1.05767	3
1.06133	-1
1.06500	-7
1.06867	-14
1.07233	-19
1.07600	-23
1.07967	-24
1.08333	-24
1.08700	-22
1.09067	-13
1.09433	-1
1.09800	8
1.10167	12
1.10533	12
1.10900	9
1.11267	5
1.11633	2
1.12000	2
1.12367	1
1.12733	-2
1.13100	-5
1.13467	-4
1.13833	-2
1.14200	1
1.14567	4
1.14933	5
1.15300	8
1.15667	13
1.16033	19
1.16400	21
1.16767	19
1.17133	17
1.17500	18
1.17867	19
1.18233	14
1.18600	8
1.18967	2
1.19333	-1
1.19700	-2
1.20067	-4
1.20433	-5
1.20800	-7
1.21167	-11
1.21533	-16
1.21900	-18
1.22267	-13
1.22633	-6
1.23000	5
1.23367	19
1.23733	30
1.24100	35
1.24467	25
1.24833	8
1.25200	-10
1.25567	-22
1.25933	-26
1.26300	-23
1.26667	-16
1.27033	-8
1.27400	-2
1.27767	-2
1.28133	-4
1.28500	-5
1.28867	-6
1.29233	-3
1.29600	-1
1.29967	-2
1.30333	-7
1.30700	-13
1.31067	-15
1.31433	-17
1.31800	-17
1.32167	-11
1.32533	-2
1.32900	9
1.33267	16
1.33633	22
1.34000	25
1.34367	23
1.34733	18
1.35100	15
1.35467	14
1.35833	15
1.36200	16
1.36567	15
1.36933	11
1.37300	3
1.37667	-5
1.38033	-9
1.38400	-14
1.38767	-20
1.39133	-25
1.39500	-31
1.39867	-33
1.40233	-27
1.40600	-19
1.40967	-10
1.41333	-6
1.41700	-5
1.42067	-8
1.42433	-11
1.42800	-13
1.43167	-16
1.43533	-18
1.43900	-13
1.44267	16
1.44633	162
1.45000	643
1.45367	1754
1.45733	3717
1.46100	6252
1.46467	8781
1.46833	10885
1.47200	12378
1.47567	13146
1.47933	13068
1.48300	12102
1.48667	10411
1.49033	8351
1.49400	6296
1.49767	4507
1.50133	3085
1.50500	2021
1.50867	1257
1.51233	722
1.51600	359
1.51967	119
1.52333	-34
1.52700	-128
1.53067	-181
1.53433	-208
1.53800	-210
1.54167	-173
1.54533	-48
1.54900	211
1.55267	592
1.55633	1017
1.56000	1403
1.56367	1696
1.56733	1871
1.57100	1910
1.57467	1794
1.57833	1538
1.58200	1207
1.58567	868
1.58933	570
1.59300	337
1.59667	165
1.60033	46
1.60400	-32
1.60767	-81
1.61133	-107
1.61500	-118
1.61867	-124
1.62233	-129
1.62600	-136
1.62967	-144
1.63333	-146
1.63700	-144
1.64067	-142
1.64433	-140
1.64800	-137
1.65167	-133
1.65533	-129
1.65900	-129
1.66267	-136
1.66633	-141
1.67000	-140
1.67367	-136
1.67733	-132
1.68100	-125
1.68467	-113
1.68833	-103
1.69200	-98
1.69567	-96
1.69933	-96
1.70300	-98
1.70667	-98
1.71033	-92
1.71400	-88
1.71767	-90
1.72133	-92
1.72500	-89
1.72867	-86
1.73233	-91
1.73600	-103
1.73967	-112
1.74333	-114
1.74700	-115
1.75067	-117
1.75433	-121
1.75800	-125
1.76167	-126
1.76533	-125
1.76900	-122
1.77267	-117
1.77633	-115
1.78000	-116
1.78367	-114
1.78733	-110
1.79100	-103
1.79467	-86
1.79833	-71
1.80200	-65
1.80567	-67
1.80933	-70
1.81300	-72
1.81667	-73
1.82033	-72
1.82400	-69
1.82767	-66
1.83133	-66
1.83500	-71
1.83867	-75
1.84233	-81
1.84600	-89
1.84967	-98
1.85333	-104
1.85700	-101
1.86067	-91
1.86433	-80
1.86800	-75
1.87167	-73
1.87533	-69
1.87900	-65
1.88267	-64
1.88633	-65
1.89000	-64
1.89367	-63
1.89733	-66
1.90100	-69
1.90467	-70
1.90833	-70
1.91200	-68
1.91567	-62
1.91933	-52
1.92300	-43
1.92667	-36
1.93033	-34
1.93400	-41
1.93767	-54
1.94133	-70
1.94500	-82
1.94867	-88
1.95233	-77
1.95600	24
1.95967	664
1.96333	3976
1.96700	17104
1.97067	56805
1.97433	148876
1.97800	313767
1.98167	545426
1.98533	807224
1.98900	1050457
1.99267	1234837
1.99633	1334929
2.00000	1339505
2.00367	1253626
2.00733	1098393
2.01100	905346
2.01467	706789
2.01833	527276
2.02200	379709
2.02567	266671
2.02933	184393
2.03300	126602
2.03667	86972
2.04033	60184
2.04400	42203
2.04767	30142
2.05133	22015
2.05500	16492
2.05867	12687
2.06233	10016
2.06600	8105
2.06967	6708
2.07333	5656
2.07700	4844
2.08067	4206
2.08433	3703
2.08800	3298
2.09167	2965
2.09533	2689
2.09900	2460
2.10267	2264
2.10633	2089
2.11000	1930
2.11367	1785
2.11733	1660
2.12100	1559
2.12467	1467
2.12833	1383
2.13200	1307
2.13567	1241
2.13933	1188
2.14300	1139
2.14667	1091
2.15033	1044
2.15400	993
2.15767	945
2.16133	906
2.16500	868
2.16867	832
2.17233	800
2.17600	773
2.17967	751
2.18333	736
2.18700	721
2.19067	704
2.19433	684
2.19800	661
2.20167	631
2.20533	603
2.20900	581
2.21267	559
2.21633	536
2.22000	518
2.22367	505
2.22733	497
2.23100	491
2.23467	485
2.23833	477
2.24200	466
2.24567	457
2.24933	444
2.25300	430
2.25667	416
2.26033	404
2.26400	396
2.26767	391
2.27133	383
2.27500	376
2.27867	372
2.28233	364
2.28600	357
2.28967	351
2.29333	345
2.29700	338
2.30067	337
2.30433	337
2.30800	335
2.31167	334
2.31533	329
2.31900	319
2.32267	309
2.32633	299
2.33000	293
2.33367	290
2.33733	293
2.34100	296
2.34467	296
2.34833	293
2.35200	289
2.35567	281
2.35933	272
2.36300	270
2.36667	272
2.37033	272
2.37400	273
2.37767	272
2.38133	267
2.38500	258
2.38867	246
2.39233	237
2.39600	237
2.39967	245
2.40333	250
2.40700	252
2.41067	249
2.41433	244
2.41800	238
2.42167	230
2.42533	225
2.42900	224
2.43267	222
2.43633	220
2.44000	218
2.44367	216
2.44733	215
2.45100	213
2.45467	211
2.45833	211
2.46200	213
2.46567	218
2.46933	226
2.47300	225
2.47667	215
2.48033	209
2.48400	206
2.48767	206
2.49133	206
2.49500	202
2.49867	205
2.50233	210
2.50600	212
2.50967	210
2.51333	207
2.51700	206
2.52067	208
2.52433	208
2.52800	205
2.53167	204
2.53533	202
2.53900	196
2.54267	189
2.54633	182
2.55000	180
2.55367	183
2.55733	185
2.56100	185
2.56467	184
2.56833	184
2.57200	183
2.57567	184
2.57933	187
2.58300	191
2.58667	192
2.59033	189
2.59400	187
2.59767	188
2.60133	191
2.60500	191
2.60867	185
2.61233	178
2.61600	176
2.61967	185
2.62333	199
2.62700	203
2.63067	193
2.63433	178
2.63800	165
2.64167	155
2.64533	152
2.64900	153
2.65267	148
2.65633	144
2.66000	143
2.66367	142
2.66733	138
2.67100	133
2.67467	129
2.67833	127
2.68200	134
2.68567	144
2.68933	147
2.69300	148
2.69667	147
2.70033	151
2.70400	158
2.70767	166
2.71133	179
2.71500	188
2.71867	186
2.72233	175
2.72600	165
2.72967	162
2.73333	157
2.73700	154
2.74067	154
2.74433	155
2.74800	157
2.75167	162
2.75533	166
2.75900	164
2.76267	158
2.76633	155
2.77000	148
2.77367	141
2.77733	138
2.78100	138
2.78467	136
2.78833	139
2.79200	147
2.79567	157
2.79933	165
2.80300	172
2.80667	174
2.81033	173
2.81400	172
2.81767	163
2.82133	149
2.82500	144
2.82867	146
2.83233	149
2.83600	150
2.83967	152
2.84333	153
2.84700	156
2.85067	161
2.85433	166
2.85800	170
2.86167	169
2.86533	165
2.86900	160
2.87267	157
2.87633	158
2.88000	165
2.88367	170
2.88733	171
2.89100	166
2.89467	161
2.89833	157
2.90200	156
2.90567	156
2.90933	157
2.91300	157
2.91667	158
2.92033	162
2.92400	166
2.92767	171
2.93133	174
2.93500	176
2.93867	175
2.94233	169
2.94600	162
2.94967	156
2.95333	157
2.95700	162
2.96067	168
2.96433	171
2.96800	171
2.97167	170
2.97533	167
2.97900	163
2.98267	160
2.98633	158
2.99000	155
2.99367	149
2.99733	145
3.00100	149
3.00467	161
3.00833	171
3.01200	180
3.01567	185
3.01933	187
3.02300	188
3.02667	187
3.03033	180
3.03400	169
3.03767	161
3.04133	159
3.04500	154
3.04867	148
3.05233	142
3.05600	135
3.05967	134
3.06333	135
3.06700	134
3.07067	138
3.07433	137
3.07800	133
3.08167	132
3.08533	132
3.08900	137
3.09267	142
3.09633	144
3.10000	140
3.10367	131
3.10733	124
3.11100	119
3.11467	121
3.11833	130
3.12200	138
3.12567	144
3.12933	145
3.13300	140
3.13667	130
3.14033	125
3.14400	126
3.14767	128
3.15133	127
3.15500	127
3.15867	127
3.16233	125
3.16600	128
3.16967	134
3.17333	137
3.17700	140
3.18067	141
3.18433	140
3.18800	137
3.19167	136
3.19533	137
3.19900	136
3.20267	141
3.20633	145
3.21000	150
3.21367	151
3.21733	147
3.22100	147
3.22467	148
3.22833	144
3.23200	137
3.23567	128
3.23933	121
3.24300	116
3.24667	111
3.25033	107
3.25400	112
3.25767	123
3.26133	132
3.26500	137
3.26867	138
3.27233	138
3.27600	140
3.27967	139
3.28333	135
3.28700	133
3.29067	132
3.29433	130
3.29800	129
3.30167	129
3.30533	129
3.30900	130
3.31267	126
3.31633	120
3.32000	120
3.32367	129
3.32733	137
3.33100	138
3.33467	133
3.33833	126
3.34200	119
3.34567	114
3.34933	111
3.35300	107
3.35667	107
3.36033	110
3.36400	115
3.36767	122
3.37133	127
3.37500	129
3.37867	128
3.38233	132
3.38600	140
3.38967	140
3.39333	133
3.39700	126
3.40067	121
3.40433	112
3.40800	99
3.41167	92
3.41533	89
3.41900	83
3.42267	77
3.42633	76
3.43000	77
3.43367	81
3.43733	87
3.44100	94
3.44467	105
3.44833	115
3.45200	122
3.45567	120
3.45933	119
3.46300	118
3.46667	114
3.47033	106
3.47400	99
3.47767	101
3.48133	112
3.48500	121
3.48867	122
3.49233	117
3.49600	110
3.49967	103
3.50333	97
3.50700	89
3.51067	81
3.51433	76
3.51800	75
3.52167	77
3.52533	79
3.52900	79
3.53267	78
3.53633	79
3.54000	81
3.54367	87
3.54733	95
3.55100	103
3.55467	105
3.55833	104
3.56200	103
3.56567	103
3.56933	101
3.57300	101
3.57667	101
3.58033	96
3.58400	93
3.58767	90
3.59133	88
3.59500	86
3.59867	84
3.60233	81
3.60600	80
3.60967	81
3.61333	81
3.61700	77
3.62067	79
3.62433	82
3.62800	84
3.63167	87
3.63533	93
3.63900	99
3.64267	98
3.64633	95
3.65000	92
3.65367	87
3.65733	79
3.66100	73
3.66467	66
3.66833	62
3.67200	63
3.67567	65
3.67933	68
3.68300	71
3.68667	74
3.69033	82
3.69400	91
3.69767	93
3.70133	88
3.70500	80
3.70867	76
3.71233	71
3.71600	64
3.71967	59
3.72333	60
3.72700	61
3.73067	61
3.73433	64
3.73800	74
3.74167	80
3.74533	81
3.74900	85
3.75267	89
3.75633	93
3.76000	92
3.76367	82
3.76733	70
3.77100	65
3.77467	67
3.77833	68
3.78200	65
3.78567	60
3.78933	58
3.79300	64
3.79667	70
3.80033	73
3.80400	71
3.80767	66
3.81133	63
3.81500	65
3.81867	74
3.82233	81
3.82600	85
3.82967	90
3.83333	85
3.83700	75
3.84067	64
3.84433	52
3.84800	47
3.85167	50
3.85533	58
3.85900	72
3.86267	81
3.86633	86
3.87000	87
3.87367	82
3.87733	69
3.88100	49
3.88467	32
3.88833	19
3.89200	12
3.89567	11
3.89933	13
3.90300	19
3.90667	26
3.91033	31
3.91400	33
3.91767	36
3.92133	42
3.92500	45
3.92867	48
3.93233	47
3.93600	46
3.93967	48
3.94333	48
3.94700	46
3.95067	46
3.95433	48
3.95800	48
3.96167	44
3.96533	42
3.96900	41
3.97267	38
3.97633	36
3.98000	34
3.98367	34
3.98733	37
3.99100	44
3.99467	50
3.99833	50

[Chromatogram (Ch2)]
Interval(msec)	220
# of Points	1091
Start Time(min)	0.002
End Time(min)	3.998
R.Time (min)	Intensity
0.00167	-0
0.00533	-0
0.00900	-1
0.01267	-1
0.01633	-1
0.02000	-2
0.02367	-2
0.02733	-1
0.03100	-1
0.03467	-1
0.03833	-1
0.04200	-1
0.04567	-1
0.04933	-1
0.05300	-1
0.05667	-1
0.06033	-1
0.06400	-1
0.06767	-0
0.07133	-0
0.07500	0
0.07867	1
0.08233	1
0.08600	2
0.08967	2
0.09333	2
0.09700	2
0.10067	3
0.10433	3
0.10800	3
0.11167	3
0.11533	3
0.11900	3
0.12267	3
0.12633	3
0.13000	3
0.13367	2
0.13733	2
0.14100	2
0.14467	2
0.14833	2
0.15200	1
0.15567	0
0.15933	-0
0.16300	-1
0.16667	-1
0.17033	-1
0.17400	-2
0.17767	-2
0.18133	-2
0.18500	-2
0.18867	-2
0.19233	-2
0.19600	-2
0.19967	-2
0.20333	-2
0.20700	-3
0.21067	-3
0.21433	-3
0.21800	-3
0.22167	-2
0.22533	-2
0.22900	-2
0.23267	-2
0.23633	-2
0.24000	-1
0.24367	-1
0.24733	-1
0.25100	-1
0.25467	-1
0.25833	-2
0.26200	-2
0.26567	-2
0.26933	-2
0.27300	-2
0.27667	-2
0.28033	-2
0.28400	-1
0.28767	-1
0.29133	-1
0.29500	-1
0.29867	-1
0.30233	-1
0.30600	-1
0.30967	-1
0.31333	-1
0.31700	-1
0.32067	-1
0.32433	-0
0.32800	-0
0.33167	0
0.33533	0
0.33900	0
0.34267	1
0.34633	1
0.35000	2
0.35367	2
0.35733	2
0.36100	2
0.36467	2
0.36833	2
0.37200	2
0.37567	1
0.37933	1
0.38300	1
0.38667	1
0.39033	0
0.39400	0
0.39767	0
0.40133	-0
0.40500	-0
0.40867	-0
0.41233	-1
0.41600	-1
0.41967	-1
0.42333	-1
0.42700	-1
0.43067	-1
0.43433	-1
0.43800	-1
0.44167	-1
0.44533	-1
0.44900	-1
0.45267	-1
0.45633	-1
0.46000	-2
0.46367	-2
0.46733	-2
0.47100	-3
0.47467	-3
0.47833	-2
0.48200	-2
0.48567	-2
0.48933	-1
0.49300	-1
0.49667	-1
0.50033	-1
0.50400	-1
0.50767	-1
0.51133	-1
0.51500	-1
0.51867	-0
0.52233	-0
0.52600	0
0.52967	1
0.53333	1
0.53700	1
0.54067	1
0.54433	2
0.54800	2
0.55167	2
0.55533	1
0.55900	1
0.56267	1
0.56633	1
0.57000	0
0.57367	-0
0.57733	-0
0.58100	-0
0.58467	-0
0.58833	0
0.59200	0
0.59567	0
0.59933	1
0.60300	1
0.60667	1
0.61033	2
0.61400	2
0.61767	2
0.62133	2
0.62500	2
0.62867	2
0.63233	1
0.63600	1
0.63967	1
0.64333	1
0.64700	1
0.65067	0
0.65433	-0
0.65800	-1
0.66167	-1
0.66533	-2
0.66900	-3
0.67267	-3
0.67633	-3
0.68000	-3
0.68367	-3
0.68733	-4
0.69100	-4
0.69467	-4
0.69833	-4
0.70200	-3
0.70567	-3
0.70933	-4
0.71300	-4
0.71667	-4
0.72033	-4
0.72400	-3
0.72767	-3
0.73133	-3
0.73500	-3
0.73867	-2
0.74233	-2
0.74600	-2
0.74967	-2
0.75333	-2
0.75700	-2
0.76067	-2
0.76433	-2
0.76800	-2
0.77167	-1
0.77533	-1
0.77900	-1
0.78267	-0
0.78633	-0
0.79000	0
0.79367	0
0.79733	0
0.80100	0
0.80467	0
0.80833	0
0.81200	1
0.81567	1
0.81933	1
0.82300	2
0.82667	2
0.83033	2
0.83400	2
0.83767	2
0.84133	2
0.84500	1
0.84867	1
0.85233	1
0.85600	1
0.85967	1
0.86333	0
0.86700	0
0.87067	-0
0.87433	-0
0.87800	-1
0.88167	-1
0.88533	-1
0.88900	-1
0.89267	-1
0.89633	-1
0.90000	-0
0.90367	-0
0.90733	-0
0.91100	-0
0.91467	0
0.91833	-0
0.92200	-0
0.92567	-0
0.92933	-0
0.93300	-0
0.93667	-0
0.94033	-0
0.94400	-0
0.94767	-0
0.95133	0
0.95500	0
0.95867	1
0.96233	1
0.96600	1
0.96967	2
0.97333	2
0.97700	3
0.98067	3
0.98433	2
0.98800	2
0.99167	1
0.99533	1
0.99900	0
1.00267	-1
1.00633	-1
1.01000	-2
1.01367	-2
1.01733	-2
1.02100	-3
1.02467	-3
1.02833	-3
1.03200	-3
1.03567	-3
1.03933	-2
1.04300	-2
1.04667	-1
1.05033	-1
1.05400	-0
1.05767	0
1.06133	1
1.06500	1
1.06867	1
1.07233	2
1.07600	2
1.07967	2
1.08333	3
1.08700	3
1.09067	3
1.09433	4
1.09800	4
1.10167	4
1.10533	3
1.10900	3
1.11267	3
1.11633	3
1.12000	2
1.12367	2
1.12733	1
1.13100	0
1.13467	-0
1.13833	-1
1.14200	-1
1.14567	-2
1.14933	-3
1.15300	-3
1.15667	-3
1.16033	-4
1.16400	-4
1.16767	-4
1.17133	-4
1.17500	-4
1.17867	-4
1.18233	-4
1.18600	-4
1.18967	-4
1.19333	-4
1.19700	-4
1.20067	-4
1.20433	-4
1.20800	-4
1.21167	-4
1.21533	-4
1.21900	-3
1.22267	-3
1.22633	-3
1.23000	-2
1.23367	-2
1.23733	-1
1.24100	-1
1.24467	-1
1.24833	-1
1.25200	-1
1.25567	-1
1.25933	-1
1.26300	-2
1.26667	-2
1.27033	-3
1.27400	-3
1.27767	-3
1.28133	-3
1.28500	-3
1.28867	-3
1.29233	-3
1.29600	-2
1.29967	-2
1.30333	-2
1.30700	-2
1.31067	-2
1.31433	-2
1.31800	-2
1.32167	-2
1.32533	-2
1.32900	-2
1.33267	-1
1.33633	-1
1.34000	-1
1.34367	-0
1.34733	0
1.35100	1
1.35467	1
1.35833	2
1.36200	2
1.36567	2
1.36933	2
1.37300	2
1.37667	2
1.38033	1
1.38400	1
1.38767	1
1.39133	1
1.39500	0
1.39867	-0
1.40233	-0
1.40600	-1
1.40967	-1
1.41333	-2
1.41700	-2
1.42067	-2
1.42433	-2
1.42800	-2
1.43167	-2
1.43533	-2
1.43900	-2
1.44267	-2
1.44633	-2
1.45000	-2
1.45367	-1
1.45733	-1
1.46100	-1
1.46467	-1
1.46833	-1
1.47200	-1
1.47567	-0
1.47933	-0
1.48300	-0
1.48667	-0
1.49033	-0
1.49400	-0
1.49767	-0
1.50133	-0
1.50500	-0
1.50867	-1
1.51233	-1
1.51600	-1
1.51967	-1
1.52333	-1
1.52700	-1
1.53067	-1
1.53433	-1
1.53800	-2
1.54167	-2
1.54533	-2
1.54900	-2
1.55267	-2
1.55633	-2
1.56000	-2
1.56367	-2
1.56733	-2
1.57100	-3
1.57467	-3
1.57833	-3
1.58200	-3
1.58567	-3
1.58933	-3
1.59300	-3
1.59667	-3
1.60033	-4
1.60400	-5
1.60767	-6
1.61133	-8
1.61500	-10
1.61867	-12
1.62233	-14
1.62600	-17
1.62967	-19
1.63333	-22
1.63700	-25
1.64067	-29
1.64433	-32
1.64800	-36
1.65167	-39
1.65533	-43
1.65900	-46
1.66267	-50
1.66633	-54
1.67000	-59
1.67367	-64
1.67733	-69
1.68100	-74
1.68467	-79
1.68833	-84
1.69200	-88
1.69567	-92
1.69933	-95
1.70300	-98
1.70667	-100
1.71033	-101
1.71400	-102
1.71767	-103
1.72133	-103
1.72500	-104
1.72867	-105
1.73233	-105
1.73600	-106
1.73967	-106
1.74333	-107
1.74700	-108
1.75067	-109
1.75433	-109
1.75800	-110
1.76167	-111
1.76533	-112
1.76900	-112
1.77267	-112
1.77633	-113
1.78000	-113
1.78367	-113
1.78733	-113
1.79100	-113
1.79467	-113
1.79833	-112
1.80200	-112
1.80567	-112
1.80933	-111
1.81300	-111
1.81667	-111
1.82033	-111
1.82400	-110
1.82767	-110
1.83133	-110
1.83500	-110
1.83867	-110
1.84233	-110
1.84600	-110
1.84967	-111
1.85333	-111
1.85700	-112
1.86067	-112
1.86433	-113
1.86800	-113
1.87167	-114
1.87533	-114
1.87900	-114
1.88267	-114
1.88633	-113
1.89000	-113
1.89367	-114
1.89733	-114
1.90100	-114
1.90467	-114
1.90833	-113
1.91200	-113
1.91567	-112
1.91933	-111
1.92300	-111
1.92667	-111
1.93033	-112
1.93400	-112
1.93767	-112
1.94133	-112
1.94500	-112
1.94867	-112
1.95233	-112
1.95600	-111
1.95967	-110
1.96333	-109
1.96700	-108
1.97067	-107
1.97433	-106
1.97800	-106
1.98167	-106
1.98533	-106
1.98900	-106
1.99267	-106
1.99633	-107
2.00000	-107
2.00367	-107
2.00733	-106
2.01100	-106
2.01467	-106
2.01833	-105
2.02200	-105
2.02567	-105
2.02933	-104
2.03300	-104
2.03667	-103
2.04033	-102
2.04400	-102
2.04767	-101
2.05133	-100
2.05500	-99
2.05867	-99
2.06233	-99
2.06600	-99
2.06967	-99
2.07333	-100
2.07700	-101
2.08067	-102
2.08433	-102
2.08800	-101
2.09167	-101
2.09533	-101
2.09900	-100
2.10267	-99
2.10633	-98
2.11000	-97
2.11367	-96
2.11733	-96
2.12100	-96
2.12467	-96
2.12833	-96
2.13200	-97
2.13567	-97
2.13933	-96
2.14300	-96
2.14667	-95
2.15033	-95
2.15400	-94
2.15767	-94
2.16133	-93
2.16500	-92
2.16867	-91
2.17233	-90
2.17600	-90
2.17967	-89
2.18333	-89
2.18700	-89
2.19067	-89
2.19433	-89
2.19800	-89
2.20167	-89
2.20533	-89
2.20900	-89
2.21267	-89
2.21633	-88
2.22000	-87
2.22367	-86
2.22733	-86
2.23100	-85
2.23467	-84
2.23833	-84
2.24200	-83
2.24567	-83
2.24933	-84
2.25300	-84
2.25667	-84
2.26033	-84
2.26400	-84
2.26767	-84
2.27133	-84
2.27500	-83
2.27867	-82
2.28233	-82
2.28600	-81
2.28967	-81
2.29333	-81
2.29700	-81
2.30067	-81
2.30433	-80
2.30800	-80
2.31167	-79
2.31533	-79
2.31900	-78
2.32267	-77
2.32633	-76
2.33000	-75
2.33367	-75
2.33733	-75
2.34100	-75
2.34467	-76
2.34833	-76
2.35200	-76
2.35567	-76
2.35933	-75
2.36300	-73
2.36667	-71
2.37033	-69
2.37400	-66
2.37767	-62
2.38133	-59
2.38500	-55
2.38867	-51
2.39233	-47
2.39600	-42
2.39967	-38
2.40333	-33
2.40700	-28
2.41067	-24
2.41433	-20
2.41800	-17
2.42167	-14
2.42533	-12
2.42900	-9
2.43267	-8
2.43633	-6
2.44000	-5
2.44367	-5
2.44733	-4
2.45100	-4
2.45467	-4
2.45833	-4
2.46200	-3
2.46567	-3
2.46933	-2
2.47300	-1
2.47667	-0
2.48033	0
2.48400	1
2.48767	2
2.49133	3
2.49500	4
2.49867	5
2.50233	6
2.50600	7
2.50967	8
2.51333	9
2.51700	10
2.52067	11
2.52433	12
2.52800	12
2.53167	13
2.53533	13
2.53900	14
2.54267	14
2.54633	14
2.55000	14
2.55367	14
2.55733	14
2.56100	15
2.56467	15
2.56833	16
2.57200	16
2.57567	17
2.57933	17
2.58300	17
2.58667	17
2.59033	17
2.59400	17
2.59767	17
2.60133	17
2.60500	17
2.60867	17
2.61233	17
2.61600	17
2.61967	17
2.62333	17
2.62700	18
2.63067	18
2.63433	18
2.63800	18
2.64167	17
2.64533	17
2.64900	17
2.65267	17
2.65633	16
2.66000	17
2.66367	17
2.66733	17
2.67100	18
2.67467	19
2.67833	19
2.68200	20
2.68567	20
2.68933	21
2.69300	21
2.69667	21
2.70033	21
2.70400	21
2.70767	21
2.71133	22
2.71500	22
2.71867	22
2.72233	23
2.72600	24
2.72967	24
2.73333	25
2.73700	26
2.74067	26
2.74433	27
2.74800	27
2.75167	28
2.75533	28
2.75900	29
2.76267	29
2.76633	29
2.77000	29
2.77367	28
2.77733	28
2.78100	27
2.78467	26
2.78833	26
2.79200	25
2.79567	25
2.79933	25
2.80300	24
2.80667	24
2.81033	24
2.81400	24
2.81767	24
2.82133	25
2.82500	25
2.82867	25
2.83233	26
2.83600	26
2.83967	26
2.84333	25
2.84700	22
2.85067	19
2.85433	12
2.85800	3
2.86167	-9
2.86533	-25
2.86900	-46
2.87267	-71
2.87633	-100
2.88000	-134
2.88367	-172
2.88733	-213
2.89100	-258
2.89467	-306
2.89833	-356
2.90200	-408
2.90567	-462
2.90933	-517
2.91300	-572
2.91667	-627
2.92033	-682
2.92400	-736
2.92767	-789
2.93133	-840
2.93500	-892
2.93867	-949
2.94233	-1007
2.94600	-1057
2.94967	-1089
2.95333	-1097
2.95700	-1079
2.96067	-1037
2.96433	-978
2.96800	-907
2.97167	-829
2.97533	-748
2.97900	-668
2.98267	-592
2.98633	-520
2.99000	-454
2.99367	-394
2.99733	-341
3.00100	-293
3.00467	-251
3.00833	-214
3.01200	-182
3.01567	-154
3.01933	-131
3.02300	-110
3.02667	-92
3.03033	-77
3.03400	-63
3.03767	-52
3.04133	-42
3.04500	-33
3.04867	-26
3.05233	-20
3.05600	-15
3.05967	-10
3.06333	-6
3.06700	-2
3.07067	1
3.07433	3
3.07800	6
3.08167	8
3.08533	10
3.08900	11
3.09267	12
3.09633	13
3.10000	14
3.10367	14
3.10733	15
3.11100	15
3.11467	15
3.11833	15
3.12200	15
3.12567	15
3.12933	16
3.13300	16
3.13667	16
3.14033	17
3.14400	17
3.14767	18
3.15133	18
3.15500	18
3.15867	18
3.16233	19
3.16600	19
3.16967	19
3.17333	20
3.17700	20
3.18067	20
3.18433	20
3.18800	20
3.19167	19
3.19533	19
3.19900	19
3.20267	20
3.20633	20
3.21000	20
3.21367	20
3.21733	20
3.22100	20
3.22467	20
3.22833	21
3.23200	21
3.23567	21
3.23933	22
3.24300	22
3.24667	22
3.25033	23
3.25400	24
3.25767	24
3.26133	25
3.26500	25
3.26867	25
3.27233	25
3.27600	25
3.27967	25
3.28333	25
3.28700	25
3.29067	25
3.29433	25
3.29800	25
3.30167	25
3.30533	25
3.30900	25
3.31267	25
3.31633	25
3.32000	25
3.32367	25
3.32733	25
3.33100	25
3.33467	25
3.33833	25
3.34200	25
3.34567	25
3.34933	25
3.35300	25
3.35667	25
3.36033	26
3.36400	26
3.36767	26
3.37133	26
3.37500	27
3.37867	27
3.38233	27
3.38600	28
3.38967	28
3.39333	28
3.39700	28
3.40067	28
3.40433	28
3.40800	28
3.41167	28
3.41533	27
3.41900	27
3.42267	27
3.42633	27
3.43000	27
3.43367	27
3.43733	27
3.44100	27
3.44467	27
3.44833	26
3.45200	26
3.45567	26
3.45933	26
3.46300	26
3.46667	26
3.47033	26
3.47400	26
3.47767	26
3.48133	26
3.48500	26
3.48867	26
3.49233	25
3.49600	25
3.49967	25
3.50333	25
3.50700	25
3.51067	25
3.51433	25
3.51800	25
3.52167	25
3.52533	26
3.52900	26
3.53267	26
3.53633	26
3.54000	27
3.54367	27
3.54733	27
3.55100	28
3.55467	28
3.55833	28
3.56200	28
3.56567	28
3.56933	28
3.57300	28
3.57667	28
3.58033	28
3.58400	28
3.58767	28
3.59133	27
3.59500	27
3.59867	27
3.60233	27
3.60600	27
3.60967	27
3.61333	27
3.61700	27
3.62067	27
3.62433	27
3.62800	27
3.63167	28
3.63533	28
3.63900	28
3.64267	28
3.64633	28
3.65000	28
3.65367	28
3.65733	28
3.66100	28
3.66467	28
3.66833	28
3.67200	28
3.67567	28
3.67933	27
3.68300	27
3.68667	27
3.69033	27
3.69400	27
3.69767	27
3.70133	27
3.70500	27
3.70867	28
3.71233	28
3.71600	28
3.71967	28
3.72333	28
3.72700	28
3.73067	28
3.73433	28
3.73800	28
3.74167	28
3.74533	28
3.74900	28
3.75267	28
3.75633	29
3.76000	29
3.76367	28
3.76733	28
3.77100	28
3.77467	27
3.77833	27
3.78200	27
3.78567	27
3.78933	27
3.79300	27
3.79667	27
3.80033	27
3.80400	27
3.80767	27
3.81133	27
3.81500	27
3.81867	28
3.82233	28
3.82600	29
3.82967	29
3.83333	29
3.83700	30
3.84067	30
3.84433	30
3.84800	30
3.85167	29
3.85533	29
3.85900	29
3.86267	29
3.86633	29
3.87000	29
3.87367	29
3.87733	28
3.88100	28
3.88467	28
3.88833	28
3.89200	28
3.89567	28
3.89933	28
3.90300	28
3.90667	28
3.91033	28
3.91400	28
3.91767	28
3.92133	28
3.92500	28
3.92867	28
3.93233	28
3.93600	28
3.93967	28
3.94333	28
3.94700	28
3.95067	28
3.95433	28
3.95800	28
3.96167	28
3.96533	27
3.96900	27
3.97267	26
3.97633	26
3.98000	26
3.98367	26
3.98733	26
3.99100	26
3.99467	26
3.99833	25

[Chromatogram (Ch3)]
Interval(msec)	220
# of Points	1091
Start Time(min)	0.002
End Time(min)	3.998
R.Time (min)	Intensity
0.00167	0
0.00533	0
0.00900	-1
0.01267	-0
0.01633	2
0.02000	3
0.02367	4
0.02733	6
0.03100	9
0.03467	9
0.03833	9
0.04200	7
0.04567	5
0.04933	2
0.05300	2
0.05667	3
0.06033	2
0.06400	1
0.06767	2
0.07133	4
0.07500	4
0.07867	6
0.08233	5
0.08600	3
0.08967	2
0.09333	2
0.09700	1
0.10067	-0
0.10433	-0
0.10800	0
0.11167	1
0.11533	1
0.11900	0
0.12267	1
0.12633	1
0.13000	2
0.13367	3
0.13733	3
0.14100	3
0.14467	0
0.14833	0
0.15200	-0
0.15567	0
0.15933	0
0.16300	-1
0.16667	-2
0.17033	-4
0.17400	-5
0.17767	-5
0.18133	-4
0.18500	-4
0.18867	-3
0.19233	-3
0.19600	-3
0.19967	-3
0.20333	-3
0.20700	-3
0.21067	-3
0.21433	-2
0.21800	-2
0.22167	0
0.22533	1
0.22900	2
0.23267	3
0.23633	2
0.24000	2
0.24367	2
0.24733	1
0.25100	-2
0.25467	-1
0.25833	-0
0.26200	0
0.26567	1
0.26933	1
0.27300	0
0.27667	0
0.28033	2
0.28400	2
0.28767	-1
0.29133	-1
0.29500	1
0.29867	2
0.30233	1
0.30600	1
0.30967	1
0.31333	2
0.31700	3
0.32067	4
0.32433	4
0.32800	5
0.33167	5
0.33533	8
0.33900	10
0.34267	11
0.34633	11
0.35000	9
0.35367	9
0.35733	8
0.36100	5
0.36467	5
0.36833	6
0.37200	8
0.37567	7
0.37933	6
0.38300	5
0.38667	3
0.39033	2
0.39400	2
0.39767	4
0.40133	6
0.40500	10
0.40867	12
0.41233	12
0.41600	11
0.41967	9
0.42333	7
0.42700	7
0.43067	5
0.43433	2
0.43800	-2
0.44167	-3
0.44533	-4
0.44900	-2
0.45267	-2
0.45633	-3
0.46000	-3
0.46367	-2
0.46733	0
0.47100	0
0.47467	1
0.47833	2
0.48200	2
0.48567	1
0.48933	0
0.49300	0
0.49667	-0
0.50033	-0
0.50400	-2
0.50767	-3
0.51133	-1
0.51500	-1
0.51867	-2
0.52233	-2
0.52600	-2
0.52967	-3
0.53333	-2
0.53700	-1
0.54067	0
0.54433	-0
0.54800	-1
0.55167	-1
0.55533	-3
0.55900	-3
0.56267	-2
0.56633	-2
0.57000	-0
0.57367	0
0.57733	1
0.58100	1
0.58467	2
0.58833	2
0.59200	0
0.59567	-2
0.59933	-5
0.60300	-8
0.60667	-8
0.61033	-6
0.61400	-5
0.61767	-3
0.62133	-4
0.62500	-4
0.62867	-5
0.63233	-4
0.63600	-3
0.63967	-2
0.64333	-1
0.64700	-2
0.65067	-3
0.65433	-2
0.65800	-2
0.66167	-1
0.66533	-2
0.66900	-3
0.67267	-2
0.67633	-2
0.68000	-2
0.68367	-2
0.68733	-3
0.69100	-3
0.69467	-3
0.69833	-2
0.70200	-1
0.70567	0
0.70933	-0
0.71300	-1
0.71667	-0
0.72033	-1
0.72400	-1
0.72767	-0
0.73133	-0
0.73500	0
0.73867	0
0.74233	3
0.74600	6
0.74967	5
0.75333	6
0.75700	7
0.76067	6
0.76433	5
0.76800	4
0.77167	4
0.77533	3
0.77900	2
0.78267	1
0.78633	2
0.79000	4
0.79367	5
0.79733	4
0.80100	5
0.80467	4
0.80833	5
0.81200	4
0.81567	3
0.81933	3
0.82300	2
0.82667	3
0.83033	4
0.83400	3
0.83767	3
0.84133	3
0.84500	5
0.84867	7
0.85233	7
0.85600	7
0.85967	7
0.86333	6
0.86700	9
0.87067	10
0.87433	10
0.87800	10
0.88167	11
0.88533	12
0.88900	12
0.89267	9
0.89633	9
0.90000	9
0.90367	9
0.90733	8
0.91100	7
0.91467	6
0.91833	5
0.92200	3
0.92567	3
0.92933	3
0.93300	4
0.93667	5
0.94033	6
0.94400	7
0.94767	6
0.95133	8
0.95500	8
0.95867	7
0.96233	7
0.96600	7
0.96967	7
0.97333	8
0.97700	8
0.98067	8
0.98433	8
0.98800	7
0.99167	6
0.99533	6
0.99900	6
1.00267	6
1.00633	6
1.01000	7
1.01367	8
1.01733	9
1.02100	9
1.02467	10
1.02833	10
1.03200	10
1.03567	11
1.03933	13
1.04300	12
1.04667	12
1.05033	12
1.05400	11
1.05767	9
1.06133	7
1.06500	10
1.06867	13
1.07233	14
1.07600	16
1.07967	15
1.08333	13
1.08700	12
1.09067	12
1.09433	12
1.09800	13
1.10167	13
1.10533	12
1.10900	12
1.11267	11
1.11633	9
1.12000	9
1.12367	9
1.12733	7
1.13100	7
1.13467	8
1.13833	9
1.14200	8
1.14567	9
1.14933	9
1.15300	8
1.15667	9
1.16033	10
1.16400	12
1.16767	12
1.17133	12
1.17500	13
1.17867	14
1.18233	14
1.18600	13
1.18967	12
1.19333	14
1.19700	15
1.20067	15
1.20433	13
1.20800	11
1.21167	9
1.21533	8
1.21900	8
1.22267	10
1.22633	11
1.23000	11
1.23367	11
1.23733	11
1.24100	12
1.24467	13
1.24833	12
1.25200	8
1.25567	6
1.25933	6
1.26300	9
1.26667	10
1.27033	9
1.27400	10
1.27767	11
1.28133	11
1.28500	13
1.28867	14
1.29233	13
1.29600	11
1.29967	12
1.30333	12
1.30700	14
1.31067	14
1.31433	15
1.31800	16
1.32167	16
1.32533	14
1.32900	13
1.33267	12
1.33633	11
1.34000	10
1.34367	13
1.34733	13
1.35100	12
1.35467	13
1.35833	15
1.36200	17
1.36567	20
1.36933	19
1.37300	16
1.37667	14
1.38033	14
1.38400	15
1.38767	15
1.39133	17
1.39500	20
1.39867	20
1.40233	19
1.40600	19
1.40967	20
1.41333	20
1.41700	21
1.42067	20
1.42433	20
1.42800	20
1.43167	19
1.43533	18
1.43900	18
1.44267	16
1.44633	15
1.45000	16
1.45367	17
1.45733	19
1.46100	21
1.46467	22
1.46833	22
1.47200	20
1.47567	18
1.47933	16
1.48300	15
1.48667	13
1.49033	14
1.49400	14
1.49767	15
1.50133	15
1.50500	15
1.50867	15
1.51233	14
1.51600	13
1.51967	13
1.52333	13
1.52700	13
1.53067	14
1.53433	15
1.53800	17
1.54167	17
1.54533	17
1.54900	18
1.55267	19
1.55633	18
1.56000	18
1.56367	18
1.56733	18
1.57100	19
1.57467	19
1.57833	19
1.58200	18
1.58567	17
1.58933	17
1.59300	19
1.59667	22
1.60033	24
1.60400	21
1.60767	19
1.61133	20
1.61500	19
1.61867	17
1.62233	14
1.62600	16
1.62967	18
1.63333	19
1.63700	20
1.64067	19
1.64433	17
1.64800	18
1.65167	21
1.65533	22
1.65900	22
1.66267	23
1.66633	23
1.67000	24
1.67367	25
1.67733	25
1.68100	25
1.68467	26
1.68833	27
1.69200	27
1.69567	27
1.69933	27
1.70300	27
1.70667	27
1.71033	27
1.71400	27
1.71767	28
1.72133	29
1.72500	31
1.72867	32
1.73233	33
1.73600	33
1.73967	33
1.74333	32
1.74700	33
1.75067	35
1.75433	35
1.75800	35
1.76167	34
1.76533	32
1.76900	33
1.77267	32
1.77633	32
1.78000	33
1.78367	37
1.78733	39
1.79100	41
1.79467	41
1.79833	41
1.80200	42
1.80567	44
1.80933	46
1.81300	47
1.81667	48
1.82033	49
1.82400	48
1.82767	48
1.83133	47
1.83500	47
1.83867	48
1.84233	49
1.84600	50
1.84967	50
1.85333	51
1.85700	53
1.86067	52
1.86433	52
1.86800	52
1.87167	52
1.87533	54
1.87900	55
1.88267	58
1.88633	59
1.89000	60
1.89367	61
1.89733	62
1.90100	62
1.90467	64
1.90833	63
1.91200	64
1.91567	67
1.91933	70
1.92300	71
1.92667	71
1.93033	72
1.93400	73
1.93767	71
1.94133	70
1.94500	71
1.94867	72
1.95233	75
1.95600	77
1.95967	78
1.96333	77
1.96700	76
1.97067	75
1.97433	76
1.97800	78
1.98167	81
1.98533	82
1.98900	81
1.99267	81
1.99633	81
2.00000	82
2.00367	85
2.00733	86
2.01100	90
2.01467	93
2.01833	96
2.02200	99
2.02567	101
2.02933	102
2.03300	99
2.03667	97
2.04033	96
2.04400	98
2.04767	101
2.05133	101
2.05500	103
2.05867	106
2.06233	107
2.06600	105
2.06967	105
2.07333	106
2.07700	108
2.08067	110
2.08433	113
2.08800	116
2.09167	117
2.09533	116
2.09900	116
2.10267	115
2.10633	115
2.11000	118
2.11367	119
2.11733	120
2.12100	122
2.12467	124
2.12833	128
2.13200	131
2.13567	132
2.13933	133
2.14300	135
2.14667	136
2.15033	137
2.15400	138
2.15767	138
2.16133	137
2.16500	136
2.16867	136
2.17233	139
2.17600	143
2.17967	145
2.18333	146
2.18700	147
2.19067	148
2.19433	149
2.19800	150
2.20167	151
2.20533	150
2.20900	151
2.21267	153
2.21633	156
2.22000	160
2.22367	161
2.22733	161
2.23100	160
2.23467	160
2.23833	160
2.24200	163
2.24567	167
2.24933	170
2.25300	170
2.25667	171
2.26033	173
2.26400	173
2.26767	172
2.27133	172
2.27500	173
2.27867	174
2.28233	173
2.28600	176
2.28967	182
2.29333	187
2.29700	189
2.30067	191
2.30433	191
2.30800	192
2.31167	194
2.31533	194
2.31900	192
2.32267	193
2.32633	196
2.33000	196
2.33367	196
2.33733	197
2.34100	198
2.34467	199
2.34833	201
2.35200	202
2.35567	204
2.35933	206
2.36300	207
2.36667	209
2.37033	211
2.37400	211
2.37767	210
2.38133	209
2.38500	208
2.38867	208
2.39233	211
2.39600	214
2.39967	217
2.40333	219
2.40700	220
2.41067	223
2.41433	225
2.41800	226
2.42167	226
2.42533	225
2.42900	224
2.43267	223
2.43633	223
2.44000	226
2.44367	273
2.44733	397
2.45100	532
2.45467	644
2.45833	704
2.46200	708
2.46567	683
2.46933	654
2.47300	631
2.47667	617
2.48033	600
2.48400	570
2.48767	532
2.49133	489
2.49500	449
2.49867	416
2.50233	393
2.50600	379
2.50967	376
2.51333	382
2.51700	397
2.52067	415
2.52433	431
2.52800	437
2.53167	433
2.53533	419
2.53900	396
2.54267	368
2.54633	340
2.55000	316
2.55367	295
2.55733	281
2.56100	270
2.56467	262
2.56833	257
2.57200	254
2.57567	251
2.57933	249
2.58300	247
2.58667	247
2.59033	248
2.59400	250
2.59767	251
2.60133	250
2.60500	247
2.60867	241
2.61233	232
2.61600	223
2.61967	212
2.62333	199
2.62700	187
2.63067	174
2.63433	163
2.63800	153
2.64167	144
2.64533	136
2.64900	130
2.65267	122
2.65633	115
2.66000	107
2.66367	101
2.66733	96
2.67100	93
2.67467	91
2.67833	89
2.68200	87
2.68567	86
2.68933	86
2.69300	87
2.69667	90
2.70033	92
2.70400	96
2.70767	99
2.71133	104
2.71500	109
2.71867	113
2.72233	115
2.72600	117
2.72967	120
2.73333	126
2.73700	130
2.74067	134
2.74433	137
2.74800	141
2.75167	144
2.75533	146
2.75900	146
2.76267	149
2.76633	152
2.77000	156
2.77367	160
2.77733	163
2.78100	166
2.78467	168
2.78833	168
2.79200	171
2.79567	175
2.79933	180
2.80300	184
2.80667	187
2.81033	189
2.81400	194
2.81767	200
2.82133	210
2.82500	228
2.82867	263
2.83233	324
2.83600	429
2.83967	602
2.84333	864
2.84700	1226
2.85067	1686
2.85433	2222
2.85800	2803
2.86167	3382
2.86533	3909
2.86900	4343
2.87267	4652
2.87633	4822
2.88000	4855
2.88367	4765
2.88733	4572
2.89100	4305
2.89467	3993
2.89833	3660
2.90200	3323
2.90567	2995
2.90933	2683
2.91300	2392
2.91667	2126
2.92033	1887
2.92400	1675
2.92767	1486
2.93133	1319
2.93500	1170
2.93867	1041
2.94233	928
2.94600	831
2.94967	745
2.95333	670
2.95700	606
2.96067	551
2.96433	502
2.96800	457
2.97167	421
2.97533	391
2.97900	366
2.98267	343
2.98633	324
2.99000	308
2.99367	293
2.99733	279
3.00100	266
3.00467	255
3.00833	244
3.01200	235
3.01567	228
3.01933	223
3.02300	219
3.02667	218
3.03033	218
3.03400	217
3.03767	215
3.04133	214
3.04500	213
3.04867	210
3.05233	208
3.05600	205
3.05967	204
3.06333	204
3.06700	204
3.07067	203
3.07433	203
3.07800	202
3.08167	201
3.08533	201
3.08900	201
3.09267	200
3.09633	200
3.10000	202
3.10367	205
3.10733	206
3.11100	206
3.11467	205
3.11833	204
3.12200	204
3.12567	205
3.12933	205
3.13300	206
3.13667	208
3.14033	209
3.14400	210
3.14767	210
3.15133	210
3.15500	212
3.15867	212
3.16233	214
3.16600	217
3.16967	219
3.17333	219
3.17700	220
3.18067	221
3.18433	219
3.18800	210
3.19167	181
3.19533	154
3.19900	148
3.20267	165
3.20633	196
3.21000	236
3.21367	280
3.21733	329
3.22100	379
3.22467	430
3.22833	477
3.23200	521
3.23567	564
3.23933	602
3.24300	634
3.24667	662
3.25033	690
3.25400	713
3.25767	733
3.26133	749
3.26500	763
3.26867	776
3.27233	789
3.27600	802
3.27967	812
3.28333	820
3.28700	826
3.29067	830
3.29433	835
3.29800	842
3.30167	849
3.30533	861
3.30900	873
3.31267	881
3.31633	888
3.32000	894
3.32367	900
3.32733	907
3.33100	914
3.33467	921
3.33833	930
3.34200	937
3.34567	944
3.34933	948
3.35300	951
3.35667	954
3.36033	956
3.36400	960
3.36767	963
3.37133	966
3.37500	969
3.37867	970
3.38233	972
3.38600	971
3.38967	972
3.39333	972
3.39700	971
3.40067	970
3.40433	970
3.40800	968
3.41167	965
3.41533	963
3.41900	961
3.42267	957
3.42633	952
3.43000	947
3.43367	940
3.43733	936
3.44100	933
3.44467	927
3.44833	923
3.45200	919
3.45567	914
3.45933	910
3.46300	906
3.46667	903
3.47033	899
3.47400	894
3.47767	890
3.48133	888
3.48500	887
3.48867	886
3.49233	884
3.49600	882
3.49967	880
3.50333	878
3.50700	875
3.51067	872
3.51433	871
3.51800	869
3.52167	867
3.52533	863
3.52900	860
3.53267	858
3.53633	856
3.54000	856
3.54367	856
3.54733	857
3.55100	856
3.55467	855
3.55833	856
3.56200	855
3.56567	856
3.56933	857
3.57300	858
3.57667	858
3.58033	858
3.58400	855
3.58767	853
3.59133	850
3.59500	849
3.59867	850
3.60233	850
3.60600	850
3.60967	849
3.61333	850
3.61700	851
3.62067	852
3.62433	850
3.62800	847
3.63167	844
3.63533	841
3.63900	838
3.64267	838
3.64633	837
3.65000	837
3.65367	833
3.65733	828
3.66100	827
3.66467	827
3.66833	826
3.67200	822
3.67567	817
3.67933	813
3.68300	809
3.68667	810
3.69033	809
3.69400	806
3.69767	805
3.70133	804
3.70500	802
3.70867	800
3.71233	798
3.71600	793
3.71967	790
3.72333	790
3.72700	788
3.73067	786
3.73433	785
3.73800	784
3.74167	784
3.74533	783
3.74900	779
3.75267	776
3.75633	773
3.76000	771
3.76367	767
3.76733	765
3.77100	763
3.77467	761
3.77833	759
3.78200	757
3.78567	756
3.78933	754
3.79300	752
3.79667	748
3.80033	744
3.80400	740
3.80767	739
3.81133	739
3.81500	737
3.81867	735
3.82233	733
3.82600	730
3.82967	727
3.83333	724
3.83700	721
3.84067	717
3.84433	716
3.84800	713
3.85167	712
3.85533	708
3.85900	705
3.86267	702
3.86633	699
3.87000	695
3.87367	692
3.87733	690
3.88100	689
3.88467	687
3.88833	686
3.89200	683
3.89567	681
3.89933	680
3.90300	677
3.90667	675
3.91033	675
3.91400	673
3.91767	671
3.92133	671
3.92500	672
3.92867	670
3.93233	667
3.93600	665
3.93967	664
3.94333	663
3.94700	661
3.95067	660
3.95433	656
3.95800	651
3.96167	647
3.96533	647
3.96900	649
3.97267	650
3.97633	647
3.98000	643
3.98367	639
3.98733	639
3.99100	638
3.99467	638
3.99833	635

[Status Trace (Column Oven Temperature)]
Interval(msec)	1000
# of Points	240
Start Time(min)	0.014
End Time(min)	3.998
Intensity Units	
Intensity Multiplier	1
R.Time (min)	Intensity
0.01447	35.03
0.03113	35.04
0.04780	35.04
0.06447	35.03
0.08113	35.02
0.09780	35.03
0.11447	35.02
0.13113	35.01
0.14780	35.02
0.16447	35.03
0.18113	35.03
0.19780	35.03
0.21447	35.04
0.23113	35.04
0.24780	35.05
0.26447	35.04
0.28113	35.04
0.29780	35.05
0.31447	35.04
0.33113	35.03
0.34780	35.02
0.36447	35.01
0.38113	35.01
0.39780	35.01
0.41447	35.01
0.43113	35.02
0.44780	35.03
0.46447	35.03
0.48113	35.03
0.49780	35.03
0.51447	35.02
0.53113	35.01
0.54780	35.01
0.56447	35.00
0.58113	35.00
0.59780	35.00
0.61447	34.98
0.63113	34.98
0.64780	34.99
0.66447	35.01
0.68113	35.02
0.69780	35.03
0.71447	35.04
0.73113	35.04
0.74780	35.04
0.76447	35.05
0.78113	35.03
0.79780	35.04
0.81447	35.02
0.83113	35.01
0.84780	35.00
0.86447	35.00
0.88113	35.00
0.89780	35.00
0.91447	35.00
0.93113	35.00
0.94780	35.00
0.96447	34.98
0.98113	34.98
0.99780	34.98
1.01447	34.99
1.03113	35.00
1.04780	34.99
1.06447	34.98
1.08113	34.98
1.09780	34.96
1.11447	34.95
1.13113	34.97
1.14780	34.97
1.16447	34.98
1.18113	35.00
1.19780	35.02
1.21447	35.01
1.23113	35.01
1.24780	35.01
1.26447	35.01
1.28113	35.01
1.29780	35.02
1.31447	35.03
1.33113	35.03
1.34780	35.01
1.36447	35.00
1.38113	34.99
1.39780	34.99
1.41447	35.00
1.43113	34.99
1.44780	34.99
1.46447	34.98
1.48113	34.98
1.49780	34.99
1.51447	34.98
1.53113	34.99
1.54780	35.00
1.56447	34.99
1.58113	34.99
1.59780	35.02
1.61447	35.10
1.63113	35.23
1.64780	35.43
1.66447	35.72
1.68113	36.09
1.69780	36.45
1.71447	36.79
1.73113	37.13
1.74780	37.47
1.76447	37.81
1.78113	38.15
1.79780	38.47
1.81447	38.79
1.83113	39.11
1.84780	39.45
1.86447	39.78
1.88113	40.10
1.89780	40.45
1.91447	40.77
1.93113	41.10
1.94780	41.46
1.96447	41.77
1.98113	42.10
1.99780	42.43
2.01447	42.76
2.03113	43.08
2.04780	43.39
2.06447	43.72
2.08113	44.06
2.09780	44.39
2.11447	44.71
2.13113	45.04
2.14780	45.37
2.16447	45.68
2.18113	46.01
2.19780	46.34
2.21447	46.67
2.23113	46.97
2.24780	47.32
2.26447	47.64
2.28113	47.95
2.29780	48.30
2.31447	48.61
2.33113	48.93
2.34780	49.27
2.36447	49.53
2.38113	49.66
2.39780	49.68
2.41447	49.67
2.43113	49.67
2.44780	49.68
2.46447	49.69
2.48113	49.71
2.49780	49.71
2.51447	49.72
2.53113	49.73
2.54780	49.75
2.56447	49.76
2.58113	49.77
2.59780	49.79
2.61447	49.80
2.63113	49.80
2.64780	49.84
2.66447	49.84
2.68113	49.85
2.69780	49.89
2.71447	49.90
2.73113	49.88
2.74780	49.85
2.76447	49.84
2.78113	49.87
2.79780	49.89
2.81447	49.90
2.83113	49.90
2.84780	49.91
2.86447	49.90
2.88113	49.90
2.89780	49.90
2.91447	49.91
2.93113	49.93
2.94780	49.93
2.96447	49.95
2.98113	49.97
2.99780	49.99
3.01447	50.00
3.03113	50.01
3.04780	50.00
3.06447	49.99
3.08113	49.98
3.09780	49.99
3.11447	50.00
3.13113	50.02
3.14780	50.03
3.16447	50.03
3.18113	50.06
3.19780	50.09
3.21447	50.10
3.23113	50.10
3.24780	50.09
3.26447	50.09
3.28113	50.08
3.29780	50.09
3.31447	50.09
3.33113	50.09
3.34780	50.09
3.36447	50.08
3.38113	50.06
3.39780	50.06
3.41447	50.06
3.43113	50.05
3.44780	50.07
3.46447	50.07
3.48113	50.08
3.49780	50.09
3.51447	50.09
3.53113	50.10
3.54780	50.09
3.56447	50.08
3.58113	50.09
3.59780	50.09
3.61447	50.08
3.63113	50.08
3.64780	50.08
3.66447	50.08
3.68113	50.09
3.69780	50.09
3.71447	50.08
3.73113	50.08
3.74780	50.08
3.76447	50.08
3.78113	50.09
3.79780	50.10
3.81447	50.08
3.83113	50.07
3.84780	50.07
3.86447	50.07
3.88113	50.07
3.89780	50.06
3.91447	50.06
3.93113	50.06
3.94780	50.08
3.96447	50.08
3.98113	50.09
3.99780	50.10

[Status Trace (Injection Unit Temperature)]
Interval(msec)	1000
# of Points	240
Start Time(min)	0.014
End Time(min)	3.998
Intensity Units	
Intensity Multiplier	1
R.Time (min)	Intensity
0.01447	99.98
0.03113	99.98
0.04780	99.98
0.06447	99.98
0.08113	99.97
0.09780	99.98
0.11447	99.98
0.13113	99.98
0.14780	99.98
0.16447	99.98
0.18113	99.98
0.19780	99.98
0.21447	99.98
0.23113	99.98
0.24780	99.99
0.26447	99.98
0.28113	99.99
0.29780	99.98
0.31447	99.99
0.33113	99.98
0.34780	99.98
0.36447	99.98
0.38113	99.98
0.39780	99.98
0.41447	99.98
0.43113	99.98
0.44780	99.98
0.46447	99.98
0.48113	99.98
0.49780	99.99
0.51447	99.98
0.53113	99.98
0.54780	99.98
0.56447	99.98
0.58113	99.98
0.59780	99.99
0.61447	99.98
0.63113	99.98
0.64780	99.98
0.66447	99.98
0.68113	99.98
0.69780	99.99
0.71447	99.99
0.73113	99.99
0.74780	99.99
0.76447	99.98
0.78113	99.98
0.79780	99.99
0.81447	99.99
0.83113	99.99
0.84780	99.99
0.86447	99.98
0.88113	99.98
0.89780	99.98
0.91447	99.98
0.93113	99.98
0.94780	99.98
0.96447	99.98
0.98113	99.97
0.99780	99.98
1.01447	99.98
1.03113	99.98
1.04780	99.98
1.06447	99.98
1.08113	99.98
1.09780	99.98
1.11447	99.98
1.13113	99.98
1.14780	99.98
1.16447	99.98
1.18113	99.98
1.19780	99.98
1.21447	99.98
1.23113	99.98
1.24780	99.98
1.26447	99.98
1.28113	99.98
1.29780	99.98
1.31447	99.98
1.33113	99.98
1.34780	99.98
1.36447	99.98
1.38113	99.98
1.39780	99.99
1.41447	99.98
1.43113	99.98
1.44780	99.99
1.46447	99.98
1.48113	99.99
1.49780	99.98
1.51447	99.98
1.53113	99.98
1.54780	99.99
1.56447	99.99
1.58113	99.98
1.59780	99.99
1.61447	99.99
1.63113	99.99
1.64780	99.99
1.66447	99.99
1.68113	99.99
1.69780	99.99
1.71447	99.99
1.73113	99.99
1.74780	99.99
1.76447	99.98
1.78113	99.99
1.79780	99.99
1.81447	99.99
1.83113	99.99
1.84780	99.98
1.86447	99.99
1.88113	99.99
1.89780	99.99
1.91447	99.99
1.93113	99.98
1.94780	99.99
1.96447	99.99
1.98113	99.98
1.99780	99.98
2.01447	99.98
2.03113	99.98
2.04780	99.98
2.06447	99.98
2.08113	99.98
2.09780	99.98
2.11447	99.97
2.13113	99.97
2.14780	99.97
2.16447	99.97
2.18113	99.97
2.19780	99.97
2.21447	99.97
2.23113	99.97
2.24780	99.96
2.26447	99.97
2.28113	99.97
2.29780	99.96
2.31447	99.97
2.33113	99.96
2.34780	99.96
2.36447	99.96
2.38113	99.96
2.39780	99.96
2.41447	99.96
2.43113	99.96
2.44780	99.96
2.46447	99.96
2.48113	99.96
2.49780	99.96
2.51447	99.97
2.53113	99.96
2.54780	99.97
2.56447	99.96
2.58113	99.97
2.59780	99.97
2.61447	99.97
2.63113	99.97
2.64780	99.98
2.66447	99.98
2.68113	99.97
2.69780	99.97
2.71447	99.98
2.73113	99.98
2.74780	99.98
2.76447	99.98
2.78113	99.98
2.79780	99.98
2.81447	99.99
2.83113	99.99
2.84780	99.99
2.86447	99.99
2.88113	100.00
2.89780	100.00
2.91447	100.00
2.93113	100.00
2.94780	100.00
2.96447	100.00
2.98113	100.01
2.99780	100.01
3.01447	100.01
3.03113	100.01
3.04780	100.01
3.06447	100.01
3.08113	100.01
3.09780	100.02
3.11447	100.02
3.13113	100.02
3.14780	100.02
3.16447	100.02
3.18113	100.02
3.19780	100.02
3.21447	100.02
3.23113	100.02
3.24780	100.03
3.26447	100.02
3.28113	100.03
3.29780	100.02
3.31447	100.03
3.33113	100.03
3.34780	100.03
3.36447	100.03
3.38113	100.03
3.39780	100.03
3.41447	100.03
3.43113	100.03
3.44780	100.03
3.46447	100.04
3.48113	100.03
3.49780	100.03
3.51447	100.03
3.53113	100.04
3.54780	100.03
3.56447	100.04
3.58113	100.04
3.59780	100.04
3.61447	100.03
3.63113	100.03
3.64780	100.04
3.66447	100.04
3.68113	100.03
3.69780	100.04
3.71447	100.04
3.73113	100.04
3.74780	100.04
3.76447	100.04
3.78113	100.04
3.79780	100.04
3.81447	100.04
3.83113	100.04
3.84780	100.04
3.86447	100.05
3.88113	100.04
3.89780	100.04
3.91447	100.04
3.93113	100.04
3.94780	100.05
3.96447	100.04
3.98113	100.04
3.99780	100.04

[Status Trace (Carrier Gas Pressure)]
Interval(msec)	1000
# of Points	240
Start Time(min)	0.014
End Time(min)	3.998
Intensity Units	
Intensity Multiplier	1
R.Time (min)	Intensity
0.01447	57.36
0.03113	55.62
0.04780	57.94
0.06447	59.85
0.08113	58.62
0.09780	57.98
0.11447	58.00
0.13113	58.01
0.14780	58.01
0.16447	58.00
0.18113	58.00
0.19780	58.00
0.21447	58.00
0.23113	58.00
0.24780	58.00
0.26447	58.00
0.28113	58.00
0.29780	58.00
0.31447	58.00
0.33113	58.00
0.34780	58.00
0.36447	58.00
0.38113	58.00
0.39780	58.00
0.41447	58.00
0.43113	58.00
0.44780	58.00
0.46447	58.00
0.48113	58.00
0.49780	58.00
0.51447	58.00
0.53113	58.00
0.54780	58.00
0.56447	58.00
0.58113	58.00
0.59780	58.00
0.61447	58.00
0.63113	58.00
0.64780	58.00
0.66447	58.00
0.68113	58.00
0.69780	58.00
0.71447	58.00
0.73113	58.00
0.74780	58.00
0.76447	58.00
0.78113	58.00
0.79780	58.00
0.81447	58.00
0.83113	58.00
0.84780	58.00
0.86447	58.00
0.88113	58.00
0.89780	58.00
0.91447	58.00
0.93113	58.00
0.94780	58.00
0.96447	58.00
0.98113	58.00
0.99780	58.00
1.01447	58.00
1.03113	58.00
1.04780	58.00
1.06447	58.00
1.08113	58.00
1.09780	58.00
1.11447	58.00
1.13113	58.00
1.14780	58.00
1.16447	58.00
1.18113	58.00
1.19780	58.00
1.21447	58.00
1.23113	58.00
1.24780	58.00
1.26447	58.00
1.28113	58.00
1.29780	58.00
1.31447	58.00
1.33113	58.00
1.34780	58.00
1.36447	58.00
1.38113	58.00
1.39780	58.00
1.41447	58.00
1.43113	58.00
1.44780	58.00
1.46447	58.00
1.48113	58.00
1.49780	58.00
1.51447	58.00
1.53113	58.00
1.54780	58.00
1.56447	58.00
1.58113	58.00
1.59780	58.00
1.61447	58.00
1.63113	58.00
1.64780	58.00
1.66447	58.01
1.68113	58.01
1.69780	58.00
1.71447	58.00
1.73113	58.00
1.74780	58.00
1.76447	58.00
1.78113	58.00
1.79780	58.00
1.81447	58.00
1.83113	58.00
1.84780	58.00
1.86447	58.00
1.88113	58.00
1.89780	58.00
1.91447	58.00
1.93113	58.00
1.94780	58.00
1.96447	58.00
1.98113	58.00
1.99780	58.00
2.01447	58.00
2.03113	58.00
2.04780	58.00
2.06447	58.00
2.08113	58.00
2.09780	58.00
2.11447	58.00
2.13113	58.00
2.14780	58.00
2.16447	58.00
2.18113	58.00
2.19780	58.00
2.21447	58.00
2.23113	58.00
2.24780	58.00
2.26447	58.00
2.28113	58.00
2.29780	58.00
2.31447	58.00
2.33113	58.00
2.34780	58.00
2.36447	58.00
2.38113	57.99
2.39780	57.99
2.41447	58.00
2.43113	58.00
2.44780	58.00
2.46447	58.00
2.48113	58.00
2.49780	58.00
2.51447	57.99
2.53113	57.99
2.54780	58.00
2.56447	58.00
2.58113	58.00
2.59780	58.00
2.61447	58.00
2.63113	58.00
2.64780	58.00
2.66447	58.00
2.68113	58.00
2.69780	58.00
2.71447	58.00
2.73113	58.00
2.74780	58.00
2.76447	58.00
2.78113	58.00
2.79780	58.00
2.81447	58.00
2.83113	58.00
2.84780	58.00
2.86447	58.00
2.88113	58.00
2.89780	58.00
2.91447	58.00
2.93113	58.00
2.94780	58.00
2.96447	58.00
2.98113	58.00
2.99780	58.00
3.01447	58.00
3.03113	58.00
3.04780	58.00
3.06447	58.00
3.08113	58.00
3.09780	58.00
3.11447	58.00
3.13113	58.00
3.14780	58.00
3.16447	58.00
3.18113	58.00
3.19780	58.00
3.21447	58.00
3.23113	58.00
3.24780	58.00
3.26447	58.00
3.28113	58.00
3.29780	58.00
3.31447	58.00
3.33113	58.00
3.34780	58.00
3.36447	58.00
3.38113	58.00
3.39780	58.00
3.41447	58.00
3.43113	58.00
3.44780	58.00
3.46447	58.00
3.48113	58.00
3.49780	58.00
3.51447	58.00
3.53113	58.00
3.54780	58.00
3.56447	58.00
3.58113	58.00
3.59780	58.00
3.61447	58.00
3.63113	58.00
3.64780	58.00
3.66447	58.00
3.68113	58.00
3.69780	58.00
3.71447	58.00
3.73113	58.00
3.74780	58.00
3.76447	58.00
3.78113	58.00
3.79780	58.00
3.81447	58.00
3.83113	58.00
3.84780	58.00
3.86447	58.00
3.88113	58.00
3.89780	58.00
3.91447	58.00
3.93113	58.00
3.94780	58.00
3.96447	58.00
3.98113	58.00
3.99780	58.00

[Status Trace (Carrier Gas Flow)]
Interval(msec)	1000
# of Points	240
Start Time(min)	0.014
End Time(min)	3.998
Intensity Units	
Intensity Multiplier	1
R.Time (min)	Intensity
0.01447	33.96
0.03113	34.54
0.04780	34.54
0.06447	34.52
0.08113	34.51
0.09780	34.52
0.11447	34.52
0.13113	34.51
0.14780	34.52
0.16447	34.51
0.18113	34.52
0.19780	34.51
0.21447	34.52
0.23113	34.51
0.24780	34.51
0.26447	34.53
0.28113	34.51
0.29780	34.52
0.31447	34.52
0.33113	34.53
0.34780	34.51
0.36447	34.52
0.38113	34.51
0.39780	34.52
0.41447	34.53
0.43113	34.51
0.44780	34.51
0.46447	34.52
0.48113	34.52
0.49780	34.51
0.51447	34.52
0.53113	34.52
0.54780	34.52
0.56447	34.51
0.58113	34.51
0.59780	34.52
0.61447	34.52
0.63113	34.52
0.64780	34.52
0.66447	34.52
0.68113	34.52
0.69780	34.51
0.71447	34.51
0.73113	34.52
0.74780	34.53
0.76447	34.52
0.78113	34.53
0.79780	34.53
0.81447	34.52
0.83113	34.52
0.84780	34.52
0.86447	34.52
0.88113	34.52
0.89780	34.53
0.91447	34.53
0.93113	34.52
0.94780	34.52
0.96447	34.52
0.98113	34.51
0.99780	34.52
1.01447	34.52
1.03113	34.53
1.04780	34.52
1.06447	34.51
1.08113	34.51
1.09780	34.53
1.11447	34.53
1.13113	34.51
1.14780	34.52
1.16447	34.51
1.18113	34.52
1.19780	34.52
1.21447	34.52
1.23113	34.52
1.24780	34.52
1.26447	34.52
1.28113	34.51
1.29780	34.52
1.31447	34.52
1.33113	34.51
1.34780	34.51
1.36447	34.52
1.38113	34.52
1.39780	34.52
1.41447	34.52
1.43113	34.52
1.44780	34.51
1.46447	34.52
1.48113	34.52
1.49780	34.52
1.51447	34.52
1.53113	34.52
1.54780	34.52
1.56447	34.52
1.58113	34.52
1.59780	34.52
1.61447	34.52
1.63113	34.52
1.64780	34.52
1.66447	34.52
1.68113	34.51
1.69780	34.51
1.71447	34.52
1.73113	34.52
1.74780	34.52
1.76447	34.51
1.78113	34.52
1.79780	34.52
1.81447	34.52
1.83113	34.51
1.84780	34.51
1.86447	34.52
1.88113	34.52
1.89780	34.51
1.91447	34.53
1.93113	34.52
1.94780	34.51
1.96447	34.52
1.98113	34.52
1.99780	34.52
2.01447	34.52
2.03113	34.53
2.04780	34.52
2.06447	34.52
2.08113	34.51
2.09780	34.51
2.11447	34.52
2.13113	34.53
2.14780	34.52
2.16447	34.53
2.18113	34.52
2.19780	34.52
2.21447	34.51
2.23113	34.51
2.24780	34.51
2.26447	34.53
2.28113	34.52
2.29780	34.52
2.31447	34.51
2.33113	34.52
2.34780	34.52
2.36447	34.51
2.38113	34.51
2.39780	34.52
2.41447	34.52
2.43113	34.52
2.44780	34.52
2.46447	34.52
2.48113	34.52
2.49780	34.52
2.51447	34.51
2.53113	34.52
2.54780	34.53
2.56447	34.52
2.58113	34.52
2.59780	34.51
2.61447	34.52
2.63113	34.51
2.64780	34.52
2.66447	34.52
2.68113	34.52
2.69780	34.52
2.71447	34.52
2.73113	34.52
2.74780	34.52
2.76447	34.52
2.78113	34.52
2.79780	34.52
2.81447	34.52
2.83113	34.52
2.84780	34.52
2.86447	34.52
2.88113	34.51
2.89780	34.52
2.91447	34.51
2.93113	34.52
2.94780	34.52
2.96447	34.52
2.98113	34.52
2.99780	34.52
3.01447	34.52
3.03113	34.52
3.04780	34.52
3.06447	34.52
3.08113	34.52
3.09780	34.52
3.11447	34.52
3.13113	34.51
3.14780	34.51
3.16447	34.52
3.18113	34.53
3.19780	34.52
3.21447	34.52
3.23113	34.52
3.24780	34.52
3.26447	34.52
3.28113	34.52
3.29780	34.52
3.31447	34.52
3.33113	34.52
3.34780	34.51
3.36447	34.52
3.38113	34.52
3.39780	34.52
3.41447	34.52
3.43113	34.51
3.44780	34.51
3.46447	34.51
3.48113	34.51
3.49780	34.52
3.51447	34.53
3.53113	34.52
3.54780	34.52
3.56447	34.52
3.58113	34.52
3.59780	34.52
3.61447	34.52
3.63113	34.52
3.64780	34.52
3.66447	34.52
3.68113	34.52
3.69780	34.52
3.71447	34.52
3.73113	34.52
3.74780	34.52
3.76447	34.52
3.78113	34.52
3.79780	34.52
3.81447	34.52
3.83113	34.51
3.84780	34.52
3.86447	34.52
3.88113	34.52
3.89780	34.52
3.91447	34.51
3.93113	34.52
3.94780	34.52
3.96447	34.52
3.98113	34.51
3.99780	34.54

[Status Trace (Column Flow)]
Interval(msec)	1000
# of Points	240
Start Time(min)	0.014
End Time(min)	3.998
Intensity Units	
Intensity Multiplier	1
R.Time (min)	Intensity
0.01447	5.45
0.03113	5.25
0.04780	5.52
0.06447	5.75
0.08113	5.60
0.09780	5.53
0.11447	5.53
0.13113	5.53
0.14780	5.53
0.16447	5.53
0.18113	5.53
0.19780	5.53
0.21447	5.53
0.23113	5.53
0.24780	5.53
0.26447	5.53
0.28113	5.53
0.29780	5.53
0.31447	5.53
0.33113	5.53
0.34780	5.53
0.36447	5.53
0.38113	5.53
0.39780	5.53
0.41447	5.53
0.43113	5.53
0.44780	5.53
0.46447	5.53
0.48113	5.53
0.49780	5.53
0.51447	5.53
0.53113	5.53
0.54780	5.53
0.56447	5.53
0.58113	5.53
0.59780	5.53
0.61447	5.53
0.63113	5.53
0.64780	5.53
0.66447	5.53
0.68113	5.53
0.69780	5.53
0.71447	5.53
0.73113	5.53
0.74780	5.53
0.76447	5.53
0.78113	5.53
0.79780	5.53
0.81447	5.53
0.83113	5.53
0.84780	5.53
0.86447	5.53
0.88113	5.53
0.89780	5.53
0.91447	5.53
0.93113	5.53
0.94780	5.53
0.96447	5.53
0.98113	5.53
0.99780	5.53
1.01447	5.53
1.03113	5.53
1.04780	5.53
1.06447	5.53
1.08113	5.53
1.09780	5.53
1.11447	5.53
1.13113	5.53
1.14780	5.53
1.16447	5.53
1.18113	5.53
1.19780	5.53
1.21447	5.53
1.23113	5.53
1.24780	5.53
1.26447	5.53
1.28113	5.53
1.29780	5.53
1.31447	5.53
1.33113	5.53
1.34780	5.53
1.36447	5.53
1.38113	5.53
1.39780	5.53
1.41447	5.53
1.43113	5.53
1.44780	5.53
1.46447	5.53
1.48113	5.53
1.49780	5.53
1.51447	5.53
1.53113	5.53
1.54780	5.53
1.56447	5.53
1.58113	5.53
1.59780	5.53
1.61447	5.53
1.63113	5.52
1.64780	5.52
1.66447	5.51
1.68113	5.50
1.69780	5.48
1.71447	5.47
1.73113	5.46
1.74780	5.45
1.76447	5.44
1.78113	5.43
1.79780	5.42
1.81447	5.41
1.83113	5.40
1.84780	5.39
1.86447	5.38
1.88113	5.37
1.89780	5.36
1.91447	5.35
1.93113	5.34
1.94780	5.33
1.96447	5.32
1.98113	5.31
1.99780	5.30
2.01447	5.29
2.03113	5.28
2.04780	5.27
2.06447	5.26
2.08113	5.25
2.09780	5.25
2.11447	5.24
2.13113	5.23
2.14780	5.22
2.16447	5.21
2.18113	5.20
2.19780	5.19
2.21447	5.18
2.23113	5.17
2.24780	5.16
2.26447	5.15
2.28113	5.14
2.29780	5.14
2.31447	5.12
2.33113	5.12
2.34780	5.11
2.36447	5.10
2.38113	5.09
2.39780	5.09
2.41447	5.09
2.43113	5.10
2.44780	5.09
2.46447	5.09
2.48113	5.09
2.49780	5.09
2.51447	5.09
2.53113	5.09
2.54780	5.09
2.56447	5.09
2.58113	5.09
2.59780	5.09
2.61447	5.09
2.63113	5.09
2.64780	5.09
2.66447	5.09
2.68113	5.09
2.69780	5.09
2.71447	5.09
2.73113	5.09
2.74780	5.09
2.76447	5.09
2.78113	5.09
2.79780	5.09
2.81447	5.09
2.83113	5.09
2.84780	5.09
2.86447	5.09
2.88113	5.09
2.89780	5.09
2.91447	5.09
2.93113	5.09
2.94780	5.09
2.96447	5.09
2.98113	5.09
2.99780	5.09
3.01447	5.09
3.03113	5.09
3.04780	5.09
3.06447	5.09
3.08113	5.09
3.09780	5.09
3.11447	5.09
3.13113	5.09
3.14780	5.09
3.16447	5.09
3.18113	5.08
3.19780	5.08
3.21447	5.08
3.23113	5.08
3.24780	5.08
3.26447	5.08
3.28113	5.08
3.29780	5.08
3.31447	5.08
3.33113	5.08
3.34780	5.08
3.36447	5.08
3.38113	5.08
3.39780	5.08
3.41447	5.08
3.43113	5.08
3.44780	5.08
3.46447	5.08
3.48113	5.08
3.49780	5.08
3.51447	5.08
3.53113	5.08
3.54780	5.08
3.56447	5.08
3.58113	5.08
3.59780	5.08
3.61447	5.08
3.63113	5.08
3.64780	5.08
3.66447	5.08
3.68113	5.08
3.69780	5.08
3.71447	5.08
3.73113	5.08
3.74780	5.08
3.76447	5.08
3.78113	5.08
3.79780	5.08
3.81447	5.08
3.83113	5.08
3.84780	5.08
3.86447	5.08
3.88113	5.08
3.89780	5.08
3.91447	5.08
3.93113	5.08
3.94780	5.08
3.96447	5.08
3.98113	5.08
3.99780	5.08

[Status Trace (Linear Velocity)]
Interval(msec)	1000
# of Points	240
Start Time(min)	0.014
End Time(min)	3.998
Intensity Units	
Intensity Multiplier	1
R.Time (min)	Intensity
0.01447	38.60
0.03113	37.46
0.04780	38.98
0.06447	40.23
0.08113	39.42
0.09780	39.00
0.11447	39.01
0.13113	39.02
0.14780	39.02
0.16447	39.02
0.18113	39.02
0.19780	39.02
0.21447	39.02
0.23113	39.02
0.24780	39.01
0.26447	39.01
0.28113	39.01
0.29780	39.01
0.31447	39.02
0.33113	39.02
0.34780	39.02
0.36447	39.02
0.38113	39.02
0.39780	39.02
0.41447	39.02
0.43113	39.02
0.44780	39.02
0.46447	39.02
0.48113	39.02
0.49780	39.01
0.51447	39.02
0.53113	39.02
0.54780	39.02
0.56447	39.02
0.58113	39.02
0.59780	39.02
0.61447	39.02
0.63113	39.02
0.64780	39.02
0.66447	39.02
0.68113	39.02
0.69780	39.02
0.71447	39.01
0.73113	39.01
0.74780	39.01
0.76447	39.01
0.78113	39.01
0.79780	39.01
0.81447	39.02
0.83113	39.02
0.84780	39.02
0.86447	39.02
0.88113	39.02
0.89780	39.02
0.91447	39.02
0.93113	39.02
0.94780	39.02
0.96447	39.02
0.98113	39.02
0.99780	39.02
1.01447	39.02
1.03113	39.02
1.04780	39.02
1.06447	39.02
1.08113	39.02
1.09780	39.02
1.11447	39.02
1.13113	39.02
1.14780	39.02
1.16447	39.02
1.18113	39.02
1.19780	39.02
1.21447	39.02
1.23113	39.02
1.24780	39.02
1.26447	39.02
1.28113	39.02
1.29780	39.02
1.31447	39.02
1.33113	39.02
1.34780	39.02
1.36447	39.02
1.38113	39.02
1.39780	39.02
1.41447	39.02
1.43113	39.02
1.44780	39.02
1.46447	39.02
1.48113	39.02
1.49780	39.02
1.51447	39.02
1.53113	39.02
1.54780	39.02
1.56447	39.02
1.58113	39.02
1.59780	39.02
1.61447	39.01
1.63113	39.00
1.64780	38.98
1.66447	38.95
1.68113	38.92
1.69780	38.88
1.71447	38.85
1.73113	38.82
1.74780	38.78
1.76447	38.75
1.78113	38.72
1.79780	38.69
1.81447	38.66
1.83113	38.63
1.84780	38.60
1.86447	38.56
1.88113	38.53
1.89780	38.50
1.91447	38.47
1.93113	38.44
1.94780	38.41
1.96447	38.38
1.98113	38.35
1.99780	38.32
2.01447	38.29
2.03113	38.26
2.04780	38.23
2.06447	38.20
2.08113	38.17
2.09780	38.14
2.11447	38.11
2.13113	38.08
2.14780	38.05
2.16447	38.02
2.18113	37.99
2.19780	37.96
2.21447	37.93
2.23113	37.90
2.24780	37.87
2.26447	37.84
2.28113	37.82
2.29780	37.79
2.31447	37.76
2.33113	37.73
2.34780	37.70
2.36447	37.67
2.38113	37.66
2.39780	37.66
2.41447	37.66
2.43113	37.66
2.44780	37.66
2.46447	37.66
2.48113	37.66
2.49780	37.66
2.51447	37.65
2.53113	37.65
2.54780	37.66
2.56447	37.66
2.58113	37.65
2.59780	37.65
2.61447	37.65
2.63113	37.65
2.64780	37.65
2.66447	37.65
2.68113	37.65
2.69780	37.64
2.71447	37.64
2.73113	37.64
2.74780	37.65
2.76447	37.65
2.78113	37.65
2.79780	37.64
2.81447	37.64
2.83113	37.64
2.84780	37.64
2.86447	37.64
2.88113	37.64
2.89780	37.64
2.91447	37.64
2.93113	37.64
2.94780	37.64
2.96447	37.64
2.98113	37.64
2.99780	37.64
3.01447	37.63
3.03113	37.63
3.04780	37.63
3.06447	37.63
3.08113	37.64
3.09780	37.64
3.11447	37.63
3.13113	37.63
3.14780	37.63
3.16447	37.63
3.18113	37.63
3.19780	37.63
3.21447	37.63
3.23113	37.62
3.24780	37.63
3.26447	37.63
3.28113	37.63
3.29780	37.63
3.31447	37.63
3.33113	37.63
3.34780	37.63
3.36447	37.63
3.38113	37.63
3.39780	37.63
3.41447	37.63
3.43113	37.63
3.44780	37.63
3.46447	37.63
3.48113	37.63
3.49780	37.63
3.51447	37.63
3.53113	37.63
3.54780	37.63
3.56447	37.63
3.58113	37.63
3.59780	37.63
3.61447	37.63
3.63113	37.63
3.64780	37.63
3.66447	37.63
3.68113	37.63
3.69780	37.63
3.71447	37.63
3.73113	37.63
3.74780	37.63
3.76447	37.63
3.78113	37.63
3.79780	37.63
3.81447	37.63
3.83113	37.63
3.84780	37.63
3.86447	37.63
3.88113	37.63
3.89780	37.63
3.91447	37.63
3.93113	37.63
3.94780	37.63
3.96447	37.63
3.98113	37.63
3.99780	37.63

