[Header]
Application Name	LabSolutions
Version	5.110
Data File Name	C:\Users\User\Desktop\GC Analyses\Jack\Nachusa Grasslands Sampling\T3 Timepoint July 12th\T3_07122022_045.gcd
Output Date	3/14/2023
Output Time	3:43:33 PM

[File Information]
Type	Data File
Generated	3/13/2023 7:27:37 PM
Generated by	System Administrator
Modified	3/13/2023 7:34:23 PM
Modified by	System Administrator

[Sample Information]
Operator Name	System Administrator
Acquired	3/13/2023 7:30:21 PM
Sample Type	0:Unknown
Level	0
Sample Name	045
Sample ID	045
ISTD Amount1	1
ISTD Amount2	1
ISTD Amount3	1
ISTD Amount4	1
ISTD Amount5	1
ISTD Amount6	1
ISTD Amount7	1
ISTD Amount8	1
ISTD Amount9	1
ISTD Amount10	1
ISTD Amount11	1
ISTD Amount12	1
ISTD Amount13	1
ISTD Amount14	1
ISTD Amount15	1
ISTD Amount16	1
ISTD Amount17	1
ISTD Amount18	1
ISTD Amount19	1
ISTD Amount20	1
ISTD Amount21	1
ISTD Amount22	1
ISTD Amount23	1
ISTD Amount24	1
ISTD Amount25	1
ISTD Amount26	1
ISTD Amount27	1
ISTD Amount28	1
ISTD Amount29	1
ISTD Amount30	1
ISTD Amount31	1
ISTD Amount32	1
Sample Amount	1
Dilution Factor	1
Vial#	44
Injection Volume	1
Injection Count	1
Bar Code	

[Original Files]
Data File	C:\Users\User\Desktop\GC Analyses\Jack\Nachusa Grasslands Sampling\T3 Timepoint July 12th\T3_07122022_045.gcd
Method File	C:\LabSolutions\Data\GHG_4min_2022\ghg3_togas_w_acet_4 min_new_int.gcm
Batch File	C:\LabSolutions\Data\AutoSamplerTesting\T3_07122022.gcb
Report Format File	c:\LabSolutions\System\DEFAULT.lsr

[File Description]


[Configuration]
Instrument Name	C0B7VH3-Instrument1
Instrument #	1
Line #	1
# of Detectors	3
Detector ID	DET#1	DET#2	DET#3
Detector Name	FID	PTCD	ECD
# of Channels	1	1	1

[Peak Table(Ch1)]
# of Peaks	3
Peak#	R.Time	I.Time	F.Time	Area	Height	A/H	Conc.	Mark	ID#	Name	k'	Plate #	Plate Ht.	Tailing	Resolution	Sep.Factor	Area Ratio	Height Ratio	Conc. %	Norm Conc.
1	1.476	1.417	1.534	22021	10746	2.049	155.466	   	1	CO	0.000	9472	15.836	1.227	0.000	0.000	0	0	22.444	22.444
2	1.571	1.538	1.641	4017	1991	2.018	77.678	   	2	CH4	0.065	11473	13.074	1.265	1.598	0.000	0	0	11.214	11.214
3	2.000	1.952	2.341	1831005	881363	2.077	459.533	   	3	CO2	0.355	17660	8.494	1.171	7.218	5.500	0	0	66.342	66.342

[Peak Table(Ch2)]
# of Peaks	0

[Peak Table(Ch3)]
# of Peaks	6
Peak#	R.Time	I.Time	F.Time	Area	Height	A/H	Conc.	Mark	ID#	Name	k'	Plate #	Plate Ht.	Tailing	Resolution	Sep.Factor	Area Ratio	Height Ratio	Conc. %	Norm Conc.
1	1.131	0.838	1.296	277	20	13.888	0.000	   			0.000	506	296.640	0.772	0.000	0.000	0	0	0.000	0.000
2	2.462	2.220	2.510	2323	632	3.676	0.000	   			1.177	10047	14.930	0.000	8.890	0.000	0	0	0.000	0.000
3	2.528	2.510	2.583	1047	346	3.020	0.000	 V 			1.235	5315	28.221	0.000	0.557	1.050	0	0	0.000	0.000
4	2.605	2.583	2.682	554	145	3.825	0.000	 V 			1.303	1464	102.448	0.000	0.375	1.055	0	0	0.000	0.000
5	2.880	2.814	3.034	17438	4692	3.716	0.445	   	1	N2O	1.546	13522	11.093	1.512	1.481	1.187	0	0	100.000	100.000
6	3.327	3.137	3.995	20085	675	29.747	0.000	   	2	SF6	1.942	255	588.923	2.211	0.959	1.256	0	0	0.000	0.000

[Compound Results(Ch1)]
# of IDs	6
ID#	Name	R.Time	Area	Height	Conc.	Curve	3rd	2nd	1st	Constant	Area Ratio	Height Ratio	Conc. %	Norm Conc.
1	CO	1.476	22021	10746	155.466	Linear	0.000000e+00	0.000000e+00	1.416423e+002	0.000000e+00	0	0	22.444	22.444
2	CH4	1.571	4017	1991	77.678	Linear	0.000000e+00	0.000000e+00	5.171738e+001	0.000000e+00	0	0	11.214	11.214
3	CO2	2.000	1831005	881363	459.533	Linear	0.000000e+00	0.000000e+00	3.984494e+003	0.000000e+00	0	0	66.342	66.342
4	Ethylene	0.000	0	0	0.000	Linear	0.000000e+00	0.000000e+00	0.000000e+00	0.000000e+00	0	0	0.000	0.000
5	Acetylene	0.000	0	0	0.000	Linear	0.000000e+00	0.000000e+00	0.000000e+00	0.000000e+00	0	0	0.000	0.000
6	Ethane	0.000	0	0	0.000	Linear	0.000000e+00	0.000000e+00	0.000000e+00	0.000000e+00	0	0	0.000	0.000

[Compound Results(Ch2)]
# of IDs	5
ID#	Name	R.Time	Area	Height	Conc.	Curve	3rd	2nd	1st	Constant	Area Ratio	Height Ratio	Conc. %	Norm Conc.
1	Hydrogen	0.000	0	0	0.000	Linear	0.000000e+00	0.000000e+00	0.000000e+00	0.000000e+00	0	0	0.000	0.000
2	Oxygen	0.000	0	0	0.000	Linear	0.000000e+00	0.000000e+00	0.000000e+00	0.000000e+00	0	0	0.000	0.000
3	Nitrogen	0.000	0	0	0.000	Linear	0.000000e+00	0.000000e+00	0.000000e+00	0.000000e+00	0	0	0.000	0.000
4	Methane	0.000	0	0	0.000	Linear	0.000000e+00	0.000000e+00	0.000000e+00	0.000000e+00	0	0	0.000	0.000
5	Carbon Monoxide	0.000	0	0	0.000	Linear	0.000000e+00	0.000000e+00	0.000000e+00	0.000000e+00	0	0	0.000	0.000

[Compound Results(Ch3)]
# of IDs	2
ID#	Name	R.Time	Area	Height	Conc.	Curve	3rd	2nd	1st	Constant	Area Ratio	Height Ratio	Conc. %	Norm Conc.
1	N2O	2.880	17438	4692	0.445	Linear	0.000000e+00	0.000000e+00	3.915173e+004	0.000000e+00	0	0	100.000	100.000
2	SF6	3.327	20085	675	0.000	Linear	0.000000e+00	0.000000e+00	0.000000e+00	0.000000e+00	0	0	0.000	0.000

[Group Results(Ch1)]
# of Groups	0

[Group Results(Ch2)]
# of Groups	0

[Group Results(Ch3)]
# of Groups	0

[Chromatogram (Ch1)]
Interval(msec)	220
# of Points	1091
Start Time(min)	0.002
End Time(min)	3.998
R.Time (min)	Intensity
0.00167	12
0.00533	-5
0.00900	-20
0.01267	-33
0.01633	-44
0.02000	-51
0.02367	-53
0.02733	-49
0.03100	-40
0.03467	-29
0.03833	-16
0.04200	-6
0.04567	-1
0.04933	1
0.05300	1
0.05667	0
0.06033	1
0.06400	6
0.06767	12
0.07133	19
0.07500	22
0.07867	18
0.08233	14
0.08600	13
0.08967	15
0.09333	21
0.09700	27
0.10067	29
0.10433	23
0.10800	12
0.11167	2
0.11533	-7
0.11900	-11
0.12267	-9
0.12633	-4
0.13000	-4
0.13367	-5
0.13733	-7
0.14100	-4
0.14467	2
0.14833	6
0.15200	7
0.15567	9
0.15933	14
0.16300	17
0.16667	17
0.17033	18
0.17400	24
0.17767	35
0.18133	39
0.18500	39
0.18867	41
0.19233	42
0.19600	46
0.19967	56
0.20333	68
0.20700	78
0.21067	81
0.21433	79
0.21800	74
0.22167	65
0.22533	56
0.22900	55
0.23267	54
0.23633	53
0.24000	50
0.24367	48
0.24733	47
0.25100	48
0.25467	53
0.25833	61
0.26200	69
0.26567	73
0.26933	72
0.27300	68
0.27667	62
0.28033	55
0.28400	50
0.28767	46
0.29133	41
0.29500	38
0.29867	39
0.30233	41
0.30600	40
0.30967	40
0.31333	43
0.31700	44
0.32067	45
0.32433	45
0.32800	41
0.33167	36
0.33533	30
0.33900	26
0.34267	26
0.34633	29
0.35000	31
0.35367	30
0.35733	30
0.36100	34
0.36467	42
0.36833	47
0.37200	41
0.37567	36
0.37933	38
0.38300	41
0.38667	44
0.39033	47
0.39400	49
0.39767	47
0.40133	46
0.40500	47
0.40867	47
0.41233	43
0.41600	37
0.41967	33
0.42333	30
0.42700	31
0.43067	35
0.43433	43
0.43800	51
0.44167	57
0.44533	59
0.44900	57
0.45267	53
0.45633	48
0.46000	46
0.46367	47
0.46733	47
0.47100	46
0.47467	47
0.47833	45
0.48200	46
0.48567	45
0.48933	44
0.49300	44
0.49667	40
0.50033	31
0.50400	23
0.50767	20
0.51133	22
0.51500	25
0.51867	28
0.52233	27
0.52600	24
0.52967	21
0.53333	21
0.53700	23
0.54067	25
0.54433	29
0.54800	34
0.55167	36
0.55533	35
0.55900	32
0.56267	30
0.56633	32
0.57000	39
0.57367	46
0.57733	46
0.58100	42
0.58467	37
0.58833	35
0.59200	36
0.59567	35
0.59933	38
0.60300	40
0.60667	41
0.61033	40
0.61400	36
0.61767	34
0.62133	33
0.62500	37
0.62867	40
0.63233	36
0.63600	30
0.63967	29
0.64333	31
0.64700	33
0.65067	34
0.65433	35
0.65800	37
0.66167	36
0.66533	37
0.66900	44
0.67267	52
0.67633	54
0.68000	52
0.68367	51
0.68733	49
0.69100	47
0.69467	41
0.69833	32
0.70200	25
0.70567	25
0.70933	36
0.71300	48
0.71667	53
0.72033	51
0.72400	46
0.72767	44
0.73133	43
0.73500	45
0.73867	52
0.74233	56
0.74600	56
0.74967	55
0.75333	54
0.75700	52
0.76067	47
0.76433	39
0.76800	35
0.77167	34
0.77533	35
0.77900	40
0.78267	47
0.78633	52
0.79000	54
0.79367	52
0.79733	47
0.80100	42
0.80467	40
0.80833	39
0.81200	41
0.81567	54
0.81933	70
0.82300	78
0.82667	76
0.83033	63
0.83400	46
0.83767	32
0.84133	26
0.84500	25
0.84867	27
0.85233	27
0.85600	23
0.85967	17
0.86333	16
0.86700	16
0.87067	17
0.87433	21
0.87800	25
0.88167	25
0.88533	23
0.88900	23
0.89267	25
0.89633	28
0.90000	32
0.90367	42
0.90733	57
0.91100	68
0.91467	68
0.91833	58
0.92200	47
0.92567	34
0.92933	24
0.93300	18
0.93667	18
0.94033	22
0.94400	27
0.94767	28
0.95133	28
0.95500	30
0.95867	32
0.96233	32
0.96600	30
0.96967	30
0.97333	29
0.97700	28
0.98067	34
0.98433	45
0.98800	51
0.99167	50
0.99533	44
0.99900	41
1.00267	38
1.00633	34
1.01000	30
1.01367	26
1.01733	24
1.02100	26
1.02467	31
1.02833	36
1.03200	40
1.03567	46
1.03933	51
1.04300	53
1.04667	57
1.05033	57
1.05400	52
1.05767	44
1.06133	40
1.06500	39
1.06867	40
1.07233	42
1.07600	37
1.07967	31
1.08333	28
1.08700	30
1.09067	35
1.09433	39
1.09800	42
1.10167	41
1.10533	35
1.10900	27
1.11267	16
1.11633	7
1.12000	3
1.12367	1
1.12733	2
1.13100	3
1.13467	6
1.13833	9
1.14200	8
1.14567	5
1.14933	6
1.15300	8
1.15667	13
1.16033	23
1.16400	28
1.16767	30
1.17133	34
1.17500	40
1.17867	42
1.18233	38
1.18600	28
1.18967	19
1.19333	17
1.19700	19
1.20067	21
1.20433	19
1.20800	16
1.21167	16
1.21533	18
1.21900	21
1.22267	25
1.22633	25
1.23000	29
1.23367	36
1.23733	43
1.24100	53
1.24467	61
1.24833	65
1.25200	65
1.25567	60
1.25933	55
1.26300	52
1.26667	49
1.27033	45
1.27400	45
1.27767	50
1.28133	57
1.28500	58
1.28867	58
1.29233	63
1.29600	70
1.29967	73
1.30333	69
1.30700	64
1.31067	62
1.31433	65
1.31800	71
1.32167	78
1.32533	83
1.32900	82
1.33267	75
1.33633	69
1.34000	68
1.34367	66
1.34733	63
1.35100	61
1.35467	60
1.35833	58
1.36200	57
1.36567	57
1.36933	56
1.37300	58
1.37667	58
1.38033	61
1.38400	65
1.38767	67
1.39133	64
1.39500	59
1.39867	55
1.40233	52
1.40600	50
1.40967	47
1.41333	41
1.41700	39
1.42067	42
1.42433	44
1.42800	45
1.43167	46
1.43533	48
1.43900	59
1.44267	104
1.44633	262
1.45000	692
1.45367	1646
1.45733	3283
1.46100	5338
1.46467	7350
1.46833	9000
1.47200	10143
1.47567	10691
1.47933	10548
1.48300	9691
1.48667	8278
1.49033	6599
1.49400	4951
1.49767	3529
1.50133	2411
1.50500	1590
1.50867	1013
1.51233	621
1.51600	351
1.51967	161
1.52333	30
1.52700	-56
1.53067	-111
1.53433	-148
1.53800	-164
1.54167	-133
1.54533	-2
1.54900	262
1.55267	633
1.55633	1031
1.56000	1382
1.56367	1649
1.56733	1816
1.57100	1853
1.57467	1738
1.57833	1495
1.58200	1182
1.58567	867
1.58933	600
1.59300	396
1.59667	244
1.60033	134
1.60400	61
1.60767	19
1.61133	-2
1.61500	-13
1.61867	-21
1.62233	-31
1.62600	-42
1.62967	-54
1.63333	-69
1.63700	-79
1.64067	-84
1.64433	-87
1.64800	-89
1.65167	-90
1.65533	-88
1.65900	-83
1.66267	-73
1.66633	-63
1.67000	-58
1.67367	-51
1.67733	-43
1.68100	-36
1.68467	-33
1.68833	-33
1.69200	-35
1.69567	-41
1.69933	-46
1.70300	-45
1.70667	-43
1.71033	-44
1.71400	-47
1.71767	-47
1.72133	-41
1.72500	-33
1.72867	-27
1.73233	-27
1.73600	-26
1.73967	-21
1.74333	-18
1.74700	-17
1.75067	-18
1.75433	-22
1.75800	-24
1.76167	-30
1.76533	-37
1.76900	-37
1.77267	-30
1.77633	-22
1.78000	-19
1.78367	-23
1.78733	-31
1.79100	-36
1.79467	-36
1.79833	-33
1.80200	-27
1.80567	-24
1.80933	-24
1.81300	-19
1.81667	-8
1.82033	5
1.82400	16
1.82767	22
1.83133	19
1.83500	11
1.83867	3
1.84233	1
1.84600	1
1.84967	-2
1.85333	-6
1.85700	-10
1.86067	-17
1.86433	-19
1.86800	-18
1.87167	-13
1.87533	-10
1.87900	-5
1.88267	3
1.88633	6
1.89000	8
1.89367	10
1.89733	10
1.90100	9
1.90467	11
1.90833	12
1.91200	12
1.91567	17
1.91933	24
1.92300	32
1.92667	39
1.93033	42
1.93400	38
1.93767	30
1.94133	19
1.94500	12
1.94867	6
1.95233	15
1.95600	103
1.95967	639
1.96333	3273
1.96700	13177
1.97067	41676
1.97433	105041
1.97800	215084
1.98167	366806
1.98533	536843
1.98900	694904
1.99267	815115
1.99633	879923
2.00000	881414
2.00367	822282
2.00733	716907
2.01100	587305
2.01467	455658
2.01833	338126
2.02200	242574
2.02567	170013
2.02933	117535
2.03300	80840
2.03667	55742
2.04033	38797
2.04400	27421
2.04767	19777
2.05133	14606
2.05500	11065
2.05867	8603
2.06233	6859
2.06600	5601
2.06967	4678
2.07333	3984
2.07700	3451
2.08067	3034
2.08433	2695
2.08800	2412
2.09167	2177
2.09533	1979
2.09900	1813
2.10267	1673
2.10633	1554
2.11000	1452
2.11367	1363
2.11733	1285
2.12100	1211
2.12467	1141
2.12833	1078
2.13200	1020
2.13567	968
2.13933	920
2.14300	878
2.14667	847
2.15033	819
2.15400	792
2.15767	769
2.16133	747
2.16500	725
2.16867	705
2.17233	687
2.17600	671
2.17967	648
2.18333	619
2.18700	593
2.19067	572
2.19433	553
2.19800	535
2.20167	522
2.20533	513
2.20900	506
2.21267	497
2.21633	484
2.22000	474
2.22367	464
2.22733	457
2.23100	452
2.23467	448
2.23833	444
2.24200	435
2.24567	423
2.24933	412
2.25300	402
2.25667	395
2.26033	395
2.26400	396
2.26767	398
2.27133	398
2.27500	393
2.27867	382
2.28233	371
2.28600	361
2.28967	353
2.29333	345
2.29700	342
2.30067	339
2.30433	336
2.30800	341
2.31167	345
2.31533	345
2.31900	343
2.32267	341
2.32633	337
2.33000	332
2.33367	328
2.33733	320
2.34100	313
2.34467	312
2.34833	315
2.35200	317
2.35567	319
2.35933	321
2.36300	318
2.36667	316
2.37033	316
2.37400	317
2.37767	315
2.38133	311
2.38500	306
2.38867	299
2.39233	292
2.39600	285
2.39967	285
2.40333	289
2.40700	294
2.41067	298
2.41433	299
2.41800	296
2.42167	291
2.42533	285
2.42900	277
2.43267	272
2.43633	268
2.44000	265
2.44367	269
2.44733	275
2.45100	282
2.45467	284
2.45833	283
2.46200	281
2.46567	280
2.46933	277
2.47300	275
2.47667	275
2.48033	278
2.48400	282
2.48767	285
2.49133	288
2.49500	289
2.49867	287
2.50233	285
2.50600	290
2.50967	300
2.51333	303
2.51700	299
2.52067	295
2.52433	292
2.52800	290
2.53167	288
2.53533	289
2.53900	292
2.54267	292
2.54633	289
2.55000	285
2.55367	283
2.55733	283
2.56100	285
2.56467	285
2.56833	282
2.57200	276
2.57567	270
2.57933	267
2.58300	266
2.58667	266
2.59033	267
2.59400	267
2.59767	269
2.60133	277
2.60500	284
2.60867	283
2.61233	277
2.61600	272
2.61967	273
2.62333	277
2.62700	283
2.63067	290
2.63433	293
2.63800	290
2.64167	284
2.64533	280
2.64900	277
2.65267	274
2.65633	274
2.66000	274
2.66367	276
2.66733	276
2.67100	273
2.67467	273
2.67833	275
2.68200	277
2.68567	279
2.68933	284
2.69300	284
2.69667	282
2.70033	284
2.70400	290
2.70767	293
2.71133	293
2.71500	291
2.71867	290
2.72233	291
2.72600	292
2.72967	294
2.73333	295
2.73700	296
2.74067	299
2.74433	300
2.74800	300
2.75167	298
2.75533	299
2.75900	301
2.76267	302
2.76633	301
2.77000	298
2.77367	296
2.77733	297
2.78100	301
2.78467	306
2.78833	308
2.79200	310
2.79567	308
2.79933	308
2.80300	312
2.80667	319
2.81033	329
2.81400	336
2.81767	345
2.82133	349
2.82500	344
2.82867	327
2.83233	309
2.83600	298
2.83967	291
2.84333	289
2.84700	291
2.85067	295
2.85433	301
2.85800	308
2.86167	312
2.86533	315
2.86900	318
2.87267	324
2.87633	326
2.88000	322
2.88367	318
2.88733	318
2.89100	323
2.89467	326
2.89833	324
2.90200	322
2.90567	323
2.90933	325
2.91300	328
2.91667	330
2.92033	331
2.92400	328
2.92767	320
2.93133	309
2.93500	296
2.93867	287
2.94233	284
2.94600	285
2.94967	285
2.95333	286
2.95700	288
2.96067	293
2.96433	300
2.96800	308
2.97167	314
2.97533	318
2.97900	321
2.98267	321
2.98633	323
2.99000	326
2.99367	332
2.99733	338
3.00100	342
3.00467	344
3.00833	345
3.01200	345
3.01567	345
3.01933	344
3.02300	338
3.02667	332
3.03033	330
3.03400	323
3.03767	312
3.04133	302
3.04500	293
3.04867	289
3.05233	290
3.05600	294
3.05967	298
3.06333	298
3.06700	300
3.07067	302
3.07433	306
3.07800	311
3.08167	316
3.08533	318
3.08900	314
3.09267	306
3.09633	296
3.10000	293
3.10367	298
3.10733	299
3.11100	301
3.11467	303
3.11833	308
3.12200	312
3.12567	313
3.12933	310
3.13300	304
3.13667	302
3.14033	299
3.14400	295
3.14767	293
3.15133	289
3.15500	288
3.15867	288
3.16233	287
3.16600	285
3.16967	288
3.17333	296
3.17700	306
3.18067	314
3.18433	312
3.18800	304
3.19167	298
3.19533	291
3.19900	288
3.20267	286
3.20633	286
3.21000	289
3.21367	293
3.21733	296
3.22100	298
3.22467	303
3.22833	313
3.23200	322
3.23567	325
3.23933	322
3.24300	317
3.24667	309
3.25033	298
3.25400	287
3.25767	284
3.26133	285
3.26500	288
3.26867	287
3.27233	284
3.27600	280
3.27967	279
3.28333	283
3.28700	285
3.29067	289
3.29433	293
3.29800	296
3.30167	300
3.30533	302
3.30900	304
3.31267	305
3.31633	299
3.32000	291
3.32367	284
3.32733	281
3.33100	284
3.33467	287
3.33833	290
3.34200	295
3.34567	297
3.34933	294
3.35300	288
3.35667	283
3.36033	277
3.36400	275
3.36767	274
3.37133	269
3.37500	264
3.37867	262
3.38233	265
3.38600	266
3.38967	263
3.39333	261
3.39700	263
3.40067	266
3.40433	269
3.40800	270
3.41167	269
3.41533	270
3.41900	279
3.42267	286
3.42633	288
3.43000	284
3.43367	277
3.43733	271
3.44100	265
3.44467	259
3.44833	256
3.45200	261
3.45567	270
3.45933	271
3.46300	266
3.46667	260
3.47033	255
3.47400	254
3.47767	257
3.48133	263
3.48500	266
3.48867	266
3.49233	266
3.49600	266
3.49967	268
3.50333	270
3.50700	265
3.51067	258
3.51433	254
3.51800	255
3.52167	260
3.52533	263
3.52900	264
3.53267	266
3.53633	265
3.54000	258
3.54367	253
3.54733	249
3.55100	247
3.55467	247
3.55833	248
3.56200	249
3.56567	250
3.56933	251
3.57300	254
3.57667	256
3.58033	257
3.58400	256
3.58767	256
3.59133	253
3.59500	246
3.59867	234
3.60233	227
3.60600	226
3.60967	231
3.61333	237
3.61700	245
3.62067	253
3.62433	258
3.62800	261
3.63167	261
3.63533	260
3.63900	252
3.64267	242
3.64633	235
3.65000	233
3.65367	235
3.65733	236
3.66100	230
3.66467	217
3.66833	204
3.67200	199
3.67567	202
3.67933	212
3.68300	229
3.68667	246
3.69033	257
3.69400	254
3.69767	244
3.70133	237
3.70500	230
3.70867	225
3.71233	225
3.71600	225
3.71967	222
3.72333	219
3.72700	219
3.73067	217
3.73433	216
3.73800	215
3.74167	216
3.74533	216
3.74900	212
3.75267	210
3.75633	208
3.76000	204
3.76367	204
3.76733	207
3.77100	209
3.77467	208
3.77833	203
3.78200	202
3.78567	205
3.78933	210
3.79300	214
3.79667	213
3.80033	212
3.80400	211
3.80767	208
3.81133	206
3.81500	208
3.81867	210
3.82233	211
3.82600	216
3.82967	222
3.83333	227
3.83700	230
3.84067	229
3.84433	223
3.84800	217
3.85167	213
3.85533	211
3.85900	209
3.86267	205
3.86633	201
3.87000	198
3.87367	196
3.87733	194
3.88100	192
3.88467	187
3.88833	184
3.89200	183
3.89567	185
3.89933	185
3.90300	185
3.90667	186
3.91033	188
3.91400	190
3.91767	190
3.92133	188
3.92500	184
3.92867	176
3.93233	173
3.93600	173
3.93967	175
3.94333	184
3.94700	196
3.95067	204
3.95433	204
3.95800	195
3.96167	185
3.96533	176
3.96900	166
3.97267	157
3.97633	150
3.98000	148
3.98367	152
3.98733	158
3.99100	166
3.99467	178
3.99833	189

[Chromatogram (Ch2)]
Interval(msec)	220
# of Points	1091
Start Time(min)	0.002
End Time(min)	3.998
R.Time (min)	Intensity
0.00167	-0
0.00533	-0
0.00900	-1
0.01267	-1
0.01633	-1
0.02000	-2
0.02367	-2
0.02733	-2
0.03100	-3
0.03467	-3
0.03833	-3
0.04200	-4
0.04567	-4
0.04933	-4
0.05300	-4
0.05667	-5
0.06033	-5
0.06400	-5
0.06767	-5
0.07133	-5
0.07500	-5
0.07867	-5
0.08233	-4
0.08600	-4
0.08967	-4
0.09333	-3
0.09700	-3
0.10067	-3
0.10433	-2
0.10800	-2
0.11167	-2
0.11533	-2
0.11900	-2
0.12267	-3
0.12633	-2
0.13000	-2
0.13367	-2
0.13733	-2
0.14100	-2
0.14467	-1
0.14833	-1
0.15200	-1
0.15567	-1
0.15933	-1
0.16300	-1
0.16667	-1
0.17033	-1
0.17400	-1
0.17767	-1
0.18133	-1
0.18500	-1
0.18867	-1
0.19233	-1
0.19600	-1
0.19967	-1
0.20333	-1
0.20700	-1
0.21067	-1
0.21433	-1
0.21800	-1
0.22167	-1
0.22533	-1
0.22900	-1
0.23267	-1
0.23633	-1
0.24000	-1
0.24367	-1
0.24733	-1
0.25100	-1
0.25467	-1
0.25833	-1
0.26200	-1
0.26567	-1
0.26933	-1
0.27300	-1
0.27667	-1
0.28033	-1
0.28400	-0
0.28767	-0
0.29133	-0
0.29500	-0
0.29867	-0
0.30233	-0
0.30600	-0
0.30967	-1
0.31333	-1
0.31700	-1
0.32067	-2
0.32433	-2
0.32800	-2
0.33167	-2
0.33533	-3
0.33900	-3
0.34267	-3
0.34633	-3
0.35000	-3
0.35367	-3
0.35733	-3
0.36100	-3
0.36467	-2
0.36833	-2
0.37200	-2
0.37567	-2
0.37933	-2
0.38300	-2
0.38667	-2
0.39033	-2
0.39400	-2
0.39767	-1
0.40133	-1
0.40500	-1
0.40867	-1
0.41233	-1
0.41600	-1
0.41967	-1
0.42333	-2
0.42700	-2
0.43067	-1
0.43433	-1
0.43800	-1
0.44167	-2
0.44533	-2
0.44900	-2
0.45267	-2
0.45633	-3
0.46000	-3
0.46367	-3
0.46733	-3
0.47100	-3
0.47467	-3
0.47833	-3
0.48200	-3
0.48567	-2
0.48933	-2
0.49300	-2
0.49667	-2
0.50033	-2
0.50400	-2
0.50767	-1
0.51133	-1
0.51500	-1
0.51867	-1
0.52233	-1
0.52600	-1
0.52967	-1
0.53333	-1
0.53700	-1
0.54067	-1
0.54433	-1
0.54800	-1
0.55167	-1
0.55533	-1
0.55900	-1
0.56267	-1
0.56633	-1
0.57000	-1
0.57367	-1
0.57733	-0
0.58100	-0
0.58467	0
0.58833	0
0.59200	1
0.59567	1
0.59933	1
0.60300	1
0.60667	1
0.61033	1
0.61400	0
0.61767	0
0.62133	-0
0.62500	-1
0.62867	-1
0.63233	-1
0.63600	-2
0.63967	-2
0.64333	-2
0.64700	-2
0.65067	-2
0.65433	-3
0.65800	-3
0.66167	-4
0.66533	-4
0.66900	-4
0.67267	-5
0.67633	-5
0.68000	-5
0.68367	-5
0.68733	-5
0.69100	-5
0.69467	-5
0.69833	-5
0.70200	-5
0.70567	-4
0.70933	-4
0.71300	-4
0.71667	-4
0.72033	-4
0.72400	-4
0.72767	-3
0.73133	-4
0.73500	-4
0.73867	-4
0.74233	-4
0.74600	-4
0.74967	-4
0.75333	-4
0.75700	-4
0.76067	-4
0.76433	-4
0.76800	-4
0.77167	-4
0.77533	-3
0.77900	-3
0.78267	-3
0.78633	-3
0.79000	-2
0.79367	-2
0.79733	-1
0.80100	-1
0.80467	-1
0.80833	-1
0.81200	-1
0.81567	-1
0.81933	-1
0.82300	-1
0.82667	-1
0.83033	-1
0.83400	-1
0.83767	-0
0.84133	-0
0.84500	-0
0.84867	-0
0.85233	-0
0.85600	-1
0.85967	-1
0.86333	-1
0.86700	-1
0.87067	-0
0.87433	-0
0.87800	0
0.88167	0
0.88533	0
0.88900	0
0.89267	-0
0.89633	-0
0.90000	0
0.90367	0
0.90733	0
0.91100	0
0.91467	0
0.91833	-0
0.92200	-0
0.92567	-1
0.92933	-0
0.93300	-0
0.93667	-0
0.94033	-0
0.94400	-0
0.94767	-1
0.95133	-1
0.95500	-2
0.95867	-2
0.96233	-3
0.96600	-3
0.96967	-3
0.97333	-3
0.97700	-3
0.98067	-3
0.98433	-3
0.98800	-3
0.99167	-4
0.99533	-4
0.99900	-4
1.00267	-4
1.00633	-4
1.01000	-5
1.01367	-4
1.01733	-4
1.02100	-4
1.02467	-4
1.02833	-4
1.03200	-4
1.03567	-3
1.03933	-3
1.04300	-3
1.04667	-3
1.05033	-4
1.05400	-3
1.05767	-3
1.06133	-3
1.06500	-3
1.06867	-3
1.07233	-2
1.07600	-2
1.07967	-2
1.08333	-2
1.08700	-2
1.09067	-2
1.09433	-3
1.09800	-3
1.10167	-3
1.10533	-3
1.10900	-3
1.11267	-3
1.11633	-3
1.12000	-3
1.12367	-3
1.12733	-3
1.13100	-3
1.13467	-3
1.13833	-3
1.14200	-3
1.14567	-3
1.14933	-4
1.15300	-4
1.15667	-4
1.16033	-4
1.16400	-4
1.16767	-4
1.17133	-4
1.17500	-4
1.17867	-4
1.18233	-4
1.18600	-3
1.18967	-3
1.19333	-3
1.19700	-2
1.20067	-2
1.20433	-2
1.20800	-2
1.21167	-1
1.21533	-1
1.21900	-1
1.22267	-1
1.22633	-1
1.23000	-1
1.23367	-1
1.23733	-1
1.24100	-1
1.24467	-2
1.24833	-2
1.25200	-2
1.25567	-2
1.25933	-2
1.26300	-1
1.26667	-2
1.27033	-2
1.27400	-1
1.27767	-1
1.28133	-1
1.28500	-2
1.28867	-2
1.29233	-2
1.29600	-3
1.29967	-3
1.30333	-3
1.30700	-3
1.31067	-3
1.31433	-3
1.31800	-2
1.32167	-2
1.32533	-2
1.32900	-2
1.33267	-3
1.33633	-3
1.34000	-4
1.34367	-4
1.34733	-5
1.35100	-5
1.35467	-5
1.35833	-5
1.36200	-5
1.36567	-6
1.36933	-6
1.37300	-6
1.37667	-5
1.38033	-5
1.38400	-5
1.38767	-5
1.39133	-6
1.39500	-6
1.39867	-6
1.40233	-5
1.40600	-5
1.40967	-5
1.41333	-5
1.41700	-5
1.42067	-5
1.42433	-5
1.42800	-5
1.43167	-5
1.43533	-5
1.43900	-4
1.44267	-4
1.44633	-4
1.45000	-5
1.45367	-5
1.45733	-5
1.46100	-5
1.46467	-4
1.46833	-4
1.47200	-4
1.47567	-3
1.47933	-3
1.48300	-3
1.48667	-3
1.49033	-2
1.49400	-2
1.49767	-2
1.50133	-2
1.50500	-2
1.50867	-2
1.51233	-2
1.51600	-2
1.51967	-2
1.52333	-3
1.52700	-3
1.53067	-3
1.53433	-3
1.53800	-4
1.54167	-4
1.54533	-4
1.54900	-5
1.55267	-5
1.55633	-6
1.56000	-6
1.56367	-6
1.56733	-6
1.57100	-6
1.57467	-6
1.57833	-6
1.58200	-6
1.58567	-5
1.58933	-5
1.59300	-6
1.59667	-6
1.60033	-6
1.60400	-7
1.60767	-8
1.61133	-10
1.61500	-11
1.61867	-14
1.62233	-16
1.62600	-19
1.62967	-22
1.63333	-26
1.63700	-29
1.64067	-32
1.64433	-36
1.64800	-40
1.65167	-43
1.65533	-47
1.65900	-50
1.66267	-54
1.66633	-58
1.67000	-62
1.67367	-67
1.67733	-72
1.68100	-77
1.68467	-81
1.68833	-86
1.69200	-90
1.69567	-94
1.69933	-97
1.70300	-100
1.70667	-102
1.71033	-104
1.71400	-105
1.71767	-106
1.72133	-106
1.72500	-107
1.72867	-107
1.73233	-107
1.73600	-108
1.73967	-108
1.74333	-108
1.74700	-108
1.75067	-108
1.75433	-109
1.75800	-109
1.76167	-110
1.76533	-111
1.76900	-111
1.77267	-112
1.77633	-113
1.78000	-114
1.78367	-114
1.78733	-114
1.79100	-115
1.79467	-114
1.79833	-114
1.80200	-114
1.80567	-114
1.80933	-114
1.81300	-115
1.81667	-115
1.82033	-115
1.82400	-115
1.82767	-115
1.83133	-115
1.83500	-116
1.83867	-116
1.84233	-117
1.84600	-118
1.84967	-118
1.85333	-118
1.85700	-117
1.86067	-117
1.86433	-116
1.86800	-115
1.87167	-114
1.87533	-114
1.87900	-113
1.88267	-113
1.88633	-113
1.89000	-113
1.89367	-113
1.89733	-113
1.90100	-113
1.90467	-114
1.90833	-114
1.91200	-113
1.91567	-113
1.91933	-113
1.92300	-113
1.92667	-113
1.93033	-113
1.93400	-114
1.93767	-114
1.94133	-115
1.94500	-115
1.94867	-115
1.95233	-114
1.95600	-114
1.95967	-113
1.96333	-112
1.96700	-111
1.97067	-110
1.97433	-110
1.97800	-110
1.98167	-110
1.98533	-110
1.98900	-110
1.99267	-110
1.99633	-110
2.00000	-110
2.00367	-109
2.00733	-109
2.01100	-107
2.01467	-106
2.01833	-105
2.02200	-105
2.02567	-104
2.02933	-104
2.03300	-103
2.03667	-103
2.04033	-103
2.04400	-103
2.04767	-103
2.05133	-103
2.05500	-103
2.05867	-103
2.06233	-102
2.06600	-102
2.06967	-101
2.07333	-100
2.07700	-100
2.08067	-100
2.08433	-100
2.08800	-100
2.09167	-100
2.09533	-100
2.09900	-101
2.10267	-101
2.10633	-101
2.11000	-101
2.11367	-101
2.11733	-101
2.12100	-100
2.12467	-100
2.12833	-99
2.13200	-98
2.13567	-98
2.13933	-98
2.14300	-97
2.14667	-97
2.15033	-96
2.15400	-96
2.15767	-96
2.16133	-96
2.16500	-96
2.16867	-96
2.17233	-95
2.17600	-94
2.17967	-94
2.18333	-93
2.18700	-93
2.19067	-92
2.19433	-92
2.19800	-92
2.20167	-92
2.20533	-92
2.20900	-92
2.21267	-93
2.21633	-93
2.22000	-92
2.22367	-92
2.22733	-91
2.23100	-90
2.23467	-89
2.23833	-89
2.24200	-89
2.24567	-88
2.24933	-87
2.25300	-87
2.25667	-86
2.26033	-86
2.26400	-86
2.26767	-86
2.27133	-87
2.27500	-87
2.27867	-87
2.28233	-87
2.28600	-86
2.28967	-85
2.29333	-84
2.29700	-83
2.30067	-82
2.30433	-81
2.30800	-80
2.31167	-80
2.31533	-79
2.31900	-79
2.32267	-79
2.32633	-79
2.33000	-79
2.33367	-79
2.33733	-79
2.34100	-79
2.34467	-79
2.34833	-79
2.35200	-78
2.35567	-78
2.35933	-77
2.36300	-76
2.36667	-75
2.37033	-74
2.37400	-71
2.37767	-68
2.38133	-65
2.38500	-61
2.38867	-57
2.39233	-53
2.39600	-48
2.39967	-43
2.40333	-38
2.40700	-34
2.41067	-29
2.41433	-25
2.41800	-22
2.42167	-19
2.42533	-17
2.42900	-15
2.43267	-13
2.43633	-12
2.44000	-11
2.44367	-10
2.44733	-9
2.45100	-8
2.45467	-8
2.45833	-7
2.46200	-7
2.46567	-6
2.46933	-5
2.47300	-4
2.47667	-2
2.48033	-1
2.48400	-0
2.48767	0
2.49133	1
2.49500	1
2.49867	2
2.50233	2
2.50600	3
2.50967	3
2.51333	4
2.51700	5
2.52067	6
2.52433	7
2.52800	8
2.53167	8
2.53533	8
2.53900	8
2.54267	8
2.54633	9
2.55000	10
2.55367	10
2.55733	11
2.56100	12
2.56467	13
2.56833	14
2.57200	14
2.57567	14
2.57933	14
2.58300	14
2.58667	14
2.59033	14
2.59400	14
2.59767	14
2.60133	15
2.60500	15
2.60867	15
2.61233	16
2.61600	16
2.61967	16
2.62333	16
2.62700	15
2.63067	15
2.63433	15
2.63800	15
2.64167	15
2.64533	15
2.64900	15
2.65267	16
2.65633	16
2.66000	16
2.66367	16
2.66733	17
2.67100	17
2.67467	18
2.67833	18
2.68200	19
2.68567	19
2.68933	19
2.69300	19
2.69667	19
2.70033	19
2.70400	20
2.70767	20
2.71133	20
2.71500	20
2.71867	21
2.72233	21
2.72600	21
2.72967	22
2.73333	22
2.73700	23
2.74067	24
2.74433	24
2.74800	24
2.75167	25
2.75533	25
2.75900	25
2.76267	25
2.76633	25
2.77000	25
2.77367	25
2.77733	25
2.78100	25
2.78467	24
2.78833	23
2.79200	23
2.79567	22
2.79933	22
2.80300	21
2.80667	21
2.81033	21
2.81400	20
2.81767	20
2.82133	20
2.82500	20
2.82867	21
2.83233	21
2.83600	21
2.83967	21
2.84333	20
2.84700	18
2.85067	14
2.85433	8
2.85800	-0
2.86167	-13
2.86533	-29
2.86900	-49
2.87267	-74
2.87633	-103
2.88000	-137
2.88367	-175
2.88733	-216
2.89100	-262
2.89467	-310
2.89833	-360
2.90200	-413
2.90567	-467
2.90933	-522
2.91300	-577
2.91667	-632
2.92033	-688
2.92400	-742
2.92767	-794
2.93133	-845
2.93500	-897
2.93867	-953
2.94233	-1011
2.94600	-1061
2.94967	-1093
2.95333	-1100
2.95700	-1082
2.96067	-1040
2.96433	-981
2.96800	-909
2.97167	-831
2.97533	-750
2.97900	-670
2.98267	-594
2.98633	-522
2.99000	-456
2.99367	-397
2.99733	-343
3.00100	-295
3.00467	-253
3.00833	-216
3.01200	-184
3.01567	-157
3.01933	-133
3.02300	-112
3.02667	-94
3.03033	-78
3.03400	-65
3.03767	-54
3.04133	-44
3.04500	-36
3.04867	-28
3.05233	-22
3.05600	-17
3.05967	-13
3.06333	-9
3.06700	-6
3.07067	-3
3.07433	-1
3.07800	1
3.08167	3
3.08533	4
3.08900	6
3.09267	7
3.09633	8
3.10000	9
3.10367	9
3.10733	10
3.11100	11
3.11467	12
3.11833	13
3.12200	14
3.12567	15
3.12933	15
3.13300	16
3.13667	16
3.14033	16
3.14400	16
3.14767	16
3.15133	16
3.15500	17
3.15867	17
3.16233	17
3.16600	17
3.16967	17
3.17333	17
3.17700	17
3.18067	17
3.18433	17
3.18800	18
3.19167	18
3.19533	18
3.19900	18
3.20267	18
3.20633	18
3.21000	19
3.21367	19
3.21733	19
3.22100	19
3.22467	19
3.22833	19
3.23200	19
3.23567	19
3.23933	19
3.24300	19
3.24667	19
3.25033	19
3.25400	19
3.25767	20
3.26133	20
3.26500	20
3.26867	20
3.27233	20
3.27600	20
3.27967	20
3.28333	20
3.28700	20
3.29067	21
3.29433	21
3.29800	21
3.30167	21
3.30533	22
3.30900	22
3.31267	23
3.31633	24
3.32000	24
3.32367	25
3.32733	25
3.33100	26
3.33467	26
3.33833	26
3.34200	26
3.34567	25
3.34933	25
3.35300	25
3.35667	25
3.36033	25
3.36400	25
3.36767	25
3.37133	25
3.37500	25
3.37867	25
3.38233	24
3.38600	24
3.38967	24
3.39333	24
3.39700	25
3.40067	25
3.40433	25
3.40800	25
3.41167	25
3.41533	25
3.41900	25
3.42267	26
3.42633	26
3.43000	26
3.43367	26
3.43733	26
3.44100	26
3.44467	26
3.44833	26
3.45200	26
3.45567	26
3.45933	26
3.46300	25
3.46667	25
3.47033	25
3.47400	25
3.47767	25
3.48133	25
3.48500	25
3.48867	25
3.49233	25
3.49600	25
3.49967	25
3.50333	25
3.50700	24
3.51067	24
3.51433	24
3.51800	24
3.52167	24
3.52533	24
3.52900	24
3.53267	24
3.53633	24
3.54000	24
3.54367	24
3.54733	24
3.55100	24
3.55467	23
3.55833	23
3.56200	23
3.56567	23
3.56933	23
3.57300	23
3.57667	23
3.58033	23
3.58400	24
3.58767	24
3.59133	24
3.59500	24
3.59867	24
3.60233	24
3.60600	24
3.60967	23
3.61333	23
3.61700	23
3.62067	24
3.62433	24
3.62800	24
3.63167	24
3.63533	24
3.63900	24
3.64267	24
3.64633	24
3.65000	24
3.65367	24
3.65733	24
3.66100	24
3.66467	24
3.66833	24
3.67200	24
3.67567	24
3.67933	24
3.68300	24
3.68667	24
3.69033	24
3.69400	24
3.69767	24
3.70133	24
3.70500	24
3.70867	24
3.71233	24
3.71600	24
3.71967	24
3.72333	24
3.72700	24
3.73067	24
3.73433	24
3.73800	24
3.74167	24
3.74533	24
3.74900	23
3.75267	23
3.75633	23
3.76000	23
3.76367	24
3.76733	24
3.77100	24
3.77467	24
3.77833	24
3.78200	24
3.78567	23
3.78933	23
3.79300	23
3.79667	23
3.80033	23
3.80400	23
3.80767	23
3.81133	23
3.81500	23
3.81867	23
3.82233	24
3.82600	24
3.82967	24
3.83333	23
3.83700	23
3.84067	23
3.84433	23
3.84800	23
3.85167	23
3.85533	23
3.85900	23
3.86267	24
3.86633	24
3.87000	24
3.87367	24
3.87733	24
3.88100	24
3.88467	24
3.88833	24
3.89200	24
3.89567	24
3.89933	24
3.90300	24
3.90667	23
3.91033	23
3.91400	23
3.91767	23
3.92133	23
3.92500	23
3.92867	23
3.93233	23
3.93600	23
3.93967	23
3.94333	23
3.94700	23
3.95067	22
3.95433	22
3.95800	22
3.96167	22
3.96533	22
3.96900	22
3.97267	22
3.97633	22
3.98000	22
3.98367	23
3.98733	23
3.99100	23
3.99467	23
3.99833	23

[Chromatogram (Ch3)]
Interval(msec)	220
# of Points	1091
Start Time(min)	0.002
End Time(min)	3.998
R.Time (min)	Intensity
0.00167	1
0.00533	1
0.00900	2
0.01267	3
0.01633	5
0.02000	6
0.02367	7
0.02733	7
0.03100	5
0.03467	3
0.03833	2
0.04200	3
0.04567	4
0.04933	4
0.05300	3
0.05667	2
0.06033	3
0.06400	4
0.06767	3
0.07133	3
0.07500	4
0.07867	6
0.08233	7
0.08600	6
0.08967	6
0.09333	7
0.09700	8
0.10067	10
0.10433	11
0.10800	12
0.11167	11
0.11533	10
0.11900	10
0.12267	8
0.12633	7
0.13000	7
0.13367	7
0.13733	7
0.14100	7
0.14467	6
0.14833	7
0.15200	9
0.15567	10
0.15933	10
0.16300	10
0.16667	10
0.17033	9
0.17400	9
0.17767	10
0.18133	8
0.18500	5
0.18867	4
0.19233	2
0.19600	2
0.19967	2
0.20333	1
0.20700	-0
0.21067	-1
0.21433	-1
0.21800	1
0.22167	1
0.22533	2
0.22900	3
0.23267	2
0.23633	-1
0.24000	0
0.24367	2
0.24733	1
0.25100	1
0.25467	1
0.25833	1
0.26200	-2
0.26567	-6
0.26933	-7
0.27300	-7
0.27667	-5
0.28033	-3
0.28400	-3
0.28767	-5
0.29133	-3
0.29500	-2
0.29867	-1
0.30233	-3
0.30600	-3
0.30967	-2
0.31333	-3
0.31700	-5
0.32067	-7
0.32433	-9
0.32800	-9
0.33167	-10
0.33533	-10
0.33900	-10
0.34267	-10
0.34633	-11
0.35000	-11
0.35367	-12
0.35733	-13
0.36100	-13
0.36467	-14
0.36833	-14
0.37200	-15
0.37567	-15
0.37933	-14
0.38300	-12
0.38667	-12
0.39033	-14
0.39400	-16
0.39767	-17
0.40133	-17
0.40500	-17
0.40867	-16
0.41233	-15
0.41600	-13
0.41967	-10
0.42333	-9
0.42700	-9
0.43067	-7
0.43433	-8
0.43800	-12
0.44167	-12
0.44533	-10
0.44900	-9
0.45267	-8
0.45633	-7
0.46000	-9
0.46367	-10
0.46733	-11
0.47100	-12
0.47467	-12
0.47833	-11
0.48200	-10
0.48567	-11
0.48933	-11
0.49300	-10
0.49667	-11
0.50033	-11
0.50400	-13
0.50767	-13
0.51133	-14
0.51500	-13
0.51867	-11
0.52233	-10
0.52600	-8
0.52967	-8
0.53333	-9
0.53700	-10
0.54067	-11
0.54433	-13
0.54800	-14
0.55167	-16
0.55533	-17
0.55900	-18
0.56267	-18
0.56633	-18
0.57000	-19
0.57367	-20
0.57733	-19
0.58100	-18
0.58467	-15
0.58833	-14
0.59200	-14
0.59567	-15
0.59933	-16
0.60300	-16
0.60667	-14
0.61033	-12
0.61400	-12
0.61767	-13
0.62133	-14
0.62500	-13
0.62867	-12
0.63233	-12
0.63600	-11
0.63967	-11
0.64333	-11
0.64700	-12
0.65067	-13
0.65433	-14
0.65800	-16
0.66167	-16
0.66533	-16
0.66900	-17
0.67267	-17
0.67633	-18
0.68000	-17
0.68367	-16
0.68733	-14
0.69100	-12
0.69467	-11
0.69833	-10
0.70200	-13
0.70567	-14
0.70933	-15
0.71300	-14
0.71667	-14
0.72033	-13
0.72400	-11
0.72767	-10
0.73133	-10
0.73500	-10
0.73867	-11
0.74233	-13
0.74600	-13
0.74967	-13
0.75333	-10
0.75700	-8
0.76067	-8
0.76433	-8
0.76800	-9
0.77167	-10
0.77533	-10
0.77900	-10
0.78267	-11
0.78633	-12
0.79000	-14
0.79367	-15
0.79733	-14
0.80100	-14
0.80467	-13
0.80833	-12
0.81200	-10
0.81567	-9
0.81933	-8
0.82300	-7
0.82667	-9
0.83033	-10
0.83400	-11
0.83767	-10
0.84133	-7
0.84500	-6
0.84867	-6
0.85233	-5
0.85600	-4
0.85967	-5
0.86333	-7
0.86700	-7
0.87067	-5
0.87433	-4
0.87800	-3
0.88167	-1
0.88533	-1
0.88900	-3
0.89267	-5
0.89633	-6
0.90000	-5
0.90367	-2
0.90733	-1
0.91100	-0
0.91467	-1
0.91833	-3
0.92200	-2
0.92567	-0
0.92933	1
0.93300	1
0.93667	3
0.94033	4
0.94400	4
0.94767	2
0.95133	1
0.95500	1
0.95867	0
0.96233	1
0.96600	5
0.96967	5
0.97333	3
0.97700	1
0.98067	1
0.98433	2
0.98800	3
0.99167	4
0.99533	6
0.99900	6
1.00267	7
1.00633	7
1.01000	9
1.01367	10
1.01733	10
1.02100	11
1.02467	12
1.02833	13
1.03200	12
1.03567	10
1.03933	9
1.04300	9
1.04667	9
1.05033	8
1.05400	8
1.05767	8
1.06133	8
1.06500	9
1.06867	8
1.07233	7
1.07600	7
1.07967	6
1.08333	6
1.08700	6
1.09067	7
1.09433	10
1.09800	11
1.10167	10
1.10533	12
1.10900	15
1.11267	17
1.11633	16
1.12000	13
1.12367	15
1.12733	18
1.13100	19
1.13467	18
1.13833	18
1.14200	17
1.14567	17
1.14933	17
1.15300	15
1.15667	15
1.16033	16
1.16400	16
1.16767	18
1.17133	17
1.17500	15
1.17867	15
1.18233	15
1.18600	15
1.18967	14
1.19333	12
1.19700	13
1.20067	15
1.20433	15
1.20800	14
1.21167	13
1.21533	10
1.21900	9
1.22267	7
1.22633	7
1.23000	7
1.23367	8
1.23733	9
1.24100	10
1.24467	13
1.24833	14
1.25200	14
1.25567	15
1.25933	14
1.26300	12
1.26667	10
1.27033	12
1.27400	13
1.27767	12
1.28133	8
1.28500	6
1.28867	5
1.29233	4
1.29600	4
1.29967	1
1.30333	1
1.30700	3
1.31067	4
1.31433	5
1.31800	4
1.32167	3
1.32533	2
1.32900	3
1.33267	5
1.33633	5
1.34000	5
1.34367	5
1.34733	6
1.35100	7
1.35467	9
1.35833	10
1.36200	10
1.36567	9
1.36933	9
1.37300	9
1.37667	8
1.38033	6
1.38400	4
1.38767	1
1.39133	-1
1.39500	2
1.39867	4
1.40233	4
1.40600	6
1.40967	6
1.41333	4
1.41700	3
1.42067	3
1.42433	3
1.42800	3
1.43167	2
1.43533	4
1.43900	6
1.44267	6
1.44633	7
1.45000	7
1.45367	6
1.45733	8
1.46100	9
1.46467	9
1.46833	10
1.47200	10
1.47567	12
1.47933	12
1.48300	11
1.48667	10
1.49033	11
1.49400	10
1.49767	8
1.50133	7
1.50500	5
1.50867	2
1.51233	2
1.51600	4
1.51967	5
1.52333	5
1.52700	6
1.53067	7
1.53433	8
1.53800	9
1.54167	10
1.54533	10
1.54900	10
1.55267	9
1.55633	10
1.56000	8
1.56367	9
1.56733	9
1.57100	9
1.57467	11
1.57833	13
1.58200	13
1.58567	13
1.58933	11
1.59300	9
1.59667	6
1.60033	7
1.60400	9
1.60767	10
1.61133	9
1.61500	8
1.61867	9
1.62233	9
1.62600	10
1.62967	13
1.63333	14
1.63700	14
1.64067	15
1.64433	15
1.64800	15
1.65167	13
1.65533	12
1.65900	11
1.66267	13
1.66633	16
1.67000	17
1.67367	17
1.67733	18
1.68100	19
1.68467	20
1.68833	22
1.69200	23
1.69567	24
1.69933	25
1.70300	25
1.70667	25
1.71033	25
1.71400	26
1.71767	27
1.72133	27
1.72500	29
1.72867	31
1.73233	32
1.73600	34
1.73967	33
1.74333	31
1.74700	29
1.75067	30
1.75433	31
1.75800	32
1.76167	33
1.76533	33
1.76900	33
1.77267	35
1.77633	37
1.78000	35
1.78367	33
1.78733	32
1.79100	32
1.79467	32
1.79833	32
1.80200	32
1.80567	32
1.80933	32
1.81300	30
1.81667	31
1.82033	32
1.82400	32
1.82767	34
1.83133	36
1.83500	37
1.83867	37
1.84233	38
1.84600	40
1.84967	40
1.85333	41
1.85700	43
1.86067	46
1.86433	47
1.86800	50
1.87167	49
1.87533	49
1.87900	48
1.88267	47
1.88633	48
1.89000	49
1.89367	49
1.89733	50
1.90100	51
1.90467	52
1.90833	52
1.91200	55
1.91567	56
1.91933	57
1.92300	56
1.92667	56
1.93033	57
1.93400	61
1.93767	64
1.94133	64
1.94500	62
1.94867	62
1.95233	63
1.95600	63
1.95967	64
1.96333	64
1.96700	65
1.97067	65
1.97433	65
1.97800	66
1.98167	68
1.98533	69
1.98900	72
1.99267	74
1.99633	75
2.00000	77
2.00367	78
2.00733	81
2.01100	82
2.01467	81
2.01833	81
2.02200	83
2.02567	84
2.02933	87
2.03300	89
2.03667	91
2.04033	93
2.04400	93
2.04767	93
2.05133	93
2.05500	95
2.05867	98
2.06233	100
2.06600	102
2.06967	102
2.07333	103
2.07700	105
2.08067	107
2.08433	107
2.08800	107
2.09167	107
2.09533	109
2.09900	110
2.10267	113
2.10633	113
2.11000	113
2.11367	113
2.11733	113
2.12100	115
2.12467	117
2.12833	119
2.13200	122
2.13567	125
2.13933	128
2.14300	130
2.14667	132
2.15033	135
2.15400	137
2.15767	137
2.16133	137
2.16500	140
2.16867	143
2.17233	143
2.17600	143
2.17967	144
2.18333	147
2.18700	150
2.19067	151
2.19433	151
2.19800	152
2.20167	152
2.20533	152
2.20900	152
2.21267	153
2.21633	154
2.22000	157
2.22367	159
2.22733	160
2.23100	161
2.23467	162
2.23833	164
2.24200	164
2.24567	164
2.24933	164
2.25300	163
2.25667	166
2.26033	170
2.26400	174
2.26767	176
2.27133	177
2.27500	177
2.27867	176
2.28233	177
2.28600	179
2.28967	182
2.29333	182
2.29700	181
2.30067	182
2.30433	182
2.30800	186
2.31167	190
2.31533	191
2.31900	191
2.32267	193
2.32633	195
2.33000	197
2.33367	198
2.33733	198
2.34100	200
2.34467	200
2.34833	200
2.35200	202
2.35567	205
2.35933	208
2.36300	211
2.36667	213
2.37033	214
2.37400	212
2.37767	211
2.38133	213
2.38500	214
2.38867	213
2.39233	212
2.39600	216
2.39967	218
2.40333	218
2.40700	218
2.41067	220
2.41433	222
2.41800	224
2.42167	229
2.42533	232
2.42900	233
2.43267	234
2.43633	234
2.44000	237
2.44367	290
2.44733	427
2.45100	578
2.45467	705
2.45833	779
2.46200	786
2.46567	758
2.46933	725
2.47300	701
2.47667	689
2.48033	674
2.48400	645
2.48767	603
2.49133	557
2.49500	514
2.49867	477
2.50233	452
2.50600	438
2.50967	434
2.51333	441
2.51700	456
2.52067	476
2.52433	493
2.52800	500
2.53167	497
2.53533	484
2.53900	461
2.54267	432
2.54633	401
2.55000	373
2.55367	348
2.55733	329
2.56100	314
2.56467	304
2.56833	298
2.57200	292
2.57567	289
2.57933	285
2.58300	284
2.58667	284
2.59033	286
2.59400	288
2.59767	292
2.60133	296
2.60500	298
2.60867	298
2.61233	297
2.61600	293
2.61967	287
2.62333	280
2.62700	273
2.63067	266
2.63433	257
2.63800	250
2.64167	243
2.64533	235
2.64900	226
2.65267	217
2.65633	208
2.66000	198
2.66367	187
2.66733	179
2.67100	172
2.67467	164
2.67833	157
2.68200	153
2.68567	152
2.68933	152
2.69300	152
2.69667	152
2.70033	152
2.70400	152
2.70767	152
2.71133	155
2.71500	159
2.71867	161
2.72233	164
2.72600	167
2.72967	173
2.73333	177
2.73700	180
2.74067	181
2.74433	184
2.74800	188
2.75167	190
2.75533	192
2.75900	196
2.76267	199
2.76633	201
2.77000	202
2.77367	201
2.77733	202
2.78100	205
2.78467	208
2.78833	211
2.79200	214
2.79567	219
2.79933	223
2.80300	228
2.80667	231
2.81033	235
2.81400	238
2.81767	245
2.82133	257
2.82500	277
2.82867	313
2.83233	378
2.83600	491
2.83967	675
2.84333	949
2.84700	1327
2.85067	1800
2.85433	2349
2.85800	2935
2.86167	3513
2.86533	4035
2.86900	4459
2.87267	4756
2.87633	4914
2.88000	4934
2.88367	4830
2.88733	4628
2.89100	4356
2.89467	4038
2.89833	3697
2.90200	3353
2.90567	3019
2.90933	2706
2.91300	2417
2.91667	2153
2.92033	1916
2.92400	1704
2.92767	1516
2.93133	1346
2.93500	1197
2.93867	1069
2.94233	958
2.94600	862
2.94967	778
2.95333	706
2.95700	641
2.96067	584
2.96433	539
2.96800	500
2.97167	466
2.97533	435
2.97900	406
2.98267	382
2.98633	361
2.99000	344
2.99367	330
2.99733	317
3.00100	303
3.00467	291
3.00833	281
3.01200	273
3.01567	267
3.01933	262
3.02300	258
3.02667	253
3.03033	249
3.03400	248
3.03767	246
3.04133	243
3.04500	241
3.04867	241
3.05233	239
3.05600	236
3.05967	235
3.06333	234
3.06700	235
3.07067	236
3.07433	236
3.07800	235
3.08167	234
3.08533	233
3.08900	233
3.09267	233
3.09633	233
3.10000	233
3.10367	231
3.10733	230
3.11100	230
3.11467	230
3.11833	231
3.12200	226
3.12567	204
3.12933	179
3.13300	170
3.13667	179
3.14033	205
3.14400	237
3.14767	272
3.15133	314
3.15500	361
3.15867	411
3.16233	460
3.16600	506
3.16967	547
3.17333	583
3.17700	614
3.18067	642
3.18433	671
3.18800	695
3.19167	714
3.19533	729
3.19900	744
3.20267	756
3.20633	766
3.21000	775
3.21367	783
3.21733	790
3.22100	797
3.22467	803
3.22833	810
3.23200	817
3.23567	824
3.23933	830
3.24300	836
3.24667	844
3.25033	851
3.25400	860
3.25767	869
3.26133	877
3.26500	886
3.26867	893
3.27233	901
3.27600	907
3.27967	911
3.28333	918
3.28700	923
3.29067	926
3.29433	929
3.29800	933
3.30167	937
3.30533	943
3.30900	948
3.31267	948
3.31633	949
3.32000	952
3.32367	955
3.32733	959
3.33100	960
3.33467	960
3.33833	961
3.34200	963
3.34567	965
3.34933	967
3.35300	967
3.35667	967
3.36033	967
3.36400	968
3.36767	969
3.37133	969
3.37500	966
3.37867	962
3.38233	956
3.38600	952
3.38967	951
3.39333	949
3.39700	946
3.40067	941
3.40433	936
3.40800	932
3.41167	931
3.41533	932
3.41900	930
3.42267	926
3.42633	924
3.43000	924
3.43367	924
3.43733	922
3.44100	917
3.44467	913
3.44833	909
3.45200	907
3.45567	908
3.45933	908
3.46300	906
3.46667	903
3.47033	898
3.47400	895
3.47767	893
3.48133	891
3.48500	891
3.48867	890
3.49233	886
3.49600	884
3.49967	882
3.50333	880
3.50700	880
3.51067	880
3.51433	881
3.51800	881
3.52167	880
3.52533	879
3.52900	879
3.53267	878
3.53633	879
3.54000	879
3.54367	877
3.54733	876
3.55100	876
3.55467	874
3.55833	873
3.56200	872
3.56567	872
3.56933	871
3.57300	872
3.57667	873
3.58033	873
3.58400	870
3.58767	866
3.59133	862
3.59500	862
3.59867	863
3.60233	863
3.60600	863
3.60967	863
3.61333	860
3.61700	856
3.62067	854
3.62433	853
3.62800	850
3.63167	849
3.63533	847
3.63900	847
3.64267	846
3.64633	843
3.65000	840
3.65367	838
3.65733	835
3.66100	833
3.66467	833
3.66833	831
3.67200	829
3.67567	828
3.67933	826
3.68300	826
3.68667	826
3.69033	825
3.69400	822
3.69767	819
3.70133	816
3.70500	813
3.70867	809
3.71233	805
3.71600	801
3.71967	798
3.72333	793
3.72700	793
3.73067	791
3.73433	788
3.73800	785
3.74167	782
3.74533	780
3.74900	778
3.75267	779
3.75633	781
3.76000	782
3.76367	779
3.76733	776
3.77100	775
3.77467	774
3.77833	769
3.78200	765
3.78567	762
3.78933	760
3.79300	761
3.79667	759
3.80033	757
3.80400	756
3.80767	753
3.81133	749
3.81500	746
3.81867	743
3.82233	741
3.82600	737
3.82967	735
3.83333	733
3.83700	732
3.84067	733
3.84433	734
3.84800	730
3.85167	724
3.85533	719
3.85900	716
3.86267	714
3.86633	712
3.87000	710
3.87367	709
3.87733	707
3.88100	707
3.88467	704
3.88833	702
3.89200	699
3.89567	696
3.89933	694
3.90300	692
3.90667	691
3.91033	689
3.91400	686
3.91767	683
3.92133	683
3.92500	683
3.92867	681
3.93233	679
3.93600	677
3.93967	673
3.94333	671
3.94700	670
3.95067	671
3.95433	671
3.95800	668
3.96167	665
3.96533	662
3.96900	661
3.97267	658
3.97633	658
3.98000	657
3.98367	657
3.98733	655
3.99100	651
3.99467	648
3.99833	643

[Status Trace (Column Oven Temperature)]
Interval(msec)	1000
# of Points	240
Start Time(min)	0.015
End Time(min)	3.998
Intensity Units	
Intensity Multiplier	1
R.Time (min)	Intensity
0.01455	35.03
0.03122	35.04
0.04788	35.05
0.06455	35.06
0.08122	35.07
0.09788	35.08
0.11455	35.09
0.13122	35.08
0.14788	35.07
0.16455	35.07
0.18122	35.06
0.19788	35.06
0.21455	35.05
0.23122	35.05
0.24788	35.04
0.26455	35.05
0.28122	35.04
0.29788	35.04
0.31455	35.05
0.33122	35.04
0.34788	35.05
0.36455	35.04
0.38122	35.03
0.39788	35.02
0.41455	35.02
0.43122	35.02
0.44788	35.02
0.46455	35.03
0.48122	35.03
0.49788	35.03
0.51455	35.01
0.53122	35.00
0.54788	34.99
0.56455	34.99
0.58122	34.98
0.59788	34.97
0.61455	34.97
0.63122	34.96
0.64788	34.98
0.66455	35.00
0.68122	35.00
0.69788	35.00
0.71455	35.01
0.73122	35.01
0.74788	35.02
0.76455	35.02
0.78122	35.02
0.79788	35.02
0.81455	35.01
0.83122	35.00
0.84788	35.00
0.86455	35.00
0.88122	34.99
0.89788	35.00
0.91455	35.00
0.93122	34.98
0.94788	34.97
0.96455	34.97
0.98122	34.99
0.99788	35.00
1.01455	35.00
1.03122	35.00
1.04788	35.00
1.06455	35.00
1.08122	35.00
1.09788	35.00
1.11455	35.01
1.13122	35.02
1.14788	35.02
1.16455	35.01
1.18122	35.01
1.19788	35.00
1.21455	35.00
1.23122	34.98
1.24788	34.99
1.26455	34.99
1.28122	34.98
1.29788	34.99
1.31455	34.98
1.33122	34.99
1.34788	34.99
1.36455	35.00
1.38122	35.01
1.39788	35.01
1.41455	35.01
1.43122	35.02
1.44788	35.02
1.46455	35.01
1.48122	34.99
1.49788	34.98
1.51455	34.98
1.53122	34.99
1.54788	35.00
1.56455	35.01
1.58122	35.00
1.59788	35.02
1.61455	35.11
1.63122	35.25
1.64788	35.47
1.66455	35.74
1.68122	36.10
1.69788	36.47
1.71455	36.82
1.73122	37.13
1.74788	37.46
1.76455	37.79
1.78122	38.14
1.79788	38.46
1.81455	38.80
1.83122	39.13
1.84788	39.48
1.86455	39.79
1.88122	40.12
1.89788	40.46
1.91455	40.78
1.93122	41.11
1.94788	41.45
1.96455	41.77
1.98122	42.10
1.99788	42.45
2.01455	42.75
2.03122	43.07
2.04788	43.41
2.06455	43.73
2.08122	44.06
2.09788	44.39
2.11455	44.72
2.13122	45.04
2.14788	45.36
2.16455	45.69
2.18122	46.00
2.19788	46.32
2.21455	46.67
2.23122	47.00
2.24788	47.30
2.26455	47.65
2.28122	47.98
2.29788	48.29
2.31455	48.62
2.33122	48.94
2.34788	49.26
2.36455	49.54
2.38122	49.68
2.39788	49.71
2.41455	49.70
2.43122	49.72
2.44788	49.71
2.46455	49.71
2.48122	49.72
2.49788	49.75
2.51455	49.75
2.53122	49.79
2.54788	49.79
2.56455	49.81
2.58122	49.83
2.59788	49.82
2.61455	49.83
2.63122	49.83
2.64788	49.84
2.66455	49.85
2.68122	49.86
2.69788	49.87
2.71455	49.88
2.73122	49.86
2.74788	49.85
2.76455	49.84
2.78122	49.86
2.79788	49.88
2.81455	49.90
2.83122	49.92
2.84788	49.93
2.86455	49.92
2.88122	49.93
2.89788	49.93
2.91455	49.94
2.93122	49.94
2.94788	49.95
2.96455	49.96
2.98122	49.97
2.99788	49.97
3.01455	49.99
3.03122	49.99
3.04788	50.01
3.06455	50.02
3.08122	50.02
3.09788	50.02
3.11455	50.02
3.13122	50.02
3.14788	50.02
3.16455	50.03
3.18122	50.03
3.19788	50.04
3.21455	50.06
3.23122	50.07
3.24788	50.09
3.26455	50.10
3.28122	50.11
3.29788	50.11
3.31455	50.09
3.33122	50.08
3.34788	50.07
3.36455	50.07
3.38122	50.08
3.39788	50.07
3.41455	50.07
3.43122	50.07
3.44788	50.06
3.46455	50.06
3.48122	50.06
3.49788	50.06
3.51455	50.07
3.53122	50.07
3.54788	50.07
3.56455	50.07
3.58122	50.06
3.59788	50.07
3.61455	50.08
3.63122	50.07
3.64788	50.08
3.66455	50.07
3.68122	50.07
3.69788	50.08
3.71455	50.08
3.73122	50.08
3.74788	50.08
3.76455	50.08
3.78122	50.08
3.79788	50.09
3.81455	50.08
3.83122	50.08
3.84788	50.09
3.86455	50.08
3.88122	50.08
3.89788	50.08
3.91455	50.08
3.93122	50.08
3.94788	50.09
3.96455	50.10
3.98122	50.10
3.99788	50.10

[Status Trace (Injection Unit Temperature)]
Interval(msec)	1000
# of Points	240
Start Time(min)	0.015
End Time(min)	3.998
Intensity Units	
Intensity Multiplier	1
R.Time (min)	Intensity
0.01455	99.98
0.03122	99.98
0.04788	99.98
0.06455	99.98
0.08122	99.98
0.09788	99.98
0.11455	99.98
0.13122	99.98
0.14788	99.98
0.16455	99.98
0.18122	99.98
0.19788	99.98
0.21455	99.98
0.23122	99.98
0.24788	99.98
0.26455	99.98
0.28122	99.98
0.29788	99.98
0.31455	99.98
0.33122	99.98
0.34788	99.98
0.36455	99.99
0.38122	99.98
0.39788	99.98
0.41455	99.98
0.43122	99.98
0.44788	99.98
0.46455	99.98
0.48122	99.98
0.49788	99.99
0.51455	99.98
0.53122	99.98
0.54788	99.99
0.56455	99.98
0.58122	99.99
0.59788	99.99
0.61455	99.98
0.63122	99.98
0.64788	99.98
0.66455	99.98
0.68122	99.99
0.69788	99.99
0.71455	99.98
0.73122	99.98
0.74788	99.99
0.76455	99.98
0.78122	99.98
0.79788	99.99
0.81455	99.99
0.83122	99.99
0.84788	99.99
0.86455	99.98
0.88122	99.99
0.89788	99.99
0.91455	99.99
0.93122	99.99
0.94788	99.98
0.96455	99.98
0.98122	99.98
0.99788	99.98
1.01455	99.98
1.03122	99.99
1.04788	99.98
1.06455	99.98
1.08122	99.99
1.09788	99.98
1.11455	99.98
1.13122	99.98
1.14788	99.98
1.16455	99.98
1.18122	99.98
1.19788	99.98
1.21455	99.98
1.23122	99.97
1.24788	99.97
1.26455	99.97
1.28122	99.98
1.29788	99.98
1.31455	99.98
1.33122	99.98
1.34788	99.98
1.36455	99.98
1.38122	99.98
1.39788	99.98
1.41455	99.98
1.43122	99.98
1.44788	99.98
1.46455	99.98
1.48122	99.98
1.49788	99.98
1.51455	99.98
1.53122	99.98
1.54788	99.98
1.56455	99.98
1.58122	99.98
1.59788	99.98
1.61455	99.98
1.63122	99.99
1.64788	99.98
1.66455	99.99
1.68122	99.99
1.69788	99.98
1.71455	99.99
1.73122	99.99
1.74788	99.99
1.76455	99.99
1.78122	99.99
1.79788	99.98
1.81455	99.99
1.83122	99.98
1.84788	99.99
1.86455	99.99
1.88122	99.99
1.89788	99.99
1.91455	99.98
1.93122	99.98
1.94788	99.99
1.96455	99.98
1.98122	99.98
1.99788	99.98
2.01455	99.97
2.03122	99.97
2.04788	99.98
2.06455	99.98
2.08122	99.98
2.09788	99.97
2.11455	99.97
2.13122	99.97
2.14788	99.97
2.16455	99.97
2.18122	99.97
2.19788	99.97
2.21455	99.97
2.23122	99.97
2.24788	99.97
2.26455	99.97
2.28122	99.97
2.29788	99.97
2.31455	99.97
2.33122	99.97
2.34788	99.97
2.36455	99.97
2.38122	99.97
2.39788	99.97
2.41455	99.96
2.43122	99.97
2.44788	99.97
2.46455	99.96
2.48122	99.96
2.49788	99.96
2.51455	99.97
2.53122	99.96
2.54788	99.96
2.56455	99.97
2.58122	99.97
2.59788	99.97
2.61455	99.97
2.63122	99.97
2.64788	99.98
2.66455	99.98
2.68122	99.98
2.69788	99.98
2.71455	99.98
2.73122	99.98
2.74788	99.98
2.76455	99.99
2.78122	99.99
2.79788	99.99
2.81455	99.99
2.83122	99.99
2.84788	99.99
2.86455	100.00
2.88122	100.00
2.89788	100.00
2.91455	100.00
2.93122	100.00
2.94788	100.01
2.96455	100.01
2.98122	100.01
2.99788	100.01
3.01455	100.02
3.03122	100.02
3.04788	100.02
3.06455	100.02
3.08122	100.02
3.09788	100.02
3.11455	100.02
3.13122	100.03
3.14788	100.03
3.16455	100.03
3.18122	100.03
3.19788	100.03
3.21455	100.03
3.23122	100.03
3.24788	100.03
3.26455	100.03
3.28122	100.04
3.29788	100.03
3.31455	100.03
3.33122	100.04
3.34788	100.04
3.36455	100.04
3.38122	100.04
3.39788	100.04
3.41455	100.04
3.43122	100.04
3.44788	100.04
3.46455	100.04
3.48122	100.04
3.49788	100.04
3.51455	100.04
3.53122	100.04
3.54788	100.04
3.56455	100.04
3.58122	100.04
3.59788	100.04
3.61455	100.04
3.63122	100.04
3.64788	100.04
3.66455	100.04
3.68122	100.04
3.69788	100.04
3.71455	100.04
3.73122	100.04
3.74788	100.04
3.76455	100.04
3.78122	100.04
3.79788	100.04
3.81455	100.04
3.83122	100.04
3.84788	100.04
3.86455	100.04
3.88122	100.04
3.89788	100.04
3.91455	100.04
3.93122	100.04
3.94788	100.04
3.96455	100.04
3.98122	100.04
3.99788	100.04

[Status Trace (Carrier Gas Pressure)]
Interval(msec)	1000
# of Points	240
Start Time(min)	0.015
End Time(min)	3.998
Intensity Units	
Intensity Multiplier	1
R.Time (min)	Intensity
0.01455	57.26
0.03122	55.50
0.04788	58.01
0.06455	59.87
0.08122	58.65
0.09788	57.98
0.11455	58.00
0.13122	58.01
0.14788	58.01
0.16455	58.00
0.18122	58.00
0.19788	58.00
0.21455	58.00
0.23122	58.00
0.24788	58.00
0.26455	58.00
0.28122	58.00
0.29788	58.00
0.31455	58.00
0.33122	58.00
0.34788	58.00
0.36455	58.00
0.38122	58.00
0.39788	58.00
0.41455	58.00
0.43122	58.00
0.44788	58.00
0.46455	58.00
0.48122	58.00
0.49788	58.00
0.51455	58.00
0.53122	58.00
0.54788	58.00
0.56455	58.00
0.58122	58.00
0.59788	58.00
0.61455	58.00
0.63122	58.00
0.64788	58.00
0.66455	58.00
0.68122	58.00
0.69788	58.00
0.71455	58.00
0.73122	58.00
0.74788	58.00
0.76455	58.00
0.78122	58.00
0.79788	58.00
0.81455	58.00
0.83122	58.00
0.84788	58.00
0.86455	58.00
0.88122	58.00
0.89788	58.00
0.91455	58.00
0.93122	58.00
0.94788	58.00
0.96455	58.00
0.98122	58.00
0.99788	58.00
1.01455	58.00
1.03122	58.00
1.04788	58.00
1.06455	58.00
1.08122	58.00
1.09788	58.00
1.11455	58.00
1.13122	58.00
1.14788	58.00
1.16455	58.00
1.18122	58.00
1.19788	58.00
1.21455	58.00
1.23122	58.00
1.24788	58.00
1.26455	58.00
1.28122	58.00
1.29788	58.00
1.31455	58.00
1.33122	58.00
1.34788	58.00
1.36455	58.00
1.38122	58.00
1.39788	58.00
1.41455	58.00
1.43122	58.00
1.44788	58.00
1.46455	58.00
1.48122	58.00
1.49788	58.00
1.51455	58.00
1.53122	58.00
1.54788	58.00
1.56455	58.00
1.58122	58.00
1.59788	58.00
1.61455	58.00
1.63122	58.00
1.64788	58.00
1.66455	58.00
1.68122	58.01
1.69788	58.00
1.71455	58.00
1.73122	58.00
1.74788	58.00
1.76455	58.00
1.78122	58.00
1.79788	58.00
1.81455	58.00
1.83122	58.00
1.84788	58.00
1.86455	58.00
1.88122	58.00
1.89788	58.00
1.91455	58.00
1.93122	58.00
1.94788	58.00
1.96455	58.00
1.98122	58.00
1.99788	58.00
2.01455	58.00
2.03122	58.00
2.04788	58.00
2.06455	58.00
2.08122	58.00
2.09788	58.00
2.11455	58.00
2.13122	58.00
2.14788	58.00
2.16455	58.00
2.18122	58.00
2.19788	58.00
2.21455	58.00
2.23122	58.00
2.24788	58.00
2.26455	58.00
2.28122	58.00
2.29788	58.00
2.31455	58.00
2.33122	58.00
2.34788	58.00
2.36455	58.00
2.38122	57.99
2.39788	57.99
2.41455	57.99
2.43122	58.00
2.44788	58.00
2.46455	58.00
2.48122	58.00
2.49788	58.00
2.51455	57.99
2.53122	57.99
2.54788	58.00
2.56455	58.00
2.58122	58.00
2.59788	58.00
2.61455	58.00
2.63122	58.00
2.64788	58.00
2.66455	58.00
2.68122	58.00
2.69788	58.00
2.71455	58.00
2.73122	58.00
2.74788	58.00
2.76455	58.00
2.78122	58.00
2.79788	58.00
2.81455	58.00
2.83122	58.00
2.84788	58.00
2.86455	58.00
2.88122	58.00
2.89788	58.00
2.91455	58.00
2.93122	58.00
2.94788	58.00
2.96455	58.00
2.98122	58.00
2.99788	58.00
3.01455	58.00
3.03122	58.00
3.04788	58.00
3.06455	58.00
3.08122	58.00
3.09788	58.00
3.11455	58.00
3.13122	58.00
3.14788	58.00
3.16455	58.00
3.18122	58.00
3.19788	58.00
3.21455	58.00
3.23122	58.00
3.24788	58.00
3.26455	58.00
3.28122	58.00
3.29788	58.00
3.31455	58.00
3.33122	58.00
3.34788	58.00
3.36455	58.00
3.38122	58.00
3.39788	58.00
3.41455	58.00
3.43122	58.00
3.44788	58.00
3.46455	58.00
3.48122	58.00
3.49788	58.00
3.51455	58.00
3.53122	58.00
3.54788	58.00
3.56455	58.00
3.58122	58.00
3.59788	58.00
3.61455	58.00
3.63122	58.00
3.64788	58.00
3.66455	58.00
3.68122	58.00
3.69788	58.00
3.71455	58.00
3.73122	58.00
3.74788	58.00
3.76455	58.00
3.78122	58.00
3.79788	58.00
3.81455	58.00
3.83122	58.00
3.84788	58.00
3.86455	58.00
3.88122	58.00
3.89788	58.00
3.91455	58.00
3.93122	58.00
3.94788	58.00
3.96455	58.00
3.98122	58.00
3.99788	58.00

[Status Trace (Carrier Gas Flow)]
Interval(msec)	1000
# of Points	240
Start Time(min)	0.015
End Time(min)	3.998
Intensity Units	
Intensity Multiplier	1
R.Time (min)	Intensity
0.01455	33.88
0.03122	34.54
0.04788	34.54
0.06455	34.51
0.08122	34.51
0.09788	34.53
0.11455	34.52
0.13122	34.52
0.14788	34.51
0.16455	34.52
0.18122	34.52
0.19788	34.52
0.21455	34.52
0.23122	34.52
0.24788	34.52
0.26455	34.52
0.28122	34.52
0.29788	34.52
0.31455	34.51
0.33122	34.52
0.34788	34.52
0.36455	34.52
0.38122	34.52
0.39788	34.52
0.41455	34.52
0.43122	34.52
0.44788	34.52
0.46455	34.52
0.48122	34.51
0.49788	34.52
0.51455	34.52
0.53122	34.52
0.54788	34.52
0.56455	34.52
0.58122	34.52
0.59788	34.52
0.61455	34.52
0.63122	34.51
0.64788	34.52
0.66455	34.52
0.68122	34.52
0.69788	34.51
0.71455	34.51
0.73122	34.52
0.74788	34.52
0.76455	34.52
0.78122	34.52
0.79788	34.52
0.81455	34.52
0.83122	34.52
0.84788	34.51
0.86455	34.52
0.88122	34.52
0.89788	34.52
0.91455	34.52
0.93122	34.52
0.94788	34.52
0.96455	34.52
0.98122	34.52
0.99788	34.53
1.01455	34.51
1.03122	34.53
1.04788	34.53
1.06455	34.53
1.08122	34.52
1.09788	34.51
1.11455	34.52
1.13122	34.52
1.14788	34.52
1.16455	34.51
1.18122	34.52
1.19788	34.52
1.21455	34.52
1.23122	34.52
1.24788	34.52
1.26455	34.52
1.28122	34.52
1.29788	34.52
1.31455	34.52
1.33122	34.52
1.34788	34.52
1.36455	34.52
1.38122	34.53
1.39788	34.52
1.41455	34.52
1.43122	34.52
1.44788	34.52
1.46455	34.52
1.48122	34.51
1.49788	34.52
1.51455	34.52
1.53122	34.52
1.54788	34.51
1.56455	34.52
1.58122	34.53
1.59788	34.52
1.61455	34.52
1.63122	34.52
1.64788	34.52
1.66455	34.52
1.68122	34.52
1.69788	34.52
1.71455	34.52
1.73122	34.52
1.74788	34.51
1.76455	34.52
1.78122	34.52
1.79788	34.52
1.81455	34.52
1.83122	34.52
1.84788	34.52
1.86455	34.52
1.88122	34.52
1.89788	34.52
1.91455	34.52
1.93122	34.52
1.94788	34.52
1.96455	34.52
1.98122	34.52
1.99788	34.52
2.01455	34.52
2.03122	34.52
2.04788	34.53
2.06455	34.51
2.08122	34.52
2.09788	34.51
2.11455	34.52
2.13122	34.52
2.14788	34.52
2.16455	34.52
2.18122	34.52
2.19788	34.52
2.21455	34.52
2.23122	34.53
2.24788	34.52
2.26455	34.53
2.28122	34.51
2.29788	34.51
2.31455	34.51
2.33122	34.52
2.34788	34.52
2.36455	34.52
2.38122	34.52
2.39788	34.52
2.41455	34.51
2.43122	34.51
2.44788	34.52
2.46455	34.53
2.48122	34.53
2.49788	34.51
2.51455	34.52
2.53122	34.51
2.54788	34.52
2.56455	34.51
2.58122	34.52
2.59788	34.52
2.61455	34.52
2.63122	34.52
2.64788	34.52
2.66455	34.52
2.68122	34.52
2.69788	34.52
2.71455	34.52
2.73122	34.52
2.74788	34.52
2.76455	34.52
2.78122	34.52
2.79788	34.52
2.81455	34.52
2.83122	34.52
2.84788	34.52
2.86455	34.52
2.88122	34.52
2.89788	34.52
2.91455	34.51
2.93122	34.52
2.94788	34.52
2.96455	34.51
2.98122	34.52
2.99788	34.52
3.01455	34.52
3.03122	34.52
3.04788	34.52
3.06455	34.52
3.08122	34.52
3.09788	34.52
3.11455	34.52
3.13122	34.52
3.14788	34.52
3.16455	34.51
3.18122	34.52
3.19788	34.52
3.21455	34.52
3.23122	34.52
3.24788	34.52
3.26455	34.52
3.28122	34.52
3.29788	34.52
3.31455	34.52
3.33122	34.52
3.34788	34.51
3.36455	34.52
3.38122	34.52
3.39788	34.52
3.41455	34.52
3.43122	34.52
3.44788	34.52
3.46455	34.52
3.48122	34.52
3.49788	34.52
3.51455	34.52
3.53122	34.52
3.54788	34.52
3.56455	34.51
3.58122	34.52
3.59788	34.52
3.61455	34.52
3.63122	34.53
3.64788	34.52
3.66455	34.52
3.68122	34.52
3.69788	34.52
3.71455	34.52
3.73122	34.52
3.74788	34.51
3.76455	34.51
3.78122	34.52
3.79788	34.52
3.81455	34.52
3.83122	34.51
3.84788	34.52
3.86455	34.52
3.88122	34.52
3.89788	34.52
3.91455	34.52
3.93122	34.52
3.94788	34.52
3.96455	34.52
3.98122	34.52
3.99788	34.51

[Status Trace (Column Flow)]
Interval(msec)	1000
# of Points	240
Start Time(min)	0.015
End Time(min)	3.998
Intensity Units	
Intensity Multiplier	1
R.Time (min)	Intensity
0.01455	5.44
0.03122	5.24
0.04788	5.53
0.06455	5.75
0.08122	5.61
0.09788	5.53
0.11455	5.53
0.13122	5.53
0.14788	5.53
0.16455	5.53
0.18122	5.53
0.19788	5.53
0.21455	5.53
0.23122	5.53
0.24788	5.53
0.26455	5.53
0.28122	5.53
0.29788	5.53
0.31455	5.53
0.33122	5.53
0.34788	5.53
0.36455	5.53
0.38122	5.53
0.39788	5.53
0.41455	5.53
0.43122	5.53
0.44788	5.53
0.46455	5.53
0.48122	5.53
0.49788	5.53
0.51455	5.53
0.53122	5.53
0.54788	5.53
0.56455	5.53
0.58122	5.53
0.59788	5.53
0.61455	5.53
0.63122	5.53
0.64788	5.53
0.66455	5.53
0.68122	5.53
0.69788	5.53
0.71455	5.53
0.73122	5.53
0.74788	5.53
0.76455	5.53
0.78122	5.53
0.79788	5.53
0.81455	5.53
0.83122	5.53
0.84788	5.53
0.86455	5.53
0.88122	5.53
0.89788	5.53
0.91455	5.53
0.93122	5.53
0.94788	5.53
0.96455	5.53
0.98122	5.53
0.99788	5.53
1.01455	5.53
1.03122	5.53
1.04788	5.53
1.06455	5.53
1.08122	5.53
1.09788	5.53
1.11455	5.53
1.13122	5.53
1.14788	5.53
1.16455	5.53
1.18122	5.53
1.19788	5.53
1.21455	5.53
1.23122	5.53
1.24788	5.53
1.26455	5.53
1.28122	5.53
1.29788	5.53
1.31455	5.53
1.33122	5.53
1.34788	5.53
1.36455	5.53
1.38122	5.53
1.39788	5.53
1.41455	5.53
1.43122	5.53
1.44788	5.53
1.46455	5.53
1.48122	5.53
1.49788	5.53
1.51455	5.53
1.53122	5.53
1.54788	5.53
1.56455	5.53
1.58122	5.53
1.59788	5.53
1.61455	5.53
1.63122	5.52
1.64788	5.52
1.66455	5.51
1.68122	5.50
1.69788	5.49
1.71455	5.47
1.73122	5.46
1.74788	5.46
1.76455	5.44
1.78122	5.43
1.79788	5.42
1.81455	5.41
1.83122	5.40
1.84788	5.39
1.86455	5.38
1.88122	5.37
1.89788	5.36
1.91455	5.35
1.93122	5.34
1.94788	5.33
1.96455	5.32
1.98122	5.31
1.99788	5.30
2.01455	5.29
2.03122	5.29
2.04788	5.28
2.06455	5.27
2.08122	5.26
2.09788	5.25
2.11455	5.24
2.13122	5.23
2.14788	5.22
2.16455	5.21
2.18122	5.20
2.19788	5.19
2.21455	5.18
2.23122	5.17
2.24788	5.16
2.26455	5.15
2.28122	5.14
2.29788	5.14
2.31455	5.13
2.33122	5.12
2.34788	5.11
2.36455	5.10
2.38122	5.10
2.39788	5.10
2.41455	5.10
2.43122	5.10
2.44788	5.10
2.46455	5.10
2.48122	5.10
2.49788	5.09
2.51455	5.09
2.53122	5.09
2.54788	5.09
2.56455	5.09
2.58122	5.09
2.59788	5.09
2.61455	5.09
2.63122	5.09
2.64788	5.09
2.66455	5.09
2.68122	5.09
2.69788	5.09
2.71455	5.09
2.73122	5.09
2.74788	5.09
2.76455	5.09
2.78122	5.09
2.79788	5.09
2.81455	5.09
2.83122	5.09
2.84788	5.09
2.86455	5.09
2.88122	5.09
2.89788	5.09
2.91455	5.09
2.93122	5.09
2.94788	5.09
2.96455	5.09
2.98122	5.09
2.99788	5.09
3.01455	5.09
3.03122	5.09
3.04788	5.09
3.06455	5.09
3.08122	5.09
3.09788	5.09
3.11455	5.09
3.13122	5.09
3.14788	5.09
3.16455	5.09
3.18122	5.09
3.19788	5.09
3.21455	5.09
3.23122	5.09
3.24788	5.09
3.26455	5.09
3.28122	5.08
3.29788	5.08
3.31455	5.09
3.33122	5.09
3.34788	5.09
3.36455	5.09
3.38122	5.09
3.39788	5.09
3.41455	5.09
3.43122	5.09
3.44788	5.09
3.46455	5.09
3.48122	5.09
3.49788	5.09
3.51455	5.09
3.53122	5.09
3.54788	5.09
3.56455	5.09
3.58122	5.09
3.59788	5.09
3.61455	5.09
3.63122	5.09
3.64788	5.09
3.66455	5.09
3.68122	5.09
3.69788	5.09
3.71455	5.09
3.73122	5.09
3.74788	5.09
3.76455	5.09
3.78122	5.09
3.79788	5.09
3.81455	5.09
3.83122	5.09
3.84788	5.09
3.86455	5.09
3.88122	5.09
3.89788	5.09
3.91455	5.09
3.93122	5.09
3.94788	5.09
3.96455	5.08
3.98122	5.08
3.99788	5.08

[Status Trace (Linear Velocity)]
Interval(msec)	1000
# of Points	240
Start Time(min)	0.015
End Time(min)	3.998
Intensity Units	
Intensity Multiplier	1
R.Time (min)	Intensity
0.01455	38.53
0.03122	37.37
0.04788	39.02
0.06455	40.24
0.08122	39.44
0.09788	39.00
0.11455	39.01
0.13122	39.02
0.14788	39.02
0.16455	39.02
0.18122	39.01
0.19788	39.02
0.21455	39.02
0.23122	39.02
0.24788	39.02
0.26455	39.02
0.28122	39.02
0.29788	39.02
0.31455	39.02
0.33122	39.02
0.34788	39.01
0.36455	39.01
0.38122	39.02
0.39788	39.02
0.41455	39.02
0.43122	39.02
0.44788	39.02
0.46455	39.02
0.48122	39.02
0.49788	39.02
0.51455	39.02
0.53122	39.02
0.54788	39.02
0.56455	39.02
0.58122	39.02
0.59788	39.02
0.61455	39.02
0.63122	39.02
0.64788	39.02
0.66455	39.02
0.68122	39.02
0.69788	39.02
0.71455	39.02
0.73122	39.02
0.74788	39.02
0.76455	39.02
0.78122	39.02
0.79788	39.02
0.81455	39.02
0.83122	39.02
0.84788	39.02
0.86455	39.02
0.88122	39.02
0.89788	39.02
0.91455	39.02
0.93122	39.02
0.94788	39.02
0.96455	39.02
0.98122	39.02
0.99788	39.02
1.01455	39.02
1.03122	39.02
1.04788	39.02
1.06455	39.02
1.08122	39.02
1.09788	39.02
1.11455	39.02
1.13122	39.02
1.14788	39.02
1.16455	39.02
1.18122	39.02
1.19788	39.02
1.21455	39.02
1.23122	39.02
1.24788	39.02
1.26455	39.02
1.28122	39.02
1.29788	39.02
1.31455	39.02
1.33122	39.02
1.34788	39.02
1.36455	39.02
1.38122	39.02
1.39788	39.02
1.41455	39.02
1.43122	39.02
1.44788	39.02
1.46455	39.02
1.48122	39.02
1.49788	39.02
1.51455	39.02
1.53122	39.02
1.54788	39.02
1.56455	39.02
1.58122	39.02
1.59788	39.02
1.61455	39.01
1.63122	39.00
1.64788	38.98
1.66455	38.95
1.68122	38.92
1.69788	38.88
1.71455	38.84
1.73122	38.81
1.74788	38.78
1.76455	38.75
1.78122	38.72
1.79788	38.69
1.81455	38.66
1.83122	38.63
1.84788	38.59
1.86455	38.56
1.88122	38.53
1.89788	38.50
1.91455	38.47
1.93122	38.44
1.94788	38.41
1.96455	38.38
1.98122	38.35
1.99788	38.32
2.01455	38.29
2.03122	38.26
2.04788	38.23
2.06455	38.20
2.08122	38.17
2.09788	38.14
2.11455	38.11
2.13122	38.08
2.14788	38.05
2.16455	38.02
2.18122	37.99
2.19788	37.96
2.21455	37.93
2.23122	37.90
2.24788	37.87
2.26455	37.84
2.28122	37.81
2.29788	37.79
2.31455	37.76
2.33122	37.73
2.34788	37.70
2.36455	37.67
2.38122	37.66
2.39788	37.66
2.41455	37.66
2.43122	37.66
2.44788	37.66
2.46455	37.66
2.48122	37.66
2.49788	37.66
2.51455	37.65
2.53122	37.65
2.54788	37.65
2.56455	37.65
2.58122	37.65
2.59788	37.65
2.61455	37.65
2.63122	37.65
2.64788	37.65
2.66455	37.65
2.68122	37.65
2.69788	37.65
2.71455	37.65
2.73122	37.65
2.74788	37.65
2.76455	37.65
2.78122	37.65
2.79788	37.65
2.81455	37.64
2.83122	37.64
2.84788	37.64
2.86455	37.64
2.88122	37.64
2.89788	37.64
2.91455	37.64
2.93122	37.64
2.94788	37.64
2.96455	37.64
2.98122	37.64
2.99788	37.64
3.01455	37.64
3.03122	37.64
3.04788	37.63
3.06455	37.63
3.08122	37.63
3.09788	37.63
3.11455	37.63
3.13122	37.63
3.14788	37.63
3.16455	37.63
3.18122	37.63
3.19788	37.63
3.21455	37.63
3.23122	37.63
3.24788	37.63
3.26455	37.63
3.28122	37.63
3.29788	37.63
3.31455	37.63
3.33122	37.63
3.34788	37.63
3.36455	37.63
3.38122	37.63
3.39788	37.63
3.41455	37.63
3.43122	37.63
3.44788	37.63
3.46455	37.63
3.48122	37.63
3.49788	37.63
3.51455	37.63
3.53122	37.63
3.54788	37.63
3.56455	37.63
3.58122	37.63
3.59788	37.63
3.61455	37.63
3.63122	37.63
3.64788	37.63
3.66455	37.63
3.68122	37.63
3.69788	37.63
3.71455	37.63
3.73122	37.63
3.74788	37.63
3.76455	37.63
3.78122	37.63
3.79788	37.63
3.81455	37.63
3.83122	37.63
3.84788	37.63
3.86455	37.63
3.88122	37.63
3.89788	37.63
3.91455	37.63
3.93122	37.63
3.94788	37.63
3.96455	37.63
3.98122	37.63
3.99788	37.63

