[Header]
Application Name	LabSolutions
Version	5.110
Data File Name	C:\Users\User\Desktop\GC Analyses\Jack\Nachusa Grasslands Sampling\T3 Timepoint July 12th\T3_07122022_083.gcd
Output Date	3/14/2023
Output Time	3:43:36 PM

[File Information]
Type	Data File
Generated	3/13/2023 11:47:00 PM
Generated by	System Administrator
Modified	3/13/2023 11:53:49 PM
Modified by	System Administrator

[Sample Information]
Operator Name	System Administrator
Acquired	3/13/2023 11:49:49 PM
Sample Type	0:Unknown
Level	0
Sample Name	083
Sample ID	083
ISTD Amount1	1
ISTD Amount2	1
ISTD Amount3	1
ISTD Amount4	1
ISTD Amount5	1
ISTD Amount6	1
ISTD Amount7	1
ISTD Amount8	1
ISTD Amount9	1
ISTD Amount10	1
ISTD Amount11	1
ISTD Amount12	1
ISTD Amount13	1
ISTD Amount14	1
ISTD Amount15	1
ISTD Amount16	1
ISTD Amount17	1
ISTD Amount18	1
ISTD Amount19	1
ISTD Amount20	1
ISTD Amount21	1
ISTD Amount22	1
ISTD Amount23	1
ISTD Amount24	1
ISTD Amount25	1
ISTD Amount26	1
ISTD Amount27	1
ISTD Amount28	1
ISTD Amount29	1
ISTD Amount30	1
ISTD Amount31	1
ISTD Amount32	1
Sample Amount	1
Dilution Factor	1
Vial#	82
Injection Volume	1
Injection Count	1
Bar Code	

[Original Files]
Data File	C:\Users\User\Desktop\GC Analyses\Jack\Nachusa Grasslands Sampling\T3 Timepoint July 12th\T3_07122022_083.gcd
Method File	C:\LabSolutions\Data\GHG_4min_2022\ghg3_togas_w_acet_4 min_new_int.gcm
Batch File	C:\LabSolutions\Data\AutoSamplerTesting\T3_07122022.gcb
Report Format File	c:\LabSolutions\System\DEFAULT.lsr

[File Description]


[Configuration]
Instrument Name	C0B7VH3-Instrument1
Instrument #	1
Line #	1
# of Detectors	3
Detector ID	DET#1	DET#2	DET#3
Detector Name	FID	PTCD	ECD
# of Channels	1	1	1

[Peak Table(Ch1)]
# of Peaks	3
Peak#	R.Time	I.Time	F.Time	Area	Height	A/H	Conc.	Mark	ID#	Name	k'	Plate #	Plate Ht.	Tailing	Resolution	Sep.Factor	Area Ratio	Height Ratio	Conc. %	Norm Conc.
1	1.454	1.439	1.472	461	440	1.048	3.253	   	1	CO	0.000	35835	4.186	1.166	0.000	0.000	0	0	0.345	0.345
2	1.571	1.534	1.644	20924	10519	1.989	404.582	   	2	CH4	0.081	11486	13.059	1.137	2.626	0.000	0	0	42.962	42.962
3	1.996	1.949	2.315	2127295	1019692	2.086	533.893	   	3	CO2	0.373	17431	8.606	1.333	7.141	4.625	0	0	56.693	56.693

[Peak Table(Ch2)]
# of Peaks	0

[Peak Table(Ch3)]
# of Peaks	7
Peak#	R.Time	I.Time	F.Time	Area	Height	A/H	Conc.	Mark	ID#	Name	k'	Plate #	Plate Ht.	Tailing	Resolution	Sep.Factor	Area Ratio	Height Ratio	Conc. %	Norm Conc.
1	1.054	0.720	1.289	363	24	15.224	0.000	   			0.000	418	359.277	0.856	0.000	0.000	0	0	0.000	0.000
2	2.458	2.315	2.510	2158	704	3.066	0.000	   			1.332	13069	11.478	0.000	9.607	0.000	0	0	0.000	0.000
3	2.528	2.510	2.579	784	296	2.650	0.000	 V 			1.398	9475	15.831	0.000	0.734	1.050	0	0	0.000	0.000
4	2.609	2.579	2.678	439	107	4.091	0.000	 V 			1.475	3623	41.406	0.000	0.582	1.055	0	0	0.000	0.000
5	2.880	2.708	2.990	57327	15030	3.814	1.464	   	1	N2O	1.732	12727	11.786	1.489	1.970	1.175	0	0	100.000	100.000
6	3.060	2.990	3.133	4545	564	8.053	0.000	 V 			1.903	128	1170.275	0.000	0.304	1.098	0	0	0.000	0.000
7	3.261	3.133	3.995	17719	632	28.027	0.000	 V 	2	SF6	2.094	55	2707.672	0.000	0.142	1.101	0	0	0.000	0.000

[Compound Results(Ch1)]
# of IDs	6
ID#	Name	R.Time	Area	Height	Conc.	Curve	3rd	2nd	1st	Constant	Area Ratio	Height Ratio	Conc. %	Norm Conc.
1	CO	1.454	461	440	3.253	Linear	0.000000e+00	0.000000e+00	1.416423e+002	0.000000e+00	0	0	0.345	0.345
2	CH4	1.571	20924	10519	404.582	Linear	0.000000e+00	0.000000e+00	5.171738e+001	0.000000e+00	0	0	42.962	42.962
3	CO2	1.996	2127295	1019692	533.893	Linear	0.000000e+00	0.000000e+00	3.984494e+003	0.000000e+00	0	0	56.693	56.693
4	Ethylene	0.000	0	0	0.000	Linear	0.000000e+00	0.000000e+00	0.000000e+00	0.000000e+00	0	0	0.000	0.000
5	Acetylene	0.000	0	0	0.000	Linear	0.000000e+00	0.000000e+00	0.000000e+00	0.000000e+00	0	0	0.000	0.000
6	Ethane	0.000	0	0	0.000	Linear	0.000000e+00	0.000000e+00	0.000000e+00	0.000000e+00	0	0	0.000	0.000

[Compound Results(Ch2)]
# of IDs	5
ID#	Name	R.Time	Area	Height	Conc.	Curve	3rd	2nd	1st	Constant	Area Ratio	Height Ratio	Conc. %	Norm Conc.
1	Hydrogen	0.000	0	0	0.000	Linear	0.000000e+00	0.000000e+00	0.000000e+00	0.000000e+00	0	0	0.000	0.000
2	Oxygen	0.000	0	0	0.000	Linear	0.000000e+00	0.000000e+00	0.000000e+00	0.000000e+00	0	0	0.000	0.000
3	Nitrogen	0.000	0	0	0.000	Linear	0.000000e+00	0.000000e+00	0.000000e+00	0.000000e+00	0	0	0.000	0.000
4	Methane	0.000	0	0	0.000	Linear	0.000000e+00	0.000000e+00	0.000000e+00	0.000000e+00	0	0	0.000	0.000
5	Carbon Monoxide	0.000	0	0	0.000	Linear	0.000000e+00	0.000000e+00	0.000000e+00	0.000000e+00	0	0	0.000	0.000

[Compound Results(Ch3)]
# of IDs	2
ID#	Name	R.Time	Area	Height	Conc.	Curve	3rd	2nd	1st	Constant	Area Ratio	Height Ratio	Conc. %	Norm Conc.
1	N2O	2.880	57327	15030	1.464	Linear	0.000000e+00	0.000000e+00	3.915173e+004	0.000000e+00	0	0	100.000	100.000
2	SF6	3.261	17719	632	0.000	Linear	0.000000e+00	0.000000e+00	0.000000e+00	0.000000e+00	0	0	0.000	0.000

[Group Results(Ch1)]
# of Groups	0

[Group Results(Ch2)]
# of Groups	0

[Group Results(Ch3)]
# of Groups	0

[Chromatogram (Ch1)]
Interval(msec)	220
# of Points	1091
Start Time(min)	0.002
End Time(min)	3.998
R.Time (min)	Intensity
0.00167	18
0.00533	23
0.00900	24
0.01267	22
0.01633	18
0.02000	14
0.02367	12
0.02733	10
0.03100	11
0.03467	12
0.03833	14
0.04200	20
0.04567	30
0.04933	44
0.05300	53
0.05667	57
0.06033	60
0.06400	57
0.06767	50
0.07133	44
0.07500	39
0.07867	39
0.08233	45
0.08600	51
0.08967	54
0.09333	58
0.09700	60
0.10067	62
0.10433	65
0.10800	66
0.11167	67
0.11533	73
0.11900	78
0.12267	80
0.12633	84
0.13000	93
0.13367	107
0.13733	119
0.14100	124
0.14467	128
0.14833	133
0.15200	137
0.15567	136
0.15933	132
0.16300	125
0.16667	119
0.17033	114
0.17400	111
0.17767	109
0.18133	106
0.18500	104
0.18867	101
0.19233	96
0.19600	92
0.19967	84
0.20333	71
0.20700	59
0.21067	51
0.21433	53
0.21800	57
0.22167	58
0.22533	59
0.22900	61
0.23267	59
0.23633	61
0.24000	67
0.24367	72
0.24733	73
0.25100	64
0.25467	48
0.25833	31
0.26200	21
0.26567	15
0.26933	14
0.27300	10
0.27667	3
0.28033	-1
0.28400	-0
0.28767	3
0.29133	6
0.29500	9
0.29867	14
0.30233	14
0.30600	14
0.30967	13
0.31333	14
0.31700	16
0.32067	18
0.32433	21
0.32800	25
0.33167	25
0.33533	25
0.33900	25
0.34267	25
0.34633	27
0.35000	34
0.35367	38
0.35733	35
0.36100	29
0.36467	23
0.36833	20
0.37200	18
0.37567	17
0.37933	17
0.38300	18
0.38667	19
0.39033	22
0.39400	26
0.39767	26
0.40133	25
0.40500	27
0.40867	26
0.41233	25
0.41600	24
0.41967	20
0.42333	13
0.42700	4
0.43067	-1
0.43433	-0
0.43800	2
0.44167	5
0.44533	8
0.44900	7
0.45267	0
0.45633	-2
0.46000	-1
0.46367	-2
0.46733	-1
0.47100	1
0.47467	8
0.47833	12
0.48200	16
0.48567	19
0.48933	23
0.49300	26
0.49667	27
0.50033	23
0.50400	19
0.50767	17
0.51133	16
0.51500	13
0.51867	13
0.52233	15
0.52600	18
0.52967	19
0.53333	21
0.53700	21
0.54067	20
0.54433	20
0.54800	20
0.55167	17
0.55533	11
0.55900	8
0.56267	12
0.56633	19
0.57000	24
0.57367	30
0.57733	33
0.58100	33
0.58467	29
0.58833	24
0.59200	19
0.59567	20
0.59933	26
0.60300	33
0.60667	38
0.61033	37
0.61400	28
0.61767	17
0.62133	8
0.62500	7
0.62867	12
0.63233	20
0.63600	31
0.63967	37
0.64333	34
0.64700	26
0.65067	19
0.65433	20
0.65800	26
0.66167	28
0.66533	28
0.66900	28
0.67267	28
0.67633	29
0.68000	32
0.68367	34
0.68733	37
0.69100	42
0.69467	47
0.69833	47
0.70200	48
0.70567	51
0.70933	55
0.71300	54
0.71667	52
0.72033	52
0.72400	53
0.72767	50
0.73133	46
0.73500	47
0.73867	52
0.74233	55
0.74600	55
0.74967	50
0.75333	42
0.75700	36
0.76067	37
0.76433	43
0.76800	46
0.77167	44
0.77533	44
0.77900	45
0.78267	44
0.78633	42
0.79000	39
0.79367	36
0.79733	34
0.80100	33
0.80467	33
0.80833	36
0.81200	44
0.81567	54
0.81933	58
0.82300	59
0.82667	60
0.83033	57
0.83400	55
0.83767	52
0.84133	52
0.84500	55
0.84867	56
0.85233	51
0.85600	42
0.85967	35
0.86333	31
0.86700	30
0.87067	30
0.87433	30
0.87800	33
0.88167	40
0.88533	45
0.88900	46
0.89267	48
0.89633	48
0.90000	49
0.90367	44
0.90733	42
0.91100	41
0.91467	39
0.91833	36
0.92200	33
0.92567	33
0.92933	35
0.93300	42
0.93667	50
0.94033	53
0.94400	56
0.94767	61
0.95133	66
0.95500	66
0.95867	61
0.96233	55
0.96600	47
0.96967	38
0.97333	30
0.97700	25
0.98067	20
0.98433	8
0.98800	-1
0.99167	1
0.99533	7
0.99900	13
1.00267	20
1.00633	29
1.01000	35
1.01367	39
1.01733	46
1.02100	55
1.02467	58
1.02833	57
1.03200	51
1.03567	40
1.03933	30
1.04300	23
1.04667	20
1.05033	20
1.05400	27
1.05767	32
1.06133	32
1.06500	25
1.06867	21
1.07233	17
1.07600	16
1.07967	19
1.08333	26
1.08700	34
1.09067	43
1.09433	49
1.09800	47
1.10167	39
1.10533	30
1.10900	23
1.11267	16
1.11633	11
1.12000	11
1.12367	13
1.12733	18
1.13100	21
1.13467	24
1.13833	24
1.14200	22
1.14567	23
1.14933	25
1.15300	28
1.15667	30
1.16033	33
1.16400	40
1.16767	49
1.17133	54
1.17500	52
1.17867	48
1.18233	43
1.18600	40
1.18967	40
1.19333	39
1.19700	36
1.20067	34
1.20433	34
1.20800	38
1.21167	36
1.21533	27
1.21900	21
1.22267	20
1.22633	17
1.23000	13
1.23367	11
1.23733	10
1.24100	7
1.24467	2
1.24833	-2
1.25200	-4
1.25567	-2
1.25933	6
1.26300	17
1.26667	25
1.27033	28
1.27400	27
1.27767	24
1.28133	22
1.28500	21
1.28867	19
1.29233	18
1.29600	18
1.29967	19
1.30333	21
1.30700	23
1.31067	29
1.31433	40
1.31800	49
1.32167	53
1.32533	54
1.32900	48
1.33267	38
1.33633	25
1.34000	16
1.34367	14
1.34733	19
1.35100	28
1.35467	32
1.35833	28
1.36200	19
1.36567	10
1.36933	8
1.37300	7
1.37667	2
1.38033	-1
1.38400	-5
1.38767	-6
1.39133	-3
1.39500	-1
1.39867	0
1.40233	6
1.40600	14
1.40967	21
1.41333	26
1.41700	29
1.42067	29
1.42433	24
1.42800	23
1.43167	26
1.43533	25
1.43900	32
1.44267	70
1.44633	186
1.45000	341
1.45367	418
1.45733	392
1.46100	292
1.46467	155
1.46833	17
1.47200	-88
1.47567	-139
1.47933	-146
1.48300	-138
1.48667	-133
1.49033	-139
1.49400	-150
1.49767	-166
1.50133	-184
1.50500	-196
1.50867	-201
1.51233	-207
1.51600	-212
1.51967	-215
1.52333	-218
1.52700	-221
1.53067	-222
1.53433	-214
1.53800	-151
1.54167	119
1.54533	890
1.54900	2351
1.55267	4328
1.55633	6393
1.56000	8186
1.56367	9524
1.56733	10294
1.57100	10358
1.57467	9632
1.57833	8250
1.58200	6547
1.58567	4879
1.58933	3460
1.59300	2360
1.59667	1561
1.60033	1004
1.60400	629
1.60767	381
1.61133	220
1.61500	119
1.61867	55
1.62233	12
1.62600	-17
1.62967	-34
1.63333	-46
1.63700	-52
1.64067	-54
1.64433	-56
1.64800	-57
1.65167	-62
1.65533	-64
1.65900	-66
1.66267	-69
1.66633	-69
1.67000	-62
1.67367	-51
1.67733	-49
1.68100	-50
1.68467	-54
1.68833	-58
1.69200	-57
1.69567	-55
1.69933	-52
1.70300	-46
1.70667	-38
1.71033	-33
1.71400	-33
1.71767	-33
1.72133	-36
1.72500	-37
1.72867	-38
1.73233	-38
1.73600	-35
1.73967	-30
1.74333	-25
1.74700	-24
1.75067	-24
1.75433	-27
1.75800	-33
1.76167	-37
1.76533	-36
1.76900	-31
1.77267	-26
1.77633	-23
1.78000	-21
1.78367	-17
1.78733	-10
1.79100	-8
1.79467	-11
1.79833	-14
1.80200	-11
1.80567	-9
1.80933	-9
1.81300	-12
1.81667	-16
1.82033	-17
1.82400	-21
1.82767	-25
1.83133	-21
1.83500	-19
1.83867	-21
1.84233	-24
1.84600	-25
1.84967	-21
1.85333	-18
1.85700	-15
1.86067	-15
1.86433	-17
1.86800	-19
1.87167	-23
1.87533	-26
1.87900	-26
1.88267	-23
1.88633	-18
1.89000	-10
1.89367	0
1.89733	10
1.90100	10
1.90467	2
1.90833	-6
1.91200	-10
1.91567	-12
1.91933	-15
1.92300	-15
1.92667	-10
1.93033	-4
1.93400	1
1.93767	4
1.94133	8
1.94500	11
1.94867	17
1.95233	34
1.95600	138
1.95967	814
1.96333	4139
1.96700	16484
1.97067	51603
1.97433	128692
1.97800	260306
1.98167	438460
1.98533	635103
1.98900	815540
1.99267	950148
1.99633	1019756
2.00000	1016558
2.00367	945283
2.00733	822680
2.01100	673452
2.01467	522497
2.01833	387947
2.02200	278590
2.02567	195519
2.02933	135395
2.03300	93314
2.03667	64503
2.04033	45032
2.04400	31947
2.04767	23142
2.05133	17174
2.05500	13082
2.05867	10229
2.06233	8202
2.06600	6729
2.06967	5637
2.07333	4815
2.07700	4176
2.08067	3671
2.08433	3268
2.08800	2941
2.09167	2675
2.09533	2450
2.09900	2254
2.10267	2086
2.10633	1941
2.11000	1814
2.11367	1700
2.11733	1596
2.12100	1501
2.12467	1410
2.12833	1325
2.13200	1250
2.13567	1185
2.13933	1126
2.14300	1073
2.14667	1026
2.15033	982
2.15400	942
2.15767	910
2.16133	880
2.16500	852
2.16867	824
2.17233	796
2.17600	769
2.17967	744
2.18333	723
2.18700	704
2.19067	689
2.19433	678
2.19800	667
2.20167	653
2.20533	638
2.20900	617
2.21267	594
2.21633	571
2.22000	548
2.22367	528
2.22733	513
2.23100	504
2.23467	499
2.23833	497
2.24200	491
2.24567	483
2.24933	476
2.25300	467
2.25667	456
2.26033	447
2.26400	439
2.26767	434
2.27133	428
2.27500	424
2.27867	421
2.28233	417
2.28600	414
2.28967	409
2.29333	403
2.29700	401
2.30067	400
2.30433	396
2.30800	392
2.31167	387
2.31533	383
2.31900	380
2.32267	380
2.32633	382
2.33000	383
2.33367	381
2.33733	376
2.34100	371
2.34467	372
2.34833	377
2.35200	384
2.35567	385
2.35933	378
2.36300	365
2.36667	352
2.37033	344
2.37400	338
2.37767	333
2.38133	327
2.38500	323
2.38867	321
2.39233	321
2.39600	318
2.39967	316
2.40333	318
2.40700	319
2.41067	317
2.41433	315
2.41800	311
2.42167	314
2.42533	320
2.42900	322
2.43267	324
2.43633	325
2.44000	333
2.44367	342
2.44733	343
2.45100	338
2.45467	334
2.45833	324
2.46200	308
2.46567	298
2.46933	292
2.47300	291
2.47667	290
2.48033	290
2.48400	293
2.48767	297
2.49133	302
2.49500	305
2.49867	300
2.50233	293
2.50600	293
2.50967	299
2.51333	306
2.51700	307
2.52067	302
2.52433	296
2.52800	290
2.53167	286
2.53533	286
2.53900	294
2.54267	306
2.54633	314
2.55000	315
2.55367	311
2.55733	304
2.56100	297
2.56467	294
2.56833	294
2.57200	301
2.57567	310
2.57933	316
2.58300	315
2.58667	314
2.59033	313
2.59400	313
2.59767	311
2.60133	308
2.60500	304
2.60867	302
2.61233	301
2.61600	300
2.61967	297
2.62333	291
2.62700	289
2.63067	290
2.63433	293
2.63800	298
2.64167	304
2.64533	308
2.64900	312
2.65267	312
2.65633	314
2.66000	320
2.66367	325
2.66733	323
2.67100	318
2.67467	316
2.67833	321
2.68200	330
2.68567	339
2.68933	341
2.69300	340
2.69667	343
2.70033	348
2.70400	348
2.70767	343
2.71133	334
2.71500	325
2.71867	316
2.72233	308
2.72600	299
2.72967	299
2.73333	303
2.73700	307
2.74067	309
2.74433	310
2.74800	312
2.75167	316
2.75533	320
2.75900	321
2.76267	321
2.76633	317
2.77000	317
2.77367	318
2.77733	320
2.78100	321
2.78467	319
2.78833	317
2.79200	315
2.79567	314
2.79933	317
2.80300	324
2.80667	330
2.81033	332
2.81400	337
2.81767	345
2.82133	353
2.82500	355
2.82867	353
2.83233	351
2.83600	349
2.83967	350
2.84333	347
2.84700	343
2.85067	343
2.85433	342
2.85800	342
2.86167	342
2.86533	337
2.86900	336
2.87267	338
2.87633	339
2.88000	341
2.88367	342
2.88733	343
2.89100	346
2.89467	350
2.89833	355
2.90200	356
2.90567	356
2.90933	357
2.91300	358
2.91667	365
2.92033	373
2.92400	375
2.92767	375
2.93133	376
2.93500	376
2.93867	376
2.94233	373
2.94600	367
2.94967	360
2.95333	354
2.95700	347
2.96067	344
2.96433	346
2.96800	349
2.97167	356
2.97533	359
2.97900	363
2.98267	366
2.98633	364
2.99000	356
2.99367	348
2.99733	347
3.00100	349
3.00467	346
3.00833	338
3.01200	330
3.01567	326
3.01933	326
3.02300	330
3.02667	335
3.03033	337
3.03400	338
3.03767	343
3.04133	353
3.04500	360
3.04867	361
3.05233	364
3.05600	366
3.05967	363
3.06333	356
3.06700	351
3.07067	349
3.07433	347
3.07800	348
3.08167	356
3.08533	366
3.08900	366
3.09267	362
3.09633	358
3.10000	354
3.10367	352
3.10733	350
3.11100	349
3.11467	349
3.11833	349
3.12200	348
3.12567	342
3.12933	334
3.13300	329
3.13667	327
3.14033	329
3.14400	335
3.14767	340
3.15133	343
3.15500	345
3.15867	346
3.16233	349
3.16600	351
3.16967	351
3.17333	348
3.17700	345
3.18067	346
3.18433	342
3.18800	334
3.19167	331
3.19533	336
3.19900	342
3.20267	344
3.20633	344
3.21000	339
3.21367	336
3.21733	333
3.22100	332
3.22467	332
3.22833	334
3.23200	339
3.23567	346
3.23933	349
3.24300	345
3.24667	337
3.25033	329
3.25400	326
3.25767	325
3.26133	327
3.26500	337
3.26867	348
3.27233	355
3.27600	350
3.27967	342
3.28333	335
3.28700	332
3.29067	335
3.29433	333
3.29800	328
3.30167	322
3.30533	315
3.30900	304
3.31267	295
3.31633	291
3.32000	292
3.32367	296
3.32733	303
3.33100	309
3.33467	311
3.33833	309
3.34200	307
3.34567	309
3.34933	315
3.35300	321
3.35667	325
3.36033	327
3.36400	328
3.36767	329
3.37133	332
3.37500	336
3.37867	343
3.38233	355
3.38600	360
3.38967	354
3.39333	338
3.39700	320
3.40067	304
3.40433	289
3.40800	278
3.41167	273
3.41533	275
3.41900	278
3.42267	281
3.42633	286
3.43000	290
3.43367	291
3.43733	296
3.44100	301
3.44467	305
3.44833	305
3.45200	303
3.45567	310
3.45933	324
3.46300	328
3.46667	326
3.47033	319
3.47400	308
3.47767	300
3.48133	293
3.48500	282
3.48867	272
3.49233	264
3.49600	262
3.49967	265
3.50333	270
3.50700	276
3.51067	284
3.51433	291
3.51800	295
3.52167	294
3.52533	291
3.52900	285
3.53267	275
3.53633	267
3.54000	264
3.54367	264
3.54733	265
3.55100	267
3.55467	267
3.55833	267
3.56200	271
3.56567	277
3.56933	281
3.57300	282
3.57667	277
3.58033	271
3.58400	265
3.58767	263
3.59133	260
3.59500	258
3.59867	259
3.60233	263
3.60600	266
3.60967	268
3.61333	269
3.61700	264
3.62067	265
3.62433	273
3.62800	285
3.63167	292
3.63533	295
3.63900	296
3.64267	289
3.64633	276
3.65000	262
3.65367	250
3.65733	240
3.66100	240
3.66467	245
3.66833	249
3.67200	253
3.67567	256
3.67933	259
3.68300	262
3.68667	265
3.69033	269
3.69400	272
3.69767	274
3.70133	273
3.70500	271
3.70867	273
3.71233	279
3.71600	282
3.71967	281
3.72333	273
3.72700	261
3.73067	253
3.73433	251
3.73800	249
3.74167	246
3.74533	246
3.74900	243
3.75267	239
3.75633	243
3.76000	247
3.76367	247
3.76733	246
3.77100	246
3.77467	247
3.77833	246
3.78200	243
3.78567	242
3.78933	240
3.79300	237
3.79667	237
3.80033	242
3.80400	244
3.80767	241
3.81133	240
3.81500	236
3.81867	230
3.82233	225
3.82600	216
3.82967	214
3.83333	215
3.83700	217
3.84067	218
3.84433	222
3.84800	226
3.85167	227
3.85533	227
3.85900	225
3.86267	224
3.86633	230
3.87000	236
3.87367	242
3.87733	247
3.88100	249
3.88467	248
3.88833	244
3.89200	234
3.89567	226
3.89933	219
3.90300	216
3.90667	214
3.91033	207
3.91400	200
3.91767	198
3.92133	201
3.92500	207
3.92867	214
3.93233	218
3.93600	217
3.93967	213
3.94333	212
3.94700	210
3.95067	208
3.95433	208
3.95800	209
3.96167	209
3.96533	209
3.96900	208
3.97267	210
3.97633	213
3.98000	215
3.98367	214
3.98733	212
3.99100	210
3.99467	208
3.99833	209

[Chromatogram (Ch2)]
Interval(msec)	220
# of Points	1091
Start Time(min)	0.002
End Time(min)	3.998
R.Time (min)	Intensity
0.00167	-0
0.00533	-0
0.00900	-0
0.01267	0
0.01633	0
0.02000	0
0.02367	1
0.02733	1
0.03100	1
0.03467	1
0.03833	1
0.04200	2
0.04567	2
0.04933	2
0.05300	2
0.05667	2
0.06033	2
0.06400	2
0.06767	2
0.07133	2
0.07500	2
0.07867	2
0.08233	2
0.08600	2
0.08967	3
0.09333	3
0.09700	3
0.10067	3
0.10433	3
0.10800	3
0.11167	4
0.11533	4
0.11900	4
0.12267	5
0.12633	5
0.13000	5
0.13367	5
0.13733	4
0.14100	4
0.14467	4
0.14833	4
0.15200	3
0.15567	3
0.15933	3
0.16300	3
0.16667	3
0.17033	3
0.17400	3
0.17767	3
0.18133	3
0.18500	3
0.18867	3
0.19233	3
0.19600	3
0.19967	2
0.20333	2
0.20700	2
0.21067	2
0.21433	2
0.21800	2
0.22167	2
0.22533	2
0.22900	2
0.23267	2
0.23633	3
0.24000	3
0.24367	3
0.24733	3
0.25100	3
0.25467	2
0.25833	2
0.26200	2
0.26567	2
0.26933	2
0.27300	2
0.27667	2
0.28033	2
0.28400	2
0.28767	2
0.29133	2
0.29500	2
0.29867	2
0.30233	1
0.30600	1
0.30967	1
0.31333	1
0.31700	1
0.32067	1
0.32433	1
0.32800	1
0.33167	1
0.33533	0
0.33900	0
0.34267	0
0.34633	0
0.35000	0
0.35367	0
0.35733	-0
0.36100	-0
0.36467	-0
0.36833	-1
0.37200	-1
0.37567	-1
0.37933	-1
0.38300	-1
0.38667	-1
0.39033	-1
0.39400	-1
0.39767	-1
0.40133	-1
0.40500	-1
0.40867	-1
0.41233	-1
0.41600	-1
0.41967	-1
0.42333	-1
0.42700	-1
0.43067	-1
0.43433	-1
0.43800	-1
0.44167	-2
0.44533	-2
0.44900	-2
0.45267	-1
0.45633	-1
0.46000	-1
0.46367	-1
0.46733	-1
0.47100	-0
0.47467	0
0.47833	0
0.48200	1
0.48567	1
0.48933	1
0.49300	1
0.49667	1
0.50033	1
0.50400	1
0.50767	1
0.51133	1
0.51500	0
0.51867	0
0.52233	0
0.52600	-0
0.52967	-0
0.53333	0
0.53700	0
0.54067	1
0.54433	1
0.54800	1
0.55167	1
0.55533	2
0.55900	2
0.56267	2
0.56633	2
0.57000	3
0.57367	2
0.57733	2
0.58100	2
0.58467	2
0.58833	2
0.59200	1
0.59567	1
0.59933	1
0.60300	0
0.60667	0
0.61033	0
0.61400	-0
0.61767	-0
0.62133	-1
0.62500	-1
0.62867	-1
0.63233	-1
0.63600	-1
0.63967	-2
0.64333	-2
0.64700	-2
0.65067	-2
0.65433	-2
0.65800	-2
0.66167	-2
0.66533	-2
0.66900	-2
0.67267	-1
0.67633	-1
0.68000	-1
0.68367	-1
0.68733	-0
0.69100	-0
0.69467	-0
0.69833	0
0.70200	0
0.70567	0
0.70933	0
0.71300	0
0.71667	0
0.72033	0
0.72400	0
0.72767	0
0.73133	1
0.73500	1
0.73867	1
0.74233	1
0.74600	1
0.74967	1
0.75333	1
0.75700	1
0.76067	0
0.76433	0
0.76800	-0
0.77167	-0
0.77533	-0
0.77900	-0
0.78267	-0
0.78633	-0
0.79000	-0
0.79367	-1
0.79733	-1
0.80100	-1
0.80467	-1
0.80833	-1
0.81200	-2
0.81567	-2
0.81933	-2
0.82300	-2
0.82667	-2
0.83033	-2
0.83400	-2
0.83767	-2
0.84133	-2
0.84500	-2
0.84867	-2
0.85233	-2
0.85600	-2
0.85967	-2
0.86333	-2
0.86700	-2
0.87067	-2
0.87433	-2
0.87800	-2
0.88167	-2
0.88533	-2
0.88900	-2
0.89267	-2
0.89633	-2
0.90000	-2
0.90367	-2
0.90733	-1
0.91100	-1
0.91467	-1
0.91833	-2
0.92200	-2
0.92567	-2
0.92933	-1
0.93300	-1
0.93667	-2
0.94033	-2
0.94400	-2
0.94767	-2
0.95133	-2
0.95500	-2
0.95867	-2
0.96233	-2
0.96600	-1
0.96967	-1
0.97333	-1
0.97700	-0
0.98067	0
0.98433	1
0.98800	1
0.99167	1
0.99533	1
0.99900	1
1.00267	1
1.00633	1
1.01000	0
1.01367	0
1.01733	-0
1.02100	-0
1.02467	-1
1.02833	-1
1.03200	-1
1.03567	-1
1.03933	-1
1.04300	-0
1.04667	0
1.05033	0
1.05400	1
1.05767	1
1.06133	1
1.06500	1
1.06867	0
1.07233	0
1.07600	-0
1.07967	-0
1.08333	-0
1.08700	-0
1.09067	-1
1.09433	-1
1.09800	-1
1.10167	-1
1.10533	-1
1.10900	-1
1.11267	-0
1.11633	-0
1.12000	-0
1.12367	-0
1.12733	-0
1.13100	-0
1.13467	0
1.13833	0
1.14200	0
1.14567	-0
1.14933	-0
1.15300	-1
1.15667	-1
1.16033	-1
1.16400	-1
1.16767	-2
1.17133	-2
1.17500	-3
1.17867	-3
1.18233	-3
1.18600	-3
1.18967	-3
1.19333	-3
1.19700	-3
1.20067	-3
1.20433	-3
1.20800	-3
1.21167	-3
1.21533	-3
1.21900	-3
1.22267	-3
1.22633	-3
1.23000	-2
1.23367	-2
1.23733	-2
1.24100	-2
1.24467	-2
1.24833	-2
1.25200	-2
1.25567	-2
1.25933	-2
1.26300	-2
1.26667	-2
1.27033	-1
1.27400	-1
1.27767	-1
1.28133	-0
1.28500	-0
1.28867	-0
1.29233	-0
1.29600	-0
1.29967	-1
1.30333	-1
1.30700	-1
1.31067	-1
1.31433	-1
1.31800	-1
1.32167	-1
1.32533	-1
1.32900	-1
1.33267	-1
1.33633	-1
1.34000	-1
1.34367	-0
1.34733	-0
1.35100	-0
1.35467	-0
1.35833	-1
1.36200	-1
1.36567	-1
1.36933	-1
1.37300	-1
1.37667	-1
1.38033	-1
1.38400	-1
1.38767	-1
1.39133	-1
1.39500	-2
1.39867	-2
1.40233	-2
1.40600	-2
1.40967	-2
1.41333	-3
1.41700	-3
1.42067	-3
1.42433	-3
1.42800	-3
1.43167	-3
1.43533	-3
1.43900	-3
1.44267	-3
1.44633	-3
1.45000	-3
1.45367	-3
1.45733	-3
1.46100	-3
1.46467	-3
1.46833	-3
1.47200	-3
1.47567	-3
1.47933	-3
1.48300	-3
1.48667	-3
1.49033	-2
1.49400	-2
1.49767	-2
1.50133	-2
1.50500	-2
1.50867	-2
1.51233	-2
1.51600	-2
1.51967	-3
1.52333	-3
1.52700	-3
1.53067	-3
1.53433	-4
1.53800	-4
1.54167	-4
1.54533	-4
1.54900	-4
1.55267	-4
1.55633	-4
1.56000	-4
1.56367	-4
1.56733	-4
1.57100	-4
1.57467	-4
1.57833	-4
1.58200	-4
1.58567	-4
1.58933	-4
1.59300	-4
1.59667	-4
1.60033	-5
1.60400	-5
1.60767	-6
1.61133	-8
1.61500	-9
1.61867	-11
1.62233	-14
1.62600	-17
1.62967	-20
1.63333	-23
1.63700	-26
1.64067	-30
1.64433	-34
1.64800	-37
1.65167	-41
1.65533	-44
1.65900	-48
1.66267	-52
1.66633	-56
1.67000	-60
1.67367	-65
1.67733	-70
1.68100	-75
1.68467	-80
1.68833	-85
1.69200	-89
1.69567	-93
1.69933	-96
1.70300	-99
1.70667	-101
1.71033	-103
1.71400	-105
1.71767	-106
1.72133	-107
1.72500	-108
1.72867	-109
1.73233	-109
1.73600	-110
1.73967	-110
1.74333	-109
1.74700	-109
1.75067	-108
1.75433	-108
1.75800	-108
1.76167	-108
1.76533	-108
1.76900	-109
1.77267	-110
1.77633	-111
1.78000	-111
1.78367	-112
1.78733	-112
1.79100	-113
1.79467	-113
1.79833	-114
1.80200	-114
1.80567	-114
1.80933	-114
1.81300	-114
1.81667	-113
1.82033	-112
1.82400	-112
1.82767	-111
1.83133	-111
1.83500	-110
1.83867	-111
1.84233	-111
1.84600	-112
1.84967	-113
1.85333	-113
1.85700	-114
1.86067	-114
1.86433	-114
1.86800	-114
1.87167	-114
1.87533	-114
1.87900	-114
1.88267	-114
1.88633	-114
1.89000	-113
1.89367	-112
1.89733	-112
1.90100	-111
1.90467	-110
1.90833	-110
1.91200	-110
1.91567	-110
1.91933	-110
1.92300	-110
1.92667	-110
1.93033	-110
1.93400	-110
1.93767	-111
1.94133	-111
1.94500	-111
1.94867	-111
1.95233	-112
1.95600	-112
1.95967	-112
1.96333	-112
1.96700	-112
1.97067	-112
1.97433	-111
1.97800	-111
1.98167	-110
1.98533	-110
1.98900	-109
1.99267	-108
1.99633	-108
2.00000	-108
2.00367	-107
2.00733	-107
2.01100	-107
2.01467	-106
2.01833	-106
2.02200	-106
2.02567	-106
2.02933	-106
2.03300	-106
2.03667	-106
2.04033	-106
2.04400	-106
2.04767	-106
2.05133	-105
2.05500	-105
2.05867	-104
2.06233	-104
2.06600	-103
2.06967	-102
2.07333	-101
2.07700	-101
2.08067	-100
2.08433	-100
2.08800	-99
2.09167	-99
2.09533	-99
2.09900	-99
2.10267	-98
2.10633	-98
2.11000	-97
2.11367	-97
2.11733	-97
2.12100	-96
2.12467	-96
2.12833	-96
2.13200	-96
2.13567	-96
2.13933	-96
2.14300	-96
2.14667	-97
2.15033	-97
2.15400	-97
2.15767	-97
2.16133	-96
2.16500	-96
2.16867	-94
2.17233	-93
2.17600	-92
2.17967	-90
2.18333	-90
2.18700	-89
2.19067	-89
2.19433	-90
2.19800	-90
2.20167	-90
2.20533	-90
2.20900	-90
2.21267	-90
2.21633	-90
2.22000	-90
2.22367	-90
2.22733	-90
2.23100	-90
2.23467	-89
2.23833	-89
2.24200	-88
2.24567	-87
2.24933	-87
2.25300	-87
2.25667	-88
2.26033	-89
2.26400	-89
2.26767	-90
2.27133	-89
2.27500	-89
2.27867	-88
2.28233	-87
2.28600	-86
2.28967	-85
2.29333	-84
2.29700	-83
2.30067	-82
2.30433	-81
2.30800	-81
2.31167	-80
2.31533	-79
2.31900	-79
2.32267	-79
2.32633	-79
2.33000	-79
2.33367	-79
2.33733	-79
2.34100	-78
2.34467	-78
2.34833	-77
2.35200	-76
2.35567	-75
2.35933	-74
2.36300	-73
2.36667	-72
2.37033	-71
2.37400	-69
2.37767	-67
2.38133	-64
2.38500	-61
2.38867	-57
2.39233	-53
2.39600	-49
2.39967	-44
2.40333	-39
2.40700	-35
2.41067	-30
2.41433	-26
2.41800	-23
2.42167	-20
2.42533	-18
2.42900	-16
2.43267	-15
2.43633	-13
2.44000	-12
2.44367	-10
2.44733	-9
2.45100	-7
2.45467	-6
2.45833	-5
2.46200	-5
2.46567	-4
2.46933	-3
2.47300	-3
2.47667	-2
2.48033	-0
2.48400	1
2.48767	2
2.49133	4
2.49500	5
2.49867	5
2.50233	6
2.50600	6
2.50967	7
2.51333	7
2.51700	8
2.52067	9
2.52433	10
2.52800	11
2.53167	11
2.53533	11
2.53900	11
2.54267	11
2.54633	12
2.55000	12
2.55367	13
2.55733	13
2.56100	13
2.56467	14
2.56833	14
2.57200	15
2.57567	16
2.57933	16
2.58300	17
2.58667	17
2.59033	18
2.59400	18
2.59767	18
2.60133	19
2.60500	19
2.60867	19
2.61233	20
2.61600	20
2.61967	20
2.62333	20
2.62700	20
2.63067	20
2.63433	20
2.63800	21
2.64167	21
2.64533	21
2.64900	21
2.65267	22
2.65633	22
2.66000	22
2.66367	22
2.66733	22
2.67100	22
2.67467	22
2.67833	22
2.68200	22
2.68567	21
2.68933	21
2.69300	21
2.69667	21
2.70033	21
2.70400	21
2.70767	21
2.71133	21
2.71500	22
2.71867	22
2.72233	23
2.72600	23
2.72967	24
2.73333	24
2.73700	24
2.74067	25
2.74433	25
2.74800	26
2.75167	26
2.75533	26
2.75900	26
2.76267	26
2.76633	25
2.77000	25
2.77367	24
2.77733	23
2.78100	23
2.78467	22
2.78833	22
2.79200	22
2.79567	22
2.79933	22
2.80300	22
2.80667	22
2.81033	22
2.81400	22
2.81767	23
2.82133	23
2.82500	24
2.82867	24
2.83233	25
2.83600	25
2.83967	24
2.84333	23
2.84700	20
2.85067	15
2.85433	8
2.85800	-3
2.86167	-18
2.86533	-38
2.86900	-63
2.87267	-93
2.87633	-129
2.88000	-171
2.88367	-218
2.88733	-271
2.89100	-328
2.89467	-391
2.89833	-458
2.90200	-529
2.90567	-603
2.90933	-681
2.91300	-762
2.91667	-847
2.92033	-934
2.92400	-1024
2.92767	-1116
2.93133	-1210
2.93500	-1306
2.93867	-1402
2.94233	-1488
2.94600	-1551
2.94967	-1580
2.95333	-1571
2.95700	-1527
2.96067	-1453
2.96433	-1359
2.96800	-1251
2.97167	-1138
2.97533	-1024
2.97900	-913
2.98267	-807
2.98633	-709
2.99000	-620
2.99367	-539
2.99733	-467
3.00100	-403
3.00467	-346
3.00833	-297
3.01200	-254
3.01567	-217
3.01933	-185
3.02300	-157
3.02667	-133
3.03033	-112
3.03400	-95
3.03767	-79
3.04133	-66
3.04500	-55
3.04867	-46
3.05233	-38
3.05600	-31
3.05967	-25
3.06333	-20
3.06700	-16
3.07067	-12
3.07433	-9
3.07800	-7
3.08167	-4
3.08533	-2
3.08900	-1
3.09267	0
3.09633	2
3.10000	3
3.10367	4
3.10733	5
3.11100	6
3.11467	7
3.11833	8
3.12200	9
3.12567	9
3.12933	10
3.13300	10
3.13667	11
3.14033	12
3.14400	12
3.14767	13
3.15133	13
3.15500	13
3.15867	14
3.16233	14
3.16600	15
3.16967	15
3.17333	15
3.17700	16
3.18067	16
3.18433	16
3.18800	16
3.19167	16
3.19533	17
3.19900	17
3.20267	17
3.20633	17
3.21000	17
3.21367	17
3.21733	17
3.22100	18
3.22467	18
3.22833	18
3.23200	18
3.23567	18
3.23933	19
3.24300	19
3.24667	19
3.25033	20
3.25400	20
3.25767	20
3.26133	20
3.26500	21
3.26867	21
3.27233	21
3.27600	22
3.27967	23
3.28333	23
3.28700	23
3.29067	24
3.29433	24
3.29800	24
3.30167	25
3.30533	25
3.30900	25
3.31267	25
3.31633	25
3.32000	25
3.32367	25
3.32733	25
3.33100	25
3.33467	26
3.33833	26
3.34200	26
3.34567	26
3.34933	26
3.35300	26
3.35667	26
3.36033	26
3.36400	26
3.36767	26
3.37133	25
3.37500	25
3.37867	25
3.38233	25
3.38600	25
3.38967	25
3.39333	25
3.39700	25
3.40067	25
3.40433	25
3.40800	25
3.41167	25
3.41533	25
3.41900	25
3.42267	25
3.42633	25
3.43000	25
3.43367	25
3.43733	25
3.44100	25
3.44467	25
3.44833	25
3.45200	25
3.45567	24
3.45933	24
3.46300	24
3.46667	24
3.47033	25
3.47400	25
3.47767	25
3.48133	25
3.48500	25
3.48867	26
3.49233	26
3.49600	26
3.49967	26
3.50333	26
3.50700	26
3.51067	26
3.51433	26
3.51800	25
3.52167	25
3.52533	25
3.52900	25
3.53267	25
3.53633	25
3.54000	25
3.54367	25
3.54733	25
3.55100	25
3.55467	25
3.55833	25
3.56200	25
3.56567	25
3.56933	25
3.57300	25
3.57667	25
3.58033	25
3.58400	25
3.58767	25
3.59133	25
3.59500	25
3.59867	25
3.60233	25
3.60600	25
3.60967	25
3.61333	25
3.61700	25
3.62067	25
3.62433	24
3.62800	24
3.63167	24
3.63533	24
3.63900	24
3.64267	24
3.64633	24
3.65000	24
3.65367	24
3.65733	24
3.66100	24
3.66467	24
3.66833	24
3.67200	24
3.67567	24
3.67933	24
3.68300	24
3.68667	24
3.69033	24
3.69400	24
3.69767	24
3.70133	25
3.70500	25
3.70867	24
3.71233	24
3.71600	24
3.71967	24
3.72333	25
3.72700	25
3.73067	25
3.73433	25
3.73800	25
3.74167	24
3.74533	24
3.74900	24
3.75267	25
3.75633	25
3.76000	25
3.76367	25
3.76733	25
3.77100	25
3.77467	25
3.77833	25
3.78200	25
3.78567	25
3.78933	25
3.79300	25
3.79667	25
3.80033	25
3.80400	25
3.80767	25
3.81133	25
3.81500	24
3.81867	24
3.82233	24
3.82600	24
3.82967	24
3.83333	24
3.83700	24
3.84067	24
3.84433	24
3.84800	24
3.85167	24
3.85533	24
3.85900	24
3.86267	24
3.86633	24
3.87000	25
3.87367	25
3.87733	25
3.88100	25
3.88467	25
3.88833	25
3.89200	26
3.89567	26
3.89933	26
3.90300	26
3.90667	26
3.91033	25
3.91400	25
3.91767	25
3.92133	25
3.92500	25
3.92867	25
3.93233	25
3.93600	25
3.93967	25
3.94333	25
3.94700	25
3.95067	25
3.95433	25
3.95800	24
3.96167	24
3.96533	24
3.96900	24
3.97267	24
3.97633	24
3.98000	24
3.98367	24
3.98733	24
3.99100	24
3.99467	23
3.99833	23

[Chromatogram (Ch3)]
Interval(msec)	220
# of Points	1091
Start Time(min)	0.002
End Time(min)	3.998
R.Time (min)	Intensity
0.00167	0
0.00533	1
0.00900	2
0.01267	2
0.01633	3
0.02000	5
0.02367	6
0.02733	9
0.03100	11
0.03467	11
0.03833	9
0.04200	4
0.04567	1
0.04933	2
0.05300	4
0.05667	3
0.06033	2
0.06400	2
0.06767	4
0.07133	5
0.07500	3
0.07867	-1
0.08233	-3
0.08600	-4
0.08967	-4
0.09333	-1
0.09700	1
0.10067	4
0.10433	6
0.10800	4
0.11167	1
0.11533	-0
0.11900	-1
0.12267	-1
0.12633	-2
0.13000	-1
0.13367	-1
0.13733	-1
0.14100	-1
0.14467	-1
0.14833	-2
0.15200	-0
0.15567	0
0.15933	2
0.16300	4
0.16667	5
0.17033	5
0.17400	6
0.17767	8
0.18133	9
0.18500	9
0.18867	9
0.19233	9
0.19600	5
0.19967	2
0.20333	-1
0.20700	-0
0.21067	-2
0.21433	-4
0.21800	-6
0.22167	-5
0.22533	-3
0.22900	-2
0.23267	-3
0.23633	-3
0.24000	-1
0.24367	-2
0.24733	-4
0.25100	-3
0.25467	-0
0.25833	-1
0.26200	-2
0.26567	-3
0.26933	-5
0.27300	-7
0.27667	-9
0.28033	-8
0.28400	-7
0.28767	-6
0.29133	-5
0.29500	-6
0.29867	-8
0.30233	-7
0.30600	-5
0.30967	-5
0.31333	-4
0.31700	-2
0.32067	-2
0.32433	-2
0.32800	-4
0.33167	-5
0.33533	-7
0.33900	-9
0.34267	-9
0.34633	-8
0.35000	-9
0.35367	-10
0.35733	-10
0.36100	-9
0.36467	-8
0.36833	-7
0.37200	-6
0.37567	-7
0.37933	-7
0.38300	-6
0.38667	-4
0.39033	-2
0.39400	-3
0.39767	-6
0.40133	-8
0.40500	-9
0.40867	-10
0.41233	-11
0.41600	-12
0.41967	-14
0.42333	-16
0.42700	-16
0.43067	-15
0.43433	-15
0.43800	-14
0.44167	-17
0.44533	-18
0.44900	-17
0.45267	-16
0.45633	-14
0.46000	-11
0.46367	-9
0.46733	-8
0.47100	-9
0.47467	-9
0.47833	-10
0.48200	-9
0.48567	-8
0.48933	-8
0.49300	-7
0.49667	-7
0.50033	-7
0.50400	-10
0.50767	-14
0.51133	-15
0.51500	-14
0.51867	-12
0.52233	-12
0.52600	-12
0.52967	-11
0.53333	-9
0.53700	-8
0.54067	-9
0.54433	-10
0.54800	-9
0.55167	-7
0.55533	-7
0.55900	-9
0.56267	-10
0.56633	-9
0.57000	-8
0.57367	-6
0.57733	-5
0.58100	-3
0.58467	-0
0.58833	-1
0.59200	-4
0.59567	-7
0.59933	-11
0.60300	-10
0.60667	-8
0.61033	-8
0.61400	-7
0.61767	-7
0.62133	-7
0.62500	-6
0.62867	-6
0.63233	-5
0.63600	-5
0.63967	-6
0.64333	-8
0.64700	-10
0.65067	-11
0.65433	-10
0.65800	-8
0.66167	-7
0.66533	-7
0.66900	-5
0.67267	-5
0.67633	-4
0.68000	-2
0.68367	-2
0.68733	-3
0.69100	-2
0.69467	-1
0.69833	0
0.70200	-1
0.70567	-4
0.70933	-7
0.71300	-8
0.71667	-6
0.72033	-6
0.72400	-5
0.72767	-4
0.73133	-3
0.73500	-0
0.73867	1
0.74233	3
0.74600	4
0.74967	3
0.75333	2
0.75700	2
0.76067	3
0.76433	3
0.76800	2
0.77167	1
0.77533	2
0.77900	1
0.78267	-0
0.78633	-0
0.79000	1
0.79367	2
0.79733	4
0.80100	5
0.80467	6
0.80833	7
0.81200	7
0.81567	7
0.81933	7
0.82300	7
0.82667	6
0.83033	4
0.83400	4
0.83767	4
0.84133	2
0.84500	1
0.84867	1
0.85233	2
0.85600	5
0.85967	7
0.86333	8
0.86700	6
0.87067	3
0.87433	-0
0.87800	1
0.88167	4
0.88533	6
0.88900	5
0.89267	4
0.89633	6
0.90000	8
0.90367	8
0.90733	6
0.91100	6
0.91467	8
0.91833	9
0.92200	11
0.92567	12
0.92933	11
0.93300	10
0.93667	10
0.94033	9
0.94400	8
0.94767	7
0.95133	8
0.95500	9
0.95867	10
0.96233	9
0.96600	9
0.96967	9
0.97333	8
0.97700	9
0.98067	10
0.98433	12
0.98800	12
0.99167	12
0.99533	13
0.99900	14
1.00267	15
1.00633	16
1.01000	19
1.01367	21
1.01733	19
1.02100	18
1.02467	15
1.02833	15
1.03200	14
1.03567	15
1.03933	15
1.04300	16
1.04667	18
1.05033	20
1.05400	22
1.05767	21
1.06133	20
1.06500	18
1.06867	15
1.07233	14
1.07600	13
1.07967	12
1.08333	11
1.08700	9
1.09067	11
1.09433	12
1.09800	13
1.10167	13
1.10533	13
1.10900	12
1.11267	12
1.11633	12
1.12000	12
1.12367	10
1.12733	10
1.13100	10
1.13467	10
1.13833	10
1.14200	11
1.14567	12
1.14933	14
1.15300	14
1.15667	14
1.16033	11
1.16400	10
1.16767	9
1.17133	8
1.17500	7
1.17867	7
1.18233	8
1.18600	7
1.18967	7
1.19333	6
1.19700	7
1.20067	8
1.20433	8
1.20800	8
1.21167	9
1.21533	8
1.21900	4
1.22267	3
1.22633	3
1.23000	4
1.23367	6
1.23733	7
1.24100	7
1.24467	7
1.24833	7
1.25200	7
1.25567	6
1.25933	7
1.26300	6
1.26667	6
1.27033	6
1.27400	7
1.27767	8
1.28133	7
1.28500	3
1.28867	1
1.29233	2
1.29600	3
1.29967	4
1.30333	4
1.30700	5
1.31067	4
1.31433	3
1.31800	4
1.32167	3
1.32533	2
1.32900	2
1.33267	2
1.33633	2
1.34000	2
1.34367	3
1.34733	4
1.35100	4
1.35467	2
1.35833	3
1.36200	3
1.36567	4
1.36933	3
1.37300	3
1.37667	4
1.38033	2
1.38400	1
1.38767	1
1.39133	2
1.39500	2
1.39867	3
1.40233	2
1.40600	1
1.40967	1
1.41333	1
1.41700	3
1.42067	4
1.42433	4
1.42800	4
1.43167	4
1.43533	3
1.43900	4
1.44267	5
1.44633	6
1.45000	6
1.45367	5
1.45733	3
1.46100	3
1.46467	5
1.46833	6
1.47200	8
1.47567	8
1.47933	8
1.48300	10
1.48667	11
1.49033	12
1.49400	9
1.49767	9
1.50133	10
1.50500	11
1.50867	10
1.51233	7
1.51600	4
1.51967	3
1.52333	2
1.52700	3
1.53067	6
1.53433	8
1.53800	8
1.54167	9
1.54533	11
1.54900	12
1.55267	12
1.55633	12
1.56000	12
1.56367	13
1.56733	14
1.57100	16
1.57467	16
1.57833	18
1.58200	19
1.58567	18
1.58933	15
1.59300	14
1.59667	14
1.60033	15
1.60400	15
1.60767	14
1.61133	13
1.61500	13
1.61867	14
1.62233	17
1.62600	17
1.62967	17
1.63333	19
1.63700	21
1.64067	20
1.64433	20
1.64800	22
1.65167	24
1.65533	25
1.65900	26
1.66267	26
1.66633	27
1.67000	29
1.67367	29
1.67733	28
1.68100	28
1.68467	26
1.68833	26
1.69200	27
1.69567	27
1.69933	30
1.70300	31
1.70667	31
1.71033	31
1.71400	30
1.71767	30
1.72133	29
1.72500	31
1.72867	34
1.73233	35
1.73600	37
1.73967	37
1.74333	38
1.74700	40
1.75067	40
1.75433	40
1.75800	40
1.76167	39
1.76533	39
1.76900	40
1.77267	42
1.77633	44
1.78000	46
1.78367	47
1.78733	47
1.79100	45
1.79467	45
1.79833	46
1.80200	47
1.80567	46
1.80933	45
1.81300	46
1.81667	47
1.82033	47
1.82400	48
1.82767	49
1.83133	51
1.83500	53
1.83867	54
1.84233	55
1.84600	55
1.84967	56
1.85333	57
1.85700	58
1.86067	58
1.86433	59
1.86800	60
1.87167	61
1.87533	63
1.87900	65
1.88267	66
1.88633	65
1.89000	63
1.89367	62
1.89733	62
1.90100	62
1.90467	63
1.90833	64
1.91200	66
1.91567	67
1.91933	69
1.92300	72
1.92667	72
1.93033	72
1.93400	72
1.93767	70
1.94133	71
1.94500	75
1.94867	77
1.95233	79
1.95600	82
1.95967	84
1.96333	86
1.96700	89
1.97067	90
1.97433	88
1.97800	88
1.98167	89
1.98533	90
1.98900	90
1.99267	93
1.99633	95
2.00000	95
2.00367	95
2.00733	95
2.01100	96
2.01467	98
2.01833	100
2.02200	101
2.02567	104
2.02933	107
2.03300	110
2.03667	112
2.04033	113
2.04400	113
2.04767	114
2.05133	117
2.05500	118
2.05867	120
2.06233	119
2.06600	117
2.06967	119
2.07333	120
2.07700	123
2.08067	124
2.08433	125
2.08800	126
2.09167	128
2.09533	129
2.09900	129
2.10267	129
2.10633	131
2.11000	133
2.11367	135
2.11733	138
2.12100	140
2.12467	140
2.12833	142
2.13200	143
2.13567	144
2.13933	146
2.14300	148
2.14667	149
2.15033	149
2.15400	149
2.15767	152
2.16133	153
2.16500	154
2.16867	156
2.17233	156
2.17600	155
2.17967	158
2.18333	161
2.18700	165
2.19067	168
2.19433	169
2.19800	170
2.20167	171
2.20533	170
2.20900	171
2.21267	174
2.21633	174
2.22000	174
2.22367	174
2.22733	176
2.23100	178
2.23467	179
2.23833	178
2.24200	178
2.24567	178
2.24933	179
2.25300	179
2.25667	180
2.26033	180
2.26400	182
2.26767	186
2.27133	188
2.27500	188
2.27867	188
2.28233	186
2.28600	186
2.28967	187
2.29333	189
2.29700	191
2.30067	192
2.30433	194
2.30800	195
2.31167	195
2.31533	196
2.31900	196
2.32267	196
2.32633	196
2.33000	196
2.33367	198
2.33733	199
2.34100	201
2.34467	201
2.34833	200
2.35200	202
2.35567	203
2.35933	204
2.36300	205
2.36667	204
2.37033	205
2.37400	208
2.37767	212
2.38133	217
2.38500	217
2.38867	214
2.39233	212
2.39600	212
2.39967	214
2.40333	216
2.40700	219
2.41067	222
2.41433	223
2.41800	224
2.42167	225
2.42533	227
2.42900	228
2.43267	227
2.43633	226
2.44000	228
2.44367	286
2.44733	441
2.45100	608
2.45467	745
2.45833	818
2.46200	812
2.46567	759
2.46933	695
2.47300	642
2.47667	607
2.48033	578
2.48400	540
2.48767	490
2.49133	437
2.49500	387
2.49867	345
2.50233	316
2.50600	300
2.50967	293
2.51333	299
2.51700	314
2.52067	336
2.52433	358
2.52800	369
2.53167	364
2.53533	346
2.53900	320
2.54267	288
2.54633	256
2.55000	226
2.55367	200
2.55733	179
2.56100	163
2.56467	149
2.56833	140
2.57200	131
2.57567	125
2.57933	123
2.58300	123
2.58667	125
2.59033	127
2.59400	129
2.59767	130
2.60133	133
2.60500	135
2.60867	134
2.61233	130
2.61600	129
2.61967	127
2.62333	121
2.62700	113
2.63067	107
2.63433	100
2.63800	94
2.64167	85
2.64533	74
2.64900	62
2.65267	53
2.65633	46
2.66000	36
2.66367	24
2.66733	11
2.67100	2
2.67467	-7
2.67833	-14
2.68200	-18
2.68567	-19
2.68933	-19
2.69300	-21
2.69667	-22
2.70033	-20
2.70400	-18
2.70767	-15
2.71133	-12
2.71500	-8
2.71867	-6
2.72233	-4
2.72600	-1
2.72967	3
2.73333	6
2.73700	9
2.74067	13
2.74433	17
2.74800	21
2.75167	24
2.75533	26
2.75900	29
2.76267	32
2.76633	35
2.77000	38
2.77367	40
2.77733	45
2.78100	51
2.78467	55
2.78833	57
2.79200	59
2.79567	65
2.79933	72
2.80300	78
2.80667	83
2.81033	90
2.81400	99
2.81767	112
2.82133	138
2.82500	194
2.82867	316
2.83233	555
2.83600	972
2.83967	1633
2.84333	2589
2.84700	3852
2.85067	5391
2.85433	7130
2.85800	8961
2.86167	10749
2.86533	12354
2.86900	13651
2.87267	14556
2.87633	15030
2.88000	15084
2.88367	14765
2.88733	14147
2.89100	13312
2.89467	12341
2.89833	11302
2.90200	10247
2.90567	9216
2.90933	8236
2.91300	7324
2.91667	6488
2.92033	5729
2.92400	5044
2.92767	4433
2.93133	3886
2.93500	3399
2.93867	2971
2.94233	2595
2.94600	2264
2.94967	1974
2.95333	1721
2.95700	1500
2.96067	1310
2.96433	1135
2.96800	950
2.97167	776
2.97533	643
2.97900	557
2.98267	505
2.98633	478
2.99000	472
2.99367	479
2.99733	496
3.00100	520
3.00467	545
3.00833	571
3.01200	596
3.01567	618
3.01933	637
3.02300	651
3.02667	660
3.03033	667
3.03400	670
3.03767	672
3.04133	675
3.04500	679
3.04867	682
3.05233	684
3.05600	687
3.05967	690
3.06333	689
3.06700	685
3.07067	684
3.07433	682
3.07800	683
3.08167	685
3.08533	687
3.08900	689
3.09267	690
3.09633	691
3.10000	692
3.10367	694
3.10733	693
3.11100	693
3.11467	695
3.11833	696
3.12200	696
3.12567	693
3.12933	693
3.13300	694
3.13667	694
3.14033	698
3.14400	701
3.14767	705
3.15133	709
3.15500	714
3.15867	717
3.16233	719
3.16600	722
3.16967	725
3.17333	728
3.17700	731
3.18067	736
3.18433	745
3.18800	753
3.19167	757
3.19533	761
3.19900	764
3.20267	768
3.20633	772
3.21000	776
3.21367	782
3.21733	790
3.22100	797
3.22467	804
3.22833	810
3.23200	817
3.23567	821
3.23933	823
3.24300	825
3.24667	828
3.25033	830
3.25400	832
3.25767	835
3.26133	838
3.26500	838
3.26867	838
3.27233	834
3.27600	833
3.27967	832
3.28333	830
3.28700	828
3.29067	828
3.29433	827
3.29800	826
3.30167	825
3.30533	820
3.30900	817
3.31267	814
3.31633	811
3.32000	808
3.32367	804
3.32733	802
3.33100	801
3.33467	798
3.33833	794
3.34200	791
3.34567	788
3.34933	782
3.35300	777
3.35667	771
3.36033	767
3.36400	761
3.36767	755
3.37133	750
3.37500	749
3.37867	747
3.38233	744
3.38600	742
3.38967	741
3.39333	739
3.39700	738
3.40067	737
3.40433	735
3.40800	731
3.41167	728
3.41533	727
3.41900	726
3.42267	724
3.42633	722
3.43000	722
3.43367	721
3.43733	722
3.44100	723
3.44467	724
3.44833	724
3.45200	723
3.45567	723
3.45933	723
3.46300	721
3.46667	718
3.47033	714
3.47400	712
3.47767	712
3.48133	711
3.48500	710
3.48867	709
3.49233	708
3.49600	706
3.49967	705
3.50333	704
3.50700	703
3.51067	703
3.51433	702
3.51800	700
3.52167	699
3.52533	698
3.52900	696
3.53267	693
3.53633	689
3.54000	687
3.54367	685
3.54733	685
3.55100	682
3.55467	680
3.55833	677
3.56200	675
3.56567	676
3.56933	675
3.57300	674
3.57667	671
3.58033	668
3.58400	666
3.58767	664
3.59133	664
3.59500	664
3.59867	664
3.60233	666
3.60600	667
3.60967	666
3.61333	664
3.61700	663
3.62067	659
3.62433	656
3.62800	653
3.63167	652
3.63533	651
3.63900	649
3.64267	647
3.64633	647
3.65000	646
3.65367	645
3.65733	644
3.66100	644
3.66467	646
3.66833	648
3.67200	647
3.67567	642
3.67933	638
3.68300	635
3.68667	632
3.69033	628
3.69400	625
3.69767	622
3.70133	620
3.70500	619
3.70867	617
3.71233	615
3.71600	612
3.71967	611
3.72333	609
3.72700	605
3.73067	602
3.73433	599
3.73800	597
3.74167	598
3.74533	599
3.74900	596
3.75267	594
3.75633	591
3.76000	588
3.76367	588
3.76733	587
3.77100	584
3.77467	582
3.77833	579
3.78200	578
3.78567	577
3.78933	577
3.79300	577
3.79667	576
3.80033	574
3.80400	570
3.80767	567
3.81133	563
3.81500	561
3.81867	561
3.82233	560
3.82600	557
3.82967	556
3.83333	555
3.83700	554
3.84067	552
3.84433	551
3.84800	549
3.85167	547
3.85533	546
3.85900	543
3.86267	539
3.86633	537
3.87000	536
3.87367	536
3.87733	537
3.88100	537
3.88467	535
3.88833	535
3.89200	535
3.89567	533
3.89933	531
3.90300	528
3.90667	525
3.91033	525
3.91400	524
3.91767	523
3.92133	520
3.92500	519
3.92867	517
3.93233	514
3.93600	512
3.93967	511
3.94333	511
3.94700	510
3.95067	508
3.95433	507
3.95800	509
3.96167	510
3.96533	509
3.96900	507
3.97267	506
3.97633	507
3.98000	505
3.98367	503
3.98733	501
3.99100	499
3.99467	497
3.99833	496

[Status Trace (Column Oven Temperature)]
Interval(msec)	1000
# of Points	240
Start Time(min)	0.006
End Time(min)	3.989
Intensity Units	
Intensity Multiplier	1
R.Time (min)	Intensity
0.00587	35.08
0.02253	35.08
0.03920	35.07
0.05587	35.06
0.07253	35.05
0.08920	35.05
0.10587	35.05
0.12253	35.04
0.13920	35.03
0.15587	35.03
0.17253	35.02
0.18920	35.02
0.20587	35.02
0.22253	35.01
0.23920	35.00
0.25587	35.00
0.27253	35.00
0.28920	35.00
0.30587	34.99
0.32253	34.99
0.33920	34.99
0.35587	35.00
0.37253	35.00
0.38920	35.00
0.40587	34.99
0.42253	35.00
0.43920	35.02
0.45587	35.02
0.47253	35.02
0.48920	35.02
0.50587	35.02
0.52253	35.02
0.53920	35.01
0.55587	35.01
0.57253	35.00
0.58920	34.99
0.60587	34.99
0.62253	35.00
0.63920	35.01
0.65587	35.02
0.67253	35.01
0.68920	35.00
0.70587	35.00
0.72253	34.99
0.73920	34.98
0.75587	34.98
0.77253	34.99
0.78920	34.99
0.80587	35.00
0.82253	35.01
0.83920	35.00
0.85587	35.00
0.87253	35.00
0.88920	35.00
0.90587	35.01
0.92253	35.02
0.93920	35.03
0.95587	35.02
0.97253	35.01
0.98920	35.00
1.00587	35.00
1.02253	34.99
1.03920	34.98
1.05587	34.98
1.07253	34.98
1.08920	34.98
1.10587	34.98
1.12253	34.97
1.13920	34.96
1.15587	34.98
1.17253	34.99
1.18920	35.01
1.20587	35.01
1.22253	35.01
1.23920	35.01
1.25587	35.01
1.27253	35.00
1.28920	35.00
1.30587	34.99
1.32253	34.99
1.33920	34.99
1.35587	34.98
1.37253	34.98
1.38920	34.97
1.40587	34.98
1.42253	34.99
1.43920	34.99
1.45587	34.98
1.47253	34.99
1.48920	34.98
1.50587	34.98
1.52253	34.99
1.53920	35.00
1.55587	35.00
1.57253	35.00
1.58920	35.01
1.60587	35.06
1.62253	35.17
1.63920	35.36
1.65587	35.59
1.67253	35.91
1.68920	36.28
1.70587	36.64
1.72253	36.99
1.73920	37.30
1.75587	37.62
1.77253	37.96
1.78920	38.30
1.80587	38.64
1.82253	38.93
1.83920	39.27
1.85587	39.60
1.87253	39.94
1.88920	40.25
1.90587	40.57
1.92253	40.91
1.93920	41.24
1.95587	41.57
1.97253	41.91
1.98920	42.22
2.00587	42.56
2.02253	42.88
2.03920	43.21
2.05587	43.54
2.07253	43.86
2.08920	44.18
2.10587	44.51
2.12253	44.83
2.13920	45.16
2.15587	45.50
2.17253	45.79
2.18920	46.12
2.20587	46.46
2.22253	46.80
2.23920	47.10
2.25587	47.48
2.27253	47.82
2.28920	48.13
2.30587	48.45
2.32253	48.78
2.33920	49.10
2.35587	49.41
2.37253	49.63
2.38920	49.73
2.40587	49.73
2.42253	49.74
2.43920	49.74
2.45587	49.74
2.47253	49.75
2.48920	49.75
2.50587	49.77
2.52253	49.78
2.53920	49.80
2.55587	49.81
2.57253	49.81
2.58920	49.82
2.60587	49.81
2.62253	49.82
2.63920	49.83
2.65587	49.84
2.67253	49.84
2.68920	49.87
2.70587	49.87
2.72253	49.86
2.73920	49.85
2.75587	49.85
2.77253	49.87
2.78920	49.90
2.80587	49.90
2.82253	49.90
2.83920	49.90
2.85587	49.91
2.87253	49.90
2.88920	49.90
2.90587	49.91
2.92253	49.94
2.93920	49.97
2.95587	49.98
2.97253	50.00
2.98920	50.02
3.00587	50.03
3.02253	50.03
3.03920	50.02
3.05587	50.02
3.07253	50.03
3.08920	50.04
3.10587	50.05
3.12253	50.05
3.13920	50.05
3.15587	50.06
3.17253	50.07
3.18920	50.08
3.20587	50.10
3.22253	50.11
3.23920	50.11
3.25587	50.10
3.27253	50.09
3.28920	50.08
3.30587	50.07
3.32253	50.06
3.33920	50.05
3.35587	50.04
3.37253	50.04
3.38920	50.03
3.40587	50.03
3.42253	50.02
3.43920	50.03
3.45587	50.03
3.47253	50.03
3.48920	50.03
3.50587	50.03
3.52253	50.03
3.53920	50.03
3.55587	50.03
3.57253	50.03
3.58920	50.04
3.60587	50.04
3.62253	50.05
3.63920	50.06
3.65587	50.06
3.67253	50.07
3.68920	50.07
3.70587	50.06
3.72253	50.05
3.73920	50.06
3.75587	50.06
3.77253	50.06
3.78920	50.05
3.80587	50.06
3.82253	50.06
3.83920	50.06
3.85587	50.06
3.87253	50.05
3.88920	50.04
3.90587	50.05
3.92253	50.05
3.93920	50.05
3.95587	50.05
3.97253	50.05
3.98920	50.06

[Status Trace (Injection Unit Temperature)]
Interval(msec)	1000
# of Points	240
Start Time(min)	0.006
End Time(min)	3.989
Intensity Units	
Intensity Multiplier	1
R.Time (min)	Intensity
0.00587	99.98
0.02253	99.98
0.03920	99.98
0.05587	99.98
0.07253	99.98
0.08920	99.98
0.10587	99.98
0.12253	99.98
0.13920	99.98
0.15587	99.98
0.17253	99.98
0.18920	99.98
0.20587	99.98
0.22253	99.98
0.23920	99.98
0.25587	99.98
0.27253	99.98
0.28920	99.98
0.30587	99.99
0.32253	99.98
0.33920	99.98
0.35587	99.98
0.37253	99.98
0.38920	99.98
0.40587	99.98
0.42253	99.98
0.43920	99.98
0.45587	99.98
0.47253	99.98
0.48920	99.98
0.50587	99.98
0.52253	99.98
0.53920	99.98
0.55587	99.98
0.57253	99.98
0.58920	99.98
0.60587	99.98
0.62253	99.98
0.63920	99.98
0.65587	99.98
0.67253	99.98
0.68920	99.98
0.70587	99.97
0.72253	99.98
0.73920	99.98
0.75587	99.98
0.77253	99.98
0.78920	99.98
0.80587	99.98
0.82253	99.98
0.83920	99.98
0.85587	99.98
0.87253	99.98
0.88920	99.98
0.90587	99.98
0.92253	99.98
0.93920	99.98
0.95587	99.98
0.97253	99.98
0.98920	99.98
1.00587	99.98
1.02253	99.98
1.03920	99.98
1.05587	99.98
1.07253	99.98
1.08920	99.98
1.10587	99.98
1.12253	99.98
1.13920	99.98
1.15587	99.98
1.17253	99.98
1.18920	99.98
1.20587	99.99
1.22253	99.98
1.23920	99.98
1.25587	99.98
1.27253	99.99
1.28920	99.98
1.30587	99.98
1.32253	99.99
1.33920	99.99
1.35587	99.98
1.37253	99.99
1.38920	99.99
1.40587	99.99
1.42253	99.99
1.43920	99.99
1.45587	99.99
1.47253	99.99
1.48920	99.99
1.50587	99.99
1.52253	99.99
1.53920	99.99
1.55587	99.99
1.57253	99.99
1.58920	99.99
1.60587	99.99
1.62253	99.99
1.63920	99.99
1.65587	99.99
1.67253	99.99
1.68920	99.98
1.70587	99.99
1.72253	99.99
1.73920	99.99
1.75587	99.99
1.77253	99.99
1.78920	99.99
1.80587	99.98
1.82253	99.99
1.83920	99.99
1.85587	99.98
1.87253	99.98
1.88920	99.98
1.90587	99.98
1.92253	99.98
1.93920	99.98
1.95587	99.98
1.97253	99.98
1.98920	99.98
2.00587	99.98
2.02253	99.98
2.03920	99.98
2.05587	99.98
2.07253	99.98
2.08920	99.98
2.10587	99.98
2.12253	99.98
2.13920	99.98
2.15587	99.98
2.17253	99.97
2.18920	99.97
2.20587	99.97
2.22253	99.97
2.23920	99.97
2.25587	99.97
2.27253	99.97
2.28920	99.97
2.30587	99.97
2.32253	99.96
2.33920	99.97
2.35587	99.97
2.37253	99.97
2.38920	99.97
2.40587	99.97
2.42253	99.96
2.43920	99.96
2.45587	99.97
2.47253	99.97
2.48920	99.97
2.50587	99.97
2.52253	99.97
2.53920	99.97
2.55587	99.97
2.57253	99.97
2.58920	99.97
2.60587	99.97
2.62253	99.98
2.63920	99.98
2.65587	99.98
2.67253	99.98
2.68920	99.99
2.70587	99.98
2.72253	99.98
2.73920	99.99
2.75587	99.99
2.77253	99.99
2.78920	99.99
2.80587	99.99
2.82253	100.00
2.83920	100.00
2.85587	100.00
2.87253	100.00
2.88920	100.00
2.90587	100.00
2.92253	100.00
2.93920	100.00
2.95587	100.00
2.97253	100.00
2.98920	100.00
3.00587	100.00
3.02253	100.01
3.03920	100.01
3.05587	100.01
3.07253	100.01
3.08920	100.01
3.10587	100.01
3.12253	100.01
3.13920	100.01
3.15587	100.01
3.17253	100.01
3.18920	100.01
3.20587	100.02
3.22253	100.02
3.23920	100.01
3.25587	100.02
3.27253	100.02
3.28920	100.02
3.30587	100.01
3.32253	100.02
3.33920	100.02
3.35587	100.02
3.37253	100.02
3.38920	100.02
3.40587	100.02
3.42253	100.03
3.43920	100.03
3.45587	100.03
3.47253	100.02
3.48920	100.03
3.50587	100.03
3.52253	100.03
3.53920	100.03
3.55587	100.03
3.57253	100.03
3.58920	100.04
3.60587	100.04
3.62253	100.04
3.63920	100.04
3.65587	100.04
3.67253	100.04
3.68920	100.04
3.70587	100.04
3.72253	100.04
3.73920	100.04
3.75587	100.04
3.77253	100.04
3.78920	100.05
3.80587	100.04
3.82253	100.05
3.83920	100.04
3.85587	100.05
3.87253	100.04
3.88920	100.05
3.90587	100.05
3.92253	100.05
3.93920	100.05
3.95587	100.05
3.97253	100.05
3.98920	100.05

[Status Trace (Carrier Gas Pressure)]
Interval(msec)	1000
# of Points	240
Start Time(min)	0.006
End Time(min)	3.989
Intensity Units	
Intensity Multiplier	1
R.Time (min)	Intensity
0.00587	58.00
0.02253	55.74
0.03920	56.84
0.05587	59.06
0.07253	59.64
0.08920	58.12
0.10587	57.98
0.12253	58.01
0.13920	58.01
0.15587	58.01
0.17253	58.00
0.18920	58.00
0.20587	58.00
0.22253	58.00
0.23920	58.00
0.25587	58.00
0.27253	58.00
0.28920	58.00
0.30587	58.00
0.32253	58.00
0.33920	58.00
0.35587	58.00
0.37253	58.00
0.38920	58.00
0.40587	58.00
0.42253	58.00
0.43920	58.00
0.45587	58.00
0.47253	58.00
0.48920	58.00
0.50587	58.00
0.52253	58.00
0.53920	58.00
0.55587	58.00
0.57253	58.00
0.58920	58.00
0.60587	58.00
0.62253	58.00
0.63920	58.00
0.65587	58.00
0.67253	58.00
0.68920	58.00
0.70587	58.00
0.72253	58.00
0.73920	58.00
0.75587	58.00
0.77253	58.00
0.78920	58.00
0.80587	58.00
0.82253	58.00
0.83920	58.00
0.85587	58.00
0.87253	58.00
0.88920	58.00
0.90587	58.00
0.92253	58.00
0.93920	58.00
0.95587	58.00
0.97253	58.00
0.98920	58.00
1.00587	58.00
1.02253	58.00
1.03920	58.00
1.05587	58.00
1.07253	58.00
1.08920	58.00
1.10587	58.00
1.12253	58.00
1.13920	58.00
1.15587	58.00
1.17253	58.00
1.18920	58.00
1.20587	58.00
1.22253	58.00
1.23920	58.00
1.25587	58.00
1.27253	58.00
1.28920	58.00
1.30587	58.00
1.32253	58.00
1.33920	58.00
1.35587	58.00
1.37253	58.00
1.38920	58.00
1.40587	58.00
1.42253	58.00
1.43920	58.00
1.45587	58.00
1.47253	58.00
1.48920	58.00
1.50587	58.00
1.52253	58.00
1.53920	58.00
1.55587	58.00
1.57253	58.00
1.58920	58.00
1.60587	58.00
1.62253	58.00
1.63920	58.00
1.65587	58.00
1.67253	58.01
1.68920	58.01
1.70587	58.00
1.72253	58.00
1.73920	58.00
1.75587	58.00
1.77253	58.00
1.78920	58.00
1.80587	58.00
1.82253	58.00
1.83920	58.00
1.85587	58.00
1.87253	58.00
1.88920	58.00
1.90587	58.00
1.92253	58.00
1.93920	58.00
1.95587	58.00
1.97253	58.00
1.98920	58.00
2.00587	58.00
2.02253	58.00
2.03920	58.00
2.05587	58.00
2.07253	58.00
2.08920	58.00
2.10587	58.00
2.12253	58.00
2.13920	58.00
2.15587	58.00
2.17253	58.00
2.18920	58.00
2.20587	58.00
2.22253	58.00
2.23920	58.00
2.25587	58.00
2.27253	58.00
2.28920	58.00
2.30587	58.00
2.32253	58.00
2.33920	58.00
2.35587	58.00
2.37253	58.00
2.38920	57.99
2.40587	57.99
2.42253	58.00
2.43920	58.00
2.45587	58.00
2.47253	58.00
2.48920	58.00
2.50587	58.00
2.52253	57.98
2.53920	58.00
2.55587	58.00
2.57253	58.00
2.58920	58.00
2.60587	58.00
2.62253	58.00
2.63920	58.00
2.65587	58.00
2.67253	58.00
2.68920	58.00
2.70587	58.00
2.72253	58.00
2.73920	58.00
2.75587	58.00
2.77253	58.00
2.78920	58.00
2.80587	58.00
2.82253	58.00
2.83920	58.00
2.85587	58.00
2.87253	58.00
2.88920	58.00
2.90587	58.00
2.92253	58.00
2.93920	58.00
2.95587	58.00
2.97253	58.00
2.98920	58.00
3.00587	58.00
3.02253	58.00
3.03920	58.00
3.05587	58.00
3.07253	58.00
3.08920	58.00
3.10587	58.00
3.12253	58.00
3.13920	58.00
3.15587	58.00
3.17253	58.00
3.18920	58.00
3.20587	58.00
3.22253	58.00
3.23920	58.00
3.25587	58.00
3.27253	58.00
3.28920	58.00
3.30587	58.00
3.32253	58.00
3.33920	58.00
3.35587	58.00
3.37253	58.00
3.38920	58.00
3.40587	58.00
3.42253	58.00
3.43920	58.00
3.45587	58.00
3.47253	58.00
3.48920	58.00
3.50587	58.00
3.52253	58.00
3.53920	58.00
3.55587	58.00
3.57253	58.00
3.58920	58.00
3.60587	58.00
3.62253	58.00
3.63920	58.00
3.65587	58.00
3.67253	58.00
3.68920	58.00
3.70587	58.00
3.72253	58.00
3.73920	58.00
3.75587	58.00
3.77253	58.00
3.78920	58.00
3.80587	58.00
3.82253	58.00
3.83920	58.00
3.85587	58.00
3.87253	58.00
3.88920	58.00
3.90587	58.00
3.92253	58.00
3.93920	58.00
3.95587	58.00
3.97253	58.00
3.98920	58.00

[Status Trace (Carrier Gas Flow)]
Interval(msec)	1000
# of Points	240
Start Time(min)	0.006
End Time(min)	3.989
Intensity Units	
Intensity Multiplier	1
R.Time (min)	Intensity
0.00587	34.52
0.02253	34.54
0.03920	34.55
0.05587	34.55
0.07253	34.49
0.08920	34.52
0.10587	34.52
0.12253	34.52
0.13920	34.52
0.15587	34.52
0.17253	34.52
0.18920	34.52
0.20587	34.52
0.22253	34.51
0.23920	34.52
0.25587	34.52
0.27253	34.52
0.28920	34.52
0.30587	34.53
0.32253	34.51
0.33920	34.53
0.35587	34.52
0.37253	34.51
0.38920	34.52
0.40587	34.53
0.42253	34.52
0.43920	34.52
0.45587	34.52
0.47253	34.52
0.48920	34.52
0.50587	34.51
0.52253	34.53
0.53920	34.52
0.55587	34.52
0.57253	34.52
0.58920	34.52
0.60587	34.52
0.62253	34.52
0.63920	34.52
0.65587	34.52
0.67253	34.51
0.68920	34.52
0.70587	34.52
0.72253	34.53
0.73920	34.53
0.75587	34.52
0.77253	34.52
0.78920	34.52
0.80587	34.52
0.82253	34.52
0.83920	34.52
0.85587	34.52
0.87253	34.51
0.88920	34.52
0.90587	34.52
0.92253	34.52
0.93920	34.52
0.95587	34.51
0.97253	34.52
0.98920	34.52
1.00587	34.51
1.02253	34.52
1.03920	34.53
1.05587	34.51
1.07253	34.52
1.08920	34.52
1.10587	34.52
1.12253	34.52
1.13920	34.52
1.15587	34.52
1.17253	34.52
1.18920	34.52
1.20587	34.52
1.22253	34.52
1.23920	34.52
1.25587	34.52
1.27253	34.52
1.28920	34.52
1.30587	34.52
1.32253	34.50
1.33920	34.52
1.35587	34.52
1.37253	34.52
1.38920	34.52
1.40587	34.53
1.42253	34.53
1.43920	34.52
1.45587	34.52
1.47253	34.52
1.48920	34.52
1.50587	34.52
1.52253	34.52
1.53920	34.51
1.55587	34.52
1.57253	34.52
1.58920	34.52
1.60587	34.52
1.62253	34.52
1.63920	34.52
1.65587	34.52
1.67253	34.52
1.68920	34.52
1.70587	34.52
1.72253	34.52
1.73920	34.52
1.75587	34.51
1.77253	34.52
1.78920	34.52
1.80587	34.52
1.82253	34.52
1.83920	34.52
1.85587	34.52
1.87253	34.52
1.88920	34.52
1.90587	34.52
1.92253	34.52
1.93920	34.52
1.95587	34.52
1.97253	34.52
1.98920	34.52
2.00587	34.52
2.02253	34.52
2.03920	34.52
2.05587	34.52
2.07253	34.52
2.08920	34.52
2.10587	34.52
2.12253	34.52
2.13920	34.52
2.15587	34.52
2.17253	34.52
2.18920	34.52
2.20587	34.52
2.22253	34.52
2.23920	34.51
2.25587	34.52
2.27253	34.52
2.28920	34.52
2.30587	34.53
2.32253	34.51
2.33920	34.52
2.35587	34.52
2.37253	34.52
2.38920	34.51
2.40587	34.52
2.42253	34.52
2.43920	34.52
2.45587	34.51
2.47253	34.52
2.48920	34.52
2.50587	34.46
2.52253	34.52
2.53920	34.52
2.55587	34.52
2.57253	34.51
2.58920	34.51
2.60587	34.52
2.62253	34.52
2.63920	34.52
2.65587	34.52
2.67253	34.52
2.68920	34.53
2.70587	34.51
2.72253	34.51
2.73920	34.51
2.75587	34.52
2.77253	34.51
2.78920	34.52
2.80587	34.52
2.82253	34.51
2.83920	34.51
2.85587	34.53
2.87253	34.53
2.88920	34.52
2.90587	34.52
2.92253	34.52
2.93920	34.52
2.95587	34.53
2.97253	34.51
2.98920	34.52
3.00587	34.52
3.02253	34.52
3.03920	34.52
3.05587	34.53
3.07253	34.52
3.08920	34.52
3.10587	34.51
3.12253	34.52
3.13920	34.52
3.15587	34.52
3.17253	34.52
3.18920	34.52
3.20587	34.52
3.22253	34.52
3.23920	34.52
3.25587	34.52
3.27253	34.52
3.28920	34.52
3.30587	34.52
3.32253	34.52
3.33920	34.52
3.35587	34.52
3.37253	34.52
3.38920	34.52
3.40587	34.52
3.42253	34.52
3.43920	34.52
3.45587	34.52
3.47253	34.52
3.48920	34.52
3.50587	34.52
3.52253	34.52
3.53920	34.52
3.55587	34.52
3.57253	34.52
3.58920	34.52
3.60587	34.52
3.62253	34.52
3.63920	34.51
3.65587	34.52
3.67253	34.52
3.68920	34.51
3.70587	34.52
3.72253	34.52
3.73920	34.52
3.75587	34.52
3.77253	34.52
3.78920	34.52
3.80587	34.52
3.82253	34.52
3.83920	34.51
3.85587	34.52
3.87253	34.52
3.88920	34.51
3.90587	34.52
3.92253	34.51
3.93920	34.52
3.95587	34.52
3.97253	34.52
3.98920	34.52

[Status Trace (Column Flow)]
Interval(msec)	1000
# of Points	240
Start Time(min)	0.006
End Time(min)	3.989
Intensity Units	
Intensity Multiplier	1
R.Time (min)	Intensity
0.00587	5.54
0.02253	5.27
0.03920	5.40
0.05587	5.66
0.07253	5.73
0.08920	5.55
0.10587	5.53
0.12253	5.54
0.13920	5.54
0.15587	5.54
0.17253	5.54
0.18920	5.54
0.20587	5.54
0.22253	5.54
0.23920	5.54
0.25587	5.54
0.27253	5.54
0.28920	5.54
0.30587	5.54
0.32253	5.54
0.33920	5.54
0.35587	5.54
0.37253	5.54
0.38920	5.54
0.40587	5.54
0.42253	5.54
0.43920	5.54
0.45587	5.54
0.47253	5.54
0.48920	5.54
0.50587	5.54
0.52253	5.54
0.53920	5.54
0.55587	5.54
0.57253	5.54
0.58920	5.54
0.60587	5.54
0.62253	5.54
0.63920	5.54
0.65587	5.54
0.67253	5.54
0.68920	5.54
0.70587	5.54
0.72253	5.54
0.73920	5.54
0.75587	5.54
0.77253	5.54
0.78920	5.54
0.80587	5.54
0.82253	5.54
0.83920	5.54
0.85587	5.54
0.87253	5.54
0.88920	5.54
0.90587	5.54
0.92253	5.54
0.93920	5.54
0.95587	5.54
0.97253	5.54
0.98920	5.54
1.00587	5.54
1.02253	5.54
1.03920	5.54
1.05587	5.54
1.07253	5.54
1.08920	5.54
1.10587	5.54
1.12253	5.54
1.13920	5.54
1.15587	5.54
1.17253	5.54
1.18920	5.54
1.20587	5.54
1.22253	5.54
1.23920	5.54
1.25587	5.54
1.27253	5.54
1.28920	5.54
1.30587	5.54
1.32253	5.54
1.33920	5.54
1.35587	5.54
1.37253	5.54
1.38920	5.54
1.40587	5.54
1.42253	5.54
1.43920	5.54
1.45587	5.54
1.47253	5.54
1.48920	5.54
1.50587	5.54
1.52253	5.54
1.53920	5.54
1.55587	5.54
1.57253	5.54
1.58920	5.54
1.60587	5.54
1.62253	5.53
1.63920	5.53
1.65587	5.52
1.67253	5.51
1.68920	5.50
1.70587	5.49
1.72253	5.48
1.73920	5.47
1.75587	5.46
1.77253	5.45
1.78920	5.43
1.80587	5.42
1.82253	5.42
1.83920	5.41
1.85587	5.40
1.87253	5.38
1.88920	5.38
1.90587	5.37
1.92253	5.36
1.93920	5.35
1.95587	5.34
1.97253	5.33
1.98920	5.32
2.00587	5.31
2.02253	5.30
2.03920	5.29
2.05587	5.28
2.07253	5.27
2.08920	5.26
2.10587	5.25
2.12253	5.24
2.13920	5.23
2.15587	5.22
2.17253	5.21
2.18920	5.20
2.20587	5.19
2.22253	5.18
2.23920	5.17
2.25587	5.16
2.27253	5.15
2.28920	5.15
2.30587	5.14
2.32253	5.13
2.33920	5.12
2.35587	5.11
2.37253	5.10
2.38920	5.10
2.40587	5.10
2.42253	5.10
2.43920	5.10
2.45587	5.10
2.47253	5.10
2.48920	5.10
2.50587	5.10
2.52253	5.10
2.53920	5.10
2.55587	5.10
2.57253	5.10
2.58920	5.10
2.60587	5.10
2.62253	5.10
2.63920	5.10
2.65587	5.10
2.67253	5.10
2.68920	5.10
2.70587	5.10
2.72253	5.10
2.73920	5.10
2.75587	5.10
2.77253	5.10
2.78920	5.10
2.80587	5.10
2.82253	5.10
2.83920	5.10
2.85587	5.10
2.87253	5.10
2.88920	5.10
2.90587	5.10
2.92253	5.09
2.93920	5.09
2.95587	5.09
2.97253	5.09
2.98920	5.09
3.00587	5.09
3.02253	5.09
3.03920	5.09
3.05587	5.09
3.07253	5.09
3.08920	5.09
3.10587	5.09
3.12253	5.09
3.13920	5.09
3.15587	5.09
3.17253	5.09
3.18920	5.09
3.20587	5.09
3.22253	5.09
3.23920	5.09
3.25587	5.09
3.27253	5.09
3.28920	5.09
3.30587	5.09
3.32253	5.09
3.33920	5.09
3.35587	5.09
3.37253	5.09
3.38920	5.09
3.40587	5.09
3.42253	5.09
3.43920	5.09
3.45587	5.09
3.47253	5.09
3.48920	5.09
3.50587	5.09
3.52253	5.09
3.53920	5.09
3.55587	5.09
3.57253	5.09
3.58920	5.09
3.60587	5.09
3.62253	5.09
3.63920	5.09
3.65587	5.09
3.67253	5.09
3.68920	5.09
3.70587	5.09
3.72253	5.09
3.73920	5.09
3.75587	5.09
3.77253	5.09
3.78920	5.09
3.80587	5.09
3.82253	5.09
3.83920	5.09
3.85587	5.09
3.87253	5.09
3.88920	5.09
3.90587	5.09
3.92253	5.09
3.93920	5.09
3.95587	5.09
3.97253	5.09
3.98920	5.09

[Status Trace (Linear Velocity)]
Interval(msec)	1000
# of Points	240
Start Time(min)	0.006
End Time(min)	3.989
Intensity Units	
Intensity Multiplier	1
R.Time (min)	Intensity
0.00587	39.01
0.02253	37.53
0.03920	38.25
0.05587	39.71
0.07253	40.09
0.08920	39.09
0.10587	39.00
0.12253	39.02
0.13920	39.02
0.15587	39.02
0.17253	39.02
0.18920	39.02
0.20587	39.02
0.22253	39.02
0.23920	39.02
0.25587	39.02
0.27253	39.02
0.28920	39.02
0.30587	39.02
0.32253	39.02
0.33920	39.02
0.35587	39.02
0.37253	39.02
0.38920	39.02
0.40587	39.02
0.42253	39.02
0.43920	39.02
0.45587	39.02
0.47253	39.02
0.48920	39.02
0.50587	39.02
0.52253	39.02
0.53920	39.02
0.55587	39.02
0.57253	39.02
0.58920	39.02
0.60587	39.02
0.62253	39.02
0.63920	39.02
0.65587	39.02
0.67253	39.02
0.68920	39.02
0.70587	39.02
0.72253	39.02
0.73920	39.02
0.75587	39.02
0.77253	39.02
0.78920	39.02
0.80587	39.02
0.82253	39.02
0.83920	39.02
0.85587	39.02
0.87253	39.02
0.88920	39.02
0.90587	39.02
0.92253	39.02
0.93920	39.02
0.95587	39.02
0.97253	39.02
0.98920	39.02
1.00587	39.02
1.02253	39.02
1.03920	39.02
1.05587	39.02
1.07253	39.02
1.08920	39.02
1.10587	39.02
1.12253	39.02
1.13920	39.02
1.15587	39.02
1.17253	39.02
1.18920	39.02
1.20587	39.02
1.22253	39.02
1.23920	39.02
1.25587	39.02
1.27253	39.02
1.28920	39.02
1.30587	39.02
1.32253	39.02
1.33920	39.02
1.35587	39.02
1.37253	39.02
1.38920	39.02
1.40587	39.02
1.42253	39.02
1.43920	39.02
1.45587	39.02
1.47253	39.02
1.48920	39.02
1.50587	39.02
1.52253	39.02
1.53920	39.02
1.55587	39.02
1.57253	39.02
1.58920	39.02
1.60587	39.02
1.62253	39.01
1.63920	38.99
1.65587	38.97
1.67253	38.94
1.68920	38.90
1.70587	38.86
1.72253	38.83
1.73920	38.80
1.75587	38.77
1.77253	38.74
1.78920	38.71
1.80587	38.67
1.82253	38.64
1.83920	38.62
1.85587	38.58
1.87253	38.55
1.88920	38.52
1.90587	38.49
1.92253	38.46
1.93920	38.43
1.95587	38.40
1.97253	38.37
1.98920	38.34
2.00587	38.31
2.02253	38.28
2.03920	38.25
2.05587	38.22
2.07253	38.19
2.08920	38.16
2.10587	38.13
2.12253	38.10
2.13920	38.07
2.15587	38.04
2.17253	38.01
2.18920	37.98
2.20587	37.95
2.22253	37.92
2.23920	37.89
2.25587	37.86
2.27253	37.83
2.28920	37.80
2.30587	37.77
2.32253	37.74
2.33920	37.72
2.35587	37.69
2.37253	37.67
2.38920	37.66
2.40587	37.66
2.42253	37.66
2.43920	37.66
2.45587	37.66
2.47253	37.66
2.48920	37.66
2.50587	37.65
2.52253	37.65
2.53920	37.65
2.55587	37.65
2.57253	37.65
2.58920	37.65
2.60587	37.65
2.62253	37.65
2.63920	37.65
2.65587	37.65
2.67253	37.65
2.68920	37.65
2.70587	37.65
2.72253	37.65
2.73920	37.65
2.75587	37.65
2.77253	37.65
2.78920	37.65
2.80587	37.64
2.82253	37.64
2.83920	37.64
2.85587	37.64
2.87253	37.64
2.88920	37.64
2.90587	37.64
2.92253	37.64
2.93920	37.64
2.95587	37.64
2.97253	37.64
2.98920	37.63
3.00587	37.63
3.02253	37.63
3.03920	37.63
3.05587	37.63
3.07253	37.63
3.08920	37.63
3.10587	37.63
3.12253	37.63
3.13920	37.63
3.15587	37.63
3.17253	37.63
3.18920	37.63
3.20587	37.63
3.22253	37.63
3.23920	37.63
3.25587	37.63
3.27253	37.63
3.28920	37.63
3.30587	37.63
3.32253	37.63
3.33920	37.63
3.35587	37.63
3.37253	37.63
3.38920	37.63
3.40587	37.63
3.42253	37.63
3.43920	37.63
3.45587	37.63
3.47253	37.63
3.48920	37.63
3.50587	37.63
3.52253	37.63
3.53920	37.63
3.55587	37.63
3.57253	37.63
3.58920	37.63
3.60587	37.63
3.62253	37.63
3.63920	37.63
3.65587	37.63
3.67253	37.63
3.68920	37.63
3.70587	37.63
3.72253	37.63
3.73920	37.63
3.75587	37.63
3.77253	37.63
3.78920	37.63
3.80587	37.63
3.82253	37.63
3.83920	37.63
3.85587	37.63
3.87253	37.63
3.88920	37.63
3.90587	37.63
3.92253	37.63
3.93920	37.63
3.95587	37.63
3.97253	37.63
3.98920	37.63

