[Header]
Application Name	LabSolutions
Version	5.110
Data File Name	C:\Users\User\Desktop\GC Analyses\Jack\Nachusa Grasslands Sampling\T3 Timepoint July 12th\T3_07122022_054.gcd
Output Date	3/14/2023
Output Time	3:43:33 PM

[File Information]
Type	Data File
Generated	3/13/2023 8:29:08 PM
Generated by	System Administrator
Modified	3/13/2023 8:35:59 PM
Modified by	System Administrator

[Sample Information]
Operator Name	System Administrator
Acquired	3/13/2023 8:31:59 PM
Sample Type	0:Unknown
Level	0
Sample Name	054
Sample ID	054
ISTD Amount1	1
ISTD Amount2	1
ISTD Amount3	1
ISTD Amount4	1
ISTD Amount5	1
ISTD Amount6	1
ISTD Amount7	1
ISTD Amount8	1
ISTD Amount9	1
ISTD Amount10	1
ISTD Amount11	1
ISTD Amount12	1
ISTD Amount13	1
ISTD Amount14	1
ISTD Amount15	1
ISTD Amount16	1
ISTD Amount17	1
ISTD Amount18	1
ISTD Amount19	1
ISTD Amount20	1
ISTD Amount21	1
ISTD Amount22	1
ISTD Amount23	1
ISTD Amount24	1
ISTD Amount25	1
ISTD Amount26	1
ISTD Amount27	1
ISTD Amount28	1
ISTD Amount29	1
ISTD Amount30	1
ISTD Amount31	1
ISTD Amount32	1
Sample Amount	1
Dilution Factor	1
Vial#	53
Injection Volume	1
Injection Count	1
Bar Code	

[Original Files]
Data File	C:\Users\User\Desktop\GC Analyses\Jack\Nachusa Grasslands Sampling\T3 Timepoint July 12th\T3_07122022_054.gcd
Method File	C:\LabSolutions\Data\GHG_4min_2022\ghg3_togas_w_acet_4 min_new_int.gcm
Batch File	C:\LabSolutions\Data\AutoSamplerTesting\T3_07122022.gcb
Report Format File	c:\LabSolutions\System\DEFAULT.lsr

[File Description]


[Configuration]
Instrument Name	C0B7VH3-Instrument1
Instrument #	1
Line #	1
# of Detectors	3
Detector ID	DET#1	DET#2	DET#3
Detector Name	FID	PTCD	ECD
# of Channels	1	1	1

[Peak Table(Ch1)]
# of Peaks	3
Peak#	R.Time	I.Time	F.Time	Area	Height	A/H	Conc.	Mark	ID#	Name	k'	Plate #	Plate Ht.	Tailing	Resolution	Sep.Factor	Area Ratio	Height Ratio	Conc. %	Norm Conc.
1	1.476	1.435	1.534	34298	17011	2.016	242.143	   	1	CO	0.000	9667	15.516	1.255	0.000	0.000	0	0	21.624	21.624
2	1.571	1.538	1.633	4131	2119	1.950	79.882	   	2	CH4	0.065	11868	12.639	1.151	1.620	0.000	0	0	7.134	7.134
3	1.996	1.949	2.381	3178610	1530699	2.077	797.745	   	3	CO2	0.353	17450	8.596	1.330	7.201	5.462	0	0	71.242	71.242

[Peak Table(Ch2)]
# of Peaks	0

[Peak Table(Ch3)]
# of Peaks	5
Peak#	R.Time	I.Time	F.Time	Area	Height	A/H	Conc.	Mark	ID#	Name	k'	Plate #	Plate Ht.	Tailing	Resolution	Sep.Factor	Area Ratio	Height Ratio	Conc. %	Norm Conc.
1	2.462	2.293	2.510	2116	628	3.368	0.000	   			0.000	10233	14.658	0.000	0.000	0.000	0	0	0.000	0.000
2	2.528	2.510	2.583	1106	360	3.073	0.000	 V 			0.027	6044	24.817	0.000	0.580	0.000	0	0	0.000	0.000
3	2.598	2.583	2.682	522	162	3.235	0.000	 V 			0.055	1559	96.232	0.000	0.354	2.056	0	0	0.000	0.000
4	2.880	2.708	3.063	18050	4663	3.871	0.461	   	1	N2O	0.170	13144	11.412	1.503	1.553	3.081	0	0	100.000	100.000
5	3.514	3.181	3.632	1436	81	17.666	0.000	   			0.427	1197	125.308	0.678	2.503	2.518	0	0	0.000	0.000

[Compound Results(Ch1)]
# of IDs	6
ID#	Name	R.Time	Area	Height	Conc.	Curve	3rd	2nd	1st	Constant	Area Ratio	Height Ratio	Conc. %	Norm Conc.
1	CO	1.476	34298	17011	242.143	Linear	0.000000e+00	0.000000e+00	1.416423e+002	0.000000e+00	0	0	21.624	21.624
2	CH4	1.571	4131	2119	79.882	Linear	0.000000e+00	0.000000e+00	5.171738e+001	0.000000e+00	0	0	7.134	7.134
3	CO2	1.996	3178610	1530699	797.745	Linear	0.000000e+00	0.000000e+00	3.984494e+003	0.000000e+00	0	0	71.242	71.242
4	Ethylene	0.000	0	0	0.000	Linear	0.000000e+00	0.000000e+00	0.000000e+00	0.000000e+00	0	0	0.000	0.000
5	Acetylene	0.000	0	0	0.000	Linear	0.000000e+00	0.000000e+00	0.000000e+00	0.000000e+00	0	0	0.000	0.000
6	Ethane	0.000	0	0	0.000	Linear	0.000000e+00	0.000000e+00	0.000000e+00	0.000000e+00	0	0	0.000	0.000

[Compound Results(Ch2)]
# of IDs	5
ID#	Name	R.Time	Area	Height	Conc.	Curve	3rd	2nd	1st	Constant	Area Ratio	Height Ratio	Conc. %	Norm Conc.
1	Hydrogen	0.000	0	0	0.000	Linear	0.000000e+00	0.000000e+00	0.000000e+00	0.000000e+00	0	0	0.000	0.000
2	Oxygen	0.000	0	0	0.000	Linear	0.000000e+00	0.000000e+00	0.000000e+00	0.000000e+00	0	0	0.000	0.000
3	Nitrogen	0.000	0	0	0.000	Linear	0.000000e+00	0.000000e+00	0.000000e+00	0.000000e+00	0	0	0.000	0.000
4	Methane	0.000	0	0	0.000	Linear	0.000000e+00	0.000000e+00	0.000000e+00	0.000000e+00	0	0	0.000	0.000
5	Carbon Monoxide	0.000	0	0	0.000	Linear	0.000000e+00	0.000000e+00	0.000000e+00	0.000000e+00	0	0	0.000	0.000

[Compound Results(Ch3)]
# of IDs	2
ID#	Name	R.Time	Area	Height	Conc.	Curve	3rd	2nd	1st	Constant	Area Ratio	Height Ratio	Conc. %	Norm Conc.
1	N2O	2.880	18050	4663	0.461	Linear	0.000000e+00	0.000000e+00	3.915173e+004	0.000000e+00	0	0	100.000	100.000
2	SF6	0.000	0	0	0.000	Linear	0.000000e+00	0.000000e+00	0.000000e+00	0.000000e+00	0	0	0.000	0.000

[Group Results(Ch1)]
# of Groups	0

[Group Results(Ch2)]
# of Groups	0

[Group Results(Ch3)]
# of Groups	0

[Chromatogram (Ch1)]
Interval(msec)	220
# of Points	1091
Start Time(min)	0.002
End Time(min)	3.998
R.Time (min)	Intensity
0.00167	25
0.00533	31
0.00900	32
0.01267	32
0.01633	32
0.02000	31
0.02367	30
0.02733	31
0.03100	28
0.03467	26
0.03833	26
0.04200	28
0.04567	29
0.04933	30
0.05300	34
0.05667	41
0.06033	47
0.06400	51
0.06767	55
0.07133	51
0.07500	41
0.07867	28
0.08233	16
0.08600	9
0.08967	7
0.09333	14
0.09700	21
0.10067	25
0.10433	30
0.10800	37
0.11167	43
0.11533	46
0.11900	43
0.12267	39
0.12633	35
0.13000	31
0.13367	30
0.13733	30
0.14100	31
0.14467	32
0.14833	31
0.15200	29
0.15567	30
0.15933	30
0.16300	30
0.16667	31
0.17033	33
0.17400	36
0.17767	47
0.18133	61
0.18500	69
0.18867	67
0.19233	57
0.19600	45
0.19967	32
0.20333	24
0.20700	18
0.21067	15
0.21433	15
0.21800	16
0.22167	22
0.22533	32
0.22900	38
0.23267	39
0.23633	39
0.24000	38
0.24367	40
0.24733	43
0.25100	44
0.25467	46
0.25833	45
0.26200	39
0.26567	35
0.26933	36
0.27300	35
0.27667	35
0.28033	39
0.28400	42
0.28767	42
0.29133	42
0.29500	41
0.29867	40
0.30233	39
0.30600	41
0.30967	42
0.31333	40
0.31700	33
0.32067	31
0.32433	33
0.32800	39
0.33167	45
0.33533	52
0.33900	60
0.34267	66
0.34633	62
0.35000	50
0.35367	35
0.35733	27
0.36100	22
0.36467	20
0.36833	22
0.37200	26
0.37567	28
0.37933	30
0.38300	34
0.38667	42
0.39033	50
0.39400	50
0.39767	46
0.40133	42
0.40500	43
0.40867	44
0.41233	45
0.41600	45
0.41967	45
0.42333	44
0.42700	44
0.43067	42
0.43433	41
0.43800	40
0.44167	39
0.44533	42
0.44900	45
0.45267	44
0.45633	41
0.46000	40
0.46367	42
0.46733	45
0.47100	49
0.47467	54
0.47833	58
0.48200	63
0.48567	68
0.48933	71
0.49300	69
0.49667	66
0.50033	58
0.50400	49
0.50767	47
0.51133	47
0.51500	50
0.51867	52
0.52233	51
0.52600	50
0.52967	46
0.53333	43
0.53700	42
0.54067	43
0.54433	47
0.54800	50
0.55167	50
0.55533	47
0.55900	49
0.56267	53
0.56633	57
0.57000	59
0.57367	56
0.57733	52
0.58100	47
0.58467	51
0.58833	67
0.59200	80
0.59567	81
0.59933	77
0.60300	69
0.60667	60
0.61033	53
0.61400	49
0.61767	46
0.62133	48
0.62500	49
0.62867	47
0.63233	47
0.63600	42
0.63967	39
0.64333	41
0.64700	51
0.65067	62
0.65433	69
0.65800	71
0.66167	71
0.66533	66
0.66900	58
0.67267	51
0.67633	48
0.68000	48
0.68367	53
0.68733	59
0.69100	63
0.69467	61
0.69833	58
0.70200	56
0.70567	52
0.70933	49
0.71300	51
0.71667	54
0.72033	58
0.72400	64
0.72767	69
0.73133	69
0.73500	64
0.73867	61
0.74233	61
0.74600	61
0.74967	60
0.75333	61
0.75700	65
0.76067	66
0.76433	64
0.76800	59
0.77167	54
0.77533	48
0.77900	42
0.78267	40
0.78633	44
0.79000	52
0.79367	62
0.79733	68
0.80100	67
0.80467	63
0.80833	60
0.81200	57
0.81567	54
0.81933	52
0.82300	55
0.82667	61
0.83033	66
0.83400	67
0.83767	65
0.84133	60
0.84500	57
0.84867	57
0.85233	57
0.85600	61
0.85967	66
0.86333	67
0.86700	67
0.87067	67
0.87433	70
0.87800	76
0.88167	84
0.88533	90
0.88900	90
0.89267	86
0.89633	85
0.90000	91
0.90367	97
0.90733	97
0.91100	96
0.91467	92
0.91833	91
0.92200	93
0.92567	93
0.92933	92
0.93300	90
0.93667	85
0.94033	83
0.94400	85
0.94767	83
0.95133	76
0.95500	68
0.95867	64
0.96233	62
0.96600	61
0.96967	64
0.97333	69
0.97700	71
0.98067	74
0.98433	75
0.98800	76
0.99167	80
0.99533	84
0.99900	88
1.00267	95
1.00633	99
1.01000	98
1.01367	98
1.01733	97
1.02100	96
1.02467	94
1.02833	92
1.03200	92
1.03567	94
1.03933	97
1.04300	100
1.04667	107
1.05033	113
1.05400	115
1.05767	110
1.06133	97
1.06500	82
1.06867	74
1.07233	73
1.07600	75
1.07967	81
1.08333	88
1.08700	93
1.09067	97
1.09433	99
1.09800	99
1.10167	94
1.10533	87
1.10900	79
1.11267	72
1.11633	68
1.12000	65
1.12367	63
1.12733	64
1.13100	68
1.13467	73
1.13833	77
1.14200	80
1.14567	81
1.14933	82
1.15300	84
1.15667	86
1.16033	88
1.16400	90
1.16767	95
1.17133	98
1.17500	95
1.17867	86
1.18233	78
1.18600	78
1.18967	79
1.19333	76
1.19700	69
1.20067	62
1.20433	58
1.20800	57
1.21167	63
1.21533	74
1.21900	80
1.22267	78
1.22633	73
1.23000	71
1.23367	66
1.23733	63
1.24100	63
1.24467	66
1.24833	71
1.25200	74
1.25567	74
1.25933	74
1.26300	77
1.26667	78
1.27033	81
1.27400	85
1.27767	82
1.28133	75
1.28500	71
1.28867	68
1.29233	60
1.29600	54
1.29967	55
1.30333	63
1.30700	69
1.31067	72
1.31433	72
1.31800	69
1.32167	65
1.32533	58
1.32900	51
1.33267	52
1.33633	57
1.34000	64
1.34367	68
1.34733	68
1.35100	66
1.35467	67
1.35833	68
1.36200	72
1.36567	77
1.36933	72
1.37300	65
1.37667	63
1.38033	66
1.38400	74
1.38767	82
1.39133	85
1.39500	79
1.39867	70
1.40233	64
1.40600	61
1.40967	54
1.41333	41
1.41700	25
1.42067	14
1.42433	10
1.42800	10
1.43167	11
1.43533	15
1.43900	33
1.44267	89
1.44633	287
1.45000	895
1.45367	2401
1.45733	5061
1.46100	8396
1.46467	11649
1.46833	14318
1.47200	16161
1.47567	17011
1.47933	16724
1.48300	15303
1.48667	13020
1.49033	10354
1.49400	7778
1.49767	5588
1.50133	3876
1.50500	2616
1.50867	1725
1.51233	1111
1.51600	691
1.51967	404
1.52333	211
1.52700	87
1.53067	14
1.53433	-22
1.53800	-31
1.54167	9
1.54533	148
1.54900	430
1.55267	824
1.55633	1240
1.56000	1607
1.56367	1888
1.56733	2058
1.57100	2085
1.57467	1951
1.57833	1671
1.58200	1317
1.58567	969
1.58933	675
1.59300	449
1.59667	288
1.60033	179
1.60400	108
1.60767	62
1.61133	31
1.61500	9
1.61867	-6
1.62233	-13
1.62600	-22
1.62967	-31
1.63333	-37
1.63700	-41
1.64067	-44
1.64433	-47
1.64800	-50
1.65167	-51
1.65533	-52
1.65900	-53
1.66267	-49
1.66633	-43
1.67000	-36
1.67367	-32
1.67733	-31
1.68100	-29
1.68467	-26
1.68833	-28
1.69200	-38
1.69567	-49
1.69933	-55
1.70300	-53
1.70667	-48
1.71033	-47
1.71400	-44
1.71767	-33
1.72133	-24
1.72500	-18
1.72867	-16
1.73233	-18
1.73600	-22
1.73967	-26
1.74333	-31
1.74700	-38
1.75067	-42
1.75433	-43
1.75800	-40
1.76167	-33
1.76533	-22
1.76900	-12
1.77267	-12
1.77633	-14
1.78000	-16
1.78367	-14
1.78733	-12
1.79100	-11
1.79467	-4
1.79833	6
1.80200	12
1.80567	14
1.80933	11
1.81300	3
1.81667	-6
1.82033	-13
1.82400	-13
1.82767	-7
1.83133	1
1.83500	5
1.83867	8
1.84233	11
1.84600	10
1.84967	4
1.85333	-7
1.85700	-18
1.86067	-26
1.86433	-32
1.86800	-34
1.87167	-31
1.87533	-26
1.87900	-16
1.88267	-2
1.88633	7
1.89000	6
1.89367	0
1.89733	-2
1.90100	-2
1.90467	2
1.90833	7
1.91200	16
1.91567	23
1.91933	24
1.92300	22
1.92667	20
1.93033	24
1.93400	30
1.93767	37
1.94133	39
1.94500	36
1.94867	36
1.95233	58
1.95600	208
1.95967	1130
1.96333	5749
1.96700	23482
1.97067	75621
1.97433	192904
1.97800	395760
1.98167	670705
1.98533	971017
1.98900	1241057
1.99267	1436501
1.99633	1530772
2.00000	1515967
2.00367	1402040
2.00733	1215692
2.01100	993160
2.01467	769763
2.01833	571153
2.02200	409842
2.02567	287309
2.02933	198619
2.03300	136551
2.03667	94070
2.04033	65380
2.04400	46121
2.04767	33192
2.05133	24464
2.05500	18508
2.05867	14380
2.06233	11465
2.06600	9368
2.06967	7825
2.07333	6659
2.07700	5753
2.08067	5036
2.08433	4455
2.08800	3981
2.09167	3591
2.09533	3267
2.09900	2994
2.10267	2761
2.10633	2554
2.11000	2369
2.11367	2205
2.11733	2065
2.12100	1945
2.12467	1842
2.12833	1749
2.13200	1662
2.13567	1578
2.13933	1503
2.14300	1441
2.14667	1386
2.15033	1332
2.15400	1280
2.15767	1228
2.16133	1179
2.16500	1132
2.16867	1089
2.17233	1051
2.17600	1018
2.17967	984
2.18333	951
2.18700	920
2.19067	891
2.19433	864
2.19800	841
2.20167	820
2.20533	797
2.20900	776
2.21267	759
2.21633	744
2.22000	732
2.22367	723
2.22733	713
2.23100	702
2.23467	686
2.23833	670
2.24200	657
2.24567	646
2.24933	632
2.25300	615
2.25667	597
2.26033	580
2.26400	563
2.26767	545
2.27133	526
2.27500	516
2.27867	512
2.28233	506
2.28600	500
2.28967	497
2.29333	494
2.29700	492
2.30067	491
2.30433	490
2.30800	491
2.31167	496
2.31533	495
2.31900	490
2.32267	483
2.32633	473
2.33000	464
2.33367	457
2.33733	448
2.34100	438
2.34467	435
2.34833	435
2.35200	430
2.35567	415
2.35933	399
2.36300	388
2.36667	385
2.37033	385
2.37400	382
2.37767	377
2.38133	373
2.38500	370
2.38867	370
2.39233	371
2.39600	371
2.39967	374
2.40333	376
2.40700	376
2.41067	373
2.41433	372
2.41800	373
2.42167	376
2.42533	383
2.42900	390
2.43267	393
2.43633	392
2.44000	390
2.44367	388
2.44733	388
2.45100	384
2.45467	382
2.45833	380
2.46200	382
2.46567	382
2.46933	376
2.47300	362
2.47667	347
2.48033	338
2.48400	333
2.48767	334
2.49133	341
2.49500	353
2.49867	362
2.50233	363
2.50600	363
2.50967	364
2.51333	368
2.51700	376
2.52067	383
2.52433	380
2.52800	375
2.53167	371
2.53533	370
2.53900	370
2.54267	364
2.54633	352
2.55000	342
2.55367	334
2.55733	328
2.56100	327
2.56467	329
2.56833	330
2.57200	330
2.57567	329
2.57933	328
2.58300	330
2.58667	334
2.59033	339
2.59400	340
2.59767	337
2.60133	332
2.60500	329
2.60867	324
2.61233	317
2.61600	313
2.61967	316
2.62333	322
2.62700	328
2.63067	333
2.63433	338
2.63800	345
2.64167	348
2.64533	346
2.64900	342
2.65267	337
2.65633	333
2.66000	332
2.66367	337
2.66733	343
2.67100	346
2.67467	351
2.67833	354
2.68200	350
2.68567	342
2.68933	337
2.69300	336
2.69667	335
2.70033	337
2.70400	342
2.70767	348
2.71133	350
2.71500	348
2.71867	345
2.72233	342
2.72600	338
2.72967	336
2.73333	335
2.73700	338
2.74067	341
2.74433	345
2.74800	352
2.75167	358
2.75533	362
2.75900	361
2.76267	353
2.76633	347
2.77000	342
2.77367	339
2.77733	342
2.78100	346
2.78467	352
2.78833	360
2.79200	367
2.79567	368
2.79933	368
2.80300	370
2.80667	373
2.81033	370
2.81400	365
2.81767	362
2.82133	362
2.82500	361
2.82867	358
2.83233	353
2.83600	344
2.83967	333
2.84333	330
2.84700	327
2.85067	324
2.85433	322
2.85800	322
2.86167	324
2.86533	326
2.86900	325
2.87267	322
2.87633	320
2.88000	322
2.88367	330
2.88733	343
2.89100	356
2.89467	364
2.89833	362
2.90200	352
2.90567	340
2.90933	339
2.91300	340
2.91667	345
2.92033	349
2.92400	353
2.92767	358
2.93133	363
2.93500	368
2.93867	365
2.94233	355
2.94600	345
2.94967	337
2.95333	331
2.95700	328
2.96067	333
2.96433	344
2.96800	349
2.97167	353
2.97533	359
2.97900	362
2.98267	362
2.98633	361
2.99000	361
2.99367	361
2.99733	361
3.00100	362
3.00467	362
3.00833	361
3.01200	359
3.01567	355
3.01933	351
3.02300	351
3.02667	354
3.03033	358
3.03400	362
3.03767	367
3.04133	368
3.04500	367
3.04867	370
3.05233	373
3.05600	376
3.05967	380
3.06333	380
3.06700	378
3.07067	375
3.07433	370
3.07800	363
3.08167	354
3.08533	348
3.08900	348
3.09267	349
3.09633	350
3.10000	349
3.10367	350
3.10733	352
3.11100	354
3.11467	353
3.11833	351
3.12200	357
3.12567	369
3.12933	380
3.13300	388
3.13667	389
3.14033	386
3.14400	374
3.14767	359
3.15133	348
3.15500	343
3.15867	345
3.16233	350
3.16600	353
3.16967	347
3.17333	338
3.17700	332
3.18067	329
3.18433	330
3.18800	335
3.19167	345
3.19533	348
3.19900	344
3.20267	342
3.20633	342
3.21000	343
3.21367	347
3.21733	353
3.22100	360
3.22467	365
3.22833	368
3.23200	372
3.23567	367
3.23933	357
3.24300	353
3.24667	352
3.25033	351
3.25400	347
3.25767	347
3.26133	348
3.26500	344
3.26867	347
3.27233	356
3.27600	361
3.27967	357
3.28333	351
3.28700	343
3.29067	337
3.29433	333
3.29800	336
3.30167	339
3.30533	343
3.30900	347
3.31267	347
3.31633	345
3.32000	343
3.32367	346
3.32733	354
3.33100	354
3.33467	347
3.33833	338
3.34200	333
3.34567	329
3.34933	327
3.35300	325
3.35667	325
3.36033	328
3.36400	331
3.36767	331
3.37133	332
3.37500	330
3.37867	327
3.38233	324
3.38600	320
3.38967	319
3.39333	322
3.39700	328
3.40067	337
3.40433	345
3.40800	351
3.41167	354
3.41533	357
3.41900	358
3.42267	352
3.42633	341
3.43000	330
3.43367	322
3.43733	319
3.44100	321
3.44467	326
3.44833	330
3.45200	334
3.45567	337
3.45933	336
3.46300	330
3.46667	323
3.47033	318
3.47400	314
3.47767	312
3.48133	314
3.48500	315
3.48867	315
3.49233	315
3.49600	313
3.49967	313
3.50333	317
3.50700	325
3.51067	333
3.51433	334
3.51800	326
3.52167	315
3.52533	308
3.52900	307
3.53267	310
3.53633	312
3.54000	316
3.54367	323
3.54733	326
3.55100	323
3.55467	317
3.55833	309
3.56200	304
3.56567	299
3.56933	293
3.57300	287
3.57667	282
3.58033	277
3.58400	273
3.58767	271
3.59133	274
3.59500	280
3.59867	289
3.60233	297
3.60600	303
3.60967	302
3.61333	296
3.61700	289
3.62067	286
3.62433	288
3.62800	292
3.63167	294
3.63533	295
3.63900	297
3.64267	299
3.64633	300
3.65000	299
3.65367	297
3.65733	294
3.66100	288
3.66467	283
3.66833	279
3.67200	276
3.67567	277
3.67933	281
3.68300	292
3.68667	303
3.69033	307
3.69400	304
3.69767	294
3.70133	286
3.70500	285
3.70867	288
3.71233	291
3.71600	294
3.71967	293
3.72333	287
3.72700	279
3.73067	271
3.73433	268
3.73800	269
3.74167	271
3.74533	269
3.74900	266
3.75267	265
3.75633	265
3.76000	268
3.76367	269
3.76733	268
3.77100	265
3.77467	264
3.77833	265
3.78200	266
3.78567	260
3.78933	255
3.79300	250
3.79667	243
3.80033	236
3.80400	235
3.80767	239
3.81133	245
3.81500	250
3.81867	253
3.82233	254
3.82600	256
3.82967	259
3.83333	259
3.83700	254
3.84067	254
3.84433	259
3.84800	270
3.85167	281
3.85533	288
3.85900	290
3.86267	283
3.86633	272
3.87000	262
3.87367	254
3.87733	249
3.88100	245
3.88467	248
3.88833	255
3.89200	260
3.89567	260
3.89933	257
3.90300	250
3.90667	243
3.91033	240
3.91400	238
3.91767	236
3.92133	236
3.92500	237
3.92867	239
3.93233	239
3.93600	239
3.93967	239
3.94333	240
3.94700	246
3.95067	250
3.95433	250
3.95800	246
3.96167	242
3.96533	240
3.96900	239
3.97267	236
3.97633	234
3.98000	236
3.98367	241
3.98733	244
3.99100	244
3.99467	246
3.99833	247

[Chromatogram (Ch2)]
Interval(msec)	220
# of Points	1091
Start Time(min)	0.002
End Time(min)	3.998
R.Time (min)	Intensity
0.00167	0
0.00533	0
0.00900	0
0.01267	0
0.01633	-0
0.02000	-0
0.02367	-1
0.02733	-1
0.03100	-1
0.03467	-1
0.03833	-0
0.04200	-0
0.04567	-0
0.04933	-0
0.05300	-0
0.05667	-0
0.06033	-0
0.06400	-0
0.06767	0
0.07133	0
0.07500	1
0.07867	1
0.08233	1
0.08600	1
0.08967	2
0.09333	2
0.09700	2
0.10067	3
0.10433	3
0.10800	3
0.11167	3
0.11533	3
0.11900	3
0.12267	3
0.12633	3
0.13000	3
0.13367	3
0.13733	3
0.14100	3
0.14467	2
0.14833	2
0.15200	2
0.15567	2
0.15933	2
0.16300	2
0.16667	2
0.17033	2
0.17400	2
0.17767	3
0.18133	2
0.18500	2
0.18867	2
0.19233	2
0.19600	2
0.19967	2
0.20333	2
0.20700	2
0.21067	2
0.21433	2
0.21800	2
0.22167	2
0.22533	2
0.22900	2
0.23267	2
0.23633	2
0.24000	2
0.24367	2
0.24733	2
0.25100	2
0.25467	2
0.25833	2
0.26200	2
0.26567	1
0.26933	1
0.27300	2
0.27667	2
0.28033	2
0.28400	2
0.28767	2
0.29133	2
0.29500	3
0.29867	3
0.30233	3
0.30600	3
0.30967	2
0.31333	2
0.31700	2
0.32067	2
0.32433	1
0.32800	1
0.33167	0
0.33533	0
0.33900	-0
0.34267	-0
0.34633	-0
0.35000	-1
0.35367	-1
0.35733	-1
0.36100	-1
0.36467	-1
0.36833	-1
0.37200	-1
0.37567	-1
0.37933	-0
0.38300	0
0.38667	0
0.39033	1
0.39400	1
0.39767	1
0.40133	1
0.40500	2
0.40867	2
0.41233	2
0.41600	2
0.41967	2
0.42333	1
0.42700	1
0.43067	1
0.43433	1
0.43800	1
0.44167	0
0.44533	0
0.44900	0
0.45267	-0
0.45633	-0
0.46000	-0
0.46367	-0
0.46733	0
0.47100	0
0.47467	0
0.47833	0
0.48200	0
0.48567	-0
0.48933	-0
0.49300	-0
0.49667	-0
0.50033	-0
0.50400	-0
0.50767	-0
0.51133	-0
0.51500	-0
0.51867	-0
0.52233	-0
0.52600	-0
0.52967	-0
0.53333	-0
0.53700	-0
0.54067	-0
0.54433	0
0.54800	0
0.55167	1
0.55533	1
0.55900	1
0.56267	1
0.56633	1
0.57000	1
0.57367	1
0.57733	2
0.58100	2
0.58467	2
0.58833	2
0.59200	2
0.59567	2
0.59933	2
0.60300	1
0.60667	1
0.61033	0
0.61400	-0
0.61767	-1
0.62133	-1
0.62500	-1
0.62867	-1
0.63233	-1
0.63600	-1
0.63967	-1
0.64333	-1
0.64700	-1
0.65067	-1
0.65433	-2
0.65800	-2
0.66167	-2
0.66533	-2
0.66900	-2
0.67267	-2
0.67633	-2
0.68000	-2
0.68367	-2
0.68733	-2
0.69100	-2
0.69467	-2
0.69833	-2
0.70200	-2
0.70567	-2
0.70933	-2
0.71300	-2
0.71667	-2
0.72033	-1
0.72400	-1
0.72767	-1
0.73133	-0
0.73500	0
0.73867	0
0.74233	-0
0.74600	-0
0.74967	-0
0.75333	-1
0.75700	-1
0.76067	-1
0.76433	-1
0.76800	-1
0.77167	-1
0.77533	-1
0.77900	-1
0.78267	-1
0.78633	-1
0.79000	-1
0.79367	-1
0.79733	-1
0.80100	-1
0.80467	-1
0.80833	-1
0.81200	-1
0.81567	-1
0.81933	-2
0.82300	-2
0.82667	-2
0.83033	-2
0.83400	-2
0.83767	-1
0.84133	-1
0.84500	-1
0.84867	-1
0.85233	-1
0.85600	-1
0.85967	-0
0.86333	-0
0.86700	-0
0.87067	-0
0.87433	-0
0.87800	0
0.88167	0
0.88533	0
0.88900	0
0.89267	0
0.89633	0
0.90000	0
0.90367	0
0.90733	0
0.91100	0
0.91467	1
0.91833	1
0.92200	1
0.92567	1
0.92933	1
0.93300	1
0.93667	0
0.94033	-0
0.94400	-1
0.94767	-1
0.95133	-2
0.95500	-2
0.95867	-3
0.96233	-3
0.96600	-3
0.96967	-3
0.97333	-3
0.97700	-3
0.98067	-3
0.98433	-3
0.98800	-3
0.99167	-3
0.99533	-2
0.99900	-2
1.00267	-2
1.00633	-1
1.01000	-1
1.01367	-1
1.01733	-1
1.02100	-1
1.02467	-1
1.02833	-1
1.03200	-1
1.03567	-1
1.03933	-0
1.04300	-0
1.04667	-0
1.05033	-0
1.05400	-0
1.05767	-0
1.06133	-0
1.06500	-0
1.06867	-0
1.07233	-0
1.07600	-0
1.07967	-0
1.08333	-0
1.08700	-0
1.09067	-0
1.09433	-1
1.09800	-1
1.10167	-1
1.10533	-1
1.10900	-1
1.11267	-2
1.11633	-2
1.12000	-2
1.12367	-2
1.12733	-2
1.13100	-2
1.13467	-2
1.13833	-1
1.14200	-1
1.14567	-1
1.14933	-1
1.15300	-1
1.15667	-1
1.16033	-2
1.16400	-2
1.16767	-2
1.17133	-2
1.17500	-2
1.17867	-1
1.18233	-1
1.18600	-1
1.18967	-1
1.19333	-2
1.19700	-2
1.20067	-2
1.20433	-2
1.20800	-3
1.21167	-3
1.21533	-4
1.21900	-4
1.22267	-4
1.22633	-4
1.23000	-4
1.23367	-4
1.23733	-4
1.24100	-4
1.24467	-4
1.24833	-4
1.25200	-4
1.25567	-4
1.25933	-4
1.26300	-5
1.26667	-4
1.27033	-4
1.27400	-4
1.27767	-4
1.28133	-4
1.28500	-4
1.28867	-4
1.29233	-3
1.29600	-3
1.29967	-3
1.30333	-2
1.30700	-2
1.31067	-2
1.31433	-1
1.31800	-1
1.32167	-1
1.32533	-1
1.32900	-1
1.33267	-1
1.33633	-1
1.34000	-1
1.34367	-1
1.34733	-2
1.35100	-2
1.35467	-2
1.35833	-2
1.36200	-2
1.36567	-2
1.36933	-2
1.37300	-2
1.37667	-2
1.38033	-3
1.38400	-3
1.38767	-4
1.39133	-4
1.39500	-4
1.39867	-4
1.40233	-4
1.40600	-4
1.40967	-4
1.41333	-4
1.41700	-4
1.42067	-4
1.42433	-3
1.42800	-3
1.43167	-3
1.43533	-3
1.43900	-3
1.44267	-3
1.44633	-3
1.45000	-3
1.45367	-3
1.45733	-3
1.46100	-3
1.46467	-3
1.46833	-3
1.47200	-3
1.47567	-3
1.47933	-3
1.48300	-2
1.48667	-2
1.49033	-2
1.49400	-2
1.49767	-3
1.50133	-3
1.50500	-3
1.50867	-2
1.51233	-2
1.51600	-3
1.51967	-3
1.52333	-3
1.52700	-3
1.53067	-4
1.53433	-4
1.53800	-4
1.54167	-4
1.54533	-4
1.54900	-4
1.55267	-3
1.55633	-3
1.56000	-3
1.56367	-2
1.56733	-2
1.57100	-2
1.57467	-2
1.57833	-2
1.58200	-2
1.58567	-2
1.58933	-2
1.59300	-2
1.59667	-3
1.60033	-3
1.60400	-4
1.60767	-6
1.61133	-7
1.61500	-9
1.61867	-11
1.62233	-13
1.62600	-16
1.62967	-20
1.63333	-23
1.63700	-27
1.64067	-30
1.64433	-34
1.64800	-38
1.65167	-41
1.65533	-45
1.65900	-49
1.66267	-53
1.66633	-58
1.67000	-63
1.67367	-68
1.67733	-73
1.68100	-78
1.68467	-82
1.68833	-86
1.69200	-90
1.69567	-93
1.69933	-95
1.70300	-97
1.70667	-99
1.71033	-101
1.71400	-103
1.71767	-104
1.72133	-105
1.72500	-106
1.72867	-107
1.73233	-108
1.73600	-109
1.73967	-109
1.74333	-110
1.74700	-110
1.75067	-110
1.75433	-110
1.75800	-110
1.76167	-110
1.76533	-109
1.76900	-109
1.77267	-108
1.77633	-108
1.78000	-109
1.78367	-109
1.78733	-110
1.79100	-111
1.79467	-111
1.79833	-112
1.80200	-112
1.80567	-113
1.80933	-112
1.81300	-112
1.81667	-113
1.82033	-113
1.82400	-113
1.82767	-113
1.83133	-113
1.83500	-113
1.83867	-113
1.84233	-113
1.84600	-113
1.84967	-114
1.85333	-114
1.85700	-114
1.86067	-114
1.86433	-113
1.86800	-113
1.87167	-112
1.87533	-112
1.87900	-112
1.88267	-112
1.88633	-112
1.89000	-112
1.89367	-112
1.89733	-112
1.90100	-112
1.90467	-112
1.90833	-112
1.91200	-112
1.91567	-111
1.91933	-111
1.92300	-111
1.92667	-111
1.93033	-111
1.93400	-111
1.93767	-111
1.94133	-110
1.94500	-110
1.94867	-110
1.95233	-109
1.95600	-109
1.95967	-109
1.96333	-110
1.96700	-110
1.97067	-110
1.97433	-110
1.97800	-110
1.98167	-109
1.98533	-109
1.98900	-108
1.99267	-107
1.99633	-107
2.00000	-106
2.00367	-106
2.00733	-106
2.01100	-107
2.01467	-107
2.01833	-107
2.02200	-107
2.02567	-107
2.02933	-106
2.03300	-105
2.03667	-104
2.04033	-103
2.04400	-102
2.04767	-102
2.05133	-101
2.05500	-101
2.05867	-101
2.06233	-101
2.06600	-102
2.06967	-102
2.07333	-101
2.07700	-101
2.08067	-100
2.08433	-100
2.08800	-99
2.09167	-99
2.09533	-99
2.09900	-99
2.10267	-98
2.10633	-98
2.11000	-98
2.11367	-98
2.11733	-98
2.12100	-97
2.12467	-97
2.12833	-97
2.13200	-96
2.13567	-96
2.13933	-95
2.14300	-95
2.14667	-95
2.15033	-95
2.15400	-94
2.15767	-94
2.16133	-94
2.16500	-93
2.16867	-93
2.17233	-93
2.17600	-92
2.17967	-92
2.18333	-93
2.18700	-93
2.19067	-92
2.19433	-92
2.19800	-92
2.20167	-91
2.20533	-91
2.20900	-90
2.21267	-90
2.21633	-90
2.22000	-89
2.22367	-89
2.22733	-88
2.23100	-88
2.23467	-87
2.23833	-87
2.24200	-87
2.24567	-87
2.24933	-87
2.25300	-87
2.25667	-87
2.26033	-87
2.26400	-87
2.26767	-86
2.27133	-86
2.27500	-86
2.27867	-86
2.28233	-86
2.28600	-86
2.28967	-86
2.29333	-86
2.29700	-86
2.30067	-86
2.30433	-85
2.30800	-85
2.31167	-84
2.31533	-83
2.31900	-82
2.32267	-81
2.32633	-80
2.33000	-79
2.33367	-79
2.33733	-78
2.34100	-78
2.34467	-77
2.34833	-76
2.35200	-75
2.35567	-75
2.35933	-74
2.36300	-72
2.36667	-71
2.37033	-69
2.37400	-67
2.37767	-64
2.38133	-61
2.38500	-57
2.38867	-53
2.39233	-48
2.39600	-44
2.39967	-40
2.40333	-35
2.40700	-31
2.41067	-26
2.41433	-23
2.41800	-19
2.42167	-16
2.42533	-14
2.42900	-13
2.43267	-11
2.43633	-10
2.44000	-9
2.44367	-8
2.44733	-7
2.45100	-6
2.45467	-6
2.45833	-5
2.46200	-5
2.46567	-4
2.46933	-3
2.47300	-2
2.47667	-1
2.48033	-1
2.48400	0
2.48767	2
2.49133	3
2.49500	4
2.49867	6
2.50233	6
2.50600	7
2.50967	7
2.51333	7
2.51700	7
2.52067	8
2.52433	8
2.52800	9
2.53167	9
2.53533	10
2.53900	11
2.54267	11
2.54633	12
2.55000	13
2.55367	14
2.55733	14
2.56100	15
2.56467	15
2.56833	15
2.57200	16
2.57567	16
2.57933	16
2.58300	15
2.58667	15
2.59033	15
2.59400	15
2.59767	15
2.60133	15
2.60500	16
2.60867	16
2.61233	16
2.61600	16
2.61967	16
2.62333	16
2.62700	16
2.63067	16
2.63433	15
2.63800	15
2.64167	15
2.64533	15
2.64900	15
2.65267	15
2.65633	16
2.66000	16
2.66367	17
2.66733	17
2.67100	17
2.67467	17
2.67833	17
2.68200	18
2.68567	18
2.68933	19
2.69300	19
2.69667	20
2.70033	20
2.70400	20
2.70767	20
2.71133	21
2.71500	21
2.71867	22
2.72233	22
2.72600	23
2.72967	23
2.73333	24
2.73700	25
2.74067	25
2.74433	26
2.74800	26
2.75167	25
2.75533	25
2.75900	25
2.76267	24
2.76633	24
2.77000	24
2.77367	24
2.77733	24
2.78100	24
2.78467	24
2.78833	24
2.79200	24
2.79567	24
2.79933	24
2.80300	24
2.80667	24
2.81033	25
2.81400	25
2.81767	25
2.82133	26
2.82500	26
2.82867	26
2.83233	26
2.83600	26
2.83967	26
2.84333	25
2.84700	23
2.85067	19
2.85433	13
2.85800	4
2.86167	-8
2.86533	-24
2.86900	-44
2.87267	-69
2.87633	-98
2.88000	-131
2.88367	-169
2.88733	-211
2.89100	-255
2.89467	-303
2.89833	-354
2.90200	-406
2.90567	-460
2.90933	-515
2.91300	-570
2.91667	-625
2.92033	-680
2.92400	-734
2.92767	-786
2.93133	-837
2.93500	-890
2.93867	-946
2.94233	-1004
2.94600	-1055
2.94967	-1088
2.95333	-1097
2.95700	-1079
2.96067	-1039
2.96433	-980
2.96800	-910
2.97167	-832
2.97533	-752
2.97900	-673
2.98267	-597
2.98633	-525
2.99000	-460
2.99367	-400
2.99733	-346
3.00100	-299
3.00467	-257
3.00833	-220
3.01200	-188
3.01567	-160
3.01933	-136
3.02300	-115
3.02667	-96
3.03033	-81
3.03400	-67
3.03767	-56
3.04133	-46
3.04500	-38
3.04867	-31
3.05233	-24
3.05600	-19
3.05967	-14
3.06333	-11
3.06700	-7
3.07067	-4
3.07433	-2
3.07800	0
3.08167	2
3.08533	3
3.08900	5
3.09267	6
3.09633	7
3.10000	8
3.10367	9
3.10733	9
3.11100	10
3.11467	11
3.11833	11
3.12200	12
3.12567	13
3.12933	13
3.13300	14
3.13667	14
3.14033	15
3.14400	15
3.14767	16
3.15133	16
3.15500	16
3.15867	17
3.16233	17
3.16600	18
3.16967	18
3.17333	19
3.17700	19
3.18067	19
3.18433	20
3.18800	20
3.19167	20
3.19533	20
3.19900	20
3.20267	21
3.20633	21
3.21000	20
3.21367	20
3.21733	20
3.22100	20
3.22467	20
3.22833	20
3.23200	20
3.23567	20
3.23933	20
3.24300	20
3.24667	20
3.25033	20
3.25400	20
3.25767	20
3.26133	21
3.26500	21
3.26867	21
3.27233	21
3.27600	21
3.27967	21
3.28333	21
3.28700	21
3.29067	21
3.29433	21
3.29800	22
3.30167	22
3.30533	22
3.30900	23
3.31267	23
3.31633	23
3.32000	24
3.32367	24
3.32733	24
3.33100	24
3.33467	24
3.33833	24
3.34200	24
3.34567	24
3.34933	24
3.35300	24
3.35667	24
3.36033	24
3.36400	24
3.36767	24
3.37133	24
3.37500	24
3.37867	25
3.38233	25
3.38600	25
3.38967	25
3.39333	25
3.39700	26
3.40067	26
3.40433	26
3.40800	26
3.41167	25
3.41533	25
3.41900	25
3.42267	25
3.42633	25
3.43000	24
3.43367	24
3.43733	24
3.44100	24
3.44467	24
3.44833	24
3.45200	24
3.45567	24
3.45933	24
3.46300	25
3.46667	25
3.47033	25
3.47400	25
3.47767	25
3.48133	25
3.48500	25
3.48867	25
3.49233	24
3.49600	24
3.49967	24
3.50333	24
3.50700	24
3.51067	24
3.51433	24
3.51800	24
3.52167	24
3.52533	24
3.52900	25
3.53267	25
3.53633	25
3.54000	25
3.54367	25
3.54733	25
3.55100	25
3.55467	25
3.55833	25
3.56200	25
3.56567	25
3.56933	25
3.57300	25
3.57667	25
3.58033	25
3.58400	24
3.58767	24
3.59133	24
3.59500	24
3.59867	24
3.60233	24
3.60600	24
3.60967	24
3.61333	24
3.61700	25
3.62067	25
3.62433	24
3.62800	24
3.63167	24
3.63533	25
3.63900	25
3.64267	25
3.64633	25
3.65000	25
3.65367	25
3.65733	25
3.66100	25
3.66467	25
3.66833	25
3.67200	25
3.67567	25
3.67933	24
3.68300	24
3.68667	24
3.69033	24
3.69400	24
3.69767	24
3.70133	24
3.70500	24
3.70867	24
3.71233	24
3.71600	24
3.71967	24
3.72333	24
3.72700	24
3.73067	24
3.73433	24
3.73800	24
3.74167	24
3.74533	25
3.74900	25
3.75267	25
3.75633	25
3.76000	25
3.76367	25
3.76733	25
3.77100	25
3.77467	25
3.77833	25
3.78200	25
3.78567	26
3.78933	26
3.79300	26
3.79667	26
3.80033	26
3.80400	26
3.80767	26
3.81133	26
3.81500	26
3.81867	26
3.82233	26
3.82600	26
3.82967	26
3.83333	26
3.83700	25
3.84067	25
3.84433	25
3.84800	25
3.85167	25
3.85533	25
3.85900	25
3.86267	25
3.86633	25
3.87000	25
3.87367	25
3.87733	25
3.88100	25
3.88467	26
3.88833	26
3.89200	26
3.89567	26
3.89933	26
3.90300	25
3.90667	25
3.91033	25
3.91400	25
3.91767	25
3.92133	25
3.92500	25
3.92867	25
3.93233	24
3.93600	24
3.93967	24
3.94333	24
3.94700	24
3.95067	24
3.95433	24
3.95800	24
3.96167	24
3.96533	24
3.96900	24
3.97267	24
3.97633	24
3.98000	24
3.98367	24
3.98733	24
3.99100	24
3.99467	24
3.99833	24

[Chromatogram (Ch3)]
Interval(msec)	220
# of Points	1091
Start Time(min)	0.002
End Time(min)	3.998
R.Time (min)	Intensity
0.00167	0
0.00533	0
0.00900	2
0.01267	3
0.01633	3
0.02000	3
0.02367	3
0.02733	3
0.03100	2
0.03467	4
0.03833	5
0.04200	5
0.04567	5
0.04933	4
0.05300	6
0.05667	6
0.06033	6
0.06400	5
0.06767	1
0.07133	-1
0.07500	1
0.07867	3
0.08233	5
0.08600	6
0.08967	7
0.09333	8
0.09700	9
0.10067	9
0.10433	7
0.10800	7
0.11167	7
0.11533	6
0.11900	5
0.12267	5
0.12633	3
0.13000	0
0.13367	-0
0.13733	-1
0.14100	-3
0.14467	-4
0.14833	-4
0.15200	-3
0.15567	-0
0.15933	3
0.16300	3
0.16667	3
0.17033	4
0.17400	5
0.17767	7
0.18133	7
0.18500	7
0.18867	5
0.19233	6
0.19600	7
0.19967	7
0.20333	6
0.20700	7
0.21067	7
0.21433	8
0.21800	7
0.22167	7
0.22533	6
0.22900	6
0.23267	7
0.23633	8
0.24000	9
0.24367	7
0.24733	5
0.25100	6
0.25467	7
0.25833	8
0.26200	10
0.26567	11
0.26933	14
0.27300	15
0.27667	15
0.28033	15
0.28400	14
0.28767	12
0.29133	14
0.29500	15
0.29867	14
0.30233	15
0.30600	15
0.30967	17
0.31333	19
0.31700	19
0.32067	17
0.32433	14
0.32800	13
0.33167	16
0.33533	17
0.33900	18
0.34267	18
0.34633	18
0.35000	17
0.35367	18
0.35733	19
0.36100	22
0.36467	24
0.36833	23
0.37200	22
0.37567	21
0.37933	22
0.38300	22
0.38667	22
0.39033	21
0.39400	20
0.39767	18
0.40133	19
0.40500	21
0.40867	21
0.41233	20
0.41600	19
0.41967	17
0.42333	14
0.42700	13
0.43067	13
0.43433	16
0.43800	18
0.44167	21
0.44533	21
0.44900	21
0.45267	20
0.45633	21
0.46000	21
0.46367	22
0.46733	24
0.47100	25
0.47467	24
0.47833	23
0.48200	21
0.48567	20
0.48933	19
0.49300	20
0.49667	21
0.50033	21
0.50400	21
0.50767	21
0.51133	22
0.51500	23
0.51867	24
0.52233	24
0.52600	22
0.52967	20
0.53333	20
0.53700	20
0.54067	21
0.54433	21
0.54800	25
0.55167	28
0.55533	27
0.55900	24
0.56267	20
0.56633	19
0.57000	19
0.57367	19
0.57733	19
0.58100	20
0.58467	21
0.58833	20
0.59200	16
0.59567	13
0.59933	11
0.60300	11
0.60667	12
0.61033	13
0.61400	13
0.61767	13
0.62133	12
0.62500	12
0.62867	12
0.63233	14
0.63600	14
0.63967	16
0.64333	18
0.64700	18
0.65067	16
0.65433	14
0.65800	15
0.66167	17
0.66533	17
0.66900	17
0.67267	16
0.67633	16
0.68000	16
0.68367	15
0.68733	14
0.69100	14
0.69467	14
0.69833	14
0.70200	15
0.70567	17
0.70933	19
0.71300	21
0.71667	22
0.72033	22
0.72400	21
0.72767	21
0.73133	21
0.73500	21
0.73867	21
0.74233	21
0.74600	22
0.74967	22
0.75333	21
0.75700	20
0.76067	19
0.76433	18
0.76800	18
0.77167	19
0.77533	18
0.77900	20
0.78267	22
0.78633	23
0.79000	23
0.79367	19
0.79733	15
0.80100	15
0.80467	15
0.80833	15
0.81200	15
0.81567	17
0.81933	20
0.82300	21
0.82667	20
0.83033	20
0.83400	19
0.83767	20
0.84133	20
0.84500	18
0.84867	16
0.85233	17
0.85600	18
0.85967	18
0.86333	17
0.86700	17
0.87067	18
0.87433	19
0.87800	19
0.88167	20
0.88533	19
0.88900	18
0.89267	17
0.89633	18
0.90000	19
0.90367	20
0.90733	22
0.91100	21
0.91467	22
0.91833	21
0.92200	23
0.92567	22
0.92933	21
0.93300	19
0.93667	20
0.94033	23
0.94400	23
0.94767	22
0.95133	22
0.95500	22
0.95867	22
0.96233	22
0.96600	22
0.96967	21
0.97333	23
0.97700	25
0.98067	24
0.98433	26
0.98800	25
0.99167	25
0.99533	26
0.99900	27
1.00267	26
1.00633	24
1.01000	22
1.01367	23
1.01733	24
1.02100	23
1.02467	25
1.02833	28
1.03200	30
1.03567	29
1.03933	25
1.04300	24
1.04667	22
1.05033	22
1.05400	21
1.05767	22
1.06133	23
1.06500	25
1.06867	25
1.07233	24
1.07600	23
1.07967	22
1.08333	22
1.08700	20
1.09067	20
1.09433	18
1.09800	18
1.10167	20
1.10533	20
1.10900	21
1.11267	22
1.11633	22
1.12000	23
1.12367	23
1.12733	23
1.13100	22
1.13467	21
1.13833	20
1.14200	19
1.14567	19
1.14933	18
1.15300	18
1.15667	18
1.16033	17
1.16400	16
1.16767	15
1.17133	16
1.17500	16
1.17867	16
1.18233	15
1.18600	14
1.18967	13
1.19333	12
1.19700	13
1.20067	15
1.20433	17
1.20800	21
1.21167	23
1.21533	19
1.21900	18
1.22267	18
1.22633	18
1.23000	18
1.23367	18
1.23733	17
1.24100	18
1.24467	18
1.24833	19
1.25200	22
1.25567	24
1.25933	24
1.26300	23
1.26667	22
1.27033	20
1.27400	21
1.27767	20
1.28133	18
1.28500	17
1.28867	16
1.29233	17
1.29600	20
1.29967	22
1.30333	22
1.30700	22
1.31067	20
1.31433	17
1.31800	16
1.32167	16
1.32533	16
1.32900	16
1.33267	19
1.33633	22
1.34000	24
1.34367	23
1.34733	23
1.35100	23
1.35467	22
1.35833	20
1.36200	20
1.36567	20
1.36933	19
1.37300	18
1.37667	19
1.38033	18
1.38400	18
1.38767	20
1.39133	23
1.39500	22
1.39867	21
1.40233	21
1.40600	21
1.40967	20
1.41333	19
1.41700	18
1.42067	18
1.42433	19
1.42800	19
1.43167	19
1.43533	18
1.43900	16
1.44267	16
1.44633	16
1.45000	16
1.45367	17
1.45733	19
1.46100	23
1.46467	25
1.46833	24
1.47200	24
1.47567	23
1.47933	22
1.48300	21
1.48667	20
1.49033	20
1.49400	19
1.49767	18
1.50133	20
1.50500	20
1.50867	20
1.51233	23
1.51600	25
1.51967	27
1.52333	28
1.52700	28
1.53067	29
1.53433	29
1.53800	30
1.54167	29
1.54533	27
1.54900	24
1.55267	21
1.55633	20
1.56000	19
1.56367	20
1.56733	22
1.57100	23
1.57467	23
1.57833	25
1.58200	28
1.58567	28
1.58933	26
1.59300	26
1.59667	26
1.60033	25
1.60400	25
1.60767	28
1.61133	28
1.61500	27
1.61867	26
1.62233	27
1.62600	28
1.62967	29
1.63333	29
1.63700	29
1.64067	30
1.64433	30
1.64800	29
1.65167	29
1.65533	30
1.65900	30
1.66267	30
1.66633	33
1.67000	34
1.67367	35
1.67733	34
1.68100	34
1.68467	34
1.68833	34
1.69200	34
1.69567	36
1.69933	38
1.70300	38
1.70667	37
1.71033	37
1.71400	38
1.71767	38
1.72133	41
1.72500	44
1.72867	45
1.73233	46
1.73600	47
1.73967	47
1.74333	45
1.74700	42
1.75067	42
1.75433	42
1.75800	42
1.76167	43
1.76533	46
1.76900	51
1.77267	56
1.77633	56
1.78000	56
1.78367	54
1.78733	53
1.79100	55
1.79467	56
1.79833	57
1.80200	59
1.80567	60
1.80933	60
1.81300	62
1.81667	64
1.82033	66
1.82400	67
1.82767	70
1.83133	70
1.83500	69
1.83867	69
1.84233	70
1.84600	71
1.84967	74
1.85333	75
1.85700	75
1.86067	74
1.86433	76
1.86800	77
1.87167	78
1.87533	80
1.87900	80
1.88267	79
1.88633	79
1.89000	79
1.89367	82
1.89733	84
1.90100	86
1.90467	89
1.90833	91
1.91200	93
1.91567	95
1.91933	95
1.92300	94
1.92667	92
1.93033	91
1.93400	93
1.93767	95
1.94133	95
1.94500	96
1.94867	98
1.95233	100
1.95600	100
1.95967	100
1.96333	103
1.96700	105
1.97067	107
1.97433	106
1.97800	106
1.98167	106
1.98533	106
1.98900	106
1.99267	105
1.99633	105
2.00000	106
2.00367	108
2.00733	110
2.01100	113
2.01467	115
2.01833	116
2.02200	115
2.02567	114
2.02933	115
2.03300	116
2.03667	117
2.04033	119
2.04400	121
2.04767	124
2.05133	127
2.05500	128
2.05867	125
2.06233	124
2.06600	124
2.06967	123
2.07333	125
2.07700	128
2.08067	129
2.08433	132
2.08800	133
2.09167	134
2.09533	133
2.09900	133
2.10267	133
2.10633	135
2.11000	137
2.11367	141
2.11733	144
2.12100	146
2.12467	146
2.12833	147
2.13200	148
2.13567	152
2.13933	154
2.14300	153
2.14667	154
2.15033	155
2.15400	156
2.15767	159
2.16133	161
2.16500	164
2.16867	166
2.17233	167
2.17600	167
2.17967	167
2.18333	168
2.18700	169
2.19067	168
2.19433	168
2.19800	171
2.20167	173
2.20533	174
2.20900	175
2.21267	177
2.21633	176
2.22000	177
2.22367	177
2.22733	178
2.23100	180
2.23467	184
2.23833	187
2.24200	188
2.24567	190
2.24933	193
2.25300	193
2.25667	192
2.26033	194
2.26400	196
2.26767	198
2.27133	198
2.27500	198
2.27867	198
2.28233	199
2.28600	198
2.28967	197
2.29333	198
2.29700	198
2.30067	198
2.30433	200
2.30800	202
2.31167	204
2.31533	206
2.31900	208
2.32267	209
2.32633	210
2.33000	209
2.33367	209
2.33733	210
2.34100	212
2.34467	213
2.34833	216
2.35200	219
2.35567	221
2.35933	221
2.36300	220
2.36667	221
2.37033	222
2.37400	222
2.37767	224
2.38133	224
2.38500	222
2.38867	218
2.39233	214
2.39600	213
2.39967	216
2.40333	220
2.40700	224
2.41067	226
2.41433	229
2.41800	231
2.42167	233
2.42533	234
2.42900	235
2.43267	234
2.43633	232
2.44000	233
2.44367	285
2.44733	425
2.45100	578
2.45467	704
2.45833	775
2.46200	783
2.46567	755
2.46933	720
2.47300	694
2.47667	678
2.48033	662
2.48400	633
2.48767	588
2.49133	539
2.49500	495
2.49867	461
2.50233	439
2.50600	427
2.50967	423
2.51333	431
2.51700	448
2.52067	470
2.52433	489
2.52800	498
2.53167	495
2.53533	482
2.53900	458
2.54267	426
2.54633	394
2.55000	364
2.55367	338
2.55733	319
2.56100	306
2.56467	296
2.56833	288
2.57200	283
2.57567	280
2.57933	278
2.58300	277
2.58667	279
2.59033	281
2.59400	282
2.59767	282
2.60133	280
2.60500	276
2.60867	269
2.61233	260
2.61600	248
2.61967	233
2.62333	219
2.62700	207
2.63067	197
2.63433	189
2.63800	180
2.64167	173
2.64533	168
2.64900	162
2.65267	154
2.65633	146
2.66000	136
2.66367	127
2.66733	118
2.67100	111
2.67467	106
2.67833	103
2.68200	98
2.68567	94
2.68933	93
2.69300	93
2.69667	93
2.70033	94
2.70400	97
2.70767	101
2.71133	106
2.71500	110
2.71867	113
2.72233	117
2.72600	121
2.72967	125
2.73333	129
2.73700	133
2.74067	138
2.74433	142
2.74800	146
2.75167	150
2.75533	153
2.75900	155
2.76267	157
2.76633	160
2.77000	162
2.77367	162
2.77733	163
2.78100	166
2.78467	169
2.78833	173
2.79200	177
2.79567	183
2.79933	189
2.80300	193
2.80667	195
2.81033	199
2.81400	203
2.81767	209
2.82133	219
2.82500	239
2.82867	273
2.83233	338
2.83600	452
2.83967	635
2.84333	906
2.84700	1275
2.85067	1738
2.85433	2275
2.85800	2849
2.86167	3416
2.86533	3931
2.86900	4349
2.87267	4641
2.87633	4794
2.88000	4811
2.88367	4708
2.88733	4508
2.89100	4240
2.89467	3930
2.89833	3601
2.90200	3269
2.90567	2946
2.90933	2638
2.91300	2352
2.91667	2091
2.92033	1859
2.92400	1652
2.92767	1468
2.93133	1307
2.93500	1164
2.93867	1037
2.94233	925
2.94600	828
2.94967	742
2.95333	668
2.95700	605
2.96067	549
2.96433	501
2.96800	459
2.97167	423
2.97533	393
2.97900	368
2.98267	344
2.98633	324
2.99000	307
2.99367	292
2.99733	280
3.00100	268
3.00467	258
3.00833	250
3.01200	241
3.01567	235
3.01933	231
3.02300	227
3.02667	223
3.03033	218
3.03400	213
3.03767	209
3.04133	206
3.04500	204
3.04867	202
3.05233	201
3.05600	200
3.05967	199
3.06333	198
3.06700	199
3.07067	201
3.07433	202
3.07800	203
3.08167	202
3.08533	201
3.08900	200
3.09267	202
3.09633	204
3.10000	206
3.10367	206
3.10733	205
3.11100	206
3.11467	204
3.11833	202
3.12200	203
3.12567	204
3.12933	202
3.13300	201
3.13667	202
3.14033	203
3.14400	202
3.14767	203
3.15133	203
3.15500	203
3.15867	204
3.16233	205
3.16600	205
3.16967	203
3.17333	205
3.17700	206
3.18067	208
3.18433	210
3.18800	213
3.19167	217
3.19533	220
3.19900	222
3.20267	221
3.20633	221
3.21000	223
3.21367	224
3.21733	224
3.22100	225
3.22467	223
3.22833	224
3.23200	226
3.23567	229
3.23933	233
3.24300	235
3.24667	238
3.25033	242
3.25400	244
3.25767	245
3.26133	246
3.26500	248
3.26867	250
3.27233	253
3.27600	257
3.27967	260
3.28333	262
3.28700	262
3.29067	262
3.29433	261
3.29800	260
3.30167	260
3.30533	260
3.30900	262
3.31267	266
3.31633	269
3.32000	271
3.32367	273
3.32733	275
3.33100	278
3.33467	280
3.33833	282
3.34200	283
3.34567	282
3.34933	283
3.35300	284
3.35667	289
3.36033	291
3.36400	291
3.36767	291
3.37133	294
3.37500	296
3.37867	297
3.38233	297
3.38600	297
3.38967	299
3.39333	302
3.39700	304
3.40067	308
3.40433	309
3.40800	310
3.41167	311
3.41533	310
3.41900	310
3.42267	312
3.42633	314
3.43000	317
3.43367	320
3.43733	322
3.44100	321
3.44467	319
3.44833	319
3.45200	317
3.45567	317
3.45933	318
3.46300	320
3.46667	323
3.47033	324
3.47400	323
3.47767	323
3.48133	325
3.48500	325
3.48867	326
3.49233	327
3.49600	328
3.49967	328
3.50333	329
3.50700	331
3.51067	333
3.51433	334
3.51800	334
3.52167	333
3.52533	331
3.52900	328
3.53267	327
3.53633	327
3.54000	329
3.54367	331
3.54733	332
3.55100	330
3.55467	330
3.55833	331
3.56200	332
3.56567	331
3.56933	331
3.57300	329
3.57667	327
3.58033	328
3.58400	329
3.58767	330
3.59133	331
3.59500	332
3.59867	331
3.60233	329
3.60600	326
3.60967	323
3.61333	319
3.61700	314
3.62067	306
3.62433	293
3.62800	279
3.63167	268
3.63533	262
3.63900	262
3.64267	270
3.64633	280
3.65000	291
3.65367	307
3.65733	323
3.66100	338
3.66467	353
3.66833	370
3.67200	387
3.67567	404
3.67933	422
3.68300	440
3.68667	458
3.69033	474
3.69400	488
3.69767	501
3.70133	515
3.70500	527
3.70867	538
3.71233	547
3.71600	556
3.71967	562
3.72333	567
3.72700	572
3.73067	577
3.73433	580
3.73800	585
3.74167	588
3.74533	590
3.74900	592
3.75267	594
3.75633	599
3.76000	602
3.76367	605
3.76733	606
3.77100	606
3.77467	607
3.77833	607
3.78200	607
3.78567	605
3.78933	607
3.79300	609
3.79667	610
3.80033	612
3.80400	614
3.80767	614
3.81133	613
3.81500	610
3.81867	607
3.82233	606
3.82600	606
3.82967	606
3.83333	605
3.83700	608
3.84067	610
3.84433	610
3.84800	609
3.85167	609
3.85533	609
3.85900	610
3.86267	609
3.86633	610
3.87000	611
3.87367	612
3.87733	613
3.88100	614
3.88467	613
3.88833	610
3.89200	608
3.89567	608
3.89933	605
3.90300	603
3.90667	603
3.91033	602
3.91400	601
3.91767	600
3.92133	600
3.92500	599
3.92867	598
3.93233	597
3.93600	594
3.93967	592
3.94333	591
3.94700	591
3.95067	590
3.95433	589
3.95800	587
3.96167	586
3.96533	586
3.96900	583
3.97267	583
3.97633	583
3.98000	582
3.98367	579
3.98733	578
3.99100	576
3.99467	573
3.99833	568

[Status Trace (Column Oven Temperature)]
Interval(msec)	1000
# of Points	240
Start Time(min)	0.016
End Time(min)	3.999
Intensity Units	
Intensity Multiplier	1
R.Time (min)	Intensity
0.01613	35.08
0.03280	35.09
0.04947	35.09
0.06613	35.08
0.08280	35.08
0.09947	35.07
0.11613	35.06
0.13280	35.06
0.14947	35.06
0.16613	35.05
0.18280	35.04
0.19947	35.04
0.21613	35.04
0.23280	35.05
0.24947	35.03
0.26613	35.02
0.28280	35.01
0.29947	35.01
0.31613	35.01
0.33280	35.03
0.34947	35.02
0.36613	35.03
0.38280	35.02
0.39947	35.00
0.41613	35.01
0.43280	35.00
0.44947	35.01
0.46613	35.01
0.48280	35.02
0.49947	35.01
0.51613	35.01
0.53280	35.00
0.54947	35.00
0.56613	34.99
0.58280	34.98
0.59947	34.98
0.61613	34.98
0.63280	34.98
0.64947	34.99
0.66613	35.00
0.68280	35.00
0.69947	35.01
0.71613	34.99
0.73280	34.99
0.74947	34.99
0.76613	34.99
0.78280	35.00
0.79947	35.01
0.81613	35.01
0.83280	35.01
0.84947	35.00
0.86613	34.99
0.88280	34.98
0.89947	34.98
0.91613	34.98
0.93280	34.97
0.94947	34.97
0.96613	34.99
0.98280	35.01
0.99947	35.00
1.01613	35.00
1.03280	34.99
1.04947	34.99
1.06613	34.99
1.08280	34.99
1.09947	34.99
1.11613	34.99
1.13280	34.98
1.14947	34.98
1.16613	34.97
1.18280	34.97
1.19947	34.98
1.21613	34.99
1.23280	34.99
1.24947	34.99
1.26613	35.00
1.28280	35.01
1.29947	35.01
1.31613	35.00
1.33280	35.00
1.34947	35.01
1.36613	35.01
1.38280	35.01
1.39947	35.02
1.41613	35.02
1.43280	35.02
1.44947	35.02
1.46613	35.01
1.48280	35.00
1.49947	35.00
1.51613	35.00
1.53280	35.00
1.54947	35.01
1.56613	35.00
1.58280	35.00
1.59947	35.02
1.61613	35.10
1.63280	35.26
1.64947	35.48
1.66613	35.78
1.68280	36.14
1.69947	36.50
1.71613	36.84
1.73280	37.19
1.74947	37.52
1.76613	37.82
1.78280	38.16
1.79947	38.49
1.81613	38.82
1.83280	39.15
1.84947	39.49
1.86613	39.81
1.88280	40.14
1.89947	40.48
1.91613	40.80
1.93280	41.13
1.94947	41.45
1.96613	41.79
1.98280	42.11
1.99947	42.43
2.01613	42.77
2.03280	43.08
2.04947	43.40
2.06613	43.73
2.08280	44.05
2.09947	44.39
2.11613	44.70
2.13280	45.03
2.14947	45.37
2.16613	45.68
2.18280	46.01
2.19947	46.34
2.21613	46.67
2.23280	46.99
2.24947	47.34
2.26613	47.68
2.28280	48.02
2.29947	48.35
2.31613	48.66
2.33280	48.99
2.34947	49.28
2.36613	49.53
2.38280	49.63
2.39947	49.66
2.41613	49.64
2.43280	49.66
2.44947	49.66
2.46613	49.68
2.48280	49.70
2.49947	49.70
2.51613	49.72
2.53280	49.74
2.54947	49.75
2.56613	49.75
2.58280	49.78
2.59947	49.78
2.61613	49.80
2.63280	49.82
2.64947	49.83
2.66613	49.85
2.68280	49.85
2.69947	49.86
2.71613	49.86
2.73280	49.84
2.74947	49.85
2.76613	49.87
2.78280	49.88
2.79947	49.88
2.81613	49.88
2.83280	49.87
2.84947	49.87
2.86613	49.87
2.88280	49.88
2.89947	49.89
2.91613	49.89
2.93280	49.91
2.94947	49.92
2.96613	49.94
2.98280	49.95
2.99947	49.98
3.01613	50.00
3.03280	50.02
3.04947	50.04
3.06613	50.04
3.08280	50.05
3.09947	50.06
3.11613	50.07
3.13280	50.07
3.14947	50.07
3.16613	50.07
3.18280	50.06
3.19947	50.06
3.21613	50.07
3.23280	50.08
3.24947	50.08
3.26613	50.09
3.28280	50.10
3.29947	50.11
3.31613	50.10
3.33280	50.09
3.34947	50.10
3.36613	50.09
3.38280	50.08
3.39947	50.08
3.41613	50.07
3.43280	50.07
3.44947	50.07
3.46613	50.08
3.48280	50.07
3.49947	50.08
3.51613	50.08
3.53280	50.08
3.54947	50.07
3.56613	50.08
3.58280	50.08
3.59947	50.08
3.61613	50.07
3.63280	50.07
3.64947	50.06
3.66613	50.07
3.68280	50.07
3.69947	50.07
3.71613	50.08
3.73280	50.08
3.74947	50.08
3.76613	50.08
3.78280	50.08
3.79947	50.08
3.81613	50.06
3.83280	50.06
3.84947	50.05
3.86613	50.05
3.88280	50.05
3.89947	50.05
3.91613	50.05
3.93280	50.06
3.94947	50.06
3.96613	50.06
3.98280	50.06
3.99947	50.07

[Status Trace (Injection Unit Temperature)]
Interval(msec)	1000
# of Points	240
Start Time(min)	0.016
End Time(min)	3.999
Intensity Units	
Intensity Multiplier	1
R.Time (min)	Intensity
0.01613	99.98
0.03280	99.98
0.04947	99.98
0.06613	99.98
0.08280	99.97
0.09947	99.98
0.11613	99.98
0.13280	99.97
0.14947	99.98
0.16613	99.98
0.18280	99.98
0.19947	99.99
0.21613	99.98
0.23280	99.98
0.24947	99.98
0.26613	99.99
0.28280	99.99
0.29947	99.98
0.31613	99.99
0.33280	99.99
0.34947	99.99
0.36613	99.99
0.38280	99.99
0.39947	99.99
0.41613	99.99
0.43280	99.99
0.44947	99.99
0.46613	99.99
0.48280	99.98
0.49947	99.99
0.51613	99.99
0.53280	99.99
0.54947	99.99
0.56613	99.99
0.58280	99.99
0.59947	99.99
0.61613	99.99
0.63280	99.99
0.64947	99.99
0.66613	99.99
0.68280	99.99
0.69947	99.99
0.71613	99.98
0.73280	99.99
0.74947	99.98
0.76613	99.99
0.78280	99.98
0.79947	99.99
0.81613	99.99
0.83280	99.99
0.84947	99.99
0.86613	99.99
0.88280	99.98
0.89947	99.99
0.91613	99.99
0.93280	99.98
0.94947	99.99
0.96613	99.99
0.98280	99.99
0.99947	99.98
1.01613	99.98
1.03280	99.99
1.04947	99.99
1.06613	99.99
1.08280	99.98
1.09947	99.98
1.11613	99.99
1.13280	99.98
1.14947	99.99
1.16613	99.98
1.18280	99.98
1.19947	99.98
1.21613	99.99
1.23280	99.98
1.24947	99.98
1.26613	99.98
1.28280	99.98
1.29947	99.98
1.31613	99.98
1.33280	99.98
1.34947	99.98
1.36613	99.98
1.38280	99.98
1.39947	99.98
1.41613	99.99
1.43280	99.98
1.44947	99.98
1.46613	99.99
1.48280	99.98
1.49947	99.98
1.51613	99.98
1.53280	99.98
1.54947	99.98
1.56613	99.98
1.58280	99.98
1.59947	99.98
1.61613	99.98
1.63280	99.98
1.64947	99.98
1.66613	99.98
1.68280	99.99
1.69947	99.99
1.71613	99.98
1.73280	99.99
1.74947	99.98
1.76613	99.98
1.78280	99.98
1.79947	99.98
1.81613	99.98
1.83280	99.98
1.84947	99.98
1.86613	99.98
1.88280	99.98
1.89947	99.98
1.91613	99.98
1.93280	99.98
1.94947	99.98
1.96613	99.98
1.98280	99.97
1.99947	99.97
2.01613	99.97
2.03280	99.97
2.04947	99.97
2.06613	99.97
2.08280	99.97
2.09947	99.97
2.11613	99.97
2.13280	99.97
2.14947	99.97
2.16613	99.97
2.18280	99.97
2.19947	99.97
2.21613	99.97
2.23280	99.97
2.24947	99.97
2.26613	99.97
2.28280	99.96
2.29947	99.96
2.31613	99.96
2.33280	99.96
2.34947	99.97
2.36613	99.97
2.38280	99.96
2.39947	99.96
2.41613	99.97
2.43280	99.97
2.44947	99.96
2.46613	99.97
2.48280	99.97
2.49947	99.97
2.51613	99.97
2.53280	99.97
2.54947	99.97
2.56613	99.97
2.58280	99.97
2.59947	99.97
2.61613	99.98
2.63280	99.98
2.64947	99.98
2.66613	99.98
2.68280	99.98
2.69947	99.99
2.71613	99.98
2.73280	99.98
2.74947	99.99
2.76613	99.99
2.78280	99.99
2.79947	99.99
2.81613	100.00
2.83280	100.00
2.84947	100.00
2.86613	100.00
2.88280	100.00
2.89947	99.99
2.91613	100.00
2.93280	100.00
2.94947	100.00
2.96613	100.00
2.98280	100.00
2.99947	100.00
3.01613	100.00
3.03280	100.01
3.04947	100.00
3.06613	100.01
3.08280	100.01
3.09947	100.00
3.11613	100.01
3.13280	100.01
3.14947	100.01
3.16613	100.01
3.18280	100.01
3.19947	100.01
3.21613	100.01
3.23280	100.02
3.24947	100.01
3.26613	100.02
3.28280	100.02
3.29947	100.02
3.31613	100.02
3.33280	100.02
3.34947	100.02
3.36613	100.02
3.38280	100.02
3.39947	100.03
3.41613	100.02
3.43280	100.03
3.44947	100.03
3.46613	100.03
3.48280	100.03
3.49947	100.03
3.51613	100.03
3.53280	100.03
3.54947	100.03
3.56613	100.03
3.58280	100.03
3.59947	100.04
3.61613	100.04
3.63280	100.04
3.64947	100.04
3.66613	100.04
3.68280	100.03
3.69947	100.04
3.71613	100.04
3.73280	100.04
3.74947	100.04
3.76613	100.05
3.78280	100.04
3.79947	100.04
3.81613	100.04
3.83280	100.05
3.84947	100.04
3.86613	100.05
3.88280	100.04
3.89947	100.05
3.91613	100.05
3.93280	100.05
3.94947	100.05
3.96613	100.04
3.98280	100.05
3.99947	100.05

[Status Trace (Carrier Gas Pressure)]
Interval(msec)	1000
# of Points	240
Start Time(min)	0.016
End Time(min)	3.999
Intensity Units	
Intensity Multiplier	1
R.Time (min)	Intensity
0.01613	56.97
0.03280	55.88
0.04947	58.28
0.06613	59.89
0.08280	58.47
0.09947	57.97
0.11613	58.00
0.13280	58.01
0.14947	58.01
0.16613	58.00
0.18280	58.00
0.19947	58.00
0.21613	58.00
0.23280	58.00
0.24947	58.00
0.26613	58.00
0.28280	58.00
0.29947	58.00
0.31613	58.00
0.33280	58.00
0.34947	58.00
0.36613	58.00
0.38280	58.00
0.39947	58.00
0.41613	58.00
0.43280	58.00
0.44947	58.00
0.46613	58.00
0.48280	58.00
0.49947	58.00
0.51613	58.00
0.53280	58.00
0.54947	58.00
0.56613	58.00
0.58280	58.00
0.59947	58.00
0.61613	58.00
0.63280	58.00
0.64947	58.00
0.66613	58.00
0.68280	58.00
0.69947	58.00
0.71613	58.00
0.73280	58.00
0.74947	58.00
0.76613	58.00
0.78280	58.00
0.79947	58.00
0.81613	58.00
0.83280	58.00
0.84947	58.00
0.86613	58.00
0.88280	58.00
0.89947	58.00
0.91613	58.00
0.93280	58.00
0.94947	58.00
0.96613	58.00
0.98280	58.00
0.99947	58.00
1.01613	58.00
1.03280	58.00
1.04947	58.00
1.06613	58.00
1.08280	58.00
1.09947	58.00
1.11613	58.00
1.13280	58.00
1.14947	58.00
1.16613	58.00
1.18280	58.00
1.19947	58.00
1.21613	58.00
1.23280	58.00
1.24947	58.00
1.26613	58.00
1.28280	58.00
1.29947	58.00
1.31613	58.00
1.33280	58.00
1.34947	58.00
1.36613	58.00
1.38280	58.00
1.39947	58.00
1.41613	58.00
1.43280	58.00
1.44947	58.00
1.46613	58.00
1.48280	58.00
1.49947	58.00
1.51613	58.00
1.53280	58.00
1.54947	58.00
1.56613	58.00
1.58280	58.00
1.59947	58.00
1.61613	58.00
1.63280	58.00
1.64947	58.00
1.66613	58.01
1.68280	58.01
1.69947	58.00
1.71613	58.00
1.73280	58.00
1.74947	58.00
1.76613	58.00
1.78280	58.00
1.79947	58.00
1.81613	58.00
1.83280	58.00
1.84947	58.00
1.86613	58.00
1.88280	58.00
1.89947	58.00
1.91613	58.00
1.93280	58.00
1.94947	58.00
1.96613	58.00
1.98280	58.00
1.99947	58.00
2.01613	58.00
2.03280	58.00
2.04947	58.00
2.06613	58.00
2.08280	58.00
2.09947	58.00
2.11613	58.00
2.13280	58.00
2.14947	58.00
2.16613	58.00
2.18280	58.00
2.19947	58.00
2.21613	58.00
2.23280	58.00
2.24947	58.00
2.26613	58.00
2.28280	58.00
2.29947	58.00
2.31613	58.00
2.33280	58.00
2.34947	58.00
2.36613	58.00
2.38280	57.99
2.39947	57.99
2.41613	58.00
2.43280	58.00
2.44947	58.00
2.46613	58.00
2.48280	58.00
2.49947	58.00
2.51613	57.99
2.53280	57.99
2.54947	58.00
2.56613	58.00
2.58280	58.00
2.59947	58.00
2.61613	58.00
2.63280	58.00
2.64947	58.00
2.66613	58.00
2.68280	58.00
2.69947	58.00
2.71613	58.00
2.73280	58.00
2.74947	58.00
2.76613	58.00
2.78280	58.00
2.79947	58.00
2.81613	58.00
2.83280	58.00
2.84947	58.00
2.86613	58.00
2.88280	58.00
2.89947	58.00
2.91613	58.00
2.93280	58.00
2.94947	58.00
2.96613	58.00
2.98280	58.00
2.99947	58.00
3.01613	58.00
3.03280	58.00
3.04947	58.00
3.06613	58.00
3.08280	58.00
3.09947	58.00
3.11613	58.00
3.13280	58.00
3.14947	58.00
3.16613	58.00
3.18280	58.00
3.19947	58.00
3.21613	58.00
3.23280	58.00
3.24947	58.00
3.26613	58.00
3.28280	58.00
3.29947	58.00
3.31613	58.00
3.33280	58.00
3.34947	58.00
3.36613	58.00
3.38280	58.00
3.39947	58.00
3.41613	58.00
3.43280	58.00
3.44947	58.00
3.46613	58.00
3.48280	58.00
3.49947	58.00
3.51613	58.00
3.53280	58.00
3.54947	58.00
3.56613	58.00
3.58280	58.00
3.59947	58.00
3.61613	58.00
3.63280	58.00
3.64947	58.00
3.66613	58.00
3.68280	58.00
3.69947	58.00
3.71613	58.00
3.73280	58.00
3.74947	58.00
3.76613	58.00
3.78280	58.00
3.79947	58.00
3.81613	58.00
3.83280	58.00
3.84947	58.00
3.86613	58.00
3.88280	58.00
3.89947	58.00
3.91613	58.00
3.93280	58.00
3.94947	58.00
3.96613	58.00
3.98280	58.00
3.99947	58.00

[Status Trace (Carrier Gas Flow)]
Interval(msec)	1000
# of Points	240
Start Time(min)	0.016
End Time(min)	3.999
Intensity Units	
Intensity Multiplier	1
R.Time (min)	Intensity
0.01613	33.81
0.03280	34.54
0.04947	34.55
0.06613	34.51
0.08280	34.52
0.09947	34.52
0.11613	34.52
0.13280	34.52
0.14947	34.52
0.16613	34.52
0.18280	34.52
0.19947	34.51
0.21613	34.53
0.23280	34.52
0.24947	34.52
0.26613	34.52
0.28280	34.51
0.29947	34.52
0.31613	34.52
0.33280	34.52
0.34947	34.52
0.36613	34.51
0.38280	34.52
0.39947	34.52
0.41613	34.52
0.43280	34.52
0.44947	34.52
0.46613	34.52
0.48280	34.52
0.49947	34.52
0.51613	34.52
0.53280	34.52
0.54947	34.52
0.56613	34.52
0.58280	34.52
0.59947	34.52
0.61613	34.52
0.63280	34.51
0.64947	34.52
0.66613	34.52
0.68280	34.52
0.69947	34.52
0.71613	34.52
0.73280	34.52
0.74947	34.52
0.76613	34.52
0.78280	34.52
0.79947	34.52
0.81613	34.51
0.83280	34.52
0.84947	34.52
0.86613	34.51
0.88280	34.51
0.89947	34.53
0.91613	34.51
0.93280	34.53
0.94947	34.52
0.96613	34.52
0.98280	34.52
0.99947	34.52
1.01613	34.52
1.03280	34.52
1.04947	34.52
1.06613	34.52
1.08280	34.52
1.09947	34.52
1.11613	34.52
1.13280	34.52
1.14947	34.52
1.16613	34.52
1.18280	34.52
1.19947	34.52
1.21613	34.52
1.23280	34.52
1.24947	34.52
1.26613	34.52
1.28280	34.52
1.29947	34.52
1.31613	34.52
1.33280	34.52
1.34947	34.52
1.36613	34.52
1.38280	34.52
1.39947	34.52
1.41613	34.52
1.43280	34.52
1.44947	34.52
1.46613	34.52
1.48280	34.52
1.49947	34.52
1.51613	34.52
1.53280	34.52
1.54947	34.52
1.56613	34.52
1.58280	34.52
1.59947	34.52
1.61613	34.52
1.63280	34.52
1.64947	34.52
1.66613	34.52
1.68280	34.52
1.69947	34.52
1.71613	34.52
1.73280	34.52
1.74947	34.52
1.76613	34.52
1.78280	34.52
1.79947	34.52
1.81613	34.51
1.83280	34.52
1.84947	34.51
1.86613	34.52
1.88280	34.52
1.89947	34.51
1.91613	34.52
1.93280	34.52
1.94947	34.52
1.96613	34.52
1.98280	34.51
1.99947	34.52
2.01613	34.53
2.03280	34.51
2.04947	34.50
2.06613	34.52
2.08280	34.52
2.09947	34.51
2.11613	34.53
2.13280	34.52
2.14947	34.52
2.16613	34.53
2.18280	34.51
2.19947	34.52
2.21613	34.52
2.23280	34.52
2.24947	34.52
2.26613	34.52
2.28280	34.52
2.29947	34.52
2.31613	34.52
2.33280	34.52
2.34947	34.52
2.36613	34.51
2.38280	34.52
2.39947	34.52
2.41613	34.52
2.43280	34.52
2.44947	34.52
2.46613	34.52
2.48280	34.52
2.49947	34.52
2.51613	34.52
2.53280	34.52
2.54947	34.52
2.56613	34.52
2.58280	34.52
2.59947	34.52
2.61613	34.52
2.63280	34.52
2.64947	34.51
2.66613	34.52
2.68280	34.52
2.69947	34.51
2.71613	34.52
2.73280	34.52
2.74947	34.52
2.76613	34.52
2.78280	34.52
2.79947	34.52
2.81613	34.52
2.83280	34.52
2.84947	34.51
2.86613	34.52
2.88280	34.51
2.89947	34.52
2.91613	34.52
2.93280	34.52
2.94947	34.52
2.96613	34.52
2.98280	34.52
2.99947	34.52
3.01613	34.52
3.03280	34.52
3.04947	34.52
3.06613	34.52
3.08280	34.52
3.09947	34.52
3.11613	34.52
3.13280	34.52
3.14947	34.51
3.16613	34.52
3.18280	34.52
3.19947	34.52
3.21613	34.52
3.23280	34.52
3.24947	34.52
3.26613	34.51
3.28280	34.51
3.29947	34.51
3.31613	34.52
3.33280	34.52
3.34947	34.52
3.36613	34.52
3.38280	34.52
3.39947	34.52
3.41613	34.52
3.43280	34.52
3.44947	34.52
3.46613	34.52
3.48280	34.52
3.49947	34.52
3.51613	34.52
3.53280	34.52
3.54947	34.51
3.56613	34.52
3.58280	34.52
3.59947	34.53
3.61613	34.52
3.63280	34.52
3.64947	34.52
3.66613	34.52
3.68280	34.52
3.69947	34.52
3.71613	34.52
3.73280	34.51
3.74947	34.52
3.76613	34.52
3.78280	34.52
3.79947	34.52
3.81613	34.52
3.83280	34.52
3.84947	34.52
3.86613	34.52
3.88280	34.52
3.89947	34.52
3.91613	34.52
3.93280	34.52
3.94947	34.52
3.96613	34.51
3.98280	34.52
3.99947	34.52

[Status Trace (Column Flow)]
Interval(msec)	1000
# of Points	240
Start Time(min)	0.016
End Time(min)	3.999
Intensity Units	
Intensity Multiplier	1
R.Time (min)	Intensity
0.01613	5.41
0.03280	5.29
0.04947	5.56
0.06613	5.75
0.08280	5.59
0.09947	5.53
0.11613	5.53
0.13280	5.53
0.14947	5.53
0.16613	5.53
0.18280	5.53
0.19947	5.53
0.21613	5.53
0.23280	5.53
0.24947	5.53
0.26613	5.53
0.28280	5.53
0.29947	5.53
0.31613	5.53
0.33280	5.53
0.34947	5.53
0.36613	5.53
0.38280	5.53
0.39947	5.53
0.41613	5.53
0.43280	5.53
0.44947	5.53
0.46613	5.53
0.48280	5.53
0.49947	5.53
0.51613	5.53
0.53280	5.53
0.54947	5.53
0.56613	5.54
0.58280	5.54
0.59947	5.54
0.61613	5.54
0.63280	5.54
0.64947	5.54
0.66613	5.54
0.68280	5.54
0.69947	5.53
0.71613	5.54
0.73280	5.54
0.74947	5.54
0.76613	5.54
0.78280	5.54
0.79947	5.54
0.81613	5.53
0.83280	5.53
0.84947	5.53
0.86613	5.54
0.88280	5.54
0.89947	5.54
0.91613	5.54
0.93280	5.54
0.94947	5.54
0.96613	5.54
0.98280	5.53
0.99947	5.53
1.01613	5.53
1.03280	5.54
1.04947	5.54
1.06613	5.54
1.08280	5.54
1.09947	5.54
1.11613	5.54
1.13280	5.54
1.14947	5.54
1.16613	5.54
1.18280	5.54
1.19947	5.54
1.21613	5.54
1.23280	5.54
1.24947	5.53
1.26613	5.53
1.28280	5.53
1.29947	5.53
1.31613	5.54
1.33280	5.54
1.34947	5.53
1.36613	5.53
1.38280	5.53
1.39947	5.53
1.41613	5.53
1.43280	5.53
1.44947	5.53
1.46613	5.53
1.48280	5.54
1.49947	5.53
1.51613	5.53
1.53280	5.53
1.54947	5.53
1.56613	5.53
1.58280	5.53
1.59947	5.53
1.61613	5.53
1.63280	5.53
1.64947	5.52
1.66613	5.51
1.68280	5.50
1.69947	5.49
1.71613	5.48
1.73280	5.47
1.74947	5.46
1.76613	5.45
1.78280	5.44
1.79947	5.43
1.81613	5.42
1.83280	5.41
1.84947	5.40
1.86613	5.39
1.88280	5.38
1.89947	5.37
1.91613	5.36
1.93280	5.35
1.94947	5.34
1.96613	5.33
1.98280	5.32
1.99947	5.31
2.01613	5.30
2.03280	5.29
2.04947	5.28
2.06613	5.27
2.08280	5.26
2.09947	5.25
2.11613	5.24
2.13280	5.23
2.14947	5.22
2.16613	5.21
2.18280	5.20
2.19947	5.19
2.21613	5.18
2.23280	5.18
2.24947	5.17
2.26613	5.16
2.28280	5.15
2.29947	5.14
2.31613	5.13
2.33280	5.12
2.34947	5.11
2.36613	5.10
2.38280	5.10
2.39947	5.10
2.41613	5.10
2.43280	5.10
2.44947	5.10
2.46613	5.10
2.48280	5.10
2.49947	5.10
2.51613	5.10
2.53280	5.10
2.54947	5.10
2.56613	5.10
2.58280	5.10
2.59947	5.10
2.61613	5.10
2.63280	5.10
2.64947	5.10
2.66613	5.10
2.68280	5.09
2.69947	5.09
2.71613	5.09
2.73280	5.09
2.74947	5.09
2.76613	5.09
2.78280	5.09
2.79947	5.09
2.81613	5.09
2.83280	5.09
2.84947	5.09
2.86613	5.09
2.88280	5.09
2.89947	5.09
2.91613	5.09
2.93280	5.09
2.94947	5.09
2.96613	5.09
2.98280	5.09
2.99947	5.09
3.01613	5.09
3.03280	5.09
3.04947	5.09
3.06613	5.09
3.08280	5.09
3.09947	5.09
3.11613	5.09
3.13280	5.09
3.14947	5.09
3.16613	5.09
3.18280	5.09
3.19947	5.09
3.21613	5.09
3.23280	5.09
3.24947	5.09
3.26613	5.09
3.28280	5.09
3.29947	5.09
3.31613	5.09
3.33280	5.09
3.34947	5.09
3.36613	5.09
3.38280	5.09
3.39947	5.09
3.41613	5.09
3.43280	5.09
3.44947	5.09
3.46613	5.09
3.48280	5.09
3.49947	5.09
3.51613	5.09
3.53280	5.09
3.54947	5.09
3.56613	5.09
3.58280	5.09
3.59947	5.09
3.61613	5.09
3.63280	5.09
3.64947	5.09
3.66613	5.09
3.68280	5.09
3.69947	5.09
3.71613	5.09
3.73280	5.09
3.74947	5.09
3.76613	5.09
3.78280	5.09
3.79947	5.09
3.81613	5.09
3.83280	5.09
3.84947	5.09
3.86613	5.09
3.88280	5.09
3.89947	5.09
3.91613	5.09
3.93280	5.09
3.94947	5.09
3.96613	5.09
3.98280	5.09
3.99947	5.09

[Status Trace (Linear Velocity)]
Interval(msec)	1000
# of Points	240
Start Time(min)	0.016
End Time(min)	3.999
Intensity Units	
Intensity Multiplier	1
R.Time (min)	Intensity
0.01613	38.34
0.03280	37.62
0.04947	39.19
0.06613	40.25
0.08280	39.32
0.09947	38.99
0.11613	39.01
0.13280	39.02
0.14947	39.02
0.16613	39.02
0.18280	39.02
0.19947	39.02
0.21613	39.02
0.23280	39.02
0.24947	39.02
0.26613	39.02
0.28280	39.02
0.29947	39.02
0.31613	39.02
0.33280	39.02
0.34947	39.02
0.36613	39.02
0.38280	39.02
0.39947	39.02
0.41613	39.02
0.43280	39.02
0.44947	39.02
0.46613	39.02
0.48280	39.02
0.49947	39.02
0.51613	39.02
0.53280	39.02
0.54947	39.02
0.56613	39.02
0.58280	39.02
0.59947	39.02
0.61613	39.02
0.63280	39.02
0.64947	39.02
0.66613	39.02
0.68280	39.02
0.69947	39.02
0.71613	39.02
0.73280	39.02
0.74947	39.02
0.76613	39.02
0.78280	39.02
0.79947	39.02
0.81613	39.02
0.83280	39.02
0.84947	39.02
0.86613	39.02
0.88280	39.02
0.89947	39.02
0.91613	39.02
0.93280	39.02
0.94947	39.02
0.96613	39.02
0.98280	39.02
0.99947	39.02
1.01613	39.02
1.03280	39.02
1.04947	39.02
1.06613	39.02
1.08280	39.02
1.09947	39.02
1.11613	39.02
1.13280	39.02
1.14947	39.02
1.16613	39.02
1.18280	39.02
1.19947	39.02
1.21613	39.02
1.23280	39.02
1.24947	39.02
1.26613	39.02
1.28280	39.02
1.29947	39.02
1.31613	39.02
1.33280	39.02
1.34947	39.02
1.36613	39.02
1.38280	39.02
1.39947	39.02
1.41613	39.02
1.43280	39.02
1.44947	39.02
1.46613	39.02
1.48280	39.02
1.49947	39.02
1.51613	39.02
1.53280	39.02
1.54947	39.02
1.56613	39.02
1.58280	39.02
1.59947	39.02
1.61613	39.01
1.63280	39.00
1.64947	38.98
1.66613	38.95
1.68280	38.91
1.69947	38.88
1.71613	38.84
1.73280	38.81
1.74947	38.78
1.76613	38.75
1.78280	38.72
1.79947	38.69
1.81613	38.66
1.83280	38.63
1.84947	38.59
1.86613	38.56
1.88280	38.53
1.89947	38.50
1.91613	38.47
1.93280	38.44
1.94947	38.41
1.96613	38.38
1.98280	38.35
1.99947	38.32
2.01613	38.29
2.03280	38.26
2.04947	38.23
2.06613	38.20
2.08280	38.17
2.09947	38.14
2.11613	38.11
2.13280	38.08
2.14947	38.05
2.16613	38.02
2.18280	37.99
2.19947	37.96
2.21613	37.93
2.23280	37.90
2.24947	37.87
2.26613	37.84
2.28280	37.81
2.29947	37.78
2.31613	37.75
2.33280	37.73
2.34947	37.70
2.36613	37.68
2.38280	37.66
2.39947	37.66
2.41613	37.66
2.43280	37.67
2.44947	37.66
2.46613	37.66
2.48280	37.66
2.49947	37.66
2.51613	37.65
2.53280	37.65
2.54947	37.66
2.56613	37.66
2.58280	37.66
2.59947	37.65
2.61613	37.65
2.63280	37.65
2.64947	37.65
2.66613	37.65
2.68280	37.65
2.69947	37.65
2.71613	37.65
2.73280	37.65
2.74947	37.65
2.76613	37.65
2.78280	37.65
2.79947	37.65
2.81613	37.65
2.83280	37.65
2.84947	37.65
2.86613	37.65
2.88280	37.65
2.89947	37.65
2.91613	37.65
2.93280	37.64
2.94947	37.64
2.96613	37.64
2.98280	37.64
2.99947	37.64
3.01613	37.64
3.03280	37.63
3.04947	37.63
3.06613	37.63
3.08280	37.63
3.09947	37.63
3.11613	37.63
3.13280	37.63
3.14947	37.63
3.16613	37.63
3.18280	37.63
3.19947	37.63
3.21613	37.63
3.23280	37.63
3.24947	37.63
3.26613	37.63
3.28280	37.63
3.29947	37.63
3.31613	37.63
3.33280	37.63
3.34947	37.63
3.36613	37.63
3.38280	37.63
3.39947	37.63
3.41613	37.63
3.43280	37.63
3.44947	37.63
3.46613	37.63
3.48280	37.63
3.49947	37.63
3.51613	37.63
3.53280	37.63
3.54947	37.63
3.56613	37.63
3.58280	37.63
3.59947	37.63
3.61613	37.63
3.63280	37.63
3.64947	37.63
3.66613	37.63
3.68280	37.63
3.69947	37.63
3.71613	37.63
3.73280	37.63
3.74947	37.63
3.76613	37.63
3.78280	37.63
3.79947	37.63
3.81613	37.63
3.83280	37.63
3.84947	37.63
3.86613	37.63
3.88280	37.63
3.89947	37.63
3.91613	37.63
3.93280	37.63
3.94947	37.63
3.96613	37.63
3.98280	37.63
3.99947	37.63

