[Header]
Application Name	LabSolutions
Version	5.110
Data File Name	C:\Users\User\Desktop\GC Analyses\Jack\Nachusa Grasslands Sampling\T3 Timepoint July 12th\T3_07122022_059.gcd
Output Date	3/14/2023
Output Time	3:43:34 PM

[File Information]
Type	Data File
Generated	3/13/2023 9:03:24 PM
Generated by	System Administrator
Modified	3/13/2023 9:09:59 PM
Modified by	System Administrator

[Sample Information]
Operator Name	System Administrator
Acquired	3/13/2023 9:05:58 PM
Sample Type	0:Unknown
Level	0
Sample Name	059
Sample ID	059
ISTD Amount1	1
ISTD Amount2	1
ISTD Amount3	1
ISTD Amount4	1
ISTD Amount5	1
ISTD Amount6	1
ISTD Amount7	1
ISTD Amount8	1
ISTD Amount9	1
ISTD Amount10	1
ISTD Amount11	1
ISTD Amount12	1
ISTD Amount13	1
ISTD Amount14	1
ISTD Amount15	1
ISTD Amount16	1
ISTD Amount17	1
ISTD Amount18	1
ISTD Amount19	1
ISTD Amount20	1
ISTD Amount21	1
ISTD Amount22	1
ISTD Amount23	1
ISTD Amount24	1
ISTD Amount25	1
ISTD Amount26	1
ISTD Amount27	1
ISTD Amount28	1
ISTD Amount29	1
ISTD Amount30	1
ISTD Amount31	1
ISTD Amount32	1
Sample Amount	1
Dilution Factor	1
Vial#	58
Injection Volume	1
Injection Count	1
Bar Code	

[Original Files]
Data File	C:\Users\User\Desktop\GC Analyses\Jack\Nachusa Grasslands Sampling\T3 Timepoint July 12th\T3_07122022_059.gcd
Method File	C:\LabSolutions\Data\GHG_4min_2022\ghg3_togas_w_acet_4 min_new_int.gcm
Batch File	C:\LabSolutions\Data\AutoSamplerTesting\T3_07122022.gcb
Report Format File	c:\LabSolutions\System\DEFAULT.lsr

[File Description]


[Configuration]
Instrument Name	C0B7VH3-Instrument1
Instrument #	1
Line #	1
# of Detectors	3
Detector ID	DET#1	DET#2	DET#3
Detector Name	FID	PTCD	ECD
# of Channels	1	1	1

[Peak Table(Ch1)]
# of Peaks	4
Peak#	R.Time	I.Time	F.Time	Area	Height	A/H	Conc.	Mark	ID#	Name	k'	Plate #	Plate Ht.	Tailing	Resolution	Sep.Factor	Area Ratio	Height Ratio	Conc. %	Norm Conc.
1	1.457	1.443	1.476	487	465	1.047	3.440	   	1	CO	0.000	37135	4.039	1.101	0.000	0.000	0	0	0.366	0.366
2	1.571	1.534	1.641	20809	10517	1.979	402.366	   	2	CH4	0.078	11532	13.007	1.154	2.561	0.000	0	0	42.773	42.773
3	2.000	1.952	2.323	2131243	1023338	2.083	534.884	   	3	CO2	0.372	17447	8.598	1.190	7.205	4.774	0	0	56.861	56.861
4	3.302	3.283	3.331	51	35	1.466	0.000	   	6	Ethane	1.266	86902	1.726	1.406	24.707	3.399	0	0	0.000	0.000

[Peak Table(Ch2)]
# of Peaks	0

[Peak Table(Ch3)]
# of Peaks	5
Peak#	R.Time	I.Time	F.Time	Area	Height	A/H	Conc.	Mark	ID#	Name	k'	Plate #	Plate Ht.	Tailing	Resolution	Sep.Factor	Area Ratio	Height Ratio	Conc. %	Norm Conc.
1	2.462	2.323	2.510	2031	632	3.211	0.000	   			0.000	10422	14.393	0.000	0.000	0.000	0	0	0.000	0.000
2	2.532	2.510	2.583	1080	352	3.074	0.000	 V 			0.028	5555	27.001	0.000	0.600	0.000	0	0	0.000	0.000
3	2.601	2.583	2.686	613	156	3.930	0.000	 V 			0.057	1476	101.634	0.000	0.343	2.000	0	0	0.000	0.000
4	2.880	2.708	3.107	58486	15129	3.866	1.494	   	1	N2O	0.170	12656	11.852	1.553	1.493	3.000	0	0	100.000	100.000
5	3.452	3.320	3.995	13573	597	22.743	0.000	   	2	SF6	0.402	307	489.161	2.561	1.284	2.368	0	0	0.000	0.000

[Compound Results(Ch1)]
# of IDs	6
ID#	Name	R.Time	Area	Height	Conc.	Curve	3rd	2nd	1st	Constant	Area Ratio	Height Ratio	Conc. %	Norm Conc.
1	CO	1.457	487	465	3.440	Linear	0.000000e+00	0.000000e+00	1.416423e+002	0.000000e+00	0	0	0.366	0.366
2	CH4	1.571	20809	10517	402.366	Linear	0.000000e+00	0.000000e+00	5.171738e+001	0.000000e+00	0	0	42.773	42.773
3	CO2	2.000	2131243	1023338	534.884	Linear	0.000000e+00	0.000000e+00	3.984494e+003	0.000000e+00	0	0	56.861	56.861
4	Ethylene	0.000	0	0	0.000	Linear	0.000000e+00	0.000000e+00	0.000000e+00	0.000000e+00	0	0	0.000	0.000
5	Acetylene	0.000	0	0	0.000	Linear	0.000000e+00	0.000000e+00	0.000000e+00	0.000000e+00	0	0	0.000	0.000
6	Ethane	3.302	51	35	0.000	Linear	0.000000e+00	0.000000e+00	0.000000e+00	0.000000e+00	0	0	0.000	0.000

[Compound Results(Ch2)]
# of IDs	5
ID#	Name	R.Time	Area	Height	Conc.	Curve	3rd	2nd	1st	Constant	Area Ratio	Height Ratio	Conc. %	Norm Conc.
1	Hydrogen	0.000	0	0	0.000	Linear	0.000000e+00	0.000000e+00	0.000000e+00	0.000000e+00	0	0	0.000	0.000
2	Oxygen	0.000	0	0	0.000	Linear	0.000000e+00	0.000000e+00	0.000000e+00	0.000000e+00	0	0	0.000	0.000
3	Nitrogen	0.000	0	0	0.000	Linear	0.000000e+00	0.000000e+00	0.000000e+00	0.000000e+00	0	0	0.000	0.000
4	Methane	0.000	0	0	0.000	Linear	0.000000e+00	0.000000e+00	0.000000e+00	0.000000e+00	0	0	0.000	0.000
5	Carbon Monoxide	0.000	0	0	0.000	Linear	0.000000e+00	0.000000e+00	0.000000e+00	0.000000e+00	0	0	0.000	0.000

[Compound Results(Ch3)]
# of IDs	2
ID#	Name	R.Time	Area	Height	Conc.	Curve	3rd	2nd	1st	Constant	Area Ratio	Height Ratio	Conc. %	Norm Conc.
1	N2O	2.880	58486	15129	1.494	Linear	0.000000e+00	0.000000e+00	3.915173e+004	0.000000e+00	0	0	100.000	100.000
2	SF6	3.452	13573	597	0.000	Linear	0.000000e+00	0.000000e+00	0.000000e+00	0.000000e+00	0	0	0.000	0.000

[Group Results(Ch1)]
# of Groups	0

[Group Results(Ch2)]
# of Groups	0

[Group Results(Ch3)]
# of Groups	0

[Chromatogram (Ch1)]
Interval(msec)	220
# of Points	1091
Start Time(min)	0.002
End Time(min)	3.998
R.Time (min)	Intensity
0.00167	20
0.00533	27
0.00900	32
0.01267	43
0.01633	52
0.02000	58
0.02367	66
0.02733	75
0.03100	79
0.03467	74
0.03833	65
0.04200	50
0.04567	33
0.04933	18
0.05300	10
0.05667	12
0.06033	19
0.06400	29
0.06767	37
0.07133	41
0.07500	40
0.07867	37
0.08233	32
0.08600	34
0.08967	37
0.09333	30
0.09700	17
0.10067	8
0.10433	2
0.10800	-3
0.11167	-12
0.11533	-15
0.11900	-11
0.12267	-7
0.12633	-2
0.13000	7
0.13367	17
0.13733	25
0.14100	34
0.14467	39
0.14833	40
0.15200	39
0.15567	36
0.15933	32
0.16300	28
0.16667	26
0.17033	26
0.17400	24
0.17767	25
0.18133	31
0.18500	35
0.18867	37
0.19233	40
0.19600	43
0.19967	40
0.20333	40
0.20700	45
0.21067	54
0.21433	64
0.21800	72
0.22167	72
0.22533	67
0.22900	53
0.23267	37
0.23633	27
0.24000	22
0.24367	16
0.24733	6
0.25100	-3
0.25467	-5
0.25833	-1
0.26200	11
0.26567	19
0.26933	23
0.27300	31
0.27667	42
0.28033	47
0.28400	49
0.28767	51
0.29133	56
0.29500	58
0.29867	56
0.30233	53
0.30600	51
0.30967	51
0.31333	53
0.31700	59
0.32067	62
0.32433	60
0.32800	57
0.33167	53
0.33533	52
0.33900	55
0.34267	57
0.34633	57
0.35000	57
0.35367	60
0.35733	73
0.36100	84
0.36467	88
0.36833	90
0.37200	90
0.37567	95
0.37933	100
0.38300	104
0.38667	107
0.39033	106
0.39400	102
0.39767	95
0.40133	87
0.40500	82
0.40867	82
0.41233	81
0.41600	76
0.41967	70
0.42333	64
0.42700	62
0.43067	62
0.43433	61
0.43800	64
0.44167	70
0.44533	72
0.44900	73
0.45267	77
0.45633	77
0.46000	71
0.46367	65
0.46733	64
0.47100	66
0.47467	68
0.47833	73
0.48200	82
0.48567	88
0.48933	88
0.49300	76
0.49667	63
0.50033	58
0.50400	57
0.50767	53
0.51133	44
0.51500	32
0.51867	22
0.52233	12
0.52600	6
0.52967	2
0.53333	6
0.53700	9
0.54067	15
0.54433	24
0.54800	33
0.55167	40
0.55533	43
0.55900	46
0.56267	51
0.56633	56
0.57000	64
0.57367	69
0.57733	67
0.58100	61
0.58467	51
0.58833	41
0.59200	34
0.59567	32
0.59933	32
0.60300	34
0.60667	34
0.61033	35
0.61400	36
0.61767	39
0.62133	43
0.62500	46
0.62867	50
0.63233	57
0.63600	63
0.63967	65
0.64333	62
0.64700	54
0.65067	46
0.65433	39
0.65800	34
0.66167	33
0.66533	37
0.66900	41
0.67267	43
0.67633	45
0.68000	48
0.68367	47
0.68733	42
0.69100	42
0.69467	47
0.69833	51
0.70200	56
0.70567	61
0.70933	62
0.71300	59
0.71667	54
0.72033	50
0.72400	47
0.72767	42
0.73133	36
0.73500	29
0.73867	28
0.74233	30
0.74600	30
0.74967	29
0.75333	31
0.75700	36
0.76067	38
0.76433	38
0.76800	37
0.77167	35
0.77533	31
0.77900	27
0.78267	27
0.78633	28
0.79000	31
0.79367	35
0.79733	39
0.80100	41
0.80467	43
0.80833	42
0.81200	37
0.81567	31
0.81933	23
0.82300	15
0.82667	12
0.83033	14
0.83400	17
0.83767	22
0.84133	27
0.84500	30
0.84867	33
0.85233	32
0.85600	28
0.85967	23
0.86333	20
0.86700	23
0.87067	30
0.87433	37
0.87800	44
0.88167	47
0.88533	47
0.88900	48
0.89267	49
0.89633	49
0.90000	48
0.90367	45
0.90733	40
0.91100	33
0.91467	31
0.91833	28
0.92200	27
0.92567	31
0.92933	35
0.93300	36
0.93667	32
0.94033	31
0.94400	31
0.94767	30
0.95133	28
0.95500	28
0.95867	30
0.96233	33
0.96600	37
0.96967	39
0.97333	42
0.97700	35
0.98067	26
0.98433	17
0.98800	12
0.99167	10
0.99533	12
0.99900	18
1.00267	26
1.00633	34
1.01000	42
1.01367	45
1.01733	45
1.02100	43
1.02467	39
1.02833	38
1.03200	44
1.03567	50
1.03933	51
1.04300	47
1.04667	39
1.05033	29
1.05400	20
1.05767	13
1.06133	11
1.06500	8
1.06867	7
1.07233	10
1.07600	13
1.07967	14
1.08333	14
1.08700	14
1.09067	18
1.09433	22
1.09800	24
1.10167	26
1.10533	27
1.10900	28
1.11267	29
1.11633	30
1.12000	31
1.12367	33
1.12733	36
1.13100	44
1.13467	49
1.13833	44
1.14200	31
1.14567	22
1.14933	19
1.15300	17
1.15667	19
1.16033	23
1.16400	26
1.16767	31
1.17133	39
1.17500	43
1.17867	39
1.18233	34
1.18600	34
1.18967	32
1.19333	28
1.19700	25
1.20067	25
1.20433	27
1.20800	30
1.21167	30
1.21533	28
1.21900	25
1.22267	24
1.22633	26
1.23000	24
1.23367	25
1.23733	23
1.24100	19
1.24467	17
1.24833	14
1.25200	14
1.25567	12
1.25933	14
1.26300	15
1.26667	20
1.27033	26
1.27400	32
1.27767	37
1.28133	40
1.28500	38
1.28867	37
1.29233	39
1.29600	44
1.29967	46
1.30333	44
1.30700	39
1.31067	37
1.31433	33
1.31800	26
1.32167	20
1.32533	17
1.32900	18
1.33267	22
1.33633	28
1.34000	40
1.34367	48
1.34733	53
1.35100	54
1.35467	46
1.35833	35
1.36200	27
1.36567	19
1.36933	15
1.37300	11
1.37667	6
1.38033	3
1.38400	5
1.38767	14
1.39133	28
1.39500	39
1.39867	43
1.40233	41
1.40600	33
1.40967	24
1.41333	15
1.41700	10
1.42067	7
1.42433	6
1.42800	11
1.43167	19
1.43533	27
1.43900	32
1.44267	52
1.44633	143
1.45000	315
1.45367	436
1.45733	440
1.46100	355
1.46467	222
1.46833	74
1.47200	-49
1.47567	-121
1.47933	-145
1.48300	-148
1.48667	-147
1.49033	-150
1.49400	-164
1.49767	-185
1.50133	-203
1.50500	-216
1.50867	-230
1.51233	-242
1.51600	-251
1.51967	-254
1.52333	-255
1.52700	-251
1.53067	-237
1.53433	-216
1.53800	-160
1.54167	60
1.54533	723
1.54900	2064
1.55267	3971
1.55633	6041
1.56000	7886
1.56367	9299
1.56733	10169
1.57100	10365
1.57467	9779
1.57833	8500
1.58200	6828
1.58567	5128
1.58933	3654
1.59300	2505
1.59667	1666
1.60033	1082
1.60400	686
1.60767	424
1.61133	258
1.61500	153
1.61867	83
1.62233	36
1.62600	8
1.62967	-10
1.63333	-23
1.63700	-30
1.64067	-30
1.64433	-28
1.64800	-29
1.65167	-34
1.65533	-41
1.65900	-47
1.66267	-50
1.66633	-51
1.67000	-50
1.67367	-46
1.67733	-44
1.68100	-43
1.68467	-45
1.68833	-50
1.69200	-52
1.69567	-53
1.69933	-51
1.70300	-41
1.70667	-26
1.71033	-16
1.71400	-16
1.71767	-31
1.72133	-43
1.72500	-48
1.72867	-52
1.73233	-55
1.73600	-55
1.73967	-49
1.74333	-41
1.74700	-37
1.75067	-33
1.75433	-28
1.75800	-23
1.76167	-24
1.76533	-33
1.76900	-45
1.77267	-44
1.77633	-35
1.78000	-29
1.78367	-25
1.78733	-19
1.79100	-13
1.79467	-12
1.79833	-10
1.80200	-2
1.80567	6
1.80933	4
1.81300	-2
1.81667	-4
1.82033	-5
1.82400	-3
1.82767	-0
1.83133	7
1.83500	14
1.83867	12
1.84233	15
1.84600	15
1.84967	13
1.85333	11
1.85700	9
1.86067	7
1.86433	3
1.86800	3
1.87167	5
1.87533	2
1.87900	1
1.88267	3
1.88633	2
1.89000	-2
1.89367	-4
1.89733	-1
1.90100	4
1.90467	4
1.90833	-1
1.91200	-7
1.91567	-8
1.91933	-2
1.92300	11
1.92667	21
1.93033	27
1.93400	26
1.93767	24
1.94133	20
1.94500	17
1.94867	15
1.95233	22
1.95600	96
1.95967	584
1.96333	3080
1.96700	12861
1.97067	42175
1.97433	109902
1.97800	231125
1.98167	402051
1.98533	597552
1.98900	783036
1.99267	927895
1.99633	1011447
2.00000	1023403
2.00367	965532
2.00733	852076
2.01100	706445
2.01467	554037
2.01833	414821
2.02200	299650
2.02567	211042
2.02933	146345
2.03300	100805
2.03667	69518
2.04033	48337
2.04400	34097
2.04767	24529
2.05133	18068
2.05500	13666
2.05867	10621
2.06233	8473
2.06600	6915
2.06967	5750
2.07333	4865
2.07700	4181
2.08067	3646
2.08433	3221
2.08800	2877
2.09167	2596
2.09533	2367
2.09900	2178
2.10267	2010
2.10633	1859
2.11000	1728
2.11367	1612
2.11733	1513
2.12100	1425
2.12467	1343
2.12833	1269
2.13200	1207
2.13567	1152
2.13933	1103
2.14300	1062
2.14667	1022
2.15033	982
2.15400	945
2.15767	911
2.16133	877
2.16500	842
2.16867	812
2.17233	784
2.17600	757
2.17967	731
2.18333	707
2.18700	683
2.19067	663
2.19433	648
2.19800	639
2.20167	633
2.20533	629
2.20900	621
2.21267	608
2.21633	586
2.22000	562
2.22367	537
2.22733	516
2.23100	502
2.23467	493
2.23833	491
2.24200	489
2.24567	484
2.24933	477
2.25300	464
2.25667	453
2.26033	445
2.26400	438
2.26767	432
2.27133	426
2.27500	418
2.27867	416
2.28233	416
2.28600	414
2.28967	408
2.29333	400
2.29700	390
2.30067	382
2.30433	378
2.30800	374
2.31167	370
2.31533	365
2.31900	363
2.32267	360
2.32633	355
2.33000	352
2.33367	347
2.33733	347
2.34100	351
2.34467	356
2.34833	361
2.35200	365
2.35567	363
2.35933	357
2.36300	351
2.36667	345
2.37033	338
2.37400	331
2.37767	333
2.38133	335
2.38500	336
2.38867	332
2.39233	321
2.39600	309
2.39967	300
2.40333	296
2.40700	300
2.41067	306
2.41433	312
2.41800	315
2.42167	317
2.42533	322
2.42900	321
2.43267	316
2.43633	311
2.44000	306
2.44367	304
2.44733	302
2.45100	300
2.45467	298
2.45833	294
2.46200	294
2.46567	299
2.46933	304
2.47300	308
2.47667	313
2.48033	318
2.48400	322
2.48767	323
2.49133	321
2.49500	315
2.49867	309
2.50233	303
2.50600	299
2.50967	302
2.51333	308
2.51700	316
2.52067	323
2.52433	325
2.52800	321
2.53167	311
2.53533	302
2.53900	294
2.54267	289
2.54633	288
2.55000	288
2.55367	288
2.55733	288
2.56100	287
2.56467	289
2.56833	289
2.57200	292
2.57567	294
2.57933	297
2.58300	303
2.58667	307
2.59033	309
2.59400	307
2.59767	305
2.60133	303
2.60500	293
2.60867	283
2.61233	281
2.61600	286
2.61967	291
2.62333	294
2.62700	299
2.63067	305
2.63433	307
2.63800	308
2.64167	310
2.64533	315
2.64900	321
2.65267	322
2.65633	314
2.66000	306
2.66367	305
2.66733	308
2.67100	319
2.67467	331
2.67833	330
2.68200	319
2.68567	309
2.68933	304
2.69300	308
2.69667	319
2.70033	326
2.70400	331
2.70767	330
2.71133	323
2.71500	316
2.71867	315
2.72233	316
2.72600	319
2.72967	321
2.73333	323
2.73700	331
2.74067	332
2.74433	324
2.74800	320
2.75167	320
2.75533	319
2.75900	323
2.76267	335
2.76633	346
2.77000	354
2.77367	362
2.77733	370
2.78100	370
2.78467	367
2.78833	372
2.79200	383
2.79567	390
2.79933	392
2.80300	392
2.80667	389
2.81033	386
2.81400	386
2.81767	386
2.82133	388
2.82500	389
2.82867	390
2.83233	395
2.83600	398
2.83967	398
2.84333	394
2.84700	387
2.85067	382
2.85433	385
2.85800	392
2.86167	399
2.86533	406
2.86900	412
2.87267	419
2.87633	425
2.88000	427
2.88367	427
2.88733	424
2.89100	419
2.89467	414
2.89833	407
2.90200	399
2.90567	389
2.90933	379
2.91300	374
2.91667	378
2.92033	383
2.92400	387
2.92767	390
2.93133	392
2.93500	394
2.93867	399
2.94233	403
2.94600	403
2.94967	402
2.95333	404
2.95700	406
2.96067	402
2.96433	397
2.96800	394
2.97167	391
2.97533	393
2.97900	397
2.98267	402
2.98633	408
2.99000	413
2.99367	416
2.99733	421
3.00100	428
3.00467	429
3.00833	425
3.01200	421
3.01567	416
3.01933	408
3.02300	401
3.02667	402
3.03033	404
3.03400	401
3.03767	396
3.04133	393
3.04500	393
3.04867	399
3.05233	407
3.05600	412
3.05967	410
3.06333	404
3.06700	394
3.07067	383
3.07433	380
3.07800	390
3.08167	402
3.08533	410
3.08900	410
3.09267	401
3.09633	390
3.10000	384
3.10367	384
3.10733	382
3.11100	375
3.11467	373
3.11833	379
3.12200	387
3.12567	390
3.12933	395
3.13300	400
3.13667	403
3.14033	406
3.14400	410
3.14767	413
3.15133	415
3.15500	415
3.15867	413
3.16233	406
3.16600	393
3.16967	376
3.17333	365
3.17700	365
3.18067	370
3.18433	377
3.18800	379
3.19167	381
3.19533	390
3.19900	398
3.20267	403
3.20633	405
3.21000	402
3.21367	397
3.21733	389
3.22100	380
3.22467	371
3.22833	365
3.23200	362
3.23567	361
3.23933	360
3.24300	359
3.24667	360
3.25033	365
3.25400	372
3.25767	379
3.26133	385
3.26500	387
3.26867	386
3.27233	383
3.27600	377
3.27967	370
3.28333	365
3.28700	367
3.29067	375
3.29433	385
3.29800	393
3.30167	397
3.30533	395
3.30900	388
3.31267	379
3.31633	377
3.32000	378
3.32367	372
3.32733	366
3.33100	358
3.33467	354
3.33833	350
3.34200	347
3.34567	348
3.34933	354
3.35300	360
3.35667	366
3.36033	370
3.36400	375
3.36767	379
3.37133	378
3.37500	376
3.37867	373
3.38233	370
3.38600	368
3.38967	368
3.39333	366
3.39700	365
3.40067	364
3.40433	358
3.40800	353
3.41167	353
3.41533	356
3.41900	361
3.42267	365
3.42633	371
3.43000	377
3.43367	375
3.43733	366
3.44100	356
3.44467	348
3.44833	344
3.45200	343
3.45567	344
3.45933	350
3.46300	354
3.46667	352
3.47033	347
3.47400	342
3.47767	341
3.48133	339
3.48500	338
3.48867	341
3.49233	346
3.49600	351
3.49967	356
3.50333	357
3.50700	352
3.51067	348
3.51433	344
3.51800	339
3.52167	333
3.52533	330
3.52900	327
3.53267	322
3.53633	319
3.54000	322
3.54367	331
3.54733	341
3.55100	343
3.55467	340
3.55833	337
3.56200	335
3.56567	334
3.56933	330
3.57300	327
3.57667	324
3.58033	323
3.58400	326
3.58767	326
3.59133	322
3.59500	323
3.59867	326
3.60233	327
3.60600	324
3.60967	321
3.61333	323
3.61700	324
3.62067	324
3.62433	322
3.62800	320
3.63167	320
3.63533	319
3.63900	321
3.64267	316
3.64633	311
3.65000	311
3.65367	315
3.65733	319
3.66100	322
3.66467	324
3.66833	327
3.67200	330
3.67567	334
3.67933	335
3.68300	334
3.68667	331
3.69033	324
3.69400	314
3.69767	302
3.70133	293
3.70500	288
3.70867	288
3.71233	290
3.71600	288
3.71967	291
3.72333	303
3.72700	318
3.73067	330
3.73433	333
3.73800	333
3.74167	327
3.74533	315
3.74900	305
3.75267	293
3.75633	280
3.76000	270
3.76367	267
3.76733	268
3.77100	272
3.77467	275
3.77833	278
3.78200	283
3.78567	292
3.78933	299
3.79300	299
3.79667	297
3.80033	296
3.80400	298
3.80767	305
3.81133	305
3.81500	298
3.81867	290
3.82233	286
3.82600	280
3.82967	275
3.83333	273
3.83700	277
3.84067	287
3.84433	295
3.84800	302
3.85167	304
3.85533	299
3.85900	295
3.86267	289
3.86633	282
3.87000	278
3.87367	281
3.87733	282
3.88100	280
3.88467	279
3.88833	281
3.89200	282
3.89567	278
3.89933	273
3.90300	271
3.90667	273
3.91033	279
3.91400	285
3.91767	290
3.92133	290
3.92500	282
3.92867	273
3.93233	267
3.93600	267
3.93967	274
3.94333	280
3.94700	289
3.95067	301
3.95433	310
3.95800	309
3.96167	296
3.96533	275
3.96900	254
3.97267	239
3.97633	232
3.98000	231
3.98367	235
3.98733	242
3.99100	244
3.99467	245
3.99833	249

[Chromatogram (Ch2)]
Interval(msec)	220
# of Points	1091
Start Time(min)	0.002
End Time(min)	3.998
R.Time (min)	Intensity
0.00167	-1
0.00533	-1
0.00900	-2
0.01267	-2
0.01633	-3
0.02000	-3
0.02367	-3
0.02733	-4
0.03100	-3
0.03467	-3
0.03833	-3
0.04200	-2
0.04567	-2
0.04933	-2
0.05300	-2
0.05667	-1
0.06033	-1
0.06400	-1
0.06767	-1
0.07133	-1
0.07500	-1
0.07867	-0
0.08233	-0
0.08600	-0
0.08967	-0
0.09333	-0
0.09700	0
0.10067	0
0.10433	0
0.10800	0
0.11167	0
0.11533	-0
0.11900	-0
0.12267	-0
0.12633	-1
0.13000	-1
0.13367	-1
0.13733	-1
0.14100	-1
0.14467	-1
0.14833	-1
0.15200	-1
0.15567	-1
0.15933	-1
0.16300	-1
0.16667	-1
0.17033	-1
0.17400	-1
0.17767	-1
0.18133	-1
0.18500	-1
0.18867	-1
0.19233	-0
0.19600	-0
0.19967	0
0.20333	0
0.20700	0
0.21067	0
0.21433	0
0.21800	0
0.22167	0
0.22533	0
0.22900	0
0.23267	0
0.23633	0
0.24000	0
0.24367	-0
0.24733	-0
0.25100	-0
0.25467	-1
0.25833	-1
0.26200	-1
0.26567	-1
0.26933	-1
0.27300	-0
0.27667	-0
0.28033	-0
0.28400	-0
0.28767	-0
0.29133	-0
0.29500	-0
0.29867	-1
0.30233	-1
0.30600	-1
0.30967	-2
0.31333	-2
0.31700	-2
0.32067	-2
0.32433	-2
0.32800	-2
0.33167	-2
0.33533	-2
0.33900	-2
0.34267	-1
0.34633	-1
0.35000	-1
0.35367	-1
0.35733	-1
0.36100	-0
0.36467	-0
0.36833	-0
0.37200	-0
0.37567	-1
0.37933	-0
0.38300	-0
0.38667	-0
0.39033	0
0.39400	0
0.39767	0
0.40133	-0
0.40500	-0
0.40867	-0
0.41233	-1
0.41600	-1
0.41967	-2
0.42333	-2
0.42700	-3
0.43067	-3
0.43433	-3
0.43800	-3
0.44167	-3
0.44533	-3
0.44900	-3
0.45267	-3
0.45633	-3
0.46000	-3
0.46367	-2
0.46733	-2
0.47100	-2
0.47467	-2
0.47833	-2
0.48200	-2
0.48567	-2
0.48933	-3
0.49300	-3
0.49667	-3
0.50033	-3
0.50400	-3
0.50767	-3
0.51133	-3
0.51500	-4
0.51867	-4
0.52233	-3
0.52600	-3
0.52967	-3
0.53333	-3
0.53700	-2
0.54067	-2
0.54433	-1
0.54800	-1
0.55167	-1
0.55533	-0
0.55900	-0
0.56267	-0
0.56633	0
0.57000	0
0.57367	1
0.57733	1
0.58100	1
0.58467	1
0.58833	1
0.59200	1
0.59567	1
0.59933	1
0.60300	0
0.60667	0
0.61033	-0
0.61400	-0
0.61767	-0
0.62133	0
0.62500	0
0.62867	1
0.63233	1
0.63600	1
0.63967	1
0.64333	1
0.64700	1
0.65067	1
0.65433	1
0.65800	1
0.66167	1
0.66533	1
0.66900	1
0.67267	1
0.67633	1
0.68000	1
0.68367	1
0.68733	1
0.69100	1
0.69467	1
0.69833	0
0.70200	0
0.70567	-0
0.70933	-0
0.71300	-1
0.71667	-1
0.72033	-1
0.72400	-1
0.72767	-2
0.73133	-2
0.73500	-3
0.73867	-3
0.74233	-4
0.74600	-4
0.74967	-4
0.75333	-4
0.75700	-5
0.76067	-5
0.76433	-5
0.76800	-4
0.77167	-4
0.77533	-3
0.77900	-3
0.78267	-3
0.78633	-2
0.79000	-2
0.79367	-1
0.79733	-1
0.80100	-1
0.80467	-1
0.80833	-1
0.81200	-1
0.81567	-1
0.81933	-1
0.82300	-1
0.82667	-1
0.83033	-1
0.83400	-1
0.83767	-1
0.84133	-1
0.84500	-1
0.84867	-1
0.85233	-1
0.85600	-2
0.85967	-2
0.86333	-2
0.86700	-2
0.87067	-2
0.87433	-2
0.87800	-2
0.88167	-2
0.88533	-2
0.88900	-2
0.89267	-2
0.89633	-2
0.90000	-2
0.90367	-3
0.90733	-3
0.91100	-3
0.91467	-3
0.91833	-3
0.92200	-2
0.92567	-2
0.92933	-1
0.93300	-1
0.93667	-0
0.94033	-0
0.94400	0
0.94767	1
0.95133	1
0.95500	1
0.95867	1
0.96233	0
0.96600	-0
0.96967	-1
0.97333	-1
0.97700	-1
0.98067	-1
0.98433	-1
0.98800	-2
0.99167	-2
0.99533	-2
0.99900	-2
1.00267	-3
1.00633	-3
1.01000	-3
1.01367	-3
1.01733	-3
1.02100	-3
1.02467	-3
1.02833	-3
1.03200	-3
1.03567	-3
1.03933	-3
1.04300	-3
1.04667	-3
1.05033	-3
1.05400	-3
1.05767	-3
1.06133	-3
1.06500	-3
1.06867	-3
1.07233	-3
1.07600	-3
1.07967	-3
1.08333	-3
1.08700	-3
1.09067	-3
1.09433	-2
1.09800	-2
1.10167	-2
1.10533	-2
1.10900	-2
1.11267	-2
1.11633	-2
1.12000	-2
1.12367	-2
1.12733	-2
1.13100	-2
1.13467	-2
1.13833	-2
1.14200	-2
1.14567	-2
1.14933	-2
1.15300	-2
1.15667	-1
1.16033	-1
1.16400	-1
1.16767	-1
1.17133	-1
1.17500	-1
1.17867	-1
1.18233	-2
1.18600	-2
1.18967	-2
1.19333	-2
1.19700	-2
1.20067	-2
1.20433	-2
1.20800	-2
1.21167	-2
1.21533	-1
1.21900	-1
1.22267	-1
1.22633	-0
1.23000	-0
1.23367	-0
1.23733	0
1.24100	0
1.24467	0
1.24833	0
1.25200	0
1.25567	-0
1.25933	0
1.26300	0
1.26667	0
1.27033	0
1.27400	0
1.27767	0
1.28133	-0
1.28500	-0
1.28867	-0
1.29233	-0
1.29600	0
1.29967	0
1.30333	1
1.30700	1
1.31067	0
1.31433	-0
1.31800	-1
1.32167	-1
1.32533	-1
1.32900	-1
1.33267	-2
1.33633	-2
1.34000	-2
1.34367	-2
1.34733	-2
1.35100	-2
1.35467	-3
1.35833	-3
1.36200	-3
1.36567	-4
1.36933	-4
1.37300	-4
1.37667	-4
1.38033	-4
1.38400	-3
1.38767	-3
1.39133	-3
1.39500	-2
1.39867	-2
1.40233	-2
1.40600	-2
1.40967	-1
1.41333	-1
1.41700	-1
1.42067	-1
1.42433	-1
1.42800	-1
1.43167	-1
1.43533	-1
1.43900	-1
1.44267	-2
1.44633	-2
1.45000	-3
1.45367	-3
1.45733	-3
1.46100	-4
1.46467	-4
1.46833	-3
1.47200	-3
1.47567	-3
1.47933	-3
1.48300	-2
1.48667	-2
1.49033	-2
1.49400	-2
1.49767	-2
1.50133	-2
1.50500	-2
1.50867	-2
1.51233	-3
1.51600	-3
1.51967	-4
1.52333	-4
1.52700	-5
1.53067	-6
1.53433	-6
1.53800	-6
1.54167	-6
1.54533	-6
1.54900	-5
1.55267	-5
1.55633	-4
1.56000	-4
1.56367	-4
1.56733	-3
1.57100	-3
1.57467	-2
1.57833	-2
1.58200	-2
1.58567	-2
1.58933	-2
1.59300	-2
1.59667	-3
1.60033	-3
1.60400	-5
1.60767	-6
1.61133	-8
1.61500	-9
1.61867	-11
1.62233	-14
1.62600	-16
1.62967	-19
1.63333	-22
1.63700	-26
1.64067	-29
1.64433	-33
1.64800	-36
1.65167	-40
1.65533	-44
1.65900	-48
1.66267	-52
1.66633	-57
1.67000	-62
1.67367	-67
1.67733	-73
1.68100	-77
1.68467	-82
1.68833	-86
1.69200	-90
1.69567	-93
1.69933	-96
1.70300	-98
1.70667	-100
1.71033	-102
1.71400	-103
1.71767	-105
1.72133	-106
1.72500	-107
1.72867	-107
1.73233	-108
1.73600	-108
1.73967	-108
1.74333	-108
1.74700	-108
1.75067	-107
1.75433	-107
1.75800	-106
1.76167	-106
1.76533	-106
1.76900	-107
1.77267	-108
1.77633	-109
1.78000	-110
1.78367	-111
1.78733	-111
1.79100	-112
1.79467	-112
1.79833	-112
1.80200	-113
1.80567	-113
1.80933	-114
1.81300	-115
1.81667	-115
1.82033	-116
1.82400	-116
1.82767	-116
1.83133	-116
1.83500	-115
1.83867	-114
1.84233	-113
1.84600	-112
1.84967	-111
1.85333	-110
1.85700	-109
1.86067	-109
1.86433	-109
1.86800	-110
1.87167	-111
1.87533	-111
1.87900	-112
1.88267	-112
1.88633	-113
1.89000	-113
1.89367	-113
1.89733	-113
1.90100	-113
1.90467	-113
1.90833	-112
1.91200	-112
1.91567	-112
1.91933	-112
1.92300	-113
1.92667	-113
1.93033	-113
1.93400	-112
1.93767	-111
1.94133	-111
1.94500	-110
1.94867	-110
1.95233	-110
1.95600	-110
1.95967	-110
1.96333	-110
1.96700	-110
1.97067	-110
1.97433	-110
1.97800	-109
1.98167	-109
1.98533	-109
1.98900	-109
1.99267	-109
1.99633	-108
2.00000	-108
2.00367	-108
2.00733	-108
2.01100	-108
2.01467	-107
2.01833	-107
2.02200	-107
2.02567	-107
2.02933	-107
2.03300	-107
2.03667	-106
2.04033	-106
2.04400	-105
2.04767	-104
2.05133	-103
2.05500	-103
2.05867	-102
2.06233	-102
2.06600	-101
2.06967	-102
2.07333	-102
2.07700	-102
2.08067	-102
2.08433	-101
2.08800	-101
2.09167	-100
2.09533	-99
2.09900	-99
2.10267	-99
2.10633	-98
2.11000	-99
2.11367	-99
2.11733	-99
2.12100	-99
2.12467	-99
2.12833	-99
2.13200	-98
2.13567	-98
2.13933	-97
2.14300	-96
2.14667	-96
2.15033	-95
2.15400	-95
2.15767	-94
2.16133	-95
2.16500	-95
2.16867	-95
2.17233	-95
2.17600	-94
2.17967	-94
2.18333	-93
2.18700	-93
2.19067	-93
2.19433	-92
2.19800	-92
2.20167	-92
2.20533	-92
2.20900	-92
2.21267	-92
2.21633	-91
2.22000	-91
2.22367	-90
2.22733	-90
2.23100	-90
2.23467	-89
2.23833	-89
2.24200	-88
2.24567	-88
2.24933	-87
2.25300	-86
2.25667	-86
2.26033	-86
2.26400	-85
2.26767	-85
2.27133	-84
2.27500	-84
2.27867	-84
2.28233	-83
2.28600	-83
2.28967	-83
2.29333	-83
2.29700	-83
2.30067	-83
2.30433	-82
2.30800	-82
2.31167	-81
2.31533	-80
2.31900	-80
2.32267	-79
2.32633	-78
2.33000	-78
2.33367	-78
2.33733	-77
2.34100	-77
2.34467	-76
2.34833	-76
2.35200	-75
2.35567	-74
2.35933	-73
2.36300	-72
2.36667	-71
2.37033	-70
2.37400	-68
2.37767	-65
2.38133	-62
2.38500	-58
2.38867	-54
2.39233	-50
2.39600	-45
2.39967	-41
2.40333	-36
2.40700	-32
2.41067	-28
2.41433	-24
2.41800	-20
2.42167	-17
2.42533	-14
2.42900	-12
2.43267	-10
2.43633	-9
2.44000	-7
2.44367	-7
2.44733	-6
2.45100	-5
2.45467	-4
2.45833	-4
2.46200	-3
2.46567	-3
2.46933	-2
2.47300	-2
2.47667	-1
2.48033	-0
2.48400	1
2.48767	2
2.49133	3
2.49500	4
2.49867	5
2.50233	6
2.50600	7
2.50967	8
2.51333	8
2.51700	9
2.52067	9
2.52433	10
2.52800	11
2.53167	11
2.53533	12
2.53900	13
2.54267	14
2.54633	15
2.55000	16
2.55367	16
2.55733	16
2.56100	16
2.56467	16
2.56833	16
2.57200	16
2.57567	16
2.57933	16
2.58300	16
2.58667	16
2.59033	17
2.59400	17
2.59767	17
2.60133	18
2.60500	18
2.60867	18
2.61233	18
2.61600	19
2.61967	19
2.62333	19
2.62700	20
2.63067	20
2.63433	20
2.63800	20
2.64167	19
2.64533	19
2.64900	20
2.65267	20
2.65633	20
2.66000	20
2.66367	21
2.66733	21
2.67100	21
2.67467	21
2.67833	22
2.68200	22
2.68567	23
2.68933	23
2.69300	23
2.69667	23
2.70033	23
2.70400	23
2.70767	22
2.71133	22
2.71500	22
2.71867	21
2.72233	21
2.72600	21
2.72967	21
2.73333	22
2.73700	22
2.74067	23
2.74433	23
2.74800	24
2.75167	24
2.75533	25
2.75900	25
2.76267	26
2.76633	26
2.77000	27
2.77367	27
2.77733	27
2.78100	27
2.78467	27
2.78833	26
2.79200	26
2.79567	25
2.79933	25
2.80300	24
2.80667	24
2.81033	24
2.81400	23
2.81767	23
2.82133	24
2.82500	24
2.82867	24
2.83233	24
2.83600	24
2.83967	23
2.84333	22
2.84700	20
2.85067	16
2.85433	8
2.85800	-3
2.86167	-18
2.86533	-38
2.86900	-63
2.87267	-94
2.87633	-130
2.88000	-173
2.88367	-220
2.88733	-274
2.89100	-332
2.89467	-395
2.89833	-462
2.90200	-534
2.90567	-609
2.90933	-688
2.91300	-769
2.91667	-854
2.92033	-941
2.92400	-1031
2.92767	-1122
2.93133	-1215
2.93500	-1311
2.93867	-1405
2.94233	-1489
2.94600	-1550
2.94967	-1576
2.95333	-1565
2.95700	-1519
2.96067	-1444
2.96433	-1349
2.96800	-1240
2.97167	-1127
2.97533	-1012
2.97900	-901
2.98267	-796
2.98633	-699
2.99000	-610
2.99367	-530
2.99733	-459
3.00100	-396
3.00467	-340
3.00833	-292
3.01200	-250
3.01567	-213
3.01933	-181
3.02300	-154
3.02667	-131
3.03033	-110
3.03400	-93
3.03767	-78
3.04133	-65
3.04500	-55
3.04867	-45
3.05233	-37
3.05600	-30
3.05967	-24
3.06333	-19
3.06700	-15
3.07067	-12
3.07433	-8
3.07800	-6
3.08167	-3
3.08533	-1
3.08900	1
3.09267	3
3.09633	4
3.10000	5
3.10367	6
3.10733	8
3.11100	8
3.11467	9
3.11833	10
3.12200	11
3.12567	11
3.12933	11
3.13300	11
3.13667	12
3.14033	12
3.14400	12
3.14767	13
3.15133	13
3.15500	14
3.15867	14
3.16233	15
3.16600	15
3.16967	16
3.17333	16
3.17700	16
3.18067	17
3.18433	17
3.18800	17
3.19167	18
3.19533	18
3.19900	18
3.20267	18
3.20633	18
3.21000	18
3.21367	18
3.21733	19
3.22100	19
3.22467	19
3.22833	19
3.23200	19
3.23567	19
3.23933	19
3.24300	19
3.24667	19
3.25033	20
3.25400	20
3.25767	20
3.26133	21
3.26500	21
3.26867	22
3.27233	22
3.27600	22
3.27967	22
3.28333	22
3.28700	22
3.29067	23
3.29433	23
3.29800	23
3.30167	23
3.30533	23
3.30900	23
3.31267	23
3.31633	23
3.32000	23
3.32367	23
3.32733	23
3.33100	23
3.33467	23
3.33833	23
3.34200	23
3.34567	23
3.34933	23
3.35300	24
3.35667	24
3.36033	24
3.36400	24
3.36767	24
3.37133	24
3.37500	25
3.37867	25
3.38233	25
3.38600	25
3.38967	25
3.39333	26
3.39700	26
3.40067	26
3.40433	26
3.40800	27
3.41167	27
3.41533	27
3.41900	27
3.42267	27
3.42633	27
3.43000	27
3.43367	27
3.43733	27
3.44100	27
3.44467	27
3.44833	27
3.45200	27
3.45567	28
3.45933	28
3.46300	28
3.46667	28
3.47033	28
3.47400	28
3.47767	28
3.48133	28
3.48500	28
3.48867	28
3.49233	28
3.49600	28
3.49967	28
3.50333	28
3.50700	28
3.51067	28
3.51433	28
3.51800	29
3.52167	29
3.52533	29
3.52900	29
3.53267	28
3.53633	28
3.54000	28
3.54367	28
3.54733	28
3.55100	28
3.55467	27
3.55833	27
3.56200	27
3.56567	27
3.56933	27
3.57300	26
3.57667	26
3.58033	26
3.58400	26
3.58767	26
3.59133	26
3.59500	26
3.59867	27
3.60233	27
3.60600	27
3.60967	27
3.61333	27
3.61700	27
3.62067	27
3.62433	27
3.62800	27
3.63167	27
3.63533	27
3.63900	27
3.64267	27
3.64633	27
3.65000	26
3.65367	26
3.65733	26
3.66100	26
3.66467	26
3.66833	26
3.67200	27
3.67567	27
3.67933	27
3.68300	26
3.68667	26
3.69033	26
3.69400	26
3.69767	25
3.70133	25
3.70500	25
3.70867	26
3.71233	26
3.71600	27
3.71967	27
3.72333	27
3.72700	28
3.73067	28
3.73433	28
3.73800	28
3.74167	28
3.74533	28
3.74900	28
3.75267	28
3.75633	27
3.76000	27
3.76367	27
3.76733	27
3.77100	26
3.77467	26
3.77833	26
3.78200	26
3.78567	26
3.78933	26
3.79300	26
3.79667	26
3.80033	26
3.80400	25
3.80767	25
3.81133	25
3.81500	25
3.81867	25
3.82233	25
3.82600	25
3.82967	25
3.83333	25
3.83700	25
3.84067	25
3.84433	25
3.84800	26
3.85167	26
3.85533	26
3.85900	26
3.86267	26
3.86633	26
3.87000	26
3.87367	26
3.87733	26
3.88100	26
3.88467	26
3.88833	26
3.89200	26
3.89567	26
3.89933	26
3.90300	26
3.90667	26
3.91033	27
3.91400	27
3.91767	27
3.92133	27
3.92500	27
3.92867	27
3.93233	27
3.93600	27
3.93967	26
3.94333	26
3.94700	26
3.95067	26
3.95433	26
3.95800	26
3.96167	26
3.96533	26
3.96900	26
3.97267	26
3.97633	25
3.98000	25
3.98367	25
3.98733	25
3.99100	24
3.99467	24
3.99833	24

[Chromatogram (Ch3)]
Interval(msec)	220
# of Points	1091
Start Time(min)	0.002
End Time(min)	3.998
R.Time (min)	Intensity
0.00167	-0
0.00533	-1
0.00900	-2
0.01267	-3
0.01633	-3
0.02000	-4
0.02367	-5
0.02733	-8
0.03100	-9
0.03467	-10
0.03833	-11
0.04200	-9
0.04567	-6
0.04933	-3
0.05300	-1
0.05667	-0
0.06033	-1
0.06400	0
0.06767	2
0.07133	0
0.07500	1
0.07867	0
0.08233	1
0.08600	1
0.08967	1
0.09333	1
0.09700	-2
0.10067	-2
0.10433	-2
0.10800	-1
0.11167	-2
0.11533	-4
0.11900	-4
0.12267	-3
0.12633	0
0.13000	2
0.13367	4
0.13733	4
0.14100	3
0.14467	1
0.14833	-1
0.15200	-4
0.15567	-6
0.15933	-7
0.16300	-7
0.16667	-4
0.17033	-3
0.17400	-2
0.17767	-3
0.18133	-3
0.18500	-4
0.18867	-5
0.19233	-4
0.19600	-3
0.19967	-2
0.20333	-1
0.20700	-2
0.21067	-2
0.21433	-2
0.21800	-2
0.22167	-2
0.22533	-3
0.22900	-3
0.23267	-3
0.23633	-3
0.24000	-3
0.24367	-6
0.24733	-8
0.25100	-9
0.25467	-9
0.25833	-9
0.26200	-10
0.26567	-10
0.26933	-8
0.27300	-5
0.27667	-3
0.28033	-2
0.28400	-4
0.28767	-5
0.29133	-5
0.29500	-6
0.29867	-6
0.30233	-6
0.30600	-5
0.30967	-5
0.31333	-5
0.31700	-6
0.32067	-9
0.32433	-9
0.32800	-7
0.33167	-4
0.33533	-3
0.33900	-2
0.34267	-1
0.34633	-1
0.35000	-1
0.35367	-2
0.35733	-3
0.36100	-3
0.36467	-4
0.36833	-4
0.37200	-3
0.37567	-3
0.37933	-3
0.38300	-3
0.38667	0
0.39033	2
0.39400	2
0.39767	1
0.40133	1
0.40500	-0
0.40867	-0
0.41233	-1
0.41600	-1
0.41967	-2
0.42333	-2
0.42700	-3
0.43067	-4
0.43433	-5
0.43800	-4
0.44167	-2
0.44533	-3
0.44900	-3
0.45267	-2
0.45633	-4
0.46000	-5
0.46367	-4
0.46733	-2
0.47100	-2
0.47467	-2
0.47833	-1
0.48200	-1
0.48567	-1
0.48933	-1
0.49300	-1
0.49667	-2
0.50033	-1
0.50400	-2
0.50767	-1
0.51133	-1
0.51500	-1
0.51867	-0
0.52233	-2
0.52600	-1
0.52967	-1
0.53333	-2
0.53700	-0
0.54067	0
0.54433	-1
0.54800	-2
0.55167	-2
0.55533	-2
0.55900	-2
0.56267	-1
0.56633	-0
0.57000	-1
0.57367	-1
0.57733	-0
0.58100	1
0.58467	2
0.58833	2
0.59200	1
0.59567	2
0.59933	2
0.60300	1
0.60667	-2
0.61033	-3
0.61400	-3
0.61767	-2
0.62133	-1
0.62500	-3
0.62867	-6
0.63233	-7
0.63600	-7
0.63967	-6
0.64333	-4
0.64700	-4
0.65067	-3
0.65433	-4
0.65800	-4
0.66167	-2
0.66533	1
0.66900	0
0.67267	1
0.67633	0
0.68000	-4
0.68367	-5
0.68733	-5
0.69100	-5
0.69467	-4
0.69833	-1
0.70200	2
0.70567	3
0.70933	2
0.71300	0
0.71667	-1
0.72033	-1
0.72400	-0
0.72767	0
0.73133	1
0.73500	2
0.73867	3
0.74233	2
0.74600	-0
0.74967	-0
0.75333	-0
0.75700	-1
0.76067	-3
0.76433	-5
0.76800	-5
0.77167	-3
0.77533	-3
0.77900	-3
0.78267	-2
0.78633	-1
0.79000	-1
0.79367	0
0.79733	-0
0.80100	0
0.80467	0
0.80833	-1
0.81200	-2
0.81567	-4
0.81933	-3
0.82300	-3
0.82667	-2
0.83033	1
0.83400	3
0.83767	4
0.84133	3
0.84500	4
0.84867	4
0.85233	5
0.85600	7
0.85967	9
0.86333	10
0.86700	11
0.87067	8
0.87433	7
0.87800	7
0.88167	7
0.88533	7
0.88900	6
0.89267	4
0.89633	5
0.90000	5
0.90367	4
0.90733	3
0.91100	3
0.91467	4
0.91833	3
0.92200	1
0.92567	2
0.92933	4
0.93300	4
0.93667	2
0.94033	1
0.94400	2
0.94767	3
0.95133	5
0.95500	5
0.95867	6
0.96233	7
0.96600	5
0.96967	5
0.97333	5
0.97700	5
0.98067	7
0.98433	6
0.98800	6
0.99167	10
0.99533	12
0.99900	13
1.00267	13
1.00633	12
1.01000	12
1.01367	11
1.01733	9
1.02100	8
1.02467	10
1.02833	10
1.03200	10
1.03567	11
1.03933	10
1.04300	10
1.04667	10
1.05033	7
1.05400	4
1.05767	5
1.06133	6
1.06500	9
1.06867	9
1.07233	9
1.07600	8
1.07967	8
1.08333	7
1.08700	8
1.09067	9
1.09433	10
1.09800	10
1.10167	10
1.10533	9
1.10900	10
1.11267	10
1.11633	10
1.12000	11
1.12367	10
1.12733	11
1.13100	12
1.13467	12
1.13833	12
1.14200	11
1.14567	11
1.14933	10
1.15300	11
1.15667	9
1.16033	10
1.16400	9
1.16767	10
1.17133	10
1.17500	11
1.17867	12
1.18233	14
1.18600	15
1.18967	14
1.19333	14
1.19700	13
1.20067	13
1.20433	13
1.20800	14
1.21167	14
1.21533	15
1.21900	11
1.22267	11
1.22633	10
1.23000	10
1.23367	12
1.23733	11
1.24100	11
1.24467	12
1.24833	13
1.25200	12
1.25567	12
1.25933	13
1.26300	13
1.26667	15
1.27033	17
1.27400	18
1.27767	17
1.28133	18
1.28500	17
1.28867	16
1.29233	13
1.29600	11
1.29967	10
1.30333	10
1.30700	12
1.31067	13
1.31433	15
1.31800	16
1.32167	18
1.32533	18
1.32900	16
1.33267	13
1.33633	14
1.34000	15
1.34367	16
1.34733	18
1.35100	19
1.35467	19
1.35833	20
1.36200	18
1.36567	17
1.36933	15
1.37300	12
1.37667	12
1.38033	12
1.38400	13
1.38767	14
1.39133	15
1.39500	16
1.39867	16
1.40233	15
1.40600	13
1.40967	14
1.41333	16
1.41700	17
1.42067	18
1.42433	18
1.42800	18
1.43167	16
1.43533	15
1.43900	16
1.44267	17
1.44633	18
1.45000	19
1.45367	18
1.45733	18
1.46100	19
1.46467	18
1.46833	18
1.47200	18
1.47567	18
1.47933	17
1.48300	16
1.48667	13
1.49033	12
1.49400	13
1.49767	16
1.50133	17
1.50500	16
1.50867	15
1.51233	15
1.51600	16
1.51967	16
1.52333	15
1.52700	16
1.53067	14
1.53433	12
1.53800	11
1.54167	9
1.54533	11
1.54900	13
1.55267	14
1.55633	15
1.56000	16
1.56367	17
1.56733	17
1.57100	15
1.57467	16
1.57833	16
1.58200	18
1.58567	19
1.58933	19
1.59300	21
1.59667	23
1.60033	25
1.60400	23
1.60767	24
1.61133	23
1.61500	21
1.61867	21
1.62233	22
1.62600	24
1.62967	24
1.63333	24
1.63700	24
1.64067	23
1.64433	23
1.64800	25
1.65167	27
1.65533	29
1.65900	30
1.66267	28
1.66633	28
1.67000	27
1.67367	25
1.67733	26
1.68100	29
1.68467	31
1.68833	34
1.69200	37
1.69567	36
1.69933	33
1.70300	32
1.70667	32
1.71033	33
1.71400	35
1.71767	35
1.72133	36
1.72500	38
1.72867	38
1.73233	38
1.73600	38
1.73967	37
1.74333	38
1.74700	41
1.75067	41
1.75433	42
1.75800	45
1.76167	44
1.76533	41
1.76900	41
1.77267	42
1.77633	43
1.78000	43
1.78367	42
1.78733	40
1.79100	42
1.79467	43
1.79833	43
1.80200	46
1.80567	46
1.80933	45
1.81300	44
1.81667	43
1.82033	44
1.82400	47
1.82767	49
1.83133	48
1.83500	47
1.83867	47
1.84233	46
1.84600	46
1.84967	43
1.85333	42
1.85700	45
1.86067	46
1.86433	47
1.86800	49
1.87167	52
1.87533	54
1.87900	53
1.88267	54
1.88633	55
1.89000	55
1.89367	57
1.89733	58
1.90100	57
1.90467	58
1.90833	60
1.91200	61
1.91567	63
1.91933	66
1.92300	67
1.92667	69
1.93033	68
1.93400	69
1.93767	69
1.94133	69
1.94500	68
1.94867	67
1.95233	68
1.95600	67
1.95967	67
1.96333	69
1.96700	73
1.97067	75
1.97433	76
1.97800	76
1.98167	75
1.98533	75
1.98900	75
1.99267	76
1.99633	79
2.00000	81
2.00367	83
2.00733	85
2.01100	88
2.01467	92
2.01833	94
2.02200	95
2.02567	95
2.02933	95
2.03300	96
2.03667	96
2.04033	97
2.04400	98
2.04767	97
2.05133	98
2.05500	100
2.05867	101
2.06233	102
2.06600	101
2.06967	101
2.07333	104
2.07700	106
2.08067	109
2.08433	111
2.08800	112
2.09167	112
2.09533	114
2.09900	119
2.10267	123
2.10633	124
2.11000	123
2.11367	123
2.11733	124
2.12100	127
2.12467	129
2.12833	130
2.13200	133
2.13567	135
2.13933	137
2.14300	139
2.14667	141
2.15033	141
2.15400	141
2.15767	142
2.16133	144
2.16500	145
2.16867	147
2.17233	149
2.17600	150
2.17967	150
2.18333	151
2.18700	152
2.19067	155
2.19433	157
2.19800	159
2.20167	161
2.20533	162
2.20900	162
2.21267	163
2.21633	165
2.22000	167
2.22367	169
2.22733	170
2.23100	170
2.23467	172
2.23833	174
2.24200	177
2.24567	182
2.24933	184
2.25300	186
2.25667	184
2.26033	186
2.26400	187
2.26767	187
2.27133	187
2.27500	189
2.27867	191
2.28233	192
2.28600	195
2.28967	195
2.29333	194
2.29700	197
2.30067	204
2.30433	209
2.30800	211
2.31167	210
2.31533	209
2.31900	211
2.32267	212
2.32633	211
2.33000	212
2.33367	214
2.33733	214
2.34100	216
2.34467	217
2.34833	219
2.35200	222
2.35567	226
2.35933	228
2.36300	231
2.36667	230
2.37033	229
2.37400	232
2.37767	234
2.38133	236
2.38500	235
2.38867	232
2.39233	231
2.39600	232
2.39967	236
2.40333	242
2.40700	245
2.41067	249
2.41433	253
2.41800	256
2.42167	259
2.42533	259
2.42900	258
2.43267	256
2.43633	257
2.44000	262
2.44367	314
2.44733	455
2.45100	608
2.45467	736
2.45833	809
2.46200	816
2.46567	787
2.46933	751
2.47300	724
2.47667	710
2.48033	697
2.48400	667
2.48767	623
2.49133	574
2.49500	529
2.49867	492
2.50233	466
2.50600	452
2.50967	450
2.51333	456
2.51700	470
2.52067	490
2.52433	509
2.52800	522
2.53167	522
2.53533	511
2.53900	490
2.54267	460
2.54633	428
2.55000	398
2.55367	373
2.55733	353
2.56100	337
2.56467	325
2.56833	316
2.57200	310
2.57567	306
2.57933	303
2.58300	302
2.58667	302
2.59033	305
2.59400	309
2.59767	311
2.60133	312
2.60500	310
2.60867	308
2.61233	304
2.61600	299
2.61967	291
2.62333	281
2.62700	273
2.63067	267
2.63433	260
2.63800	253
2.64167	247
2.64533	238
2.64900	229
2.65267	220
2.65633	213
2.66000	205
2.66367	194
2.66733	183
2.67100	173
2.67467	163
2.67833	155
2.68200	147
2.68567	139
2.68933	137
2.69300	136
2.69667	136
2.70033	136
2.70400	137
2.70767	139
2.71133	142
2.71500	145
2.71867	146
2.72233	147
2.72600	150
2.72967	154
2.73333	157
2.73700	159
2.74067	160
2.74433	163
2.74800	166
2.75167	169
2.75533	171
2.75900	173
2.76267	175
2.76633	177
2.77000	177
2.77367	178
2.77733	179
2.78100	181
2.78467	182
2.78833	186
2.79200	190
2.79567	193
2.79933	197
2.80300	200
2.80667	204
2.81033	208
2.81400	213
2.81767	224
2.82133	246
2.82500	295
2.82867	402
2.83233	613
2.83600	992
2.83967	1602
2.84333	2498
2.84700	3704
2.85067	5193
2.85433	6905
2.85800	8733
2.86167	10544
2.86533	12203
2.86900	13581
2.87267	14580
2.87633	15148
2.88000	15287
2.88367	15040
2.88733	14472
2.89100	13672
2.89467	12719
2.89833	11686
2.90200	10628
2.90567	9586
2.90933	8589
2.91300	7659
2.91667	6805
2.92033	6025
2.92400	5319
2.92767	4688
2.93133	4127
2.93500	3629
2.93867	3188
2.94233	2798
2.94600	2456
2.94967	2155
2.95333	1891
2.95700	1662
2.96067	1463
2.96433	1290
2.96800	1140
2.97167	1008
2.97533	894
2.97900	796
2.98267	713
2.98633	641
2.99000	578
2.99367	522
2.99733	473
3.00100	433
3.00467	399
3.00833	368
3.01200	342
3.01567	321
3.01933	303
3.02300	289
3.02667	277
3.03033	265
3.03400	252
3.03767	241
3.04133	234
3.04500	227
3.04867	220
3.05233	214
3.05600	208
3.05967	204
3.06333	201
3.06700	197
3.07067	194
3.07433	192
3.07800	190
3.08167	188
3.08533	188
3.08900	187
3.09267	185
3.09633	182
3.10000	183
3.10367	182
3.10733	182
3.11100	182
3.11467	183
3.11833	183
3.12200	185
3.12567	186
3.12933	186
3.13300	183
3.13667	182
3.14033	182
3.14400	181
3.14767	179
3.15133	178
3.15500	179
3.15867	179
3.16233	180
3.16600	180
3.16967	181
3.17333	182
3.17700	181
3.18067	180
3.18433	179
3.18800	179
3.19167	180
3.19533	182
3.19900	185
3.20267	188
3.20633	188
3.21000	188
3.21367	188
3.21733	190
3.22100	192
3.22467	195
3.22833	197
3.23200	197
3.23567	196
3.23933	197
3.24300	199
3.24667	200
3.25033	202
3.25400	203
3.25767	204
3.26133	202
3.26500	202
3.26867	204
3.27233	207
3.27600	209
3.27967	208
3.28333	208
3.28700	209
3.29067	209
3.29433	210
3.29800	215
3.30167	218
3.30533	211
3.30900	187
3.31267	162
3.31633	148
3.32000	152
3.32367	170
3.32733	196
3.33100	231
3.33467	272
3.33833	316
3.34200	363
3.34567	411
3.34933	458
3.35300	500
3.35667	537
3.36033	571
3.36400	602
3.36767	630
3.37133	655
3.37500	675
3.37867	696
3.38233	712
3.38600	728
3.38967	743
3.39333	755
3.39700	766
3.40067	774
3.40433	780
3.40800	789
3.41167	797
3.41533	803
3.41900	807
3.42267	811
3.42633	815
3.43000	820
3.43367	825
3.43733	829
3.44100	832
3.44467	836
3.44833	839
3.45200	842
3.45567	843
3.45933	843
3.46300	843
3.46667	840
3.47033	838
3.47400	835
3.47767	833
3.48133	832
3.48500	832
3.48867	832
3.49233	831
3.49600	827
3.49967	824
3.50333	820
3.50700	818
3.51067	815
3.51433	814
3.51800	813
3.52167	809
3.52533	808
3.52900	806
3.53267	804
3.53633	802
3.54000	799
3.54367	796
3.54733	794
3.55100	792
3.55467	791
3.55833	791
3.56200	789
3.56567	786
3.56933	785
3.57300	782
3.57667	781
3.58033	781
3.58400	783
3.58767	781
3.59133	779
3.59500	778
3.59867	777
3.60233	777
3.60600	777
3.60967	780
3.61333	780
3.61700	781
3.62067	783
3.62433	783
3.62800	781
3.63167	777
3.63533	777
3.63900	775
3.64267	774
3.64633	774
3.65000	774
3.65367	774
3.65733	773
3.66100	772
3.66467	772
3.66833	772
3.67200	772
3.67567	771
3.67933	769
3.68300	768
3.68667	769
3.69033	770
3.69400	771
3.69767	771
3.70133	771
3.70500	770
3.70867	769
3.71233	770
3.71600	769
3.71967	768
3.72333	765
3.72700	762
3.73067	761
3.73433	761
3.73800	761
3.74167	760
3.74533	758
3.74900	758
3.75267	755
3.75633	752
3.76000	752
3.76367	753
3.76733	752
3.77100	747
3.77467	742
3.77833	741
3.78200	739
3.78567	740
3.78933	742
3.79300	741
3.79667	737
3.80033	735
3.80400	734
3.80767	733
3.81133	731
3.81500	728
3.81867	725
3.82233	721
3.82600	718
3.82967	716
3.83333	714
3.83700	712
3.84067	709
3.84433	707
3.84800	705
3.85167	704
3.85533	702
3.85900	702
3.86267	701
3.86633	700
3.87000	698
3.87367	696
3.87733	693
3.88100	691
3.88467	687
3.88833	684
3.89200	682
3.89567	679
3.89933	677
3.90300	676
3.90667	673
3.91033	670
3.91400	668
3.91767	667
3.92133	667
3.92500	664
3.92867	662
3.93233	660
3.93600	659
3.93967	658
3.94333	657
3.94700	656
3.95067	657
3.95433	654
3.95800	651
3.96167	648
3.96533	644
3.96900	642
3.97267	640
3.97633	639
3.98000	638
3.98367	635
3.98733	631
3.99100	628
3.99467	627
3.99833	623

[Status Trace (Column Oven Temperature)]
Interval(msec)	1000
# of Points	240
Start Time(min)	0.008
End Time(min)	3.991
Intensity Units	
Intensity Multiplier	1
R.Time (min)	Intensity
0.00787	35.05
0.02453	35.06
0.04120	35.06
0.05787	35.05
0.07453	35.04
0.09120	35.02
0.10787	35.03
0.12453	35.03
0.14120	35.03
0.15787	35.02
0.17453	35.02
0.19120	35.02
0.20787	35.01
0.22453	35.01
0.24120	35.00
0.25787	35.00
0.27453	34.99
0.29120	35.00
0.30787	35.00
0.32453	35.01
0.34120	35.00
0.35787	35.01
0.37453	35.00
0.39120	34.98
0.40787	34.99
0.42453	35.01
0.44120	35.02
0.45787	35.01
0.47453	35.01
0.49120	35.03
0.50787	35.03
0.52453	35.03
0.54120	35.02
0.55787	35.02
0.57453	35.01
0.59120	35.00
0.60787	35.01
0.62453	35.00
0.64120	35.00
0.65787	34.98
0.67453	34.97
0.69120	34.97
0.70787	34.98
0.72453	34.99
0.74120	35.01
0.75787	35.02
0.77453	35.02
0.79120	35.02
0.80787	35.01
0.82453	35.01
0.84120	35.01
0.85787	35.02
0.87453	35.01
0.89120	35.02
0.90787	35.02
0.92453	35.01
0.94120	35.00
0.95787	34.99
0.97453	35.00
0.99120	35.01
1.00787	35.01
1.02453	35.02
1.04120	35.03
1.05787	35.03
1.07453	35.03
1.09120	35.03
1.10787	35.02
1.12453	35.04
1.14120	35.04
1.15787	35.03
1.17453	35.03
1.19120	35.02
1.20787	35.01
1.22453	35.01
1.24120	35.00
1.25787	34.99
1.27453	35.00
1.29120	34.98
1.30787	34.97
1.32453	34.98
1.34120	34.99
1.35787	35.00
1.37453	35.01
1.39120	34.99
1.40787	34.99
1.42453	34.98
1.44120	34.99
1.45787	34.99
1.47453	34.99
1.49120	34.99
1.50787	35.00
1.52453	35.01
1.54120	35.02
1.55787	35.01
1.57453	35.00
1.59120	35.01
1.60787	35.06
1.62453	35.18
1.64120	35.35
1.65787	35.61
1.67453	35.97
1.69120	36.32
1.70787	36.68
1.72453	37.03
1.74120	37.34
1.75787	37.65
1.77453	38.00
1.79120	38.33
1.80787	38.68
1.82453	39.02
1.84120	39.32
1.85787	39.63
1.87453	39.96
1.89120	40.30
1.90787	40.63
1.92453	40.96
1.94120	41.28
1.95787	41.62
1.97453	41.94
1.99120	42.27
2.00787	42.60
2.02453	42.92
2.04120	43.25
2.05787	43.58
2.07453	43.91
2.09120	44.23
2.10787	44.57
2.12453	44.90
2.14120	45.22
2.15787	45.56
2.17453	45.89
2.19120	46.21
2.20787	46.54
2.22453	46.88
2.24120	47.21
2.25787	47.54
2.27453	47.86
2.29120	48.18
2.30787	48.53
2.32453	48.84
2.34120	49.14
2.35787	49.44
2.37453	49.63
2.39120	49.71
2.40787	49.71
2.42453	49.71
2.44120	49.72
2.45787	49.72
2.47453	49.73
2.49120	49.74
2.50787	49.74
2.52453	49.76
2.54120	49.75
2.55787	49.78
2.57453	49.81
2.59120	49.82
2.60787	49.83
2.62453	49.83
2.64120	49.85
2.65787	49.85
2.67453	49.85
2.69120	49.83
2.70787	49.87
2.72453	49.87
2.74120	49.86
2.75787	49.85
2.77453	49.85
2.79120	49.87
2.80787	49.89
2.82453	49.91
2.84120	49.92
2.85787	49.93
2.87453	49.93
2.89120	49.94
2.90787	49.96
2.92453	49.97
2.94120	49.98
2.95787	49.98
2.97453	49.99
2.99120	49.99
3.00787	49.99
3.02453	49.99
3.04120	50.00
3.05787	50.01
3.07453	50.01
3.09120	50.01
3.10787	50.00
3.12453	50.01
3.14120	50.02
3.15787	50.04
3.17453	50.03
3.19120	50.04
3.20787	50.04
3.22453	50.06
3.24120	50.07
3.25787	50.07
3.27453	50.08
3.29120	50.09
3.30787	50.09
3.32453	50.10
3.34120	50.11
3.35787	50.11
3.37453	50.11
3.39120	50.10
3.40787	50.09
3.42453	50.09
3.44120	50.08
3.45787	50.07
3.47453	50.06
3.49120	50.06
3.50787	50.05
3.52453	50.04
3.54120	50.04
3.55787	50.05
3.57453	50.05
3.59120	50.05
3.60787	50.04
3.62453	50.04
3.64120	50.04
3.65787	50.04
3.67453	50.05
3.69120	50.05
3.70787	50.05
3.72453	50.04
3.74120	50.04
3.75787	50.05
3.77453	50.05
3.79120	50.05
3.80787	50.06
3.82453	50.06
3.84120	50.05
3.85787	50.05
3.87453	50.05
3.89120	50.05
3.90787	50.05
3.92453	50.04
3.94120	50.05
3.95787	50.06
3.97453	50.06
3.99120	50.07

[Status Trace (Injection Unit Temperature)]
Interval(msec)	1000
# of Points	240
Start Time(min)	0.008
End Time(min)	3.991
Intensity Units	
Intensity Multiplier	1
R.Time (min)	Intensity
0.00787	99.98
0.02453	99.98
0.04120	99.98
0.05787	99.98
0.07453	99.98
0.09120	99.98
0.10787	99.98
0.12453	99.98
0.14120	99.98
0.15787	99.98
0.17453	99.98
0.19120	99.97
0.20787	99.98
0.22453	99.98
0.24120	99.98
0.25787	99.98
0.27453	99.98
0.29120	99.98
0.30787	99.98
0.32453	99.98
0.34120	99.98
0.35787	99.98
0.37453	99.99
0.39120	99.98
0.40787	99.99
0.42453	99.98
0.44120	99.98
0.45787	99.98
0.47453	99.98
0.49120	99.98
0.50787	99.98
0.52453	99.98
0.54120	99.98
0.55787	99.98
0.57453	99.98
0.59120	99.98
0.60787	99.98
0.62453	99.98
0.64120	99.98
0.65787	99.98
0.67453	99.98
0.69120	99.98
0.70787	99.98
0.72453	99.98
0.74120	99.98
0.75787	99.98
0.77453	99.98
0.79120	99.98
0.80787	99.98
0.82453	99.98
0.84120	99.98
0.85787	99.98
0.87453	99.98
0.89120	99.98
0.90787	99.98
0.92453	99.98
0.94120	99.98
0.95787	99.98
0.97453	99.99
0.99120	99.99
1.00787	99.98
1.02453	99.98
1.04120	99.98
1.05787	99.98
1.07453	99.98
1.09120	99.98
1.10787	99.98
1.12453	99.98
1.14120	99.98
1.15787	99.98
1.17453	99.98
1.19120	99.98
1.20787	99.99
1.22453	99.98
1.24120	99.98
1.25787	99.98
1.27453	99.98
1.29120	99.98
1.30787	99.98
1.32453	99.98
1.34120	99.98
1.35787	99.98
1.37453	99.98
1.39120	99.98
1.40787	99.98
1.42453	99.98
1.44120	99.98
1.45787	99.98
1.47453	99.98
1.49120	99.98
1.50787	99.98
1.52453	99.98
1.54120	99.98
1.55787	99.98
1.57453	99.98
1.59120	99.98
1.60787	99.99
1.62453	99.98
1.64120	99.99
1.65787	99.98
1.67453	99.98
1.69120	99.98
1.70787	99.98
1.72453	99.98
1.74120	99.98
1.75787	99.98
1.77453	99.98
1.79120	99.98
1.80787	99.98
1.82453	99.98
1.84120	99.99
1.85787	99.98
1.87453	99.98
1.89120	99.98
1.90787	99.98
1.92453	99.98
1.94120	99.98
1.95787	99.97
1.97453	99.98
1.99120	99.98
2.00787	99.98
2.02453	99.98
2.04120	99.97
2.05787	99.98
2.07453	99.97
2.09120	99.98
2.10787	99.97
2.12453	99.97
2.14120	99.97
2.15787	99.97
2.17453	99.97
2.19120	99.97
2.20787	99.97
2.22453	99.97
2.24120	99.97
2.25787	99.97
2.27453	99.97
2.29120	99.97
2.30787	99.97
2.32453	99.97
2.34120	99.97
2.35787	99.97
2.37453	99.97
2.39120	99.97
2.40787	99.97
2.42453	99.97
2.44120	99.97
2.45787	99.97
2.47453	99.97
2.49120	99.97
2.50787	99.96
2.52453	99.97
2.54120	99.97
2.55787	99.98
2.57453	99.98
2.59120	99.98
2.60787	99.97
2.62453	99.98
2.64120	99.98
2.65787	99.98
2.67453	99.98
2.69120	99.98
2.70787	99.98
2.72453	99.98
2.74120	99.98
2.75787	99.99
2.77453	99.99
2.79120	99.99
2.80787	99.99
2.82453	99.99
2.84120	99.99
2.85787	99.99
2.87453	100.00
2.89120	99.99
2.90787	100.00
2.92453	100.00
2.94120	100.00
2.95787	100.00
2.97453	100.00
2.99120	100.01
3.00787	100.00
3.02453	100.01
3.04120	100.01
3.05787	100.00
3.07453	100.01
3.09120	100.02
3.10787	100.02
3.12453	100.02
3.14120	100.02
3.15787	100.02
3.17453	100.02
3.19120	100.02
3.20787	100.02
3.22453	100.03
3.24120	100.02
3.25787	100.03
3.27453	100.03
3.29120	100.03
3.30787	100.03
3.32453	100.03
3.34120	100.03
3.35787	100.03
3.37453	100.03
3.39120	100.03
3.40787	100.03
3.42453	100.03
3.44120	100.03
3.45787	100.03
3.47453	100.04
3.49120	100.04
3.50787	100.03
3.52453	100.03
3.54120	100.03
3.55787	100.03
3.57453	100.03
3.59120	100.03
3.60787	100.03
3.62453	100.03
3.64120	100.04
3.65787	100.04
3.67453	100.04
3.69120	100.03
3.70787	100.04
3.72453	100.04
3.74120	100.04
3.75787	100.04
3.77453	100.04
3.79120	100.04
3.80787	100.04
3.82453	100.04
3.84120	100.04
3.85787	100.04
3.87453	100.04
3.89120	100.04
3.90787	100.04
3.92453	100.04
3.94120	100.04
3.95787	100.04
3.97453	100.05
3.99120	100.04

[Status Trace (Carrier Gas Pressure)]
Interval(msec)	1000
# of Points	240
Start Time(min)	0.008
End Time(min)	3.991
Intensity Units	
Intensity Multiplier	1
R.Time (min)	Intensity
0.00787	58.00
0.02453	55.45
0.04120	57.11
0.05787	59.29
0.07453	59.46
0.09120	58.06
0.10787	57.98
0.12453	58.01
0.14120	58.01
0.15787	58.00
0.17453	58.00
0.19120	58.00
0.20787	58.00
0.22453	58.00
0.24120	58.00
0.25787	58.00
0.27453	58.00
0.29120	58.00
0.30787	58.00
0.32453	58.00
0.34120	58.00
0.35787	58.00
0.37453	58.00
0.39120	58.00
0.40787	58.00
0.42453	58.00
0.44120	58.00
0.45787	58.00
0.47453	58.00
0.49120	58.00
0.50787	58.00
0.52453	58.00
0.54120	58.00
0.55787	58.00
0.57453	58.00
0.59120	58.00
0.60787	58.00
0.62453	58.00
0.64120	58.00
0.65787	58.00
0.67453	58.00
0.69120	58.00
0.70787	58.00
0.72453	58.00
0.74120	58.00
0.75787	58.00
0.77453	58.00
0.79120	58.00
0.80787	58.00
0.82453	58.00
0.84120	58.00
0.85787	58.00
0.87453	58.00
0.89120	58.00
0.90787	58.00
0.92453	58.00
0.94120	58.00
0.95787	58.00
0.97453	58.00
0.99120	58.00
1.00787	58.00
1.02453	58.00
1.04120	58.00
1.05787	58.00
1.07453	58.00
1.09120	58.00
1.10787	58.00
1.12453	58.00
1.14120	58.00
1.15787	58.00
1.17453	58.00
1.19120	58.00
1.20787	58.00
1.22453	58.00
1.24120	58.00
1.25787	58.00
1.27453	58.00
1.29120	58.00
1.30787	58.00
1.32453	58.00
1.34120	58.00
1.35787	58.00
1.37453	58.00
1.39120	58.00
1.40787	58.00
1.42453	58.00
1.44120	58.00
1.45787	58.00
1.47453	58.00
1.49120	58.00
1.50787	58.00
1.52453	58.00
1.54120	58.00
1.55787	58.00
1.57453	58.00
1.59120	58.00
1.60787	58.00
1.62453	58.00
1.64120	58.00
1.65787	58.00
1.67453	58.01
1.69120	58.00
1.70787	58.00
1.72453	58.00
1.74120	58.00
1.75787	58.00
1.77453	58.00
1.79120	58.00
1.80787	58.00
1.82453	58.00
1.84120	58.00
1.85787	58.00
1.87453	58.00
1.89120	58.00
1.90787	58.00
1.92453	58.00
1.94120	58.00
1.95787	58.00
1.97453	58.00
1.99120	58.00
2.00787	58.00
2.02453	58.00
2.04120	58.00
2.05787	58.00
2.07453	58.00
2.09120	58.00
2.10787	58.00
2.12453	58.00
2.14120	58.00
2.15787	58.00
2.17453	58.00
2.19120	58.00
2.20787	58.00
2.22453	58.00
2.24120	58.00
2.25787	58.00
2.27453	58.00
2.29120	58.00
2.30787	58.00
2.32453	58.00
2.34120	58.00
2.35787	58.00
2.37453	58.00
2.39120	57.99
2.40787	57.99
2.42453	58.00
2.44120	58.00
2.45787	58.00
2.47453	58.00
2.49120	58.00
2.50787	58.00
2.52453	57.99
2.54120	58.00
2.55787	58.00
2.57453	58.00
2.59120	58.00
2.60787	58.00
2.62453	58.00
2.64120	58.00
2.65787	58.00
2.67453	58.00
2.69120	58.00
2.70787	58.00
2.72453	58.00
2.74120	58.00
2.75787	58.00
2.77453	58.00
2.79120	58.00
2.80787	58.00
2.82453	58.00
2.84120	58.00
2.85787	58.00
2.87453	58.00
2.89120	58.00
2.90787	58.00
2.92453	58.00
2.94120	58.00
2.95787	58.00
2.97453	58.00
2.99120	58.00
3.00787	58.00
3.02453	58.00
3.04120	58.00
3.05787	58.00
3.07453	58.00
3.09120	58.00
3.10787	58.00
3.12453	58.00
3.14120	58.00
3.15787	58.00
3.17453	58.00
3.19120	58.00
3.20787	58.00
3.22453	58.00
3.24120	58.00
3.25787	58.00
3.27453	58.00
3.29120	58.00
3.30787	58.00
3.32453	58.00
3.34120	58.00
3.35787	58.00
3.37453	58.00
3.39120	58.00
3.40787	58.00
3.42453	58.00
3.44120	58.00
3.45787	58.00
3.47453	58.00
3.49120	58.00
3.50787	58.00
3.52453	58.00
3.54120	58.00
3.55787	58.00
3.57453	58.00
3.59120	58.00
3.60787	58.00
3.62453	58.00
3.64120	58.00
3.65787	58.00
3.67453	58.00
3.69120	58.00
3.70787	58.00
3.72453	58.00
3.74120	58.00
3.75787	58.00
3.77453	58.00
3.79120	58.00
3.80787	58.00
3.82453	58.00
3.84120	58.00
3.85787	58.00
3.87453	58.00
3.89120	58.00
3.90787	58.00
3.92453	58.00
3.94120	58.00
3.95787	58.00
3.97453	58.00
3.99120	58.00

[Status Trace (Carrier Gas Flow)]
Interval(msec)	1000
# of Points	240
Start Time(min)	0.008
End Time(min)	3.991
Intensity Units	
Intensity Multiplier	1
R.Time (min)	Intensity
0.00787	34.52
0.02453	34.54
0.04120	34.55
0.05787	34.54
0.07453	34.51
0.09120	34.52
0.10787	34.51
0.12453	34.52
0.14120	34.52
0.15787	34.52
0.17453	34.52
0.19120	34.52
0.20787	34.52
0.22453	34.52
0.24120	34.52
0.25787	34.52
0.27453	34.52
0.29120	34.52
0.30787	34.52
0.32453	34.52
0.34120	34.52
0.35787	34.52
0.37453	34.52
0.39120	34.52
0.40787	34.52
0.42453	34.52
0.44120	34.52
0.45787	34.52
0.47453	34.52
0.49120	34.52
0.50787	34.52
0.52453	34.52
0.54120	34.52
0.55787	34.51
0.57453	34.52
0.59120	34.52
0.60787	34.52
0.62453	34.52
0.64120	34.52
0.65787	34.52
0.67453	34.52
0.69120	34.52
0.70787	34.52
0.72453	34.52
0.74120	34.52
0.75787	34.52
0.77453	34.52
0.79120	34.52
0.80787	34.52
0.82453	34.52
0.84120	34.52
0.85787	34.52
0.87453	34.52
0.89120	34.52
0.90787	34.52
0.92453	34.52
0.94120	34.51
0.95787	34.52
0.97453	34.52
0.99120	34.52
1.00787	34.51
1.02453	34.52
1.04120	34.52
1.05787	34.52
1.07453	34.52
1.09120	34.52
1.10787	34.52
1.12453	34.52
1.14120	34.52
1.15787	34.52
1.17453	34.52
1.19120	34.52
1.20787	34.51
1.22453	34.52
1.24120	34.52
1.25787	34.52
1.27453	34.52
1.29120	34.52
1.30787	34.52
1.32453	34.52
1.34120	34.52
1.35787	34.52
1.37453	34.52
1.39120	34.52
1.40787	34.52
1.42453	34.52
1.44120	34.52
1.45787	34.52
1.47453	34.52
1.49120	34.52
1.50787	34.52
1.52453	34.52
1.54120	34.52
1.55787	34.52
1.57453	34.53
1.59120	34.50
1.60787	34.51
1.62453	34.52
1.64120	34.51
1.65787	34.52
1.67453	34.52
1.69120	34.52
1.70787	34.52
1.72453	34.52
1.74120	34.52
1.75787	34.52
1.77453	34.52
1.79120	34.52
1.80787	34.52
1.82453	34.52
1.84120	34.52
1.85787	34.52
1.87453	34.52
1.89120	34.52
1.90787	34.52
1.92453	34.52
1.94120	34.52
1.95787	34.52
1.97453	34.51
1.99120	34.52
2.00787	34.52
2.02453	34.51
2.04120	34.51
2.05787	34.52
2.07453	34.52
2.09120	34.52
2.10787	34.52
2.12453	34.52
2.14120	34.52
2.15787	34.52
2.17453	34.51
2.19120	34.52
2.20787	34.52
2.22453	34.51
2.24120	34.52
2.25787	34.51
2.27453	34.52
2.29120	34.52
2.30787	34.53
2.32453	34.52
2.34120	34.52
2.35787	34.52
2.37453	34.52
2.39120	34.51
2.40787	34.52
2.42453	34.52
2.44120	34.52
2.45787	34.52
2.47453	34.52
2.49120	34.52
2.50787	34.43
2.52453	34.52
2.54120	34.52
2.55787	34.52
2.57453	34.52
2.59120	34.52
2.60787	34.52
2.62453	34.52
2.64120	34.52
2.65787	34.52
2.67453	34.52
2.69120	34.52
2.70787	34.52
2.72453	34.52
2.74120	34.52
2.75787	34.52
2.77453	34.51
2.79120	34.52
2.80787	34.52
2.82453	34.52
2.84120	34.51
2.85787	34.52
2.87453	34.52
2.89120	34.52
2.90787	34.51
2.92453	34.52
2.94120	34.51
2.95787	34.52
2.97453	34.53
2.99120	34.52
3.00787	34.51
3.02453	34.52
3.04120	34.53
3.05787	34.51
3.07453	34.53
3.09120	34.52
3.10787	34.52
3.12453	34.52
3.14120	34.52
3.15787	34.52
3.17453	34.52
3.19120	34.52
3.20787	34.51
3.22453	34.52
3.24120	34.52
3.25787	34.52
3.27453	34.52
3.29120	34.52
3.30787	34.52
3.32453	34.52
3.34120	34.52
3.35787	34.52
3.37453	34.52
3.39120	34.52
3.40787	34.52
3.42453	34.52
3.44120	34.52
3.45787	34.52
3.47453	34.51
3.49120	34.52
3.50787	34.53
3.52453	34.52
3.54120	34.52
3.55787	34.52
3.57453	34.52
3.59120	34.52
3.60787	34.52
3.62453	34.51
3.64120	34.52
3.65787	34.51
3.67453	34.52
3.69120	34.52
3.70787	34.52
3.72453	34.52
3.74120	34.52
3.75787	34.52
3.77453	34.52
3.79120	34.52
3.80787	34.52
3.82453	34.52
3.84120	34.52
3.85787	34.52
3.87453	34.52
3.89120	34.52
3.90787	34.52
3.92453	34.52
3.94120	34.52
3.95787	34.52
3.97453	34.51
3.99120	34.52

[Status Trace (Column Flow)]
Interval(msec)	1000
# of Points	240
Start Time(min)	0.008
End Time(min)	3.991
Intensity Units	
Intensity Multiplier	1
R.Time (min)	Intensity
0.00787	5.53
0.02453	5.24
0.04120	5.43
0.05787	5.69
0.07453	5.71
0.09120	5.54
0.10787	5.53
0.12453	5.54
0.14120	5.54
0.15787	5.54
0.17453	5.54
0.19120	5.54
0.20787	5.54
0.22453	5.54
0.24120	5.54
0.25787	5.54
0.27453	5.54
0.29120	5.54
0.30787	5.54
0.32453	5.54
0.34120	5.54
0.35787	5.54
0.37453	5.54
0.39120	5.54
0.40787	5.54
0.42453	5.54
0.44120	5.54
0.45787	5.54
0.47453	5.54
0.49120	5.54
0.50787	5.53
0.52453	5.53
0.54120	5.54
0.55787	5.54
0.57453	5.54
0.59120	5.54
0.60787	5.54
0.62453	5.54
0.64120	5.54
0.65787	5.54
0.67453	5.54
0.69120	5.54
0.70787	5.54
0.72453	5.54
0.74120	5.54
0.75787	5.54
0.77453	5.54
0.79120	5.54
0.80787	5.54
0.82453	5.54
0.84120	5.54
0.85787	5.54
0.87453	5.54
0.89120	5.54
0.90787	5.54
0.92453	5.54
0.94120	5.54
0.95787	5.54
0.97453	5.54
0.99120	5.54
1.00787	5.54
1.02453	5.54
1.04120	5.54
1.05787	5.54
1.07453	5.53
1.09120	5.54
1.10787	5.54
1.12453	5.53
1.14120	5.53
1.15787	5.54
1.17453	5.54
1.19120	5.54
1.20787	5.54
1.22453	5.54
1.24120	5.54
1.25787	5.54
1.27453	5.54
1.29120	5.54
1.30787	5.54
1.32453	5.54
1.34120	5.54
1.35787	5.54
1.37453	5.54
1.39120	5.54
1.40787	5.54
1.42453	5.54
1.44120	5.54
1.45787	5.54
1.47453	5.54
1.49120	5.54
1.50787	5.54
1.52453	5.54
1.54120	5.54
1.55787	5.54
1.57453	5.54
1.59120	5.54
1.60787	5.53
1.62453	5.53
1.64120	5.53
1.65787	5.52
1.67453	5.51
1.69120	5.49
1.70787	5.48
1.72453	5.47
1.74120	5.46
1.75787	5.45
1.77453	5.44
1.79120	5.43
1.80787	5.42
1.82453	5.41
1.84120	5.40
1.85787	5.39
1.87453	5.38
1.89120	5.37
1.90787	5.36
1.92453	5.35
1.94120	5.34
1.95787	5.33
1.97453	5.32
1.99120	5.31
2.00787	5.30
2.02453	5.29
2.04120	5.28
2.05787	5.27
2.07453	5.27
2.09120	5.26
2.10787	5.25
2.12453	5.24
2.14120	5.23
2.15787	5.22
2.17453	5.21
2.19120	5.20
2.20787	5.19
2.22453	5.18
2.24120	5.17
2.25787	5.16
2.27453	5.15
2.29120	5.14
2.30787	5.13
2.32453	5.12
2.34120	5.12
2.35787	5.11
2.37453	5.10
2.39120	5.10
2.40787	5.10
2.42453	5.10
2.44120	5.10
2.45787	5.10
2.47453	5.10
2.49120	5.10
2.50787	5.10
2.52453	5.10
2.54120	5.10
2.55787	5.10
2.57453	5.10
2.59120	5.10
2.60787	5.10
2.62453	5.10
2.64120	5.10
2.65787	5.10
2.67453	5.10
2.69120	5.10
2.70787	5.10
2.72453	5.10
2.74120	5.10
2.75787	5.10
2.77453	5.10
2.79120	5.10
2.80787	5.09
2.82453	5.09
2.84120	5.09
2.85787	5.09
2.87453	5.09
2.89120	5.09
2.90787	5.09
2.92453	5.09
2.94120	5.09
2.95787	5.09
2.97453	5.09
2.99120	5.09
3.00787	5.09
3.02453	5.09
3.04120	5.09
3.05787	5.09
3.07453	5.09
3.09120	5.09
3.10787	5.09
3.12453	5.09
3.14120	5.09
3.15787	5.09
3.17453	5.09
3.19120	5.09
3.20787	5.09
3.22453	5.09
3.24120	5.09
3.25787	5.09
3.27453	5.09
3.29120	5.09
3.30787	5.09
3.32453	5.09
3.34120	5.09
3.35787	5.09
3.37453	5.09
3.39120	5.09
3.40787	5.09
3.42453	5.09
3.44120	5.09
3.45787	5.09
3.47453	5.09
3.49120	5.09
3.50787	5.09
3.52453	5.09
3.54120	5.09
3.55787	5.09
3.57453	5.09
3.59120	5.09
3.60787	5.09
3.62453	5.09
3.64120	5.09
3.65787	5.09
3.67453	5.09
3.69120	5.09
3.70787	5.09
3.72453	5.09
3.74120	5.09
3.75787	5.09
3.77453	5.09
3.79120	5.09
3.80787	5.09
3.82453	5.09
3.84120	5.09
3.85787	5.09
3.87453	5.09
3.89120	5.09
3.90787	5.09
3.92453	5.09
3.94120	5.09
3.95787	5.09
3.97453	5.09
3.99120	5.09

[Status Trace (Linear Velocity)]
Interval(msec)	1000
# of Points	240
Start Time(min)	0.008
End Time(min)	3.991
Intensity Units	
Intensity Multiplier	1
R.Time (min)	Intensity
0.00787	39.02
0.02453	37.34
0.04120	38.43
0.05787	39.86
0.07453	39.97
0.09120	39.06
0.10787	39.01
0.12453	39.02
0.14120	39.02
0.15787	39.02
0.17453	39.02
0.19120	39.02
0.20787	39.02
0.22453	39.02
0.24120	39.02
0.25787	39.02
0.27453	39.02
0.29120	39.02
0.30787	39.02
0.32453	39.02
0.34120	39.02
0.35787	39.02
0.37453	39.02
0.39120	39.02
0.40787	39.02
0.42453	39.02
0.44120	39.02
0.45787	39.02
0.47453	39.02
0.49120	39.02
0.50787	39.02
0.52453	39.02
0.54120	39.02
0.55787	39.02
0.57453	39.02
0.59120	39.02
0.60787	39.02
0.62453	39.02
0.64120	39.02
0.65787	39.02
0.67453	39.02
0.69120	39.02
0.70787	39.02
0.72453	39.02
0.74120	39.02
0.75787	39.02
0.77453	39.02
0.79120	39.02
0.80787	39.02
0.82453	39.02
0.84120	39.02
0.85787	39.02
0.87453	39.02
0.89120	39.02
0.90787	39.02
0.92453	39.02
0.94120	39.02
0.95787	39.02
0.97453	39.02
0.99120	39.02
1.00787	39.02
1.02453	39.02
1.04120	39.02
1.05787	39.02
1.07453	39.02
1.09120	39.02
1.10787	39.02
1.12453	39.02
1.14120	39.02
1.15787	39.02
1.17453	39.02
1.19120	39.02
1.20787	39.02
1.22453	39.02
1.24120	39.02
1.25787	39.02
1.27453	39.02
1.29120	39.02
1.30787	39.02
1.32453	39.02
1.34120	39.02
1.35787	39.02
1.37453	39.02
1.39120	39.02
1.40787	39.02
1.42453	39.02
1.44120	39.02
1.45787	39.02
1.47453	39.02
1.49120	39.02
1.50787	39.02
1.52453	39.02
1.54120	39.02
1.55787	39.02
1.57453	39.02
1.59120	39.02
1.60787	39.02
1.62453	39.01
1.64120	38.99
1.65787	38.96
1.67453	38.93
1.69120	38.89
1.70787	38.86
1.72453	38.83
1.74120	38.80
1.75787	38.77
1.77453	38.73
1.79120	38.71
1.80787	38.67
1.82453	38.64
1.84120	38.61
1.85787	38.58
1.87453	38.55
1.89120	38.52
1.90787	38.49
1.92453	38.46
1.94120	38.43
1.95787	38.39
1.97453	38.36
1.99120	38.33
2.00787	38.30
2.02453	38.27
2.04120	38.24
2.05787	38.21
2.07453	38.18
2.09120	38.15
2.10787	38.12
2.12453	38.09
2.14120	38.06
2.15787	38.03
2.17453	38.00
2.19120	37.97
2.20787	37.94
2.22453	37.91
2.24120	37.88
2.25787	37.85
2.27453	37.83
2.29120	37.80
2.30787	37.77
2.32453	37.74
2.34120	37.71
2.35787	37.68
2.37453	37.67
2.39120	37.66
2.40787	37.66
2.42453	37.66
2.44120	37.66
2.45787	37.66
2.47453	37.66
2.49120	37.66
2.50787	37.66
2.52453	37.65
2.54120	37.66
2.55787	37.66
2.57453	37.65
2.59120	37.65
2.60787	37.65
2.62453	37.65
2.64120	37.65
2.65787	37.65
2.67453	37.65
2.69120	37.65
2.70787	37.65
2.72453	37.65
2.74120	37.65
2.75787	37.65
2.77453	37.65
2.79120	37.65
2.80787	37.65
2.82453	37.64
2.84120	37.64
2.85787	37.64
2.87453	37.64
2.89120	37.64
2.90787	37.64
2.92453	37.64
2.94120	37.64
2.95787	37.64
2.97453	37.64
2.99120	37.64
3.00787	37.64
3.02453	37.64
3.04120	37.64
3.05787	37.63
3.07453	37.63
3.09120	37.63
3.10787	37.64
3.12453	37.63
3.14120	37.63
3.15787	37.63
3.17453	37.63
3.19120	37.63
3.20787	37.63
3.22453	37.63
3.24120	37.63
3.25787	37.63
3.27453	37.63
3.29120	37.63
3.30787	37.63
3.32453	37.63
3.34120	37.63
3.35787	37.63
3.37453	37.63
3.39120	37.63
3.40787	37.63
3.42453	37.63
3.44120	37.63
3.45787	37.63
3.47453	37.63
3.49120	37.63
3.50787	37.63
3.52453	37.63
3.54120	37.63
3.55787	37.63
3.57453	37.63
3.59120	37.63
3.60787	37.63
3.62453	37.63
3.64120	37.63
3.65787	37.63
3.67453	37.63
3.69120	37.63
3.70787	37.63
3.72453	37.63
3.74120	37.63
3.75787	37.63
3.77453	37.63
3.79120	37.63
3.80787	37.63
3.82453	37.63
3.84120	37.63
3.85787	37.63
3.87453	37.63
3.89120	37.63
3.90787	37.63
3.92453	37.63
3.94120	37.63
3.95787	37.63
3.97453	37.63
3.99120	37.63

