[Header]
Application Name	LabSolutions
Version	5.110
Data File Name	C:\Users\User\Desktop\GC Analyses\Jack\Nachusa Grasslands Sampling\T3 Timepoint July 12th\T3_07122022_055.gcd
Output Date	3/14/2023
Output Time	3:43:34 PM

[File Information]
Type	Data File
Generated	3/13/2023 8:36:05 PM
Generated by	System Administrator
Modified	3/13/2023 8:42:54 PM
Modified by	System Administrator

[Sample Information]
Operator Name	System Administrator
Acquired	3/13/2023 8:38:52 PM
Sample Type	0:Unknown
Level	0
Sample Name	055
Sample ID	055
ISTD Amount1	1
ISTD Amount2	1
ISTD Amount3	1
ISTD Amount4	1
ISTD Amount5	1
ISTD Amount6	1
ISTD Amount7	1
ISTD Amount8	1
ISTD Amount9	1
ISTD Amount10	1
ISTD Amount11	1
ISTD Amount12	1
ISTD Amount13	1
ISTD Amount14	1
ISTD Amount15	1
ISTD Amount16	1
ISTD Amount17	1
ISTD Amount18	1
ISTD Amount19	1
ISTD Amount20	1
ISTD Amount21	1
ISTD Amount22	1
ISTD Amount23	1
ISTD Amount24	1
ISTD Amount25	1
ISTD Amount26	1
ISTD Amount27	1
ISTD Amount28	1
ISTD Amount29	1
ISTD Amount30	1
ISTD Amount31	1
ISTD Amount32	1
Sample Amount	1
Dilution Factor	1
Vial#	54
Injection Volume	1
Injection Count	1
Bar Code	

[Original Files]
Data File	C:\Users\User\Desktop\GC Analyses\Jack\Nachusa Grasslands Sampling\T3 Timepoint July 12th\T3_07122022_055.gcd
Method File	C:\LabSolutions\Data\GHG_4min_2022\ghg3_togas_w_acet_4 min_new_int.gcm
Batch File	C:\LabSolutions\Data\AutoSamplerTesting\T3_07122022.gcb
Report Format File	c:\LabSolutions\System\DEFAULT.lsr

[File Description]


[Configuration]
Instrument Name	C0B7VH3-Instrument1
Instrument #	1
Line #	1
# of Detectors	3
Detector ID	DET#1	DET#2	DET#3
Detector Name	FID	PTCD	ECD
# of Channels	1	1	1

[Peak Table(Ch1)]
# of Peaks	3
Peak#	R.Time	I.Time	F.Time	Area	Height	A/H	Conc.	Mark	ID#	Name	k'	Plate #	Plate Ht.	Tailing	Resolution	Sep.Factor	Area Ratio	Height Ratio	Conc. %	Norm Conc.
1	1.476	1.439	1.534	36004	17863	2.016	254.186	   	1	CO	0.000	9705	15.456	1.269	0.000	0.000	0	0	29.303	29.303
2	1.571	1.538	1.615	4140	2172	1.906	80.048	   	2	CH4	0.065	12140	12.356	1.105	1.630	0.000	0	0	9.228	9.228
3	1.996	1.952	2.312	2124566	1021940	2.079	533.208	   	3	CO2	0.353	17566	8.539	1.336	7.253	5.462	0	0	61.469	61.469

[Peak Table(Ch2)]
# of Peaks	0

[Peak Table(Ch3)]
# of Peaks	4
Peak#	R.Time	I.Time	F.Time	Area	Height	A/H	Conc.	Mark	ID#	Name	k'	Plate #	Plate Ht.	Tailing	Resolution	Sep.Factor	Area Ratio	Height Ratio	Conc. %	Norm Conc.
1	2.462	2.403	2.510	1488	553	2.689	0.000	   			0.000	13241	11.329	0.000	0.000	0.000	0	0	0.000	0.000
2	2.528	2.510	2.631	775	256	3.028	0.000	 V 			0.027	9266	16.189	0.000	0.692	0.000	0	0	0.000	0.000
3	2.880	2.711	3.078	18088	4699	3.849	0.462	   	1	N2O	0.170	13245	11.325	1.517	3.432	6.333	0	0	100.000	100.000
4	3.309	3.085	3.877	16139	581	27.776	0.000	   	2	SF6	0.344	256	586.977	1.757	0.924	2.026	0	0	0.000	0.000

[Compound Results(Ch1)]
# of IDs	6
ID#	Name	R.Time	Area	Height	Conc.	Curve	3rd	2nd	1st	Constant	Area Ratio	Height Ratio	Conc. %	Norm Conc.
1	CO	1.476	36004	17863	254.186	Linear	0.000000e+00	0.000000e+00	1.416423e+002	0.000000e+00	0	0	29.303	29.303
2	CH4	1.571	4140	2172	80.048	Linear	0.000000e+00	0.000000e+00	5.171738e+001	0.000000e+00	0	0	9.228	9.228
3	CO2	1.996	2124566	1021940	533.208	Linear	0.000000e+00	0.000000e+00	3.984494e+003	0.000000e+00	0	0	61.469	61.469
4	Ethylene	0.000	0	0	0.000	Linear	0.000000e+00	0.000000e+00	0.000000e+00	0.000000e+00	0	0	0.000	0.000
5	Acetylene	0.000	0	0	0.000	Linear	0.000000e+00	0.000000e+00	0.000000e+00	0.000000e+00	0	0	0.000	0.000
6	Ethane	0.000	0	0	0.000	Linear	0.000000e+00	0.000000e+00	0.000000e+00	0.000000e+00	0	0	0.000	0.000

[Compound Results(Ch2)]
# of IDs	5
ID#	Name	R.Time	Area	Height	Conc.	Curve	3rd	2nd	1st	Constant	Area Ratio	Height Ratio	Conc. %	Norm Conc.
1	Hydrogen	0.000	0	0	0.000	Linear	0.000000e+00	0.000000e+00	0.000000e+00	0.000000e+00	0	0	0.000	0.000
2	Oxygen	0.000	0	0	0.000	Linear	0.000000e+00	0.000000e+00	0.000000e+00	0.000000e+00	0	0	0.000	0.000
3	Nitrogen	0.000	0	0	0.000	Linear	0.000000e+00	0.000000e+00	0.000000e+00	0.000000e+00	0	0	0.000	0.000
4	Methane	0.000	0	0	0.000	Linear	0.000000e+00	0.000000e+00	0.000000e+00	0.000000e+00	0	0	0.000	0.000
5	Carbon Monoxide	0.000	0	0	0.000	Linear	0.000000e+00	0.000000e+00	0.000000e+00	0.000000e+00	0	0	0.000	0.000

[Compound Results(Ch3)]
# of IDs	2
ID#	Name	R.Time	Area	Height	Conc.	Curve	3rd	2nd	1st	Constant	Area Ratio	Height Ratio	Conc. %	Norm Conc.
1	N2O	2.880	18088	4699	0.462	Linear	0.000000e+00	0.000000e+00	3.915173e+004	0.000000e+00	0	0	100.000	100.000
2	SF6	3.309	16139	581	0.000	Linear	0.000000e+00	0.000000e+00	0.000000e+00	0.000000e+00	0	0	0.000	0.000

[Group Results(Ch1)]
# of Groups	0

[Group Results(Ch2)]
# of Groups	0

[Group Results(Ch3)]
# of Groups	0

[Chromatogram (Ch1)]
Interval(msec)	220
# of Points	1091
Start Time(min)	0.002
End Time(min)	3.998
R.Time (min)	Intensity
0.00167	16
0.00533	16
0.00900	18
0.01267	23
0.01633	32
0.02000	42
0.02367	44
0.02733	37
0.03100	26
0.03467	12
0.03833	2
0.04200	-2
0.04567	-2
0.04933	3
0.05300	11
0.05667	19
0.06033	24
0.06400	25
0.06767	25
0.07133	22
0.07500	22
0.07867	23
0.08233	25
0.08600	29
0.08967	34
0.09333	36
0.09700	36
0.10067	38
0.10433	40
0.10800	46
0.11167	52
0.11533	63
0.11900	71
0.12267	80
0.12633	88
0.13000	93
0.13367	97
0.13733	99
0.14100	100
0.14467	101
0.14833	100
0.15200	99
0.15567	99
0.15933	96
0.16300	89
0.16667	82
0.17033	80
0.17400	78
0.17767	79
0.18133	81
0.18500	82
0.18867	79
0.19233	71
0.19600	66
0.19967	62
0.20333	60
0.20700	55
0.21067	49
0.21433	44
0.21800	37
0.22167	26
0.22533	19
0.22900	12
0.23267	8
0.23633	6
0.24000	8
0.24367	13
0.24733	16
0.25100	18
0.25467	19
0.25833	20
0.26200	24
0.26567	24
0.26933	20
0.27300	16
0.27667	16
0.28033	15
0.28400	16
0.28767	16
0.29133	19
0.29500	20
0.29867	22
0.30233	25
0.30600	24
0.30967	19
0.31333	15
0.31700	16
0.32067	20
0.32433	24
0.32800	27
0.33167	30
0.33533	31
0.33900	32
0.34267	34
0.34633	35
0.35000	33
0.35367	31
0.35733	28
0.36100	24
0.36467	20
0.36833	20
0.37200	22
0.37567	24
0.37933	25
0.38300	18
0.38667	10
0.39033	5
0.39400	1
0.39767	0
0.40133	-0
0.40500	-1
0.40867	1
0.41233	4
0.41600	7
0.41967	11
0.42333	15
0.42700	19
0.43067	21
0.43433	22
0.43800	24
0.44167	27
0.44533	31
0.44900	32
0.45267	32
0.45633	29
0.46000	16
0.46367	0
0.46733	-14
0.47100	-17
0.47467	-11
0.47833	-2
0.48200	-1
0.48567	1
0.48933	4
0.49300	2
0.49667	-2
0.50033	-4
0.50400	-3
0.50767	-1
0.51133	4
0.51500	6
0.51867	6
0.52233	7
0.52600	11
0.52967	16
0.53333	22
0.53700	25
0.54067	27
0.54433	27
0.54800	26
0.55167	24
0.55533	17
0.55900	8
0.56267	8
0.56633	11
0.57000	11
0.57367	5
0.57733	-2
0.58100	-8
0.58467	-9
0.58833	-11
0.59200	-14
0.59567	-9
0.59933	1
0.60300	8
0.60667	12
0.61033	13
0.61400	9
0.61767	6
0.62133	4
0.62500	-0
0.62867	-2
0.63233	-0
0.63600	1
0.63967	-1
0.64333	-5
0.64700	-11
0.65067	-15
0.65433	-12
0.65800	-7
0.66167	-4
0.66533	-3
0.66900	-2
0.67267	1
0.67633	7
0.68000	8
0.68367	7
0.68733	6
0.69100	3
0.69467	-0
0.69833	-5
0.70200	-7
0.70567	-11
0.70933	-18
0.71300	-22
0.71667	-23
0.72033	-22
0.72400	-18
0.72767	-13
0.73133	-10
0.73500	-7
0.73867	-4
0.74233	-3
0.74600	-2
0.74967	-1
0.75333	-2
0.75700	-3
0.76067	-2
0.76433	-2
0.76800	4
0.77167	17
0.77533	27
0.77900	26
0.78267	21
0.78633	20
0.79000	23
0.79367	21
0.79733	12
0.80100	5
0.80467	-0
0.80833	-4
0.81200	-10
0.81567	-17
0.81933	-24
0.82300	-31
0.82667	-34
0.83033	-31
0.83400	-25
0.83767	-20
0.84133	-16
0.84500	-15
0.84867	-17
0.85233	-24
0.85600	-29
0.85967	-31
0.86333	-31
0.86700	-28
0.87067	-25
0.87433	-26
0.87800	-27
0.88167	-26
0.88533	-23
0.88900	-18
0.89267	-13
0.89633	-9
0.90000	-12
0.90367	-17
0.90733	-16
0.91100	-6
0.91467	6
0.91833	13
0.92200	14
0.92567	11
0.92933	2
0.93300	-6
0.93667	-15
0.94033	-24
0.94400	-32
0.94767	-38
0.95133	-43
0.95500	-44
0.95867	-44
0.96233	-45
0.96600	-44
0.96967	-43
0.97333	-43
0.97700	-46
0.98067	-47
0.98433	-49
0.98800	-50
0.99167	-48
0.99533	-43
0.99900	-36
1.00267	-30
1.00633	-27
1.01000	-26
1.01367	-25
1.01733	-24
1.02100	-25
1.02467	-25
1.02833	-22
1.03200	-14
1.03567	-11
1.03933	-14
1.04300	-20
1.04667	-26
1.05033	-31
1.05400	-35
1.05767	-39
1.06133	-36
1.06500	-29
1.06867	-22
1.07233	-16
1.07600	-16
1.07967	-16
1.08333	-13
1.08700	-9
1.09067	-8
1.09433	-14
1.09800	-22
1.10167	-29
1.10533	-31
1.10900	-32
1.11267	-38
1.11633	-48
1.12000	-58
1.12367	-67
1.12733	-71
1.13100	-69
1.13467	-62
1.13833	-53
1.14200	-43
1.14567	-36
1.14933	-37
1.15300	-48
1.15667	-64
1.16033	-71
1.16400	-71
1.16767	-68
1.17133	-67
1.17500	-65
1.17867	-64
1.18233	-63
1.18600	-64
1.18967	-64
1.19333	-61
1.19700	-56
1.20067	-53
1.20433	-52
1.20800	-51
1.21167	-46
1.21533	-38
1.21900	-32
1.22267	-28
1.22633	-23
1.23000	-22
1.23367	-30
1.23733	-39
1.24100	-47
1.24467	-54
1.24833	-61
1.25200	-66
1.25567	-66
1.25933	-65
1.26300	-67
1.26667	-67
1.27033	-62
1.27400	-56
1.27767	-50
1.28133	-45
1.28500	-40
1.28867	-42
1.29233	-50
1.29600	-57
1.29967	-57
1.30333	-50
1.30700	-41
1.31067	-34
1.31433	-30
1.31800	-34
1.32167	-41
1.32533	-51
1.32900	-58
1.33267	-57
1.33633	-51
1.34000	-48
1.34367	-49
1.34733	-52
1.35100	-54
1.35467	-56
1.35833	-58
1.36200	-63
1.36567	-67
1.36933	-71
1.37300	-75
1.37667	-74
1.38033	-68
1.38400	-66
1.38767	-68
1.39133	-73
1.39500	-76
1.39867	-76
1.40233	-71
1.40600	-62
1.40967	-55
1.41333	-57
1.41700	-62
1.42067	-67
1.42433	-67
1.42800	-68
1.43167	-73
1.43533	-74
1.43900	-66
1.44267	-25
1.44633	154
1.45000	747
1.45367	2272
1.45733	5026
1.46100	8536
1.46467	11991
1.46833	14836
1.47200	16817
1.47567	17772
1.47933	17540
1.48300	16099
1.48667	13729
1.49033	10932
1.49400	8210
1.49767	5883
1.50133	4067
1.50500	2724
1.50867	1765
1.51233	1095
1.51600	639
1.51967	334
1.52333	133
1.52700	3
1.53067	-79
1.53433	-130
1.53800	-151
1.54167	-119
1.54533	20
1.54900	308
1.55267	717
1.55633	1158
1.56000	1548
1.56367	1845
1.56733	2016
1.57100	2034
1.57467	1885
1.57833	1597
1.58200	1238
1.58567	882
1.58933	580
1.59300	347
1.59667	178
1.60033	61
1.60400	-16
1.60767	-68
1.61133	-101
1.61500	-120
1.61867	-127
1.62233	-130
1.62600	-135
1.62967	-143
1.63333	-150
1.63700	-153
1.64067	-158
1.64433	-168
1.64800	-176
1.65167	-175
1.65533	-172
1.65900	-168
1.66267	-157
1.66633	-148
1.67000	-141
1.67367	-137
1.67733	-137
1.68100	-136
1.68467	-135
1.68833	-137
1.69200	-138
1.69567	-138
1.69933	-142
1.70300	-146
1.70667	-148
1.71033	-149
1.71400	-148
1.71767	-144
1.72133	-136
1.72500	-131
1.72867	-129
1.73233	-133
1.73600	-138
1.73967	-141
1.74333	-140
1.74700	-135
1.75067	-130
1.75433	-129
1.75800	-134
1.76167	-145
1.76533	-152
1.76900	-152
1.77267	-150
1.77633	-148
1.78000	-143
1.78367	-136
1.78733	-135
1.79100	-135
1.79467	-131
1.79833	-125
1.80200	-124
1.80567	-129
1.80933	-134
1.81300	-138
1.81667	-138
1.82033	-133
1.82400	-129
1.82767	-126
1.83133	-122
1.83500	-117
1.83867	-111
1.84233	-108
1.84600	-107
1.84967	-104
1.85333	-100
1.85700	-101
1.86067	-100
1.86433	-98
1.86800	-96
1.87167	-94
1.87533	-96
1.87900	-99
1.88267	-100
1.88633	-99
1.89000	-96
1.89367	-93
1.89733	-94
1.90100	-103
1.90467	-114
1.90833	-119
1.91200	-117
1.91567	-113
1.91933	-106
1.92300	-100
1.92667	-98
1.93033	-98
1.93400	-100
1.93767	-102
1.94133	-105
1.94500	-108
1.94867	-107
1.95233	-93
1.95600	13
1.95967	652
1.96333	3779
1.96700	15528
1.97067	49343
1.97433	124514
1.97800	254090
1.98167	431490
1.98533	629214
1.98900	811853
1.99267	949332
1.99633	1021884
2.00000	1020731
2.00367	950042
2.00733	826968
2.01100	676732
2.01467	524673
2.01833	389153
2.02200	279080
2.02567	195536
2.02933	135128
2.03300	92891
2.03667	64005
2.04033	44506
2.04400	31416
2.04767	22621
2.05133	16675
2.05500	12611
2.05867	9796
2.06233	7807
2.06600	6368
2.06967	5308
2.07333	4508
2.07700	3891
2.08067	3400
2.08433	3000
2.08800	2672
2.09167	2401
2.09533	2173
2.09900	1980
2.10267	1815
2.10633	1672
2.11000	1548
2.11367	1437
2.11733	1344
2.12100	1263
2.12467	1193
2.12833	1132
2.13200	1076
2.13567	1017
2.13933	958
2.14300	904
2.14667	856
2.15033	812
2.15400	769
2.15767	731
2.16133	701
2.16500	673
2.16867	642
2.17233	616
2.17600	594
2.17967	576
2.18333	560
2.18700	547
2.19067	535
2.19433	518
2.19800	501
2.20167	481
2.20533	462
2.20900	445
2.21267	430
2.21633	415
2.22000	402
2.22367	390
2.22733	378
2.23100	364
2.23467	354
2.23833	347
2.24200	341
2.24567	333
2.24933	323
2.25300	310
2.25667	302
2.26033	298
2.26400	294
2.26767	292
2.27133	292
2.27500	292
2.27867	286
2.28233	277
2.28600	271
2.28967	266
2.29333	260
2.29700	257
2.30067	250
2.30433	235
2.30800	218
2.31167	206
2.31533	203
2.31900	202
2.32267	202
2.32633	203
2.33000	206
2.33367	210
2.33733	210
2.34100	207
2.34467	206
2.34833	208
2.35200	210
2.35567	210
2.35933	214
2.36300	217
2.36667	216
2.37033	212
2.37400	211
2.37767	211
2.38133	211
2.38500	208
2.38867	200
2.39233	189
2.39600	180
2.39967	174
2.40333	174
2.40700	179
2.41067	188
2.41433	194
2.41800	198
2.42167	196
2.42533	191
2.42900	189
2.43267	192
2.43633	191
2.44000	182
2.44367	170
2.44733	161
2.45100	155
2.45467	151
2.45833	147
2.46200	141
2.46567	136
2.46933	134
2.47300	136
2.47667	144
2.48033	155
2.48400	163
2.48767	160
2.49133	151
2.49500	144
2.49867	141
2.50233	148
2.50600	157
2.50967	165
2.51333	171
2.51700	172
2.52067	173
2.52433	178
2.52800	185
2.53167	190
2.53533	196
2.53900	199
2.54267	196
2.54633	192
2.55000	192
2.55367	194
2.55733	197
2.56100	202
2.56467	206
2.56833	212
2.57200	222
2.57567	226
2.57933	224
2.58300	223
2.58667	222
2.59033	220
2.59400	222
2.59767	224
2.60133	217
2.60500	204
2.60867	193
2.61233	185
2.61600	184
2.61967	186
2.62333	191
2.62700	197
2.63067	194
2.63433	186
2.63800	179
2.64167	177
2.64533	181
2.64900	190
2.65267	195
2.65633	194
2.66000	195
2.66367	196
2.66733	196
2.67100	201
2.67467	210
2.67833	219
2.68200	224
2.68567	227
2.68933	225
2.69300	218
2.69667	210
2.70033	201
2.70400	193
2.70767	187
2.71133	188
2.71500	194
2.71867	201
2.72233	206
2.72600	212
2.72967	216
2.73333	216
2.73700	215
2.74067	214
2.74433	214
2.74800	218
2.75167	225
2.75533	232
2.75900	238
2.76267	237
2.76633	234
2.77000	232
2.77367	236
2.77733	240
2.78100	247
2.78467	243
2.78833	229
2.79200	217
2.79567	212
2.79933	211
2.80300	208
2.80667	206
2.81033	209
2.81400	216
2.81767	223
2.82133	227
2.82500	224
2.82867	223
2.83233	224
2.83600	219
2.83967	217
2.84333	216
2.84700	219
2.85067	228
2.85433	239
2.85800	242
2.86167	239
2.86533	237
2.86900	235
2.87267	228
2.87633	217
2.88000	212
2.88367	214
2.88733	222
2.89100	230
2.89467	237
2.89833	236
2.90200	232
2.90567	230
2.90933	233
2.91300	239
2.91667	250
2.92033	258
2.92400	255
2.92767	249
2.93133	238
2.93500	227
2.93867	223
2.94233	224
2.94600	226
2.94967	227
2.95333	232
2.95700	241
2.96067	246
2.96433	248
2.96800	247
2.97167	244
2.97533	240
2.97900	237
2.98267	237
2.98633	237
2.99000	241
2.99367	249
2.99733	256
3.00100	250
3.00467	243
3.00833	242
3.01200	239
3.01567	236
3.01933	236
3.02300	240
3.02667	245
3.03033	248
3.03400	251
3.03767	253
3.04133	253
3.04500	252
3.04867	252
3.05233	249
3.05600	244
3.05967	239
3.06333	235
3.06700	235
3.07067	237
3.07433	243
3.07800	246
3.08167	246
3.08533	244
3.08900	236
3.09267	226
3.09633	215
3.10000	206
3.10367	202
3.10733	203
3.11100	206
3.11467	212
3.11833	219
3.12200	227
3.12567	235
3.12933	245
3.13300	256
3.13667	262
3.14033	266
3.14400	268
3.14767	267
3.15133	257
3.15500	243
3.15867	231
3.16233	218
3.16600	206
3.16967	195
3.17333	184
3.17700	177
3.18067	178
3.18433	184
3.18800	190
3.19167	197
3.19533	205
3.19900	214
3.20267	218
3.20633	222
3.21000	224
3.21367	219
3.21733	211
3.22100	203
3.22467	198
3.22833	197
3.23200	198
3.23567	203
3.23933	211
3.24300	218
3.24667	221
3.25033	224
3.25400	223
3.25767	221
3.26133	220
3.26500	222
3.26867	222
3.27233	219
3.27600	215
3.27967	212
3.28333	213
3.28700	216
3.29067	221
3.29433	224
3.29800	223
3.30167	220
3.30533	216
3.30900	216
3.31267	216
3.31633	213
3.32000	208
3.32367	203
3.32733	202
3.33100	204
3.33467	210
3.33833	219
3.34200	225
3.34567	227
3.34933	223
3.35300	215
3.35667	200
3.36033	183
3.36400	174
3.36767	172
3.37133	177
3.37500	184
3.37867	192
3.38233	199
3.38600	202
3.38967	207
3.39333	210
3.39700	209
3.40067	203
3.40433	197
3.40800	193
3.41167	193
3.41533	192
3.41900	188
3.42267	183
3.42633	183
3.43000	186
3.43367	189
3.43733	190
3.44100	193
3.44467	198
3.44833	202
3.45200	203
3.45567	202
3.45933	194
3.46300	189
3.46667	189
3.47033	196
3.47400	205
3.47767	207
3.48133	203
3.48500	193
3.48867	182
3.49233	174
3.49600	169
3.49967	169
3.50333	169
3.50700	168
3.51067	173
3.51433	184
3.51800	197
3.52167	209
3.52533	216
3.52900	215
3.53267	203
3.53633	187
3.54000	173
3.54367	165
3.54733	161
3.55100	166
3.55467	176
3.55833	178
3.56200	174
3.56567	172
3.56933	173
3.57300	175
3.57667	170
3.58033	167
3.58400	166
3.58767	166
3.59133	165
3.59500	165
3.59867	168
3.60233	173
3.60600	179
3.60967	178
3.61333	169
3.61700	161
3.62067	161
3.62433	167
3.62800	172
3.63167	170
3.63533	163
3.63900	159
3.64267	158
3.64633	160
3.65000	158
3.65367	162
3.65733	172
3.66100	180
3.66467	181
3.66833	174
3.67200	166
3.67567	162
3.67933	160
3.68300	160
3.68667	159
3.69033	157
3.69400	151
3.69767	146
3.70133	144
3.70500	139
3.70867	132
3.71233	127
3.71600	128
3.71967	133
3.72333	139
3.72700	145
3.73067	149
3.73433	151
3.73800	153
3.74167	153
3.74533	152
3.74900	153
3.75267	151
3.75633	147
3.76000	142
3.76367	138
3.76733	135
3.77100	133
3.77467	131
3.77833	125
3.78200	117
3.78567	114
3.78933	117
3.79300	122
3.79667	126
3.80033	130
3.80400	135
3.80767	140
3.81133	147
3.81500	156
3.81867	163
3.82233	165
3.82600	164
3.82967	161
3.83333	151
3.83700	139
3.84067	129
3.84433	119
3.84800	111
3.85167	108
3.85533	110
3.85900	114
3.86267	118
3.86633	118
3.87000	118
3.87367	119
3.87733	120
3.88100	118
3.88467	119
3.88833	121
3.89200	127
3.89567	133
3.89933	132
3.90300	127
3.90667	123
3.91033	123
3.91400	129
3.91767	139
3.92133	146
3.92500	147
3.92867	145
3.93233	141
3.93600	131
3.93967	118
3.94333	106
3.94700	101
3.95067	97
3.95433	96
3.95800	102
3.96167	112
3.96533	119
3.96900	126
3.97267	128
3.97633	124
3.98000	116
3.98367	112
3.98733	113
3.99100	110
3.99467	105
3.99833	100

[Chromatogram (Ch2)]
Interval(msec)	220
# of Points	1091
Start Time(min)	0.002
End Time(min)	3.998
R.Time (min)	Intensity
0.00167	1
0.00533	1
0.00900	1
0.01267	1
0.01633	0
0.02000	0
0.02367	0
0.02733	0
0.03100	0
0.03467	-0
0.03833	-0
0.04200	-1
0.04567	-1
0.04933	-1
0.05300	-1
0.05667	-1
0.06033	-1
0.06400	-1
0.06767	-0
0.07133	-0
0.07500	0
0.07867	1
0.08233	1
0.08600	1
0.08967	1
0.09333	1
0.09700	1
0.10067	1
0.10433	1
0.10800	1
0.11167	1
0.11533	1
0.11900	1
0.12267	1
0.12633	1
0.13000	1
0.13367	2
0.13733	2
0.14100	2
0.14467	2
0.14833	2
0.15200	2
0.15567	1
0.15933	1
0.16300	0
0.16667	0
0.17033	-0
0.17400	-0
0.17767	-1
0.18133	-1
0.18500	-1
0.18867	-1
0.19233	-1
0.19600	-1
0.19967	-1
0.20333	-1
0.20700	-1
0.21067	-2
0.21433	-2
0.21800	-2
0.22167	-2
0.22533	-2
0.22900	-2
0.23267	-2
0.23633	-2
0.24000	-2
0.24367	-1
0.24733	-1
0.25100	-1
0.25467	-0
0.25833	-0
0.26200	0
0.26567	0
0.26933	0
0.27300	0
0.27667	0
0.28033	0
0.28400	0
0.28767	0
0.29133	0
0.29500	-0
0.29867	-0
0.30233	-1
0.30600	-1
0.30967	-1
0.31333	-1
0.31700	-1
0.32067	-1
0.32433	-1
0.32800	-1
0.33167	-1
0.33533	-1
0.33900	-1
0.34267	-1
0.34633	-1
0.35000	-1
0.35367	-1
0.35733	-1
0.36100	-1
0.36467	-1
0.36833	-1
0.37200	-1
0.37567	-1
0.37933	-1
0.38300	-1
0.38667	-1
0.39033	-1
0.39400	-1
0.39767	-1
0.40133	-1
0.40500	-1
0.40867	-2
0.41233	-2
0.41600	-2
0.41967	-2
0.42333	-2
0.42700	-3
0.43067	-3
0.43433	-3
0.43800	-3
0.44167	-3
0.44533	-3
0.44900	-4
0.45267	-4
0.45633	-4
0.46000	-3
0.46367	-3
0.46733	-3
0.47100	-2
0.47467	-2
0.47833	-2
0.48200	-2
0.48567	-2
0.48933	-1
0.49300	-1
0.49667	-1
0.50033	-1
0.50400	-0
0.50767	-0
0.51133	-0
0.51500	-1
0.51867	-1
0.52233	-1
0.52600	-1
0.52967	-1
0.53333	-1
0.53700	-1
0.54067	-1
0.54433	-1
0.54800	-1
0.55167	-2
0.55533	-2
0.55900	-2
0.56267	-2
0.56633	-2
0.57000	-2
0.57367	-3
0.57733	-3
0.58100	-3
0.58467	-2
0.58833	-2
0.59200	-2
0.59567	-2
0.59933	-2
0.60300	-2
0.60667	-2
0.61033	-2
0.61400	-2
0.61767	-2
0.62133	-1
0.62500	-1
0.62867	-1
0.63233	-1
0.63600	-1
0.63967	-1
0.64333	-1
0.64700	-0
0.65067	0
0.65433	1
0.65800	1
0.66167	1
0.66533	1
0.66900	1
0.67267	1
0.67633	1
0.68000	0
0.68367	0
0.68733	-0
0.69100	-0
0.69467	-0
0.69833	-1
0.70200	-1
0.70567	-1
0.70933	-1
0.71300	-1
0.71667	-1
0.72033	-1
0.72400	-1
0.72767	-1
0.73133	-1
0.73500	-1
0.73867	-1
0.74233	-1
0.74600	-1
0.74967	-1
0.75333	-2
0.75700	-2
0.76067	-2
0.76433	-2
0.76800	-3
0.77167	-3
0.77533	-3
0.77900	-3
0.78267	-3
0.78633	-3
0.79000	-3
0.79367	-3
0.79733	-3
0.80100	-3
0.80467	-3
0.80833	-3
0.81200	-3
0.81567	-3
0.81933	-3
0.82300	-2
0.82667	-2
0.83033	-2
0.83400	-2
0.83767	-2
0.84133	-2
0.84500	-2
0.84867	-2
0.85233	-2
0.85600	-2
0.85967	-1
0.86333	-1
0.86700	-1
0.87067	-1
0.87433	-1
0.87800	-2
0.88167	-2
0.88533	-2
0.88900	-2
0.89267	-3
0.89633	-3
0.90000	-3
0.90367	-3
0.90733	-3
0.91100	-3
0.91467	-3
0.91833	-3
0.92200	-3
0.92567	-3
0.92933	-4
0.93300	-4
0.93667	-4
0.94033	-4
0.94400	-3
0.94767	-3
0.95133	-3
0.95500	-3
0.95867	-3
0.96233	-3
0.96600	-3
0.96967	-3
0.97333	-3
0.97700	-3
0.98067	-3
0.98433	-3
0.98800	-3
0.99167	-2
0.99533	-2
0.99900	-3
1.00267	-3
1.00633	-3
1.01000	-3
1.01367	-3
1.01733	-4
1.02100	-4
1.02467	-4
1.02833	-4
1.03200	-4
1.03567	-3
1.03933	-3
1.04300	-3
1.04667	-2
1.05033	-2
1.05400	-2
1.05767	-2
1.06133	-2
1.06500	-2
1.06867	-2
1.07233	-2
1.07600	-1
1.07967	-1
1.08333	-1
1.08700	-1
1.09067	-1
1.09433	-2
1.09800	-2
1.10167	-2
1.10533	-2
1.10900	-3
1.11267	-3
1.11633	-3
1.12000	-4
1.12367	-4
1.12733	-4
1.13100	-4
1.13467	-4
1.13833	-5
1.14200	-5
1.14567	-5
1.14933	-5
1.15300	-4
1.15667	-4
1.16033	-4
1.16400	-3
1.16767	-3
1.17133	-3
1.17500	-3
1.17867	-2
1.18233	-2
1.18600	-2
1.18967	-2
1.19333	-2
1.19700	-3
1.20067	-3
1.20433	-3
1.20800	-3
1.21167	-4
1.21533	-4
1.21900	-3
1.22267	-3
1.22633	-3
1.23000	-3
1.23367	-2
1.23733	-2
1.24100	-2
1.24467	-1
1.24833	-1
1.25200	-1
1.25567	-1
1.25933	-1
1.26300	-1
1.26667	-1
1.27033	-1
1.27400	-1
1.27767	-1
1.28133	-1
1.28500	-1
1.28867	-1
1.29233	-1
1.29600	-2
1.29967	-2
1.30333	-2
1.30700	-3
1.31067	-3
1.31433	-3
1.31800	-3
1.32167	-3
1.32533	-3
1.32900	-3
1.33267	-3
1.33633	-3
1.34000	-3
1.34367	-2
1.34733	-2
1.35100	-1
1.35467	-1
1.35833	-1
1.36200	-1
1.36567	-1
1.36933	-1
1.37300	-1
1.37667	-1
1.38033	-1
1.38400	-1
1.38767	-1
1.39133	-1
1.39500	-1
1.39867	-1
1.40233	-1
1.40600	-1
1.40967	-1
1.41333	-1
1.41700	-1
1.42067	-1
1.42433	-1
1.42800	-1
1.43167	-1
1.43533	-1
1.43900	-1
1.44267	-1
1.44633	-1
1.45000	-2
1.45367	-2
1.45733	-2
1.46100	-2
1.46467	-2
1.46833	-2
1.47200	-3
1.47567	-3
1.47933	-3
1.48300	-3
1.48667	-3
1.49033	-3
1.49400	-3
1.49767	-4
1.50133	-4
1.50500	-4
1.50867	-4
1.51233	-3
1.51600	-3
1.51967	-3
1.52333	-3
1.52700	-3
1.53067	-4
1.53433	-4
1.53800	-4
1.54167	-4
1.54533	-5
1.54900	-5
1.55267	-5
1.55633	-5
1.56000	-5
1.56367	-5
1.56733	-5
1.57100	-5
1.57467	-5
1.57833	-5
1.58200	-4
1.58567	-5
1.58933	-5
1.59300	-5
1.59667	-6
1.60033	-7
1.60400	-8
1.60767	-9
1.61133	-11
1.61500	-13
1.61867	-15
1.62233	-17
1.62600	-20
1.62967	-23
1.63333	-26
1.63700	-29
1.64067	-32
1.64433	-36
1.64800	-39
1.65167	-43
1.65533	-47
1.65900	-51
1.66267	-55
1.66633	-59
1.67000	-64
1.67367	-68
1.67733	-73
1.68100	-78
1.68467	-82
1.68833	-86
1.69200	-90
1.69567	-93
1.69933	-95
1.70300	-98
1.70667	-100
1.71033	-101
1.71400	-102
1.71767	-104
1.72133	-105
1.72500	-106
1.72867	-107
1.73233	-108
1.73600	-108
1.73967	-109
1.74333	-109
1.74700	-109
1.75067	-110
1.75433	-110
1.75800	-111
1.76167	-111
1.76533	-111
1.76900	-111
1.77267	-111
1.77633	-111
1.78000	-111
1.78367	-111
1.78733	-111
1.79100	-112
1.79467	-113
1.79833	-113
1.80200	-113
1.80567	-114
1.80933	-114
1.81300	-114
1.81667	-114
1.82033	-114
1.82400	-114
1.82767	-114
1.83133	-114
1.83500	-113
1.83867	-113
1.84233	-113
1.84600	-113
1.84967	-114
1.85333	-114
1.85700	-114
1.86067	-113
1.86433	-113
1.86800	-114
1.87167	-114
1.87533	-114
1.87900	-114
1.88267	-114
1.88633	-114
1.89000	-114
1.89367	-114
1.89733	-114
1.90100	-114
1.90467	-114
1.90833	-114
1.91200	-114
1.91567	-114
1.91933	-114
1.92300	-113
1.92667	-113
1.93033	-113
1.93400	-112
1.93767	-112
1.94133	-112
1.94500	-112
1.94867	-112
1.95233	-112
1.95600	-112
1.95967	-111
1.96333	-111
1.96700	-111
1.97067	-111
1.97433	-111
1.97800	-110
1.98167	-110
1.98533	-110
1.98900	-109
1.99267	-109
1.99633	-109
2.00000	-109
2.00367	-108
2.00733	-108
2.01100	-108
2.01467	-108
2.01833	-107
2.02200	-107
2.02567	-106
2.02933	-106
2.03300	-105
2.03667	-105
2.04033	-104
2.04400	-104
2.04767	-104
2.05133	-104
2.05500	-104
2.05867	-104
2.06233	-103
2.06600	-103
2.06967	-103
2.07333	-102
2.07700	-102
2.08067	-102
2.08433	-101
2.08800	-101
2.09167	-100
2.09533	-100
2.09900	-100
2.10267	-100
2.10633	-100
2.11000	-99
2.11367	-99
2.11733	-98
2.12100	-98
2.12467	-98
2.12833	-98
2.13200	-97
2.13567	-97
2.13933	-96
2.14300	-96
2.14667	-95
2.15033	-95
2.15400	-94
2.15767	-94
2.16133	-93
2.16500	-92
2.16867	-92
2.17233	-92
2.17600	-92
2.17967	-92
2.18333	-92
2.18700	-92
2.19067	-91
2.19433	-91
2.19800	-91
2.20167	-91
2.20533	-91
2.20900	-91
2.21267	-90
2.21633	-90
2.22000	-90
2.22367	-90
2.22733	-90
2.23100	-90
2.23467	-90
2.23833	-90
2.24200	-89
2.24567	-89
2.24933	-88
2.25300	-88
2.25667	-87
2.26033	-86
2.26400	-86
2.26767	-85
2.27133	-85
2.27500	-85
2.27867	-85
2.28233	-84
2.28600	-84
2.28967	-84
2.29333	-83
2.29700	-83
2.30067	-83
2.30433	-83
2.30800	-82
2.31167	-82
2.31533	-81
2.31900	-81
2.32267	-81
2.32633	-80
2.33000	-80
2.33367	-79
2.33733	-79
2.34100	-78
2.34467	-78
2.34833	-77
2.35200	-76
2.35567	-75
2.35933	-74
2.36300	-73
2.36667	-72
2.37033	-71
2.37400	-69
2.37767	-66
2.38133	-63
2.38500	-59
2.38867	-55
2.39233	-51
2.39600	-47
2.39967	-42
2.40333	-38
2.40700	-33
2.41067	-29
2.41433	-25
2.41800	-21
2.42167	-18
2.42533	-15
2.42900	-13
2.43267	-12
2.43633	-11
2.44000	-10
2.44367	-9
2.44733	-9
2.45100	-8
2.45467	-7
2.45833	-6
2.46200	-5
2.46567	-4
2.46933	-4
2.47300	-3
2.47667	-2
2.48033	-1
2.48400	-0
2.48767	1
2.49133	2
2.49500	3
2.49867	4
2.50233	5
2.50600	6
2.50967	7
2.51333	7
2.51700	8
2.52067	8
2.52433	9
2.52800	11
2.53167	12
2.53533	12
2.53900	13
2.54267	13
2.54633	13
2.55000	13
2.55367	13
2.55733	14
2.56100	14
2.56467	15
2.56833	15
2.57200	15
2.57567	15
2.57933	14
2.58300	14
2.58667	14
2.59033	14
2.59400	14
2.59767	14
2.60133	14
2.60500	14
2.60867	13
2.61233	13
2.61600	13
2.61967	13
2.62333	14
2.62700	14
2.63067	14
2.63433	14
2.63800	14
2.64167	14
2.64533	14
2.64900	14
2.65267	15
2.65633	15
2.66000	16
2.66367	16
2.66733	17
2.67100	18
2.67467	19
2.67833	19
2.68200	20
2.68567	20
2.68933	20
2.69300	20
2.69667	20
2.70033	20
2.70400	20
2.70767	20
2.71133	20
2.71500	21
2.71867	21
2.72233	21
2.72600	22
2.72967	22
2.73333	22
2.73700	22
2.74067	22
2.74433	22
2.74800	22
2.75167	22
2.75533	22
2.75900	22
2.76267	22
2.76633	22
2.77000	23
2.77367	23
2.77733	23
2.78100	24
2.78467	24
2.78833	24
2.79200	25
2.79567	25
2.79933	26
2.80300	26
2.80667	26
2.81033	26
2.81400	26
2.81767	26
2.82133	26
2.82500	26
2.82867	27
2.83233	27
2.83600	27
2.83967	26
2.84333	25
2.84700	23
2.85067	19
2.85433	14
2.85800	5
2.86167	-7
2.86533	-22
2.86900	-42
2.87267	-66
2.87633	-95
2.88000	-128
2.88367	-165
2.88733	-206
2.89100	-250
2.89467	-298
2.89833	-348
2.90200	-400
2.90567	-454
2.90933	-508
2.91300	-563
2.91667	-619
2.92033	-674
2.92400	-728
2.92767	-780
2.93133	-832
2.93500	-884
2.93867	-939
2.94233	-998
2.94600	-1051
2.94967	-1089
2.95333	-1102
2.95700	-1090
2.96067	-1054
2.96433	-998
2.96800	-929
2.97167	-853
2.97533	-773
2.97900	-692
2.98267	-615
2.98633	-542
2.99000	-475
2.99367	-413
2.99733	-358
3.00100	-309
3.00467	-265
3.00833	-227
3.01200	-193
3.01567	-164
3.01933	-139
3.02300	-118
3.02667	-99
3.03033	-83
3.03400	-69
3.03767	-57
3.04133	-47
3.04500	-39
3.04867	-31
3.05233	-25
3.05600	-19
3.05967	-15
3.06333	-11
3.06700	-7
3.07067	-4
3.07433	-2
3.07800	1
3.08167	2
3.08533	4
3.08900	6
3.09267	7
3.09633	8
3.10000	8
3.10367	9
3.10733	10
3.11100	11
3.11467	11
3.11833	12
3.12200	13
3.12567	14
3.12933	14
3.13300	15
3.13667	15
3.14033	16
3.14400	17
3.14767	17
3.15133	17
3.15500	18
3.15867	18
3.16233	18
3.16600	18
3.16967	19
3.17333	19
3.17700	19
3.18067	19
3.18433	19
3.18800	19
3.19167	19
3.19533	19
3.19900	20
3.20267	20
3.20633	20
3.21000	20
3.21367	21
3.21733	21
3.22100	21
3.22467	21
3.22833	21
3.23200	21
3.23567	21
3.23933	21
3.24300	21
3.24667	21
3.25033	21
3.25400	21
3.25767	21
3.26133	21
3.26500	21
3.26867	21
3.27233	21
3.27600	21
3.27967	21
3.28333	20
3.28700	20
3.29067	21
3.29433	21
3.29800	21
3.30167	21
3.30533	22
3.30900	22
3.31267	22
3.31633	22
3.32000	22
3.32367	23
3.32733	23
3.33100	23
3.33467	24
3.33833	24
3.34200	24
3.34567	24
3.34933	24
3.35300	25
3.35667	25
3.36033	25
3.36400	26
3.36767	26
3.37133	26
3.37500	26
3.37867	27
3.38233	27
3.38600	27
3.38967	27
3.39333	27
3.39700	27
3.40067	27
3.40433	27
3.40800	27
3.41167	27
3.41533	28
3.41900	28
3.42267	28
3.42633	28
3.43000	28
3.43367	28
3.43733	28
3.44100	28
3.44467	28
3.44833	28
3.45200	28
3.45567	28
3.45933	28
3.46300	28
3.46667	27
3.47033	27
3.47400	27
3.47767	27
3.48133	27
3.48500	27
3.48867	27
3.49233	27
3.49600	27
3.49967	26
3.50333	26
3.50700	26
3.51067	26
3.51433	26
3.51800	26
3.52167	26
3.52533	26
3.52900	26
3.53267	26
3.53633	26
3.54000	26
3.54367	26
3.54733	26
3.55100	26
3.55467	26
3.55833	26
3.56200	26
3.56567	26
3.56933	26
3.57300	25
3.57667	25
3.58033	26
3.58400	26
3.58767	26
3.59133	26
3.59500	26
3.59867	26
3.60233	26
3.60600	26
3.60967	26
3.61333	26
3.61700	27
3.62067	26
3.62433	26
3.62800	26
3.63167	26
3.63533	26
3.63900	26
3.64267	25
3.64633	25
3.65000	25
3.65367	25
3.65733	25
3.66100	24
3.66467	24
3.66833	24
3.67200	24
3.67567	24
3.67933	24
3.68300	24
3.68667	24
3.69033	24
3.69400	24
3.69767	24
3.70133	24
3.70500	24
3.70867	24
3.71233	24
3.71600	24
3.71967	24
3.72333	24
3.72700	24
3.73067	24
3.73433	24
3.73800	25
3.74167	25
3.74533	25
3.74900	25
3.75267	24
3.75633	24
3.76000	24
3.76367	24
3.76733	25
3.77100	25
3.77467	25
3.77833	25
3.78200	26
3.78567	26
3.78933	26
3.79300	25
3.79667	25
3.80033	25
3.80400	25
3.80767	25
3.81133	25
3.81500	25
3.81867	25
3.82233	24
3.82600	24
3.82967	24
3.83333	24
3.83700	24
3.84067	24
3.84433	24
3.84800	24
3.85167	24
3.85533	24
3.85900	24
3.86267	24
3.86633	24
3.87000	24
3.87367	24
3.87733	24
3.88100	24
3.88467	24
3.88833	24
3.89200	24
3.89567	24
3.89933	24
3.90300	24
3.90667	24
3.91033	25
3.91400	25
3.91767	25
3.92133	25
3.92500	25
3.92867	24
3.93233	24
3.93600	24
3.93967	24
3.94333	24
3.94700	25
3.95067	25
3.95433	25
3.95800	25
3.96167	25
3.96533	24
3.96900	24
3.97267	24
3.97633	24
3.98000	24
3.98367	24
3.98733	24
3.99100	24
3.99467	24
3.99833	24

[Chromatogram (Ch3)]
Interval(msec)	220
# of Points	1091
Start Time(min)	0.002
End Time(min)	3.998
R.Time (min)	Intensity
0.00167	1
0.00533	3
0.00900	6
0.01267	7
0.01633	7
0.02000	7
0.02367	6
0.02733	5
0.03100	8
0.03467	9
0.03833	8
0.04200	8
0.04567	7
0.04933	6
0.05300	5
0.05667	5
0.06033	4
0.06400	4
0.06767	6
0.07133	8
0.07500	9
0.07867	9
0.08233	10
0.08600	11
0.08967	10
0.09333	8
0.09700	6
0.10067	6
0.10433	5
0.10800	4
0.11167	4
0.11533	4
0.11900	6
0.12267	7
0.12633	5
0.13000	6
0.13367	7
0.13733	8
0.14100	9
0.14467	9
0.14833	10
0.15200	10
0.15567	9
0.15933	8
0.16300	7
0.16667	6
0.17033	6
0.17400	6
0.17767	7
0.18133	7
0.18500	7
0.18867	6
0.19233	6
0.19600	7
0.19967	6
0.20333	7
0.20700	9
0.21067	10
0.21433	10
0.21800	8
0.22167	7
0.22533	5
0.22900	6
0.23267	7
0.23633	7
0.24000	7
0.24367	7
0.24733	7
0.25100	8
0.25467	7
0.25833	9
0.26200	10
0.26567	9
0.26933	7
0.27300	6
0.27667	5
0.28033	5
0.28400	6
0.28767	7
0.29133	7
0.29500	6
0.29867	5
0.30233	4
0.30600	5
0.30967	6
0.31333	8
0.31700	6
0.32067	2
0.32433	1
0.32800	3
0.33167	3
0.33533	2
0.33900	2
0.34267	6
0.34633	7
0.35000	7
0.35367	6
0.35733	7
0.36100	8
0.36467	8
0.36833	7
0.37200	7
0.37567	6
0.37933	6
0.38300	5
0.38667	6
0.39033	7
0.39400	7
0.39767	6
0.40133	5
0.40500	3
0.40867	4
0.41233	5
0.41600	6
0.41967	7
0.42333	7
0.42700	8
0.43067	9
0.43433	10
0.43800	9
0.44167	10
0.44533	11
0.44900	12
0.45267	9
0.45633	6
0.46000	5
0.46367	6
0.46733	5
0.47100	3
0.47467	2
0.47833	1
0.48200	0
0.48567	1
0.48933	3
0.49300	6
0.49667	8
0.50033	9
0.50400	7
0.50767	6
0.51133	5
0.51500	7
0.51867	7
0.52233	6
0.52600	6
0.52967	5
0.53333	5
0.53700	4
0.54067	2
0.54433	2
0.54800	3
0.55167	4
0.55533	6
0.55900	7
0.56267	6
0.56633	6
0.57000	7
0.57367	8
0.57733	10
0.58100	11
0.58467	9
0.58833	8
0.59200	10
0.59567	11
0.59933	12
0.60300	14
0.60667	15
0.61033	13
0.61400	13
0.61767	11
0.62133	11
0.62500	9
0.62867	7
0.63233	7
0.63600	9
0.63967	9
0.64333	7
0.64700	7
0.65067	6
0.65433	6
0.65800	6
0.66167	6
0.66533	6
0.66900	5
0.67267	5
0.67633	5
0.68000	3
0.68367	2
0.68733	3
0.69100	1
0.69467	-2
0.69833	-1
0.70200	2
0.70567	5
0.70933	5
0.71300	4
0.71667	4
0.72033	5
0.72400	8
0.72767	9
0.73133	8
0.73500	8
0.73867	7
0.74233	9
0.74600	10
0.74967	11
0.75333	11
0.75700	10
0.76067	9
0.76433	9
0.76800	8
0.77167	6
0.77533	4
0.77900	2
0.78267	3
0.78633	5
0.79000	7
0.79367	7
0.79733	8
0.80100	10
0.80467	10
0.80833	12
0.81200	13
0.81567	14
0.81933	15
0.82300	15
0.82667	15
0.83033	14
0.83400	11
0.83767	9
0.84133	9
0.84500	11
0.84867	13
0.85233	14
0.85600	14
0.85967	15
0.86333	16
0.86700	15
0.87067	15
0.87433	13
0.87800	11
0.88167	12
0.88533	12
0.88900	12
0.89267	13
0.89633	15
0.90000	16
0.90367	18
0.90733	17
0.91100	14
0.91467	13
0.91833	14
0.92200	16
0.92567	17
0.92933	17
0.93300	16
0.93667	15
0.94033	13
0.94400	11
0.94767	11
0.95133	12
0.95500	12
0.95867	11
0.96233	10
0.96600	10
0.96967	11
0.97333	12
0.97700	11
0.98067	12
0.98433	15
0.98800	14
0.99167	16
0.99533	16
0.99900	17
1.00267	18
1.00633	19
1.01000	18
1.01367	18
1.01733	18
1.02100	18
1.02467	19
1.02833	18
1.03200	15
1.03567	14
1.03933	14
1.04300	16
1.04667	17
1.05033	19
1.05400	17
1.05767	14
1.06133	14
1.06500	15
1.06867	17
1.07233	17
1.07600	19
1.07967	20
1.08333	20
1.08700	19
1.09067	18
1.09433	18
1.09800	17
1.10167	17
1.10533	17
1.10900	18
1.11267	19
1.11633	20
1.12000	20
1.12367	19
1.12733	18
1.13100	18
1.13467	18
1.13833	18
1.14200	17
1.14567	17
1.14933	17
1.15300	18
1.15667	17
1.16033	16
1.16400	16
1.16767	16
1.17133	17
1.17500	16
1.17867	15
1.18233	16
1.18600	20
1.18967	23
1.19333	24
1.19700	22
1.20067	20
1.20433	19
1.20800	19
1.21167	19
1.21533	21
1.21900	24
1.22267	24
1.22633	23
1.23000	21
1.23367	20
1.23733	21
1.24100	22
1.24467	21
1.24833	22
1.25200	22
1.25567	19
1.25933	17
1.26300	16
1.26667	17
1.27033	18
1.27400	19
1.27767	19
1.28133	19
1.28500	19
1.28867	20
1.29233	21
1.29600	23
1.29967	23
1.30333	23
1.30700	24
1.31067	23
1.31433	23
1.31800	23
1.32167	23
1.32533	24
1.32900	24
1.33267	24
1.33633	24
1.34000	23
1.34367	23
1.34733	24
1.35100	24
1.35467	24
1.35833	24
1.36200	23
1.36567	23
1.36933	22
1.37300	22
1.37667	21
1.38033	20
1.38400	20
1.38767	22
1.39133	24
1.39500	25
1.39867	25
1.40233	26
1.40600	27
1.40967	28
1.41333	28
1.41700	30
1.42067	29
1.42433	28
1.42800	28
1.43167	28
1.43533	30
1.43900	31
1.44267	30
1.44633	28
1.45000	27
1.45367	27
1.45733	26
1.46100	25
1.46467	25
1.46833	25
1.47200	26
1.47567	25
1.47933	24
1.48300	24
1.48667	23
1.49033	23
1.49400	25
1.49767	26
1.50133	27
1.50500	26
1.50867	25
1.51233	26
1.51600	27
1.51967	27
1.52333	27
1.52700	27
1.53067	27
1.53433	26
1.53800	26
1.54167	27
1.54533	27
1.54900	28
1.55267	28
1.55633	26
1.56000	26
1.56367	26
1.56733	26
1.57100	27
1.57467	28
1.57833	28
1.58200	30
1.58567	29
1.58933	26
1.59300	25
1.59667	26
1.60033	25
1.60400	24
1.60767	24
1.61133	25
1.61500	28
1.61867	31
1.62233	32
1.62600	34
1.62967	34
1.63333	32
1.63700	31
1.64067	32
1.64433	33
1.64800	35
1.65167	35
1.65533	34
1.65900	33
1.66267	34
1.66633	37
1.67000	40
1.67367	41
1.67733	41
1.68100	41
1.68467	40
1.68833	41
1.69200	40
1.69567	40
1.69933	41
1.70300	43
1.70667	44
1.71033	44
1.71400	43
1.71767	43
1.72133	43
1.72500	41
1.72867	41
1.73233	42
1.73600	43
1.73967	45
1.74333	44
1.74700	43
1.75067	45
1.75433	46
1.75800	46
1.76167	47
1.76533	47
1.76900	50
1.77267	52
1.77633	49
1.78000	47
1.78367	46
1.78733	47
1.79100	49
1.79467	50
1.79833	52
1.80200	55
1.80567	58
1.80933	59
1.81300	59
1.81667	58
1.82033	58
1.82400	59
1.82767	59
1.83133	58
1.83500	58
1.83867	56
1.84233	56
1.84600	57
1.84967	57
1.85333	59
1.85700	60
1.86067	59
1.86433	58
1.86800	58
1.87167	60
1.87533	62
1.87900	65
1.88267	67
1.88633	69
1.89000	73
1.89367	75
1.89733	74
1.90100	75
1.90467	76
1.90833	75
1.91200	75
1.91567	74
1.91933	74
1.92300	74
1.92667	73
1.93033	74
1.93400	77
1.93767	79
1.94133	79
1.94500	78
1.94867	78
1.95233	79
1.95600	80
1.95967	81
1.96333	83
1.96700	85
1.97067	88
1.97433	88
1.97800	90
1.98167	93
1.98533	96
1.98900	98
1.99267	99
1.99633	101
2.00000	103
2.00367	102
2.00733	102
2.01100	101
2.01467	102
2.01833	104
2.02200	105
2.02567	106
2.02933	106
2.03300	106
2.03667	107
2.04033	107
2.04400	107
2.04767	108
2.05133	109
2.05500	111
2.05867	114
2.06233	118
2.06600	121
2.06967	120
2.07333	120
2.07700	121
2.08067	122
2.08433	124
2.08800	126
2.09167	127
2.09533	129
2.09900	132
2.10267	134
2.10633	134
2.11000	133
2.11367	135
2.11733	137
2.12100	137
2.12467	136
2.12833	137
2.13200	139
2.13567	140
2.13933	141
2.14300	145
2.14667	147
2.15033	149
2.15400	151
2.15767	151
2.16133	151
2.16500	152
2.16867	155
2.17233	157
2.17600	158
2.17967	158
2.18333	159
2.18700	160
2.19067	162
2.19433	163
2.19800	163
2.20167	166
2.20533	170
2.20900	173
2.21267	177
2.21633	179
2.22000	181
2.22367	182
2.22733	183
2.23100	183
2.23467	182
2.23833	183
2.24200	184
2.24567	183
2.24933	183
2.25300	185
2.25667	188
2.26033	189
2.26400	188
2.26767	188
2.27133	192
2.27500	193
2.27867	192
2.28233	193
2.28600	194
2.28967	196
2.29333	197
2.29700	199
2.30067	202
2.30433	202
2.30800	201
2.31167	201
2.31533	202
2.31900	204
2.32267	206
2.32633	205
2.33000	206
2.33367	208
2.33733	209
2.34100	210
2.34467	211
2.34833	214
2.35200	217
2.35567	220
2.35933	222
2.36300	224
2.36667	226
2.37033	226
2.37400	226
2.37767	226
2.38133	227
2.38500	226
2.38867	224
2.39233	223
2.39600	222
2.39967	223
2.40333	224
2.40700	228
2.41067	231
2.41433	234
2.41800	236
2.42167	238
2.42533	240
2.42900	240
2.43267	239
2.43633	240
2.44000	245
2.44367	298
2.44733	433
2.45100	580
2.45467	699
2.45833	766
2.46200	771
2.46567	741
2.46933	705
2.47300	676
2.47667	659
2.48033	641
2.48400	610
2.48767	567
2.49133	520
2.49500	476
2.49867	441
2.50233	417
2.50600	402
2.50967	397
2.51333	403
2.51700	417
2.52067	436
2.52433	455
2.52800	466
2.53167	465
2.53533	454
2.53900	432
2.54267	402
2.54633	375
2.55000	348
2.55367	322
2.55733	300
2.56100	283
2.56467	272
2.56833	265
2.57200	261
2.57567	258
2.57933	255
2.58300	255
2.58667	255
2.59033	254
2.59400	254
2.59767	256
2.60133	254
2.60500	252
2.60867	247
2.61233	239
2.61600	230
2.61967	221
2.62333	211
2.62700	204
2.63067	199
2.63433	194
2.63800	189
2.64167	183
2.64533	176
2.64900	170
2.65267	163
2.65633	155
2.66000	147
2.66367	141
2.66733	133
2.67100	126
2.67467	118
2.67833	109
2.68200	103
2.68567	100
2.68933	97
2.69300	98
2.69667	98
2.70033	100
2.70400	101
2.70767	102
2.71133	104
2.71500	106
2.71867	106
2.72233	108
2.72600	112
2.72967	117
2.73333	120
2.73700	122
2.74067	124
2.74433	126
2.74800	127
2.75167	127
2.75533	128
2.75900	131
2.76267	133
2.76633	136
2.77000	139
2.77367	143
2.77733	145
2.78100	149
2.78467	151
2.78833	151
2.79200	151
2.79567	152
2.79933	154
2.80300	158
2.80667	163
2.81033	168
2.81400	173
2.81767	179
2.82133	189
2.82500	207
2.82867	242
2.83233	308
2.83600	423
2.83967	607
2.84333	883
2.84700	1260
2.85067	1733
2.85433	2279
2.85800	2859
2.86167	3432
2.86533	3948
2.86900	4367
2.87267	4661
2.87633	4812
2.88000	4827
2.88367	4720
2.88733	4517
2.89100	4248
2.89467	3934
2.89833	3598
2.90200	3257
2.90567	2927
2.90933	2617
2.91300	2332
2.91667	2071
2.92033	1836
2.92400	1627
2.92767	1441
2.93133	1276
2.93500	1134
2.93867	1009
2.94233	899
2.94600	801
2.94967	716
2.95333	642
2.95700	578
2.96067	523
2.96433	475
2.96800	432
2.97167	394
2.97533	363
2.97900	336
2.98267	312
2.98633	293
2.99000	276
2.99367	261
2.99733	246
3.00100	234
3.00467	225
3.00833	218
3.01200	212
3.01567	206
3.01933	202
3.02300	197
3.02667	194
3.03033	189
3.03400	185
3.03767	181
3.04133	178
3.04500	176
3.04867	173
3.05233	173
3.05600	173
3.05967	173
3.06333	172
3.06700	169
3.07067	165
3.07433	159
3.07800	156
3.08167	156
3.08533	158
3.08900	165
3.09267	180
3.09633	207
3.10000	243
3.10367	284
3.10733	328
3.11100	373
3.11467	415
3.11833	452
3.12200	487
3.12567	519
3.12933	547
3.13300	572
3.13667	593
3.14033	609
3.14400	625
3.14767	638
3.15133	651
3.15500	662
3.15867	672
3.16233	679
3.16600	683
3.16967	687
3.17333	695
3.17700	702
3.18067	708
3.18433	713
3.18800	719
3.19167	728
3.19533	736
3.19900	741
3.20267	746
3.20633	751
3.21000	758
3.21367	764
3.21733	768
3.22100	771
3.22467	774
3.22833	778
3.23200	784
3.23567	792
3.23933	800
3.24300	806
3.24667	811
3.25033	815
3.25400	819
3.25767	823
3.26133	827
3.26500	831
3.26867	834
3.27233	836
3.27600	840
3.27967	844
3.28333	847
3.28700	849
3.29067	851
3.29433	853
3.29800	854
3.30167	855
3.30533	860
3.30900	863
3.31267	865
3.31633	863
3.32000	860
3.32367	856
3.32733	856
3.33100	856
3.33467	855
3.33833	853
3.34200	852
3.34567	852
3.34933	849
3.35300	846
3.35667	847
3.36033	846
3.36400	844
3.36767	843
3.37133	840
3.37500	837
3.37867	832
3.38233	829
3.38600	828
3.38967	827
3.39333	824
3.39700	821
3.40067	818
3.40433	816
3.40800	816
3.41167	814
3.41533	812
3.41900	812
3.42267	810
3.42633	808
3.43000	806
3.43367	804
3.43733	803
3.44100	800
3.44467	798
3.44833	796
3.45200	795
3.45567	793
3.45933	792
3.46300	791
3.46667	789
3.47033	785
3.47400	782
3.47767	781
3.48133	780
3.48500	778
3.48867	776
3.49233	777
3.49600	776
3.49967	775
3.50333	773
3.50700	771
3.51067	771
3.51433	769
3.51800	763
3.52167	760
3.52533	760
3.52900	762
3.53267	764
3.53633	764
3.54000	761
3.54367	759
3.54733	758
3.55100	757
3.55467	757
3.55833	755
3.56200	753
3.56567	752
3.56933	752
3.57300	751
3.57667	748
3.58033	744
3.58400	743
3.58767	744
3.59133	743
3.59500	741
3.59867	740
3.60233	740
3.60600	738
3.60967	735
3.61333	732
3.61700	729
3.62067	729
3.62433	729
3.62800	729
3.63167	728
3.63533	726
3.63900	724
3.64267	722
3.64633	719
3.65000	717
3.65367	716
3.65733	716
3.66100	715
3.66467	713
3.66833	711
3.67200	708
3.67567	708
3.67933	707
3.68300	706
3.68667	704
3.69033	702
3.69400	699
3.69767	695
3.70133	695
3.70500	695
3.70867	693
3.71233	691
3.71600	688
3.71967	683
3.72333	678
3.72700	675
3.73067	674
3.73433	674
3.73800	671
3.74167	668
3.74533	665
3.74900	663
3.75267	662
3.75633	661
3.76000	657
3.76367	653
3.76733	649
3.77100	645
3.77467	642
3.77833	642
3.78200	640
3.78567	638
3.78933	635
3.79300	632
3.79667	630
3.80033	628
3.80400	628
3.80767	627
3.81133	626
3.81500	627
3.81867	625
3.82233	624
3.82600	622
3.82967	619
3.83333	616
3.83700	615
3.84067	613
3.84433	611
3.84800	611
3.85167	610
3.85533	605
3.85900	599
3.86267	597
3.86633	598
3.87000	598
3.87367	598
3.87733	598
3.88100	596
3.88467	593
3.88833	590
3.89200	585
3.89567	582
3.89933	578
3.90300	578
3.90667	577
3.91033	578
3.91400	579
3.91767	577
3.92133	574
3.92500	570
3.92867	567
3.93233	566
3.93600	566
3.93967	564
3.94333	560
3.94700	559
3.95067	557
3.95433	556
3.95800	555
3.96167	553
3.96533	551
3.96900	552
3.97267	552
3.97633	552
3.98000	553
3.98367	553
3.98733	553
3.99100	553
3.99467	552
3.99833	549

[Status Trace (Column Oven Temperature)]
Interval(msec)	1000
# of Points	240
Start Time(min)	0.004
End Time(min)	3.988
Intensity Units	
Intensity Multiplier	1
R.Time (min)	Intensity
0.00430	35.05
0.02097	35.04
0.03763	35.05
0.05430	35.05
0.07097	35.06
0.08763	35.04
0.10430	35.04
0.12097	35.04
0.13763	35.03
0.15430	35.04
0.17097	35.03
0.18763	35.03
0.20430	35.04
0.22097	35.03
0.23763	35.02
0.25430	35.02
0.27097	35.02
0.28763	35.01
0.30430	35.02
0.32097	35.01
0.33763	35.01
0.35430	35.02
0.37097	35.01
0.38763	35.02
0.40430	35.02
0.42097	35.02
0.43763	35.02
0.45430	35.03
0.47097	35.03
0.48763	35.03
0.50430	35.04
0.52097	35.03
0.53763	35.02
0.55430	35.03
0.57097	35.03
0.58763	35.04
0.60430	35.04
0.62097	35.03
0.63763	35.01
0.65430	35.00
0.67097	35.00
0.68763	35.01
0.70430	35.00
0.72097	35.00
0.73763	34.99
0.75430	34.99
0.77097	35.00
0.78763	35.01
0.80430	35.01
0.82097	35.00
0.83763	34.99
0.85430	34.98
0.87097	34.99
0.88763	34.99
0.90430	34.99
0.92097	34.99
0.93763	35.01
0.95430	35.01
0.97097	35.01
0.98763	35.01
1.00430	35.02
1.02097	35.02
1.03763	35.01
1.05430	35.00
1.07097	34.99
1.08763	34.99
1.10430	34.99
1.12097	35.00
1.13763	35.01
1.15430	35.01
1.17097	35.00
1.18763	35.00
1.20430	35.01
1.22097	35.01
1.23763	35.00
1.25430	35.00
1.27097	34.99
1.28763	34.99
1.30430	34.99
1.32097	35.00
1.33763	34.99
1.35430	34.99
1.37097	34.98
1.38763	34.99
1.40430	34.98
1.42097	34.98
1.43763	34.96
1.45430	34.96
1.47097	34.96
1.48763	34.97
1.50430	34.97
1.52097	34.97
1.53763	34.98
1.55430	34.99
1.57097	34.99
1.58763	35.00
1.60430	35.06
1.62097	35.17
1.63763	35.34
1.65430	35.57
1.67097	35.88
1.68763	36.24
1.70430	36.60
1.72097	36.95
1.73763	37.27
1.75430	37.61
1.77097	37.92
1.78763	38.26
1.80430	38.60
1.82097	38.93
1.83763	39.26
1.85430	39.58
1.87097	39.91
1.88763	40.25
1.90430	40.57
1.92097	40.90
1.93763	41.24
1.95430	41.57
1.97097	41.91
1.98763	42.24
2.00430	42.56
2.02097	42.89
2.03763	43.21
2.05430	43.55
2.07097	43.87
2.08763	44.19
2.10430	44.52
2.12097	44.86
2.13763	45.20
2.15430	45.50
2.17097	45.83
2.18763	46.15
2.20430	46.47
2.22097	46.81
2.23763	47.14
2.25430	47.45
2.27097	47.78
2.28763	48.12
2.30430	48.44
2.32097	48.76
2.33763	49.08
2.35430	49.37
2.37097	49.61
2.38763	49.70
2.40430	49.71
2.42097	49.69
2.43763	49.71
2.45430	49.70
2.47097	49.71
2.48763	49.72
2.50430	49.73
2.52097	49.73
2.53763	49.74
2.55430	49.75
2.57097	49.76
2.58763	49.78
2.60430	49.79
2.62097	49.81
2.63763	49.81
2.65430	49.82
2.67097	49.81
2.68763	49.82
2.70430	49.84
2.72097	49.84
2.73763	49.85
2.75430	49.87
2.77097	49.87
2.78763	49.86
2.80430	49.85
2.82097	49.86
2.83763	49.86
2.85430	49.85
2.87097	49.86
2.88763	49.86
2.90430	49.87
2.92097	49.88
2.93763	49.89
2.95430	49.91
2.97097	49.93
2.98763	49.95
3.00430	49.97
3.02097	49.99
3.03763	50.00
3.05430	50.02
3.07097	50.02
3.08763	50.03
3.10430	50.04
3.12097	50.05
3.13763	50.04
3.15430	50.04
3.17097	50.04
3.18763	50.05
3.20430	50.06
3.22097	50.05
3.23763	50.06
3.25430	50.08
3.27097	50.09
3.28763	50.10
3.30430	50.11
3.32097	50.11
3.33763	50.10
3.35430	50.10
3.37097	50.08
3.38763	50.06
3.40430	50.05
3.42097	50.04
3.43763	50.03
3.45430	50.02
3.47097	50.01
3.48763	50.02
3.50430	50.01
3.52097	50.01
3.53763	50.02
3.55430	50.01
3.57097	50.01
3.58763	50.02
3.60430	50.01
3.62097	50.01
3.63763	50.01
3.65430	50.02
3.67097	50.02
3.68763	50.02
3.70430	50.02
3.72097	50.02
3.73763	50.02
3.75430	50.02
3.77097	50.01
3.78763	50.01
3.80430	50.01
3.82097	50.02
3.83763	50.03
3.85430	50.03
3.87097	50.04
3.88763	50.04
3.90430	50.04
3.92097	50.04
3.93763	50.04
3.95430	50.04
3.97097	50.04
3.98763	50.04

[Status Trace (Injection Unit Temperature)]
Interval(msec)	1000
# of Points	240
Start Time(min)	0.004
End Time(min)	3.988
Intensity Units	
Intensity Multiplier	1
R.Time (min)	Intensity
0.00430	99.98
0.02097	99.98
0.03763	99.98
0.05430	99.98
0.07097	99.98
0.08763	99.98
0.10430	99.98
0.12097	99.98
0.13763	99.98
0.15430	99.98
0.17097	99.98
0.18763	99.98
0.20430	99.98
0.22097	99.98
0.23763	99.98
0.25430	99.98
0.27097	99.98
0.28763	99.98
0.30430	99.98
0.32097	99.98
0.33763	99.98
0.35430	99.98
0.37097	99.98
0.38763	99.99
0.40430	99.99
0.42097	99.98
0.43763	99.98
0.45430	99.98
0.47097	99.98
0.48763	99.98
0.50430	99.98
0.52097	99.99
0.53763	99.98
0.55430	99.98
0.57097	99.99
0.58763	99.98
0.60430	99.98
0.62097	99.98
0.63763	99.98
0.65430	99.98
0.67097	99.99
0.68763	99.99
0.70430	99.98
0.72097	99.98
0.73763	99.98
0.75430	99.98
0.77097	99.98
0.78763	99.99
0.80430	99.98
0.82097	99.98
0.83763	99.99
0.85430	99.98
0.87097	99.98
0.88763	99.98
0.90430	99.98
0.92097	99.98
0.93763	99.98
0.95430	99.98
0.97097	99.98
0.98763	99.98
1.00430	99.98
1.02097	99.99
1.03763	99.98
1.05430	99.98
1.07097	99.99
1.08763	99.98
1.10430	99.98
1.12097	99.99
1.13763	99.99
1.15430	99.98
1.17097	99.98
1.18763	99.99
1.20430	99.98
1.22097	99.99
1.23763	99.98
1.25430	99.98
1.27097	99.99
1.28763	99.98
1.30430	99.98
1.32097	99.98
1.33763	99.98
1.35430	99.98
1.37097	99.98
1.38763	99.98
1.40430	99.98
1.42097	99.98
1.43763	99.99
1.45430	99.99
1.47097	99.98
1.48763	99.99
1.50430	99.99
1.52097	99.98
1.53763	99.98
1.55430	99.99
1.57097	99.99
1.58763	99.99
1.60430	99.99
1.62097	99.99
1.63763	99.99
1.65430	99.99
1.67097	99.98
1.68763	99.99
1.70430	99.99
1.72097	99.99
1.73763	99.98
1.75430	99.99
1.77097	99.99
1.78763	99.98
1.80430	99.99
1.82097	99.99
1.83763	99.98
1.85430	99.98
1.87097	99.98
1.88763	99.98
1.90430	99.98
1.92097	99.98
1.93763	99.98
1.95430	99.98
1.97097	99.98
1.98763	99.98
2.00430	99.98
2.02097	99.98
2.03763	99.98
2.05430	99.97
2.07097	99.98
2.08763	99.97
2.10430	99.97
2.12097	99.97
2.13763	99.97
2.15430	99.97
2.17097	99.97
2.18763	99.97
2.20430	99.97
2.22097	99.97
2.23763	99.97
2.25430	99.96
2.27097	99.96
2.28763	99.97
2.30430	99.96
2.32097	99.96
2.33763	99.96
2.35430	99.96
2.37097	99.97
2.38763	99.96
2.40430	99.97
2.42097	99.97
2.43763	99.97
2.45430	99.97
2.47097	99.97
2.48763	99.97
2.50430	99.97
2.52097	99.96
2.53763	99.97
2.55430	99.97
2.57097	99.97
2.58763	99.97
2.60430	99.97
2.62097	99.98
2.63763	99.98
2.65430	99.98
2.67097	99.98
2.68763	99.98
2.70430	99.98
2.72097	99.99
2.73763	99.99
2.75430	99.99
2.77097	99.99
2.78763	99.99
2.80430	99.99
2.82097	100.00
2.83763	100.00
2.85430	100.00
2.87097	100.00
2.88763	100.00
2.90430	100.00
2.92097	100.00
2.93763	100.01
2.95430	100.01
2.97097	100.01
2.98763	100.01
3.00430	100.01
3.02097	100.01
3.03763	100.02
3.05430	100.02
3.07097	100.02
3.08763	100.01
3.10430	100.02
3.12097	100.02
3.13763	100.02
3.15430	100.02
3.17097	100.02
3.18763	100.02
3.20430	100.03
3.22097	100.03
3.23763	100.03
3.25430	100.03
3.27097	100.03
3.28763	100.02
3.30430	100.03
3.32097	100.03
3.33763	100.03
3.35430	100.03
3.37097	100.03
3.38763	100.03
3.40430	100.03
3.42097	100.03
3.43763	100.03
3.45430	100.03
3.47097	100.03
3.48763	100.03
3.50430	100.03
3.52097	100.03
3.53763	100.03
3.55430	100.03
3.57097	100.03
3.58763	100.03
3.60430	100.04
3.62097	100.03
3.63763	100.03
3.65430	100.03
3.67097	100.03
3.68763	100.03
3.70430	100.03
3.72097	100.03
3.73763	100.04
3.75430	100.03
3.77097	100.03
3.78763	100.03
3.80430	100.03
3.82097	100.03
3.83763	100.03
3.85430	100.03
3.87097	100.03
3.88763	100.03
3.90430	100.03
3.92097	100.03
3.93763	100.03
3.95430	100.03
3.97097	100.03
3.98763	100.03

[Status Trace (Carrier Gas Pressure)]
Interval(msec)	1000
# of Points	240
Start Time(min)	0.004
End Time(min)	3.988
Intensity Units	
Intensity Multiplier	1
R.Time (min)	Intensity
0.00430	58.00
0.02097	55.93
0.03763	56.67
0.05430	58.80
0.07097	59.73
0.08763	58.16
0.10430	57.97
0.12097	58.01
0.13763	58.01
0.15430	58.01
0.17097	58.00
0.18763	58.00
0.20430	58.00
0.22097	58.00
0.23763	58.00
0.25430	58.00
0.27097	58.00
0.28763	58.00
0.30430	58.00
0.32097	58.00
0.33763	58.00
0.35430	58.00
0.37097	58.00
0.38763	58.00
0.40430	58.00
0.42097	58.00
0.43763	58.00
0.45430	58.00
0.47097	58.00
0.48763	58.00
0.50430	58.00
0.52097	58.00
0.53763	58.00
0.55430	58.00
0.57097	58.00
0.58763	58.00
0.60430	58.00
0.62097	58.00
0.63763	58.00
0.65430	58.00
0.67097	58.00
0.68763	58.00
0.70430	58.00
0.72097	58.00
0.73763	58.00
0.75430	58.00
0.77097	58.00
0.78763	58.00
0.80430	58.00
0.82097	58.00
0.83763	58.00
0.85430	58.00
0.87097	58.00
0.88763	58.00
0.90430	58.00
0.92097	58.00
0.93763	58.00
0.95430	58.00
0.97097	58.00
0.98763	58.00
1.00430	58.00
1.02097	58.00
1.03763	58.00
1.05430	58.00
1.07097	58.00
1.08763	58.00
1.10430	58.00
1.12097	58.00
1.13763	58.00
1.15430	58.00
1.17097	58.00
1.18763	58.00
1.20430	58.00
1.22097	58.00
1.23763	58.00
1.25430	58.00
1.27097	58.00
1.28763	58.00
1.30430	58.00
1.32097	58.00
1.33763	58.00
1.35430	58.00
1.37097	58.00
1.38763	58.00
1.40430	58.00
1.42097	58.00
1.43763	58.00
1.45430	58.00
1.47097	58.00
1.48763	58.00
1.50430	58.00
1.52097	58.00
1.53763	58.00
1.55430	58.00
1.57097	58.00
1.58763	58.00
1.60430	58.00
1.62097	58.00
1.63763	58.00
1.65430	58.01
1.67097	58.01
1.68763	58.00
1.70430	58.00
1.72097	58.00
1.73763	58.00
1.75430	58.00
1.77097	58.00
1.78763	58.00
1.80430	58.00
1.82097	58.00
1.83763	58.00
1.85430	58.00
1.87097	58.00
1.88763	58.00
1.90430	58.00
1.92097	58.00
1.93763	58.00
1.95430	58.00
1.97097	58.00
1.98763	58.00
2.00430	58.00
2.02097	58.00
2.03763	58.00
2.05430	58.00
2.07097	58.00
2.08763	58.00
2.10430	58.00
2.12097	58.00
2.13763	58.00
2.15430	58.00
2.17097	58.00
2.18763	58.00
2.20430	58.00
2.22097	58.00
2.23763	58.00
2.25430	58.00
2.27097	58.00
2.28763	58.00
2.30430	58.00
2.32097	58.00
2.33763	58.00
2.35430	58.00
2.37097	58.00
2.38763	57.99
2.40430	57.99
2.42097	58.00
2.43763	58.00
2.45430	58.00
2.47097	58.00
2.48763	58.00
2.50430	57.98
2.52097	57.99
2.53763	58.00
2.55430	58.00
2.57097	58.00
2.58763	58.00
2.60430	58.00
2.62097	58.00
2.63763	58.00
2.65430	58.00
2.67097	58.00
2.68763	58.00
2.70430	58.00
2.72097	58.00
2.73763	58.00
2.75430	58.00
2.77097	58.00
2.78763	58.00
2.80430	58.00
2.82097	58.00
2.83763	58.00
2.85430	58.00
2.87097	58.00
2.88763	58.00
2.90430	58.00
2.92097	58.00
2.93763	58.00
2.95430	58.00
2.97097	58.00
2.98763	58.00
3.00430	58.00
3.02097	58.00
3.03763	58.00
3.05430	58.00
3.07097	58.00
3.08763	58.00
3.10430	58.00
3.12097	58.00
3.13763	58.00
3.15430	58.00
3.17097	58.00
3.18763	58.00
3.20430	58.00
3.22097	58.00
3.23763	58.00
3.25430	58.00
3.27097	58.00
3.28763	58.00
3.30430	58.00
3.32097	58.00
3.33763	58.00
3.35430	58.00
3.37097	58.00
3.38763	58.00
3.40430	58.00
3.42097	58.00
3.43763	58.00
3.45430	58.00
3.47097	58.00
3.48763	58.00
3.50430	58.00
3.52097	58.00
3.53763	58.00
3.55430	58.00
3.57097	58.00
3.58763	58.00
3.60430	58.00
3.62097	58.00
3.63763	58.00
3.65430	58.00
3.67097	58.00
3.68763	58.00
3.70430	58.00
3.72097	58.00
3.73763	58.00
3.75430	58.00
3.77097	58.00
3.78763	58.00
3.80430	58.00
3.82097	58.00
3.83763	58.00
3.85430	58.00
3.87097	58.00
3.88763	58.00
3.90430	58.00
3.92097	58.00
3.93763	58.00
3.95430	58.00
3.97097	58.00
3.98763	58.00

[Status Trace (Carrier Gas Flow)]
Interval(msec)	1000
# of Points	240
Start Time(min)	0.004
End Time(min)	3.988
Intensity Units	
Intensity Multiplier	1
R.Time (min)	Intensity
0.00430	34.52
0.02097	34.56
0.03763	34.55
0.05430	34.55
0.07097	34.50
0.08763	34.52
0.10430	34.52
0.12097	34.52
0.13763	34.52
0.15430	34.52
0.17097	34.52
0.18763	34.52
0.20430	34.51
0.22097	34.52
0.23763	34.52
0.25430	34.52
0.27097	34.52
0.28763	34.52
0.30430	34.52
0.32097	34.52
0.33763	34.52
0.35430	34.52
0.37097	34.52
0.38763	34.52
0.40430	34.52
0.42097	34.52
0.43763	34.51
0.45430	34.52
0.47097	34.52
0.48763	34.52
0.50430	34.52
0.52097	34.52
0.53763	34.51
0.55430	34.53
0.57097	34.52
0.58763	34.52
0.60430	34.52
0.62097	34.51
0.63763	34.52
0.65430	34.52
0.67097	34.52
0.68763	34.52
0.70430	34.52
0.72097	34.52
0.73763	34.52
0.75430	34.52
0.77097	34.52
0.78763	34.52
0.80430	34.52
0.82097	34.51
0.83763	34.52
0.85430	34.52
0.87097	34.52
0.88763	34.52
0.90430	34.52
0.92097	34.52
0.93763	34.52
0.95430	34.52
0.97097	34.52
0.98763	34.52
1.00430	34.52
1.02097	34.52
1.03763	34.52
1.05430	34.52
1.07097	34.51
1.08763	34.52
1.10430	34.52
1.12097	34.52
1.13763	34.52
1.15430	34.52
1.17097	34.52
1.18763	34.53
1.20430	34.52
1.22097	34.52
1.23763	34.52
1.25430	34.52
1.27097	34.52
1.28763	34.52
1.30430	34.52
1.32097	34.52
1.33763	34.52
1.35430	34.52
1.37097	34.52
1.38763	34.52
1.40430	34.52
1.42097	34.52
1.43763	34.52
1.45430	34.52
1.47097	34.52
1.48763	34.52
1.50430	34.52
1.52097	34.52
1.53763	34.51
1.55430	34.53
1.57097	34.51
1.58763	34.52
1.60430	34.51
1.62097	34.52
1.63763	34.52
1.65430	34.52
1.67097	34.52
1.68763	34.52
1.70430	34.52
1.72097	34.52
1.73763	34.52
1.75430	34.52
1.77097	34.52
1.78763	34.53
1.80430	34.52
1.82097	34.52
1.83763	34.52
1.85430	34.52
1.87097	34.52
1.88763	34.52
1.90430	34.52
1.92097	34.52
1.93763	34.52
1.95430	34.52
1.97097	34.52
1.98763	34.52
2.00430	34.52
2.02097	34.51
2.03763	34.52
2.05430	34.52
2.07097	34.52
2.08763	34.52
2.10430	34.52
2.12097	34.52
2.13763	34.52
2.15430	34.52
2.17097	34.52
2.18763	34.53
2.20430	34.52
2.22097	34.52
2.23763	34.52
2.25430	34.52
2.27097	34.51
2.28763	34.52
2.30430	34.52
2.32097	34.52
2.33763	34.52
2.35430	34.52
2.37097	34.52
2.38763	34.51
2.40430	34.52
2.42097	34.53
2.43763	34.52
2.45430	34.52
2.47097	34.52
2.48763	34.51
2.50430	34.60
2.52097	34.52
2.53763	34.52
2.55430	34.52
2.57097	34.52
2.58763	34.52
2.60430	34.52
2.62097	34.52
2.63763	34.52
2.65430	34.52
2.67097	34.52
2.68763	34.51
2.70430	34.53
2.72097	34.52
2.73763	34.52
2.75430	34.52
2.77097	34.52
2.78763	34.53
2.80430	34.52
2.82097	34.52
2.83763	34.51
2.85430	34.52
2.87097	34.52
2.88763	34.52
2.90430	34.52
2.92097	34.52
2.93763	34.52
2.95430	34.51
2.97097	34.52
2.98763	34.52
3.00430	34.52
3.02097	34.52
3.03763	34.52
3.05430	34.52
3.07097	34.52
3.08763	34.52
3.10430	34.52
3.12097	34.52
3.13763	34.52
3.15430	34.52
3.17097	34.52
3.18763	34.52
3.20430	34.52
3.22097	34.52
3.23763	34.52
3.25430	34.52
3.27097	34.52
3.28763	34.52
3.30430	34.52
3.32097	34.52
3.33763	34.51
3.35430	34.52
3.37097	34.51
3.38763	34.52
3.40430	34.52
3.42097	34.52
3.43763	34.52
3.45430	34.52
3.47097	34.52
3.48763	34.52
3.50430	34.52
3.52097	34.52
3.53763	34.52
3.55430	34.52
3.57097	34.52
3.58763	34.52
3.60430	34.52
3.62097	34.52
3.63763	34.52
3.65430	34.52
3.67097	34.51
3.68763	34.53
3.70430	34.51
3.72097	34.52
3.73763	34.51
3.75430	34.51
3.77097	34.53
3.78763	34.52
3.80430	34.53
3.82097	34.52
3.83763	34.52
3.85430	34.53
3.87097	34.51
3.88763	34.52
3.90430	34.52
3.92097	34.52
3.93763	34.51
3.95430	34.51
3.97097	34.52
3.98763	34.51

[Status Trace (Column Flow)]
Interval(msec)	1000
# of Points	240
Start Time(min)	0.004
End Time(min)	3.988
Intensity Units	
Intensity Multiplier	1
R.Time (min)	Intensity
0.00430	5.53
0.02097	5.29
0.03763	5.38
0.05430	5.63
0.07097	5.74
0.08763	5.55
0.10430	5.53
0.12097	5.53
0.13763	5.53
0.15430	5.53
0.17097	5.53
0.18763	5.53
0.20430	5.53
0.22097	5.53
0.23763	5.53
0.25430	5.53
0.27097	5.53
0.28763	5.53
0.30430	5.53
0.32097	5.53
0.33763	5.53
0.35430	5.53
0.37097	5.53
0.38763	5.53
0.40430	5.53
0.42097	5.53
0.43763	5.53
0.45430	5.53
0.47097	5.53
0.48763	5.53
0.50430	5.53
0.52097	5.53
0.53763	5.53
0.55430	5.53
0.57097	5.53
0.58763	5.53
0.60430	5.53
0.62097	5.53
0.63763	5.53
0.65430	5.53
0.67097	5.53
0.68763	5.53
0.70430	5.53
0.72097	5.53
0.73763	5.53
0.75430	5.53
0.77097	5.53
0.78763	5.53
0.80430	5.53
0.82097	5.53
0.83763	5.53
0.85430	5.53
0.87097	5.54
0.88763	5.54
0.90430	5.53
0.92097	5.53
0.93763	5.53
0.95430	5.53
0.97097	5.53
0.98763	5.53
1.00430	5.53
1.02097	5.53
1.03763	5.53
1.05430	5.53
1.07097	5.54
1.08763	5.54
1.10430	5.54
1.12097	5.53
1.13763	5.53
1.15430	5.53
1.17097	5.53
1.18763	5.53
1.20430	5.53
1.22097	5.53
1.23763	5.53
1.25430	5.53
1.27097	5.53
1.28763	5.53
1.30430	5.53
1.32097	5.53
1.33763	5.53
1.35430	5.53
1.37097	5.53
1.38763	5.53
1.40430	5.54
1.42097	5.54
1.43763	5.54
1.45430	5.54
1.47097	5.54
1.48763	5.54
1.50430	5.54
1.52097	5.54
1.53763	5.54
1.55430	5.53
1.57097	5.54
1.58763	5.53
1.60430	5.53
1.62097	5.53
1.63763	5.52
1.65430	5.52
1.67097	5.51
1.68763	5.50
1.70430	5.48
1.72097	5.47
1.73763	5.46
1.75430	5.45
1.77097	5.44
1.78763	5.43
1.80430	5.42
1.82097	5.41
1.83763	5.40
1.85430	5.39
1.87097	5.38
1.88763	5.37
1.90430	5.36
1.92097	5.35
1.93763	5.34
1.95430	5.33
1.97097	5.32
1.98763	5.31
2.00430	5.30
2.02097	5.29
2.03763	5.28
2.05430	5.27
2.07097	5.26
2.08763	5.26
2.10430	5.25
2.12097	5.24
2.13763	5.23
2.15430	5.22
2.17097	5.21
2.18763	5.20
2.20430	5.19
2.22097	5.18
2.23763	5.17
2.25430	5.16
2.27097	5.15
2.28763	5.14
2.30430	5.13
2.32097	5.12
2.33763	5.12
2.35430	5.11
2.37097	5.10
2.38763	5.10
2.40430	5.10
2.42097	5.10
2.43763	5.10
2.45430	5.10
2.47097	5.10
2.48763	5.10
2.50430	5.10
2.52097	5.10
2.53763	5.10
2.55430	5.10
2.57097	5.10
2.58763	5.10
2.60430	5.10
2.62097	5.10
2.63763	5.10
2.65430	5.10
2.67097	5.10
2.68763	5.10
2.70430	5.10
2.72097	5.10
2.73763	5.10
2.75430	5.09
2.77097	5.09
2.78763	5.09
2.80430	5.09
2.82097	5.09
2.83763	5.09
2.85430	5.09
2.87097	5.09
2.88763	5.09
2.90430	5.09
2.92097	5.09
2.93763	5.09
2.95430	5.09
2.97097	5.09
2.98763	5.09
3.00430	5.09
3.02097	5.09
3.03763	5.09
3.05430	5.09
3.07097	5.09
3.08763	5.09
3.10430	5.09
3.12097	5.09
3.13763	5.09
3.15430	5.09
3.17097	5.09
3.18763	5.09
3.20430	5.09
3.22097	5.09
3.23763	5.09
3.25430	5.09
3.27097	5.09
3.28763	5.09
3.30430	5.09
3.32097	5.09
3.33763	5.09
3.35430	5.09
3.37097	5.09
3.38763	5.09
3.40430	5.09
3.42097	5.09
3.43763	5.09
3.45430	5.09
3.47097	5.09
3.48763	5.09
3.50430	5.09
3.52097	5.09
3.53763	5.09
3.55430	5.09
3.57097	5.09
3.58763	5.09
3.60430	5.09
3.62097	5.09
3.63763	5.09
3.65430	5.09
3.67097	5.09
3.68763	5.09
3.70430	5.09
3.72097	5.09
3.73763	5.09
3.75430	5.09
3.77097	5.09
3.78763	5.09
3.80430	5.09
3.82097	5.09
3.83763	5.09
3.85430	5.09
3.87097	5.09
3.88763	5.09
3.90430	5.09
3.92097	5.09
3.93763	5.09
3.95430	5.09
3.97097	5.09
3.98763	5.09

[Status Trace (Linear Velocity)]
Interval(msec)	1000
# of Points	240
Start Time(min)	0.004
End Time(min)	3.988
Intensity Units	
Intensity Multiplier	1
R.Time (min)	Intensity
0.00430	39.01
0.02097	37.66
0.03763	38.14
0.05430	39.54
0.07097	40.15
0.08763	39.12
0.10430	39.00
0.12097	39.02
0.13763	39.02
0.15430	39.02
0.17097	39.02
0.18763	39.02
0.20430	39.02
0.22097	39.02
0.23763	39.02
0.25430	39.02
0.27097	39.02
0.28763	39.02
0.30430	39.02
0.32097	39.02
0.33763	39.02
0.35430	39.02
0.37097	39.02
0.38763	39.02
0.40430	39.02
0.42097	39.02
0.43763	39.02
0.45430	39.02
0.47097	39.02
0.48763	39.02
0.50430	39.02
0.52097	39.02
0.53763	39.02
0.55430	39.02
0.57097	39.02
0.58763	39.02
0.60430	39.02
0.62097	39.02
0.63763	39.02
0.65430	39.02
0.67097	39.02
0.68763	39.02
0.70430	39.02
0.72097	39.02
0.73763	39.02
0.75430	39.02
0.77097	39.02
0.78763	39.02
0.80430	39.02
0.82097	39.02
0.83763	39.02
0.85430	39.02
0.87097	39.02
0.88763	39.02
0.90430	39.02
0.92097	39.02
0.93763	39.02
0.95430	39.02
0.97097	39.02
0.98763	39.02
1.00430	39.02
1.02097	39.02
1.03763	39.02
1.05430	39.02
1.07097	39.02
1.08763	39.02
1.10430	39.02
1.12097	39.02
1.13763	39.02
1.15430	39.02
1.17097	39.02
1.18763	39.02
1.20430	39.02
1.22097	39.02
1.23763	39.02
1.25430	39.02
1.27097	39.02
1.28763	39.02
1.30430	39.02
1.32097	39.02
1.33763	39.02
1.35430	39.02
1.37097	39.02
1.38763	39.02
1.40430	39.02
1.42097	39.02
1.43763	39.02
1.45430	39.02
1.47097	39.02
1.48763	39.02
1.50430	39.02
1.52097	39.02
1.53763	39.02
1.55430	39.02
1.57097	39.02
1.58763	39.02
1.60430	39.02
1.62097	39.01
1.63763	38.99
1.65430	38.97
1.67097	38.94
1.68763	38.90
1.70430	38.87
1.72097	38.83
1.73763	38.80
1.75430	38.77
1.77097	38.74
1.78763	38.71
1.80430	38.68
1.82097	38.65
1.83763	38.62
1.85430	38.58
1.87097	38.55
1.88763	38.52
1.90430	38.49
1.92097	38.46
1.93763	38.43
1.95430	38.40
1.97097	38.37
1.98763	38.34
2.00430	38.31
2.02097	38.28
2.03763	38.25
2.05430	38.22
2.07097	38.19
2.08763	38.16
2.10430	38.13
2.12097	38.10
2.13763	38.07
2.15430	38.04
2.17097	38.01
2.18763	37.98
2.20430	37.95
2.22097	37.92
2.23763	37.89
2.25430	37.86
2.27097	37.83
2.28763	37.80
2.30430	37.77
2.32097	37.75
2.33763	37.72
2.35430	37.69
2.37097	37.67
2.38763	37.66
2.40430	37.66
2.42097	37.66
2.43763	37.66
2.45430	37.66
2.47097	37.66
2.48763	37.66
2.50430	37.65
2.52097	37.65
2.53763	37.66
2.55430	37.66
2.57097	37.66
2.58763	37.66
2.60430	37.65
2.62097	37.65
2.63763	37.65
2.65430	37.65
2.67097	37.65
2.68763	37.65
2.70430	37.65
2.72097	37.65
2.73763	37.65
2.75430	37.65
2.77097	37.65
2.78763	37.65
2.80430	37.65
2.82097	37.65
2.83763	37.65
2.85430	37.65
2.87097	37.65
2.88763	37.65
2.90430	37.65
2.92097	37.65
2.93763	37.65
2.95430	37.64
2.97097	37.64
2.98763	37.64
3.00430	37.64
3.02097	37.64
3.03763	37.64
3.05430	37.63
3.07097	37.63
3.08763	37.63
3.10430	37.63
3.12097	37.63
3.13763	37.63
3.15430	37.63
3.17097	37.63
3.18763	37.63
3.20430	37.63
3.22097	37.63
3.23763	37.63
3.25430	37.63
3.27097	37.63
3.28763	37.63
3.30430	37.63
3.32097	37.63
3.33763	37.63
3.35430	37.63
3.37097	37.63
3.38763	37.63
3.40430	37.63
3.42097	37.63
3.43763	37.63
3.45430	37.63
3.47097	37.63
3.48763	37.63
3.50430	37.63
3.52097	37.63
3.53763	37.63
3.55430	37.63
3.57097	37.63
3.58763	37.63
3.60430	37.63
3.62097	37.63
3.63763	37.63
3.65430	37.63
3.67097	37.63
3.68763	37.63
3.70430	37.63
3.72097	37.63
3.73763	37.63
3.75430	37.63
3.77097	37.63
3.78763	37.63
3.80430	37.63
3.82097	37.63
3.83763	37.63
3.85430	37.63
3.87097	37.63
3.88763	37.63
3.90430	37.63
3.92097	37.63
3.93763	37.63
3.95430	37.63
3.97097	37.63
3.98763	37.63

