[Header]
Application Name	LabSolutions
Version	5.110
Data File Name	C:\Users\User\Desktop\GC Analyses\Jack\Nachusa Grasslands Sampling\T3 Timepoint July 12th\T3_07122022_044.gcd
Output Date	3/14/2023
Output Time	3:43:33 PM

[File Information]
Type	Data File
Generated	3/13/2023 7:20:56 PM
Generated by	System Administrator
Modified	3/13/2023 7:27:32 PM
Modified by	System Administrator

[Sample Information]
Operator Name	System Administrator
Acquired	3/13/2023 7:23:31 PM
Sample Type	0:Unknown
Level	0
Sample Name	044
Sample ID	044
ISTD Amount1	1
ISTD Amount2	1
ISTD Amount3	1
ISTD Amount4	1
ISTD Amount5	1
ISTD Amount6	1
ISTD Amount7	1
ISTD Amount8	1
ISTD Amount9	1
ISTD Amount10	1
ISTD Amount11	1
ISTD Amount12	1
ISTD Amount13	1
ISTD Amount14	1
ISTD Amount15	1
ISTD Amount16	1
ISTD Amount17	1
ISTD Amount18	1
ISTD Amount19	1
ISTD Amount20	1
ISTD Amount21	1
ISTD Amount22	1
ISTD Amount23	1
ISTD Amount24	1
ISTD Amount25	1
ISTD Amount26	1
ISTD Amount27	1
ISTD Amount28	1
ISTD Amount29	1
ISTD Amount30	1
ISTD Amount31	1
ISTD Amount32	1
Sample Amount	1
Dilution Factor	1
Vial#	43
Injection Volume	1
Injection Count	1
Bar Code	

[Original Files]
Data File	C:\Users\User\Desktop\GC Analyses\Jack\Nachusa Grasslands Sampling\T3 Timepoint July 12th\T3_07122022_044.gcd
Method File	C:\LabSolutions\Data\GHG_4min_2022\ghg3_togas_w_acet_4 min_new_int.gcm
Batch File	C:\LabSolutions\Data\AutoSamplerTesting\T3_07122022.gcb
Report Format File	c:\LabSolutions\System\DEFAULT.lsr

[File Description]


[Configuration]
Instrument Name	C0B7VH3-Instrument1
Instrument #	1
Line #	1
# of Detectors	3
Detector ID	DET#1	DET#2	DET#3
Detector Name	FID	PTCD	ECD
# of Channels	1	1	1

[Peak Table(Ch1)]
# of Peaks	3
Peak#	R.Time	I.Time	F.Time	Area	Height	A/H	Conc.	Mark	ID#	Name	k'	Plate #	Plate Ht.	Tailing	Resolution	Sep.Factor	Area Ratio	Height Ratio	Conc. %	Norm Conc.
1	1.476	1.443	1.531	25156	12450	2.021	177.599	   	1	CO	0.000	9641	15.559	1.245	0.000	0.000	0	0	23.397	23.397
2	1.571	1.538	1.608	3567	1901	1.877	68.967	   	2	CH4	0.065	12348	12.147	1.066	1.634	0.000	0	0	9.086	9.086
3	2.000	1.949	2.330	2042076	982498	2.078	512.506	   	3	CO2	0.355	17562	8.541	1.179	7.339	5.500	0	0	67.517	67.517

[Peak Table(Ch2)]
# of Peaks	0

[Peak Table(Ch3)]
# of Peaks	5
Peak#	R.Time	I.Time	F.Time	Area	Height	A/H	Conc.	Mark	ID#	Name	k'	Plate #	Plate Ht.	Tailing	Resolution	Sep.Factor	Area Ratio	Height Ratio	Conc. %	Norm Conc.
1	2.462	2.220	2.510	2338	623	3.752	0.000	   			0.000	9666	15.518	0.000	0.000	0.000	0	0	0.000	0.000
2	2.528	2.510	2.583	1096	352	3.115	0.000	 V 			0.027	4872	30.786	0.000	0.539	0.000	0	0	0.000	0.000
3	2.601	2.583	2.686	600	163	3.687	0.000	 V 			0.057	1327	113.004	0.000	0.341	2.111	0	0	0.000	0.000
4	2.880	2.704	3.082	18506	4786	3.867	0.473	   	1	N2O	0.170	13144	11.412	1.513	1.444	3.000	0	0	100.000	100.000
5	3.390	3.225	3.995	17074	672	25.399	0.000	   	2	SF6	0.377	291	516.169	2.331	1.138	2.219	0	0	0.000	0.000

[Compound Results(Ch1)]
# of IDs	6
ID#	Name	R.Time	Area	Height	Conc.	Curve	3rd	2nd	1st	Constant	Area Ratio	Height Ratio	Conc. %	Norm Conc.
1	CO	1.476	25156	12450	177.599	Linear	0.000000e+00	0.000000e+00	1.416423e+002	0.000000e+00	0	0	23.397	23.397
2	CH4	1.571	3567	1901	68.967	Linear	0.000000e+00	0.000000e+00	5.171738e+001	0.000000e+00	0	0	9.086	9.086
3	CO2	2.000	2042076	982498	512.506	Linear	0.000000e+00	0.000000e+00	3.984494e+003	0.000000e+00	0	0	67.517	67.517
4	Ethylene	0.000	0	0	0.000	Linear	0.000000e+00	0.000000e+00	0.000000e+00	0.000000e+00	0	0	0.000	0.000
5	Acetylene	0.000	0	0	0.000	Linear	0.000000e+00	0.000000e+00	0.000000e+00	0.000000e+00	0	0	0.000	0.000
6	Ethane	0.000	0	0	0.000	Linear	0.000000e+00	0.000000e+00	0.000000e+00	0.000000e+00	0	0	0.000	0.000

[Compound Results(Ch2)]
# of IDs	5
ID#	Name	R.Time	Area	Height	Conc.	Curve	3rd	2nd	1st	Constant	Area Ratio	Height Ratio	Conc. %	Norm Conc.
1	Hydrogen	0.000	0	0	0.000	Linear	0.000000e+00	0.000000e+00	0.000000e+00	0.000000e+00	0	0	0.000	0.000
2	Oxygen	0.000	0	0	0.000	Linear	0.000000e+00	0.000000e+00	0.000000e+00	0.000000e+00	0	0	0.000	0.000
3	Nitrogen	0.000	0	0	0.000	Linear	0.000000e+00	0.000000e+00	0.000000e+00	0.000000e+00	0	0	0.000	0.000
4	Methane	0.000	0	0	0.000	Linear	0.000000e+00	0.000000e+00	0.000000e+00	0.000000e+00	0	0	0.000	0.000
5	Carbon Monoxide	0.000	0	0	0.000	Linear	0.000000e+00	0.000000e+00	0.000000e+00	0.000000e+00	0	0	0.000	0.000

[Compound Results(Ch3)]
# of IDs	2
ID#	Name	R.Time	Area	Height	Conc.	Curve	3rd	2nd	1st	Constant	Area Ratio	Height Ratio	Conc. %	Norm Conc.
1	N2O	2.880	18506	4786	0.473	Linear	0.000000e+00	0.000000e+00	3.915173e+004	0.000000e+00	0	0	100.000	100.000
2	SF6	3.390	17074	672	0.000	Linear	0.000000e+00	0.000000e+00	0.000000e+00	0.000000e+00	0	0	0.000	0.000

[Group Results(Ch1)]
# of Groups	0

[Group Results(Ch2)]
# of Groups	0

[Group Results(Ch3)]
# of Groups	0

[Chromatogram (Ch1)]
Interval(msec)	220
# of Points	1091
Start Time(min)	0.002
End Time(min)	3.998
R.Time (min)	Intensity
0.00167	-12
0.00533	-11
0.00900	-6
0.01267	-3
0.01633	-1
0.02000	-0
0.02367	-1
0.02733	-5
0.03100	-10
0.03467	-15
0.03833	-17
0.04200	-14
0.04567	-11
0.04933	-9
0.05300	-6
0.05667	1
0.06033	8
0.06400	11
0.06767	9
0.07133	7
0.07500	4
0.07867	-3
0.08233	-8
0.08600	-10
0.08967	-13
0.09333	-18
0.09700	-22
0.10067	-21
0.10433	-19
0.10800	-17
0.11167	-13
0.11533	-8
0.11900	-4
0.12267	3
0.12633	7
0.13000	7
0.13367	8
0.13733	12
0.14100	17
0.14467	20
0.14833	15
0.15200	3
0.15567	-9
0.15933	-16
0.16300	-16
0.16667	-12
0.17033	-6
0.17400	-3
0.17767	0
0.18133	4
0.18500	5
0.18867	4
0.19233	1
0.19600	-0
0.19967	1
0.20333	4
0.20700	9
0.21067	13
0.21433	14
0.21800	13
0.22167	13
0.22533	13
0.22900	10
0.23267	8
0.23633	9
0.24000	9
0.24367	7
0.24733	7
0.25100	8
0.25467	9
0.25833	11
0.26200	14
0.26567	15
0.26933	13
0.27300	9
0.27667	6
0.28033	9
0.28400	17
0.28767	27
0.29133	36
0.29500	39
0.29867	44
0.30233	48
0.30600	56
0.30967	61
0.31333	65
0.31700	65
0.32067	62
0.32433	57
0.32800	53
0.33167	53
0.33533	55
0.33900	54
0.34267	57
0.34633	66
0.35000	77
0.35367	83
0.35733	82
0.36100	77
0.36467	72
0.36833	69
0.37200	69
0.37567	71
0.37933	74
0.38300	75
0.38667	76
0.39033	80
0.39400	83
0.39767	82
0.40133	77
0.40500	73
0.40867	71
0.41233	71
0.41600	69
0.41967	66
0.42333	67
0.42700	74
0.43067	80
0.43433	78
0.43800	70
0.44167	56
0.44533	41
0.44900	34
0.45267	29
0.45633	21
0.46000	10
0.46367	6
0.46733	11
0.47100	19
0.47467	22
0.47833	18
0.48200	10
0.48567	7
0.48933	9
0.49300	12
0.49667	15
0.50033	15
0.50400	9
0.50767	4
0.51133	2
0.51500	5
0.51867	11
0.52233	12
0.52600	9
0.52967	5
0.53333	2
0.53700	4
0.54067	9
0.54433	11
0.54800	11
0.55167	7
0.55533	1
0.55900	-5
0.56267	-4
0.56633	3
0.57000	11
0.57367	14
0.57733	11
0.58100	6
0.58467	1
0.58833	1
0.59200	-1
0.59567	-9
0.59933	-13
0.60300	-7
0.60667	4
0.61033	10
0.61400	9
0.61767	4
0.62133	-1
0.62500	-2
0.62867	4
0.63233	22
0.63600	37
0.63967	40
0.64333	34
0.64700	25
0.65067	16
0.65433	10
0.65800	3
0.66167	-6
0.66533	-12
0.66900	-14
0.67267	-13
0.67633	-10
0.68000	-4
0.68367	5
0.68733	12
0.69100	13
0.69467	11
0.69833	5
0.70200	-4
0.70567	-14
0.70933	-20
0.71300	-21
0.71667	-15
0.72033	-8
0.72400	-1
0.72767	9
0.73133	21
0.73500	28
0.73867	23
0.74233	14
0.74600	12
0.74967	14
0.75333	13
0.75700	7
0.76067	-4
0.76433	-15
0.76800	-20
0.77167	-18
0.77533	-13
0.77900	-4
0.78267	4
0.78633	7
0.79000	2
0.79367	-3
0.79733	-5
0.80100	-3
0.80467	0
0.80833	1
0.81200	-1
0.81567	-5
0.81933	-8
0.82300	-13
0.82667	-16
0.83033	-13
0.83400	-6
0.83767	-0
0.84133	7
0.84500	9
0.84867	4
0.85233	-4
0.85600	-10
0.85967	-12
0.86333	-11
0.86700	-11
0.87067	-9
0.87433	-8
0.87800	-1
0.88167	8
0.88533	8
0.88900	5
0.89267	-1
0.89633	-11
0.90000	-21
0.90367	-31
0.90733	-41
0.91100	-48
0.91467	-47
0.91833	-41
0.92200	-34
0.92567	-28
0.92933	-23
0.93300	-17
0.93667	-11
0.94033	-4
0.94400	4
0.94767	9
0.95133	8
0.95500	9
0.95867	12
0.96233	10
0.96600	-1
0.96967	-14
0.97333	-25
0.97700	-31
0.98067	-30
0.98433	-25
0.98800	-19
0.99167	-18
0.99533	-24
0.99900	-35
1.00267	-44
1.00633	-48
1.01000	-46
1.01367	-39
1.01733	-31
1.02100	-19
1.02467	-5
1.02833	5
1.03200	9
1.03567	7
1.03933	1
1.04300	-10
1.04667	-20
1.05033	-23
1.05400	-23
1.05767	-25
1.06133	-26
1.06500	-21
1.06867	-15
1.07233	-8
1.07600	-8
1.07967	-14
1.08333	-17
1.08700	-15
1.09067	-16
1.09433	-22
1.09800	-29
1.10167	-35
1.10533	-36
1.10900	-31
1.11267	-25
1.11633	-20
1.12000	-16
1.12367	-15
1.12733	-17
1.13100	-15
1.13467	-10
1.13833	-8
1.14200	-7
1.14567	-8
1.14933	-10
1.15300	-12
1.15667	-12
1.16033	-14
1.16400	-22
1.16767	-33
1.17133	-42
1.17500	-44
1.17867	-39
1.18233	-30
1.18600	-26
1.18967	-25
1.19333	-24
1.19700	-22
1.20067	-17
1.20433	-15
1.20800	-15
1.21167	-19
1.21533	-26
1.21900	-33
1.22267	-39
1.22633	-43
1.23000	-44
1.23367	-41
1.23733	-34
1.24100	-26
1.24467	-25
1.24833	-25
1.25200	-24
1.25567	-24
1.25933	-26
1.26300	-31
1.26667	-37
1.27033	-41
1.27400	-41
1.27767	-40
1.28133	-38
1.28500	-37
1.28867	-35
1.29233	-33
1.29600	-31
1.29967	-29
1.30333	-24
1.30700	-20
1.31067	-14
1.31433	-10
1.31800	-9
1.32167	-9
1.32533	-10
1.32900	-14
1.33267	-23
1.33633	-30
1.34000	-34
1.34367	-34
1.34733	-35
1.35100	-38
1.35467	-40
1.35833	-37
1.36200	-32
1.36567	-29
1.36933	-26
1.37300	-25
1.37667	-31
1.38033	-39
1.38400	-49
1.38767	-59
1.39133	-61
1.39500	-58
1.39867	-51
1.40233	-45
1.40600	-37
1.40967	-29
1.41333	-22
1.41700	-21
1.42067	-26
1.42433	-32
1.42800	-41
1.43167	-50
1.43533	-55
1.43900	-48
1.44267	-7
1.44633	156
1.45000	626
1.45367	1712
1.45733	3613
1.46100	6025
1.46467	8399
1.46833	10354
1.47200	11725
1.47567	12405
1.47933	12279
1.48300	11312
1.48667	9682
1.49033	7734
1.49400	5808
1.49767	4144
1.50133	2834
1.50500	1867
1.50867	1175
1.51233	694
1.51600	370
1.51967	159
1.52333	28
1.52700	-53
1.53067	-105
1.53433	-135
1.53800	-143
1.54167	-112
1.54533	8
1.54900	260
1.55267	622
1.55633	1016
1.56000	1368
1.56367	1631
1.56733	1783
1.57100	1804
1.57467	1678
1.57833	1429
1.58200	1117
1.58567	807
1.58933	538
1.59300	328
1.59667	177
1.60033	70
1.60400	-3
1.60767	-44
1.61133	-65
1.61500	-77
1.61867	-88
1.62233	-94
1.62600	-95
1.62967	-96
1.63333	-100
1.63700	-107
1.64067	-113
1.64433	-113
1.64800	-108
1.65167	-101
1.65533	-97
1.65900	-100
1.66267	-100
1.66633	-99
1.67000	-93
1.67367	-84
1.67733	-79
1.68100	-78
1.68467	-79
1.68833	-79
1.69200	-73
1.69567	-66
1.69933	-56
1.70300	-49
1.70667	-49
1.71033	-56
1.71400	-67
1.71767	-80
1.72133	-90
1.72500	-95
1.72867	-92
1.73233	-80
1.73600	-64
1.73967	-55
1.74333	-53
1.74700	-51
1.75067	-50
1.75433	-54
1.75800	-61
1.76167	-66
1.76533	-72
1.76900	-77
1.77267	-78
1.77633	-78
1.78000	-78
1.78367	-77
1.78733	-81
1.79100	-88
1.79467	-92
1.79833	-91
1.80200	-85
1.80567	-79
1.80933	-73
1.81300	-67
1.81667	-62
1.82033	-60
1.82400	-57
1.82767	-53
1.83133	-49
1.83500	-45
1.83867	-42
1.84233	-38
1.84600	-41
1.84967	-46
1.85333	-49
1.85700	-46
1.86067	-39
1.86433	-35
1.86800	-32
1.87167	-26
1.87533	-19
1.87900	-15
1.88267	-15
1.88633	-18
1.89000	-26
1.89367	-36
1.89733	-43
1.90100	-41
1.90467	-34
1.90833	-30
1.91200	-27
1.91567	-23
1.91933	-21
1.92300	-27
1.92667	-40
1.93033	-53
1.93400	-58
1.93767	-58
1.94133	-61
1.94500	-59
1.94867	-51
1.95233	-34
1.95600	54
1.95967	594
1.96333	3288
1.96700	13589
1.97067	43722
1.97433	111685
1.97800	231091
1.98167	397475
1.98533	585971
1.98900	763368
1.99267	900186
1.99633	976339
2.00000	982490
2.00367	921251
2.00733	807694
2.01100	665380
2.01467	518804
2.01833	386527
2.02200	278110
2.02567	195289
2.02933	135134
2.03300	92942
2.03667	64025
2.04033	44478
2.04400	31344
2.04767	22525
2.05133	16573
2.05500	12508
2.05867	9693
2.06233	7706
2.06600	6275
2.06967	5221
2.07333	4427
2.07700	3813
2.08067	3330
2.08433	2946
2.08800	2634
2.09167	2376
2.09533	2153
2.09900	1960
2.10267	1793
2.10633	1650
2.11000	1532
2.11367	1436
2.11733	1349
2.12100	1266
2.12467	1184
2.12833	1117
2.13200	1064
2.13567	1017
2.13933	976
2.14300	935
2.14667	891
2.15033	846
2.15400	801
2.15767	760
2.16133	725
2.16500	695
2.16867	672
2.17233	652
2.17600	633
2.17967	616
2.18333	600
2.18700	577
2.19067	549
2.19433	527
2.19800	511
2.20167	500
2.20533	490
2.20900	479
2.21267	466
2.21633	452
2.22000	442
2.22367	440
2.22733	439
2.23100	434
2.23467	425
2.23833	414
2.24200	403
2.24567	394
2.24933	389
2.25300	385
2.25667	383
2.26033	377
2.26400	367
2.26767	356
2.27133	342
2.27500	333
2.27867	326
2.28233	321
2.28600	314
2.28967	306
2.29333	301
2.29700	298
2.30067	295
2.30433	290
2.30800	279
2.31167	270
2.31533	263
2.31900	261
2.32267	259
2.32633	260
2.33000	263
2.33367	263
2.33733	261
2.34100	259
2.34467	260
2.34833	259
2.35200	258
2.35567	256
2.35933	254
2.36300	258
2.36667	262
2.37033	263
2.37400	259
2.37767	254
2.38133	250
2.38500	249
2.38867	248
2.39233	242
2.39600	237
2.39967	240
2.40333	246
2.40700	251
2.41067	252
2.41433	249
2.41800	245
2.42167	242
2.42533	240
2.42900	238
2.43267	240
2.43633	242
2.44000	241
2.44367	234
2.44733	227
2.45100	221
2.45467	217
2.45833	215
2.46200	216
2.46567	217
2.46933	216
2.47300	216
2.47667	214
2.48033	212
2.48400	207
2.48767	202
2.49133	204
2.49500	210
2.49867	217
2.50233	226
2.50600	234
2.50967	237
2.51333	233
2.51700	228
2.52067	224
2.52433	218
2.52800	215
2.53167	216
2.53533	221
2.53900	226
2.54267	230
2.54633	227
2.55000	221
2.55367	213
2.55733	207
2.56100	204
2.56467	201
2.56833	199
2.57200	203
2.57567	208
2.57933	208
2.58300	207
2.58667	206
2.59033	206
2.59400	206
2.59767	203
2.60133	198
2.60500	192
2.60867	188
2.61233	188
2.61600	192
2.61967	197
2.62333	196
2.62700	197
2.63067	203
2.63433	211
2.63800	217
2.64167	219
2.64533	216
2.64900	214
2.65267	215
2.65633	217
2.66000	219
2.66367	222
2.66733	221
2.67100	219
2.67467	219
2.67833	215
2.68200	209
2.68567	203
2.68933	203
2.69300	206
2.69667	210
2.70033	217
2.70400	229
2.70767	239
2.71133	243
2.71500	241
2.71867	235
2.72233	229
2.72600	224
2.72967	222
2.73333	219
2.73700	215
2.74067	214
2.74433	214
2.74800	219
2.75167	224
2.75533	221
2.75900	215
2.76267	213
2.76633	210
2.77000	210
2.77367	215
2.77733	222
2.78100	227
2.78467	227
2.78833	226
2.79200	224
2.79567	222
2.79933	220
2.80300	219
2.80667	220
2.81033	223
2.81400	222
2.81767	220
2.82133	219
2.82500	219
2.82867	221
2.83233	226
2.83600	237
2.83967	245
2.84333	249
2.84700	250
2.85067	251
2.85433	251
2.85800	247
2.86167	244
2.86533	242
2.86900	241
2.87267	241
2.87633	243
2.88000	244
2.88367	243
2.88733	240
2.89100	237
2.89467	236
2.89833	239
2.90200	242
2.90567	246
2.90933	250
2.91300	248
2.91667	242
2.92033	237
2.92400	239
2.92767	241
2.93133	242
2.93500	242
2.93867	244
2.94233	249
2.94600	256
2.94967	262
2.95333	264
2.95700	263
2.96067	259
2.96433	250
2.96800	242
2.97167	238
2.97533	237
2.97900	233
2.98267	229
2.98633	231
2.99000	234
2.99367	233
2.99733	233
3.00100	241
3.00467	251
3.00833	257
3.01200	261
3.01567	263
3.01933	264
3.02300	260
3.02667	258
3.03033	261
3.03400	262
3.03767	256
3.04133	248
3.04500	241
3.04867	235
3.05233	237
3.05600	242
3.05967	247
3.06333	255
3.06700	259
3.07067	259
3.07433	254
3.07800	249
3.08167	248
3.08533	253
3.08900	257
3.09267	258
3.09633	259
3.10000	259
3.10367	258
3.10733	259
3.11100	257
3.11467	252
3.11833	248
3.12200	242
3.12567	234
3.12933	229
3.13300	230
3.13667	230
3.14033	229
3.14400	228
3.14767	227
3.15133	227
3.15500	229
3.15867	229
3.16233	229
3.16600	227
3.16967	225
3.17333	224
3.17700	222
3.18067	220
3.18433	220
3.18800	223
3.19167	226
3.19533	230
3.19900	230
3.20267	233
3.20633	237
3.21000	238
3.21367	237
3.21733	233
3.22100	228
3.22467	222
3.22833	218
3.23200	223
3.23567	228
3.23933	230
3.24300	226
3.24667	222
3.25033	223
3.25400	226
3.25767	227
3.26133	224
3.26500	218
3.26867	210
3.27233	206
3.27600	205
3.27967	203
3.28333	203
3.28700	205
3.29067	212
3.29433	221
3.29800	230
3.30167	232
3.30533	233
3.30900	234
3.31267	228
3.31633	216
3.32000	207
3.32367	200
3.32733	194
3.33100	198
3.33467	206
3.33833	211
3.34200	214
3.34567	214
3.34933	214
3.35300	217
3.35667	218
3.36033	214
3.36400	213
3.36767	212
3.37133	208
3.37500	203
3.37867	199
3.38233	194
3.38600	191
3.38967	189
3.39333	188
3.39700	191
3.40067	197
3.40433	200
3.40800	198
3.41167	192
3.41533	190
3.41900	192
3.42267	191
3.42633	188
3.43000	182
3.43367	182
3.43733	187
3.44100	191
3.44467	196
3.44833	200
3.45200	204
3.45567	205
3.45933	203
3.46300	202
3.46667	200
3.47033	201
3.47400	202
3.47767	199
3.48133	196
3.48500	199
3.48867	204
3.49233	201
3.49600	196
3.49967	193
3.50333	190
3.50700	186
3.51067	185
3.51433	185
3.51800	186
3.52167	189
3.52533	190
3.52900	186
3.53267	181
3.53633	185
3.54000	191
3.54367	196
3.54733	197
3.55100	192
3.55467	185
3.55833	183
3.56200	180
3.56567	173
3.56933	167
3.57300	164
3.57667	162
3.58033	162
3.58400	165
3.58767	174
3.59133	182
3.59500	184
3.59867	178
3.60233	172
3.60600	169
3.60967	170
3.61333	176
3.61700	181
3.62067	179
3.62433	177
3.62800	172
3.63167	170
3.63533	167
3.63900	161
3.64267	160
3.64633	161
3.65000	163
3.65367	168
3.65733	174
3.66100	178
3.66467	181
3.66833	181
3.67200	180
3.67567	176
3.67933	171
3.68300	169
3.68667	170
3.69033	170
3.69400	169
3.69767	168
3.70133	170
3.70500	170
3.70867	161
3.71233	153
3.71600	148
3.71967	146
3.72333	152
3.72700	159
3.73067	163
3.73433	161
3.73800	157
3.74167	150
3.74533	149
3.74900	154
3.75267	156
3.75633	158
3.76000	156
3.76367	147
3.76733	139
3.77100	137
3.77467	136
3.77833	130
3.78200	123
3.78567	121
3.78933	127
3.79300	133
3.79667	132
3.80033	132
3.80400	134
3.80767	137
3.81133	141
3.81500	145
3.81867	146
3.82233	148
3.82600	151
3.82967	156
3.83333	157
3.83700	156
3.84067	153
3.84433	151
3.84800	151
3.85167	148
3.85533	142
3.85900	136
3.86267	130
3.86633	129
3.87000	130
3.87367	132
3.87733	136
3.88100	140
3.88467	141
3.88833	143
3.89200	143
3.89567	138
3.89933	132
3.90300	130
3.90667	128
3.91033	128
3.91400	133
3.91767	141
3.92133	144
3.92500	146
3.92867	142
3.93233	132
3.93600	122
3.93967	114
3.94333	111
3.94700	113
3.95067	114
3.95433	112
3.95800	109
3.96167	106
3.96533	103
3.96900	106
3.97267	115
3.97633	123
3.98000	129
3.98367	134
3.98733	137
3.99100	136
3.99467	127
3.99833	114

[Chromatogram (Ch2)]
Interval(msec)	220
# of Points	1091
Start Time(min)	0.002
End Time(min)	3.998
R.Time (min)	Intensity
0.00167	-0
0.00533	-0
0.00900	-0
0.01267	-0
0.01633	-0
0.02000	-0
0.02367	-0
0.02733	-0
0.03100	-0
0.03467	-0
0.03833	0
0.04200	0
0.04567	0
0.04933	0
0.05300	0
0.05667	0
0.06033	0
0.06400	0
0.06767	0
0.07133	0
0.07500	0
0.07867	0
0.08233	0
0.08600	1
0.08967	1
0.09333	1
0.09700	2
0.10067	2
0.10433	2
0.10800	3
0.11167	3
0.11533	3
0.11900	3
0.12267	3
0.12633	3
0.13000	3
0.13367	3
0.13733	3
0.14100	3
0.14467	3
0.14833	2
0.15200	2
0.15567	2
0.15933	2
0.16300	1
0.16667	1
0.17033	1
0.17400	1
0.17767	1
0.18133	1
0.18500	1
0.18867	1
0.19233	1
0.19600	1
0.19967	0
0.20333	0
0.20700	0
0.21067	0
0.21433	0
0.21800	0
0.22167	0
0.22533	0
0.22900	0
0.23267	1
0.23633	1
0.24000	1
0.24367	1
0.24733	1
0.25100	1
0.25467	2
0.25833	2
0.26200	2
0.26567	2
0.26933	3
0.27300	3
0.27667	3
0.28033	3
0.28400	3
0.28767	3
0.29133	2
0.29500	2
0.29867	1
0.30233	1
0.30600	0
0.30967	-0
0.31333	-1
0.31700	-1
0.32067	-2
0.32433	-2
0.32800	-2
0.33167	-2
0.33533	-2
0.33900	-2
0.34267	-3
0.34633	-3
0.35000	-3
0.35367	-4
0.35733	-4
0.36100	-4
0.36467	-4
0.36833	-3
0.37200	-3
0.37567	-2
0.37933	-2
0.38300	-2
0.38667	-1
0.39033	-1
0.39400	-1
0.39767	-1
0.40133	-1
0.40500	-1
0.40867	-0
0.41233	0
0.41600	1
0.41967	1
0.42333	1
0.42700	1
0.43067	1
0.43433	1
0.43800	2
0.44167	2
0.44533	2
0.44900	2
0.45267	2
0.45633	2
0.46000	2
0.46367	2
0.46733	2
0.47100	2
0.47467	1
0.47833	1
0.48200	1
0.48567	1
0.48933	1
0.49300	1
0.49667	1
0.50033	1
0.50400	1
0.50767	1
0.51133	1
0.51500	0
0.51867	0
0.52233	0
0.52600	-0
0.52967	-0
0.53333	-0
0.53700	-0
0.54067	0
0.54433	0
0.54800	0
0.55167	0
0.55533	0
0.55900	0
0.56267	0
0.56633	-0
0.57000	-0
0.57367	-0
0.57733	-0
0.58100	-0
0.58467	-1
0.58833	-1
0.59200	-1
0.59567	-1
0.59933	-0
0.60300	-0
0.60667	0
0.61033	0
0.61400	0
0.61767	0
0.62133	-0
0.62500	-1
0.62867	-1
0.63233	-1
0.63600	-2
0.63967	-1
0.64333	-1
0.64700	-1
0.65067	-0
0.65433	0
0.65800	0
0.66167	1
0.66533	1
0.66900	1
0.67267	1
0.67633	1
0.68000	1
0.68367	1
0.68733	1
0.69100	1
0.69467	1
0.69833	1
0.70200	0
0.70567	0
0.70933	0
0.71300	0
0.71667	0
0.72033	0
0.72400	-0
0.72767	-0
0.73133	-0
0.73500	-0
0.73867	-0
0.74233	-1
0.74600	-1
0.74967	-1
0.75333	-1
0.75700	-1
0.76067	-0
0.76433	-0
0.76800	-0
0.77167	-0
0.77533	-0
0.77900	-0
0.78267	-0
0.78633	-0
0.79000	0
0.79367	0
0.79733	1
0.80100	1
0.80467	1
0.80833	1
0.81200	0
0.81567	0
0.81933	0
0.82300	0
0.82667	0
0.83033	0
0.83400	-0
0.83767	-0
0.84133	-0
0.84500	-0
0.84867	-0
0.85233	0
0.85600	0
0.85967	1
0.86333	1
0.86700	1
0.87067	1
0.87433	2
0.87800	2
0.88167	2
0.88533	2
0.88900	3
0.89267	3
0.89633	3
0.90000	3
0.90367	3
0.90733	3
0.91100	4
0.91467	4
0.91833	4
0.92200	4
0.92567	3
0.92933	3
0.93300	3
0.93667	3
0.94033	2
0.94400	2
0.94767	1
0.95133	1
0.95500	1
0.95867	0
0.96233	0
0.96600	-0
0.96967	-0
0.97333	-0
0.97700	-0
0.98067	-0
0.98433	-0
0.98800	-0
0.99167	-1
0.99533	-1
0.99900	-1
1.00267	-1
1.00633	-2
1.01000	-2
1.01367	-2
1.01733	-2
1.02100	-2
1.02467	-2
1.02833	-2
1.03200	-2
1.03567	-2
1.03933	-1
1.04300	-1
1.04667	-2
1.05033	-2
1.05400	-2
1.05767	-3
1.06133	-3
1.06500	-2
1.06867	-2
1.07233	-2
1.07600	-2
1.07967	-3
1.08333	-3
1.08700	-3
1.09067	-2
1.09433	-2
1.09800	-2
1.10167	-1
1.10533	-1
1.10900	-1
1.11267	-1
1.11633	-0
1.12000	-0
1.12367	-0
1.12733	-0
1.13100	-0
1.13467	0
1.13833	0
1.14200	1
1.14567	1
1.14933	1
1.15300	1
1.15667	1
1.16033	1
1.16400	1
1.16767	1
1.17133	1
1.17500	2
1.17867	2
1.18233	2
1.18600	2
1.18967	2
1.19333	2
1.19700	3
1.20067	3
1.20433	3
1.20800	3
1.21167	3
1.21533	3
1.21900	3
1.22267	3
1.22633	3
1.23000	3
1.23367	2
1.23733	2
1.24100	2
1.24467	1
1.24833	1
1.25200	0
1.25567	-0
1.25933	-0
1.26300	-1
1.26667	-1
1.27033	-1
1.27400	-2
1.27767	-2
1.28133	-3
1.28500	-3
1.28867	-3
1.29233	-4
1.29600	-4
1.29967	-4
1.30333	-4
1.30700	-4
1.31067	-4
1.31433	-3
1.31800	-3
1.32167	-3
1.32533	-2
1.32900	-1
1.33267	-1
1.33633	-0
1.34000	0
1.34367	1
1.34733	1
1.35100	1
1.35467	2
1.35833	2
1.36200	2
1.36567	2
1.36933	2
1.37300	2
1.37667	2
1.38033	2
1.38400	2
1.38767	1
1.39133	1
1.39500	1
1.39867	1
1.40233	0
1.40600	0
1.40967	-0
1.41333	-0
1.41700	-1
1.42067	-1
1.42433	-2
1.42800	-2
1.43167	-3
1.43533	-3
1.43900	-4
1.44267	-4
1.44633	-4
1.45000	-4
1.45367	-4
1.45733	-4
1.46100	-4
1.46467	-3
1.46833	-3
1.47200	-3
1.47567	-2
1.47933	-2
1.48300	-2
1.48667	-2
1.49033	-2
1.49400	-2
1.49767	-2
1.50133	-2
1.50500	-1
1.50867	-1
1.51233	-1
1.51600	-1
1.51967	-0
1.52333	-0
1.52700	0
1.53067	1
1.53433	1
1.53800	1
1.54167	1
1.54533	1
1.54900	2
1.55267	2
1.55633	2
1.56000	2
1.56367	2
1.56733	2
1.57100	2
1.57467	2
1.57833	2
1.58200	2
1.58567	1
1.58933	0
1.59300	-0
1.59667	-1
1.60033	-2
1.60400	-3
1.60767	-5
1.61133	-7
1.61500	-9
1.61867	-12
1.62233	-15
1.62600	-18
1.62967	-21
1.63333	-24
1.63700	-28
1.64067	-32
1.64433	-36
1.64800	-40
1.65167	-44
1.65533	-48
1.65900	-51
1.66267	-55
1.66633	-58
1.67000	-62
1.67367	-66
1.67733	-70
1.68100	-75
1.68467	-80
1.68833	-84
1.69200	-89
1.69567	-92
1.69933	-95
1.70300	-98
1.70667	-100
1.71033	-101
1.71400	-103
1.71767	-103
1.72133	-104
1.72500	-105
1.72867	-105
1.73233	-105
1.73600	-105
1.73967	-105
1.74333	-105
1.74700	-104
1.75067	-104
1.75433	-105
1.75800	-105
1.76167	-106
1.76533	-107
1.76900	-108
1.77267	-109
1.77633	-110
1.78000	-111
1.78367	-112
1.78733	-112
1.79100	-113
1.79467	-112
1.79833	-112
1.80200	-112
1.80567	-112
1.80933	-112
1.81300	-112
1.81667	-112
1.82033	-113
1.82400	-113
1.82767	-113
1.83133	-113
1.83500	-113
1.83867	-113
1.84233	-113
1.84600	-113
1.84967	-113
1.85333	-113
1.85700	-113
1.86067	-113
1.86433	-113
1.86800	-114
1.87167	-114
1.87533	-114
1.87900	-115
1.88267	-115
1.88633	-115
1.89000	-115
1.89367	-114
1.89733	-114
1.90100	-114
1.90467	-113
1.90833	-112
1.91200	-111
1.91567	-110
1.91933	-110
1.92300	-109
1.92667	-109
1.93033	-109
1.93400	-109
1.93767	-109
1.94133	-109
1.94500	-108
1.94867	-107
1.95233	-107
1.95600	-107
1.95967	-106
1.96333	-106
1.96700	-106
1.97067	-106
1.97433	-107
1.97800	-107
1.98167	-108
1.98533	-108
1.98900	-108
1.99267	-108
1.99633	-108
2.00000	-107
2.00367	-107
2.00733	-106
2.01100	-106
2.01467	-106
2.01833	-106
2.02200	-106
2.02567	-105
2.02933	-105
2.03300	-104
2.03667	-103
2.04033	-102
2.04400	-102
2.04767	-101
2.05133	-101
2.05500	-100
2.05867	-100
2.06233	-100
2.06600	-99
2.06967	-100
2.07333	-100
2.07700	-100
2.08067	-101
2.08433	-101
2.08800	-101
2.09167	-101
2.09533	-100
2.09900	-100
2.10267	-99
2.10633	-98
2.11000	-98
2.11367	-98
2.11733	-97
2.12100	-97
2.12467	-97
2.12833	-97
2.13200	-97
2.13567	-97
2.13933	-97
2.14300	-97
2.14667	-96
2.15033	-96
2.15400	-95
2.15767	-94
2.16133	-93
2.16500	-92
2.16867	-92
2.17233	-92
2.17600	-92
2.17967	-91
2.18333	-91
2.18700	-91
2.19067	-91
2.19433	-91
2.19800	-92
2.20167	-92
2.20533	-91
2.20900	-91
2.21267	-90
2.21633	-90
2.22000	-89
2.22367	-89
2.22733	-89
2.23100	-89
2.23467	-88
2.23833	-87
2.24200	-86
2.24567	-85
2.24933	-85
2.25300	-85
2.25667	-84
2.26033	-84
2.26400	-84
2.26767	-84
2.27133	-83
2.27500	-83
2.27867	-82
2.28233	-82
2.28600	-82
2.28967	-81
2.29333	-81
2.29700	-81
2.30067	-81
2.30433	-81
2.30800	-81
2.31167	-81
2.31533	-81
2.31900	-80
2.32267	-79
2.32633	-79
2.33000	-78
2.33367	-78
2.33733	-77
2.34100	-77
2.34467	-76
2.34833	-76
2.35200	-75
2.35567	-74
2.35933	-73
2.36300	-72
2.36667	-71
2.37033	-69
2.37400	-67
2.37767	-65
2.38133	-62
2.38500	-58
2.38867	-54
2.39233	-50
2.39600	-46
2.39967	-41
2.40333	-36
2.40700	-31
2.41067	-27
2.41433	-22
2.41800	-19
2.42167	-16
2.42533	-13
2.42900	-12
2.43267	-10
2.43633	-9
2.44000	-8
2.44367	-7
2.44733	-6
2.45100	-5
2.45467	-4
2.45833	-4
2.46200	-4
2.46567	-3
2.46933	-2
2.47300	-1
2.47667	1
2.48033	2
2.48400	3
2.48767	4
2.49133	5
2.49500	6
2.49867	7
2.50233	7
2.50600	8
2.50967	9
2.51333	10
2.51700	11
2.52067	11
2.52433	12
2.52800	12
2.53167	12
2.53533	12
2.53900	12
2.54267	13
2.54633	13
2.55000	13
2.55367	14
2.55733	14
2.56100	14
2.56467	14
2.56833	14
2.57200	14
2.57567	15
2.57933	15
2.58300	15
2.58667	15
2.59033	14
2.59400	14
2.59767	14
2.60133	14
2.60500	14
2.60867	15
2.61233	15
2.61600	16
2.61967	16
2.62333	17
2.62700	17
2.63067	17
2.63433	17
2.63800	17
2.64167	18
2.64533	18
2.64900	19
2.65267	19
2.65633	20
2.66000	20
2.66367	21
2.66733	22
2.67100	22
2.67467	23
2.67833	24
2.68200	24
2.68567	24
2.68933	25
2.69300	25
2.69667	25
2.70033	25
2.70400	24
2.70767	24
2.71133	24
2.71500	24
2.71867	24
2.72233	24
2.72600	24
2.72967	24
2.73333	25
2.73700	25
2.74067	26
2.74433	26
2.74800	27
2.75167	27
2.75533	27
2.75900	27
2.76267	27
2.76633	27
2.77000	26
2.77367	26
2.77733	26
2.78100	25
2.78467	25
2.78833	25
2.79200	25
2.79567	25
2.79933	24
2.80300	24
2.80667	24
2.81033	24
2.81400	24
2.81767	24
2.82133	25
2.82500	25
2.82867	25
2.83233	25
2.83600	25
2.83967	25
2.84333	24
2.84700	22
2.85067	18
2.85433	12
2.85800	3
2.86167	-10
2.86533	-27
2.86900	-48
2.87267	-73
2.87633	-103
2.88000	-138
2.88367	-176
2.88733	-218
2.89100	-264
2.89467	-313
2.89833	-363
2.90200	-416
2.90567	-470
2.90933	-526
2.91300	-581
2.91667	-636
2.92033	-692
2.92400	-745
2.92767	-798
2.93133	-849
2.93500	-901
2.93867	-958
2.94233	-1016
2.94600	-1065
2.94967	-1095
2.95333	-1100
2.95700	-1079
2.96067	-1036
2.96433	-975
2.96800	-903
2.97167	-824
2.97533	-743
2.97900	-663
2.98267	-587
2.98633	-516
2.99000	-450
2.99367	-391
2.99733	-338
3.00100	-291
3.00467	-249
3.00833	-213
3.01200	-181
3.01567	-153
3.01933	-129
3.02300	-109
3.02667	-91
3.03033	-76
3.03400	-62
3.03767	-51
3.04133	-41
3.04500	-33
3.04867	-26
3.05233	-20
3.05600	-15
3.05967	-11
3.06333	-7
3.06700	-4
3.07067	-1
3.07433	1
3.07800	3
3.08167	5
3.08533	6
3.08900	8
3.09267	9
3.09633	10
3.10000	11
3.10367	12
3.10733	12
3.11100	13
3.11467	14
3.11833	15
3.12200	15
3.12567	15
3.12933	15
3.13300	15
3.13667	15
3.14033	16
3.14400	16
3.14767	16
3.15133	17
3.15500	17
3.15867	18
3.16233	18
3.16600	18
3.16967	19
3.17333	19
3.17700	19
3.18067	20
3.18433	20
3.18800	21
3.19167	21
3.19533	21
3.19900	21
3.20267	22
3.20633	22
3.21000	22
3.21367	22
3.21733	22
3.22100	22
3.22467	22
3.22833	23
3.23200	23
3.23567	23
3.23933	23
3.24300	23
3.24667	23
3.25033	23
3.25400	23
3.25767	23
3.26133	23
3.26500	23
3.26867	23
3.27233	23
3.27600	23
3.27967	24
3.28333	24
3.28700	24
3.29067	24
3.29433	24
3.29800	24
3.30167	25
3.30533	25
3.30900	25
3.31267	25
3.31633	26
3.32000	25
3.32367	25
3.32733	25
3.33100	25
3.33467	25
3.33833	25
3.34200	25
3.34567	26
3.34933	26
3.35300	25
3.35667	25
3.36033	26
3.36400	26
3.36767	26
3.37133	25
3.37500	25
3.37867	25
3.38233	25
3.38600	25
3.38967	25
3.39333	25
3.39700	25
3.40067	25
3.40433	26
3.40800	26
3.41167	26
3.41533	26
3.41900	26
3.42267	26
3.42633	27
3.43000	27
3.43367	27
3.43733	27
3.44100	28
3.44467	28
3.44833	29
3.45200	29
3.45567	29
3.45933	29
3.46300	29
3.46667	30
3.47033	30
3.47400	30
3.47767	30
3.48133	30
3.48500	30
3.48867	31
3.49233	31
3.49600	31
3.49967	31
3.50333	32
3.50700	32
3.51067	32
3.51433	31
3.51800	31
3.52167	31
3.52533	31
3.52900	31
3.53267	30
3.53633	30
3.54000	30
3.54367	30
3.54733	30
3.55100	30
3.55467	30
3.55833	30
3.56200	30
3.56567	29
3.56933	29
3.57300	29
3.57667	29
3.58033	29
3.58400	29
3.58767	29
3.59133	29
3.59500	29
3.59867	30
3.60233	30
3.60600	29
3.60967	29
3.61333	29
3.61700	29
3.62067	30
3.62433	30
3.62800	30
3.63167	30
3.63533	30
3.63900	30
3.64267	30
3.64633	30
3.65000	30
3.65367	29
3.65733	29
3.66100	29
3.66467	29
3.66833	29
3.67200	28
3.67567	28
3.67933	28
3.68300	27
3.68667	27
3.69033	27
3.69400	27
3.69767	27
3.70133	26
3.70500	26
3.70867	26
3.71233	26
3.71600	26
3.71967	26
3.72333	26
3.72700	26
3.73067	26
3.73433	26
3.73800	25
3.74167	25
3.74533	25
3.74900	25
3.75267	25
3.75633	25
3.76000	25
3.76367	25
3.76733	25
3.77100	26
3.77467	26
3.77833	26
3.78200	26
3.78567	26
3.78933	26
3.79300	27
3.79667	27
3.80033	27
3.80400	27
3.80767	27
3.81133	27
3.81500	27
3.81867	27
3.82233	27
3.82600	27
3.82967	27
3.83333	27
3.83700	27
3.84067	27
3.84433	27
3.84800	27
3.85167	27
3.85533	27
3.85900	27
3.86267	27
3.86633	27
3.87000	27
3.87367	27
3.87733	27
3.88100	27
3.88467	27
3.88833	28
3.89200	28
3.89567	28
3.89933	28
3.90300	28
3.90667	28
3.91033	28
3.91400	28
3.91767	28
3.92133	28
3.92500	28
3.92867	28
3.93233	28
3.93600	28
3.93967	28
3.94333	28
3.94700	28
3.95067	28
3.95433	28
3.95800	27
3.96167	27
3.96533	27
3.96900	26
3.97267	26
3.97633	26
3.98000	26
3.98367	26
3.98733	26
3.99100	26
3.99467	26
3.99833	26

[Chromatogram (Ch3)]
Interval(msec)	220
# of Points	1091
Start Time(min)	0.002
End Time(min)	3.998
R.Time (min)	Intensity
0.00167	0
0.00533	-0
0.00900	-1
0.01267	-2
0.01633	-1
0.02000	-0
0.02367	-1
0.02733	0
0.03100	1
0.03467	1
0.03833	2
0.04200	1
0.04567	-0
0.04933	0
0.05300	-0
0.05667	-0
0.06033	2
0.06400	2
0.06767	2
0.07133	2
0.07500	2
0.07867	2
0.08233	1
0.08600	-0
0.08967	-2
0.09333	-3
0.09700	-2
0.10067	-1
0.10433	-2
0.10800	-2
0.11167	-2
0.11533	0
0.11900	2
0.12267	5
0.12633	7
0.13000	7
0.13367	4
0.13733	1
0.14100	1
0.14467	2
0.14833	4
0.15200	4
0.15567	4
0.15933	3
0.16300	3
0.16667	3
0.17033	3
0.17400	1
0.17767	0
0.18133	-3
0.18500	-6
0.18867	-5
0.19233	-4
0.19600	-2
0.19967	-2
0.20333	-2
0.20700	-1
0.21067	1
0.21433	1
0.21800	2
0.22167	3
0.22533	3
0.22900	5
0.23267	7
0.23633	8
0.24000	8
0.24367	9
0.24733	8
0.25100	6
0.25467	4
0.25833	6
0.26200	5
0.26567	4
0.26933	3
0.27300	3
0.27667	3
0.28033	3
0.28400	0
0.28767	-2
0.29133	-3
0.29500	-2
0.29867	-1
0.30233	-0
0.30600	-0
0.30967	-0
0.31333	1
0.31700	1
0.32067	0
0.32433	1
0.32800	3
0.33167	2
0.33533	1
0.33900	2
0.34267	4
0.34633	4
0.35000	4
0.35367	4
0.35733	2
0.36100	1
0.36467	1
0.36833	2
0.37200	3
0.37567	3
0.37933	3
0.38300	2
0.38667	4
0.39033	3
0.39400	3
0.39767	3
0.40133	4
0.40500	5
0.40867	3
0.41233	1
0.41600	1
0.41967	-0
0.42333	-0
0.42700	0
0.43067	-0
0.43433	-2
0.43800	-2
0.44167	-1
0.44533	1
0.44900	3
0.45267	4
0.45633	2
0.46000	0
0.46367	-0
0.46733	-1
0.47100	-0
0.47467	2
0.47833	2
0.48200	3
0.48567	2
0.48933	1
0.49300	2
0.49667	3
0.50033	4
0.50400	3
0.50767	1
0.51133	0
0.51500	1
0.51867	1
0.52233	-0
0.52600	-1
0.52967	-3
0.53333	-4
0.53700	-1
0.54067	0
0.54433	2
0.54800	4
0.55167	5
0.55533	7
0.55900	5
0.56267	3
0.56633	3
0.57000	3
0.57367	3
0.57733	4
0.58100	5
0.58467	5
0.58833	4
0.59200	2
0.59567	1
0.59933	3
0.60300	4
0.60667	6
0.61033	7
0.61400	8
0.61767	9
0.62133	11
0.62500	13
0.62867	13
0.63233	11
0.63600	10
0.63967	8
0.64333	7
0.64700	9
0.65067	8
0.65433	6
0.65800	4
0.66167	7
0.66533	8
0.66900	8
0.67267	8
0.67633	8
0.68000	7
0.68367	7
0.68733	7
0.69100	7
0.69467	6
0.69833	7
0.70200	9
0.70567	11
0.70933	11
0.71300	10
0.71667	11
0.72033	11
0.72400	12
0.72767	13
0.73133	14
0.73500	14
0.73867	12
0.74233	10
0.74600	11
0.74967	10
0.75333	8
0.75700	8
0.76067	8
0.76433	10
0.76800	12
0.77167	11
0.77533	9
0.77900	8
0.78267	9
0.78633	11
0.79000	11
0.79367	10
0.79733	10
0.80100	10
0.80467	9
0.80833	9
0.81200	11
0.81567	11
0.81933	11
0.82300	12
0.82667	12
0.83033	11
0.83400	10
0.83767	9
0.84133	9
0.84500	9
0.84867	10
0.85233	10
0.85600	9
0.85967	8
0.86333	8
0.86700	9
0.87067	9
0.87433	9
0.87800	10
0.88167	11
0.88533	14
0.88900	17
0.89267	18
0.89633	19
0.90000	16
0.90367	13
0.90733	12
0.91100	13
0.91467	14
0.91833	14
0.92200	14
0.92567	13
0.92933	12
0.93300	11
0.93667	10
0.94033	12
0.94400	13
0.94767	14
0.95133	14
0.95500	16
0.95867	18
0.96233	19
0.96600	19
0.96967	17
0.97333	17
0.97700	16
0.98067	13
0.98433	12
0.98800	12
0.99167	14
0.99533	16
0.99900	16
1.00267	17
1.00633	18
1.01000	18
1.01367	18
1.01733	16
1.02100	15
1.02467	16
1.02833	18
1.03200	19
1.03567	19
1.03933	18
1.04300	19
1.04667	18
1.05033	18
1.05400	18
1.05767	17
1.06133	18
1.06500	18
1.06867	20
1.07233	22
1.07600	22
1.07967	19
1.08333	17
1.08700	16
1.09067	18
1.09433	19
1.09800	19
1.10167	18
1.10533	18
1.10900	19
1.11267	19
1.11633	18
1.12000	16
1.12367	17
1.12733	19
1.13100	20
1.13467	24
1.13833	25
1.14200	23
1.14567	21
1.14933	20
1.15300	19
1.15667	21
1.16033	23
1.16400	21
1.16767	20
1.17133	19
1.17500	18
1.17867	16
1.18233	17
1.18600	19
1.18967	17
1.19333	17
1.19700	15
1.20067	15
1.20433	17
1.20800	18
1.21167	19
1.21533	21
1.21900	23
1.22267	25
1.22633	24
1.23000	24
1.23367	22
1.23733	23
1.24100	24
1.24467	23
1.24833	23
1.25200	24
1.25567	22
1.25933	20
1.26300	18
1.26667	18
1.27033	19
1.27400	20
1.27767	18
1.28133	17
1.28500	17
1.28867	18
1.29233	21
1.29600	20
1.29967	18
1.30333	17
1.30700	14
1.31067	14
1.31433	17
1.31800	20
1.32167	21
1.32533	22
1.32900	25
1.33267	25
1.33633	24
1.34000	20
1.34367	19
1.34733	19
1.35100	20
1.35467	22
1.35833	24
1.36200	24
1.36567	23
1.36933	23
1.37300	23
1.37667	23
1.38033	24
1.38400	24
1.38767	21
1.39133	20
1.39500	22
1.39867	22
1.40233	22
1.40600	21
1.40967	22
1.41333	22
1.41700	23
1.42067	23
1.42433	23
1.42800	22
1.43167	23
1.43533	26
1.43900	26
1.44267	25
1.44633	24
1.45000	22
1.45367	22
1.45733	23
1.46100	22
1.46467	22
1.46833	22
1.47200	24
1.47567	26
1.47933	27
1.48300	27
1.48667	25
1.49033	22
1.49400	21
1.49767	21
1.50133	20
1.50500	20
1.50867	19
1.51233	20
1.51600	20
1.51967	19
1.52333	17
1.52700	17
1.53067	19
1.53433	22
1.53800	22
1.54167	22
1.54533	23
1.54900	23
1.55267	22
1.55633	22
1.56000	21
1.56367	22
1.56733	23
1.57100	22
1.57467	21
1.57833	21
1.58200	22
1.58567	23
1.58933	27
1.59300	30
1.59667	33
1.60033	34
1.60400	32
1.60767	29
1.61133	26
1.61500	26
1.61867	27
1.62233	28
1.62600	28
1.62967	28
1.63333	27
1.63700	29
1.64067	31
1.64433	34
1.64800	35
1.65167	36
1.65533	37
1.65900	38
1.66267	39
1.66633	41
1.67000	40
1.67367	40
1.67733	41
1.68100	42
1.68467	43
1.68833	43
1.69200	43
1.69567	41
1.69933	41
1.70300	44
1.70667	45
1.71033	44
1.71400	43
1.71767	44
1.72133	46
1.72500	48
1.72867	49
1.73233	48
1.73600	47
1.73967	47
1.74333	46
1.74700	46
1.75067	48
1.75433	49
1.75800	50
1.76167	49
1.76533	48
1.76900	48
1.77267	49
1.77633	51
1.78000	53
1.78367	54
1.78733	53
1.79100	53
1.79467	56
1.79833	58
1.80200	59
1.80567	58
1.80933	57
1.81300	57
1.81667	60
1.82033	63
1.82400	64
1.82767	65
1.83133	63
1.83500	62
1.83867	62
1.84233	63
1.84600	63
1.84967	63
1.85333	63
1.85700	61
1.86067	62
1.86433	63
1.86800	63
1.87167	65
1.87533	67
1.87900	70
1.88267	73
1.88633	74
1.89000	72
1.89367	70
1.89733	67
1.90100	67
1.90467	68
1.90833	71
1.91200	73
1.91567	74
1.91933	74
1.92300	76
1.92667	79
1.93033	80
1.93400	81
1.93767	82
1.94133	83
1.94500	83
1.94867	81
1.95233	82
1.95600	84
1.95967	85
1.96333	85
1.96700	86
1.97067	88
1.97433	90
1.97800	91
1.98167	92
1.98533	93
1.98900	94
1.99267	95
1.99633	97
2.00000	99
2.00367	101
2.00733	101
2.01100	101
2.01467	103
2.01833	104
2.02200	106
2.02567	108
2.02933	109
2.03300	110
2.03667	112
2.04033	114
2.04400	117
2.04767	119
2.05133	118
2.05500	117
2.05867	118
2.06233	119
2.06600	120
2.06967	121
2.07333	123
2.07700	125
2.08067	128
2.08433	129
2.08800	131
2.09167	131
2.09533	133
2.09900	135
2.10267	136
2.10633	136
2.11000	137
2.11367	138
2.11733	140
2.12100	141
2.12467	144
2.12833	147
2.13200	147
2.13567	149
2.13933	151
2.14300	151
2.14667	150
2.15033	149
2.15400	151
2.15767	154
2.16133	155
2.16500	158
2.16867	159
2.17233	162
2.17600	164
2.17967	165
2.18333	165
2.18700	167
2.19067	168
2.19433	169
2.19800	171
2.20167	172
2.20533	172
2.20900	172
2.21267	173
2.21633	177
2.22000	180
2.22367	181
2.22733	182
2.23100	182
2.23467	181
2.23833	181
2.24200	183
2.24567	184
2.24933	185
2.25300	187
2.25667	190
2.26033	194
2.26400	194
2.26767	196
2.27133	198
2.27500	199
2.27867	197
2.28233	196
2.28600	199
2.28967	201
2.29333	205
2.29700	206
2.30067	208
2.30433	208
2.30800	208
2.31167	210
2.31533	212
2.31900	213
2.32267	215
2.32633	216
2.33000	218
2.33367	219
2.33733	220
2.34100	219
2.34467	220
2.34833	221
2.35200	224
2.35567	227
2.35933	232
2.36300	235
2.36667	235
2.37033	236
2.37400	236
2.37767	237
2.38133	238
2.38500	237
2.38867	236
2.39233	234
2.39600	233
2.39967	237
2.40333	242
2.40700	246
2.41067	249
2.41433	250
2.41800	251
2.42167	252
2.42533	254
2.42900	255
2.43267	257
2.43633	258
2.44000	261
2.44367	311
2.44733	446
2.45100	593
2.45467	716
2.45833	787
2.46200	794
2.46567	769
2.46933	737
2.47300	712
2.47667	696
2.48033	681
2.48400	653
2.48767	612
2.49133	565
2.49500	524
2.49867	494
2.50233	471
2.50600	458
2.50967	454
2.51333	459
2.51700	474
2.52067	494
2.52433	511
2.52800	521
2.53167	520
2.53533	505
2.53900	482
2.54267	455
2.54633	426
2.55000	401
2.55367	380
2.55733	363
2.56100	348
2.56467	338
2.56833	329
2.57200	322
2.57567	318
2.57933	317
2.58300	317
2.58667	318
2.59033	320
2.59400	324
2.59767	327
2.60133	329
2.60500	329
2.60867	324
2.61233	318
2.61600	313
2.61967	306
2.62333	300
2.62700	294
2.63067	284
2.63433	276
2.63800	270
2.64167	260
2.64533	248
2.64900	239
2.65267	228
2.65633	217
2.66000	208
2.66367	198
2.66733	190
2.67100	183
2.67467	176
2.67833	170
2.68200	166
2.68567	164
2.68933	161
2.69300	160
2.69667	160
2.70033	162
2.70400	164
2.70767	166
2.71133	167
2.71500	171
2.71867	173
2.72233	176
2.72600	180
2.72967	185
2.73333	189
2.73700	192
2.74067	195
2.74433	197
2.74800	197
2.75167	197
2.75533	199
2.75900	199
2.76267	200
2.76633	201
2.77000	206
2.77367	211
2.77733	215
2.78100	217
2.78467	217
2.78833	219
2.79200	223
2.79567	229
2.79933	233
2.80300	238
2.80667	242
2.81033	247
2.81400	252
2.81767	258
2.82133	267
2.82500	285
2.82867	317
2.83233	379
2.83600	489
2.83967	674
2.84333	947
2.84700	1320
2.85067	1794
2.85433	2342
2.85800	2931
2.86167	3515
2.86533	4043
2.86900	4475
2.87267	4780
2.87633	4944
2.88000	4971
2.88367	4873
2.88733	4674
2.89100	4402
2.89467	4086
2.89833	3747
2.90200	3403
2.90567	3069
2.90933	2754
2.91300	2460
2.91667	2191
2.92033	1946
2.92400	1727
2.92767	1534
2.93133	1366
2.93500	1217
2.93867	1086
2.94233	971
2.94600	872
2.94967	783
2.95333	706
2.95700	642
2.96067	587
2.96433	537
2.96800	493
2.97167	455
2.97533	422
2.97900	392
2.98267	368
2.98633	348
2.99000	332
2.99367	316
2.99733	302
3.00100	292
3.00467	282
3.00833	273
3.01200	265
3.01567	256
3.01933	250
3.02300	247
3.02667	243
3.03033	238
3.03400	235
3.03767	235
3.04133	234
3.04500	230
3.04867	228
3.05233	225
3.05600	222
3.05967	220
3.06333	218
3.06700	218
3.07067	217
3.07433	215
3.07800	212
3.08167	210
3.08533	210
3.08900	211
3.09267	211
3.09633	211
3.10000	212
3.10367	215
3.10733	216
3.11100	214
3.11467	213
3.11833	215
3.12200	216
3.12567	216
3.12933	215
3.13300	215
3.13667	214
3.14033	213
3.14400	213
3.14767	213
3.15133	214
3.15500	215
3.15867	219
3.16233	222
3.16600	224
3.16967	225
3.17333	226
3.17700	226
3.18067	225
3.18433	225
3.18800	226
3.19167	226
3.19533	226
3.19900	228
3.20267	231
3.20633	234
3.21000	235
3.21367	226
3.21733	201
3.22100	182
3.22467	183
3.22833	199
3.23200	228
3.23567	265
3.23933	307
3.24300	353
3.24667	401
3.25033	450
3.25400	498
3.25767	542
3.26133	581
3.26500	614
3.26867	644
3.27233	671
3.27600	697
3.27967	717
3.28333	734
3.28700	751
3.29067	765
3.29433	778
3.29800	792
3.30167	803
3.30533	813
3.30900	821
3.31267	829
3.31633	835
3.32000	843
3.32367	851
3.32733	860
3.33100	868
3.33467	874
3.33833	882
3.34200	890
3.34567	897
3.34933	902
3.35300	907
3.35667	914
3.36033	921
3.36400	926
3.36767	930
3.37133	936
3.37500	941
3.37867	944
3.38233	948
3.38600	951
3.38967	954
3.39333	955
3.39700	954
3.40067	952
3.40433	951
3.40800	950
3.41167	951
3.41533	951
3.41900	949
3.42267	947
3.42633	946
3.43000	944
3.43367	941
3.43733	937
3.44100	931
3.44467	924
3.44833	919
3.45200	916
3.45567	915
3.45933	913
3.46300	910
3.46667	905
3.47033	901
3.47400	895
3.47767	888
3.48133	882
3.48500	880
3.48867	879
3.49233	875
3.49600	872
3.49967	870
3.50333	866
3.50700	862
3.51067	858
3.51433	855
3.51800	854
3.52167	854
3.52533	852
3.52900	850
3.53267	847
3.53633	848
3.54000	850
3.54367	851
3.54733	851
3.55100	851
3.55467	852
3.55833	853
3.56200	854
3.56567	854
3.56933	851
3.57300	850
3.57667	852
3.58033	852
3.58400	849
3.58767	847
3.59133	845
3.59500	845
3.59867	845
3.60233	845
3.60600	844
3.60967	842
3.61333	841
3.61700	837
3.62067	834
3.62433	834
3.62800	834
3.63167	833
3.63533	835
3.63900	836
3.64267	834
3.64633	832
3.65000	829
3.65367	825
3.65733	823
3.66100	823
3.66467	821
3.66833	819
3.67200	817
3.67567	816
3.67933	815
3.68300	814
3.68667	812
3.69033	808
3.69400	806
3.69767	806
3.70133	805
3.70500	801
3.70867	799
3.71233	797
3.71600	798
3.71967	798
3.72333	796
3.72700	794
3.73067	793
3.73433	791
3.73800	790
3.74167	787
3.74533	784
3.74900	781
3.75267	780
3.75633	778
3.76000	777
3.76367	775
3.76733	773
3.77100	770
3.77467	768
3.77833	763
3.78200	759
3.78567	757
3.78933	751
3.79300	746
3.79667	745
3.80033	746
3.80400	748
3.80767	746
3.81133	740
3.81500	735
3.81867	732
3.82233	730
3.82600	728
3.82967	728
3.83333	726
3.83700	725
3.84067	722
3.84433	718
3.84800	715
3.85167	712
3.85533	709
3.85900	706
3.86267	702
3.86633	701
3.87000	699
3.87367	698
3.87733	697
3.88100	695
3.88467	693
3.88833	692
3.89200	693
3.89567	692
3.89933	691
3.90300	689
3.90667	684
3.91033	680
3.91400	675
3.91767	672
3.92133	670
3.92500	670
3.92867	671
3.93233	671
3.93600	667
3.93967	666
3.94333	666
3.94700	666
3.95067	666
3.95433	667
3.95800	667
3.96167	665
3.96533	665
3.96900	663
3.97267	660
3.97633	657
3.98000	656
3.98367	655
3.98733	652
3.99100	647
3.99467	642
3.99833	636

[Status Trace (Column Oven Temperature)]
Interval(msec)	1000
# of Points	239
Start Time(min)	0.011
End Time(min)	3.978
Intensity Units	
Intensity Multiplier	1
R.Time (min)	Intensity
0.01130	35.07
0.02797	35.06
0.04463	35.07
0.06130	35.07
0.07797	35.07
0.09463	35.06
0.11130	35.05
0.12797	35.04
0.14463	35.04
0.16130	35.04
0.17797	35.04
0.19463	35.03
0.21130	35.03
0.22797	35.03
0.24463	35.02
0.26130	35.01
0.27797	35.00
0.29463	35.00
0.31130	35.01
0.32797	35.02
0.34463	35.03
0.36130	35.03
0.37797	35.03
0.39463	35.03
0.41130	35.02
0.42797	35.01
0.44463	35.00
0.46130	34.99
0.47797	35.00
0.49463	35.00
0.51130	35.00
0.52797	35.00
0.54463	34.99
0.56130	34.99
0.57797	35.00
0.59463	35.00
0.61130	35.00
0.62797	35.01
0.64463	35.01
0.66130	35.00
0.67797	35.00
0.69463	34.99
0.71130	34.99
0.72797	35.00
0.74463	35.00
0.76130	35.01
0.77797	35.01
0.79463	35.01
0.81130	35.02
0.82797	35.02
0.84463	35.02
0.86130	35.01
0.87797	35.00
0.89463	34.98
0.91130	34.96
0.92797	34.96
0.94463	34.97
0.96130	34.97
0.97797	34.97
0.99463	34.98
1.01130	34.98
1.02797	34.99
1.04463	35.00
1.06130	35.01
1.07797	35.02
1.09463	35.02
1.11130	35.01
1.12797	35.00
1.14463	35.00
1.16130	34.99
1.17797	34.97
1.19463	34.96
1.21130	34.95
1.22797	34.95
1.24463	34.95
1.26130	34.96
1.27797	34.99
1.29463	35.00
1.31130	35.00
1.32797	35.00
1.34463	35.00
1.36130	34.99
1.37797	34.99
1.39463	34.97
1.41130	34.98
1.42797	34.99
1.44463	35.01
1.46130	35.02
1.47797	35.01
1.49463	35.02
1.51130	35.01
1.52797	35.00
1.54463	34.99
1.56130	34.97
1.57797	34.98
1.59463	35.00
1.61130	35.07
1.62797	35.23
1.64463	35.44
1.66130	35.71
1.67797	36.04
1.69463	36.42
1.71130	36.77
1.72797	37.09
1.74463	37.40
1.76130	37.74
1.77797	38.09
1.79463	38.40
1.81130	38.74
1.82797	39.08
1.84463	39.41
1.86130	39.74
1.87797	40.07
1.89463	40.41
1.91130	40.72
1.92797	41.07
1.94463	41.38
1.96130	41.70
1.97797	42.03
1.99463	42.35
2.01130	42.69
2.02797	43.02
2.04463	43.34
2.06130	43.65
2.07797	44.00
2.09463	44.32
2.11130	44.65
2.12797	44.98
2.14463	45.31
2.16130	45.63
2.17797	45.95
2.19463	46.28
2.21130	46.60
2.22797	46.94
2.24463	47.24
2.26130	47.58
2.27797	47.92
2.29463	48.25
2.31130	48.58
2.32797	48.90
2.34463	49.21
2.36130	49.50
2.37797	49.67
2.39463	49.73
2.41130	49.70
2.42797	49.71
2.44463	49.71
2.46130	49.73
2.47797	49.72
2.49463	49.74
2.51130	49.75
2.52797	49.76
2.54463	49.77
2.56130	49.79
2.57797	49.81
2.59463	49.85
2.61130	49.84
2.62797	49.86
2.64463	49.87
2.66130	49.86
2.67797	49.84
2.69463	49.85
2.71130	49.87
2.72797	49.87
2.74463	49.85
2.76130	49.86
2.77797	49.88
2.79463	49.89
2.81130	49.90
2.82797	49.91
2.84463	49.91
2.86130	49.92
2.87797	49.93
2.89463	49.94
2.91130	49.95
2.92797	49.95
2.94463	49.96
2.96130	49.96
2.97797	49.98
2.99463	50.00
3.01130	50.01
3.02797	50.01
3.04463	50.02
3.06130	50.03
3.07797	50.04
3.09463	50.04
3.11130	50.05
3.12797	50.06
3.14463	50.08
3.16130	50.09
3.17797	50.09
3.19463	50.09
3.21130	50.10
3.22797	50.09
3.24463	50.09
3.26130	50.09
3.27797	50.09
3.29463	50.09
3.31130	50.09
3.32797	50.08
3.34463	50.09
3.36130	50.10
3.37797	50.11
3.39463	50.12
3.41130	50.12
3.42797	50.10
3.44463	50.10
3.46130	50.09
3.47797	50.07
3.49463	50.05
3.51130	50.04
3.52797	50.03
3.54463	50.02
3.56130	50.02
3.57797	50.01
3.59463	49.99
3.61130	49.99
3.62797	49.99
3.64463	49.98
3.66130	49.98
3.67797	49.99
3.69463	50.00
3.71130	50.01
3.72797	50.02
3.74463	50.04
3.76130	50.04
3.77797	50.04
3.79463	50.04
3.81130	50.03
3.82797	50.03
3.84463	50.03
3.86130	50.03
3.87797	50.02
3.89463	50.02
3.91130	50.01
3.92797	50.01
3.94463	50.02
3.96130	50.02
3.97797	50.03

[Status Trace (Injection Unit Temperature)]
Interval(msec)	1000
# of Points	239
Start Time(min)	0.011
End Time(min)	3.978
Intensity Units	
Intensity Multiplier	1
R.Time (min)	Intensity
0.01130	99.98
0.02797	99.98
0.04463	99.98
0.06130	99.99
0.07797	99.99
0.09463	99.98
0.11130	99.99
0.12797	99.98
0.14463	99.98
0.16130	99.98
0.17797	99.99
0.19463	99.99
0.21130	99.98
0.22797	99.99
0.24463	99.98
0.26130	99.99
0.27797	99.99
0.29463	99.99
0.31130	99.99
0.32797	99.99
0.34463	99.99
0.36130	99.99
0.37797	99.99
0.39463	99.99
0.41130	99.99
0.42797	99.99
0.44463	99.98
0.46130	99.99
0.47797	99.98
0.49463	99.99
0.51130	99.98
0.52797	99.99
0.54463	99.99
0.56130	99.99
0.57797	99.98
0.59463	99.99
0.61130	99.99
0.62797	99.98
0.64463	99.98
0.66130	99.98
0.67797	99.98
0.69463	99.98
0.71130	99.99
0.72797	99.99
0.74463	99.99
0.76130	99.98
0.77797	99.98
0.79463	99.98
0.81130	99.98
0.82797	99.98
0.84463	99.98
0.86130	99.98
0.87797	99.98
0.89463	99.98
0.91130	99.98
0.92797	99.98
0.94463	99.98
0.96130	99.98
0.97797	99.98
0.99463	99.98
1.01130	99.98
1.02797	99.98
1.04463	99.97
1.06130	99.98
1.07797	99.96
1.09463	99.98
1.11130	99.97
1.12797	99.97
1.14463	99.98
1.16130	99.98
1.17797	99.98
1.19463	99.98
1.21130	99.98
1.22797	99.97
1.24463	99.98
1.26130	99.98
1.27797	99.98
1.29463	99.98
1.31130	99.98
1.32797	99.98
1.34463	99.98
1.36130	99.98
1.37797	99.98
1.39463	99.98
1.41130	99.98
1.42797	99.98
1.44463	99.98
1.46130	99.98
1.47797	99.98
1.49463	99.98
1.51130	99.98
1.52797	99.99
1.54463	99.98
1.56130	99.98
1.57797	99.98
1.59463	99.98
1.61130	99.98
1.62797	99.98
1.64463	99.98
1.66130	99.99
1.67797	99.98
1.69463	99.98
1.71130	99.98
1.72797	99.99
1.74463	99.98
1.76130	99.99
1.77797	99.98
1.79463	99.98
1.81130	99.98
1.82797	99.98
1.84463	99.98
1.86130	99.98
1.87797	99.98
1.89463	99.98
1.91130	99.98
1.92797	99.98
1.94463	99.98
1.96130	99.98
1.97797	99.98
1.99463	99.98
2.01130	99.97
2.02797	99.98
2.04463	99.97
2.06130	99.97
2.07797	99.97
2.09463	99.98
2.11130	99.97
2.12797	99.97
2.14463	99.97
2.16130	99.97
2.17797	99.97
2.19463	99.97
2.21130	99.97
2.22797	99.97
2.24463	99.97
2.26130	99.97
2.27797	99.97
2.29463	99.97
2.31130	99.97
2.32797	99.97
2.34463	99.97
2.36130	99.97
2.37797	99.97
2.39463	99.97
2.41130	99.97
2.42797	99.97
2.44463	99.96
2.46130	99.97
2.47797	99.97
2.49463	99.97
2.51130	99.97
2.52797	99.97
2.54463	99.97
2.56130	99.97
2.57797	99.98
2.59463	99.98
2.61130	99.98
2.62797	99.98
2.64463	99.98
2.66130	99.98
2.67797	99.99
2.69463	99.98
2.71130	99.99
2.72797	99.99
2.74463	99.99
2.76130	99.99
2.77797	100.00
2.79463	100.00
2.81130	100.00
2.82797	100.00
2.84463	100.00
2.86130	100.00
2.87797	100.01
2.89463	100.01
2.91130	100.01
2.92797	100.00
2.94463	100.01
2.96130	100.01
2.97797	100.01
2.99463	100.02
3.01130	100.01
3.02797	100.02
3.04463	100.01
3.06130	100.01
3.07797	100.02
3.09463	100.02
3.11130	100.02
3.12797	100.02
3.14463	100.02
3.16130	100.03
3.17797	100.03
3.19463	100.03
3.21130	100.02
3.22797	100.03
3.24463	100.03
3.26130	100.03
3.27797	100.03
3.29463	100.03
3.31130	100.03
3.32797	100.03
3.34463	100.03
3.36130	100.03
3.37797	100.03
3.39463	100.04
3.41130	100.04
3.42797	100.04
3.44463	100.04
3.46130	100.04
3.47797	100.04
3.49463	100.04
3.51130	100.04
3.52797	100.04
3.54463	100.04
3.56130	100.03
3.57797	100.04
3.59463	100.04
3.61130	100.04
3.62797	100.04
3.64463	100.04
3.66130	100.04
3.67797	100.04
3.69463	100.04
3.71130	100.05
3.72797	100.05
3.74463	100.05
3.76130	100.04
3.77797	100.04
3.79463	100.04
3.81130	100.04
3.82797	100.04
3.84463	100.04
3.86130	100.05
3.87797	100.04
3.89463	100.04
3.91130	100.05
3.92797	100.05
3.94463	100.05
3.96130	100.05
3.97797	100.05

[Status Trace (Carrier Gas Pressure)]
Interval(msec)	1000
# of Points	239
Start Time(min)	0.011
End Time(min)	3.978
Intensity Units	
Intensity Multiplier	1
R.Time (min)	Intensity
0.01130	58.00
0.02797	55.01
0.04463	57.64
0.06130	59.61
0.07797	58.98
0.09463	58.00
0.11130	57.99
0.12797	58.01
0.14463	58.01
0.16130	58.00
0.17797	58.00
0.19463	58.00
0.21130	58.00
0.22797	58.00
0.24463	58.00
0.26130	58.00
0.27797	58.00
0.29463	58.00
0.31130	58.00
0.32797	58.00
0.34463	58.00
0.36130	58.00
0.37797	58.00
0.39463	58.00
0.41130	58.00
0.42797	58.00
0.44463	58.00
0.46130	58.00
0.47797	58.00
0.49463	58.00
0.51130	58.00
0.52797	58.00
0.54463	58.00
0.56130	58.00
0.57797	58.00
0.59463	58.00
0.61130	58.00
0.62797	58.00
0.64463	58.00
0.66130	58.00
0.67797	58.00
0.69463	58.00
0.71130	58.00
0.72797	58.00
0.74463	58.00
0.76130	58.00
0.77797	58.00
0.79463	58.00
0.81130	58.00
0.82797	58.00
0.84463	58.00
0.86130	58.00
0.87797	58.00
0.89463	58.00
0.91130	58.00
0.92797	58.00
0.94463	58.00
0.96130	58.00
0.97797	58.00
0.99463	58.00
1.01130	58.00
1.02797	58.00
1.04463	58.00
1.06130	58.00
1.07797	58.00
1.09463	58.00
1.11130	58.00
1.12797	58.00
1.14463	58.00
1.16130	58.00
1.17797	58.00
1.19463	58.00
1.21130	58.00
1.22797	58.00
1.24463	58.00
1.26130	58.00
1.27797	58.00
1.29463	58.00
1.31130	58.00
1.32797	58.00
1.34463	58.00
1.36130	58.00
1.37797	58.00
1.39463	58.00
1.41130	58.00
1.42797	58.00
1.44463	58.00
1.46130	58.00
1.47797	58.00
1.49463	58.00
1.51130	58.00
1.52797	58.00
1.54463	58.00
1.56130	58.00
1.57797	58.00
1.59463	58.00
1.61130	58.00
1.62797	58.00
1.64463	58.00
1.66130	58.00
1.67797	58.01
1.69463	58.00
1.71130	58.00
1.72797	58.00
1.74463	58.00
1.76130	58.00
1.77797	58.00
1.79463	58.00
1.81130	58.00
1.82797	58.00
1.84463	58.00
1.86130	58.00
1.87797	58.00
1.89463	58.00
1.91130	58.00
1.92797	58.00
1.94463	58.00
1.96130	58.00
1.97797	58.00
1.99463	58.00
2.01130	58.00
2.02797	58.00
2.04463	58.00
2.06130	58.00
2.07797	58.00
2.09463	58.00
2.11130	58.00
2.12797	58.00
2.14463	58.00
2.16130	58.00
2.17797	58.00
2.19463	58.00
2.21130	58.00
2.22797	58.00
2.24463	58.00
2.26130	58.00
2.27797	58.00
2.29463	58.00
2.31130	58.00
2.32797	58.00
2.34463	58.00
2.36130	58.00
2.37797	58.00
2.39463	57.99
2.41130	57.99
2.42797	58.00
2.44463	58.00
2.46130	58.00
2.47797	58.00
2.49463	58.00
2.51130	58.00
2.52797	57.99
2.54463	58.00
2.56130	58.00
2.57797	58.00
2.59463	58.00
2.61130	58.00
2.62797	58.00
2.64463	58.00
2.66130	58.00
2.67797	58.00
2.69463	58.00
2.71130	58.00
2.72797	58.00
2.74463	58.00
2.76130	58.00
2.77797	58.00
2.79463	58.00
2.81130	58.00
2.82797	58.00
2.84463	58.00
2.86130	58.00
2.87797	58.00
2.89463	58.00
2.91130	58.00
2.92797	58.00
2.94463	58.00
2.96130	58.00
2.97797	58.00
2.99463	58.00
3.01130	58.00
3.02797	58.00
3.04463	58.00
3.06130	58.00
3.07797	58.00
3.09463	58.00
3.11130	58.00
3.12797	58.00
3.14463	58.00
3.16130	58.00
3.17797	58.00
3.19463	58.00
3.21130	58.00
3.22797	58.00
3.24463	58.00
3.26130	58.00
3.27797	58.00
3.29463	58.00
3.31130	58.00
3.32797	58.00
3.34463	58.00
3.36130	58.00
3.37797	58.00
3.39463	58.00
3.41130	58.00
3.42797	58.00
3.44463	58.00
3.46130	58.00
3.47797	58.00
3.49463	58.00
3.51130	58.00
3.52797	58.00
3.54463	58.00
3.56130	58.00
3.57797	58.00
3.59463	58.00
3.61130	58.00
3.62797	58.00
3.64463	58.00
3.66130	58.00
3.67797	58.00
3.69463	58.00
3.71130	58.00
3.72797	58.00
3.74463	58.00
3.76130	58.00
3.77797	58.00
3.79463	58.00
3.81130	58.00
3.82797	58.00
3.84463	58.00
3.86130	58.00
3.87797	58.00
3.89463	58.00
3.91130	58.00
3.92797	58.00
3.94463	58.00
3.96130	58.00
3.97797	58.00

[Status Trace (Carrier Gas Flow)]
Interval(msec)	1000
# of Points	239
Start Time(min)	0.011
End Time(min)	3.978
Intensity Units	
Intensity Multiplier	1
R.Time (min)	Intensity
0.01130	34.51
0.02797	34.53
0.04463	34.55
0.06130	34.54
0.07797	34.51
0.09463	34.52
0.11130	34.52
0.12797	34.52
0.14463	34.52
0.16130	34.52
0.17797	34.51
0.19463	34.52
0.21130	34.53
0.22797	34.53
0.24463	34.52
0.26130	34.52
0.27797	34.53
0.29463	34.51
0.31130	34.51
0.32797	34.51
0.34463	34.52
0.36130	34.52
0.37797	34.52
0.39463	34.51
0.41130	34.52
0.42797	34.52
0.44463	34.52
0.46130	34.51
0.47797	34.52
0.49463	34.52
0.51130	34.52
0.52797	34.52
0.54463	34.52
0.56130	34.52
0.57797	34.52
0.59463	34.52
0.61130	34.52
0.62797	34.52
0.64463	34.51
0.66130	34.51
0.67797	34.52
0.69463	34.52
0.71130	34.52
0.72797	34.52
0.74463	34.52
0.76130	34.52
0.77797	34.52
0.79463	34.51
0.81130	34.52
0.82797	34.52
0.84463	34.51
0.86130	34.51
0.87797	34.52
0.89463	34.52
0.91130	34.52
0.92797	34.52
0.94463	34.52
0.96130	34.52
0.97797	34.52
0.99463	34.52
1.01130	34.52
1.02797	34.51
1.04463	34.52
1.06130	34.53
1.07797	34.52
1.09463	34.52
1.11130	34.52
1.12797	34.52
1.14463	34.52
1.16130	34.52
1.17797	34.52
1.19463	34.52
1.21130	34.52
1.22797	34.52
1.24463	34.52
1.26130	34.52
1.27797	34.53
1.29463	34.52
1.31130	34.52
1.32797	34.52
1.34463	34.52
1.36130	34.52
1.37797	34.52
1.39463	34.52
1.41130	34.52
1.42797	34.52
1.44463	34.52
1.46130	34.52
1.47797	34.52
1.49463	34.52
1.51130	34.52
1.52797	34.52
1.54463	34.52
1.56130	34.52
1.57797	34.52
1.59463	34.52
1.61130	34.52
1.62797	34.52
1.64463	34.52
1.66130	34.52
1.67797	34.52
1.69463	34.52
1.71130	34.53
1.72797	34.52
1.74463	34.52
1.76130	34.51
1.77797	34.52
1.79463	34.52
1.81130	34.52
1.82797	34.52
1.84463	34.52
1.86130	34.52
1.87797	34.52
1.89463	34.52
1.91130	34.52
1.92797	34.53
1.94463	34.53
1.96130	34.52
1.97797	34.52
1.99463	34.52
2.01130	34.51
2.02797	34.52
2.04463	34.52
2.06130	34.52
2.07797	34.52
2.09463	34.52
2.11130	34.52
2.12797	34.52
2.14463	34.53
2.16130	34.52
2.17797	34.52
2.19463	34.52
2.21130	34.52
2.22797	34.52
2.24463	34.52
2.26130	34.52
2.27797	34.52
2.29463	34.52
2.31130	34.52
2.32797	34.52
2.34463	34.52
2.36130	34.51
2.37797	34.51
2.39463	34.52
2.41130	34.52
2.42797	34.52
2.44463	34.51
2.46130	34.52
2.47797	34.52
2.49463	34.52
2.51130	34.52
2.52797	34.52
2.54463	34.52
2.56130	34.52
2.57797	34.51
2.59463	34.52
2.61130	34.52
2.62797	34.52
2.64463	34.52
2.66130	34.52
2.67797	34.52
2.69463	34.51
2.71130	34.52
2.72797	34.52
2.74463	34.52
2.76130	34.52
2.77797	34.52
2.79463	34.52
2.81130	34.52
2.82797	34.52
2.84463	34.52
2.86130	34.52
2.87797	34.52
2.89463	34.52
2.91130	34.52
2.92797	34.52
2.94463	34.52
2.96130	34.52
2.97797	34.52
2.99463	34.52
3.01130	34.52
3.02797	34.52
3.04463	34.52
3.06130	34.52
3.07797	34.52
3.09463	34.52
3.11130	34.52
3.12797	34.52
3.14463	34.52
3.16130	34.52
3.17797	34.52
3.19463	34.52
3.21130	34.51
3.22797	34.52
3.24463	34.52
3.26130	34.52
3.27797	34.52
3.29463	34.52
3.31130	34.52
3.32797	34.52
3.34463	34.52
3.36130	34.52
3.37797	34.52
3.39463	34.52
3.41130	34.51
3.42797	34.52
3.44463	34.52
3.46130	34.52
3.47797	34.52
3.49463	34.51
3.51130	34.52
3.52797	34.52
3.54463	34.52
3.56130	34.52
3.57797	34.52
3.59463	34.52
3.61130	34.52
3.62797	34.52
3.64463	34.52
3.66130	34.52
3.67797	34.52
3.69463	34.52
3.71130	34.52
3.72797	34.52
3.74463	34.51
3.76130	34.52
3.77797	34.52
3.79463	34.52
3.81130	34.51
3.82797	34.52
3.84463	34.52
3.86130	34.52
3.87797	34.51
3.89463	34.52
3.91130	34.52
3.92797	34.52
3.94463	34.51
3.96130	34.52
3.97797	34.52

[Status Trace (Column Flow)]
Interval(msec)	1000
# of Points	239
Start Time(min)	0.011
End Time(min)	3.978
Intensity Units	
Intensity Multiplier	1
R.Time (min)	Intensity
0.01130	5.53
0.02797	5.18
0.04463	5.49
0.06130	5.72
0.07797	5.64
0.09463	5.53
0.11130	5.53
0.12797	5.53
0.14463	5.53
0.16130	5.53
0.17797	5.53
0.19463	5.53
0.21130	5.53
0.22797	5.53
0.24463	5.53
0.26130	5.53
0.27797	5.53
0.29463	5.53
0.31130	5.53
0.32797	5.53
0.34463	5.53
0.36130	5.53
0.37797	5.53
0.39463	5.53
0.41130	5.53
0.42797	5.53
0.44463	5.53
0.46130	5.53
0.47797	5.53
0.49463	5.53
0.51130	5.53
0.52797	5.53
0.54463	5.53
0.56130	5.53
0.57797	5.53
0.59463	5.53
0.61130	5.53
0.62797	5.53
0.64463	5.53
0.66130	5.53
0.67797	5.53
0.69463	5.53
0.71130	5.53
0.72797	5.53
0.74463	5.53
0.76130	5.53
0.77797	5.53
0.79463	5.53
0.81130	5.53
0.82797	5.53
0.84463	5.53
0.86130	5.53
0.87797	5.53
0.89463	5.53
0.91130	5.53
0.92797	5.53
0.94463	5.53
0.96130	5.53
0.97797	5.53
0.99463	5.53
1.01130	5.53
1.02797	5.53
1.04463	5.53
1.06130	5.53
1.07797	5.53
1.09463	5.53
1.11130	5.53
1.12797	5.53
1.14463	5.53
1.16130	5.53
1.17797	5.53
1.19463	5.53
1.21130	5.53
1.22797	5.53
1.24463	5.53
1.26130	5.53
1.27797	5.53
1.29463	5.53
1.31130	5.53
1.32797	5.53
1.34463	5.53
1.36130	5.53
1.37797	5.53
1.39463	5.53
1.41130	5.53
1.42797	5.53
1.44463	5.53
1.46130	5.53
1.47797	5.53
1.49463	5.53
1.51130	5.53
1.52797	5.53
1.54463	5.53
1.56130	5.53
1.57797	5.53
1.59463	5.53
1.61130	5.53
1.62797	5.53
1.64463	5.52
1.66130	5.51
1.67797	5.50
1.69463	5.49
1.71130	5.48
1.72797	5.47
1.74463	5.46
1.76130	5.45
1.77797	5.44
1.79463	5.43
1.81130	5.42
1.82797	5.41
1.84463	5.39
1.86130	5.39
1.87797	5.38
1.89463	5.36
1.91130	5.36
1.92797	5.35
1.94463	5.34
1.96130	5.33
1.97797	5.32
1.99463	5.31
2.01130	5.30
2.02797	5.29
2.04463	5.28
2.06130	5.27
2.07797	5.26
2.09463	5.25
2.11130	5.24
2.12797	5.23
2.14463	5.22
2.16130	5.21
2.17797	5.20
2.19463	5.19
2.21130	5.18
2.22797	5.17
2.24463	5.16
2.26130	5.16
2.27797	5.15
2.29463	5.14
2.31130	5.13
2.32797	5.12
2.34463	5.11
2.36130	5.10
2.37797	5.10
2.39463	5.09
2.41130	5.10
2.42797	5.10
2.44463	5.10
2.46130	5.10
2.47797	5.10
2.49463	5.09
2.51130	5.09
2.52797	5.09
2.54463	5.09
2.56130	5.09
2.57797	5.09
2.59463	5.09
2.61130	5.09
2.62797	5.09
2.64463	5.09
2.66130	5.09
2.67797	5.09
2.69463	5.09
2.71130	5.09
2.72797	5.09
2.74463	5.09
2.76130	5.09
2.77797	5.09
2.79463	5.09
2.81130	5.09
2.82797	5.09
2.84463	5.09
2.86130	5.09
2.87797	5.09
2.89463	5.09
2.91130	5.09
2.92797	5.09
2.94463	5.09
2.96130	5.09
2.97797	5.09
2.99463	5.09
3.01130	5.09
3.02797	5.09
3.04463	5.09
3.06130	5.09
3.07797	5.09
3.09463	5.09
3.11130	5.09
3.12797	5.09
3.14463	5.09
3.16130	5.09
3.17797	5.09
3.19463	5.09
3.21130	5.09
3.22797	5.09
3.24463	5.09
3.26130	5.09
3.27797	5.09
3.29463	5.09
3.31130	5.09
3.32797	5.09
3.34463	5.09
3.36130	5.09
3.37797	5.08
3.39463	5.08
3.41130	5.08
3.42797	5.08
3.44463	5.08
3.46130	5.09
3.47797	5.09
3.49463	5.09
3.51130	5.09
3.52797	5.09
3.54463	5.09
3.56130	5.09
3.57797	5.09
3.59463	5.09
3.61130	5.09
3.62797	5.09
3.64463	5.09
3.66130	5.09
3.67797	5.09
3.69463	5.09
3.71130	5.09
3.72797	5.09
3.74463	5.09
3.76130	5.09
3.77797	5.09
3.79463	5.09
3.81130	5.09
3.82797	5.09
3.84463	5.09
3.86130	5.09
3.87797	5.09
3.89463	5.09
3.91130	5.09
3.92797	5.09
3.94463	5.09
3.96130	5.09
3.97797	5.09

[Status Trace (Linear Velocity)]
Interval(msec)	1000
# of Points	239
Start Time(min)	0.011
End Time(min)	3.978
Intensity Units	
Intensity Multiplier	1
R.Time (min)	Intensity
0.01130	39.01
0.02797	37.05
0.04463	38.78
0.06130	40.07
0.07797	39.66
0.09463	39.01
0.11130	39.01
0.12797	39.02
0.14463	39.02
0.16130	39.02
0.17797	39.02
0.19463	39.02
0.21130	39.02
0.22797	39.02
0.24463	39.02
0.26130	39.02
0.27797	39.02
0.29463	39.02
0.31130	39.02
0.32797	39.02
0.34463	39.02
0.36130	39.01
0.37797	39.02
0.39463	39.02
0.41130	39.02
0.42797	39.02
0.44463	39.02
0.46130	39.02
0.47797	39.02
0.49463	39.02
0.51130	39.02
0.52797	39.02
0.54463	39.02
0.56130	39.02
0.57797	39.02
0.59463	39.02
0.61130	39.02
0.62797	39.02
0.64463	39.02
0.66130	39.02
0.67797	39.02
0.69463	39.02
0.71130	39.02
0.72797	39.02
0.74463	39.02
0.76130	39.02
0.77797	39.02
0.79463	39.02
0.81130	39.02
0.82797	39.02
0.84463	39.02
0.86130	39.02
0.87797	39.02
0.89463	39.02
0.91130	39.02
0.92797	39.02
0.94463	39.02
0.96130	39.02
0.97797	39.02
0.99463	39.02
1.01130	39.02
1.02797	39.02
1.04463	39.02
1.06130	39.02
1.07797	39.02
1.09463	39.02
1.11130	39.02
1.12797	39.02
1.14463	39.02
1.16130	39.02
1.17797	39.02
1.19463	39.02
1.21130	39.02
1.22797	39.02
1.24463	39.02
1.26130	39.02
1.27797	39.02
1.29463	39.02
1.31130	39.02
1.32797	39.02
1.34463	39.02
1.36130	39.02
1.37797	39.02
1.39463	39.02
1.41130	39.02
1.42797	39.02
1.44463	39.02
1.46130	39.02
1.47797	39.02
1.49463	39.02
1.51130	39.02
1.52797	39.02
1.54463	39.02
1.56130	39.02
1.57797	39.02
1.59463	39.02
1.61130	39.01
1.62797	39.00
1.64463	38.98
1.66130	38.95
1.67797	38.92
1.69463	38.89
1.71130	38.85
1.72797	38.82
1.74463	38.79
1.76130	38.76
1.77797	38.73
1.79463	38.69
1.81130	38.66
1.82797	38.63
1.84463	38.60
1.86130	38.57
1.87797	38.54
1.89463	38.51
1.91130	38.48
1.92797	38.45
1.94463	38.42
1.96130	38.39
1.97797	38.36
1.99463	38.33
2.01130	38.29
2.02797	38.26
2.04463	38.23
2.06130	38.21
2.07797	38.18
2.09463	38.14
2.11130	38.11
2.12797	38.09
2.14463	38.05
2.16130	38.03
2.17797	38.00
2.19463	37.97
2.21130	37.94
2.22797	37.91
2.24463	37.88
2.26130	37.85
2.27797	37.82
2.29463	37.79
2.31130	37.76
2.32797	37.73
2.34463	37.70
2.36130	37.68
2.37797	37.66
2.39463	37.65
2.41130	37.66
2.42797	37.66
2.44463	37.66
2.46130	37.66
2.47797	37.66
2.49463	37.66
2.51130	37.65
2.52797	37.65
2.54463	37.66
2.56130	37.65
2.57797	37.65
2.59463	37.65
2.61130	37.65
2.62797	37.65
2.64463	37.65
2.66130	37.65
2.67797	37.65
2.69463	37.65
2.71130	37.65
2.72797	37.65
2.74463	37.65
2.76130	37.65
2.77797	37.65
2.79463	37.64
2.81130	37.64
2.82797	37.64
2.84463	37.64
2.86130	37.64
2.87797	37.64
2.89463	37.64
2.91130	37.64
2.92797	37.64
2.94463	37.64
2.96130	37.64
2.97797	37.64
2.99463	37.64
3.01130	37.63
3.02797	37.63
3.04463	37.63
3.06130	37.63
3.07797	37.63
3.09463	37.63
3.11130	37.63
3.12797	37.63
3.14463	37.63
3.16130	37.63
3.17797	37.63
3.19463	37.63
3.21130	37.63
3.22797	37.63
3.24463	37.63
3.26130	37.63
3.27797	37.63
3.29463	37.63
3.31130	37.63
3.32797	37.63
3.34463	37.63
3.36130	37.63
3.37797	37.63
3.39463	37.62
3.41130	37.62
3.42797	37.63
3.44463	37.63
3.46130	37.63
3.47797	37.63
3.49463	37.63
3.51130	37.63
3.52797	37.63
3.54463	37.63
3.56130	37.63
3.57797	37.63
3.59463	37.64
3.61130	37.64
3.62797	37.64
3.64463	37.64
3.66130	37.64
3.67797	37.64
3.69463	37.63
3.71130	37.63
3.72797	37.63
3.74463	37.63
3.76130	37.63
3.77797	37.63
3.79463	37.63
3.81130	37.63
3.82797	37.63
3.84463	37.63
3.86130	37.63
3.87797	37.63
3.89463	37.63
3.91130	37.63
3.92797	37.63
3.94463	37.63
3.96130	37.63
3.97797	37.63

