[Header]
Application Name	LabSolutions
Version	5.110
Data File Name	C:\Users\User\Desktop\GC Analyses\Jack\Nachusa Grasslands Sampling\T3 Timepoint July 12th\T3_07122022_048.gcd
Output Date	3/14/2023
Output Time	3:43:33 PM

[File Information]
Type	Data File
Generated	3/13/2023 7:48:19 PM
Generated by	System Administrator
Modified	3/13/2023 7:55:11 PM
Modified by	System Administrator

[Sample Information]
Operator Name	System Administrator
Acquired	3/13/2023 7:51:10 PM
Sample Type	0:Unknown
Level	0
Sample Name	048
Sample ID	048
ISTD Amount1	1
ISTD Amount2	1
ISTD Amount3	1
ISTD Amount4	1
ISTD Amount5	1
ISTD Amount6	1
ISTD Amount7	1
ISTD Amount8	1
ISTD Amount9	1
ISTD Amount10	1
ISTD Amount11	1
ISTD Amount12	1
ISTD Amount13	1
ISTD Amount14	1
ISTD Amount15	1
ISTD Amount16	1
ISTD Amount17	1
ISTD Amount18	1
ISTD Amount19	1
ISTD Amount20	1
ISTD Amount21	1
ISTD Amount22	1
ISTD Amount23	1
ISTD Amount24	1
ISTD Amount25	1
ISTD Amount26	1
ISTD Amount27	1
ISTD Amount28	1
ISTD Amount29	1
ISTD Amount30	1
ISTD Amount31	1
ISTD Amount32	1
Sample Amount	1
Dilution Factor	1
Vial#	47
Injection Volume	1
Injection Count	1
Bar Code	

[Original Files]
Data File	C:\Users\User\Desktop\GC Analyses\Jack\Nachusa Grasslands Sampling\T3 Timepoint July 12th\T3_07122022_048.gcd
Method File	C:\LabSolutions\Data\GHG_4min_2022\ghg3_togas_w_acet_4 min_new_int.gcm
Batch File	C:\LabSolutions\Data\AutoSamplerTesting\T3_07122022.gcb
Report Format File	c:\LabSolutions\System\DEFAULT.lsr

[File Description]


[Configuration]
Instrument Name	C0B7VH3-Instrument1
Instrument #	1
Line #	1
# of Detectors	3
Detector ID	DET#1	DET#2	DET#3
Detector Name	FID	PTCD	ECD
# of Channels	1	1	1

[Peak Table(Ch1)]
# of Peaks	3
Peak#	R.Time	I.Time	F.Time	Area	Height	A/H	Conc.	Mark	ID#	Name	k'	Plate #	Plate Ht.	Tailing	Resolution	Sep.Factor	Area Ratio	Height Ratio	Conc. %	Norm Conc.
1	1.476	1.424	1.534	25528	12603	2.025	180.227	   	1	CO	0.000	9577	15.663	1.221	0.000	0.000	0	0	23.270	23.270
2	1.571	1.538	1.619	3650	1907	1.914	70.578	   	2	CH4	0.065	12083	12.414	1.131	1.623	0.000	0	0	9.113	9.113
3	1.996	1.952	2.308	2086621	1004911	2.076	523.685	   	3	CO2	0.353	17576	8.535	1.336	7.246	5.462	0	0	67.617	67.617

[Peak Table(Ch2)]
# of Peaks	0

[Peak Table(Ch3)]
# of Peaks	4
Peak#	R.Time	I.Time	F.Time	Area	Height	A/H	Conc.	Mark	ID#	Name	k'	Plate #	Plate Ht.	Tailing	Resolution	Sep.Factor	Area Ratio	Height Ratio	Conc. %	Norm Conc.
1	2.462	2.330	2.510	1781	593	3.006	0.000	   			0.000	11245	13.339	0.000	0.000	0.000	0	0	0.000	0.000
2	2.528	2.510	2.686	1375	312	4.409	0.000	 V 			0.027	6652	22.550	0.000	0.609	0.000	0	0	0.000	0.000
3	2.880	2.711	3.085	18445	4791	3.850	0.471	   	1	N2O	0.170	13205	11.359	1.505	3.140	6.333	0	0	100.000	100.000
4	3.485	3.192	3.562	1052	72	14.618	0.000	   			0.416	1716	87.405	0.630	2.770	2.447	0	0	0.000	0.000

[Compound Results(Ch1)]
# of IDs	6
ID#	Name	R.Time	Area	Height	Conc.	Curve	3rd	2nd	1st	Constant	Area Ratio	Height Ratio	Conc. %	Norm Conc.
1	CO	1.476	25528	12603	180.227	Linear	0.000000e+00	0.000000e+00	1.416423e+002	0.000000e+00	0	0	23.270	23.270
2	CH4	1.571	3650	1907	70.578	Linear	0.000000e+00	0.000000e+00	5.171738e+001	0.000000e+00	0	0	9.113	9.113
3	CO2	1.996	2086621	1004911	523.685	Linear	0.000000e+00	0.000000e+00	3.984494e+003	0.000000e+00	0	0	67.617	67.617
4	Ethylene	0.000	0	0	0.000	Linear	0.000000e+00	0.000000e+00	0.000000e+00	0.000000e+00	0	0	0.000	0.000
5	Acetylene	0.000	0	0	0.000	Linear	0.000000e+00	0.000000e+00	0.000000e+00	0.000000e+00	0	0	0.000	0.000
6	Ethane	0.000	0	0	0.000	Linear	0.000000e+00	0.000000e+00	0.000000e+00	0.000000e+00	0	0	0.000	0.000

[Compound Results(Ch2)]
# of IDs	5
ID#	Name	R.Time	Area	Height	Conc.	Curve	3rd	2nd	1st	Constant	Area Ratio	Height Ratio	Conc. %	Norm Conc.
1	Hydrogen	0.000	0	0	0.000	Linear	0.000000e+00	0.000000e+00	0.000000e+00	0.000000e+00	0	0	0.000	0.000
2	Oxygen	0.000	0	0	0.000	Linear	0.000000e+00	0.000000e+00	0.000000e+00	0.000000e+00	0	0	0.000	0.000
3	Nitrogen	0.000	0	0	0.000	Linear	0.000000e+00	0.000000e+00	0.000000e+00	0.000000e+00	0	0	0.000	0.000
4	Methane	0.000	0	0	0.000	Linear	0.000000e+00	0.000000e+00	0.000000e+00	0.000000e+00	0	0	0.000	0.000
5	Carbon Monoxide	0.000	0	0	0.000	Linear	0.000000e+00	0.000000e+00	0.000000e+00	0.000000e+00	0	0	0.000	0.000

[Compound Results(Ch3)]
# of IDs	2
ID#	Name	R.Time	Area	Height	Conc.	Curve	3rd	2nd	1st	Constant	Area Ratio	Height Ratio	Conc. %	Norm Conc.
1	N2O	2.880	18445	4791	0.471	Linear	0.000000e+00	0.000000e+00	3.915173e+004	0.000000e+00	0	0	100.000	100.000
2	SF6	0.000	0	0	0.000	Linear	0.000000e+00	0.000000e+00	0.000000e+00	0.000000e+00	0	0	0.000	0.000

[Group Results(Ch1)]
# of Groups	0

[Group Results(Ch2)]
# of Groups	0

[Group Results(Ch3)]
# of Groups	0

[Chromatogram (Ch1)]
Interval(msec)	220
# of Points	1091
Start Time(min)	0.002
End Time(min)	3.998
R.Time (min)	Intensity
0.00167	2
0.00533	-2
0.00900	-4
0.01267	-4
0.01633	-2
0.02000	2
0.02367	5
0.02733	4
0.03100	1
0.03467	-3
0.03833	-5
0.04200	-4
0.04567	-5
0.04933	-7
0.05300	-8
0.05667	-6
0.06033	-5
0.06400	-7
0.06767	-6
0.07133	0
0.07500	10
0.07867	19
0.08233	15
0.08600	3
0.08967	-5
0.09333	-8
0.09700	-6
0.10067	-2
0.10433	-2
0.10800	-5
0.11167	-7
0.11533	-5
0.11900	-2
0.12267	4
0.12633	11
0.13000	16
0.13367	21
0.13733	21
0.14100	19
0.14467	18
0.14833	20
0.15200	24
0.15567	23
0.15933	18
0.16300	10
0.16667	0
0.17033	-7
0.17400	-10
0.17767	-11
0.18133	-9
0.18500	-6
0.18867	-5
0.19233	-4
0.19600	-5
0.19967	-6
0.20333	-3
0.20700	5
0.21067	14
0.21433	16
0.21800	14
0.22167	9
0.22533	2
0.22900	-2
0.23267	1
0.23633	6
0.24000	11
0.24367	13
0.24733	7
0.25100	-1
0.25467	-5
0.25833	-6
0.26200	-3
0.26567	3
0.26933	10
0.27300	15
0.27667	17
0.28033	16
0.28400	19
0.28767	22
0.29133	24
0.29500	27
0.29867	30
0.30233	34
0.30600	33
0.30967	31
0.31333	31
0.31700	32
0.32067	28
0.32433	21
0.32800	19
0.33167	17
0.33533	15
0.33900	16
0.34267	17
0.34633	15
0.35000	11
0.35367	7
0.35733	4
0.36100	2
0.36467	2
0.36833	8
0.37200	18
0.37567	31
0.37933	43
0.38300	43
0.38667	35
0.39033	25
0.39400	14
0.39767	6
0.40133	5
0.40500	5
0.40867	4
0.41233	3
0.41600	1
0.41967	-4
0.42333	-7
0.42700	-9
0.43067	-9
0.43433	-7
0.43800	3
0.44167	9
0.44533	10
0.44900	10
0.45267	14
0.45633	19
0.46000	20
0.46367	17
0.46733	14
0.47100	10
0.47467	8
0.47833	12
0.48200	12
0.48567	5
0.48933	-7
0.49300	-14
0.49667	-20
0.50033	-23
0.50400	-21
0.50767	-17
0.51133	-12
0.51500	-5
0.51867	1
0.52233	9
0.52600	17
0.52967	25
0.53333	26
0.53700	23
0.54067	16
0.54433	8
0.54800	2
0.55167	-2
0.55533	-2
0.55900	1
0.56267	5
0.56633	9
0.57000	13
0.57367	14
0.57733	15
0.58100	14
0.58467	10
0.58833	4
0.59200	-2
0.59567	-3
0.59933	0
0.60300	10
0.60667	17
0.61033	24
0.61400	32
0.61767	40
0.62133	38
0.62500	32
0.62867	23
0.63233	16
0.63600	13
0.63967	12
0.64333	6
0.64700	-2
0.65067	-10
0.65433	-17
0.65800	-21
0.66167	-24
0.66533	-26
0.66900	-27
0.67267	-27
0.67633	-19
0.68000	-9
0.68367	-1
0.68733	4
0.69100	8
0.69467	13
0.69833	16
0.70200	14
0.70567	8
0.70933	1
0.71300	-6
0.71667	-12
0.72033	-14
0.72400	-13
0.72767	-11
0.73133	-10
0.73500	-8
0.73867	-7
0.74233	-6
0.74600	-0
0.74967	5
0.75333	7
0.75700	6
0.76067	9
0.76433	21
0.76800	39
0.77167	58
0.77533	73
0.77900	74
0.78267	65
0.78633	55
0.79000	47
0.79367	39
0.79733	29
0.80100	19
0.80467	8
0.80833	-1
0.81200	-3
0.81567	2
0.81933	8
0.82300	13
0.82667	15
0.83033	12
0.83400	11
0.83767	13
0.84133	14
0.84500	17
0.84867	25
0.85233	35
0.85600	43
0.85967	49
0.86333	51
0.86700	49
0.87067	41
0.87433	30
0.87800	22
0.88167	19
0.88533	19
0.88900	17
0.89267	14
0.89633	14
0.90000	18
0.90367	26
0.90733	33
0.91100	38
0.91467	37
0.91833	33
0.92200	27
0.92567	24
0.92933	21
0.93300	19
0.93667	16
0.94033	16
0.94400	15
0.94767	14
0.95133	14
0.95500	12
0.95867	8
0.96233	3
0.96600	0
0.96967	3
0.97333	7
0.97700	9
0.98067	9
0.98433	13
0.98800	21
0.99167	29
0.99533	39
0.99900	49
1.00267	53
1.00633	49
1.01000	42
1.01367	34
1.01733	28
1.02100	26
1.02467	24
1.02833	20
1.03200	13
1.03567	2
1.03933	-4
1.04300	-3
1.04667	-1
1.05033	2
1.05400	3
1.05767	4
1.06133	6
1.06500	3
1.06867	-5
1.07233	-10
1.07600	-13
1.07967	-17
1.08333	-18
1.08700	-15
1.09067	-9
1.09433	0
1.09800	9
1.10167	12
1.10533	11
1.10900	8
1.11267	6
1.11633	5
1.12000	4
1.12367	7
1.12733	7
1.13100	4
1.13467	2
1.13833	1
1.14200	1
1.14567	1
1.14933	-2
1.15300	-3
1.15667	-2
1.16033	-2
1.16400	-4
1.16767	-5
1.17133	-7
1.17500	-12
1.17867	-20
1.18233	-30
1.18600	-33
1.18967	-29
1.19333	-23
1.19700	-15
1.20067	-3
1.20433	5
1.20800	8
1.21167	8
1.21533	4
1.21900	0
1.22267	0
1.22633	1
1.23000	0
1.23367	-5
1.23733	-13
1.24100	-22
1.24467	-27
1.24833	-29
1.25200	-30
1.25567	-27
1.25933	-24
1.26300	-22
1.26667	-23
1.27033	-18
1.27400	-10
1.27767	-4
1.28133	0
1.28500	-4
1.28867	-13
1.29233	-19
1.29600	-22
1.29967	-20
1.30333	-16
1.30700	-15
1.31067	-18
1.31433	-27
1.31800	-35
1.32167	-38
1.32533	-37
1.32900	-37
1.33267	-38
1.33633	-39
1.34000	-40
1.34367	-42
1.34733	-41
1.35100	-39
1.35467	-36
1.35833	-32
1.36200	-28
1.36567	-28
1.36933	-32
1.37300	-35
1.37667	-37
1.38033	-36
1.38400	-38
1.38767	-42
1.39133	-43
1.39500	-41
1.39867	-39
1.40233	-34
1.40600	-29
1.40967	-32
1.41333	-41
1.41700	-46
1.42067	-45
1.42433	-44
1.42800	-43
1.43167	-43
1.43533	-39
1.43900	-24
1.44267	27
1.44633	208
1.45000	709
1.45367	1852
1.45733	3814
1.46100	6258
1.46467	8627
1.46833	10560
1.47200	11891
1.47567	12506
1.47933	12288
1.48300	11226
1.48667	9529
1.49033	7550
1.49400	5633
1.49767	3998
1.50133	2720
1.50500	1777
1.50867	1109
1.51233	653
1.51600	347
1.51967	147
1.52333	18
1.52700	-64
1.53067	-120
1.53433	-157
1.53800	-175
1.54167	-148
1.54533	-25
1.54900	230
1.55267	589
1.55633	973
1.56000	1314
1.56367	1573
1.56733	1725
1.57100	1748
1.57467	1620
1.57833	1368
1.58200	1054
1.58567	742
1.58933	472
1.59300	266
1.59667	124
1.60033	30
1.60400	-33
1.60767	-74
1.61133	-103
1.61500	-125
1.61867	-137
1.62233	-140
1.62600	-137
1.62967	-135
1.63333	-136
1.63700	-137
1.64067	-136
1.64433	-134
1.64800	-126
1.65167	-120
1.65533	-116
1.65900	-117
1.66267	-119
1.66633	-123
1.67000	-125
1.67367	-125
1.67733	-123
1.68100	-116
1.68467	-109
1.68833	-105
1.69200	-102
1.69567	-104
1.69933	-106
1.70300	-106
1.70667	-109
1.71033	-112
1.71400	-111
1.71767	-110
1.72133	-112
1.72500	-118
1.72867	-126
1.73233	-128
1.73600	-126
1.73967	-122
1.74333	-119
1.74700	-118
1.75067	-120
1.75433	-124
1.75800	-129
1.76167	-125
1.76533	-119
1.76900	-116
1.77267	-114
1.77633	-115
1.78000	-114
1.78367	-111
1.78733	-107
1.79100	-100
1.79467	-91
1.79833	-83
1.80200	-82
1.80567	-90
1.80933	-99
1.81300	-105
1.81667	-109
1.82033	-107
1.82400	-106
1.82767	-109
1.83133	-112
1.83500	-111
1.83867	-108
1.84233	-109
1.84600	-109
1.84967	-104
1.85333	-96
1.85700	-87
1.86067	-79
1.86433	-76
1.86800	-79
1.87167	-84
1.87533	-85
1.87900	-90
1.88267	-98
1.88633	-102
1.89000	-96
1.89367	-82
1.89733	-74
1.90100	-73
1.90467	-78
1.90833	-87
1.91200	-98
1.91567	-104
1.91933	-107
1.92300	-106
1.92667	-101
1.93033	-90
1.93400	-78
1.93767	-66
1.94133	-55
1.94500	-48
1.94867	-44
1.95233	-37
1.95600	52
1.95967	656
1.96333	3696
1.96700	15188
1.97067	48304
1.97433	121909
1.97800	249225
1.98167	423797
1.98533	618637
1.98900	798698
1.99267	933916
1.99633	1004909
2.00000	1003270
2.00367	933371
2.00733	812249
2.01100	664665
2.01467	515336
2.01833	382264
2.02200	274163
2.02567	192086
2.02933	132727
2.03300	91216
2.03667	62826
2.04033	43670
2.04400	30812
2.04767	22173
2.05133	16329
2.05500	12334
2.05867	9567
2.06233	7612
2.06600	6198
2.06967	5157
2.07333	4373
2.07700	3766
2.08067	3292
2.08433	2912
2.08800	2603
2.09167	2349
2.09533	2134
2.09900	1952
2.10267	1796
2.10633	1659
2.11000	1540
2.11367	1434
2.11733	1339
2.12100	1254
2.12467	1174
2.12833	1100
2.13200	1038
2.13567	984
2.13933	935
2.14300	889
2.14667	848
2.15033	809
2.15400	772
2.15767	734
2.16133	697
2.16500	665
2.16867	635
2.17233	608
2.17600	582
2.17967	558
2.18333	537
2.18700	519
2.19067	503
2.19433	492
2.19800	480
2.20167	470
2.20533	457
2.20900	443
2.21267	429
2.21633	416
2.22000	407
2.22367	396
2.22733	388
2.23100	381
2.23467	376
2.23833	371
2.24200	362
2.24567	352
2.24933	340
2.25300	326
2.25667	318
2.26033	312
2.26400	304
2.26767	294
2.27133	285
2.27500	280
2.27867	280
2.28233	279
2.28600	280
2.28967	280
2.29333	277
2.29700	269
2.30067	260
2.30433	253
2.30800	250
2.31167	247
2.31533	244
2.31900	242
2.32267	243
2.32633	244
2.33000	246
2.33367	250
2.33733	248
2.34100	246
2.34467	245
2.34833	246
2.35200	246
2.35567	245
2.35933	232
2.36300	218
2.36667	209
2.37033	203
2.37400	202
2.37767	204
2.38133	209
2.38500	213
2.38867	215
2.39233	215
2.39600	214
2.39967	216
2.40333	213
2.40700	208
2.41067	205
2.41433	202
2.41800	198
2.42167	192
2.42533	189
2.42900	187
2.43267	183
2.43633	181
2.44000	181
2.44367	182
2.44733	183
2.45100	186
2.45467	195
2.45833	202
2.46200	206
2.46567	206
2.46933	205
2.47300	202
2.47667	197
2.48033	197
2.48400	197
2.48767	197
2.49133	198
2.49500	197
2.49867	194
2.50233	193
2.50600	186
2.50967	171
2.51333	158
2.51700	149
2.52067	146
2.52433	148
2.52800	155
2.53167	166
2.53533	176
2.53900	179
2.54267	176
2.54633	175
2.55000	174
2.55367	177
2.55733	180
2.56100	182
2.56467	182
2.56833	181
2.57200	180
2.57567	182
2.57933	187
2.58300	191
2.58667	193
2.59033	192
2.59400	190
2.59767	185
2.60133	186
2.60500	195
2.60867	202
2.61233	204
2.61600	200
2.61967	196
2.62333	194
2.62700	190
2.63067	184
2.63433	173
2.63800	161
2.64167	151
2.64533	148
2.64900	151
2.65267	154
2.65633	158
2.66000	163
2.66367	170
2.66733	174
2.67100	176
2.67467	181
2.67833	183
2.68200	177
2.68567	168
2.68933	164
2.69300	168
2.69667	177
2.70033	187
2.70400	198
2.70767	204
2.71133	203
2.71500	205
2.71867	216
2.72233	226
2.72600	225
2.72967	218
2.73333	212
2.73700	208
2.74067	204
2.74433	202
2.74800	202
2.75167	203
2.75533	202
2.75900	199
2.76267	199
2.76633	201
2.77000	204
2.77367	208
2.77733	212
2.78100	214
2.78467	220
2.78833	224
2.79200	224
2.79567	225
2.79933	229
2.80300	236
2.80667	234
2.81033	227
2.81400	222
2.81767	221
2.82133	223
2.82500	228
2.82867	229
2.83233	230
2.83600	228
2.83967	227
2.84333	224
2.84700	222
2.85067	220
2.85433	221
2.85800	226
2.86167	231
2.86533	235
2.86900	239
2.87267	246
2.87633	252
2.88000	257
2.88367	259
2.88733	254
2.89100	244
2.89467	232
2.89833	227
2.90200	228
2.90567	233
2.90933	236
2.91300	240
2.91667	241
2.92033	238
2.92400	237
2.92767	237
2.93133	237
2.93500	235
2.93867	233
2.94233	229
2.94600	230
2.94967	235
2.95333	241
2.95700	244
2.96067	240
2.96433	240
2.96800	246
2.97167	250
2.97533	248
2.97900	243
2.98267	240
2.98633	239
2.99000	247
2.99367	259
2.99733	269
3.00100	274
3.00467	274
3.00833	268
3.01200	257
3.01567	246
3.01933	238
3.02300	231
3.02667	232
3.03033	235
3.03400	238
3.03767	240
3.04133	243
3.04500	243
3.04867	241
3.05233	240
3.05600	242
3.05967	246
3.06333	249
3.06700	246
3.07067	249
3.07433	260
3.07800	272
3.08167	278
3.08533	276
3.08900	269
3.09267	262
3.09633	259
3.10000	253
3.10367	246
3.10733	237
3.11100	231
3.11467	227
3.11833	227
3.12200	231
3.12567	231
3.12933	232
3.13300	235
3.13667	240
3.14033	242
3.14400	242
3.14767	242
3.15133	244
3.15500	254
3.15867	265
3.16233	270
3.16600	265
3.16967	255
3.17333	247
3.17700	244
3.18067	246
3.18433	250
3.18800	247
3.19167	248
3.19533	251
3.19900	255
3.20267	256
3.20633	251
3.21000	250
3.21367	249
3.21733	248
3.22100	248
3.22467	251
3.22833	252
3.23200	249
3.23567	246
3.23933	242
3.24300	241
3.24667	243
3.25033	246
3.25400	254
3.25767	263
3.26133	268
3.26500	265
3.26867	259
3.27233	254
3.27600	253
3.27967	255
3.28333	260
3.28700	260
3.29067	256
3.29433	253
3.29800	252
3.30167	256
3.30533	264
3.30900	272
3.31267	275
3.31633	273
3.32000	267
3.32367	259
3.32733	250
3.33100	241
3.33467	235
3.33833	230
3.34200	227
3.34567	225
3.34933	220
3.35300	216
3.35667	215
3.36033	213
3.36400	216
3.36767	224
3.37133	234
3.37500	243
3.37867	245
3.38233	245
3.38600	244
3.38967	244
3.39333	245
3.39700	249
3.40067	254
3.40433	254
3.40800	252
3.41167	245
3.41533	237
3.41900	231
3.42267	231
3.42633	234
3.43000	237
3.43367	237
3.43733	234
3.44100	230
3.44467	226
3.44833	223
3.45200	222
3.45567	222
3.45933	223
3.46300	231
3.46667	237
3.47033	236
3.47400	231
3.47767	227
3.48133	223
3.48500	221
3.48867	219
3.49233	219
3.49600	221
3.49967	221
3.50333	220
3.50700	218
3.51067	218
3.51433	217
3.51800	215
3.52167	211
3.52533	206
3.52900	204
3.53267	205
3.53633	208
3.54000	216
3.54367	224
3.54733	231
3.55100	231
3.55467	224
3.55833	213
3.56200	205
3.56567	202
3.56933	199
3.57300	199
3.57667	204
3.58033	207
3.58400	212
3.58767	222
3.59133	234
3.59500	240
3.59867	239
3.60233	230
3.60600	215
3.60967	203
3.61333	197
3.61700	197
3.62067	193
3.62433	188
3.62800	190
3.63167	199
3.63533	210
3.63900	214
3.64267	212
3.64633	208
3.65000	207
3.65367	205
3.65733	199
3.66100	191
3.66467	180
3.66833	176
3.67200	180
3.67567	190
3.67933	202
3.68300	217
3.68667	227
3.69033	230
3.69400	226
3.69767	217
3.70133	210
3.70500	207
3.70867	206
3.71233	207
3.71600	211
3.71967	213
3.72333	205
3.72700	190
3.73067	177
3.73433	176
3.73800	184
3.74167	193
3.74533	194
3.74900	189
3.75267	183
3.75633	184
3.76000	186
3.76367	188
3.76733	191
3.77100	198
3.77467	205
3.77833	209
3.78200	205
3.78567	197
3.78933	191
3.79300	189
3.79667	193
3.80033	204
3.80400	211
3.80767	206
3.81133	196
3.81500	190
3.81867	188
3.82233	187
3.82600	186
3.82967	187
3.83333	189
3.83700	188
3.84067	184
3.84433	182
3.84800	182
3.85167	179
3.85533	174
3.85900	171
3.86267	175
3.86633	180
3.87000	186
3.87367	190
3.87733	194
3.88100	198
3.88467	202
3.88833	203
3.89200	200
3.89567	194
3.89933	188
3.90300	186
3.90667	182
3.91033	177
3.91400	175
3.91767	173
3.92133	167
3.92500	163
3.92867	164
3.93233	167
3.93600	168
3.93967	163
3.94333	161
3.94700	163
3.95067	165
3.95433	170
3.95800	175
3.96167	178
3.96533	176
3.96900	172
3.97267	171
3.97633	174
3.98000	179
3.98367	181
3.98733	177
3.99100	175
3.99467	174
3.99833	175

[Chromatogram (Ch2)]
Interval(msec)	220
# of Points	1091
Start Time(min)	0.002
End Time(min)	3.998
R.Time (min)	Intensity
0.00167	1
0.00533	1
0.00900	1
0.01267	1
0.01633	1
0.02000	1
0.02367	1
0.02733	1
0.03100	1
0.03467	2
0.03833	2
0.04200	2
0.04567	2
0.04933	2
0.05300	2
0.05667	2
0.06033	2
0.06400	2
0.06767	1
0.07133	1
0.07500	1
0.07867	1
0.08233	1
0.08600	1
0.08967	1
0.09333	1
0.09700	1
0.10067	1
0.10433	1
0.10800	1
0.11167	1
0.11533	1
0.11900	1
0.12267	1
0.12633	1
0.13000	1
0.13367	1
0.13733	2
0.14100	2
0.14467	2
0.14833	2
0.15200	2
0.15567	2
0.15933	2
0.16300	2
0.16667	2
0.17033	2
0.17400	2
0.17767	2
0.18133	2
0.18500	2
0.18867	2
0.19233	1
0.19600	1
0.19967	1
0.20333	1
0.20700	2
0.21067	2
0.21433	2
0.21800	2
0.22167	2
0.22533	2
0.22900	2
0.23267	2
0.23633	2
0.24000	2
0.24367	2
0.24733	2
0.25100	2
0.25467	2
0.25833	3
0.26200	3
0.26567	3
0.26933	3
0.27300	3
0.27667	3
0.28033	4
0.28400	4
0.28767	4
0.29133	5
0.29500	5
0.29867	5
0.30233	5
0.30600	5
0.30967	5
0.31333	5
0.31700	5
0.32067	6
0.32433	5
0.32800	5
0.33167	4
0.33533	4
0.33900	3
0.34267	3
0.34633	3
0.35000	2
0.35367	2
0.35733	2
0.36100	2
0.36467	2
0.36833	2
0.37200	1
0.37567	1
0.37933	1
0.38300	0
0.38667	0
0.39033	0
0.39400	-0
0.39767	-0
0.40133	-0
0.40500	-0
0.40867	-0
0.41233	-0
0.41600	-0
0.41967	-0
0.42333	-0
0.42700	-0
0.43067	-0
0.43433	-0
0.43800	-0
0.44167	-0
0.44533	-0
0.44900	-0
0.45267	-1
0.45633	-1
0.46000	-1
0.46367	-2
0.46733	-1
0.47100	-1
0.47467	-1
0.47833	-1
0.48200	-1
0.48567	-1
0.48933	-1
0.49300	-0
0.49667	-0
0.50033	-0
0.50400	0
0.50767	0
0.51133	0
0.51500	0
0.51867	1
0.52233	1
0.52600	1
0.52967	1
0.53333	1
0.53700	1
0.54067	1
0.54433	1
0.54800	2
0.55167	2
0.55533	1
0.55900	1
0.56267	1
0.56633	1
0.57000	1
0.57367	1
0.57733	1
0.58100	2
0.58467	2
0.58833	2
0.59200	3
0.59567	3
0.59933	3
0.60300	3
0.60667	3
0.61033	3
0.61400	3
0.61767	3
0.62133	3
0.62500	3
0.62867	3
0.63233	2
0.63600	2
0.63967	2
0.64333	1
0.64700	1
0.65067	0
0.65433	0
0.65800	0
0.66167	0
0.66533	0
0.66900	0
0.67267	0
0.67633	1
0.68000	1
0.68367	2
0.68733	2
0.69100	2
0.69467	2
0.69833	1
0.70200	1
0.70567	1
0.70933	1
0.71300	0
0.71667	-0
0.72033	-1
0.72400	-1
0.72767	-1
0.73133	-1
0.73500	-1
0.73867	-1
0.74233	-1
0.74600	-1
0.74967	-1
0.75333	-1
0.75700	-1
0.76067	-1
0.76433	-1
0.76800	-1
0.77167	-1
0.77533	-1
0.77900	-1
0.78267	-1
0.78633	-1
0.79000	-1
0.79367	-1
0.79733	-1
0.80100	-1
0.80467	-0
0.80833	-0
0.81200	-0
0.81567	-0
0.81933	-0
0.82300	-0
0.82667	-0
0.83033	-0
0.83400	-0
0.83767	-0
0.84133	-0
0.84500	-0
0.84867	0
0.85233	0
0.85600	-0
0.85967	-0
0.86333	-0
0.86700	-0
0.87067	-0
0.87433	0
0.87800	0
0.88167	0
0.88533	1
0.88900	1
0.89267	0
0.89633	0
0.90000	0
0.90367	-0
0.90733	-0
0.91100	-0
0.91467	-0
0.91833	-0
0.92200	-0
0.92567	-0
0.92933	-0
0.93300	-0
0.93667	-0
0.94033	-0
0.94400	-0
0.94767	-0
0.95133	-0
0.95500	-0
0.95867	-0
0.96233	-0
0.96600	0
0.96967	0
0.97333	0
0.97700	1
0.98067	1
0.98433	0
0.98800	0
0.99167	0
0.99533	0
0.99900	0
1.00267	0
1.00633	0
1.01000	0
1.01367	-0
1.01733	-0
1.02100	-0
1.02467	-1
1.02833	-1
1.03200	-0
1.03567	-0
1.03933	0
1.04300	0
1.04667	1
1.05033	1
1.05400	1
1.05767	1
1.06133	0
1.06500	0
1.06867	-0
1.07233	-1
1.07600	-1
1.07967	-1
1.08333	-1
1.08700	-1
1.09067	-1
1.09433	-1
1.09800	-2
1.10167	-2
1.10533	-1
1.10900	-1
1.11267	-1
1.11633	-2
1.12000	-2
1.12367	-2
1.12733	-2
1.13100	-3
1.13467	-3
1.13833	-3
1.14200	-2
1.14567	-2
1.14933	-1
1.15300	-1
1.15667	-1
1.16033	-1
1.16400	-1
1.16767	-0
1.17133	0
1.17500	1
1.17867	1
1.18233	1
1.18600	1
1.18967	1
1.19333	1
1.19700	0
1.20067	-0
1.20433	-0
1.20800	-1
1.21167	-1
1.21533	-2
1.21900	-2
1.22267	-2
1.22633	-2
1.23000	-2
1.23367	-2
1.23733	-2
1.24100	-2
1.24467	-2
1.24833	-2
1.25200	-2
1.25567	-2
1.25933	-2
1.26300	-2
1.26667	-2
1.27033	-2
1.27400	-3
1.27767	-3
1.28133	-3
1.28500	-3
1.28867	-3
1.29233	-3
1.29600	-3
1.29967	-3
1.30333	-3
1.30700	-3
1.31067	-3
1.31433	-3
1.31800	-3
1.32167	-3
1.32533	-3
1.32900	-3
1.33267	-3
1.33633	-2
1.34000	-2
1.34367	-2
1.34733	-1
1.35100	-1
1.35467	-1
1.35833	-1
1.36200	-0
1.36567	0
1.36933	0
1.37300	0
1.37667	0
1.38033	0
1.38400	-0
1.38767	-1
1.39133	-1
1.39500	-1
1.39867	-2
1.40233	-2
1.40600	-2
1.40967	-2
1.41333	-3
1.41700	-3
1.42067	-3
1.42433	-3
1.42800	-3
1.43167	-3
1.43533	-2
1.43900	-2
1.44267	-2
1.44633	-1
1.45000	-1
1.45367	-1
1.45733	-1
1.46100	-1
1.46467	-1
1.46833	-1
1.47200	-1
1.47567	-1
1.47933	-1
1.48300	-1
1.48667	-1
1.49033	-1
1.49400	-1
1.49767	-1
1.50133	-1
1.50500	-0
1.50867	-0
1.51233	-0
1.51600	0
1.51967	0
1.52333	0
1.52700	0
1.53067	0
1.53433	-0
1.53800	-0
1.54167	-0
1.54533	-1
1.54900	-1
1.55267	-1
1.55633	-1
1.56000	-1
1.56367	-1
1.56733	-1
1.57100	-1
1.57467	-1
1.57833	-1
1.58200	-1
1.58567	-2
1.58933	-2
1.59300	-3
1.59667	-3
1.60033	-4
1.60400	-6
1.60767	-7
1.61133	-9
1.61500	-11
1.61867	-13
1.62233	-16
1.62600	-19
1.62967	-22
1.63333	-25
1.63700	-29
1.64067	-32
1.64433	-36
1.64800	-40
1.65167	-43
1.65533	-47
1.65900	-50
1.66267	-54
1.66633	-57
1.67000	-61
1.67367	-65
1.67733	-69
1.68100	-74
1.68467	-78
1.68833	-82
1.69200	-86
1.69567	-90
1.69933	-93
1.70300	-96
1.70667	-99
1.71033	-100
1.71400	-102
1.71767	-103
1.72133	-104
1.72500	-104
1.72867	-105
1.73233	-105
1.73600	-106
1.73967	-106
1.74333	-106
1.74700	-107
1.75067	-107
1.75433	-107
1.75800	-107
1.76167	-107
1.76533	-107
1.76900	-107
1.77267	-107
1.77633	-108
1.78000	-108
1.78367	-109
1.78733	-109
1.79100	-110
1.79467	-111
1.79833	-111
1.80200	-111
1.80567	-112
1.80933	-112
1.81300	-112
1.81667	-112
1.82033	-112
1.82400	-112
1.82767	-112
1.83133	-112
1.83500	-112
1.83867	-113
1.84233	-113
1.84600	-113
1.84967	-114
1.85333	-114
1.85700	-114
1.86067	-114
1.86433	-115
1.86800	-115
1.87167	-115
1.87533	-115
1.87900	-114
1.88267	-114
1.88633	-113
1.89000	-112
1.89367	-111
1.89733	-111
1.90100	-110
1.90467	-110
1.90833	-110
1.91200	-110
1.91567	-110
1.91933	-110
1.92300	-110
1.92667	-110
1.93033	-110
1.93400	-110
1.93767	-110
1.94133	-110
1.94500	-111
1.94867	-111
1.95233	-111
1.95600	-110
1.95967	-110
1.96333	-109
1.96700	-108
1.97067	-107
1.97433	-107
1.97800	-107
1.98167	-106
1.98533	-107
1.98900	-107
1.99267	-107
1.99633	-107
2.00000	-106
2.00367	-106
2.00733	-105
2.01100	-104
2.01467	-104
2.01833	-103
2.02200	-103
2.02567	-103
2.02933	-103
2.03300	-103
2.03667	-103
2.04033	-103
2.04400	-102
2.04767	-102
2.05133	-102
2.05500	-102
2.05867	-102
2.06233	-102
2.06600	-102
2.06967	-101
2.07333	-100
2.07700	-100
2.08067	-99
2.08433	-98
2.08800	-98
2.09167	-98
2.09533	-97
2.09900	-97
2.10267	-97
2.10633	-97
2.11000	-97
2.11367	-97
2.11733	-97
2.12100	-97
2.12467	-97
2.12833	-96
2.13200	-96
2.13567	-96
2.13933	-95
2.14300	-95
2.14667	-94
2.15033	-93
2.15400	-93
2.15767	-92
2.16133	-92
2.16500	-92
2.16867	-91
2.17233	-91
2.17600	-91
2.17967	-90
2.18333	-90
2.18700	-90
2.19067	-89
2.19433	-89
2.19800	-89
2.20167	-89
2.20533	-89
2.20900	-88
2.21267	-88
2.21633	-87
2.22000	-86
2.22367	-86
2.22733	-85
2.23100	-85
2.23467	-85
2.23833	-85
2.24200	-84
2.24567	-83
2.24933	-82
2.25300	-81
2.25667	-81
2.26033	-81
2.26400	-82
2.26767	-82
2.27133	-83
2.27500	-83
2.27867	-83
2.28233	-83
2.28600	-83
2.28967	-82
2.29333	-82
2.29700	-81
2.30067	-81
2.30433	-81
2.30800	-80
2.31167	-79
2.31533	-78
2.31900	-78
2.32267	-77
2.32633	-78
2.33000	-79
2.33367	-80
2.33733	-80
2.34100	-81
2.34467	-81
2.34833	-81
2.35200	-80
2.35567	-78
2.35933	-77
2.36300	-75
2.36667	-73
2.37033	-70
2.37400	-67
2.37767	-63
2.38133	-59
2.38500	-55
2.38867	-51
2.39233	-47
2.39600	-42
2.39967	-37
2.40333	-33
2.40700	-28
2.41067	-24
2.41433	-21
2.41800	-18
2.42167	-15
2.42533	-13
2.42900	-11
2.43267	-9
2.43633	-7
2.44000	-6
2.44367	-6
2.44733	-6
2.45100	-6
2.45467	-6
2.45833	-5
2.46200	-4
2.46567	-3
2.46933	-2
2.47300	-1
2.47667	-0
2.48033	1
2.48400	2
2.48767	3
2.49133	5
2.49500	6
2.49867	7
2.50233	8
2.50600	9
2.50967	9
2.51333	9
2.51700	9
2.52067	10
2.52433	10
2.52800	11
2.53167	12
2.53533	12
2.53900	13
2.54267	13
2.54633	13
2.55000	13
2.55367	13
2.55733	13
2.56100	13
2.56467	13
2.56833	13
2.57200	13
2.57567	13
2.57933	14
2.58300	14
2.58667	15
2.59033	15
2.59400	15
2.59767	16
2.60133	16
2.60500	16
2.60867	16
2.61233	17
2.61600	17
2.61967	17
2.62333	17
2.62700	18
2.63067	18
2.63433	18
2.63800	18
2.64167	19
2.64533	20
2.64900	21
2.65267	21
2.65633	21
2.66000	21
2.66367	21
2.66733	20
2.67100	20
2.67467	20
2.67833	20
2.68200	20
2.68567	20
2.68933	20
2.69300	20
2.69667	20
2.70033	21
2.70400	21
2.70767	22
2.71133	22
2.71500	23
2.71867	23
2.72233	23
2.72600	23
2.72967	23
2.73333	23
2.73700	23
2.74067	23
2.74433	23
2.74800	23
2.75167	24
2.75533	24
2.75900	25
2.76267	26
2.76633	26
2.77000	27
2.77367	27
2.77733	28
2.78100	28
2.78467	29
2.78833	29
2.79200	29
2.79567	28
2.79933	28
2.80300	28
2.80667	27
2.81033	27
2.81400	27
2.81767	27
2.82133	27
2.82500	27
2.82867	27
2.83233	26
2.83600	26
2.83967	26
2.84333	25
2.84700	23
2.85067	19
2.85433	13
2.85800	4
2.86167	-8
2.86533	-24
2.86900	-45
2.87267	-69
2.87633	-98
2.88000	-132
2.88367	-169
2.88733	-211
2.89100	-256
2.89467	-303
2.89833	-354
2.90200	-406
2.90567	-460
2.90933	-514
2.91300	-569
2.91667	-624
2.92033	-679
2.92400	-733
2.92767	-785
2.93133	-836
2.93500	-889
2.93867	-945
2.94233	-1004
2.94600	-1056
2.94967	-1090
2.95333	-1100
2.95700	-1084
2.96067	-1045
2.96433	-987
2.96800	-917
2.97167	-839
2.97533	-758
2.97900	-678
2.98267	-601
2.98633	-529
2.99000	-463
2.99367	-402
2.99733	-347
3.00100	-298
3.00467	-255
3.00833	-218
3.01200	-185
3.01567	-156
3.01933	-132
3.02300	-111
3.02667	-92
3.03033	-77
3.03400	-63
3.03767	-52
3.04133	-42
3.04500	-34
3.04867	-26
3.05233	-20
3.05600	-15
3.05967	-11
3.06333	-7
3.06700	-4
3.07067	-1
3.07433	1
3.07800	3
3.08167	4
3.08533	6
3.08900	8
3.09267	9
3.09633	10
3.10000	11
3.10367	12
3.10733	12
3.11100	13
3.11467	13
3.11833	14
3.12200	14
3.12567	15
3.12933	15
3.13300	16
3.13667	16
3.14033	16
3.14400	17
3.14767	17
3.15133	18
3.15500	18
3.15867	18
3.16233	18
3.16600	18
3.16967	18
3.17333	19
3.17700	19
3.18067	19
3.18433	19
3.18800	19
3.19167	19
3.19533	20
3.19900	20
3.20267	20
3.20633	20
3.21000	21
3.21367	21
3.21733	21
3.22100	22
3.22467	22
3.22833	22
3.23200	22
3.23567	22
3.23933	22
3.24300	22
3.24667	22
3.25033	22
3.25400	22
3.25767	23
3.26133	23
3.26500	23
3.26867	23
3.27233	23
3.27600	23
3.27967	23
3.28333	23
3.28700	24
3.29067	24
3.29433	24
3.29800	24
3.30167	24
3.30533	25
3.30900	25
3.31267	25
3.31633	25
3.32000	26
3.32367	26
3.32733	26
3.33100	26
3.33467	26
3.33833	25
3.34200	25
3.34567	25
3.34933	25
3.35300	25
3.35667	26
3.36033	26
3.36400	26
3.36767	26
3.37133	26
3.37500	26
3.37867	27
3.38233	27
3.38600	27
3.38967	27
3.39333	27
3.39700	27
3.40067	27
3.40433	27
3.40800	27
3.41167	27
3.41533	27
3.41900	27
3.42267	27
3.42633	27
3.43000	27
3.43367	27
3.43733	28
3.44100	28
3.44467	28
3.44833	29
3.45200	29
3.45567	29
3.45933	30
3.46300	30
3.46667	30
3.47033	30
3.47400	30
3.47767	30
3.48133	30
3.48500	30
3.48867	30
3.49233	30
3.49600	30
3.49967	29
3.50333	29
3.50700	29
3.51067	29
3.51433	29
3.51800	28
3.52167	28
3.52533	28
3.52900	28
3.53267	28
3.53633	28
3.54000	28
3.54367	28
3.54733	28
3.55100	28
3.55467	28
3.55833	28
3.56200	29
3.56567	29
3.56933	29
3.57300	29
3.57667	29
3.58033	28
3.58400	28
3.58767	28
3.59133	28
3.59500	28
3.59867	28
3.60233	28
3.60600	28
3.60967	28
3.61333	28
3.61700	28
3.62067	28
3.62433	28
3.62800	27
3.63167	27
3.63533	28
3.63900	28
3.64267	28
3.64633	28
3.65000	28
3.65367	28
3.65733	27
3.66100	27
3.66467	27
3.66833	27
3.67200	27
3.67567	27
3.67933	27
3.68300	27
3.68667	27
3.69033	27
3.69400	27
3.69767	27
3.70133	27
3.70500	27
3.70867	27
3.71233	27
3.71600	27
3.71967	27
3.72333	27
3.72700	27
3.73067	27
3.73433	27
3.73800	27
3.74167	27
3.74533	27
3.74900	27
3.75267	28
3.75633	28
3.76000	28
3.76367	28
3.76733	28
3.77100	28
3.77467	29
3.77833	29
3.78200	29
3.78567	29
3.78933	29
3.79300	30
3.79667	30
3.80033	30
3.80400	29
3.80767	29
3.81133	29
3.81500	29
3.81867	29
3.82233	28
3.82600	28
3.82967	28
3.83333	28
3.83700	28
3.84067	28
3.84433	28
3.84800	28
3.85167	27
3.85533	27
3.85900	27
3.86267	27
3.86633	27
3.87000	27
3.87367	27
3.87733	27
3.88100	27
3.88467	27
3.88833	27
3.89200	27
3.89567	27
3.89933	28
3.90300	28
3.90667	28
3.91033	28
3.91400	28
3.91767	28
3.92133	28
3.92500	28
3.92867	28
3.93233	28
3.93600	28
3.93967	28
3.94333	28
3.94700	28
3.95067	27
3.95433	27
3.95800	27
3.96167	27
3.96533	27
3.96900	27
3.97267	27
3.97633	27
3.98000	27
3.98367	27
3.98733	27
3.99100	27
3.99467	27
3.99833	27

[Chromatogram (Ch3)]
Interval(msec)	220
# of Points	1091
Start Time(min)	0.002
End Time(min)	3.998
R.Time (min)	Intensity
0.00167	-0
0.00533	-1
0.00900	-1
0.01267	-2
0.01633	-1
0.02000	-1
0.02367	-3
0.02733	-3
0.03100	-3
0.03467	-2
0.03833	-2
0.04200	-3
0.04567	-3
0.04933	-3
0.05300	-2
0.05667	-3
0.06033	-5
0.06400	-6
0.06767	-5
0.07133	-3
0.07500	-5
0.07867	-7
0.08233	-6
0.08600	-5
0.08967	-2
0.09333	-1
0.09700	-2
0.10067	-2
0.10433	-4
0.10800	-6
0.11167	-6
0.11533	-5
0.11900	-3
0.12267	-3
0.12633	-2
0.13000	-1
0.13367	-2
0.13733	-4
0.14100	-7
0.14467	-7
0.14833	-6
0.15200	-6
0.15567	-4
0.15933	-3
0.16300	-3
0.16667	-4
0.17033	-4
0.17400	-2
0.17767	-1
0.18133	1
0.18500	1
0.18867	1
0.19233	-1
0.19600	-2
0.19967	-3
0.20333	-3
0.20700	-3
0.21067	-3
0.21433	-2
0.21800	-2
0.22167	-3
0.22533	-1
0.22900	0
0.23267	-0
0.23633	-1
0.24000	-1
0.24367	-0
0.24733	-1
0.25100	-3
0.25467	-6
0.25833	-9
0.26200	-9
0.26567	-7
0.26933	-4
0.27300	-3
0.27667	-4
0.28033	-4
0.28400	-5
0.28767	-7
0.29133	-7
0.29500	-5
0.29867	-4
0.30233	-3
0.30600	-2
0.30967	-1
0.31333	-3
0.31700	-5
0.32067	-6
0.32433	-5
0.32800	-5
0.33167	-7
0.33533	-7
0.33900	-7
0.34267	-6
0.34633	-4
0.35000	-3
0.35367	-3
0.35733	-2
0.36100	-3
0.36467	-4
0.36833	-3
0.37200	-2
0.37567	-3
0.37933	-2
0.38300	-2
0.38667	-4
0.39033	-5
0.39400	-3
0.39767	-1
0.40133	-0
0.40500	1
0.40867	1
0.41233	2
0.41600	0
0.41967	-2
0.42333	-3
0.42700	-3
0.43067	-4
0.43433	-3
0.43800	-1
0.44167	-1
0.44533	-2
0.44900	-3
0.45267	-5
0.45633	-6
0.46000	-7
0.46367	-8
0.46733	-8
0.47100	-6
0.47467	-3
0.47833	-2
0.48200	-0
0.48567	-1
0.48933	-2
0.49300	-2
0.49667	-5
0.50033	-5
0.50400	-3
0.50767	-1
0.51133	-1
0.51500	-2
0.51867	-3
0.52233	-2
0.52600	-1
0.52967	-2
0.53333	-3
0.53700	-0
0.54067	-0
0.54433	-1
0.54800	-0
0.55167	-0
0.55533	0
0.55900	-1
0.56267	-0
0.56633	0
0.57000	0
0.57367	-1
0.57733	-2
0.58100	-3
0.58467	-4
0.58833	-3
0.59200	-3
0.59567	-4
0.59933	-3
0.60300	-3
0.60667	-3
0.61033	-2
0.61400	-4
0.61767	-4
0.62133	-4
0.62500	-2
0.62867	-0
0.63233	0
0.63600	0
0.63967	1
0.64333	2
0.64700	3
0.65067	4
0.65433	4
0.65800	2
0.66167	1
0.66533	-1
0.66900	-2
0.67267	-0
0.67633	0
0.68000	1
0.68367	2
0.68733	1
0.69100	1
0.69467	-1
0.69833	-0
0.70200	1
0.70567	2
0.70933	1
0.71300	2
0.71667	1
0.72033	-1
0.72400	-2
0.72767	0
0.73133	2
0.73500	2
0.73867	2
0.74233	3
0.74600	5
0.74967	9
0.75333	10
0.75700	8
0.76067	5
0.76433	3
0.76800	2
0.77167	3
0.77533	3
0.77900	4
0.78267	5
0.78633	7
0.79000	7
0.79367	7
0.79733	7
0.80100	8
0.80467	8
0.80833	4
0.81200	0
0.81567	-2
0.81933	1
0.82300	7
0.82667	8
0.83033	7
0.83400	6
0.83767	7
0.84133	7
0.84500	5
0.84867	5
0.85233	4
0.85600	3
0.85967	3
0.86333	4
0.86700	7
0.87067	7
0.87433	7
0.87800	7
0.88167	8
0.88533	8
0.88900	9
0.89267	12
0.89633	13
0.90000	11
0.90367	7
0.90733	6
0.91100	4
0.91467	5
0.91833	8
0.92200	13
0.92567	15
0.92933	17
0.93300	16
0.93667	15
0.94033	13
0.94400	15
0.94767	17
0.95133	16
0.95500	15
0.95867	14
0.96233	15
0.96600	15
0.96967	14
0.97333	13
0.97700	15
0.98067	18
0.98433	19
0.98800	20
0.99167	20
0.99533	21
0.99900	21
1.00267	22
1.00633	23
1.01000	25
1.01367	25
1.01733	24
1.02100	21
1.02467	19
1.02833	18
1.03200	18
1.03567	16
1.03933	17
1.04300	18
1.04667	18
1.05033	20
1.05400	22
1.05767	23
1.06133	24
1.06500	24
1.06867	23
1.07233	23
1.07600	21
1.07967	19
1.08333	19
1.08700	19
1.09067	18
1.09433	18
1.09800	20
1.10167	22
1.10533	23
1.10900	24
1.11267	21
1.11633	19
1.12000	19
1.12367	19
1.12733	19
1.13100	18
1.13467	20
1.13833	20
1.14200	19
1.14567	17
1.14933	16
1.15300	17
1.15667	18
1.16033	20
1.16400	22
1.16767	20
1.17133	17
1.17500	15
1.17867	14
1.18233	16
1.18600	17
1.18967	17
1.19333	17
1.19700	18
1.20067	20
1.20433	22
1.20800	22
1.21167	22
1.21533	20
1.21900	20
1.22267	21
1.22633	22
1.23000	21
1.23367	20
1.23733	20
1.24100	19
1.24467	18
1.24833	19
1.25200	21
1.25567	22
1.25933	22
1.26300	22
1.26667	22
1.27033	22
1.27400	21
1.27767	20
1.28133	19
1.28500	20
1.28867	21
1.29233	20
1.29600	18
1.29967	19
1.30333	21
1.30700	24
1.31067	26
1.31433	24
1.31800	22
1.32167	21
1.32533	19
1.32900	18
1.33267	18
1.33633	19
1.34000	18
1.34367	20
1.34733	22
1.35100	22
1.35467	19
1.35833	16
1.36200	15
1.36567	16
1.36933	16
1.37300	15
1.37667	14
1.38033	16
1.38400	18
1.38767	20
1.39133	22
1.39500	23
1.39867	24
1.40233	25
1.40600	24
1.40967	24
1.41333	24
1.41700	23
1.42067	23
1.42433	25
1.42800	27
1.43167	28
1.43533	26
1.43900	24
1.44267	22
1.44633	22
1.45000	23
1.45367	23
1.45733	24
1.46100	26
1.46467	27
1.46833	27
1.47200	27
1.47567	29
1.47933	28
1.48300	27
1.48667	25
1.49033	25
1.49400	24
1.49767	23
1.50133	24
1.50500	25
1.50867	26
1.51233	27
1.51600	27
1.51967	24
1.52333	23
1.52700	24
1.53067	23
1.53433	22
1.53800	22
1.54167	21
1.54533	18
1.54900	21
1.55267	24
1.55633	24
1.56000	24
1.56367	25
1.56733	25
1.57100	24
1.57467	23
1.57833	23
1.58200	23
1.58567	24
1.58933	25
1.59300	24
1.59667	27
1.60033	29
1.60400	28
1.60767	28
1.61133	28
1.61500	30
1.61867	31
1.62233	32
1.62600	31
1.62967	29
1.63333	28
1.63700	27
1.64067	27
1.64433	28
1.64800	28
1.65167	27
1.65533	29
1.65900	31
1.66267	34
1.66633	35
1.67000	35
1.67367	34
1.67733	36
1.68100	37
1.68467	37
1.68833	37
1.69200	39
1.69567	39
1.69933	39
1.70300	38
1.70667	37
1.71033	36
1.71400	36
1.71767	36
1.72133	36
1.72500	36
1.72867	37
1.73233	40
1.73600	42
1.73967	42
1.74333	44
1.74700	46
1.75067	48
1.75433	49
1.75800	48
1.76167	48
1.76533	48
1.76900	47
1.77267	47
1.77633	48
1.78000	49
1.78367	51
1.78733	52
1.79100	53
1.79467	53
1.79833	53
1.80200	53
1.80567	52
1.80933	53
1.81300	55
1.81667	57
1.82033	56
1.82400	56
1.82767	56
1.83133	57
1.83500	58
1.83867	60
1.84233	62
1.84600	64
1.84967	64
1.85333	63
1.85700	63
1.86067	65
1.86433	64
1.86800	64
1.87167	65
1.87533	65
1.87900	64
1.88267	65
1.88633	64
1.89000	66
1.89367	68
1.89733	69
1.90100	69
1.90467	71
1.90833	73
1.91200	78
1.91567	79
1.91933	80
1.92300	79
1.92667	79
1.93033	79
1.93400	78
1.93767	77
1.94133	76
1.94500	78
1.94867	79
1.95233	81
1.95600	84
1.95967	86
1.96333	87
1.96700	88
1.97067	90
1.97433	91
1.97800	92
1.98167	92
1.98533	91
1.98900	92
1.99267	93
1.99633	94
2.00000	94
2.00367	96
2.00733	98
2.01100	101
2.01467	104
2.01833	108
2.02200	108
2.02567	109
2.02933	110
2.03300	111
2.03667	110
2.04033	109
2.04400	111
2.04767	114
2.05133	116
2.05500	116
2.05867	116
2.06233	116
2.06600	116
2.06967	117
2.07333	120
2.07700	122
2.08067	125
2.08433	125
2.08800	126
2.09167	127
2.09533	129
2.09900	130
2.10267	130
2.10633	130
2.11000	133
2.11367	137
2.11733	138
2.12100	141
2.12467	143
2.12833	147
2.13200	152
2.13567	155
2.13933	154
2.14300	153
2.14667	154
2.15033	155
2.15400	157
2.15767	160
2.16133	162
2.16500	163
2.16867	165
2.17233	165
2.17600	165
2.17967	166
2.18333	167
2.18700	169
2.19067	172
2.19433	174
2.19800	173
2.20167	172
2.20533	173
2.20900	173
2.21267	175
2.21633	176
2.22000	178
2.22367	180
2.22733	180
2.23100	180
2.23467	179
2.23833	180
2.24200	181
2.24567	182
2.24933	181
2.25300	182
2.25667	183
2.26033	186
2.26400	187
2.26767	189
2.27133	191
2.27500	193
2.27867	192
2.28233	190
2.28600	189
2.28967	190
2.29333	191
2.29700	193
2.30067	196
2.30433	198
2.30800	201
2.31167	201
2.31533	201
2.31900	201
2.32267	201
2.32633	202
2.33000	204
2.33367	205
2.33733	204
2.34100	203
2.34467	203
2.34833	205
2.35200	207
2.35567	209
2.35933	211
2.36300	214
2.36667	216
2.37033	217
2.37400	216
2.37767	213
2.38133	213
2.38500	212
2.38867	208
2.39233	207
2.39600	208
2.39967	208
2.40333	211
2.40700	213
2.41067	216
2.41433	218
2.41800	221
2.42167	221
2.42533	219
2.42900	217
2.43267	216
2.43633	217
2.44000	222
2.44367	279
2.44733	420
2.45100	569
2.45467	691
2.45833	758
2.46200	761
2.46567	729
2.46933	693
2.47300	667
2.47667	650
2.48033	629
2.48400	597
2.48767	556
2.49133	511
2.49500	469
2.49867	435
2.50233	411
2.50600	397
2.50967	394
2.51333	400
2.51700	415
2.52067	435
2.52433	453
2.52800	462
2.53167	458
2.53533	443
2.53900	420
2.54267	391
2.54633	362
2.55000	336
2.55367	314
2.55733	298
2.56100	284
2.56467	272
2.56833	265
2.57200	260
2.57567	257
2.57933	254
2.58300	251
2.58667	250
2.59033	249
2.59400	247
2.59767	248
2.60133	250
2.60500	250
2.60867	246
2.61233	241
2.61600	235
2.61967	230
2.62333	223
2.62700	215
2.63067	209
2.63433	203
2.63800	196
2.64167	189
2.64533	183
2.64900	177
2.65267	170
2.65633	163
2.66000	153
2.66367	142
2.66733	133
2.67100	127
2.67467	120
2.67833	114
2.68200	110
2.68567	107
2.68933	105
2.69300	103
2.69667	102
2.70033	102
2.70400	101
2.70767	102
2.71133	105
2.71500	108
2.71867	112
2.72233	114
2.72600	117
2.72967	118
2.73333	122
2.73700	124
2.74067	125
2.74433	127
2.74800	128
2.75167	130
2.75533	132
2.75900	135
2.76267	137
2.76633	139
2.77000	145
2.77367	149
2.77733	153
2.78100	157
2.78467	160
2.78833	163
2.79200	164
2.79567	165
2.79933	169
2.80300	174
2.80667	178
2.81033	182
2.81400	188
2.81767	196
2.82133	208
2.82500	229
2.82867	266
2.83233	334
2.83600	452
2.83967	646
2.84333	934
2.84700	1327
2.85067	1814
2.85433	2371
2.85800	2962
2.86167	3542
2.86533	4061
2.86900	4480
2.87267	4771
2.87633	4920
2.88000	4927
2.88367	4810
2.88733	4598
2.89100	4319
2.89467	3996
2.89833	3656
2.90200	3311
2.90567	2975
2.90933	2659
2.91300	2369
2.91667	2106
2.92033	1870
2.92400	1659
2.92767	1468
2.93133	1301
2.93500	1155
2.93867	1025
2.94233	912
2.94600	815
2.94967	732
2.95333	657
2.95700	592
2.96067	536
2.96433	488
2.96800	447
2.97167	412
2.97533	379
2.97900	350
2.98267	327
2.98633	308
2.99000	290
2.99367	274
2.99733	261
3.00100	249
3.00467	238
3.00833	231
3.01200	224
3.01567	216
3.01933	209
3.02300	203
3.02667	200
3.03033	197
3.03400	192
3.03767	189
3.04133	184
3.04500	179
3.04867	178
3.05233	179
3.05600	178
3.05967	176
3.06333	175
3.06700	175
3.07067	175
3.07433	176
3.07800	176
3.08167	176
3.08533	175
3.08900	175
3.09267	176
3.09633	177
3.10000	177
3.10367	177
3.10733	178
3.11100	179
3.11467	181
3.11833	182
3.12200	183
3.12567	182
3.12933	182
3.13300	180
3.13667	180
3.14033	180
3.14400	180
3.14767	180
3.15133	180
3.15500	183
3.15867	188
3.16233	192
3.16600	193
3.16967	193
3.17333	193
3.17700	194
3.18067	194
3.18433	194
3.18800	192
3.19167	192
3.19533	195
3.19900	199
3.20267	202
3.20633	206
3.21000	208
3.21367	210
3.21733	213
3.22100	214
3.22467	216
3.22833	218
3.23200	218
3.23567	217
3.23933	218
3.24300	221
3.24667	222
3.25033	222
3.25400	222
3.25767	224
3.26133	225
3.26500	226
3.26867	228
3.27233	230
3.27600	234
3.27967	237
3.28333	240
3.28700	242
3.29067	242
3.29433	244
3.29800	245
3.30167	247
3.30533	247
3.30900	247
3.31267	249
3.31633	251
3.32000	253
3.32367	254
3.32733	257
3.33100	260
3.33467	262
3.33833	263
3.34200	265
3.34567	265
3.34933	266
3.35300	265
3.35667	266
3.36033	269
3.36400	270
3.36767	272
3.37133	271
3.37500	271
3.37867	273
3.38233	276
3.38600	280
3.38967	285
3.39333	288
3.39700	290
3.40067	292
3.40433	292
3.40800	291
3.41167	291
3.41533	293
3.41900	296
3.42267	298
3.42633	299
3.43000	300
3.43367	301
3.43733	301
3.44100	300
3.44467	302
3.44833	303
3.45200	302
3.45567	303
3.45933	304
3.46300	305
3.46667	304
3.47033	302
3.47400	302
3.47767	305
3.48133	308
3.48500	309
3.48867	307
3.49233	306
3.49600	306
3.49967	306
3.50333	305
3.50700	307
3.51067	309
3.51433	310
3.51800	310
3.52167	310
3.52533	310
3.52900	308
3.53267	306
3.53633	304
3.54000	302
3.54367	299
3.54733	296
3.55100	286
3.55467	269
3.55833	255
3.56200	249
3.56567	246
3.56933	247
3.57300	254
3.57667	267
3.58033	279
3.58400	296
3.58767	314
3.59133	332
3.59500	348
3.59867	364
3.60233	383
3.60600	399
3.60967	416
3.61333	436
3.61700	455
3.62067	474
3.62433	492
3.62800	505
3.63167	516
3.63533	527
3.63900	534
3.64267	540
3.64633	547
3.65000	555
3.65367	561
3.65733	566
3.66100	570
3.66467	576
3.66833	580
3.67200	583
3.67567	586
3.67933	587
3.68300	587
3.68667	588
3.69033	590
3.69400	592
3.69767	593
3.70133	593
3.70500	594
3.70867	595
3.71233	598
3.71600	602
3.71967	604
3.72333	604
3.72700	603
3.73067	602
3.73433	604
3.73800	606
3.74167	607
3.74533	606
3.74900	604
3.75267	602
3.75633	600
3.76000	599
3.76367	601
3.76733	601
3.77100	601
3.77467	602
3.77833	603
3.78200	602
3.78567	601
3.78933	600
3.79300	598
3.79667	597
3.80033	598
3.80400	598
3.80767	595
3.81133	594
3.81500	595
3.81867	595
3.82233	595
3.82600	594
3.82967	592
3.83333	590
3.83700	589
3.84067	588
3.84433	586
3.84800	584
3.85167	583
3.85533	583
3.85900	584
3.86267	586
3.86633	586
3.87000	584
3.87367	585
3.87733	585
3.88100	585
3.88467	584
3.88833	581
3.89200	580
3.89567	580
3.89933	579
3.90300	577
3.90667	574
3.91033	573
3.91400	573
3.91767	572
3.92133	572
3.92500	568
3.92867	566
3.93233	568
3.93600	569
3.93967	570
3.94333	568
3.94700	564
3.95067	563
3.95433	562
3.95800	558
3.96167	556
3.96533	556
3.96900	557
3.97267	556
3.97633	554
3.98000	550
3.98367	550
3.98733	551
3.99100	547
3.99467	542
3.99833	537

[Status Trace (Column Oven Temperature)]
Interval(msec)	1000
# of Points	240
Start Time(min)	0.003
End Time(min)	3.986
Intensity Units	
Intensity Multiplier	1
R.Time (min)	Intensity
0.00293	35.08
0.01960	35.08
0.03627	35.07
0.05293	35.08
0.06960	35.07
0.08627	35.07
0.10293	35.08
0.11960	35.08
0.13627	35.08
0.15293	35.08
0.16960	35.08
0.18627	35.08
0.20293	35.07
0.21960	35.06
0.23627	35.05
0.25293	35.05
0.26960	35.03
0.28627	35.02
0.30293	34.99
0.31960	34.99
0.33627	34.99
0.35293	35.00
0.36960	35.00
0.38627	35.01
0.40293	35.03
0.41960	35.02
0.43627	35.03
0.45293	35.03
0.46960	35.04
0.48627	35.04
0.50293	35.03
0.51960	35.03
0.53627	35.04
0.55293	35.03
0.56960	35.01
0.58627	35.01
0.60293	34.99
0.61960	34.99
0.63627	34.99
0.65293	34.99
0.66960	34.99
0.68627	34.98
0.70293	34.98
0.71960	34.99
0.73627	34.99
0.75293	35.00
0.76960	35.00
0.78627	35.00
0.80293	35.00
0.81960	35.00
0.83627	34.99
0.85293	34.99
0.86960	34.99
0.88627	34.99
0.90293	34.99
0.91960	34.99
0.93627	34.98
0.95293	34.99
0.96960	34.98
0.98627	34.98
1.00293	34.99
1.01960	34.98
1.03627	34.97
1.05293	34.98
1.06960	34.98
1.08627	34.99
1.10293	34.99
1.11960	35.00
1.13627	35.00
1.15293	34.99
1.16960	34.98
1.18627	34.97
1.20293	34.98
1.21960	34.99
1.23627	35.00
1.25293	35.01
1.26960	35.00
1.28627	35.01
1.30293	35.02
1.31960	35.03
1.33627	35.03
1.35293	35.03
1.36960	35.02
1.38627	35.02
1.40293	35.03
1.41960	35.02
1.43627	35.02
1.45293	35.02
1.46960	35.01
1.48627	35.00
1.50293	34.99
1.51960	35.00
1.53627	34.99
1.55293	34.98
1.56960	34.99
1.58627	35.00
1.60293	35.04
1.61960	35.15
1.63627	35.33
1.65293	35.56
1.66960	35.85
1.68627	36.22
1.70293	36.57
1.71960	36.91
1.73627	37.25
1.75293	37.57
1.76960	37.90
1.78627	38.23
1.80293	38.57
1.81960	38.90
1.83627	39.23
1.85293	39.56
1.86960	39.91
1.88627	40.22
1.90293	40.56
1.91960	40.88
1.93627	41.22
1.95293	41.54
1.96960	41.85
1.98627	42.19
2.00293	42.51
2.01960	42.83
2.03627	43.16
2.05293	43.49
2.06960	43.80
2.08627	44.13
2.10293	44.45
2.11960	44.79
2.13627	45.13
2.15293	45.44
2.16960	45.77
2.18627	46.08
2.20293	46.42
2.21960	46.72
2.23627	47.06
2.25293	47.37
2.26960	47.72
2.28627	48.05
2.30293	48.38
2.31960	48.70
2.33627	49.07
2.35293	49.37
2.36960	49.57
2.38627	49.64
2.40293	49.64
2.41960	49.64
2.43627	49.65
2.45293	49.68
2.46960	49.69
2.48627	49.68
2.50293	49.70
2.51960	49.72
2.53627	49.72
2.55293	49.75
2.56960	49.77
2.58627	49.78
2.60293	49.79
2.61960	49.80
2.63627	49.81
2.65293	49.80
2.66960	49.84
2.68627	49.85
2.70293	49.85
2.71960	49.86
2.73627	49.86
2.75293	49.86
2.76960	49.85
2.78627	49.85
2.80293	49.86
2.81960	49.88
2.83627	49.89
2.85293	49.89
2.86960	49.89
2.88627	49.90
2.90293	49.90
2.91960	49.90
2.93627	49.92
2.95293	49.92
2.96960	49.93
2.98627	49.95
3.00293	49.95
3.01960	49.96
3.03627	49.96
3.05293	49.98
3.06960	49.99
3.08627	50.00
3.10293	50.01
3.11960	50.02
3.13627	50.02
3.15293	50.03
3.16960	50.04
3.18627	50.06
3.20293	50.06
3.21960	50.07
3.23627	50.08
3.25293	50.08
3.26960	50.10
3.28627	50.10
3.30293	50.10
3.31960	50.09
3.33627	50.10
3.35293	50.10
3.36960	50.09
3.38627	50.10
3.40293	50.10
3.41960	50.10
3.43627	50.10
3.45293	50.08
3.46960	50.06
3.48627	50.05
3.50293	50.04
3.51960	50.04
3.53627	50.04
3.55293	50.03
3.56960	50.03
3.58627	50.04
3.60293	50.04
3.61960	50.04
3.63627	50.04
3.65293	50.05
3.66960	50.06
3.68627	50.07
3.70293	50.07
3.71960	50.07
3.73627	50.07
3.75293	50.07
3.76960	50.06
3.78627	50.05
3.80293	50.05
3.81960	50.05
3.83627	50.04
3.85293	50.04
3.86960	50.05
3.88627	50.04
3.90293	50.04
3.91960	50.04
3.93627	50.04
3.95293	50.05
3.96960	50.06
3.98627	50.06

[Status Trace (Injection Unit Temperature)]
Interval(msec)	1000
# of Points	240
Start Time(min)	0.003
End Time(min)	3.986
Intensity Units	
Intensity Multiplier	1
R.Time (min)	Intensity
0.00293	99.98
0.01960	99.98
0.03627	99.98
0.05293	99.99
0.06960	99.98
0.08627	99.98
0.10293	99.98
0.11960	99.98
0.13627	99.98
0.15293	99.98
0.16960	99.98
0.18627	99.98
0.20293	99.98
0.21960	99.98
0.23627	99.98
0.25293	99.98
0.26960	99.98
0.28627	99.98
0.30293	99.98
0.31960	99.98
0.33627	99.98
0.35293	99.98
0.36960	99.98
0.38627	99.99
0.40293	99.98
0.41960	99.99
0.43627	99.99
0.45293	99.98
0.46960	99.98
0.48627	99.99
0.50293	99.99
0.51960	99.99
0.53627	99.99
0.55293	99.98
0.56960	99.99
0.58627	99.98
0.60293	99.98
0.61960	99.99
0.63627	99.99
0.65293	99.98
0.66960	99.99
0.68627	99.98
0.70293	99.98
0.71960	99.98
0.73627	99.98
0.75293	99.98
0.76960	99.98
0.78627	99.98
0.80293	99.98
0.81960	99.98
0.83627	99.98
0.85293	99.98
0.86960	99.98
0.88627	99.98
0.90293	99.98
0.91960	99.98
0.93627	99.98
0.95293	99.98
0.96960	99.98
0.98627	99.98
1.00293	99.98
1.01960	99.98
1.03627	99.98
1.05293	99.98
1.06960	99.98
1.08627	99.98
1.10293	99.98
1.11960	99.98
1.13627	99.98
1.15293	99.98
1.16960	99.98
1.18627	99.98
1.20293	99.98
1.21960	99.98
1.23627	99.98
1.25293	99.98
1.26960	99.98
1.28627	99.98
1.30293	99.98
1.31960	99.99
1.33627	99.98
1.35293	99.98
1.36960	99.98
1.38627	99.98
1.40293	99.98
1.41960	99.98
1.43627	99.98
1.45293	99.98
1.46960	99.99
1.48627	99.98
1.50293	99.99
1.51960	99.98
1.53627	99.99
1.55293	99.98
1.56960	99.98
1.58627	99.98
1.60293	99.98
1.61960	99.98
1.63627	99.99
1.65293	99.98
1.66960	99.99
1.68627	99.99
1.70293	99.99
1.71960	99.99
1.73627	99.99
1.75293	99.99
1.76960	99.99
1.78627	99.99
1.80293	99.98
1.81960	99.99
1.83627	99.98
1.85293	99.98
1.86960	99.98
1.88627	99.98
1.90293	99.99
1.91960	99.98
1.93627	99.98
1.95293	99.98
1.96960	99.98
1.98627	99.98
2.00293	99.98
2.01960	99.98
2.03627	99.98
2.05293	99.98
2.06960	99.98
2.08627	99.97
2.10293	99.97
2.11960	99.97
2.13627	99.97
2.15293	99.97
2.16960	99.97
2.18627	99.97
2.20293	99.96
2.21960	99.97
2.23627	99.96
2.25293	99.96
2.26960	99.96
2.28627	99.96
2.30293	99.96
2.31960	99.96
2.33627	99.96
2.35293	99.96
2.36960	99.96
2.38627	99.96
2.40293	99.96
2.41960	99.96
2.43627	99.95
2.45293	99.96
2.46960	99.96
2.48627	99.96
2.50293	99.96
2.51960	99.96
2.53627	99.97
2.55293	99.97
2.56960	99.97
2.58627	99.97
2.60293	99.97
2.61960	99.98
2.63627	99.97
2.65293	99.98
2.66960	99.98
2.68627	99.98
2.70293	99.98
2.71960	99.98
2.73627	99.98
2.75293	99.99
2.76960	99.99
2.78627	99.99
2.80293	99.99
2.81960	100.00
2.83627	100.00
2.85293	100.00
2.86960	100.00
2.88627	100.01
2.90293	100.01
2.91960	100.01
2.93627	100.01
2.95293	100.01
2.96960	100.01
2.98627	100.01
3.00293	100.01
3.01960	100.01
3.03627	100.02
3.05293	100.02
3.06960	100.02
3.08627	100.02
3.10293	100.02
3.11960	100.03
3.13627	100.02
3.15293	100.02
3.16960	100.02
3.18627	100.03
3.20293	100.03
3.21960	100.03
3.23627	100.03
3.25293	100.03
3.26960	100.03
3.28627	100.03
3.30293	100.03
3.31960	100.03
3.33627	100.03
3.35293	100.03
3.36960	100.03
3.38627	100.03
3.40293	100.03
3.41960	100.03
3.43627	100.03
3.45293	100.03
3.46960	100.03
3.48627	100.03
3.50293	100.03
3.51960	100.04
3.53627	100.03
3.55293	100.03
3.56960	100.04
3.58627	100.03
3.60293	100.03
3.61960	100.04
3.63627	100.03
3.65293	100.04
3.66960	100.04
3.68627	100.04
3.70293	100.03
3.71960	100.04
3.73627	100.04
3.75293	100.04
3.76960	100.04
3.78627	100.04
3.80293	100.03
3.81960	100.03
3.83627	100.03
3.85293	100.04
3.86960	100.04
3.88627	100.04
3.90293	100.04
3.91960	100.04
3.93627	100.03
3.95293	100.04
3.96960	100.03
3.98627	100.03

[Status Trace (Carrier Gas Pressure)]
Interval(msec)	1000
# of Points	240
Start Time(min)	0.003
End Time(min)	3.986
Intensity Units	
Intensity Multiplier	1
R.Time (min)	Intensity
0.00293	58.00
0.01960	56.25
0.03627	56.40
0.05293	58.69
0.06960	59.84
0.08627	58.25
0.10293	57.97
0.11960	58.01
0.13627	58.01
0.15293	58.01
0.16960	58.00
0.18627	58.00
0.20293	58.00
0.21960	58.00
0.23627	58.00
0.25293	58.00
0.26960	58.00
0.28627	58.00
0.30293	58.00
0.31960	58.00
0.33627	58.00
0.35293	58.00
0.36960	58.00
0.38627	58.00
0.40293	58.00
0.41960	58.00
0.43627	58.00
0.45293	58.00
0.46960	58.00
0.48627	58.00
0.50293	58.00
0.51960	58.00
0.53627	58.00
0.55293	58.00
0.56960	58.00
0.58627	58.00
0.60293	58.00
0.61960	58.00
0.63627	58.00
0.65293	58.00
0.66960	58.00
0.68627	58.00
0.70293	58.00
0.71960	58.00
0.73627	58.00
0.75293	58.00
0.76960	58.00
0.78627	58.00
0.80293	58.00
0.81960	58.00
0.83627	58.00
0.85293	58.00
0.86960	58.00
0.88627	58.00
0.90293	58.00
0.91960	58.00
0.93627	58.00
0.95293	58.00
0.96960	58.00
0.98627	58.00
1.00293	58.00
1.01960	58.00
1.03627	58.00
1.05293	58.00
1.06960	58.00
1.08627	58.00
1.10293	58.00
1.11960	58.00
1.13627	58.00
1.15293	58.00
1.16960	58.00
1.18627	58.00
1.20293	58.00
1.21960	58.00
1.23627	58.00
1.25293	58.00
1.26960	58.00
1.28627	58.00
1.30293	58.00
1.31960	58.00
1.33627	58.00
1.35293	58.00
1.36960	58.00
1.38627	58.00
1.40293	58.00
1.41960	58.00
1.43627	58.00
1.45293	58.00
1.46960	58.00
1.48627	58.00
1.50293	58.00
1.51960	58.00
1.53627	58.00
1.55293	58.00
1.56960	58.00
1.58627	58.00
1.60293	58.00
1.61960	58.00
1.63627	58.01
1.65293	58.00
1.66960	58.00
1.68627	58.01
1.70293	58.00
1.71960	58.00
1.73627	58.00
1.75293	58.00
1.76960	58.00
1.78627	58.00
1.80293	58.00
1.81960	58.00
1.83627	58.00
1.85293	58.00
1.86960	58.00
1.88627	58.00
1.90293	58.00
1.91960	58.00
1.93627	58.00
1.95293	58.00
1.96960	58.00
1.98627	58.00
2.00293	58.00
2.01960	58.00
2.03627	58.00
2.05293	58.00
2.06960	58.00
2.08627	58.00
2.10293	58.00
2.11960	58.00
2.13627	58.00
2.15293	58.00
2.16960	58.00
2.18627	58.00
2.20293	58.00
2.21960	58.00
2.23627	58.00
2.25293	58.00
2.26960	58.00
2.28627	58.00
2.30293	58.00
2.31960	58.00
2.33627	58.00
2.35293	58.00
2.36960	58.00
2.38627	57.99
2.40293	57.99
2.41960	58.00
2.43627	58.00
2.45293	58.00
2.46960	58.00
2.48627	58.00
2.50293	57.96
2.51960	58.02
2.53627	57.99
2.55293	58.00
2.56960	58.00
2.58627	58.00
2.60293	58.00
2.61960	58.00
2.63627	58.00
2.65293	58.00
2.66960	58.00
2.68627	58.00
2.70293	58.00
2.71960	58.00
2.73627	58.00
2.75293	58.00
2.76960	58.00
2.78627	58.00
2.80293	58.00
2.81960	58.00
2.83627	58.00
2.85293	58.00
2.86960	58.00
2.88627	58.00
2.90293	58.00
2.91960	58.00
2.93627	58.00
2.95293	58.00
2.96960	58.00
2.98627	58.00
3.00293	58.00
3.01960	58.00
3.03627	58.00
3.05293	58.00
3.06960	58.00
3.08627	58.00
3.10293	58.00
3.11960	58.00
3.13627	58.00
3.15293	58.00
3.16960	58.00
3.18627	58.00
3.20293	58.00
3.21960	58.00
3.23627	58.00
3.25293	58.00
3.26960	58.00
3.28627	58.00
3.30293	58.00
3.31960	58.00
3.33627	58.00
3.35293	58.00
3.36960	58.00
3.38627	58.00
3.40293	58.00
3.41960	58.00
3.43627	58.00
3.45293	58.00
3.46960	58.00
3.48627	58.00
3.50293	58.00
3.51960	58.00
3.53627	58.00
3.55293	58.00
3.56960	58.00
3.58627	58.00
3.60293	58.00
3.61960	58.00
3.63627	58.00
3.65293	58.00
3.66960	58.00
3.68627	58.00
3.70293	58.00
3.71960	58.00
3.73627	58.00
3.75293	58.00
3.76960	58.00
3.78627	58.00
3.80293	58.00
3.81960	58.00
3.83627	58.00
3.85293	58.00
3.86960	58.00
3.88627	58.00
3.90293	58.00
3.91960	58.00
3.93627	58.00
3.95293	58.00
3.96960	58.00
3.98627	58.00

[Status Trace (Carrier Gas Flow)]
Interval(msec)	1000
# of Points	240
Start Time(min)	0.003
End Time(min)	3.986
Intensity Units	
Intensity Multiplier	1
R.Time (min)	Intensity
0.00293	34.52
0.01960	34.57
0.03627	34.54
0.05293	34.55
0.06960	34.49
0.08627	34.51
0.10293	34.53
0.11960	34.52
0.13627	34.52
0.15293	34.52
0.16960	34.52
0.18627	34.52
0.20293	34.52
0.21960	34.53
0.23627	34.52
0.25293	34.52
0.26960	34.52
0.28627	34.52
0.30293	34.52
0.31960	34.52
0.33627	34.52
0.35293	34.53
0.36960	34.51
0.38627	34.52
0.40293	34.51
0.41960	34.52
0.43627	34.51
0.45293	34.52
0.46960	34.52
0.48627	34.52
0.50293	34.52
0.51960	34.52
0.53627	34.52
0.55293	34.52
0.56960	34.51
0.58627	34.51
0.60293	34.52
0.61960	34.52
0.63627	34.51
0.65293	34.52
0.66960	34.52
0.68627	34.52
0.70293	34.51
0.71960	34.52
0.73627	34.52
0.75293	34.52
0.76960	34.53
0.78627	34.52
0.80293	34.51
0.81960	34.52
0.83627	34.52
0.85293	34.52
0.86960	34.52
0.88627	34.52
0.90293	34.52
0.91960	34.52
0.93627	34.52
0.95293	34.52
0.96960	34.51
0.98627	34.52
1.00293	34.53
1.01960	34.52
1.03627	34.52
1.05293	34.52
1.06960	34.52
1.08627	34.52
1.10293	34.52
1.11960	34.52
1.13627	34.52
1.15293	34.52
1.16960	34.52
1.18627	34.52
1.20293	34.52
1.21960	34.52
1.23627	34.52
1.25293	34.52
1.26960	34.52
1.28627	34.51
1.30293	34.53
1.31960	34.52
1.33627	34.51
1.35293	34.52
1.36960	34.52
1.38627	34.52
1.40293	34.51
1.41960	34.52
1.43627	34.52
1.45293	34.52
1.46960	34.52
1.48627	34.52
1.50293	34.52
1.51960	34.52
1.53627	34.52
1.55293	34.52
1.56960	34.52
1.58627	34.52
1.60293	34.52
1.61960	34.52
1.63627	34.52
1.65293	34.52
1.66960	34.51
1.68627	34.52
1.70293	34.52
1.71960	34.52
1.73627	34.52
1.75293	34.52
1.76960	34.51
1.78627	34.52
1.80293	34.52
1.81960	34.52
1.83627	34.52
1.85293	34.51
1.86960	34.52
1.88627	34.52
1.90293	34.52
1.91960	34.52
1.93627	34.52
1.95293	34.51
1.96960	34.52
1.98627	34.52
2.00293	34.52
2.01960	34.51
2.03627	34.52
2.05293	34.52
2.06960	34.52
2.08627	34.52
2.10293	34.52
2.11960	34.52
2.13627	34.52
2.15293	34.52
2.16960	34.52
2.18627	34.52
2.20293	34.52
2.21960	34.52
2.23627	34.51
2.25293	34.52
2.26960	34.52
2.28627	34.52
2.30293	34.52
2.31960	34.52
2.33627	34.52
2.35293	34.52
2.36960	34.52
2.38627	34.52
2.40293	34.52
2.41960	34.52
2.43627	34.52
2.45293	34.52
2.46960	34.51
2.48627	34.51
2.50293	34.70
2.51960	34.52
2.53627	34.52
2.55293	34.51
2.56960	34.52
2.58627	34.52
2.60293	34.52
2.61960	34.52
2.63627	34.52
2.65293	34.52
2.66960	34.51
2.68627	34.52
2.70293	34.52
2.71960	34.52
2.73627	34.52
2.75293	34.51
2.76960	34.52
2.78627	34.52
2.80293	34.52
2.81960	34.52
2.83627	34.52
2.85293	34.52
2.86960	34.52
2.88627	34.52
2.90293	34.52
2.91960	34.52
2.93627	34.51
2.95293	34.52
2.96960	34.52
2.98627	34.52
3.00293	34.52
3.01960	34.52
3.03627	34.52
3.05293	34.51
3.06960	34.52
3.08627	34.52
3.10293	34.52
3.11960	34.52
3.13627	34.52
3.15293	34.52
3.16960	34.52
3.18627	34.52
3.20293	34.52
3.21960	34.52
3.23627	34.52
3.25293	34.52
3.26960	34.52
3.28627	34.52
3.30293	34.52
3.31960	34.52
3.33627	34.52
3.35293	34.52
3.36960	34.52
3.38627	34.52
3.40293	34.52
3.41960	34.52
3.43627	34.52
3.45293	34.52
3.46960	34.51
3.48627	34.52
3.50293	34.52
3.51960	34.52
3.53627	34.53
3.55293	34.52
3.56960	34.52
3.58627	34.52
3.60293	34.52
3.61960	34.52
3.63627	34.52
3.65293	34.52
3.66960	34.52
3.68627	34.52
3.70293	34.52
3.71960	34.52
3.73627	34.52
3.75293	34.52
3.76960	34.52
3.78627	34.51
3.80293	34.52
3.81960	34.52
3.83627	34.52
3.85293	34.52
3.86960	34.53
3.88627	34.52
3.90293	34.51
3.91960	34.52
3.93627	34.53
3.95293	34.51
3.96960	34.52
3.98627	34.53

[Status Trace (Column Flow)]
Interval(msec)	1000
# of Points	240
Start Time(min)	0.003
End Time(min)	3.986
Intensity Units	
Intensity Multiplier	1
R.Time (min)	Intensity
0.00293	5.53
0.01960	5.33
0.03627	5.34
0.05293	5.61
0.06960	5.75
0.08627	5.56
0.10293	5.53
0.11960	5.53
0.13627	5.53
0.15293	5.53
0.16960	5.53
0.18627	5.53
0.20293	5.53
0.21960	5.53
0.23627	5.53
0.25293	5.53
0.26960	5.53
0.28627	5.53
0.30293	5.53
0.31960	5.53
0.33627	5.53
0.35293	5.53
0.36960	5.53
0.38627	5.53
0.40293	5.53
0.41960	5.53
0.43627	5.53
0.45293	5.53
0.46960	5.53
0.48627	5.53
0.50293	5.53
0.51960	5.53
0.53627	5.53
0.55293	5.53
0.56960	5.53
0.58627	5.53
0.60293	5.53
0.61960	5.53
0.63627	5.53
0.65293	5.53
0.66960	5.53
0.68627	5.53
0.70293	5.53
0.71960	5.53
0.73627	5.53
0.75293	5.53
0.76960	5.53
0.78627	5.53
0.80293	5.53
0.81960	5.53
0.83627	5.53
0.85293	5.53
0.86960	5.53
0.88627	5.53
0.90293	5.53
0.91960	5.53
0.93627	5.53
0.95293	5.53
0.96960	5.53
0.98627	5.53
1.00293	5.53
1.01960	5.53
1.03627	5.53
1.05293	5.53
1.06960	5.53
1.08627	5.53
1.10293	5.53
1.11960	5.53
1.13627	5.53
1.15293	5.53
1.16960	5.53
1.18627	5.53
1.20293	5.53
1.21960	5.53
1.23627	5.53
1.25293	5.53
1.26960	5.53
1.28627	5.53
1.30293	5.53
1.31960	5.53
1.33627	5.53
1.35293	5.53
1.36960	5.53
1.38627	5.53
1.40293	5.53
1.41960	5.53
1.43627	5.53
1.45293	5.53
1.46960	5.53
1.48627	5.53
1.50293	5.53
1.51960	5.53
1.53627	5.53
1.55293	5.53
1.56960	5.53
1.58627	5.53
1.60293	5.53
1.61960	5.53
1.63627	5.52
1.65293	5.52
1.66960	5.51
1.68627	5.49
1.70293	5.48
1.71960	5.47
1.73627	5.46
1.75293	5.45
1.76960	5.44
1.78627	5.43
1.80293	5.42
1.81960	5.41
1.83627	5.40
1.85293	5.39
1.86960	5.38
1.88627	5.37
1.90293	5.36
1.91960	5.35
1.93627	5.34
1.95293	5.33
1.96960	5.32
1.98627	5.31
2.00293	5.30
2.01960	5.29
2.03627	5.28
2.05293	5.27
2.06960	5.26
2.08627	5.26
2.10293	5.25
2.11960	5.24
2.13627	5.23
2.15293	5.22
2.16960	5.21
2.18627	5.20
2.20293	5.19
2.21960	5.18
2.23627	5.17
2.25293	5.16
2.26960	5.15
2.28627	5.14
2.30293	5.13
2.31960	5.12
2.33627	5.11
2.35293	5.11
2.36960	5.10
2.38627	5.10
2.40293	5.10
2.41960	5.10
2.43627	5.10
2.45293	5.10
2.46960	5.10
2.48627	5.10
2.50293	5.09
2.51960	5.10
2.53627	5.10
2.55293	5.10
2.56960	5.09
2.58627	5.09
2.60293	5.09
2.61960	5.09
2.63627	5.09
2.65293	5.09
2.66960	5.09
2.68627	5.09
2.70293	5.09
2.71960	5.09
2.73627	5.09
2.75293	5.09
2.76960	5.09
2.78627	5.09
2.80293	5.09
2.81960	5.09
2.83627	5.09
2.85293	5.09
2.86960	5.09
2.88627	5.09
2.90293	5.09
2.91960	5.09
2.93627	5.09
2.95293	5.09
2.96960	5.09
2.98627	5.09
3.00293	5.09
3.01960	5.09
3.03627	5.09
3.05293	5.09
3.06960	5.09
3.08627	5.09
3.10293	5.09
3.11960	5.09
3.13627	5.09
3.15293	5.09
3.16960	5.09
3.18627	5.09
3.20293	5.09
3.21960	5.09
3.23627	5.09
3.25293	5.09
3.26960	5.09
3.28627	5.09
3.30293	5.09
3.31960	5.09
3.33627	5.09
3.35293	5.09
3.36960	5.09
3.38627	5.09
3.40293	5.09
3.41960	5.09
3.43627	5.09
3.45293	5.09
3.46960	5.09
3.48627	5.09
3.50293	5.09
3.51960	5.09
3.53627	5.09
3.55293	5.09
3.56960	5.09
3.58627	5.09
3.60293	5.09
3.61960	5.09
3.63627	5.09
3.65293	5.09
3.66960	5.09
3.68627	5.09
3.70293	5.09
3.71960	5.09
3.73627	5.09
3.75293	5.09
3.76960	5.09
3.78627	5.09
3.80293	5.09
3.81960	5.09
3.83627	5.09
3.85293	5.09
3.86960	5.09
3.88627	5.09
3.90293	5.09
3.91960	5.09
3.93627	5.09
3.95293	5.09
3.96960	5.09
3.98627	5.09

[Status Trace (Linear Velocity)]
Interval(msec)	1000
# of Points	240
Start Time(min)	0.003
End Time(min)	3.986
Intensity Units	
Intensity Multiplier	1
R.Time (min)	Intensity
0.00293	39.01
0.01960	37.87
0.03627	37.96
0.05293	39.46
0.06960	40.22
0.08627	39.18
0.10293	38.99
0.11960	39.01
0.13627	39.02
0.15293	39.02
0.16960	39.01
0.18627	39.01
0.20293	39.01
0.21960	39.01
0.23627	39.02
0.25293	39.02
0.26960	39.02
0.28627	39.02
0.30293	39.02
0.31960	39.02
0.33627	39.02
0.35293	39.02
0.36960	39.02
0.38627	39.02
0.40293	39.02
0.41960	39.02
0.43627	39.02
0.45293	39.02
0.46960	39.02
0.48627	39.02
0.50293	39.02
0.51960	39.02
0.53627	39.02
0.55293	39.02
0.56960	39.02
0.58627	39.02
0.60293	39.02
0.61960	39.02
0.63627	39.02
0.65293	39.02
0.66960	39.02
0.68627	39.02
0.70293	39.02
0.71960	39.02
0.73627	39.02
0.75293	39.02
0.76960	39.02
0.78627	39.02
0.80293	39.02
0.81960	39.02
0.83627	39.02
0.85293	39.02
0.86960	39.02
0.88627	39.02
0.90293	39.02
0.91960	39.02
0.93627	39.02
0.95293	39.02
0.96960	39.02
0.98627	39.02
1.00293	39.02
1.01960	39.02
1.03627	39.02
1.05293	39.02
1.06960	39.02
1.08627	39.02
1.10293	39.02
1.11960	39.02
1.13627	39.02
1.15293	39.02
1.16960	39.02
1.18627	39.02
1.20293	39.02
1.21960	39.02
1.23627	39.02
1.25293	39.02
1.26960	39.02
1.28627	39.02
1.30293	39.02
1.31960	39.02
1.33627	39.02
1.35293	39.02
1.36960	39.02
1.38627	39.02
1.40293	39.02
1.41960	39.02
1.43627	39.02
1.45293	39.02
1.46960	39.02
1.48627	39.02
1.50293	39.02
1.51960	39.02
1.53627	39.02
1.55293	39.02
1.56960	39.02
1.58627	39.02
1.60293	39.02
1.61960	39.01
1.63627	38.99
1.65293	38.97
1.66960	38.94
1.68627	38.91
1.70293	38.87
1.71960	38.84
1.73627	38.80
1.75293	38.77
1.76960	38.74
1.78627	38.71
1.80293	38.68
1.81960	38.65
1.83627	38.62
1.85293	38.59
1.86960	38.55
1.88627	38.52
1.90293	38.49
1.91960	38.46
1.93627	38.43
1.95293	38.40
1.96960	38.37
1.98627	38.34
2.00293	38.31
2.01960	38.28
2.03627	38.25
2.05293	38.22
2.06960	38.19
2.08627	38.16
2.10293	38.13
2.11960	38.10
2.13627	38.07
2.15293	38.04
2.16960	38.01
2.18627	37.98
2.20293	37.96
2.21960	37.93
2.23627	37.90
2.25293	37.87
2.26960	37.84
2.28627	37.81
2.30293	37.78
2.31960	37.75
2.33627	37.72
2.35293	37.69
2.36960	37.67
2.38627	37.66
2.40293	37.66
2.41960	37.66
2.43627	37.67
2.45293	37.66
2.46960	37.66
2.48627	37.66
2.50293	37.64
2.51960	37.68
2.53627	37.66
2.55293	37.66
2.56960	37.66
2.58627	37.65
2.60293	37.65
2.61960	37.65
2.63627	37.65
2.65293	37.65
2.66960	37.65
2.68627	37.65
2.70293	37.65
2.71960	37.65
2.73627	37.65
2.75293	37.65
2.76960	37.65
2.78627	37.65
2.80293	37.65
2.81960	37.65
2.83627	37.65
2.85293	37.64
2.86960	37.64
2.88627	37.64
2.90293	37.64
2.91960	37.64
2.93627	37.64
2.95293	37.64
2.96960	37.64
2.98627	37.64
3.00293	37.64
3.01960	37.64
3.03627	37.64
3.05293	37.64
3.06960	37.64
3.08627	37.64
3.10293	37.63
3.11960	37.63
3.13627	37.63
3.15293	37.63
3.16960	37.63
3.18627	37.63
3.20293	37.63
3.21960	37.63
3.23627	37.63
3.25293	37.63
3.26960	37.63
3.28627	37.63
3.30293	37.63
3.31960	37.63
3.33627	37.63
3.35293	37.63
3.36960	37.63
3.38627	37.63
3.40293	37.63
3.41960	37.63
3.43627	37.63
3.45293	37.63
3.46960	37.63
3.48627	37.63
3.50293	37.63
3.51960	37.63
3.53627	37.63
3.55293	37.63
3.56960	37.63
3.58627	37.63
3.60293	37.63
3.61960	37.63
3.63627	37.63
3.65293	37.63
3.66960	37.63
3.68627	37.63
3.70293	37.63
3.71960	37.63
3.73627	37.63
3.75293	37.63
3.76960	37.63
3.78627	37.63
3.80293	37.63
3.81960	37.63
3.83627	37.63
3.85293	37.63
3.86960	37.63
3.88627	37.63
3.90293	37.63
3.91960	37.63
3.93627	37.63
3.95293	37.63
3.96960	37.63
3.98627	37.63

