[Header]
Application Name	LabSolutions
Version	5.110
Data File Name	C:\Users\User\Desktop\GC Analyses\Jack\Nachusa Grasslands Sampling\T3 Timepoint July 12th\T3_07122022_025.gcd
Output Date	3/14/2023
Output Time	3:43:31 PM

[File Information]
Type	Data File
Generated	3/13/2023 5:11:23 PM
Generated by	System Administrator
Modified	3/13/2023 5:18:15 PM
Modified by	System Administrator

[Sample Information]
Operator Name	System Administrator
Acquired	3/13/2023 5:14:14 PM
Sample Type	0:Unknown
Level	0
Sample Name	025
Sample ID	025
ISTD Amount1	1
ISTD Amount2	1
ISTD Amount3	1
ISTD Amount4	1
ISTD Amount5	1
ISTD Amount6	1
ISTD Amount7	1
ISTD Amount8	1
ISTD Amount9	1
ISTD Amount10	1
ISTD Amount11	1
ISTD Amount12	1
ISTD Amount13	1
ISTD Amount14	1
ISTD Amount15	1
ISTD Amount16	1
ISTD Amount17	1
ISTD Amount18	1
ISTD Amount19	1
ISTD Amount20	1
ISTD Amount21	1
ISTD Amount22	1
ISTD Amount23	1
ISTD Amount24	1
ISTD Amount25	1
ISTD Amount26	1
ISTD Amount27	1
ISTD Amount28	1
ISTD Amount29	1
ISTD Amount30	1
ISTD Amount31	1
ISTD Amount32	1
Sample Amount	1
Dilution Factor	1
Vial#	24
Injection Volume	1
Injection Count	1
Bar Code	

[Original Files]
Data File	C:\Users\User\Desktop\GC Analyses\Jack\Nachusa Grasslands Sampling\T3 Timepoint July 12th\T3_07122022_025.gcd
Method File	C:\LabSolutions\Data\GHG_4min_2022\ghg3_togas_w_acet_4 min_new_int.gcm
Batch File	C:\LabSolutions\Data\AutoSamplerTesting\T3_07122022.gcb
Report Format File	c:\LabSolutions\System\DEFAULT.lsr

[File Description]


[Configuration]
Instrument Name	C0B7VH3-Instrument1
Instrument #	1
Line #	1
# of Detectors	3
Detector ID	DET#1	DET#2	DET#3
Detector Name	FID	PTCD	ECD
# of Channels	1	1	1

[Peak Table(Ch1)]
# of Peaks	3
Peak#	R.Time	I.Time	F.Time	Area	Height	A/H	Conc.	Mark	ID#	Name	k'	Plate #	Plate Ht.	Tailing	Resolution	Sep.Factor	Area Ratio	Height Ratio	Conc. %	Norm Conc.
1	1.476	1.443	1.531	22767	11300	2.015	160.733	   	1	CO	0.000	9593	15.637	1.207	0.000	0.000	0	0	12.853	12.853
2	1.571	1.538	1.608	3805	2016	1.887	73.565	   	2	CH4	0.065	12233	12.262	1.066	1.628	0.000	0	0	5.883	5.883
3	1.996	1.949	2.389	4049271	1956463	2.070	1016.257	   	3	CO2	0.353	17316	8.663	1.305	7.240	5.462	0	0	81.264	81.264

[Peak Table(Ch2)]
# of Peaks	0

[Peak Table(Ch3)]
# of Peaks	5
Peak#	R.Time	I.Time	F.Time	Area	Height	A/H	Conc.	Mark	ID#	Name	k'	Plate #	Plate Ht.	Tailing	Resolution	Sep.Factor	Area Ratio	Height Ratio	Conc. %	Norm Conc.
1	2.458	2.330	2.510	1855	561	3.308	0.000	   			0.000	10744	13.961	0.000	0.000	0.000	0	0	0.000	0.000
2	2.528	2.510	2.590	1037	311	3.339	0.000	 V 			0.028	5538	27.086	0.000	0.604	0.000	0	0	0.000	0.000
3	2.598	2.590	2.667	298	150	1.983	0.000	 V 			0.057	1637	91.657	0.000	0.355	2.000	0	0	0.000	0.000
4	2.880	2.781	3.067	18017	4765	3.781	0.460	   	1	N2O	0.172	13320	11.261	1.515	1.583	3.026	0	0	100.000	100.000
5	3.338	3.151	3.962	15199	537	28.296	0.000	   	2	SF6	0.358	275	546.444	2.123	1.012	2.087	0	0	0.000	0.000

[Compound Results(Ch1)]
# of IDs	6
ID#	Name	R.Time	Area	Height	Conc.	Curve	3rd	2nd	1st	Constant	Area Ratio	Height Ratio	Conc. %	Norm Conc.
1	CO	1.476	22767	11300	160.733	Linear	0.000000e+00	0.000000e+00	1.416423e+002	0.000000e+00	0	0	12.853	12.853
2	CH4	1.571	3805	2016	73.565	Linear	0.000000e+00	0.000000e+00	5.171738e+001	0.000000e+00	0	0	5.883	5.883
3	CO2	1.996	4049271	1956463	1016.257	Linear	0.000000e+00	0.000000e+00	3.984494e+003	0.000000e+00	0	0	81.264	81.264
4	Ethylene	0.000	0	0	0.000	Linear	0.000000e+00	0.000000e+00	0.000000e+00	0.000000e+00	0	0	0.000	0.000
5	Acetylene	0.000	0	0	0.000	Linear	0.000000e+00	0.000000e+00	0.000000e+00	0.000000e+00	0	0	0.000	0.000
6	Ethane	0.000	0	0	0.000	Linear	0.000000e+00	0.000000e+00	0.000000e+00	0.000000e+00	0	0	0.000	0.000

[Compound Results(Ch2)]
# of IDs	5
ID#	Name	R.Time	Area	Height	Conc.	Curve	3rd	2nd	1st	Constant	Area Ratio	Height Ratio	Conc. %	Norm Conc.
1	Hydrogen	0.000	0	0	0.000	Linear	0.000000e+00	0.000000e+00	0.000000e+00	0.000000e+00	0	0	0.000	0.000
2	Oxygen	0.000	0	0	0.000	Linear	0.000000e+00	0.000000e+00	0.000000e+00	0.000000e+00	0	0	0.000	0.000
3	Nitrogen	0.000	0	0	0.000	Linear	0.000000e+00	0.000000e+00	0.000000e+00	0.000000e+00	0	0	0.000	0.000
4	Methane	0.000	0	0	0.000	Linear	0.000000e+00	0.000000e+00	0.000000e+00	0.000000e+00	0	0	0.000	0.000
5	Carbon Monoxide	0.000	0	0	0.000	Linear	0.000000e+00	0.000000e+00	0.000000e+00	0.000000e+00	0	0	0.000	0.000

[Compound Results(Ch3)]
# of IDs	2
ID#	Name	R.Time	Area	Height	Conc.	Curve	3rd	2nd	1st	Constant	Area Ratio	Height Ratio	Conc. %	Norm Conc.
1	N2O	2.880	18017	4765	0.460	Linear	0.000000e+00	0.000000e+00	3.915173e+004	0.000000e+00	0	0	100.000	100.000
2	SF6	3.338	15199	537	0.000	Linear	0.000000e+00	0.000000e+00	0.000000e+00	0.000000e+00	0	0	0.000	0.000

[Group Results(Ch1)]
# of Groups	0

[Group Results(Ch2)]
# of Groups	0

[Group Results(Ch3)]
# of Groups	0

[Chromatogram (Ch1)]
Interval(msec)	220
# of Points	1091
Start Time(min)	0.002
End Time(min)	3.998
R.Time (min)	Intensity
0.00167	4
0.00533	18
0.00900	27
0.01267	34
0.01633	37
0.02000	36
0.02367	28
0.02733	15
0.03100	10
0.03467	5
0.03833	4
0.04200	2
0.04567	3
0.04933	9
0.05300	14
0.05667	19
0.06033	24
0.06400	25
0.06767	25
0.07133	26
0.07500	30
0.07867	38
0.08233	44
0.08600	41
0.08967	36
0.09333	31
0.09700	26
0.10067	24
0.10433	23
0.10800	22
0.11167	22
0.11533	26
0.11900	34
0.12267	42
0.12633	45
0.13000	42
0.13367	37
0.13733	29
0.14100	25
0.14467	18
0.14833	10
0.15200	6
0.15567	11
0.15933	19
0.16300	24
0.16667	22
0.17033	14
0.17400	5
0.17767	-2
0.18133	-6
0.18500	-5
0.18867	-2
0.19233	4
0.19600	8
0.19967	11
0.20333	12
0.20700	8
0.21067	-0
0.21433	-11
0.21800	-24
0.22167	-35
0.22533	-40
0.22900	-39
0.23267	-35
0.23633	-27
0.24000	-23
0.24367	-18
0.24733	-15
0.25100	-17
0.25467	-20
0.25833	-19
0.26200	-12
0.26567	-5
0.26933	-1
0.27300	1
0.27667	5
0.28033	7
0.28400	8
0.28767	7
0.29133	-0
0.29500	-7
0.29867	-3
0.30233	7
0.30600	17
0.30967	26
0.31333	27
0.31700	24
0.32067	24
0.32433	22
0.32800	16
0.33167	13
0.33533	11
0.33900	12
0.34267	15
0.34633	18
0.35000	22
0.35367	27
0.35733	30
0.36100	35
0.36467	36
0.36833	33
0.37200	28
0.37567	24
0.37933	23
0.38300	21
0.38667	19
0.39033	16
0.39400	11
0.39767	8
0.40133	0
0.40500	-9
0.40867	-15
0.41233	-15
0.41600	-6
0.41967	2
0.42333	4
0.42700	2
0.43067	1
0.43433	11
0.43800	18
0.44167	22
0.44533	23
0.44900	22
0.45267	22
0.45633	18
0.46000	14
0.46367	14
0.46733	18
0.47100	27
0.47467	35
0.47833	41
0.48200	42
0.48567	39
0.48933	36
0.49300	35
0.49667	33
0.50033	24
0.50400	15
0.50767	9
0.51133	12
0.51500	14
0.51867	12
0.52233	13
0.52600	19
0.52967	26
0.53333	31
0.53700	37
0.54067	42
0.54433	44
0.54800	41
0.55167	33
0.55533	25
0.55900	20
0.56267	13
0.56633	7
0.57000	1
0.57367	-2
0.57733	-2
0.58100	2
0.58467	7
0.58833	13
0.59200	15
0.59567	16
0.59933	18
0.60300	22
0.60667	26
0.61033	29
0.61400	30
0.61767	26
0.62133	22
0.62500	19
0.62867	15
0.63233	17
0.63600	20
0.63967	25
0.64333	28
0.64700	28
0.65067	22
0.65433	13
0.65800	2
0.66167	-7
0.66533	-10
0.66900	-0
0.67267	13
0.67633	29
0.68000	41
0.68367	48
0.68733	44
0.69100	32
0.69467	17
0.69833	5
0.70200	-4
0.70567	-4
0.70933	6
0.71300	18
0.71667	24
0.72033	21
0.72400	12
0.72767	3
0.73133	-3
0.73500	-8
0.73867	-8
0.74233	-4
0.74600	1
0.74967	3
0.75333	4
0.75700	11
0.76067	18
0.76433	20
0.76800	16
0.77167	13
0.77533	11
0.77900	13
0.78267	18
0.78633	20
0.79000	21
0.79367	20
0.79733	20
0.80100	20
0.80467	19
0.80833	19
0.81200	14
0.81567	5
0.81933	-2
0.82300	-0
0.82667	3
0.83033	3
0.83400	4
0.83767	5
0.84133	3
0.84500	-2
0.84867	-5
0.85233	-6
0.85600	-5
0.85967	-6
0.86333	-5
0.86700	1
0.87067	6
0.87433	8
0.87800	16
0.88167	27
0.88533	36
0.88900	45
0.89267	52
0.89633	53
0.90000	46
0.90367	35
0.90733	21
0.91100	7
0.91467	-8
0.91833	-16
0.92200	-19
0.92567	-12
0.92933	-1
0.93300	9
0.93667	11
0.94033	10
0.94400	8
0.94767	4
0.95133	2
0.95500	-1
0.95867	-6
0.96233	-9
0.96600	-11
0.96967	-10
0.97333	-5
0.97700	-0
0.98067	5
0.98433	5
0.98800	-0
0.99167	-4
0.99533	-9
0.99900	-13
1.00267	-14
1.00633	-12
1.01000	-6
1.01367	1
1.01733	6
1.02100	9
1.02467	9
1.02833	5
1.03200	1
1.03567	-3
1.03933	-6
1.04300	-8
1.04667	-10
1.05033	-10
1.05400	-9
1.05767	-3
1.06133	3
1.06500	5
1.06867	4
1.07233	-2
1.07600	-12
1.07967	-19
1.08333	-20
1.08700	-16
1.09067	-11
1.09433	-6
1.09800	-0
1.10167	5
1.10533	8
1.10900	8
1.11267	4
1.11633	3
1.12000	3
1.12367	0
1.12733	-5
1.13100	-6
1.13467	-8
1.13833	-14
1.14200	-18
1.14567	-20
1.14933	-20
1.15300	-16
1.15667	-12
1.16033	-8
1.16400	-3
1.16767	3
1.17133	7
1.17500	5
1.17867	5
1.18233	2
1.18600	-3
1.18967	-4
1.19333	-4
1.19700	-2
1.20067	1
1.20433	1
1.20800	-5
1.21167	-16
1.21533	-26
1.21900	-31
1.22267	-32
1.22633	-31
1.23000	-29
1.23367	-30
1.23733	-30
1.24100	-25
1.24467	-17
1.24833	-9
1.25200	-7
1.25567	-8
1.25933	-7
1.26300	-8
1.26667	-9
1.27033	-10
1.27400	-11
1.27767	-10
1.28133	-11
1.28500	-14
1.28867	-19
1.29233	-24
1.29600	-25
1.29967	-23
1.30333	-15
1.30700	-9
1.31067	-11
1.31433	-21
1.31800	-29
1.32167	-33
1.32533	-30
1.32900	-28
1.33267	-30
1.33633	-32
1.34000	-34
1.34367	-31
1.34733	-32
1.35100	-32
1.35467	-28
1.35833	-20
1.36200	-11
1.36567	-8
1.36933	-10
1.37300	-16
1.37667	-24
1.38033	-32
1.38400	-36
1.38767	-37
1.39133	-31
1.39500	-22
1.39867	-18
1.40233	-19
1.40600	-19
1.40967	-15
1.41333	-11
1.41700	-10
1.42067	-13
1.42433	-16
1.42800	-14
1.43167	-12
1.43533	-14
1.43900	-14
1.44267	16
1.44633	190
1.45000	699
1.45367	1776
1.45733	3550
1.46100	5728
1.46467	7834
1.46833	9542
1.47200	10701
1.47567	11218
1.47933	10998
1.48300	10028
1.48667	8493
1.49033	6704
1.49400	4968
1.49767	3488
1.50133	2328
1.50500	1472
1.50867	865
1.51233	449
1.51600	169
1.51967	-14
1.52333	-133
1.52700	-205
1.53067	-246
1.53433	-269
1.53800	-278
1.54167	-241
1.54533	-97
1.54900	187
1.55267	578
1.55633	991
1.56000	1354
1.56367	1629
1.56733	1793
1.57100	1819
1.57467	1691
1.57833	1428
1.58200	1094
1.58567	766
1.58933	489
1.59300	275
1.59667	120
1.60033	13
1.60400	-61
1.60767	-107
1.61133	-133
1.61500	-143
1.61867	-147
1.62233	-150
1.62600	-155
1.62967	-158
1.63333	-160
1.63700	-163
1.64067	-165
1.64433	-167
1.64800	-168
1.65167	-168
1.65533	-167
1.65900	-164
1.66267	-161
1.66633	-160
1.67000	-162
1.67367	-165
1.67733	-162
1.68100	-154
1.68467	-141
1.68833	-129
1.69200	-124
1.69567	-127
1.69933	-134
1.70300	-143
1.70667	-149
1.71033	-150
1.71400	-147
1.71767	-138
1.72133	-130
1.72500	-123
1.72867	-121
1.73233	-121
1.73600	-119
1.73967	-113
1.74333	-111
1.74700	-113
1.75067	-119
1.75433	-126
1.75800	-131
1.76167	-134
1.76533	-137
1.76900	-136
1.77267	-132
1.77633	-127
1.78000	-123
1.78367	-122
1.78733	-121
1.79100	-118
1.79467	-113
1.79833	-108
1.80200	-106
1.80567	-108
1.80933	-115
1.81300	-120
1.81667	-124
1.82033	-125
1.82400	-122
1.82767	-117
1.83133	-112
1.83500	-104
1.83867	-96
1.84233	-89
1.84600	-81
1.84967	-78
1.85333	-81
1.85700	-83
1.86067	-84
1.86433	-82
1.86800	-78
1.87167	-74
1.87533	-71
1.87900	-71
1.88267	-75
1.88633	-79
1.89000	-87
1.89367	-96
1.89733	-101
1.90100	-106
1.90467	-112
1.90833	-114
1.91200	-109
1.91567	-101
1.91933	-95
1.92300	-90
1.92667	-85
1.93033	-81
1.93400	-78
1.93767	-74
1.94133	-71
1.94500	-71
1.94867	-70
1.95233	-42
1.95600	157
1.95967	1435
1.96333	7916
1.96700	32924
1.97067	106451
1.97433	270438
1.97800	548333
1.98167	914409
1.98533	1300988
1.98900	1634760
1.99267	1862424
1.99633	1956434
2.00000	1912892
2.00367	1750296
2.00733	1504884
2.01100	1221621
2.01467	942584
2.01833	697241
2.02200	499242
2.02567	349407
2.02933	241201
2.03300	165567
2.03667	113832
2.04033	78907
2.04400	55468
2.04767	39734
2.05133	29115
2.05500	21880
2.05867	16885
2.06233	13370
2.06600	10843
2.06967	8985
2.07333	7589
2.07700	6516
2.08067	5679
2.08433	5017
2.08800	4479
2.09167	4026
2.09533	3640
2.09900	3318
2.10267	3044
2.10633	2811
2.11000	2607
2.11367	2432
2.11733	2278
2.12100	2140
2.12467	2015
2.12833	1901
2.13200	1795
2.13567	1703
2.13933	1623
2.14300	1549
2.14667	1488
2.15033	1429
2.15400	1368
2.15767	1307
2.16133	1251
2.16500	1200
2.16867	1153
2.17233	1107
2.17600	1063
2.17967	1021
2.18333	984
2.18700	950
2.19067	921
2.19433	903
2.19800	889
2.20167	872
2.20533	849
2.20900	824
2.21267	794
2.21633	761
2.22000	728
2.22367	703
2.22733	685
2.23100	671
2.23467	657
2.23833	646
2.24200	637
2.24567	626
2.24933	615
2.25300	607
2.25667	597
2.26033	580
2.26400	558
2.26767	537
2.27133	521
2.27500	506
2.27867	496
2.28233	489
2.28600	479
2.28967	468
2.29333	462
2.29700	460
2.30067	461
2.30433	458
2.30800	453
2.31167	444
2.31533	438
2.31900	432
2.32267	427
2.32633	422
2.33000	421
2.33367	425
2.33733	426
2.34100	428
2.34467	427
2.34833	420
2.35200	403
2.35567	380
2.35933	356
2.36300	341
2.36667	334
2.37033	329
2.37400	328
2.37767	329
2.38133	325
2.38500	320
2.38867	312
2.39233	303
2.39600	305
2.39967	314
2.40333	320
2.40700	321
2.41067	323
2.41433	323
2.41800	324
2.42167	330
2.42533	333
2.42900	330
2.43267	321
2.43633	310
2.44000	299
2.44367	291
2.44733	289
2.45100	292
2.45467	296
2.45833	295
2.46200	294
2.46567	293
2.46933	294
2.47300	296
2.47667	299
2.48033	302
2.48400	303
2.48767	296
2.49133	287
2.49500	283
2.49867	284
2.50233	288
2.50600	291
2.50967	291
2.51333	291
2.51700	291
2.52067	291
2.52433	292
2.52800	293
2.53167	290
2.53533	288
2.53900	285
2.54267	287
2.54633	289
2.55000	285
2.55367	282
2.55733	282
2.56100	281
2.56467	276
2.56833	270
2.57200	266
2.57567	261
2.57933	254
2.58300	247
2.58667	247
2.59033	251
2.59400	258
2.59767	265
2.60133	272
2.60500	279
2.60867	281
2.61233	279
2.61600	274
2.61967	270
2.62333	268
2.62700	267
2.63067	261
2.63433	253
2.63800	241
2.64167	228
2.64533	222
2.64900	222
2.65267	224
2.65633	226
2.66000	228
2.66367	225
2.66733	221
2.67100	222
2.67467	226
2.67833	233
2.68200	240
2.68567	244
2.68933	242
2.69300	241
2.69667	239
2.70033	233
2.70400	223
2.70767	218
2.71133	216
2.71500	213
2.71867	210
2.72233	207
2.72600	209
2.72967	214
2.73333	218
2.73700	221
2.74067	226
2.74433	229
2.74800	229
2.75167	230
2.75533	229
2.75900	229
2.76267	234
2.76633	241
2.77000	246
2.77367	246
2.77733	242
2.78100	235
2.78467	228
2.78833	222
2.79200	218
2.79567	217
2.79933	217
2.80300	218
2.80667	220
2.81033	219
2.81400	216
2.81767	211
2.82133	205
2.82500	203
2.82867	203
2.83233	203
2.83600	200
2.83967	200
2.84333	204
2.84700	208
2.85067	212
2.85433	213
2.85800	213
2.86167	212
2.86533	208
2.86900	201
2.87267	193
2.87633	186
2.88000	182
2.88367	179
2.88733	181
2.89100	184
2.89467	184
2.89833	183
2.90200	186
2.90567	185
2.90933	187
2.91300	194
2.91667	205
2.92033	212
2.92400	213
2.92767	205
2.93133	193
2.93500	186
2.93867	186
2.94233	191
2.94600	196
2.94967	200
2.95333	207
2.95700	215
2.96067	222
2.96433	227
2.96800	219
2.97167	202
2.97533	187
2.97900	178
2.98267	173
2.98633	172
2.99000	175
2.99367	180
2.99733	186
3.00100	190
3.00467	190
3.00833	190
3.01200	191
3.01567	190
3.01933	190
3.02300	186
3.02667	180
3.03033	175
3.03400	173
3.03767	174
3.04133	179
3.04500	183
3.04867	187
3.05233	185
3.05600	183
3.05967	182
3.06333	179
3.06700	177
3.07067	177
3.07433	179
3.07800	179
3.08167	182
3.08533	187
3.08900	190
3.09267	192
3.09633	196
3.10000	195
3.10367	190
3.10733	184
3.11100	183
3.11467	182
3.11833	177
3.12200	172
3.12567	168
3.12933	165
3.13300	166
3.13667	166
3.14033	165
3.14400	163
3.14767	163
3.15133	165
3.15500	165
3.15867	164
3.16233	162
3.16600	159
3.16967	157
3.17333	157
3.17700	158
3.18067	165
3.18433	174
3.18800	181
3.19167	175
3.19533	161
3.19900	148
3.20267	140
3.20633	136
3.21000	139
3.21367	142
3.21733	143
3.22100	144
3.22467	149
3.22833	156
3.23200	160
3.23567	160
3.23933	152
3.24300	145
3.24667	143
3.25033	144
3.25400	140
3.25767	136
3.26133	137
3.26500	141
3.26867	143
3.27233	140
3.27600	134
3.27967	129
3.28333	131
3.28700	138
3.29067	148
3.29433	162
3.29800	168
3.30167	167
3.30533	154
3.30900	141
3.31267	136
3.31633	140
3.32000	142
3.32367	138
3.32733	132
3.33100	128
3.33467	127
3.33833	124
3.34200	116
3.34567	112
3.34933	113
3.35300	122
3.35667	135
3.36033	148
3.36400	160
3.36767	162
3.37133	156
3.37500	149
3.37867	143
3.38233	139
3.38600	136
3.38967	131
3.39333	126
3.39700	121
3.40067	118
3.40433	119
3.40800	127
3.41167	137
3.41533	145
3.41900	147
3.42267	148
3.42633	149
3.43000	147
3.43367	142
3.43733	136
3.44100	135
3.44467	133
3.44833	130
3.45200	128
3.45567	123
3.45933	118
3.46300	114
3.46667	105
3.47033	94
3.47400	88
3.47767	94
3.48133	108
3.48500	121
3.48867	126
3.49233	125
3.49600	116
3.49967	106
3.50333	96
3.50700	89
3.51067	86
3.51433	88
3.51800	93
3.52167	99
3.52533	105
3.52900	113
3.53267	123
3.53633	130
3.54000	130
3.54367	125
3.54733	122
3.55100	123
3.55467	123
3.55833	118
3.56200	109
3.56567	102
3.56933	97
3.57300	94
3.57667	93
3.58033	92
3.58400	90
3.58767	87
3.59133	88
3.59500	94
3.59867	99
3.60233	98
3.60600	92
3.60967	88
3.61333	87
3.61700	91
3.62067	94
3.62433	95
3.62800	95
3.63167	95
3.63533	91
3.63900	87
3.64267	87
3.64633	86
3.65000	85
3.65367	87
3.65733	93
3.66100	101
3.66467	110
3.66833	113
3.67200	112
3.67567	109
3.67933	101
3.68300	94
3.68667	89
3.69033	87
3.69400	86
3.69767	84
3.70133	79
3.70500	77
3.70867	81
3.71233	87
3.71600	93
3.71967	96
3.72333	98
3.72700	100
3.73067	97
3.73433	91
3.73800	85
3.74167	83
3.74533	84
3.74900	83
3.75267	80
3.75633	76
3.76000	72
3.76367	71
3.76733	73
3.77100	77
3.77467	86
3.77833	91
3.78200	89
3.78567	87
3.78933	83
3.79300	75
3.79667	67
3.80033	63
3.80400	61
3.80767	62
3.81133	65
3.81500	68
3.81867	67
3.82233	63
3.82600	57
3.82967	54
3.83333	59
3.83700	67
3.84067	71
3.84433	78
3.84800	84
3.85167	91
3.85533	102
3.85900	114
3.86267	120
3.86633	115
3.87000	104
3.87367	92
3.87733	79
3.88100	64
3.88467	52
3.88833	44
3.89200	39
3.89567	38
3.89933	36
3.90300	31
3.90667	29
3.91033	30
3.91400	35
3.91767	44
3.92133	50
3.92500	49
3.92867	45
3.93233	45
3.93600	52
3.93967	58
3.94333	60
3.94700	62
3.95067	63
3.95433	63
3.95800	61
3.96167	64
3.96533	69
3.96900	64
3.97267	54
3.97633	47
3.98000	45
3.98367	45
3.98733	46
3.99100	47
3.99467	48
3.99833	47

[Chromatogram (Ch2)]
Interval(msec)	220
# of Points	1091
Start Time(min)	0.002
End Time(min)	3.998
R.Time (min)	Intensity
0.00167	-1
0.00533	-1
0.00900	-0
0.01267	-0
0.01633	-0
0.02000	-0
0.02367	-0
0.02733	-0
0.03100	-0
0.03467	-0
0.03833	-0
0.04200	0
0.04567	0
0.04933	0
0.05300	0
0.05667	0
0.06033	0
0.06400	-0
0.06767	-0
0.07133	-0
0.07500	-0
0.07867	-0
0.08233	0
0.08600	0
0.08967	1
0.09333	1
0.09700	1
0.10067	1
0.10433	1
0.10800	1
0.11167	1
0.11533	1
0.11900	1
0.12267	1
0.12633	1
0.13000	1
0.13367	1
0.13733	1
0.14100	1
0.14467	0
0.14833	0
0.15200	-0
0.15567	-0
0.15933	-0
0.16300	-0
0.16667	-0
0.17033	-0
0.17400	-1
0.17767	-1
0.18133	-1
0.18500	-1
0.18867	-1
0.19233	-1
0.19600	-2
0.19967	-2
0.20333	-2
0.20700	-2
0.21067	-2
0.21433	-1
0.21800	-1
0.22167	-1
0.22533	-1
0.22900	-1
0.23267	-1
0.23633	-1
0.24000	-1
0.24367	-1
0.24733	-1
0.25100	-1
0.25467	-1
0.25833	-0
0.26200	-0
0.26567	-0
0.26933	-0
0.27300	-1
0.27667	-1
0.28033	-1
0.28400	-1
0.28767	-1
0.29133	-2
0.29500	-2
0.29867	-2
0.30233	-2
0.30600	-2
0.30967	-2
0.31333	-2
0.31700	-2
0.32067	-1
0.32433	-1
0.32800	-1
0.33167	-1
0.33533	-1
0.33900	-1
0.34267	-1
0.34633	-1
0.35000	-1
0.35367	-1
0.35733	-1
0.36100	-1
0.36467	-1
0.36833	-1
0.37200	-2
0.37567	-2
0.37933	-2
0.38300	-2
0.38667	-3
0.39033	-3
0.39400	-3
0.39767	-3
0.40133	-3
0.40500	-3
0.40867	-3
0.41233	-3
0.41600	-3
0.41967	-3
0.42333	-3
0.42700	-3
0.43067	-3
0.43433	-2
0.43800	-2
0.44167	-2
0.44533	-2
0.44900	-2
0.45267	-2
0.45633	-2
0.46000	-2
0.46367	-1
0.46733	-1
0.47100	-1
0.47467	-1
0.47833	-1
0.48200	-1
0.48567	-1
0.48933	-1
0.49300	-1
0.49667	-0
0.50033	-0
0.50400	-0
0.50767	-0
0.51133	-0
0.51500	-0
0.51867	-1
0.52233	-1
0.52600	-1
0.52967	-1
0.53333	-1
0.53700	-1
0.54067	-1
0.54433	-1
0.54800	-1
0.55167	-1
0.55533	-1
0.55900	-1
0.56267	-1
0.56633	-1
0.57000	-1
0.57367	-1
0.57733	-1
0.58100	-1
0.58467	-1
0.58833	-1
0.59200	-1
0.59567	-1
0.59933	-1
0.60300	-1
0.60667	-1
0.61033	-1
0.61400	-1
0.61767	-1
0.62133	-1
0.62500	-1
0.62867	-1
0.63233	-2
0.63600	-2
0.63967	-1
0.64333	-1
0.64700	-1
0.65067	-1
0.65433	-1
0.65800	-1
0.66167	-1
0.66533	-1
0.66900	-1
0.67267	-1
0.67633	-1
0.68000	-1
0.68367	-1
0.68733	-1
0.69100	-1
0.69467	-1
0.69833	-1
0.70200	-1
0.70567	-0
0.70933	-0
0.71300	0
0.71667	0
0.72033	0
0.72400	0
0.72767	0
0.73133	0
0.73500	0
0.73867	-0
0.74233	-0
0.74600	-1
0.74967	-1
0.75333	-2
0.75700	-2
0.76067	-2
0.76433	-2
0.76800	-2
0.77167	-2
0.77533	-3
0.77900	-3
0.78267	-3
0.78633	-3
0.79000	-3
0.79367	-3
0.79733	-3
0.80100	-3
0.80467	-4
0.80833	-4
0.81200	-4
0.81567	-4
0.81933	-4
0.82300	-4
0.82667	-4
0.83033	-4
0.83400	-3
0.83767	-3
0.84133	-3
0.84500	-3
0.84867	-2
0.85233	-2
0.85600	-2
0.85967	-2
0.86333	-2
0.86700	-2
0.87067	-2
0.87433	-2
0.87800	-2
0.88167	-2
0.88533	-2
0.88900	-2
0.89267	-2
0.89633	-2
0.90000	-2
0.90367	-2
0.90733	-1
0.91100	-1
0.91467	-1
0.91833	-1
0.92200	-1
0.92567	-2
0.92933	-2
0.93300	-2
0.93667	-2
0.94033	-2
0.94400	-2
0.94767	-2
0.95133	-2
0.95500	-1
0.95867	-1
0.96233	-1
0.96600	-1
0.96967	-1
0.97333	-1
0.97700	-1
0.98067	-1
0.98433	-1
0.98800	-1
0.99167	-2
0.99533	-2
0.99900	-2
1.00267	-2
1.00633	-2
1.01000	-2
1.01367	-2
1.01733	-2
1.02100	-2
1.02467	-2
1.02833	-2
1.03200	-1
1.03567	-1
1.03933	-2
1.04300	-2
1.04667	-3
1.05033	-3
1.05400	-4
1.05767	-4
1.06133	-5
1.06500	-5
1.06867	-5
1.07233	-4
1.07600	-4
1.07967	-4
1.08333	-4
1.08700	-4
1.09067	-3
1.09433	-3
1.09800	-3
1.10167	-3
1.10533	-3
1.10900	-3
1.11267	-3
1.11633	-3
1.12000	-3
1.12367	-3
1.12733	-3
1.13100	-3
1.13467	-3
1.13833	-4
1.14200	-4
1.14567	-4
1.14933	-4
1.15300	-4
1.15667	-4
1.16033	-4
1.16400	-4
1.16767	-4
1.17133	-4
1.17500	-4
1.17867	-5
1.18233	-5
1.18600	-5
1.18967	-5
1.19333	-4
1.19700	-4
1.20067	-4
1.20433	-3
1.20800	-3
1.21167	-3
1.21533	-3
1.21900	-3
1.22267	-3
1.22633	-2
1.23000	-3
1.23367	-3
1.23733	-3
1.24100	-3
1.24467	-4
1.24833	-4
1.25200	-4
1.25567	-4
1.25933	-4
1.26300	-4
1.26667	-4
1.27033	-4
1.27400	-4
1.27767	-4
1.28133	-4
1.28500	-4
1.28867	-4
1.29233	-4
1.29600	-4
1.29967	-4
1.30333	-4
1.30700	-4
1.31067	-4
1.31433	-5
1.31800	-5
1.32167	-5
1.32533	-5
1.32900	-5
1.33267	-5
1.33633	-5
1.34000	-5
1.34367	-5
1.34733	-6
1.35100	-6
1.35467	-6
1.35833	-5
1.36200	-5
1.36567	-5
1.36933	-5
1.37300	-5
1.37667	-5
1.38033	-4
1.38400	-4
1.38767	-4
1.39133	-4
1.39500	-4
1.39867	-4
1.40233	-4
1.40600	-4
1.40967	-4
1.41333	-4
1.41700	-5
1.42067	-5
1.42433	-5
1.42800	-5
1.43167	-5
1.43533	-5
1.43900	-5
1.44267	-5
1.44633	-5
1.45000	-5
1.45367	-5
1.45733	-6
1.46100	-6
1.46467	-6
1.46833	-6
1.47200	-6
1.47567	-6
1.47933	-6
1.48300	-6
1.48667	-6
1.49033	-6
1.49400	-6
1.49767	-6
1.50133	-6
1.50500	-6
1.50867	-6
1.51233	-6
1.51600	-5
1.51967	-5
1.52333	-5
1.52700	-5
1.53067	-5
1.53433	-5
1.53800	-5
1.54167	-5
1.54533	-5
1.54900	-5
1.55267	-4
1.55633	-3
1.56000	-3
1.56367	-2
1.56733	-2
1.57100	-2
1.57467	-2
1.57833	-2
1.58200	-2
1.58567	-2
1.58933	-3
1.59300	-3
1.59667	-4
1.60033	-4
1.60400	-5
1.60767	-7
1.61133	-9
1.61500	-11
1.61867	-13
1.62233	-16
1.62600	-19
1.62967	-22
1.63333	-26
1.63700	-29
1.64067	-32
1.64433	-36
1.64800	-39
1.65167	-42
1.65533	-46
1.65900	-49
1.66267	-53
1.66633	-56
1.67000	-60
1.67367	-65
1.67733	-69
1.68100	-74
1.68467	-79
1.68833	-84
1.69200	-88
1.69567	-92
1.69933	-95
1.70300	-97
1.70667	-99
1.71033	-101
1.71400	-102
1.71767	-103
1.72133	-104
1.72500	-105
1.72867	-107
1.73233	-108
1.73600	-109
1.73967	-110
1.74333	-110
1.74700	-111
1.75067	-111
1.75433	-111
1.75800	-111
1.76167	-111
1.76533	-111
1.76900	-111
1.77267	-112
1.77633	-112
1.78000	-113
1.78367	-113
1.78733	-114
1.79100	-115
1.79467	-115
1.79833	-115
1.80200	-115
1.80567	-115
1.80933	-115
1.81300	-115
1.81667	-115
1.82033	-114
1.82400	-114
1.82767	-114
1.83133	-114
1.83500	-114
1.83867	-114
1.84233	-114
1.84600	-115
1.84967	-115
1.85333	-115
1.85700	-114
1.86067	-115
1.86433	-115
1.86800	-115
1.87167	-115
1.87533	-115
1.87900	-115
1.88267	-115
1.88633	-115
1.89000	-115
1.89367	-115
1.89733	-115
1.90100	-115
1.90467	-115
1.90833	-115
1.91200	-115
1.91567	-115
1.91933	-114
1.92300	-114
1.92667	-113
1.93033	-113
1.93400	-112
1.93767	-112
1.94133	-111
1.94500	-111
1.94867	-110
1.95233	-110
1.95600	-110
1.95967	-110
1.96333	-109
1.96700	-109
1.97067	-108
1.97433	-108
1.97800	-108
1.98167	-108
1.98533	-108
1.98900	-109
1.99267	-109
1.99633	-108
2.00000	-107
2.00367	-106
2.00733	-105
2.01100	-104
2.01467	-104
2.01833	-103
2.02200	-103
2.02567	-104
2.02933	-104
2.03300	-104
2.03667	-104
2.04033	-104
2.04400	-104
2.04767	-104
2.05133	-103
2.05500	-103
2.05867	-103
2.06233	-103
2.06600	-103
2.06967	-103
2.07333	-103
2.07700	-103
2.08067	-103
2.08433	-103
2.08800	-103
2.09167	-103
2.09533	-102
2.09900	-102
2.10267	-100
2.10633	-99
2.11000	-98
2.11367	-97
2.11733	-96
2.12100	-96
2.12467	-95
2.12833	-94
2.13200	-94
2.13567	-94
2.13933	-94
2.14300	-94
2.14667	-94
2.15033	-95
2.15400	-95
2.15767	-95
2.16133	-95
2.16500	-95
2.16867	-94
2.17233	-94
2.17600	-93
2.17967	-93
2.18333	-92
2.18700	-91
2.19067	-91
2.19433	-91
2.19800	-90
2.20167	-90
2.20533	-90
2.20900	-90
2.21267	-90
2.21633	-89
2.22000	-89
2.22367	-88
2.22733	-88
2.23100	-88
2.23467	-88
2.23833	-88
2.24200	-88
2.24567	-87
2.24933	-87
2.25300	-87
2.25667	-88
2.26033	-89
2.26400	-90
2.26767	-90
2.27133	-90
2.27500	-90
2.27867	-89
2.28233	-88
2.28600	-87
2.28967	-86
2.29333	-85
2.29700	-84
2.30067	-83
2.30433	-82
2.30800	-81
2.31167	-80
2.31533	-80
2.31900	-79
2.32267	-79
2.32633	-79
2.33000	-79
2.33367	-79
2.33733	-80
2.34100	-80
2.34467	-79
2.34833	-79
2.35200	-78
2.35567	-77
2.35933	-76
2.36300	-74
2.36667	-72
2.37033	-70
2.37400	-68
2.37767	-65
2.38133	-62
2.38500	-58
2.38867	-54
2.39233	-50
2.39600	-45
2.39967	-41
2.40333	-36
2.40700	-32
2.41067	-27
2.41433	-23
2.41800	-20
2.42167	-17
2.42533	-15
2.42900	-13
2.43267	-12
2.43633	-11
2.44000	-10
2.44367	-9
2.44733	-8
2.45100	-8
2.45467	-7
2.45833	-6
2.46200	-6
2.46567	-5
2.46933	-4
2.47300	-3
2.47667	-2
2.48033	-1
2.48400	-1
2.48767	-0
2.49133	1
2.49500	2
2.49867	3
2.50233	4
2.50600	5
2.50967	6
2.51333	6
2.51700	7
2.52067	8
2.52433	9
2.52800	10
2.53167	10
2.53533	11
2.53900	11
2.54267	12
2.54633	12
2.55000	12
2.55367	13
2.55733	13
2.56100	14
2.56467	14
2.56833	14
2.57200	14
2.57567	14
2.57933	14
2.58300	13
2.58667	13
2.59033	12
2.59400	12
2.59767	12
2.60133	12
2.60500	12
2.60867	13
2.61233	13
2.61600	13
2.61967	13
2.62333	13
2.62700	14
2.63067	14
2.63433	14
2.63800	15
2.64167	15
2.64533	15
2.64900	15
2.65267	15
2.65633	15
2.66000	15
2.66367	16
2.66733	16
2.67100	17
2.67467	17
2.67833	17
2.68200	17
2.68567	17
2.68933	18
2.69300	18
2.69667	18
2.70033	19
2.70400	19
2.70767	20
2.71133	20
2.71500	21
2.71867	22
2.72233	22
2.72600	23
2.72967	23
2.73333	24
2.73700	24
2.74067	24
2.74433	24
2.74800	24
2.75167	24
2.75533	23
2.75900	23
2.76267	23
2.76633	22
2.77000	22
2.77367	22
2.77733	22
2.78100	22
2.78467	22
2.78833	22
2.79200	23
2.79567	23
2.79933	23
2.80300	23
2.80667	23
2.81033	24
2.81400	24
2.81767	24
2.82133	24
2.82500	24
2.82867	24
2.83233	24
2.83600	24
2.83967	23
2.84333	22
2.84700	20
2.85067	16
2.85433	10
2.85800	1
2.86167	-11
2.86533	-27
2.86900	-47
2.87267	-72
2.87633	-100
2.88000	-134
2.88367	-171
2.88733	-212
2.89100	-257
2.89467	-304
2.89833	-354
2.90200	-407
2.90567	-460
2.90933	-515
2.91300	-570
2.91667	-625
2.92033	-680
2.92400	-734
2.92767	-787
2.93133	-838
2.93500	-891
2.93867	-948
2.94233	-1007
2.94600	-1057
2.94967	-1090
2.95333	-1098
2.95700	-1080
2.96067	-1039
2.96433	-980
2.96800	-910
2.97167	-832
2.97533	-752
2.97900	-672
2.98267	-596
2.98633	-524
2.99000	-459
2.99367	-399
2.99733	-345
3.00100	-298
3.00467	-256
3.00833	-219
3.01200	-187
3.01567	-159
3.01933	-134
3.02300	-114
3.02667	-96
3.03033	-80
3.03400	-67
3.03767	-55
3.04133	-46
3.04500	-38
3.04867	-31
3.05233	-25
3.05600	-20
3.05967	-15
3.06333	-12
3.06700	-9
3.07067	-6
3.07433	-4
3.07800	-1
3.08167	1
3.08533	2
3.08900	4
3.09267	5
3.09633	6
3.10000	7
3.10367	8
3.10733	9
3.11100	10
3.11467	10
3.11833	11
3.12200	11
3.12567	12
3.12933	12
3.13300	13
3.13667	13
3.14033	13
3.14400	14
3.14767	14
3.15133	14
3.15500	14
3.15867	15
3.16233	15
3.16600	15
3.16967	15
3.17333	16
3.17700	16
3.18067	16
3.18433	16
3.18800	17
3.19167	17
3.19533	18
3.19900	18
3.20267	18
3.20633	19
3.21000	19
3.21367	19
3.21733	19
3.22100	19
3.22467	19
3.22833	19
3.23200	20
3.23567	20
3.23933	20
3.24300	21
3.24667	21
3.25033	21
3.25400	21
3.25767	21
3.26133	21
3.26500	21
3.26867	21
3.27233	21
3.27600	21
3.27967	21
3.28333	22
3.28700	22
3.29067	22
3.29433	22
3.29800	22
3.30167	22
3.30533	22
3.30900	23
3.31267	23
3.31633	23
3.32000	23
3.32367	23
3.32733	23
3.33100	23
3.33467	22
3.33833	22
3.34200	22
3.34567	21
3.34933	21
3.35300	21
3.35667	21
3.36033	21
3.36400	21
3.36767	21
3.37133	21
3.37500	22
3.37867	22
3.38233	22
3.38600	23
3.38967	23
3.39333	24
3.39700	24
3.40067	24
3.40433	25
3.40800	25
3.41167	25
3.41533	26
3.41900	26
3.42267	26
3.42633	27
3.43000	27
3.43367	27
3.43733	27
3.44100	26
3.44467	26
3.44833	26
3.45200	26
3.45567	26
3.45933	26
3.46300	26
3.46667	26
3.47033	26
3.47400	26
3.47767	26
3.48133	26
3.48500	26
3.48867	25
3.49233	25
3.49600	25
3.49967	25
3.50333	25
3.50700	25
3.51067	24
3.51433	24
3.51800	24
3.52167	24
3.52533	24
3.52900	24
3.53267	24
3.53633	24
3.54000	24
3.54367	24
3.54733	25
3.55100	24
3.55467	24
3.55833	25
3.56200	25
3.56567	25
3.56933	25
3.57300	25
3.57667	25
3.58033	25
3.58400	25
3.58767	25
3.59133	24
3.59500	24
3.59867	24
3.60233	24
3.60600	24
3.60967	24
3.61333	24
3.61700	24
3.62067	23
3.62433	23
3.62800	23
3.63167	23
3.63533	23
3.63900	23
3.64267	23
3.64633	23
3.65000	24
3.65367	24
3.65733	24
3.66100	24
3.66467	24
3.66833	24
3.67200	24
3.67567	23
3.67933	23
3.68300	24
3.68667	24
3.69033	24
3.69400	24
3.69767	24
3.70133	24
3.70500	24
3.70867	24
3.71233	24
3.71600	25
3.71967	25
3.72333	25
3.72700	25
3.73067	25
3.73433	25
3.73800	24
3.74167	24
3.74533	24
3.74900	24
3.75267	24
3.75633	24
3.76000	24
3.76367	24
3.76733	24
3.77100	24
3.77467	24
3.77833	24
3.78200	24
3.78567	24
3.78933	24
3.79300	24
3.79667	24
3.80033	24
3.80400	24
3.80767	24
3.81133	24
3.81500	24
3.81867	24
3.82233	24
3.82600	24
3.82967	24
3.83333	24
3.83700	24
3.84067	23
3.84433	23
3.84800	23
3.85167	23
3.85533	22
3.85900	22
3.86267	22
3.86633	22
3.87000	22
3.87367	22
3.87733	22
3.88100	22
3.88467	22
3.88833	22
3.89200	22
3.89567	22
3.89933	22
3.90300	22
3.90667	23
3.91033	23
3.91400	23
3.91767	23
3.92133	23
3.92500	23
3.92867	23
3.93233	23
3.93600	23
3.93967	23
3.94333	23
3.94700	22
3.95067	22
3.95433	22
3.95800	23
3.96167	23
3.96533	23
3.96900	23
3.97267	23
3.97633	23
3.98000	22
3.98367	22
3.98733	22
3.99100	22
3.99467	22
3.99833	22

[Chromatogram (Ch3)]
Interval(msec)	220
# of Points	1091
Start Time(min)	0.002
End Time(min)	3.998
R.Time (min)	Intensity
0.00167	-1
0.00533	-2
0.00900	-2
0.01267	-1
0.01633	0
0.02000	-1
0.02367	0
0.02733	-0
0.03100	-2
0.03467	-4
0.03833	-4
0.04200	-3
0.04567	-3
0.04933	-4
0.05300	-6
0.05667	-8
0.06033	-10
0.06400	-11
0.06767	-12
0.07133	-13
0.07500	-13
0.07867	-14
0.08233	-15
0.08600	-14
0.08967	-13
0.09333	-12
0.09700	-12
0.10067	-11
0.10433	-11
0.10800	-7
0.11167	-5
0.11533	-5
0.11900	-7
0.12267	-9
0.12633	-11
0.13000	-11
0.13367	-8
0.13733	-6
0.14100	-6
0.14467	-9
0.14833	-11
0.15200	-13
0.15567	-18
0.15933	-22
0.16300	-22
0.16667	-21
0.17033	-18
0.17400	-15
0.17767	-13
0.18133	-14
0.18500	-17
0.18867	-19
0.19233	-20
0.19600	-20
0.19967	-20
0.20333	-19
0.20700	-20
0.21067	-20
0.21433	-20
0.21800	-19
0.22167	-20
0.22533	-20
0.22900	-20
0.23267	-19
0.23633	-17
0.24000	-14
0.24367	-12
0.24733	-13
0.25100	-13
0.25467	-14
0.25833	-13
0.26200	-15
0.26567	-15
0.26933	-15
0.27300	-15
0.27667	-14
0.28033	-14
0.28400	-14
0.28767	-14
0.29133	-13
0.29500	-11
0.29867	-9
0.30233	-10
0.30600	-10
0.30967	-8
0.31333	-8
0.31700	-8
0.32067	-7
0.32433	-6
0.32800	-7
0.33167	-9
0.33533	-10
0.33900	-9
0.34267	-8
0.34633	-7
0.35000	-9
0.35367	-9
0.35733	-10
0.36100	-10
0.36467	-10
0.36833	-7
0.37200	-6
0.37567	-5
0.37933	-7
0.38300	-9
0.38667	-8
0.39033	-8
0.39400	-8
0.39767	-8
0.40133	-7
0.40500	-6
0.40867	-5
0.41233	-4
0.41600	-5
0.41967	-6
0.42333	-7
0.42700	-7
0.43067	-8
0.43433	-8
0.43800	-7
0.44167	-6
0.44533	-7
0.44900	-6
0.45267	-5
0.45633	-3
0.46000	-5
0.46367	-7
0.46733	-8
0.47100	-8
0.47467	-8
0.47833	-9
0.48200	-8
0.48567	-8
0.48933	-8
0.49300	-9
0.49667	-8
0.50033	-9
0.50400	-11
0.50767	-10
0.51133	-10
0.51500	-11
0.51867	-12
0.52233	-10
0.52600	-9
0.52967	-8
0.53333	-7
0.53700	-7
0.54067	-8
0.54433	-8
0.54800	-7
0.55167	-7
0.55533	-6
0.55900	-7
0.56267	-7
0.56633	-8
0.57000	-10
0.57367	-10
0.57733	-9
0.58100	-8
0.58467	-7
0.58833	-7
0.59200	-5
0.59567	-4
0.59933	-5
0.60300	-6
0.60667	-8
0.61033	-8
0.61400	-8
0.61767	-11
0.62133	-12
0.62500	-12
0.62867	-12
0.63233	-11
0.63600	-11
0.63967	-9
0.64333	-10
0.64700	-12
0.65067	-11
0.65433	-11
0.65800	-11
0.66167	-11
0.66533	-11
0.66900	-13
0.67267	-12
0.67633	-12
0.68000	-12
0.68367	-12
0.68733	-12
0.69100	-12
0.69467	-13
0.69833	-14
0.70200	-14
0.70567	-14
0.70933	-12
0.71300	-12
0.71667	-14
0.72033	-16
0.72400	-15
0.72767	-13
0.73133	-12
0.73500	-11
0.73867	-12
0.74233	-14
0.74600	-15
0.74967	-15
0.75333	-13
0.75700	-12
0.76067	-13
0.76433	-13
0.76800	-12
0.77167	-10
0.77533	-11
0.77900	-12
0.78267	-12
0.78633	-11
0.79000	-12
0.79367	-13
0.79733	-15
0.80100	-18
0.80467	-20
0.80833	-21
0.81200	-20
0.81567	-18
0.81933	-15
0.82300	-12
0.82667	-11
0.83033	-13
0.83400	-17
0.83767	-20
0.84133	-21
0.84500	-21
0.84867	-22
0.85233	-21
0.85600	-21
0.85967	-21
0.86333	-22
0.86700	-20
0.87067	-20
0.87433	-21
0.87800	-22
0.88167	-23
0.88533	-23
0.88900	-23
0.89267	-22
0.89633	-22
0.90000	-23
0.90367	-22
0.90733	-22
0.91100	-18
0.91467	-17
0.91833	-19
0.92200	-19
0.92567	-20
0.92933	-21
0.93300	-22
0.93667	-21
0.94033	-18
0.94400	-15
0.94767	-13
0.95133	-14
0.95500	-16
0.95867	-17
0.96233	-16
0.96600	-16
0.96967	-15
0.97333	-14
0.97700	-15
0.98067	-17
0.98433	-16
0.98800	-12
0.99167	-12
0.99533	-12
0.99900	-13
1.00267	-15
1.00633	-16
1.01000	-17
1.01367	-17
1.01733	-15
1.02100	-16
1.02467	-16
1.02833	-16
1.03200	-16
1.03567	-16
1.03933	-14
1.04300	-13
1.04667	-15
1.05033	-17
1.05400	-18
1.05767	-17
1.06133	-15
1.06500	-14
1.06867	-14
1.07233	-12
1.07600	-11
1.07967	-12
1.08333	-17
1.08700	-19
1.09067	-19
1.09433	-18
1.09800	-17
1.10167	-18
1.10533	-17
1.10900	-16
1.11267	-18
1.11633	-17
1.12000	-15
1.12367	-13
1.12733	-12
1.13100	-12
1.13467	-11
1.13833	-11
1.14200	-11
1.14567	-12
1.14933	-13
1.15300	-13
1.15667	-13
1.16033	-13
1.16400	-13
1.16767	-12
1.17133	-12
1.17500	-12
1.17867	-13
1.18233	-13
1.18600	-14
1.18967	-15
1.19333	-12
1.19700	-12
1.20067	-13
1.20433	-14
1.20800	-13
1.21167	-13
1.21533	-13
1.21900	-13
1.22267	-12
1.22633	-9
1.23000	-5
1.23367	-6
1.23733	-10
1.24100	-11
1.24467	-10
1.24833	-7
1.25200	-7
1.25567	-9
1.25933	-10
1.26300	-8
1.26667	-8
1.27033	-8
1.27400	-7
1.27767	-5
1.28133	-4
1.28500	-4
1.28867	-4
1.29233	-5
1.29600	-7
1.29967	-7
1.30333	-7
1.30700	-6
1.31067	-7
1.31433	-8
1.31800	-8
1.32167	-8
1.32533	-10
1.32900	-9
1.33267	-8
1.33633	-8
1.34000	-7
1.34367	-8
1.34733	-9
1.35100	-9
1.35467	-8
1.35833	-8
1.36200	-8
1.36567	-7
1.36933	-5
1.37300	-4
1.37667	-5
1.38033	-5
1.38400	-7
1.38767	-8
1.39133	-9
1.39500	-8
1.39867	-9
1.40233	-10
1.40600	-11
1.40967	-11
1.41333	-12
1.41700	-12
1.42067	-10
1.42433	-7
1.42800	-4
1.43167	-3
1.43533	-1
1.43900	-0
1.44267	1
1.44633	3
1.45000	1
1.45367	-2
1.45733	-5
1.46100	-6
1.46467	-6
1.46833	-5
1.47200	-7
1.47567	-8
1.47933	-7
1.48300	-7
1.48667	-8
1.49033	-6
1.49400	-6
1.49767	-5
1.50133	-4
1.50500	-3
1.50867	-1
1.51233	-1
1.51600	-1
1.51967	-3
1.52333	-5
1.52700	-5
1.53067	-6
1.53433	-5
1.53800	-4
1.54167	-3
1.54533	-2
1.54900	-1
1.55267	-1
1.55633	-1
1.56000	-3
1.56367	-2
1.56733	-3
1.57100	-1
1.57467	1
1.57833	-0
1.58200	0
1.58567	-1
1.58933	-1
1.59300	-1
1.59667	1
1.60033	1
1.60400	2
1.60767	3
1.61133	4
1.61500	4
1.61867	3
1.62233	2
1.62600	3
1.62967	4
1.63333	4
1.63700	4
1.64067	6
1.64433	9
1.64800	9
1.65167	10
1.65533	10
1.65900	7
1.66267	6
1.66633	9
1.67000	11
1.67367	11
1.67733	11
1.68100	10
1.68467	9
1.68833	11
1.69200	13
1.69567	12
1.69933	13
1.70300	16
1.70667	18
1.71033	17
1.71400	18
1.71767	19
1.72133	19
1.72500	19
1.72867	17
1.73233	16
1.73600	17
1.73967	17
1.74333	16
1.74700	15
1.75067	15
1.75433	16
1.75800	19
1.76167	20
1.76533	20
1.76900	21
1.77267	23
1.77633	24
1.78000	25
1.78367	26
1.78733	27
1.79100	27
1.79467	29
1.79833	31
1.80200	31
1.80567	32
1.80933	31
1.81300	31
1.81667	30
1.82033	28
1.82400	28
1.82767	28
1.83133	30
1.83500	30
1.83867	31
1.84233	33
1.84600	35
1.84967	38
1.85333	39
1.85700	40
1.86067	41
1.86433	41
1.86800	41
1.87167	39
1.87533	38
1.87900	39
1.88267	39
1.88633	38
1.89000	37
1.89367	41
1.89733	43
1.90100	44
1.90467	44
1.90833	45
1.91200	45
1.91567	47
1.91933	49
1.92300	51
1.92667	53
1.93033	54
1.93400	56
1.93767	57
1.94133	59
1.94500	59
1.94867	60
1.95233	62
1.95600	63
1.95967	63
1.96333	63
1.96700	63
1.97067	64
1.97433	65
1.97800	66
1.98167	67
1.98533	68
1.98900	68
1.99267	68
1.99633	68
2.00000	72
2.00367	76
2.00733	79
2.01100	79
2.01467	78
2.01833	79
2.02200	83
2.02567	85
2.02933	86
2.03300	88
2.03667	88
2.04033	89
2.04400	88
2.04767	89
2.05133	88
2.05500	88
2.05867	90
2.06233	93
2.06600	95
2.06967	96
2.07333	97
2.07700	101
2.08067	104
2.08433	106
2.08800	106
2.09167	106
2.09533	106
2.09900	105
2.10267	104
2.10633	107
2.11000	106
2.11367	105
2.11733	107
2.12100	109
2.12467	111
2.12833	112
2.13200	114
2.13567	116
2.13933	118
2.14300	119
2.14667	120
2.15033	120
2.15400	122
2.15767	125
2.16133	126
2.16500	125
2.16867	126
2.17233	126
2.17600	129
2.17967	132
2.18333	132
2.18700	131
2.19067	134
2.19433	135
2.19800	136
2.20167	137
2.20533	136
2.20900	137
2.21267	139
2.21633	143
2.22000	145
2.22367	145
2.22733	147
2.23100	148
2.23467	151
2.23833	153
2.24200	153
2.24567	150
2.24933	151
2.25300	154
2.25667	157
2.26033	159
2.26400	161
2.26767	165
2.27133	165
2.27500	166
2.27867	167
2.28233	167
2.28600	169
2.28967	171
2.29333	171
2.29700	170
2.30067	169
2.30433	170
2.30800	170
2.31167	172
2.31533	175
2.31900	176
2.32267	176
2.32633	175
2.33000	176
2.33367	178
2.33733	181
2.34100	182
2.34467	183
2.34833	184
2.35200	185
2.35567	184
2.35933	183
2.36300	183
2.36667	184
2.37033	186
2.37400	188
2.37767	188
2.38133	189
2.38500	190
2.38867	187
2.39233	186
2.39600	187
2.39967	188
2.40333	190
2.40700	191
2.41067	193
2.41433	195
2.41800	199
2.42167	203
2.42533	205
2.42900	206
2.43267	206
2.43633	206
2.44000	209
2.44367	257
2.44733	381
2.45100	514
2.45467	620
2.45833	675
2.46200	673
2.46567	642
2.46933	608
2.47300	587
2.47667	573
2.48033	553
2.48400	522
2.48767	481
2.49133	438
2.49500	398
2.49867	366
2.50233	347
2.50600	336
2.50967	332
2.51333	337
2.51700	351
2.52067	369
2.52433	384
2.52800	392
2.53167	387
2.53533	373
2.53900	352
2.54267	328
2.54633	304
2.55000	279
2.55367	258
2.55733	240
2.56100	226
2.56467	216
2.56833	209
2.57200	205
2.57567	201
2.57933	199
2.58300	199
2.58667	199
2.59033	199
2.59400	200
2.59767	198
2.60133	193
2.60500	184
2.60867	169
2.61233	153
2.61600	135
2.61967	114
2.62333	95
2.62700	81
2.63067	71
2.63433	64
2.63800	57
2.64167	51
2.64533	45
2.64900	38
2.65267	32
2.65633	27
2.66000	21
2.66367	18
2.66733	15
2.67100	12
2.67467	9
2.67833	8
2.68200	7
2.68567	5
2.68933	5
2.69300	7
2.69667	10
2.70033	11
2.70400	15
2.70767	19
2.71133	22
2.71500	24
2.71867	27
2.72233	33
2.72600	39
2.72967	44
2.73333	49
2.73700	52
2.74067	57
2.74433	61
2.74800	66
2.75167	71
2.75533	75
2.75900	77
2.76267	78
2.76633	78
2.77000	78
2.77367	78
2.77733	78
2.78100	80
2.78467	83
2.78833	89
2.79200	94
2.79567	98
2.79933	100
2.80300	104
2.80667	109
2.81033	114
2.81400	118
2.81767	126
2.82133	135
2.82500	151
2.82867	187
2.83233	256
2.83600	375
2.83967	567
2.84333	852
2.84700	1240
2.85067	1720
2.85433	2273
2.85800	2866
2.86167	3450
2.86533	3976
2.86900	4401
2.87267	4694
2.87633	4845
2.88000	4860
2.88367	4751
2.88733	4541
2.89100	4264
2.89467	3942
2.89833	3600
2.90200	3257
2.90567	2926
2.90933	2611
2.91300	2318
2.91667	2050
2.92033	1810
2.92400	1597
2.92767	1408
2.93133	1240
2.93500	1093
2.93867	966
2.94233	854
2.94600	757
2.94967	672
2.95333	598
2.95700	533
2.96067	477
2.96433	429
2.96800	388
2.97167	352
2.97533	322
2.97900	294
2.98267	267
2.98633	246
2.99000	229
2.99367	211
2.99733	195
3.00100	183
3.00467	175
3.00833	167
3.01200	162
3.01567	159
3.01933	154
3.02300	149
3.02667	146
3.03033	141
3.03400	138
3.03767	136
3.04133	133
3.04500	130
3.04867	126
3.05233	124
3.05600	123
3.05967	123
3.06333	122
3.06700	122
3.07067	123
3.07433	124
3.07800	123
3.08167	120
3.08533	121
3.08900	121
3.09267	121
3.09633	120
3.10000	120
3.10367	119
3.10733	118
3.11100	119
3.11467	122
3.11833	125
3.12200	126
3.12567	125
3.12933	123
3.13300	122
3.13667	124
3.14033	125
3.14400	120
3.14767	117
3.15133	122
3.15500	136
3.15867	155
3.16233	177
3.16600	201
3.16967	224
3.17333	251
3.17700	282
3.18067	316
3.18433	353
3.18800	388
3.19167	423
3.19533	455
3.19900	483
3.20267	509
3.20633	533
3.21000	555
3.21367	573
3.21733	588
3.22100	601
3.22467	614
3.22833	627
3.23200	640
3.23567	653
3.23933	663
3.24300	667
3.24667	671
3.25033	675
3.25400	678
3.25767	682
3.26133	687
3.26500	692
3.26867	697
3.27233	700
3.27600	703
3.27967	706
3.28333	709
3.28700	712
3.29067	715
3.29433	720
3.29800	722
3.30167	725
3.30533	729
3.30900	735
3.31267	737
3.31633	737
3.32000	739
3.32367	739
3.32733	741
3.33100	744
3.33467	746
3.33833	750
3.34200	751
3.34567	752
3.34933	753
3.35300	752
3.35667	752
3.36033	753
3.36400	755
3.36767	758
3.37133	758
3.37500	757
3.37867	756
3.38233	757
3.38600	758
3.38967	757
3.39333	755
3.39700	753
3.40067	752
3.40433	754
3.40800	753
3.41167	750
3.41533	746
3.41900	743
3.42267	740
3.42633	738
3.43000	737
3.43367	737
3.43733	735
3.44100	733
3.44467	731
3.44833	731
3.45200	732
3.45567	734
3.45933	731
3.46300	726
3.46667	722
3.47033	720
3.47400	718
3.47767	715
3.48133	713
3.48500	711
3.48867	709
3.49233	709
3.49600	708
3.49967	705
3.50333	704
3.50700	702
3.51067	699
3.51433	698
3.51800	698
3.52167	700
3.52533	700
3.52900	698
3.53267	697
3.53633	695
3.54000	692
3.54367	689
3.54733	688
3.55100	688
3.55467	687
3.55833	687
3.56200	687
3.56567	689
3.56933	688
3.57300	686
3.57667	685
3.58033	684
3.58400	684
3.58767	683
3.59133	678
3.59500	676
3.59867	674
3.60233	675
3.60600	676
3.60967	674
3.61333	673
3.61700	670
3.62067	669
3.62433	669
3.62800	666
3.63167	663
3.63533	661
3.63900	661
3.64267	658
3.64633	657
3.65000	657
3.65367	656
3.65733	654
3.66100	652
3.66467	650
3.66833	647
3.67200	645
3.67567	645
3.67933	645
3.68300	645
3.68667	644
3.69033	642
3.69400	640
3.69767	640
3.70133	638
3.70500	636
3.70867	635
3.71233	633
3.71600	632
3.71967	631
3.72333	630
3.72700	628
3.73067	624
3.73433	621
3.73800	619
3.74167	617
3.74533	616
3.74900	613
3.75267	609
3.75633	608
3.76000	606
3.76367	605
3.76733	602
3.77100	599
3.77467	596
3.77833	593
3.78200	592
3.78567	593
3.78933	593
3.79300	591
3.79667	588
3.80033	584
3.80400	580
3.80767	578
3.81133	576
3.81500	571
3.81867	569
3.82233	567
3.82600	567
3.82967	569
3.83333	571
3.83700	571
3.84067	570
3.84433	568
3.84800	568
3.85167	565
3.85533	563
3.85900	563
3.86267	560
3.86633	555
3.87000	551
3.87367	549
3.87733	547
3.88100	545
3.88467	543
3.88833	542
3.89200	540
3.89567	537
3.89933	535
3.90300	533
3.90667	532
3.91033	530
3.91400	529
3.91767	527
3.92133	525
3.92500	522
3.92867	521
3.93233	520
3.93600	518
3.93967	516
3.94333	515
3.94700	514
3.95067	514
3.95433	514
3.95800	515
3.96167	515
3.96533	515
3.96900	514
3.97267	512
3.97633	511
3.98000	508
3.98367	506
3.98733	504
3.99100	503
3.99467	502
3.99833	501

[Status Trace (Column Oven Temperature)]
Interval(msec)	1000
# of Points	240
Start Time(min)	0.006
End Time(min)	3.990
Intensity Units	
Intensity Multiplier	1
R.Time (min)	Intensity
0.00630	35.06
0.02297	35.05
0.03963	35.04
0.05630	35.04
0.07297	35.04
0.08963	35.04
0.10630	35.04
0.12297	35.03
0.13963	35.04
0.15630	35.03
0.17297	35.03
0.18963	35.03
0.20630	35.03
0.22297	35.04
0.23963	35.02
0.25630	35.01
0.27297	35.02
0.28963	35.02
0.30630	35.03
0.32297	35.03
0.33963	35.02
0.35630	35.02
0.37297	35.03
0.38963	35.04
0.40630	35.04
0.42297	35.04
0.43963	35.04
0.45630	35.04
0.47297	35.04
0.48963	35.02
0.50630	35.02
0.52297	35.02
0.53963	35.02
0.55630	35.02
0.57297	35.02
0.58963	35.01
0.60630	35.01
0.62297	35.01
0.63963	35.01
0.65630	35.01
0.67297	35.01
0.68963	35.00
0.70630	34.99
0.72297	34.98
0.73963	34.98
0.75630	34.99
0.77297	34.99
0.78963	35.01
0.80630	35.01
0.82297	35.01
0.83963	35.01
0.85630	35.01
0.87297	35.00
0.88963	35.00
0.90630	34.99
0.92297	34.99
0.93963	34.99
0.95630	34.98
0.97297	34.98
0.98963	34.99
1.00630	34.99
1.02297	34.98
1.03963	34.99
1.05630	35.00
1.07297	34.99
1.08963	34.99
1.10630	34.98
1.12297	34.98
1.13963	34.98
1.15630	34.99
1.17297	34.99
1.18963	34.98
1.20630	34.98
1.22297	34.98
1.23963	34.99
1.25630	35.00
1.27297	34.99
1.28963	34.99
1.30630	35.00
1.32297	35.00
1.33963	35.01
1.35630	35.00
1.37297	35.00
1.38963	35.01
1.40630	35.02
1.42297	35.01
1.43963	35.01
1.45630	35.02
1.47297	35.02
1.48963	35.03
1.50630	35.03
1.52297	35.04
1.53963	35.04
1.55630	35.03
1.57297	35.03
1.58963	35.04
1.60630	35.08
1.62297	35.20
1.63963	35.37
1.65630	35.60
1.67297	35.93
1.68963	36.29
1.70630	36.63
1.72297	36.97
1.73963	37.31
1.75630	37.65
1.77297	37.97
1.78963	38.31
1.80630	38.65
1.82297	38.97
1.83963	39.31
1.85630	39.64
1.87297	39.98
1.88963	40.31
1.90630	40.63
1.92297	40.94
1.93963	41.27
1.95630	41.60
1.97297	41.92
1.98963	42.26
2.00630	42.55
2.02297	42.88
2.03963	43.20
2.05630	43.52
2.07297	43.85
2.08963	44.20
2.10630	44.51
2.12297	44.82
2.13963	45.17
2.15630	45.49
2.17297	45.81
2.18963	46.12
2.20630	46.46
2.22297	46.79
2.23963	47.11
2.25630	47.47
2.27297	47.81
2.28963	48.13
2.30630	48.45
2.32297	48.78
2.33963	49.12
2.35630	49.40
2.37297	49.60
2.38963	49.67
2.40630	49.66
2.42297	49.66
2.43963	49.66
2.45630	49.66
2.47297	49.67
2.48963	49.68
2.50630	49.69
2.52297	49.70
2.53963	49.72
2.55630	49.72
2.57297	49.75
2.58963	49.78
2.60630	49.79
2.62297	49.80
2.63963	49.82
2.65630	49.83
2.67297	49.84
2.68963	49.86
2.70630	49.86
2.72297	49.85
2.73963	49.84
2.75630	49.86
2.77297	49.87
2.78963	49.86
2.80630	49.87
2.82297	49.87
2.83963	49.88
2.85630	49.89
2.87297	49.89
2.88963	49.89
2.90630	49.90
2.92297	49.91
2.93963	49.92
2.95630	49.94
2.97297	49.96
2.98963	49.97
3.00630	49.99
3.02297	50.00
3.03963	50.02
3.05630	50.02
3.07297	50.03
3.08963	50.03
3.10630	50.04
3.12297	50.05
3.13963	50.07
3.15630	50.08
3.17297	50.08
3.18963	50.07
3.20630	50.08
3.22297	50.09
3.23963	50.08
3.25630	50.09
3.27297	50.09
3.28963	50.08
3.30630	50.09
3.32297	50.09
3.33963	50.10
3.35630	50.10
3.37297	50.11
3.38963	50.10
3.40630	50.09
3.42297	50.07
3.43963	50.06
3.45630	50.05
3.47297	50.04
3.48963	50.04
3.50630	50.05
3.52297	50.05
3.53963	50.06
3.55630	50.06
3.57297	50.06
3.58963	50.06
3.60630	50.05
3.62297	50.06
3.63963	50.05
3.65630	50.05
3.67297	50.04
3.68963	50.04
3.70630	50.04
3.72297	50.04
3.73963	50.04
3.75630	50.04
3.77297	50.04
3.78963	50.04
3.80630	50.04
3.82297	50.05
3.83963	50.05
3.85630	50.06
3.87297	50.07
3.88963	50.08
3.90630	50.08
3.92297	50.08
3.93963	50.08
3.95630	50.08
3.97297	50.09
3.98963	50.08

[Status Trace (Injection Unit Temperature)]
Interval(msec)	1000
# of Points	240
Start Time(min)	0.006
End Time(min)	3.990
Intensity Units	
Intensity Multiplier	1
R.Time (min)	Intensity
0.00630	99.97
0.02297	99.97
0.03963	99.97
0.05630	99.97
0.07297	99.97
0.08963	99.97
0.10630	99.97
0.12297	99.97
0.13963	99.97
0.15630	99.97
0.17297	99.97
0.18963	99.97
0.20630	99.97
0.22297	99.97
0.23963	99.97
0.25630	99.97
0.27297	99.97
0.28963	99.97
0.30630	99.97
0.32297	99.97
0.33963	99.97
0.35630	99.98
0.37297	99.98
0.38963	99.98
0.40630	99.98
0.42297	99.98
0.43963	99.98
0.45630	99.98
0.47297	99.98
0.48963	99.97
0.50630	99.98
0.52297	99.98
0.53963	99.98
0.55630	99.98
0.57297	99.98
0.58963	99.98
0.60630	99.98
0.62297	99.98
0.63963	99.98
0.65630	99.98
0.67297	99.98
0.68963	99.98
0.70630	99.98
0.72297	99.98
0.73963	99.98
0.75630	99.99
0.77297	99.99
0.78963	99.99
0.80630	99.99
0.82297	99.99
0.83963	99.99
0.85630	99.99
0.87297	99.99
0.88963	99.99
0.90630	99.99
0.92297	99.99
0.93963	99.98
0.95630	99.99
0.97297	99.99
0.98963	99.99
1.00630	99.99
1.02297	99.99
1.03963	99.99
1.05630	99.99
1.07297	100.00
1.08963	99.99
1.10630	99.99
1.12297	99.99
1.13963	100.00
1.15630	99.99
1.17297	99.99
1.18963	99.99
1.20630	99.99
1.22297	99.99
1.23963	99.99
1.25630	99.99
1.27297	99.99
1.28963	99.99
1.30630	99.99
1.32297	99.99
1.33963	99.98
1.35630	99.99
1.37297	99.99
1.38963	99.98
1.40630	99.99
1.42297	99.98
1.43963	99.98
1.45630	99.98
1.47297	99.98
1.48963	99.99
1.50630	99.98
1.52297	99.98
1.53963	99.98
1.55630	99.98
1.57297	99.98
1.58963	99.98
1.60630	99.98
1.62297	99.98
1.63963	99.98
1.65630	99.98
1.67297	99.98
1.68963	99.98
1.70630	99.98
1.72297	99.98
1.73963	99.98
1.75630	99.98
1.77297	99.98
1.78963	99.98
1.80630	99.98
1.82297	99.98
1.83963	99.98
1.85630	99.98
1.87297	99.98
1.88963	99.97
1.90630	99.98
1.92297	99.98
1.93963	99.98
1.95630	99.98
1.97297	99.98
1.98963	99.98
2.00630	99.98
2.02297	99.98
2.03963	99.98
2.05630	99.98
2.07297	99.97
2.08963	99.97
2.10630	99.97
2.12297	99.97
2.13963	99.97
2.15630	99.97
2.17297	99.97
2.18963	99.98
2.20630	99.97
2.22297	99.97
2.23963	99.97
2.25630	99.97
2.27297	99.97
2.28963	99.97
2.30630	99.97
2.32297	99.97
2.33963	99.97
2.35630	99.97
2.37297	99.97
2.38963	99.97
2.40630	99.97
2.42297	99.96
2.43963	99.97
2.45630	99.97
2.47297	99.97
2.48963	99.97
2.50630	99.97
2.52297	99.97
2.53963	99.97
2.55630	99.97
2.57297	99.98
2.58963	99.98
2.60630	99.97
2.62297	99.98
2.63963	99.98
2.65630	99.98
2.67297	99.98
2.68963	99.99
2.70630	99.98
2.72297	99.99
2.73963	99.99
2.75630	99.99
2.77297	99.99
2.78963	99.99
2.80630	100.00
2.82297	100.00
2.83963	100.00
2.85630	100.00
2.87297	100.00
2.88963	100.01
2.90630	100.00
2.92297	100.01
2.93963	100.01
2.95630	100.01
2.97297	100.02
2.98963	100.02
3.00630	100.02
3.02297	100.02
3.03963	100.02
3.05630	100.02
3.07297	100.02
3.08963	100.02
3.10630	100.02
3.12297	100.02
3.13963	100.02
3.15630	100.03
3.17297	100.03
3.18963	100.03
3.20630	100.03
3.22297	100.03
3.23963	100.03
3.25630	100.03
3.27297	100.04
3.28963	100.03
3.30630	100.03
3.32297	100.04
3.33963	100.04
3.35630	100.04
3.37297	100.03
3.38963	100.04
3.40630	100.04
3.42297	100.04
3.43963	100.04
3.45630	100.04
3.47297	100.04
3.48963	100.04
3.50630	100.04
3.52297	100.04
3.53963	100.05
3.55630	100.04
3.57297	100.05
3.58963	100.05
3.60630	100.05
3.62297	100.05
3.63963	100.05
3.65630	100.05
3.67297	100.05
3.68963	100.05
3.70630	100.05
3.72297	100.05
3.73963	100.05
3.75630	100.05
3.77297	100.05
3.78963	100.05
3.80630	100.05
3.82297	100.05
3.83963	100.05
3.85630	100.05
3.87297	100.05
3.88963	100.04
3.90630	100.05
3.92297	100.05
3.93963	100.05
3.95630	100.05
3.97297	100.05
3.98963	100.05

[Status Trace (Carrier Gas Pressure)]
Interval(msec)	1000
# of Points	240
Start Time(min)	0.006
End Time(min)	3.990
Intensity Units	
Intensity Multiplier	1
R.Time (min)	Intensity
0.00630	58.00
0.02297	55.57
0.03963	56.86
0.05630	59.07
0.07297	59.54
0.08963	58.12
0.10630	57.98
0.12297	58.01
0.13963	58.01
0.15630	58.00
0.17297	58.00
0.18963	58.00
0.20630	58.00
0.22297	58.00
0.23963	58.00
0.25630	58.00
0.27297	58.00
0.28963	58.00
0.30630	58.00
0.32297	58.00
0.33963	58.00
0.35630	58.00
0.37297	58.00
0.38963	58.00
0.40630	58.00
0.42297	58.00
0.43963	58.00
0.45630	58.00
0.47297	58.00
0.48963	58.00
0.50630	58.00
0.52297	58.00
0.53963	58.00
0.55630	58.00
0.57297	58.00
0.58963	58.00
0.60630	58.00
0.62297	58.00
0.63963	58.00
0.65630	58.00
0.67297	58.00
0.68963	58.00
0.70630	58.00
0.72297	58.00
0.73963	58.00
0.75630	58.00
0.77297	58.00
0.78963	58.00
0.80630	58.00
0.82297	58.00
0.83963	58.00
0.85630	58.00
0.87297	58.00
0.88963	58.00
0.90630	58.00
0.92297	58.00
0.93963	58.00
0.95630	58.00
0.97297	58.00
0.98963	58.00
1.00630	58.00
1.02297	58.00
1.03963	58.00
1.05630	58.00
1.07297	58.00
1.08963	58.00
1.10630	58.00
1.12297	58.00
1.13963	58.00
1.15630	58.00
1.17297	58.00
1.18963	58.00
1.20630	58.00
1.22297	58.00
1.23963	58.00
1.25630	58.00
1.27297	58.00
1.28963	58.00
1.30630	58.00
1.32297	58.00
1.33963	58.00
1.35630	58.00
1.37297	58.00
1.38963	58.00
1.40630	58.00
1.42297	58.00
1.43963	58.00
1.45630	58.00
1.47297	58.00
1.48963	58.00
1.50630	58.00
1.52297	58.00
1.53963	58.00
1.55630	58.00
1.57297	58.00
1.58963	58.00
1.60630	58.00
1.62297	58.00
1.63963	58.00
1.65630	58.00
1.67297	58.01
1.68963	58.01
1.70630	58.00
1.72297	58.00
1.73963	58.00
1.75630	58.00
1.77297	58.00
1.78963	58.00
1.80630	58.00
1.82297	58.00
1.83963	58.00
1.85630	58.00
1.87297	58.00
1.88963	58.00
1.90630	58.00
1.92297	58.00
1.93963	58.00
1.95630	58.00
1.97297	58.00
1.98963	58.00
2.00630	58.00
2.02297	58.00
2.03963	58.00
2.05630	58.00
2.07297	58.00
2.08963	58.00
2.10630	58.00
2.12297	58.00
2.13963	58.00
2.15630	58.00
2.17297	58.00
2.18963	58.00
2.20630	58.00
2.22297	58.00
2.23963	58.00
2.25630	58.00
2.27297	58.00
2.28963	58.00
2.30630	58.00
2.32297	58.00
2.33963	58.00
2.35630	58.00
2.37297	58.00
2.38963	57.99
2.40630	57.99
2.42297	58.00
2.43963	58.00
2.45630	58.00
2.47297	58.00
2.48963	58.00
2.50630	57.99
2.52297	57.98
2.53963	58.00
2.55630	58.00
2.57297	58.00
2.58963	58.00
2.60630	58.00
2.62297	58.00
2.63963	58.00
2.65630	58.00
2.67297	58.00
2.68963	58.00
2.70630	58.00
2.72297	58.00
2.73963	58.00
2.75630	58.00
2.77297	58.00
2.78963	58.00
2.80630	58.00
2.82297	58.00
2.83963	58.00
2.85630	58.00
2.87297	58.00
2.88963	58.00
2.90630	58.00
2.92297	58.00
2.93963	58.00
2.95630	58.00
2.97297	58.00
2.98963	58.00
3.00630	58.00
3.02297	58.00
3.03963	58.00
3.05630	58.00
3.07297	58.00
3.08963	58.00
3.10630	58.00
3.12297	58.00
3.13963	58.00
3.15630	58.00
3.17297	58.00
3.18963	58.00
3.20630	58.00
3.22297	58.00
3.23963	58.00
3.25630	58.00
3.27297	58.00
3.28963	58.00
3.30630	58.00
3.32297	58.00
3.33963	58.00
3.35630	58.00
3.37297	58.00
3.38963	58.00
3.40630	58.00
3.42297	58.00
3.43963	58.00
3.45630	58.00
3.47297	58.00
3.48963	58.00
3.50630	58.00
3.52297	58.00
3.53963	58.00
3.55630	58.00
3.57297	58.00
3.58963	58.00
3.60630	58.00
3.62297	58.00
3.63963	58.00
3.65630	58.00
3.67297	58.00
3.68963	58.00
3.70630	58.00
3.72297	58.00
3.73963	58.00
3.75630	58.00
3.77297	58.00
3.78963	58.00
3.80630	58.00
3.82297	58.00
3.83963	58.00
3.85630	58.00
3.87297	58.00
3.88963	58.00
3.90630	58.00
3.92297	58.00
3.93963	58.00
3.95630	58.00
3.97297	58.00
3.98963	58.00

[Status Trace (Carrier Gas Flow)]
Interval(msec)	1000
# of Points	240
Start Time(min)	0.006
End Time(min)	3.990
Intensity Units	
Intensity Multiplier	1
R.Time (min)	Intensity
0.00630	34.52
0.02297	34.54
0.03963	34.54
0.05630	34.55
0.07297	34.50
0.08963	34.52
0.10630	34.52
0.12297	34.52
0.13963	34.51
0.15630	34.51
0.17297	34.52
0.18963	34.52
0.20630	34.52
0.22297	34.52
0.23963	34.52
0.25630	34.52
0.27297	34.52
0.28963	34.53
0.30630	34.52
0.32297	34.52
0.33963	34.52
0.35630	34.52
0.37297	34.52
0.38963	34.52
0.40630	34.52
0.42297	34.52
0.43963	34.52
0.45630	34.52
0.47297	34.52
0.48963	34.52
0.50630	34.52
0.52297	34.52
0.53963	34.52
0.55630	34.52
0.57297	34.52
0.58963	34.52
0.60630	34.52
0.62297	34.52
0.63963	34.52
0.65630	34.52
0.67297	34.52
0.68963	34.52
0.70630	34.52
0.72297	34.52
0.73963	34.52
0.75630	34.52
0.77297	34.51
0.78963	34.52
0.80630	34.52
0.82297	34.52
0.83963	34.52
0.85630	34.52
0.87297	34.52
0.88963	34.52
0.90630	34.52
0.92297	34.52
0.93963	34.52
0.95630	34.52
0.97297	34.52
0.98963	34.52
1.00630	34.52
1.02297	34.52
1.03963	34.52
1.05630	34.51
1.07297	34.52
1.08963	34.52
1.10630	34.52
1.12297	34.52
1.13963	34.52
1.15630	34.51
1.17297	34.52
1.18963	34.52
1.20630	34.52
1.22297	34.52
1.23963	34.52
1.25630	34.51
1.27297	34.52
1.28963	34.52
1.30630	34.52
1.32297	34.52
1.33963	34.52
1.35630	34.52
1.37297	34.51
1.38963	34.52
1.40630	34.52
1.42297	34.52
1.43963	34.52
1.45630	34.51
1.47297	34.51
1.48963	34.51
1.50630	34.51
1.52297	34.52
1.53963	34.52
1.55630	34.52
1.57297	34.53
1.58963	34.52
1.60630	34.52
1.62297	34.52
1.63963	34.52
1.65630	34.52
1.67297	34.52
1.68963	34.52
1.70630	34.52
1.72297	34.52
1.73963	34.52
1.75630	34.52
1.77297	34.52
1.78963	34.52
1.80630	34.52
1.82297	34.52
1.83963	34.52
1.85630	34.52
1.87297	34.53
1.88963	34.52
1.90630	34.52
1.92297	34.51
1.93963	34.52
1.95630	34.52
1.97297	34.52
1.98963	34.52
2.00630	34.52
2.02297	34.52
2.03963	34.52
2.05630	34.52
2.07297	34.52
2.08963	34.52
2.10630	34.52
2.12297	34.51
2.13963	34.52
2.15630	34.52
2.17297	34.52
2.18963	34.52
2.20630	34.52
2.22297	34.52
2.23963	34.51
2.25630	34.52
2.27297	34.52
2.28963	34.52
2.30630	34.51
2.32297	34.52
2.33963	34.53
2.35630	34.52
2.37297	34.52
2.38963	34.52
2.40630	34.52
2.42297	34.52
2.43963	34.52
2.45630	34.52
2.47297	34.52
2.48963	34.52
2.50630	34.44
2.52297	34.52
2.53963	34.52
2.55630	34.52
2.57297	34.52
2.58963	34.52
2.60630	34.52
2.62297	34.52
2.63963	34.52
2.65630	34.52
2.67297	34.52
2.68963	34.52
2.70630	34.52
2.72297	34.52
2.73963	34.52
2.75630	34.52
2.77297	34.52
2.78963	34.52
2.80630	34.52
2.82297	34.52
2.83963	34.52
2.85630	34.52
2.87297	34.52
2.88963	34.52
2.90630	34.52
2.92297	34.52
2.93963	34.51
2.95630	34.52
2.97297	34.52
2.98963	34.52
3.00630	34.52
3.02297	34.52
3.03963	34.52
3.05630	34.52
3.07297	34.52
3.08963	34.52
3.10630	34.52
3.12297	34.52
3.13963	34.52
3.15630	34.52
3.17297	34.52
3.18963	34.52
3.20630	34.52
3.22297	34.52
3.23963	34.52
3.25630	34.52
3.27297	34.52
3.28963	34.52
3.30630	34.52
3.32297	34.52
3.33963	34.52
3.35630	34.52
3.37297	34.52
3.38963	34.52
3.40630	34.52
3.42297	34.52
3.43963	34.52
3.45630	34.52
3.47297	34.52
3.48963	34.52
3.50630	34.52
3.52297	34.52
3.53963	34.52
3.55630	34.52
3.57297	34.52
3.58963	34.52
3.60630	34.52
3.62297	34.52
3.63963	34.52
3.65630	34.52
3.67297	34.52
3.68963	34.52
3.70630	34.52
3.72297	34.52
3.73963	34.52
3.75630	34.52
3.77297	34.52
3.78963	34.52
3.80630	34.52
3.82297	34.52
3.83963	34.52
3.85630	34.52
3.87297	34.52
3.88963	34.52
3.90630	34.52
3.92297	34.52
3.93963	34.52
3.95630	34.52
3.97297	34.52
3.98963	34.52

[Status Trace (Column Flow)]
Interval(msec)	1000
# of Points	240
Start Time(min)	0.006
End Time(min)	3.990
Intensity Units	
Intensity Multiplier	1
R.Time (min)	Intensity
0.00630	5.53
0.02297	5.25
0.03963	5.39
0.05630	5.65
0.07297	5.71
0.08963	5.54
0.10630	5.53
0.12297	5.53
0.13963	5.53
0.15630	5.53
0.17297	5.53
0.18963	5.53
0.20630	5.53
0.22297	5.53
0.23963	5.53
0.25630	5.53
0.27297	5.53
0.28963	5.53
0.30630	5.53
0.32297	5.53
0.33963	5.53
0.35630	5.53
0.37297	5.53
0.38963	5.53
0.40630	5.53
0.42297	5.53
0.43963	5.53
0.45630	5.53
0.47297	5.53
0.48963	5.53
0.50630	5.53
0.52297	5.53
0.53963	5.53
0.55630	5.53
0.57297	5.53
0.58963	5.53
0.60630	5.53
0.62297	5.53
0.63963	5.53
0.65630	5.53
0.67297	5.53
0.68963	5.53
0.70630	5.53
0.72297	5.53
0.73963	5.53
0.75630	5.53
0.77297	5.53
0.78963	5.53
0.80630	5.53
0.82297	5.53
0.83963	5.53
0.85630	5.53
0.87297	5.53
0.88963	5.53
0.90630	5.53
0.92297	5.53
0.93963	5.53
0.95630	5.53
0.97297	5.53
0.98963	5.53
1.00630	5.53
1.02297	5.53
1.03963	5.53
1.05630	5.53
1.07297	5.53
1.08963	5.53
1.10630	5.53
1.12297	5.53
1.13963	5.53
1.15630	5.53
1.17297	5.53
1.18963	5.53
1.20630	5.53
1.22297	5.53
1.23963	5.53
1.25630	5.53
1.27297	5.53
1.28963	5.53
1.30630	5.53
1.32297	5.53
1.33963	5.53
1.35630	5.53
1.37297	5.53
1.38963	5.53
1.40630	5.53
1.42297	5.53
1.43963	5.53
1.45630	5.53
1.47297	5.53
1.48963	5.53
1.50630	5.53
1.52297	5.53
1.53963	5.53
1.55630	5.53
1.57297	5.53
1.58963	5.53
1.60630	5.53
1.62297	5.52
1.63963	5.52
1.65630	5.51
1.67297	5.50
1.68963	5.49
1.70630	5.48
1.72297	5.47
1.73963	5.46
1.75630	5.45
1.77297	5.44
1.78963	5.43
1.80630	5.42
1.82297	5.41
1.83963	5.40
1.85630	5.39
1.87297	5.38
1.88963	5.37
1.90630	5.36
1.92297	5.35
1.93963	5.34
1.95630	5.33
1.97297	5.32
1.98963	5.31
2.00630	5.30
2.02297	5.29
2.03963	5.28
2.05630	5.27
2.07297	5.26
2.08963	5.25
2.10630	5.24
2.12297	5.23
2.13963	5.22
2.15630	5.21
2.17297	5.20
2.18963	5.19
2.20630	5.18
2.22297	5.18
2.23963	5.17
2.25630	5.16
2.27297	5.15
2.28963	5.14
2.30630	5.13
2.32297	5.12
2.33963	5.11
2.35630	5.10
2.37297	5.10
2.38963	5.09
2.40630	5.09
2.42297	5.09
2.43963	5.09
2.45630	5.09
2.47297	5.09
2.48963	5.09
2.50630	5.09
2.52297	5.09
2.53963	5.09
2.55630	5.09
2.57297	5.09
2.58963	5.09
2.60630	5.09
2.62297	5.09
2.63963	5.09
2.65630	5.09
2.67297	5.09
2.68963	5.09
2.70630	5.09
2.72297	5.09
2.73963	5.09
2.75630	5.09
2.77297	5.09
2.78963	5.09
2.80630	5.09
2.82297	5.09
2.83963	5.09
2.85630	5.09
2.87297	5.09
2.88963	5.09
2.90630	5.09
2.92297	5.09
2.93963	5.09
2.95630	5.09
2.97297	5.09
2.98963	5.09
3.00630	5.09
3.02297	5.09
3.03963	5.08
3.05630	5.08
3.07297	5.08
3.08963	5.08
3.10630	5.08
3.12297	5.08
3.13963	5.08
3.15630	5.08
3.17297	5.08
3.18963	5.08
3.20630	5.08
3.22297	5.08
3.23963	5.08
3.25630	5.08
3.27297	5.08
3.28963	5.08
3.30630	5.08
3.32297	5.08
3.33963	5.08
3.35630	5.08
3.37297	5.08
3.38963	5.08
3.40630	5.08
3.42297	5.08
3.43963	5.08
3.45630	5.08
3.47297	5.08
3.48963	5.08
3.50630	5.08
3.52297	5.08
3.53963	5.08
3.55630	5.08
3.57297	5.08
3.58963	5.08
3.60630	5.08
3.62297	5.08
3.63963	5.08
3.65630	5.08
3.67297	5.08
3.68963	5.08
3.70630	5.08
3.72297	5.08
3.73963	5.08
3.75630	5.08
3.77297	5.08
3.78963	5.08
3.80630	5.08
3.82297	5.08
3.83963	5.08
3.85630	5.08
3.87297	5.08
3.88963	5.08
3.90630	5.08
3.92297	5.08
3.93963	5.08
3.95630	5.08
3.97297	5.08
3.98963	5.08

[Status Trace (Linear Velocity)]
Interval(msec)	1000
# of Points	240
Start Time(min)	0.006
End Time(min)	3.990
Intensity Units	
Intensity Multiplier	1
R.Time (min)	Intensity
0.00630	39.01
0.02297	37.42
0.03963	38.26
0.05630	39.72
0.07297	40.02
0.08963	39.09
0.10630	39.00
0.12297	39.02
0.13963	39.02
0.15630	39.02
0.17297	39.02
0.18963	39.02
0.20630	39.02
0.22297	39.02
0.23963	39.02
0.25630	39.02
0.27297	39.02
0.28963	39.02
0.30630	39.02
0.32297	39.02
0.33963	39.02
0.35630	39.02
0.37297	39.02
0.38963	39.02
0.40630	39.02
0.42297	39.01
0.43963	39.01
0.45630	39.01
0.47297	39.02
0.48963	39.02
0.50630	39.02
0.52297	39.02
0.53963	39.02
0.55630	39.02
0.57297	39.02
0.58963	39.02
0.60630	39.02
0.62297	39.02
0.63963	39.02
0.65630	39.02
0.67297	39.02
0.68963	39.02
0.70630	39.02
0.72297	39.02
0.73963	39.02
0.75630	39.02
0.77297	39.02
0.78963	39.02
0.80630	39.02
0.82297	39.02
0.83963	39.02
0.85630	39.02
0.87297	39.02
0.88963	39.02
0.90630	39.02
0.92297	39.02
0.93963	39.02
0.95630	39.02
0.97297	39.02
0.98963	39.02
1.00630	39.02
1.02297	39.02
1.03963	39.02
1.05630	39.02
1.07297	39.02
1.08963	39.02
1.10630	39.02
1.12297	39.02
1.13963	39.02
1.15630	39.02
1.17297	39.02
1.18963	39.02
1.20630	39.02
1.22297	39.02
1.23963	39.02
1.25630	39.02
1.27297	39.02
1.28963	39.02
1.30630	39.02
1.32297	39.02
1.33963	39.02
1.35630	39.02
1.37297	39.02
1.38963	39.02
1.40630	39.02
1.42297	39.02
1.43963	39.02
1.45630	39.02
1.47297	39.02
1.48963	39.02
1.50630	39.02
1.52297	39.01
1.53963	39.01
1.55630	39.01
1.57297	39.02
1.58963	39.02
1.60630	39.01
1.62297	39.00
1.63963	38.99
1.65630	38.96
1.67297	38.93
1.68963	38.90
1.70630	38.86
1.72297	38.83
1.73963	38.80
1.75630	38.77
1.77297	38.74
1.78963	38.70
1.80630	38.67
1.82297	38.64
1.83963	38.61
1.85630	38.58
1.87297	38.55
1.88963	38.52
1.90630	38.48
1.92297	38.46
1.93963	38.43
1.95630	38.39
1.97297	38.36
1.98963	38.33
2.00630	38.31
2.02297	38.28
2.03963	38.25
2.05630	38.22
2.07297	38.19
2.08963	38.15
2.10630	38.13
2.12297	38.10
2.13963	38.07
2.15630	38.04
2.17297	38.01
2.18963	37.98
2.20630	37.95
2.22297	37.92
2.23963	37.89
2.25630	37.86
2.27297	37.83
2.28963	37.80
2.30630	37.77
2.32297	37.74
2.33963	37.71
2.35630	37.69
2.37297	37.67
2.38963	37.66
2.40630	37.66
2.42297	37.66
2.43963	37.66
2.45630	37.66
2.47297	37.66
2.48963	37.66
2.50630	37.66
2.52297	37.65
2.53963	37.66
2.55630	37.66
2.57297	37.66
2.58963	37.65
2.60630	37.65
2.62297	37.65
2.63963	37.65
2.65630	37.65
2.67297	37.65
2.68963	37.65
2.70630	37.65
2.72297	37.65
2.73963	37.65
2.75630	37.65
2.77297	37.65
2.78963	37.65
2.80630	37.65
2.82297	37.65
2.83963	37.64
2.85630	37.64
2.87297	37.64
2.88963	37.64
2.90630	37.64
2.92297	37.64
2.93963	37.64
2.95630	37.64
2.97297	37.64
2.98963	37.64
3.00630	37.64
3.02297	37.63
3.03963	37.63
3.05630	37.63
3.07297	37.63
3.08963	37.63
3.10630	37.63
3.12297	37.63
3.13963	37.63
3.15630	37.63
3.17297	37.63
3.18963	37.63
3.20630	37.63
3.22297	37.63
3.23963	37.63
3.25630	37.63
3.27297	37.63
3.28963	37.63
3.30630	37.63
3.32297	37.63
3.33963	37.63
3.35630	37.62
3.37297	37.62
3.38963	37.63
3.40630	37.63
3.42297	37.63
3.43963	37.63
3.45630	37.63
3.47297	37.63
3.48963	37.63
3.50630	37.63
3.52297	37.63
3.53963	37.63
3.55630	37.63
3.57297	37.63
3.58963	37.63
3.60630	37.63
3.62297	37.63
3.63963	37.63
3.65630	37.63
3.67297	37.63
3.68963	37.63
3.70630	37.63
3.72297	37.63
3.73963	37.63
3.75630	37.63
3.77297	37.63
3.78963	37.63
3.80630	37.63
3.82297	37.63
3.83963	37.63
3.85630	37.63
3.87297	37.63
3.88963	37.63
3.90630	37.63
3.92297	37.63
3.93963	37.63
3.95630	37.63
3.97297	37.63
3.98963	37.63

