[Header]
Application Name	LabSolutions
Version	5.110
Data File Name	C:\Users\User\Desktop\GC Analyses\Jack\Nachusa Grasslands Sampling\T3 Timepoint July 12th\T3_07122022_050.gcd
Output Date	3/14/2023
Output Time	3:43:33 PM

[File Information]
Type	Data File
Generated	3/13/2023 8:02:09 PM
Generated by	System Administrator
Modified	3/13/2023 8:08:47 PM
Modified by	System Administrator

[Sample Information]
Operator Name	System Administrator
Acquired	3/13/2023 8:04:47 PM
Sample Type	0:Unknown
Level	0
Sample Name	050
Sample ID	050
ISTD Amount1	1
ISTD Amount2	1
ISTD Amount3	1
ISTD Amount4	1
ISTD Amount5	1
ISTD Amount6	1
ISTD Amount7	1
ISTD Amount8	1
ISTD Amount9	1
ISTD Amount10	1
ISTD Amount11	1
ISTD Amount12	1
ISTD Amount13	1
ISTD Amount14	1
ISTD Amount15	1
ISTD Amount16	1
ISTD Amount17	1
ISTD Amount18	1
ISTD Amount19	1
ISTD Amount20	1
ISTD Amount21	1
ISTD Amount22	1
ISTD Amount23	1
ISTD Amount24	1
ISTD Amount25	1
ISTD Amount26	1
ISTD Amount27	1
ISTD Amount28	1
ISTD Amount29	1
ISTD Amount30	1
ISTD Amount31	1
ISTD Amount32	1
Sample Amount	1
Dilution Factor	1
Vial#	49
Injection Volume	1
Injection Count	1
Bar Code	

[Original Files]
Data File	C:\Users\User\Desktop\GC Analyses\Jack\Nachusa Grasslands Sampling\T3 Timepoint July 12th\T3_07122022_050.gcd
Method File	C:\LabSolutions\Data\GHG_4min_2022\ghg3_togas_w_acet_4 min_new_int.gcm
Batch File	C:\LabSolutions\Data\AutoSamplerTesting\T3_07122022.gcb
Report Format File	c:\LabSolutions\System\DEFAULT.lsr

[File Description]


[Configuration]
Instrument Name	C0B7VH3-Instrument1
Instrument #	1
Line #	1
# of Detectors	3
Detector ID	DET#1	DET#2	DET#3
Detector Name	FID	PTCD	ECD
# of Channels	1	1	1

[Peak Table(Ch1)]
# of Peaks	3
Peak#	R.Time	I.Time	F.Time	Area	Height	A/H	Conc.	Mark	ID#	Name	k'	Plate #	Plate Ht.	Tailing	Resolution	Sep.Factor	Area Ratio	Height Ratio	Conc. %	Norm Conc.
1	1.476	1.428	1.534	25059	12316	2.035	176.916	   	1	CO	0.000	9603	15.620	1.250	0.000	0.000	0	0	14.381	14.381
2	1.571	1.538	1.626	4289	2188	1.960	82.925	   	2	CH4	0.065	11685	12.837	1.165	1.611	0.000	0	0	6.741	6.741
3	1.996	1.949	2.469	3866473	1856714	2.082	970.380	   	3	CO2	0.353	17373	8.634	1.337	7.166	5.462	0	0	78.878	78.878

[Peak Table(Ch2)]
# of Peaks	0

[Peak Table(Ch3)]
# of Peaks	6
Peak#	R.Time	I.Time	F.Time	Area	Height	A/H	Conc.	Mark	ID#	Name	k'	Plate #	Plate Ht.	Tailing	Resolution	Sep.Factor	Area Ratio	Height Ratio	Conc. %	Norm Conc.
1	2.462	2.337	2.510	1998	624	3.205	0.000	   			0.000	10037	14.945	0.000	0.000	0.000	0	0	0.000	0.000
2	2.532	2.510	2.583	1126	356	3.165	0.000	 V 			0.028	5374	27.910	0.000	0.589	0.000	0	0	0.000	0.000
3	2.594	2.583	2.678	511	170	3.007	0.000	 V 			0.054	679	220.882	0.000	0.232	1.895	0	0	0.000	0.000
4	2.880	2.807	3.030	17322	4646	3.728	0.442	   	1	N2O	0.170	13364	11.224	1.525	1.149	3.167	0	0	100.000	100.000
5	3.155	3.045	3.166	169	49	3.414	0.000	   	2	SF6	0.281	15051	9.966	0.552	2.716	1.658	0	0	0.000	0.000
6	3.357	3.173	3.995	19705	709	27.800	0.000	   	2	SF6	0.363	272	551.726	2.198	0.440	1.291	0	0	0.000	0.000

[Compound Results(Ch1)]
# of IDs	6
ID#	Name	R.Time	Area	Height	Conc.	Curve	3rd	2nd	1st	Constant	Area Ratio	Height Ratio	Conc. %	Norm Conc.
1	CO	1.476	25059	12316	176.916	Linear	0.000000e+00	0.000000e+00	1.416423e+002	0.000000e+00	0	0	14.381	14.381
2	CH4	1.571	4289	2188	82.925	Linear	0.000000e+00	0.000000e+00	5.171738e+001	0.000000e+00	0	0	6.741	6.741
3	CO2	1.996	3866473	1856714	970.380	Linear	0.000000e+00	0.000000e+00	3.984494e+003	0.000000e+00	0	0	78.878	78.878
4	Ethylene	0.000	0	0	0.000	Linear	0.000000e+00	0.000000e+00	0.000000e+00	0.000000e+00	0	0	0.000	0.000
5	Acetylene	0.000	0	0	0.000	Linear	0.000000e+00	0.000000e+00	0.000000e+00	0.000000e+00	0	0	0.000	0.000
6	Ethane	0.000	0	0	0.000	Linear	0.000000e+00	0.000000e+00	0.000000e+00	0.000000e+00	0	0	0.000	0.000

[Compound Results(Ch2)]
# of IDs	5
ID#	Name	R.Time	Area	Height	Conc.	Curve	3rd	2nd	1st	Constant	Area Ratio	Height Ratio	Conc. %	Norm Conc.
1	Hydrogen	0.000	0	0	0.000	Linear	0.000000e+00	0.000000e+00	0.000000e+00	0.000000e+00	0	0	0.000	0.000
2	Oxygen	0.000	0	0	0.000	Linear	0.000000e+00	0.000000e+00	0.000000e+00	0.000000e+00	0	0	0.000	0.000
3	Nitrogen	0.000	0	0	0.000	Linear	0.000000e+00	0.000000e+00	0.000000e+00	0.000000e+00	0	0	0.000	0.000
4	Methane	0.000	0	0	0.000	Linear	0.000000e+00	0.000000e+00	0.000000e+00	0.000000e+00	0	0	0.000	0.000
5	Carbon Monoxide	0.000	0	0	0.000	Linear	0.000000e+00	0.000000e+00	0.000000e+00	0.000000e+00	0	0	0.000	0.000

[Compound Results(Ch3)]
# of IDs	2
ID#	Name	R.Time	Area	Height	Conc.	Curve	3rd	2nd	1st	Constant	Area Ratio	Height Ratio	Conc. %	Norm Conc.
1	N2O	2.880	17322	4646	0.442	Linear	0.000000e+00	0.000000e+00	3.915173e+004	0.000000e+00	0	0	100.000	100.000
2	SF6	3.357	19874	758	0.000	Linear	0.000000e+00	0.000000e+00	0.000000e+00	0.000000e+00	0	0	0.000	0.000

[Group Results(Ch1)]
# of Groups	0

[Group Results(Ch2)]
# of Groups	0

[Group Results(Ch3)]
# of Groups	0

[Chromatogram (Ch1)]
Interval(msec)	220
# of Points	1091
Start Time(min)	0.002
End Time(min)	3.998
R.Time (min)	Intensity
0.00167	5
0.00533	5
0.00900	8
0.01267	16
0.01633	26
0.02000	33
0.02367	35
0.02733	32
0.03100	23
0.03467	14
0.03833	7
0.04200	-1
0.04567	-7
0.04933	-4
0.05300	7
0.05667	20
0.06033	29
0.06400	31
0.06767	25
0.07133	18
0.07500	11
0.07867	6
0.08233	4
0.08600	1
0.08967	-0
0.09333	2
0.09700	6
0.10067	6
0.10433	1
0.10800	-5
0.11167	-16
0.11533	-25
0.11900	-26
0.12267	-20
0.12633	-10
0.13000	1
0.13367	11
0.13733	16
0.14100	23
0.14467	27
0.14833	31
0.15200	31
0.15567	30
0.15933	27
0.16300	18
0.16667	11
0.17033	9
0.17400	9
0.17767	11
0.18133	15
0.18500	23
0.18867	31
0.19233	31
0.19600	28
0.19967	25
0.20333	27
0.20700	32
0.21067	37
0.21433	41
0.21800	43
0.22167	44
0.22533	42
0.22900	36
0.23267	28
0.23633	25
0.24000	29
0.24367	34
0.24733	37
0.25100	40
0.25467	41
0.25833	41
0.26200	42
0.26567	43
0.26933	44
0.27300	47
0.27667	57
0.28033	71
0.28400	82
0.28767	87
0.29133	86
0.29500	80
0.29867	75
0.30233	74
0.30600	81
0.30967	92
0.31333	100
0.31700	105
0.32067	114
0.32433	116
0.32800	110
0.33167	111
0.33533	121
0.33900	135
0.34267	144
0.34633	142
0.35000	135
0.35367	129
0.35733	120
0.36100	108
0.36467	98
0.36833	91
0.37200	88
0.37567	84
0.37933	83
0.38300	81
0.38667	79
0.39033	80
0.39400	84
0.39767	86
0.40133	84
0.40500	81
0.40867	78
0.41233	71
0.41600	62
0.41967	51
0.42333	41
0.42700	33
0.43067	31
0.43433	32
0.43800	33
0.44167	30
0.44533	26
0.44900	25
0.45267	27
0.45633	30
0.46000	29
0.46367	25
0.46733	18
0.47100	14
0.47467	17
0.47833	17
0.48200	8
0.48567	-3
0.48933	-6
0.49300	-1
0.49667	8
0.50033	12
0.50400	12
0.50767	12
0.51133	12
0.51500	13
0.51867	15
0.52233	16
0.52600	16
0.52967	20
0.53333	25
0.53700	28
0.54067	30
0.54433	27
0.54800	18
0.55167	5
0.55533	-6
0.55900	-14
0.56267	-11
0.56633	-1
0.57000	12
0.57367	19
0.57733	21
0.58100	22
0.58467	21
0.58833	17
0.59200	12
0.59567	4
0.59933	-2
0.60300	-2
0.60667	3
0.61033	14
0.61400	15
0.61767	8
0.62133	-3
0.62500	-12
0.62867	-17
0.63233	-15
0.63600	-8
0.63967	-1
0.64333	6
0.64700	10
0.65067	14
0.65433	14
0.65800	8
0.66167	-0
0.66533	-5
0.66900	-8
0.67267	-8
0.67633	-7
0.68000	-4
0.68367	-1
0.68733	0
0.69100	-2
0.69467	-6
0.69833	-11
0.70200	-14
0.70567	-11
0.70933	-8
0.71300	-3
0.71667	1
0.72033	3
0.72400	3
0.72767	3
0.73133	1
0.73500	1
0.73867	3
0.74233	1
0.74600	-2
0.74967	-4
0.75333	-1
0.75700	2
0.76067	3
0.76433	2
0.76800	1
0.77167	-2
0.77533	-2
0.77900	-2
0.78267	-5
0.78633	-8
0.79000	-4
0.79367	-1
0.79733	-4
0.80100	-8
0.80467	-13
0.80833	-17
0.81200	-20
0.81567	-18
0.81933	-12
0.82300	-4
0.82667	5
0.83033	10
0.83400	12
0.83767	11
0.84133	2
0.84500	-8
0.84867	-14
0.85233	-20
0.85600	-22
0.85967	-18
0.86333	-13
0.86700	-9
0.87067	-8
0.87433	-10
0.87800	-14
0.88167	-21
0.88533	-31
0.88900	-40
0.89267	-42
0.89633	-40
0.90000	-35
0.90367	-30
0.90733	-24
0.91100	-17
0.91467	-13
0.91833	-12
0.92200	-14
0.92567	-15
0.92933	-15
0.93300	-12
0.93667	-7
0.94033	-3
0.94400	1
0.94767	4
0.95133	2
0.95500	-6
0.95867	-18
0.96233	-29
0.96600	-33
0.96967	-33
0.97333	-29
0.97700	-24
0.98067	-22
0.98433	-22
0.98800	-20
0.99167	-15
0.99533	-13
0.99900	-17
1.00267	-19
1.00633	-17
1.01000	-16
1.01367	-17
1.01733	-18
1.02100	-20
1.02467	-21
1.02833	-21
1.03200	-21
1.03567	-22
1.03933	-20
1.04300	-18
1.04667	-19
1.05033	-20
1.05400	-21
1.05767	-21
1.06133	-21
1.06500	-22
1.06867	-21
1.07233	-23
1.07600	-21
1.07967	-18
1.08333	-16
1.08700	-17
1.09067	-19
1.09433	-19
1.09800	-20
1.10167	-17
1.10533	-11
1.10900	-8
1.11267	-3
1.11633	6
1.12000	12
1.12367	10
1.12733	8
1.13100	7
1.13467	4
1.13833	2
1.14200	1
1.14567	4
1.14933	12
1.15300	15
1.15667	17
1.16033	26
1.16400	37
1.16767	39
1.17133	35
1.17500	31
1.17867	26
1.18233	18
1.18600	10
1.18967	1
1.19333	-7
1.19700	-9
1.20067	-7
1.20433	-2
1.20800	4
1.21167	9
1.21533	9
1.21900	9
1.22267	9
1.22633	6
1.23000	-0
1.23367	-8
1.23733	-14
1.24100	-17
1.24467	-18
1.24833	-17
1.25200	-17
1.25567	-8
1.25933	5
1.26300	16
1.26667	19
1.27033	19
1.27400	15
1.27767	14
1.28133	11
1.28500	7
1.28867	7
1.29233	8
1.29600	8
1.29967	6
1.30333	4
1.30700	3
1.31067	7
1.31433	12
1.31800	16
1.32167	17
1.32533	17
1.32900	15
1.33267	21
1.33633	25
1.34000	25
1.34367	18
1.34733	9
1.35100	-2
1.35467	-9
1.35833	-14
1.36200	-22
1.36567	-27
1.36933	-21
1.37300	-13
1.37667	-8
1.38033	-8
1.38400	-10
1.38767	-13
1.39133	-16
1.39500	-16
1.39867	-13
1.40233	-13
1.40600	-12
1.40967	-10
1.41333	-8
1.41700	-11
1.42067	-16
1.42433	-19
1.42800	-18
1.43167	-14
1.43533	-6
1.43900	9
1.44267	49
1.44633	192
1.45000	620
1.45367	1638
1.45733	3464
1.46100	5826
1.46467	8186
1.46833	10152
1.47200	11540
1.47567	12241
1.47933	12144
1.48300	11218
1.48667	9635
1.49033	7718
1.49400	5813
1.49767	4161
1.50133	2854
1.50500	1881
1.50867	1188
1.51233	710
1.51600	385
1.51967	168
1.52333	29
1.52700	-61
1.53067	-116
1.53433	-144
1.53800	-149
1.54167	-110
1.54533	23
1.54900	299
1.55267	695
1.55633	1128
1.56000	1520
1.56367	1823
1.56733	2010
1.57100	2056
1.57467	1943
1.57833	1682
1.58200	1332
1.58567	973
1.58933	661
1.59300	421
1.59667	247
1.60033	127
1.60400	45
1.60767	-9
1.61133	-40
1.61500	-60
1.61867	-78
1.62233	-94
1.62600	-103
1.62967	-105
1.63333	-100
1.63700	-92
1.64067	-86
1.64433	-85
1.64800	-91
1.65167	-105
1.65533	-117
1.65900	-121
1.66267	-119
1.66633	-111
1.67000	-100
1.67367	-93
1.67733	-92
1.68100	-93
1.68467	-97
1.68833	-100
1.69200	-99
1.69567	-95
1.69933	-91
1.70300	-90
1.70667	-90
1.71033	-89
1.71400	-86
1.71767	-80
1.72133	-76
1.72500	-76
1.72867	-79
1.73233	-82
1.73600	-81
1.73967	-75
1.74333	-68
1.74700	-63
1.75067	-59
1.75433	-55
1.75800	-56
1.76167	-59
1.76533	-63
1.76900	-67
1.77267	-68
1.77633	-65
1.78000	-68
1.78367	-74
1.78733	-81
1.79100	-82
1.79467	-77
1.79833	-73
1.80200	-72
1.80567	-68
1.80933	-63
1.81300	-57
1.81667	-54
1.82033	-56
1.82400	-59
1.82767	-62
1.83133	-63
1.83500	-61
1.83867	-60
1.84233	-63
1.84600	-65
1.84967	-66
1.85333	-67
1.85700	-68
1.86067	-67
1.86433	-57
1.86800	-41
1.87167	-28
1.87533	-23
1.87900	-27
1.88267	-41
1.88633	-54
1.89000	-65
1.89367	-73
1.89733	-73
1.90100	-65
1.90467	-52
1.90833	-39
1.91200	-25
1.91567	-15
1.91933	-6
1.92300	-5
1.92667	-13
1.93033	-26
1.93400	-39
1.93767	-47
1.94133	-52
1.94500	-55
1.94867	-53
1.95233	-35
1.95600	111
1.95967	1095
1.96333	6235
1.96700	26543
1.97067	87852
1.97433	228802
1.97800	475670
1.98167	811771
1.98533	1178546
1.98900	1507046
1.99267	1743389
1.99633	1856696
2.00000	1838308
2.00367	1701674
2.00733	1478471
2.01100	1211198
2.01467	941800
2.01833	701060
2.02200	504475
2.02567	354428
2.02933	245387
2.03300	168837
2.03667	116327
2.04033	80811
2.04400	56943
2.04767	40897
2.05133	30047
2.05500	22636
2.05867	17504
2.06233	13885
2.06600	11280
2.06967	9367
2.07333	7927
2.07700	6817
2.08067	5947
2.08433	5258
2.08800	4709
2.09167	4259
2.09533	3873
2.09900	3535
2.10267	3238
2.10633	2982
2.11000	2763
2.11367	2575
2.11733	2411
2.12100	2266
2.12467	2139
2.12833	2027
2.13200	1925
2.13567	1832
2.13933	1746
2.14300	1664
2.14667	1585
2.15033	1512
2.15400	1446
2.15767	1391
2.16133	1344
2.16500	1294
2.16867	1238
2.17233	1182
2.17600	1131
2.17967	1082
2.18333	1042
2.18700	1014
2.19067	988
2.19433	963
2.19800	933
2.20167	906
2.20533	879
2.20900	848
2.21267	822
2.21633	802
2.22000	789
2.22367	782
2.22733	775
2.23100	764
2.23467	753
2.23833	745
2.24200	735
2.24567	720
2.24933	701
2.25300	682
2.25667	667
2.26033	650
2.26400	629
2.26767	608
2.27133	588
2.27500	570
2.27867	554
2.28233	535
2.28600	521
2.28967	517
2.29333	517
2.29700	518
2.30067	519
2.30433	515
2.30800	508
2.31167	496
2.31533	485
2.31900	481
2.32267	478
2.32633	474
2.33000	471
2.33367	463
2.33733	451
2.34100	439
2.34467	430
2.34833	424
2.35200	420
2.35567	416
2.35933	411
2.36300	412
2.36667	422
2.37033	432
2.37400	436
2.37767	432
2.38133	420
2.38500	401
2.38867	383
2.39233	375
2.39600	377
2.39967	381
2.40333	388
2.40700	397
2.41067	406
2.41433	406
2.41800	395
2.42167	377
2.42533	363
2.42900	355
2.43267	352
2.43633	349
2.44000	347
2.44367	347
2.44733	351
2.45100	355
2.45467	356
2.45833	355
2.46200	348
2.46567	340
2.46933	333
2.47300	330
2.47667	328
2.48033	326
2.48400	320
2.48767	316
2.49133	318
2.49500	325
2.49867	330
2.50233	332
2.50600	332
2.50967	331
2.51333	331
2.51700	331
2.52067	329
2.52433	330
2.52800	338
2.53167	341
2.53533	339
2.53900	333
2.54267	330
2.54633	334
2.55000	336
2.55367	339
2.55733	339
2.56100	331
2.56467	323
2.56833	314
2.57200	303
2.57567	293
2.57933	289
2.58300	290
2.58667	290
2.59033	292
2.59400	300
2.59767	308
2.60133	307
2.60500	302
2.60867	297
2.61233	297
2.61600	301
2.61967	301
2.62333	292
2.62700	284
2.63067	280
2.63433	276
2.63800	275
2.64167	278
2.64533	286
2.64900	292
2.65267	293
2.65633	289
2.66000	284
2.66367	285
2.66733	293
2.67100	308
2.67467	316
2.67833	312
2.68200	300
2.68567	292
2.68933	294
2.69300	297
2.69667	299
2.70033	305
2.70400	309
2.70767	304
2.71133	295
2.71500	291
2.71867	291
2.72233	288
2.72600	283
2.72967	281
2.73333	285
2.73700	293
2.74067	297
2.74433	300
2.74800	299
2.75167	298
2.75533	297
2.75900	297
2.76267	298
2.76633	296
2.77000	292
2.77367	291
2.77733	294
2.78100	298
2.78467	298
2.78833	298
2.79200	302
2.79567	302
2.79933	298
2.80300	297
2.80667	296
2.81033	298
2.81400	301
2.81767	305
2.82133	309
2.82500	307
2.82867	301
2.83233	300
2.83600	303
2.83967	307
2.84333	311
2.84700	314
2.85067	316
2.85433	321
2.85800	321
2.86167	317
2.86533	312
2.86900	309
2.87267	310
2.87633	313
2.88000	314
2.88367	311
2.88733	302
2.89100	292
2.89467	284
2.89833	282
2.90200	288
2.90567	291
2.90933	296
2.91300	300
2.91667	302
2.92033	303
2.92400	302
2.92767	304
2.93133	304
2.93500	305
2.93867	307
2.94233	312
2.94600	319
2.94967	324
2.95333	325
2.95700	321
2.96067	312
2.96433	303
2.96800	296
2.97167	290
2.97533	288
2.97900	287
2.98267	285
2.98633	288
2.99000	296
2.99367	307
2.99733	320
3.00100	332
3.00467	338
3.00833	334
3.01200	323
3.01567	318
3.01933	316
3.02300	312
3.02667	307
3.03033	303
3.03400	301
3.03767	300
3.04133	298
3.04500	293
3.04867	289
3.05233	291
3.05600	292
3.05967	293
3.06333	297
3.06700	301
3.07067	301
3.07433	300
3.07800	302
3.08167	312
3.08533	319
3.08900	317
3.09267	312
3.09633	308
3.10000	308
3.10367	307
3.10733	300
3.11100	292
3.11467	283
3.11833	273
3.12200	264
3.12567	258
3.12933	257
3.13300	260
3.13667	264
3.14033	273
3.14400	284
3.14767	290
3.15133	290
3.15500	290
3.15867	290
3.16233	288
3.16600	289
3.16967	292
3.17333	291
3.17700	289
3.18067	287
3.18433	290
3.18800	293
3.19167	292
3.19533	291
3.19900	289
3.20267	286
3.20633	284
3.21000	286
3.21367	287
3.21733	283
3.22100	278
3.22467	275
3.22833	275
3.23200	283
3.23567	291
3.23933	292
3.24300	285
3.24667	279
3.25033	278
3.25400	274
3.25767	269
3.26133	266
3.26500	266
3.26867	271
3.27233	279
3.27600	286
3.27967	290
3.28333	287
3.28700	280
3.29067	276
3.29433	272
3.29800	266
3.30167	262
3.30533	262
3.30900	260
3.31267	259
3.31633	260
3.32000	257
3.32367	254
3.32733	253
3.33100	260
3.33467	268
3.33833	268
3.34200	263
3.34567	259
3.34933	255
3.35300	253
3.35667	255
3.36033	261
3.36400	263
3.36767	261
3.37133	260
3.37500	263
3.37867	267
3.38233	268
3.38600	263
3.38967	257
3.39333	255
3.39700	256
3.40067	255
3.40433	250
3.40800	248
3.41167	250
3.41533	253
3.41900	256
3.42267	257
3.42633	253
3.43000	248
3.43367	242
3.43733	241
3.44100	244
3.44467	244
3.44833	239
3.45200	234
3.45567	235
3.45933	242
3.46300	249
3.46667	255
3.47033	259
3.47400	264
3.47767	268
3.48133	267
3.48500	261
3.48867	250
3.49233	235
3.49600	220
3.49967	213
3.50333	211
3.50700	209
3.51067	206
3.51433	201
3.51800	194
3.52167	188
3.52533	185
3.52900	184
3.53267	191
3.53633	204
3.54000	214
3.54367	224
3.54733	238
3.55100	251
3.55467	259
3.55833	254
3.56200	243
3.56567	232
3.56933	223
3.57300	217
3.57667	211
3.58033	203
3.58400	195
3.58767	194
3.59133	205
3.59500	217
3.59867	217
3.60233	213
3.60600	214
3.60967	216
3.61333	218
3.61700	217
3.62067	212
3.62433	210
3.62800	213
3.63167	219
3.63533	226
3.63900	225
3.64267	218
3.64633	211
3.65000	206
3.65367	208
3.65733	214
3.66100	216
3.66467	215
3.66833	211
3.67200	204
3.67567	199
3.67933	197
3.68300	195
3.68667	195
3.69033	194
3.69400	196
3.69767	201
3.70133	207
3.70500	205
3.70867	201
3.71233	196
3.71600	191
3.71967	187
3.72333	185
3.72700	184
3.73067	185
3.73433	187
3.73800	191
3.74167	194
3.74533	196
3.74900	192
3.75267	192
3.75633	193
3.76000	193
3.76367	193
3.76733	190
3.77100	187
3.77467	185
3.77833	187
3.78200	190
3.78567	190
3.78933	190
3.79300	188
3.79667	182
3.80033	174
3.80400	170
3.80767	174
3.81133	177
3.81500	179
3.81867	182
3.82233	185
3.82600	190
3.82967	201
3.83333	213
3.83700	213
3.84067	206
3.84433	197
3.84800	188
3.85167	179
3.85533	178
3.85900	182
3.86267	184
3.86633	185
3.87000	181
3.87367	172
3.87733	163
3.88100	157
3.88467	156
3.88833	157
3.89200	158
3.89567	159
3.89933	157
3.90300	156
3.90667	154
3.91033	155
3.91400	158
3.91767	161
3.92133	163
3.92500	161
3.92867	158
3.93233	155
3.93600	157
3.93967	162
3.94333	169
3.94700	178
3.95067	181
3.95433	177
3.95800	172
3.96167	175
3.96533	176
3.96900	173
3.97267	170
3.97633	168
3.98000	168
3.98367	166
3.98733	166
3.99100	166
3.99467	162
3.99833	158

[Chromatogram (Ch2)]
Interval(msec)	220
# of Points	1091
Start Time(min)	0.002
End Time(min)	3.998
R.Time (min)	Intensity
0.00167	-1
0.00533	-2
0.00900	-2
0.01267	-2
0.01633	-3
0.02000	-3
0.02367	-3
0.02733	-3
0.03100	-4
0.03467	-4
0.03833	-3
0.04200	-3
0.04567	-3
0.04933	-2
0.05300	-2
0.05667	-2
0.06033	-2
0.06400	-1
0.06767	-1
0.07133	-1
0.07500	-1
0.07867	-1
0.08233	-1
0.08600	-0
0.08967	0
0.09333	0
0.09700	1
0.10067	2
0.10433	2
0.10800	2
0.11167	3
0.11533	2
0.11900	2
0.12267	2
0.12633	2
0.13000	2
0.13367	1
0.13733	1
0.14100	1
0.14467	1
0.14833	1
0.15200	1
0.15567	1
0.15933	1
0.16300	2
0.16667	2
0.17033	1
0.17400	1
0.17767	1
0.18133	1
0.18500	0
0.18867	-0
0.19233	-1
0.19600	-1
0.19967	-2
0.20333	-2
0.20700	-2
0.21067	-2
0.21433	-3
0.21800	-3
0.22167	-3
0.22533	-3
0.22900	-2
0.23267	-2
0.23633	-3
0.24000	-3
0.24367	-3
0.24733	-3
0.25100	-3
0.25467	-3
0.25833	-3
0.26200	-3
0.26567	-3
0.26933	-3
0.27300	-3
0.27667	-3
0.28033	-3
0.28400	-3
0.28767	-2
0.29133	-2
0.29500	-2
0.29867	-2
0.30233	-2
0.30600	-1
0.30967	-1
0.31333	-2
0.31700	-1
0.32067	-1
0.32433	-1
0.32800	-1
0.33167	-1
0.33533	-1
0.33900	-1
0.34267	-0
0.34633	-0
0.35000	0
0.35367	0
0.35733	0
0.36100	0
0.36467	0
0.36833	-0
0.37200	-0
0.37567	-1
0.37933	-1
0.38300	-1
0.38667	-2
0.39033	-2
0.39400	-2
0.39767	-2
0.40133	-3
0.40500	-3
0.40867	-3
0.41233	-3
0.41600	-3
0.41967	-3
0.42333	-2
0.42700	-2
0.43067	-2
0.43433	-2
0.43800	-2
0.44167	-2
0.44533	-1
0.44900	-1
0.45267	-1
0.45633	-1
0.46000	-1
0.46367	-1
0.46733	-1
0.47100	-1
0.47467	-2
0.47833	-2
0.48200	-2
0.48567	-2
0.48933	-2
0.49300	-3
0.49667	-3
0.50033	-3
0.50400	-3
0.50767	-3
0.51133	-3
0.51500	-3
0.51867	-3
0.52233	-3
0.52600	-3
0.52967	-3
0.53333	-3
0.53700	-3
0.54067	-3
0.54433	-3
0.54800	-3
0.55167	-3
0.55533	-3
0.55900	-3
0.56267	-3
0.56633	-3
0.57000	-2
0.57367	-2
0.57733	-1
0.58100	-1
0.58467	-0
0.58833	-0
0.59200	0
0.59567	1
0.59933	1
0.60300	1
0.60667	1
0.61033	1
0.61400	1
0.61767	1
0.62133	1
0.62500	1
0.62867	1
0.63233	1
0.63600	1
0.63967	1
0.64333	0
0.64700	0
0.65067	0
0.65433	0
0.65800	1
0.66167	1
0.66533	0
0.66900	0
0.67267	-0
0.67633	-0
0.68000	-0
0.68367	-1
0.68733	-1
0.69100	-1
0.69467	-2
0.69833	-2
0.70200	-2
0.70567	-3
0.70933	-3
0.71300	-3
0.71667	-3
0.72033	-3
0.72400	-3
0.72767	-3
0.73133	-3
0.73500	-3
0.73867	-3
0.74233	-3
0.74600	-2
0.74967	-2
0.75333	-2
0.75700	-2
0.76067	-1
0.76433	-1
0.76800	-2
0.77167	-2
0.77533	-2
0.77900	-2
0.78267	-2
0.78633	-2
0.79000	-1
0.79367	-1
0.79733	-1
0.80100	-1
0.80467	-1
0.80833	-1
0.81200	-1
0.81567	-1
0.81933	-1
0.82300	-1
0.82667	-1
0.83033	-2
0.83400	-2
0.83767	-3
0.84133	-4
0.84500	-4
0.84867	-5
0.85233	-5
0.85600	-5
0.85967	-5
0.86333	-5
0.86700	-4
0.87067	-4
0.87433	-4
0.87800	-4
0.88167	-3
0.88533	-3
0.88900	-2
0.89267	-2
0.89633	-2
0.90000	-2
0.90367	-2
0.90733	-2
0.91100	-2
0.91467	-3
0.91833	-3
0.92200	-3
0.92567	-3
0.92933	-3
0.93300	-3
0.93667	-3
0.94033	-3
0.94400	-3
0.94767	-3
0.95133	-3
0.95500	-3
0.95867	-3
0.96233	-3
0.96600	-3
0.96967	-3
0.97333	-3
0.97700	-3
0.98067	-2
0.98433	-2
0.98800	-2
0.99167	-1
0.99533	-1
0.99900	-1
1.00267	-0
1.00633	0
1.01000	0
1.01367	0
1.01733	-0
1.02100	-0
1.02467	-0
1.02833	-0
1.03200	-1
1.03567	-0
1.03933	-0
1.04300	0
1.04667	1
1.05033	1
1.05400	1
1.05767	1
1.06133	1
1.06500	1
1.06867	1
1.07233	1
1.07600	1
1.07967	1
1.08333	1
1.08700	1
1.09067	1
1.09433	1
1.09800	1
1.10167	1
1.10533	-0
1.10900	-1
1.11267	-2
1.11633	-2
1.12000	-3
1.12367	-4
1.12733	-4
1.13100	-5
1.13467	-5
1.13833	-5
1.14200	-5
1.14567	-5
1.14933	-5
1.15300	-5
1.15667	-5
1.16033	-5
1.16400	-5
1.16767	-4
1.17133	-4
1.17500	-4
1.17867	-4
1.18233	-3
1.18600	-3
1.18967	-3
1.19333	-3
1.19700	-2
1.20067	-2
1.20433	-1
1.20800	-1
1.21167	-0
1.21533	0
1.21900	1
1.22267	1
1.22633	1
1.23000	1
1.23367	1
1.23733	1
1.24100	1
1.24467	1
1.24833	0
1.25200	-0
1.25567	-1
1.25933	-1
1.26300	-1
1.26667	-2
1.27033	-2
1.27400	-2
1.27767	-2
1.28133	-2
1.28500	-3
1.28867	-3
1.29233	-3
1.29600	-3
1.29967	-3
1.30333	-3
1.30700	-4
1.31067	-4
1.31433	-5
1.31800	-5
1.32167	-5
1.32533	-6
1.32900	-6
1.33267	-6
1.33633	-6
1.34000	-6
1.34367	-6
1.34733	-6
1.35100	-6
1.35467	-5
1.35833	-5
1.36200	-4
1.36567	-4
1.36933	-4
1.37300	-3
1.37667	-3
1.38033	-3
1.38400	-3
1.38767	-3
1.39133	-3
1.39500	-3
1.39867	-3
1.40233	-3
1.40600	-3
1.40967	-3
1.41333	-3
1.41700	-2
1.42067	-1
1.42433	-1
1.42800	-1
1.43167	-1
1.43533	-1
1.43900	-1
1.44267	-1
1.44633	-1
1.45000	-2
1.45367	-2
1.45733	-2
1.46100	-2
1.46467	-3
1.46833	-3
1.47200	-3
1.47567	-3
1.47933	-3
1.48300	-3
1.48667	-3
1.49033	-3
1.49400	-3
1.49767	-2
1.50133	-2
1.50500	-2
1.50867	-2
1.51233	-2
1.51600	-2
1.51967	-1
1.52333	-1
1.52700	-0
1.53067	-0
1.53433	0
1.53800	0
1.54167	0
1.54533	0
1.54900	0
1.55267	-0
1.55633	-0
1.56000	-0
1.56367	-0
1.56733	-0
1.57100	-0
1.57467	-1
1.57833	-1
1.58200	-1
1.58567	-2
1.58933	-2
1.59300	-3
1.59667	-4
1.60033	-5
1.60400	-6
1.60767	-8
1.61133	-10
1.61500	-12
1.61867	-15
1.62233	-18
1.62600	-21
1.62967	-24
1.63333	-28
1.63700	-31
1.64067	-35
1.64433	-38
1.64800	-42
1.65167	-46
1.65533	-49
1.65900	-53
1.66267	-57
1.66633	-61
1.67000	-66
1.67367	-71
1.67733	-76
1.68100	-81
1.68467	-86
1.68833	-90
1.69200	-94
1.69567	-97
1.69933	-99
1.70300	-101
1.70667	-102
1.71033	-103
1.71400	-104
1.71767	-104
1.72133	-105
1.72500	-105
1.72867	-105
1.73233	-105
1.73600	-105
1.73967	-105
1.74333	-105
1.74700	-105
1.75067	-105
1.75433	-105
1.75800	-106
1.76167	-108
1.76533	-109
1.76900	-111
1.77267	-112
1.77633	-114
1.78000	-115
1.78367	-115
1.78733	-115
1.79100	-115
1.79467	-114
1.79833	-113
1.80200	-113
1.80567	-112
1.80933	-112
1.81300	-112
1.81667	-113
1.82033	-113
1.82400	-114
1.82767	-115
1.83133	-115
1.83500	-116
1.83867	-116
1.84233	-116
1.84600	-117
1.84967	-117
1.85333	-116
1.85700	-116
1.86067	-115
1.86433	-115
1.86800	-115
1.87167	-115
1.87533	-115
1.87900	-115
1.88267	-115
1.88633	-114
1.89000	-114
1.89367	-114
1.89733	-114
1.90100	-114
1.90467	-114
1.90833	-113
1.91200	-113
1.91567	-113
1.91933	-112
1.92300	-112
1.92667	-113
1.93033	-113
1.93400	-113
1.93767	-113
1.94133	-113
1.94500	-113
1.94867	-113
1.95233	-112
1.95600	-112
1.95967	-111
1.96333	-110
1.96700	-109
1.97067	-109
1.97433	-109
1.97800	-108
1.98167	-107
1.98533	-107
1.98900	-107
1.99267	-107
1.99633	-107
2.00000	-107
2.00367	-107
2.00733	-107
2.01100	-107
2.01467	-106
2.01833	-106
2.02200	-105
2.02567	-105
2.02933	-104
2.03300	-104
2.03667	-104
2.04033	-104
2.04400	-104
2.04767	-104
2.05133	-104
2.05500	-104
2.05867	-104
2.06233	-104
2.06600	-103
2.06967	-103
2.07333	-103
2.07700	-102
2.08067	-102
2.08433	-102
2.08800	-102
2.09167	-102
2.09533	-102
2.09900	-102
2.10267	-102
2.10633	-101
2.11000	-100
2.11367	-99
2.11733	-99
2.12100	-98
2.12467	-98
2.12833	-97
2.13200	-97
2.13567	-97
2.13933	-97
2.14300	-97
2.14667	-96
2.15033	-96
2.15400	-96
2.15767	-95
2.16133	-95
2.16500	-95
2.16867	-94
2.17233	-94
2.17600	-93
2.17967	-93
2.18333	-92
2.18700	-92
2.19067	-92
2.19433	-92
2.19800	-92
2.20167	-92
2.20533	-91
2.20900	-91
2.21267	-90
2.21633	-90
2.22000	-89
2.22367	-88
2.22733	-87
2.23100	-87
2.23467	-87
2.23833	-86
2.24200	-86
2.24567	-86
2.24933	-87
2.25300	-87
2.25667	-87
2.26033	-88
2.26400	-87
2.26767	-87
2.27133	-86
2.27500	-85
2.27867	-84
2.28233	-84
2.28600	-83
2.28967	-83
2.29333	-83
2.29700	-84
2.30067	-84
2.30433	-84
2.30800	-84
2.31167	-83
2.31533	-83
2.31900	-83
2.32267	-82
2.32633	-81
2.33000	-80
2.33367	-79
2.33733	-79
2.34100	-78
2.34467	-78
2.34833	-77
2.35200	-76
2.35567	-75
2.35933	-73
2.36300	-71
2.36667	-69
2.37033	-67
2.37400	-64
2.37767	-61
2.38133	-57
2.38500	-53
2.38867	-48
2.39233	-43
2.39600	-39
2.39967	-34
2.40333	-30
2.40700	-26
2.41067	-22
2.41433	-19
2.41800	-16
2.42167	-14
2.42533	-12
2.42900	-10
2.43267	-9
2.43633	-8
2.44000	-8
2.44367	-7
2.44733	-7
2.45100	-7
2.45467	-6
2.45833	-5
2.46200	-5
2.46567	-3
2.46933	-2
2.47300	-1
2.47667	-1
2.48033	0
2.48400	1
2.48767	2
2.49133	3
2.49500	3
2.49867	4
2.50233	5
2.50600	6
2.50967	6
2.51333	7
2.51700	7
2.52067	8
2.52433	9
2.52800	10
2.53167	10
2.53533	11
2.53900	11
2.54267	12
2.54633	12
2.55000	12
2.55367	13
2.55733	13
2.56100	13
2.56467	13
2.56833	13
2.57200	13
2.57567	14
2.57933	14
2.58300	14
2.58667	15
2.59033	15
2.59400	15
2.59767	15
2.60133	14
2.60500	14
2.60867	14
2.61233	14
2.61600	13
2.61967	13
2.62333	13
2.62700	14
2.63067	14
2.63433	15
2.63800	16
2.64167	16
2.64533	17
2.64900	18
2.65267	18
2.65633	19
2.66000	19
2.66367	19
2.66733	18
2.67100	18
2.67467	18
2.67833	18
2.68200	19
2.68567	19
2.68933	19
2.69300	20
2.69667	20
2.70033	20
2.70400	20
2.70767	21
2.71133	21
2.71500	22
2.71867	22
2.72233	23
2.72600	23
2.72967	24
2.73333	24
2.73700	23
2.74067	23
2.74433	23
2.74800	23
2.75167	23
2.75533	22
2.75900	22
2.76267	21
2.76633	21
2.77000	21
2.77367	21
2.77733	21
2.78100	21
2.78467	21
2.78833	22
2.79200	22
2.79567	23
2.79933	24
2.80300	24
2.80667	25
2.81033	26
2.81400	26
2.81767	27
2.82133	27
2.82500	27
2.82867	27
2.83233	27
2.83600	27
2.83967	27
2.84333	26
2.84700	23
2.85067	20
2.85433	14
2.85800	5
2.86167	-8
2.86533	-24
2.86900	-44
2.87267	-69
2.87633	-98
2.88000	-131
2.88367	-169
2.88733	-210
2.89100	-255
2.89467	-303
2.89833	-353
2.90200	-405
2.90567	-459
2.90933	-513
2.91300	-569
2.91667	-624
2.92033	-680
2.92400	-734
2.92767	-787
2.93133	-839
2.93500	-892
2.93867	-950
2.94233	-1009
2.94600	-1061
2.94967	-1094
2.95333	-1102
2.95700	-1083
2.96067	-1042
2.96433	-983
2.96800	-912
2.97167	-833
2.97533	-752
2.97900	-672
2.98267	-596
2.98633	-524
2.99000	-458
2.99367	-397
2.99733	-344
3.00100	-296
3.00467	-254
3.00833	-217
3.01200	-184
3.01567	-157
3.01933	-133
3.02300	-112
3.02667	-94
3.03033	-79
3.03400	-66
3.03767	-55
3.04133	-45
3.04500	-37
3.04867	-30
3.05233	-23
3.05600	-18
3.05967	-13
3.06333	-9
3.06700	-6
3.07067	-3
3.07433	-1
3.07800	1
3.08167	3
3.08533	5
3.08900	6
3.09267	8
3.09633	9
3.10000	10
3.10367	11
3.10733	11
3.11100	12
3.11467	13
3.11833	13
3.12200	14
3.12567	15
3.12933	15
3.13300	16
3.13667	16
3.14033	17
3.14400	17
3.14767	17
3.15133	18
3.15500	18
3.15867	19
3.16233	19
3.16600	19
3.16967	20
3.17333	20
3.17700	20
3.18067	21
3.18433	21
3.18800	21
3.19167	21
3.19533	21
3.19900	21
3.20267	21
3.20633	21
3.21000	21
3.21367	21
3.21733	21
3.22100	21
3.22467	21
3.22833	21
3.23200	21
3.23567	21
3.23933	21
3.24300	21
3.24667	22
3.25033	22
3.25400	22
3.25767	22
3.26133	22
3.26500	22
3.26867	22
3.27233	22
3.27600	21
3.27967	22
3.28333	22
3.28700	22
3.29067	22
3.29433	22
3.29800	23
3.30167	23
3.30533	23
3.30900	24
3.31267	24
3.31633	24
3.32000	25
3.32367	25
3.32733	26
3.33100	26
3.33467	26
3.33833	26
3.34200	27
3.34567	27
3.34933	27
3.35300	27
3.35667	27
3.36033	26
3.36400	26
3.36767	26
3.37133	26
3.37500	26
3.37867	26
3.38233	26
3.38600	26
3.38967	26
3.39333	27
3.39700	27
3.40067	27
3.40433	27
3.40800	28
3.41167	28
3.41533	28
3.41900	28
3.42267	28
3.42633	29
3.43000	29
3.43367	29
3.43733	29
3.44100	29
3.44467	29
3.44833	29
3.45200	29
3.45567	29
3.45933	29
3.46300	28
3.46667	28
3.47033	28
3.47400	28
3.47767	28
3.48133	28
3.48500	28
3.48867	28
3.49233	28
3.49600	28
3.49967	27
3.50333	27
3.50700	27
3.51067	26
3.51433	26
3.51800	26
3.52167	26
3.52533	25
3.52900	25
3.53267	25
3.53633	25
3.54000	25
3.54367	25
3.54733	25
3.55100	25
3.55467	25
3.55833	25
3.56200	25
3.56567	25
3.56933	26
3.57300	25
3.57667	25
3.58033	25
3.58400	25
3.58767	25
3.59133	25
3.59500	25
3.59867	25
3.60233	25
3.60600	25
3.60967	24
3.61333	25
3.61700	25
3.62067	25
3.62433	25
3.62800	25
3.63167	25
3.63533	25
3.63900	26
3.64267	26
3.64633	26
3.65000	26
3.65367	26
3.65733	26
3.66100	26
3.66467	26
3.66833	26
3.67200	26
3.67567	26
3.67933	26
3.68300	26
3.68667	26
3.69033	26
3.69400	26
3.69767	26
3.70133	26
3.70500	26
3.70867	26
3.71233	26
3.71600	26
3.71967	26
3.72333	26
3.72700	26
3.73067	26
3.73433	26
3.73800	26
3.74167	26
3.74533	26
3.74900	26
3.75267	26
3.75633	26
3.76000	26
3.76367	26
3.76733	26
3.77100	26
3.77467	26
3.77833	26
3.78200	27
3.78567	27
3.78933	27
3.79300	27
3.79667	27
3.80033	27
3.80400	27
3.80767	27
3.81133	27
3.81500	26
3.81867	26
3.82233	26
3.82600	26
3.82967	26
3.83333	25
3.83700	25
3.84067	25
3.84433	25
3.84800	25
3.85167	25
3.85533	26
3.85900	26
3.86267	26
3.86633	26
3.87000	26
3.87367	26
3.87733	26
3.88100	26
3.88467	27
3.88833	27
3.89200	27
3.89567	27
3.89933	27
3.90300	27
3.90667	27
3.91033	27
3.91400	27
3.91767	27
3.92133	27
3.92500	27
3.92867	27
3.93233	27
3.93600	27
3.93967	27
3.94333	27
3.94700	27
3.95067	27
3.95433	27
3.95800	27
3.96167	27
3.96533	27
3.96900	27
3.97267	27
3.97633	27
3.98000	26
3.98367	26
3.98733	26
3.99100	26
3.99467	26
3.99833	27

[Chromatogram (Ch3)]
Interval(msec)	220
# of Points	1091
Start Time(min)	0.002
End Time(min)	3.998
R.Time (min)	Intensity
0.00167	0
0.00533	3
0.00900	4
0.01267	4
0.01633	4
0.02000	4
0.02367	4
0.02733	4
0.03100	5
0.03467	4
0.03833	3
0.04200	2
0.04567	2
0.04933	0
0.05300	1
0.05667	3
0.06033	2
0.06400	-0
0.06767	-1
0.07133	-0
0.07500	-0
0.07867	-1
0.08233	-4
0.08600	-4
0.08967	-5
0.09333	-4
0.09700	-2
0.10067	-1
0.10433	1
0.10800	0
0.11167	-1
0.11533	-1
0.11900	0
0.12267	-1
0.12633	-2
0.13000	-1
0.13367	0
0.13733	1
0.14100	1
0.14467	0
0.14833	-0
0.15200	-2
0.15567	-3
0.15933	-4
0.16300	-3
0.16667	-1
0.17033	-2
0.17400	-4
0.17767	-5
0.18133	-5
0.18500	-3
0.18867	-3
0.19233	-1
0.19600	-2
0.19967	-3
0.20333	-4
0.20700	-5
0.21067	-7
0.21433	-8
0.21800	-6
0.22167	-5
0.22533	-3
0.22900	-3
0.23267	-4
0.23633	-4
0.24000	-6
0.24367	-6
0.24733	-7
0.25100	-7
0.25467	-6
0.25833	-5
0.26200	-7
0.26567	-8
0.26933	-8
0.27300	-10
0.27667	-8
0.28033	-7
0.28400	-7
0.28767	-9
0.29133	-9
0.29500	-8
0.29867	-9
0.30233	-7
0.30600	-7
0.30967	-9
0.31333	-10
0.31700	-10
0.32067	-10
0.32433	-8
0.32800	-7
0.33167	-6
0.33533	-5
0.33900	-5
0.34267	-7
0.34633	-9
0.35000	-10
0.35367	-9
0.35733	-7
0.36100	-8
0.36467	-8
0.36833	-8
0.37200	-8
0.37567	-7
0.37933	-4
0.38300	-3
0.38667	-3
0.39033	-3
0.39400	-2
0.39767	-1
0.40133	-2
0.40500	-5
0.40867	-8
0.41233	-8
0.41600	-8
0.41967	-8
0.42333	-6
0.42700	-4
0.43067	-6
0.43433	-7
0.43800	-7
0.44167	-6
0.44533	-6
0.44900	-6
0.45267	-7
0.45633	-6
0.46000	-6
0.46367	-6
0.46733	-6
0.47100	-5
0.47467	-4
0.47833	-4
0.48200	-5
0.48567	-5
0.48933	-5
0.49300	-3
0.49667	-1
0.50033	-1
0.50400	-1
0.50767	-1
0.51133	-2
0.51500	-2
0.51867	-5
0.52233	-7
0.52600	-5
0.52967	-5
0.53333	-7
0.53700	-7
0.54067	-6
0.54433	-5
0.54800	-5
0.55167	-7
0.55533	-8
0.55900	-9
0.56267	-9
0.56633	-8
0.57000	-6
0.57367	-6
0.57733	-5
0.58100	-4
0.58467	-2
0.58833	-2
0.59200	-2
0.59567	-3
0.59933	-4
0.60300	-6
0.60667	-5
0.61033	-4
0.61400	-5
0.61767	-4
0.62133	-3
0.62500	-6
0.62867	-10
0.63233	-10
0.63600	-11
0.63967	-10
0.64333	-8
0.64700	-7
0.65067	-6
0.65433	-5
0.65800	-5
0.66167	-4
0.66533	-5
0.66900	-6
0.67267	-5
0.67633	-5
0.68000	-4
0.68367	-5
0.68733	-7
0.69100	-8
0.69467	-7
0.69833	-6
0.70200	-6
0.70567	-6
0.70933	-5
0.71300	-4
0.71667	-4
0.72033	-3
0.72400	-2
0.72767	-2
0.73133	-4
0.73500	-4
0.73867	-2
0.74233	-0
0.74600	1
0.74967	1
0.75333	1
0.75700	0
0.76067	-2
0.76433	-4
0.76800	-3
0.77167	-0
0.77533	3
0.77900	6
0.78267	5
0.78633	4
0.79000	3
0.79367	2
0.79733	1
0.80100	-0
0.80467	-3
0.80833	-2
0.81200	-1
0.81567	-1
0.81933	-1
0.82300	1
0.82667	2
0.83033	3
0.83400	4
0.83767	3
0.84133	3
0.84500	2
0.84867	1
0.85233	-0
0.85600	2
0.85967	3
0.86333	3
0.86700	3
0.87067	4
0.87433	5
0.87800	5
0.88167	6
0.88533	5
0.88900	4
0.89267	3
0.89633	2
0.90000	2
0.90367	3
0.90733	2
0.91100	2
0.91467	2
0.91833	3
0.92200	4
0.92567	4
0.92933	5
0.93300	4
0.93667	4
0.94033	5
0.94400	5
0.94767	4
0.95133	-0
0.95500	-1
0.95867	2
0.96233	7
0.96600	9
0.96967	8
0.97333	8
0.97700	6
0.98067	6
0.98433	5
0.98800	4
0.99167	3
0.99533	3
0.99900	4
1.00267	4
1.00633	4
1.01000	4
1.01367	3
1.01733	3
1.02100	4
1.02467	5
1.02833	5
1.03200	5
1.03567	5
1.03933	5
1.04300	5
1.04667	8
1.05033	8
1.05400	8
1.05767	7
1.06133	6
1.06500	6
1.06867	5
1.07233	3
1.07600	1
1.07967	2
1.08333	4
1.08700	8
1.09067	10
1.09433	10
1.09800	9
1.10167	9
1.10533	8
1.10900	6
1.11267	6
1.11633	6
1.12000	8
1.12367	10
1.12733	11
1.13100	12
1.13467	13
1.13833	14
1.14200	14
1.14567	14
1.14933	14
1.15300	14
1.15667	14
1.16033	13
1.16400	12
1.16767	10
1.17133	8
1.17500	7
1.17867	8
1.18233	9
1.18600	8
1.18967	8
1.19333	8
1.19700	7
1.20067	8
1.20433	8
1.20800	10
1.21167	12
1.21533	12
1.21900	12
1.22267	13
1.22633	14
1.23000	13
1.23367	12
1.23733	12
1.24100	11
1.24467	10
1.24833	9
1.25200	10
1.25567	10
1.25933	10
1.26300	10
1.26667	10
1.27033	10
1.27400	11
1.27767	11
1.28133	11
1.28500	10
1.28867	10
1.29233	10
1.29600	12
1.29967	10
1.30333	9
1.30700	9
1.31067	9
1.31433	9
1.31800	11
1.32167	12
1.32533	13
1.32900	13
1.33267	10
1.33633	10
1.34000	11
1.34367	12
1.34733	11
1.35100	12
1.35467	13
1.35833	12
1.36200	13
1.36567	14
1.36933	14
1.37300	14
1.37667	15
1.38033	18
1.38400	19
1.38767	18
1.39133	19
1.39500	19
1.39867	18
1.40233	16
1.40600	14
1.40967	12
1.41333	11
1.41700	10
1.42067	10
1.42433	11
1.42800	13
1.43167	15
1.43533	18
1.43900	21
1.44267	22
1.44633	22
1.45000	21
1.45367	19
1.45733	14
1.46100	12
1.46467	14
1.46833	16
1.47200	16
1.47567	17
1.47933	17
1.48300	16
1.48667	15
1.49033	16
1.49400	17
1.49767	18
1.50133	16
1.50500	15
1.50867	13
1.51233	12
1.51600	12
1.51967	12
1.52333	13
1.52700	16
1.53067	18
1.53433	20
1.53800	21
1.54167	21
1.54533	21
1.54900	20
1.55267	19
1.55633	17
1.56000	17
1.56367	19
1.56733	21
1.57100	20
1.57467	18
1.57833	16
1.58200	16
1.58567	18
1.58933	18
1.59300	18
1.59667	18
1.60033	17
1.60400	18
1.60767	21
1.61133	21
1.61500	18
1.61867	19
1.62233	22
1.62600	22
1.62967	20
1.63333	20
1.63700	20
1.64067	22
1.64433	22
1.64800	25
1.65167	27
1.65533	29
1.65900	31
1.66267	30
1.66633	29
1.67000	29
1.67367	29
1.67733	30
1.68100	31
1.68467	31
1.68833	30
1.69200	30
1.69567	30
1.69933	30
1.70300	31
1.70667	33
1.71033	33
1.71400	35
1.71767	37
1.72133	37
1.72500	36
1.72867	36
1.73233	36
1.73600	35
1.73967	34
1.74333	33
1.74700	34
1.75067	34
1.75433	33
1.75800	33
1.76167	34
1.76533	35
1.76900	35
1.77267	37
1.77633	40
1.78000	40
1.78367	39
1.78733	41
1.79100	42
1.79467	42
1.79833	42
1.80200	42
1.80567	44
1.80933	45
1.81300	44
1.81667	44
1.82033	45
1.82400	46
1.82767	47
1.83133	45
1.83500	46
1.83867	46
1.84233	46
1.84600	47
1.84967	48
1.85333	51
1.85700	53
1.86067	53
1.86433	53
1.86800	53
1.87167	53
1.87533	53
1.87900	55
1.88267	57
1.88633	57
1.89000	56
1.89367	57
1.89733	57
1.90100	59
1.90467	62
1.90833	63
1.91200	65
1.91567	65
1.91933	64
1.92300	66
1.92667	68
1.93033	66
1.93400	64
1.93767	64
1.94133	63
1.94500	63
1.94867	65
1.95233	67
1.95600	68
1.95967	71
1.96333	73
1.96700	75
1.97067	74
1.97433	76
1.97800	77
1.98167	79
1.98533	79
1.98900	80
1.99267	83
1.99633	85
2.00000	87
2.00367	87
2.00733	87
2.01100	88
2.01467	87
2.01833	88
2.02200	91
2.02567	93
2.02933	94
2.03300	94
2.03667	96
2.04033	99
2.04400	101
2.04767	102
2.05133	103
2.05500	104
2.05867	104
2.06233	105
2.06600	107
2.06967	110
2.07333	112
2.07700	113
2.08067	114
2.08433	115
2.08800	115
2.09167	114
2.09533	114
2.09900	114
2.10267	115
2.10633	116
2.11000	119
2.11367	121
2.11733	123
2.12100	126
2.12467	128
2.12833	129
2.13200	131
2.13567	133
2.13933	136
2.14300	139
2.14667	139
2.15033	139
2.15400	140
2.15767	140
2.16133	141
2.16500	144
2.16867	145
2.17233	145
2.17600	146
2.17967	148
2.18333	148
2.18700	150
2.19067	151
2.19433	153
2.19800	156
2.20167	160
2.20533	162
2.20900	163
2.21267	162
2.21633	163
2.22000	165
2.22367	168
2.22733	169
2.23100	170
2.23467	170
2.23833	171
2.24200	171
2.24567	172
2.24933	173
2.25300	174
2.25667	175
2.26033	177
2.26400	180
2.26767	182
2.27133	182
2.27500	182
2.27867	183
2.28233	182
2.28600	182
2.28967	184
2.29333	185
2.29700	186
2.30067	190
2.30433	193
2.30800	195
2.31167	196
2.31533	199
2.31900	201
2.32267	202
2.32633	204
2.33000	206
2.33367	207
2.33733	209
2.34100	211
2.34467	214
2.34833	216
2.35200	218
2.35567	217
2.35933	216
2.36300	215
2.36667	216
2.37033	219
2.37400	220
2.37767	220
2.38133	219
2.38500	219
2.38867	220
2.39233	221
2.39600	223
2.39967	226
2.40333	229
2.40700	231
2.41067	231
2.41433	234
2.41800	236
2.42167	237
2.42533	238
2.42900	239
2.43267	237
2.43633	236
2.44000	239
2.44367	292
2.44733	431
2.45100	580
2.45467	703
2.45833	771
2.46200	774
2.46567	740
2.46933	702
2.47300	672
2.47667	656
2.48033	639
2.48400	609
2.48767	566
2.49133	519
2.49500	475
2.49867	441
2.50233	419
2.50600	405
2.50967	400
2.51333	406
2.51700	421
2.52067	441
2.52433	459
2.52800	471
2.53167	473
2.53533	461
2.53900	437
2.54267	410
2.54633	382
2.55000	356
2.55367	330
2.55733	309
2.56100	294
2.56467	280
2.56833	272
2.57200	266
2.57567	262
2.57933	259
2.58300	257
2.58667	257
2.59033	258
2.59400	257
2.59767	255
2.60133	251
2.60500	245
2.60867	236
2.61233	222
2.61600	206
2.61967	191
2.62333	178
2.62700	166
2.63067	154
2.63433	142
2.63800	129
2.64167	118
2.64533	109
2.64900	101
2.65267	93
2.65633	86
2.66000	78
2.66367	72
2.66733	66
2.67100	60
2.67467	53
2.67833	47
2.68200	43
2.68567	41
2.68933	39
2.69300	40
2.69667	42
2.70033	45
2.70400	49
2.70767	53
2.71133	56
2.71500	59
2.71867	64
2.72233	68
2.72600	71
2.72967	76
2.73333	81
2.73700	85
2.74067	89
2.74433	92
2.74800	97
2.75167	102
2.75533	107
2.75900	112
2.76267	117
2.76633	120
2.77000	123
2.77367	125
2.77733	127
2.78100	129
2.78467	131
2.78833	134
2.79200	137
2.79567	140
2.79933	143
2.80300	147
2.80667	151
2.81033	154
2.81400	160
2.81767	168
2.82133	181
2.82500	198
2.82867	229
2.83233	287
2.83600	395
2.83967	575
2.84333	842
2.84700	1204
2.85067	1663
2.85433	2197
2.85800	2772
2.86167	3343
2.86533	3864
2.86900	4294
2.87267	4600
2.87633	4769
2.88000	4803
2.88367	4710
2.88733	4518
2.89100	4254
2.89467	3945
2.89833	3614
2.90200	3278
2.90567	2951
2.90933	2640
2.91300	2351
2.91667	2088
2.92033	1849
2.92400	1635
2.92767	1446
2.93133	1279
2.93500	1134
2.93867	1007
2.94233	896
2.94600	797
2.94967	711
2.95333	635
2.95700	571
2.96067	514
2.96433	467
2.96800	425
2.97167	388
2.97533	354
2.97900	323
2.98267	299
2.98633	280
2.99000	262
2.99367	247
2.99733	233
3.00100	221
3.00467	208
3.00833	197
3.01200	190
3.01567	184
3.01933	178
3.02300	173
3.02667	171
3.03033	169
3.03400	166
3.03767	162
3.04133	160
3.04500	158
3.04867	156
3.05233	155
3.05600	154
3.05967	155
3.06333	154
3.06700	152
3.07067	149
3.07433	147
3.07800	145
3.08167	143
3.08533	143
3.08900	144
3.09267	144
3.09633	145
3.10000	146
3.10367	145
3.10733	146
3.11100	146
3.11467	146
3.11833	146
3.12200	143
3.12567	142
3.12933	143
3.13300	144
3.13667	145
3.14033	144
3.14400	142
3.14767	141
3.15133	140
3.15500	139
3.15867	130
3.16233	107
3.16600	83
3.16967	71
3.17333	71
3.17700	86
3.18067	116
3.18433	157
3.18800	206
3.19167	259
3.19533	312
3.19900	364
3.20267	413
3.20633	458
3.21000	498
3.21367	534
3.21733	564
3.22100	590
3.22467	613
3.22833	634
3.23200	652
3.23567	668
3.23933	680
3.24300	691
3.24667	699
3.25033	708
3.25400	717
3.25767	727
3.26133	736
3.26500	745
3.26867	753
3.27233	759
3.27600	765
3.27967	769
3.28333	776
3.28700	785
3.29067	794
3.29433	802
3.29800	808
3.30167	814
3.30533	821
3.30900	827
3.31267	833
3.31633	839
3.32000	845
3.32367	852
3.32733	859
3.33100	864
3.33467	869
3.33833	873
3.34200	878
3.34567	882
3.34933	884
3.35300	887
3.35667	889
3.36033	891
3.36400	892
3.36767	892
3.37133	893
3.37500	894
3.37867	896
3.38233	896
3.38600	899
3.38967	899
3.39333	898
3.39700	894
3.40067	890
3.40433	885
3.40800	882
3.41167	879
3.41533	876
3.41900	874
3.42267	871
3.42633	864
3.43000	860
3.43367	858
3.43733	856
3.44100	851
3.44467	844
3.44833	841
3.45200	841
3.45567	839
3.45933	836
3.46300	832
3.46667	828
3.47033	826
3.47400	822
3.47767	817
3.48133	812
3.48500	806
3.48867	803
3.49233	799
3.49600	795
3.49967	792
3.50333	790
3.50700	789
3.51067	788
3.51433	787
3.51800	786
3.52167	785
3.52533	783
3.52900	782
3.53267	781
3.53633	779
3.54000	777
3.54367	776
3.54733	775
3.55100	775
3.55467	777
3.55833	779
3.56200	779
3.56567	777
3.56933	777
3.57300	777
3.57667	777
3.58033	777
3.58400	777
3.58767	777
3.59133	778
3.59500	778
3.59867	777
3.60233	775
3.60600	774
3.60967	773
3.61333	773
3.61700	771
3.62067	769
3.62433	766
3.62800	762
3.63167	760
3.63533	759
3.63900	759
3.64267	758
3.64633	757
3.65000	755
3.65367	751
3.65733	751
3.66100	751
3.66467	750
3.66833	750
3.67200	749
3.67567	747
3.67933	746
3.68300	746
3.68667	743
3.69033	738
3.69400	735
3.69767	733
3.70133	732
3.70500	728
3.70867	726
3.71233	726
3.71600	725
3.71967	723
3.72333	722
3.72700	719
3.73067	716
3.73433	711
3.73800	707
3.74167	703
3.74533	700
3.74900	699
3.75267	699
3.75633	698
3.76000	696
3.76367	691
3.76733	688
3.77100	686
3.77467	686
3.77833	685
3.78200	685
3.78567	683
3.78933	682
3.79300	678
3.79667	675
3.80033	672
3.80400	669
3.80767	666
3.81133	664
3.81500	660
3.81867	658
3.82233	657
3.82600	655
3.82967	654
3.83333	651
3.83700	646
3.84067	641
3.84433	639
3.84800	638
3.85167	637
3.85533	636
3.85900	632
3.86267	631
3.86633	629
3.87000	625
3.87367	622
3.87733	620
3.88100	617
3.88467	615
3.88833	615
3.89200	614
3.89567	612
3.89933	609
3.90300	604
3.90667	601
3.91033	597
3.91400	595
3.91767	593
3.92133	592
3.92500	591
3.92867	591
3.93233	589
3.93600	589
3.93967	587
3.94333	585
3.94700	582
3.95067	578
3.95433	573
3.95800	571
3.96167	569
3.96533	570
3.96900	572
3.97267	574
3.97633	574
3.98000	573
3.98367	572
3.98733	570
3.99100	565
3.99467	559
3.99833	557

[Status Trace (Column Oven Temperature)]
Interval(msec)	1000
# of Points	240
Start Time(min)	0.015
End Time(min)	3.998
Intensity Units	
Intensity Multiplier	1
R.Time (min)	Intensity
0.01463	35.04
0.03130	35.04
0.04797	35.05
0.06463	35.04
0.08130	35.02
0.09797	35.01
0.11463	35.00
0.13130	35.01
0.14797	35.00
0.16463	34.98
0.18130	34.98
0.19797	34.99
0.21463	35.00
0.23130	35.01
0.24797	35.00
0.26463	35.01
0.28130	35.01
0.29797	34.99
0.31463	35.00
0.33130	35.00
0.34797	34.99
0.36463	34.99
0.38130	34.99
0.39797	35.00
0.41463	35.00
0.43130	35.00
0.44797	35.01
0.46463	35.01
0.48130	35.02
0.49797	35.03
0.51463	35.02
0.53130	35.03
0.54797	35.03
0.56463	35.03
0.58130	35.02
0.59797	35.00
0.61463	34.99
0.63130	34.99
0.64797	34.99
0.66463	34.98
0.68130	34.98
0.69797	34.98
0.71463	34.98
0.73130	34.99
0.74797	34.99
0.76463	34.98
0.78130	34.99
0.79797	34.99
0.81463	34.99
0.83130	35.00
0.84797	35.00
0.86463	35.02
0.88130	35.01
0.89797	35.01
0.91463	35.02
0.93130	35.02
0.94797	35.03
0.96463	35.03
0.98130	35.02
0.99797	35.02
1.01463	35.01
1.03130	35.00
1.04797	34.99
1.06463	34.98
1.08130	34.97
1.09797	34.97
1.11463	34.99
1.13130	35.01
1.14797	35.02
1.16463	35.03
1.18130	35.02
1.19797	35.00
1.21463	34.98
1.23130	34.97
1.24797	34.98
1.26463	34.98
1.28130	34.98
1.29797	34.98
1.31463	35.00
1.33130	35.02
1.34797	35.02
1.36463	35.01
1.38130	35.01
1.39797	35.02
1.41463	35.00
1.43130	35.00
1.44797	35.00
1.46463	35.00
1.48130	35.00
1.49797	35.00
1.51463	34.99
1.53130	34.97
1.54797	34.97
1.56463	34.96
1.58130	34.95
1.59797	34.99
1.61463	35.09
1.63130	35.25
1.64797	35.47
1.66463	35.76
1.68130	36.14
1.69797	36.50
1.71463	36.83
1.73130	37.15
1.74797	37.45
1.76463	37.81
1.78130	38.15
1.79797	38.47
1.81463	38.80
1.83130	39.14
1.84797	39.48
1.86463	39.81
1.88130	40.12
1.89797	40.47
1.91463	40.79
1.93130	41.13
1.94797	41.46
1.96463	41.77
1.98130	42.09
1.99797	42.42
2.01463	42.73
2.03130	43.05
2.04797	43.39
2.06463	43.71
2.08130	44.04
2.09797	44.38
2.11463	44.69
2.13130	45.02
2.14797	45.35
2.16463	45.69
2.18130	46.00
2.19797	46.37
2.21463	46.68
2.23130	47.00
2.24797	47.35
2.26463	47.68
2.28130	47.99
2.29797	48.33
2.31463	48.68
2.33130	49.00
2.34797	49.31
2.36463	49.53
2.38130	49.62
2.39797	49.63
2.41463	49.62
2.43130	49.62
2.44797	49.64
2.46463	49.64
2.48130	49.67
2.49797	49.67
2.51463	49.70
2.53130	49.71
2.54797	49.72
2.56463	49.75
2.58130	49.76
2.59797	49.78
2.61463	49.81
2.63130	49.81
2.64797	49.80
2.66463	49.83
2.68130	49.84
2.69797	49.85
2.71463	49.85
2.73130	49.85
2.74797	49.86
2.76463	49.89
2.78130	49.91
2.79797	49.90
2.81463	49.90
2.83130	49.88
2.84797	49.87
2.86463	49.86
2.88130	49.86
2.89797	49.87
2.91463	49.88
2.93130	49.92
2.94797	49.95
2.96463	49.98
2.98130	49.99
2.99797	50.01
3.01463	50.03
3.03130	50.04
3.04797	50.05
3.06463	50.05
3.08130	50.05
3.09797	50.06
3.11463	50.06
3.13130	50.06
3.14797	50.06
3.16463	50.05
3.18130	50.06
3.19797	50.07
3.21463	50.07
3.23130	50.08
3.24797	50.10
3.26463	50.10
3.28130	50.11
3.29797	50.11
3.31463	50.11
3.33130	50.09
3.34797	50.07
3.36463	50.07
3.38130	50.06
3.39797	50.04
3.41463	50.03
3.43130	50.02
3.44797	50.00
3.46463	50.00
3.48130	50.00
3.49797	49.99
3.51463	50.00
3.53130	50.01
3.54797	50.01
3.56463	50.02
3.58130	50.02
3.59797	50.03
3.61463	50.04
3.63130	50.04
3.64797	50.05
3.66463	50.05
3.68130	50.05
3.69797	50.05
3.71463	50.06
3.73130	50.06
3.74797	50.06
3.76463	50.06
3.78130	50.06
3.79797	50.06
3.81463	50.06
3.83130	50.07
3.84797	50.07
3.86463	50.06
3.88130	50.05
3.89797	50.05
3.91463	50.05
3.93130	50.04
3.94797	50.03
3.96463	50.03
3.98130	50.03
3.99797	50.03

[Status Trace (Injection Unit Temperature)]
Interval(msec)	1000
# of Points	240
Start Time(min)	0.015
End Time(min)	3.998
Intensity Units	
Intensity Multiplier	1
R.Time (min)	Intensity
0.01463	99.98
0.03130	99.97
0.04797	99.98
0.06463	99.98
0.08130	99.98
0.09797	99.97
0.11463	99.98
0.13130	99.98
0.14797	99.98
0.16463	99.98
0.18130	99.98
0.19797	99.98
0.21463	99.98
0.23130	99.98
0.24797	99.98
0.26463	99.98
0.28130	99.98
0.29797	99.98
0.31463	99.98
0.33130	99.98
0.34797	99.98
0.36463	99.97
0.38130	99.98
0.39797	99.98
0.41463	99.97
0.43130	99.98
0.44797	99.98
0.46463	99.98
0.48130	99.98
0.49797	99.98
0.51463	99.98
0.53130	99.98
0.54797	99.98
0.56463	99.98
0.58130	99.97
0.59797	99.98
0.61463	99.97
0.63130	99.98
0.64797	99.98
0.66463	99.98
0.68130	99.98
0.69797	99.98
0.71463	99.98
0.73130	99.98
0.74797	99.98
0.76463	99.99
0.78130	99.98
0.79797	99.98
0.81463	99.98
0.83130	99.98
0.84797	99.98
0.86463	99.98
0.88130	99.99
0.89797	99.98
0.91463	99.98
0.93130	99.98
0.94797	99.99
0.96463	99.99
0.98130	99.98
0.99797	99.99
1.01463	99.98
1.03130	99.98
1.04797	99.99
1.06463	99.99
1.08130	99.98
1.09797	99.99
1.11463	99.99
1.13130	99.99
1.14797	99.99
1.16463	99.98
1.18130	99.98
1.19797	99.98
1.21463	99.99
1.23130	99.98
1.24797	99.98
1.26463	99.99
1.28130	99.98
1.29797	99.98
1.31463	99.98
1.33130	99.99
1.34797	99.98
1.36463	99.98
1.38130	99.99
1.39797	99.99
1.41463	99.99
1.43130	99.98
1.44797	99.98
1.46463	99.98
1.48130	99.99
1.49797	99.98
1.51463	99.98
1.53130	99.98
1.54797	99.98
1.56463	99.98
1.58130	99.98
1.59797	99.98
1.61463	99.98
1.63130	99.98
1.64797	99.98
1.66463	99.98
1.68130	99.99
1.69797	99.99
1.71463	99.98
1.73130	99.98
1.74797	99.98
1.76463	99.98
1.78130	99.99
1.79797	99.98
1.81463	99.98
1.83130	99.98
1.84797	99.98
1.86463	99.98
1.88130	99.98
1.89797	99.98
1.91463	99.98
1.93130	99.98
1.94797	99.97
1.96463	99.98
1.98130	99.98
1.99797	99.98
2.01463	99.97
2.03130	99.97
2.04797	99.97
2.06463	99.97
2.08130	99.98
2.09797	99.96
2.11463	99.96
2.13130	99.97
2.14797	99.97
2.16463	99.96
2.18130	99.97
2.19797	99.97
2.21463	99.97
2.23130	99.97
2.24797	99.97
2.26463	99.97
2.28130	99.97
2.29797	99.97
2.31463	99.96
2.33130	99.97
2.34797	99.97
2.36463	99.97
2.38130	99.96
2.39797	99.96
2.41463	99.97
2.43130	99.96
2.44797	99.97
2.46463	99.97
2.48130	99.97
2.49797	99.97
2.51463	99.97
2.53130	99.97
2.54797	99.96
2.56463	99.97
2.58130	99.97
2.59797	99.97
2.61463	99.97
2.63130	99.97
2.64797	99.98
2.66463	99.98
2.68130	99.98
2.69797	99.98
2.71463	99.98
2.73130	99.98
2.74797	99.98
2.76463	99.98
2.78130	99.98
2.79797	99.99
2.81463	99.98
2.83130	99.99
2.84797	99.99
2.86463	99.99
2.88130	99.99
2.89797	99.99
2.91463	100.00
2.93130	100.00
2.94797	100.00
2.96463	100.00
2.98130	100.00
2.99797	100.00
3.01463	100.01
3.03130	100.01
3.04797	100.01
3.06463	100.01
3.08130	100.01
3.09797	100.01
3.11463	100.01
3.13130	100.01
3.14797	100.02
3.16463	100.02
3.18130	100.01
3.19797	100.02
3.21463	100.01
3.23130	100.02
3.24797	100.02
3.26463	100.02
3.28130	100.02
3.29797	100.02
3.31463	100.02
3.33130	100.03
3.34797	100.02
3.36463	100.03
3.38130	100.03
3.39797	100.03
3.41463	100.03
3.43130	100.04
3.44797	100.03
3.46463	100.04
3.48130	100.04
3.49797	100.04
3.51463	100.04
3.53130	100.03
3.54797	100.03
3.56463	100.04
3.58130	100.04
3.59797	100.04
3.61463	100.04
3.63130	100.04
3.64797	100.04
3.66463	100.04
3.68130	100.04
3.69797	100.04
3.71463	100.04
3.73130	100.04
3.74797	100.04
3.76463	100.05
3.78130	100.05
3.79797	100.05
3.81463	100.05
3.83130	100.04
3.84797	100.05
3.86463	100.04
3.88130	100.05
3.89797	100.04
3.91463	100.05
3.93130	100.04
3.94797	100.04
3.96463	100.05
3.98130	100.04
3.99797	100.04

[Status Trace (Carrier Gas Pressure)]
Interval(msec)	1000
# of Points	240
Start Time(min)	0.015
End Time(min)	3.998
Intensity Units	
Intensity Multiplier	1
R.Time (min)	Intensity
0.01463	57.40
0.03130	55.61
0.04797	58.06
0.06463	59.85
0.08130	58.63
0.09797	57.97
0.11463	58.00
0.13130	58.01
0.14797	58.01
0.16463	58.00
0.18130	58.00
0.19797	58.00
0.21463	58.00
0.23130	58.00
0.24797	58.00
0.26463	58.00
0.28130	58.00
0.29797	58.00
0.31463	58.00
0.33130	58.00
0.34797	58.00
0.36463	58.00
0.38130	58.00
0.39797	58.00
0.41463	58.00
0.43130	58.00
0.44797	58.00
0.46463	58.00
0.48130	58.00
0.49797	58.00
0.51463	58.00
0.53130	58.00
0.54797	58.00
0.56463	58.00
0.58130	58.00
0.59797	58.00
0.61463	58.00
0.63130	58.00
0.64797	58.00
0.66463	58.00
0.68130	58.00
0.69797	58.00
0.71463	58.00
0.73130	58.00
0.74797	58.00
0.76463	58.00
0.78130	58.00
0.79797	58.00
0.81463	58.00
0.83130	58.00
0.84797	58.00
0.86463	58.00
0.88130	58.00
0.89797	58.00
0.91463	58.00
0.93130	58.00
0.94797	58.00
0.96463	58.00
0.98130	58.00
0.99797	58.00
1.01463	58.00
1.03130	58.00
1.04797	58.00
1.06463	58.00
1.08130	58.00
1.09797	58.00
1.11463	58.00
1.13130	58.00
1.14797	58.00
1.16463	58.00
1.18130	58.00
1.19797	58.00
1.21463	58.00
1.23130	58.00
1.24797	58.00
1.26463	58.00
1.28130	58.00
1.29797	58.00
1.31463	58.00
1.33130	58.00
1.34797	58.00
1.36463	58.00
1.38130	58.00
1.39797	58.00
1.41463	58.00
1.43130	58.00
1.44797	58.00
1.46463	58.00
1.48130	58.00
1.49797	58.00
1.51463	58.00
1.53130	58.00
1.54797	58.00
1.56463	58.00
1.58130	58.00
1.59797	58.00
1.61463	58.00
1.63130	58.01
1.64797	58.00
1.66463	58.00
1.68130	58.01
1.69797	58.00
1.71463	58.00
1.73130	58.00
1.74797	58.00
1.76463	58.00
1.78130	58.00
1.79797	58.00
1.81463	58.00
1.83130	58.00
1.84797	58.00
1.86463	58.00
1.88130	58.00
1.89797	58.00
1.91463	58.00
1.93130	58.00
1.94797	58.00
1.96463	58.00
1.98130	58.00
1.99797	58.00
2.01463	58.00
2.03130	58.00
2.04797	58.00
2.06463	58.00
2.08130	58.00
2.09797	58.00
2.11463	58.00
2.13130	58.00
2.14797	58.00
2.16463	58.00
2.18130	58.00
2.19797	58.00
2.21463	58.00
2.23130	58.00
2.24797	58.00
2.26463	58.00
2.28130	58.00
2.29797	58.00
2.31463	58.00
2.33130	58.00
2.34797	58.00
2.36463	58.00
2.38130	57.99
2.39797	57.99
2.41463	58.00
2.43130	58.00
2.44797	58.00
2.46463	58.00
2.48130	58.00
2.49797	58.00
2.51463	57.99
2.53130	57.99
2.54797	58.00
2.56463	58.00
2.58130	58.00
2.59797	58.00
2.61463	58.00
2.63130	58.00
2.64797	58.00
2.66463	58.00
2.68130	58.00
2.69797	58.00
2.71463	58.00
2.73130	58.00
2.74797	58.00
2.76463	58.00
2.78130	58.00
2.79797	58.00
2.81463	58.00
2.83130	58.00
2.84797	58.00
2.86463	58.00
2.88130	58.00
2.89797	58.00
2.91463	58.00
2.93130	58.00
2.94797	58.00
2.96463	58.00
2.98130	58.00
2.99797	58.00
3.01463	58.00
3.03130	58.00
3.04797	58.00
3.06463	58.00
3.08130	58.00
3.09797	58.00
3.11463	58.00
3.13130	58.00
3.14797	58.00
3.16463	58.00
3.18130	58.00
3.19797	58.00
3.21463	58.00
3.23130	58.00
3.24797	58.00
3.26463	58.00
3.28130	58.00
3.29797	58.00
3.31463	58.00
3.33130	58.00
3.34797	58.00
3.36463	58.00
3.38130	58.00
3.39797	58.00
3.41463	58.00
3.43130	58.00
3.44797	58.00
3.46463	58.00
3.48130	58.00
3.49797	58.00
3.51463	58.00
3.53130	58.00
3.54797	58.00
3.56463	58.00
3.58130	58.00
3.59797	58.00
3.61463	58.00
3.63130	58.00
3.64797	58.00
3.66463	58.00
3.68130	58.00
3.69797	58.00
3.71463	58.00
3.73130	58.00
3.74797	58.00
3.76463	58.00
3.78130	58.00
3.79797	58.00
3.81463	58.00
3.83130	58.00
3.84797	58.00
3.86463	58.00
3.88130	58.00
3.89797	58.00
3.91463	58.00
3.93130	58.00
3.94797	58.00
3.96463	58.00
3.98130	58.00
3.99797	58.00

[Status Trace (Carrier Gas Flow)]
Interval(msec)	1000
# of Points	240
Start Time(min)	0.015
End Time(min)	3.998
Intensity Units	
Intensity Multiplier	1
R.Time (min)	Intensity
0.01463	34.02
0.03130	34.54
0.04797	34.54
0.06463	34.52
0.08130	34.50
0.09797	34.52
0.11463	34.52
0.13130	34.52
0.14797	34.52
0.16463	34.52
0.18130	34.52
0.19797	34.51
0.21463	34.52
0.23130	34.52
0.24797	34.52
0.26463	34.52
0.28130	34.52
0.29797	34.52
0.31463	34.53
0.33130	34.52
0.34797	34.52
0.36463	34.52
0.38130	34.52
0.39797	34.52
0.41463	34.51
0.43130	34.51
0.44797	34.52
0.46463	34.52
0.48130	34.52
0.49797	34.52
0.51463	34.52
0.53130	34.52
0.54797	34.52
0.56463	34.52
0.58130	34.52
0.59797	34.52
0.61463	34.52
0.63130	34.52
0.64797	34.52
0.66463	34.52
0.68130	34.52
0.69797	34.52
0.71463	34.52
0.73130	34.52
0.74797	34.52
0.76463	34.52
0.78130	34.52
0.79797	34.52
0.81463	34.52
0.83130	34.52
0.84797	34.52
0.86463	34.52
0.88130	34.52
0.89797	34.52
0.91463	34.51
0.93130	34.52
0.94797	34.52
0.96463	34.52
0.98130	34.52
0.99797	34.52
1.01463	34.52
1.03130	34.52
1.04797	34.51
1.06463	34.52
1.08130	34.52
1.09797	34.51
1.11463	34.52
1.13130	34.52
1.14797	34.52
1.16463	34.52
1.18130	34.52
1.19797	34.52
1.21463	34.52
1.23130	34.52
1.24797	34.52
1.26463	34.52
1.28130	34.51
1.29797	34.52
1.31463	34.53
1.33130	34.52
1.34797	34.51
1.36463	34.52
1.38130	34.52
1.39797	34.52
1.41463	34.52
1.43130	34.52
1.44797	34.51
1.46463	34.52
1.48130	34.52
1.49797	34.51
1.51463	34.52
1.53130	34.52
1.54797	34.52
1.56463	34.52
1.58130	34.52
1.59797	34.52
1.61463	34.51
1.63130	34.52
1.64797	34.52
1.66463	34.52
1.68130	34.51
1.69797	34.52
1.71463	34.52
1.73130	34.52
1.74797	34.52
1.76463	34.52
1.78130	34.52
1.79797	34.52
1.81463	34.52
1.83130	34.52
1.84797	34.52
1.86463	34.52
1.88130	34.52
1.89797	34.52
1.91463	34.52
1.93130	34.52
1.94797	34.52
1.96463	34.52
1.98130	34.51
1.99797	34.52
2.01463	34.52
2.03130	34.52
2.04797	34.51
2.06463	34.52
2.08130	34.52
2.09797	34.52
2.11463	34.52
2.13130	34.52
2.14797	34.52
2.16463	34.51
2.18130	34.51
2.19797	34.52
2.21463	34.52
2.23130	34.52
2.24797	34.52
2.26463	34.53
2.28130	34.52
2.29797	34.52
2.31463	34.52
2.33130	34.52
2.34797	34.52
2.36463	34.51
2.38130	34.52
2.39797	34.52
2.41463	34.52
2.43130	34.52
2.44797	34.52
2.46463	34.52
2.48130	34.52
2.49797	34.52
2.51463	34.52
2.53130	34.52
2.54797	34.52
2.56463	34.52
2.58130	34.52
2.59797	34.52
2.61463	34.51
2.63130	34.52
2.64797	34.51
2.66463	34.52
2.68130	34.52
2.69797	34.51
2.71463	34.52
2.73130	34.52
2.74797	34.52
2.76463	34.53
2.78130	34.52
2.79797	34.51
2.81463	34.51
2.83130	34.51
2.84797	34.52
2.86463	34.51
2.88130	34.51
2.89797	34.53
2.91463	34.52
2.93130	34.51
2.94797	34.52
2.96463	34.52
2.98130	34.52
2.99797	34.52
3.01463	34.52
3.03130	34.52
3.04797	34.52
3.06463	34.52
3.08130	34.52
3.09797	34.52
3.11463	34.52
3.13130	34.52
3.14797	34.52
3.16463	34.52
3.18130	34.52
3.19797	34.52
3.21463	34.51
3.23130	34.52
3.24797	34.52
3.26463	34.52
3.28130	34.52
3.29797	34.52
3.31463	34.52
3.33130	34.52
3.34797	34.51
3.36463	34.52
3.38130	34.52
3.39797	34.52
3.41463	34.52
3.43130	34.51
3.44797	34.51
3.46463	34.52
3.48130	34.52
3.49797	34.52
3.51463	34.52
3.53130	34.52
3.54797	34.52
3.56463	34.51
3.58130	34.51
3.59797	34.51
3.61463	34.51
3.63130	34.51
3.64797	34.52
3.66463	34.52
3.68130	34.51
3.69797	34.52
3.71463	34.52
3.73130	34.52
3.74797	34.51
3.76463	34.52
3.78130	34.52
3.79797	34.52
3.81463	34.51
3.83130	34.51
3.84797	34.52
3.86463	34.52
3.88130	34.52
3.89797	34.52
3.91463	34.52
3.93130	34.52
3.94797	34.52
3.96463	34.51
3.98130	34.52
3.99797	34.52

[Status Trace (Column Flow)]
Interval(msec)	1000
# of Points	240
Start Time(min)	0.015
End Time(min)	3.998
Intensity Units	
Intensity Multiplier	1
R.Time (min)	Intensity
0.01463	5.46
0.03130	5.25
0.04797	5.54
0.06463	5.75
0.08130	5.61
0.09797	5.53
0.11463	5.53
0.13130	5.53
0.14797	5.53
0.16463	5.53
0.18130	5.53
0.19797	5.53
0.21463	5.53
0.23130	5.53
0.24797	5.53
0.26463	5.53
0.28130	5.53
0.29797	5.53
0.31463	5.53
0.33130	5.53
0.34797	5.53
0.36463	5.53
0.38130	5.53
0.39797	5.53
0.41463	5.53
0.43130	5.53
0.44797	5.53
0.46463	5.53
0.48130	5.53
0.49797	5.53
0.51463	5.53
0.53130	5.53
0.54797	5.53
0.56463	5.53
0.58130	5.53
0.59797	5.53
0.61463	5.53
0.63130	5.53
0.64797	5.53
0.66463	5.53
0.68130	5.53
0.69797	5.53
0.71463	5.53
0.73130	5.53
0.74797	5.53
0.76463	5.53
0.78130	5.53
0.79797	5.53
0.81463	5.53
0.83130	5.53
0.84797	5.53
0.86463	5.53
0.88130	5.53
0.89797	5.53
0.91463	5.53
0.93130	5.53
0.94797	5.53
0.96463	5.53
0.98130	5.53
0.99797	5.53
1.01463	5.53
1.03130	5.53
1.04797	5.53
1.06463	5.53
1.08130	5.54
1.09797	5.53
1.11463	5.53
1.13130	5.53
1.14797	5.53
1.16463	5.53
1.18130	5.53
1.19797	5.53
1.21463	5.53
1.23130	5.53
1.24797	5.53
1.26463	5.54
1.28130	5.54
1.29797	5.53
1.31463	5.53
1.33130	5.53
1.34797	5.53
1.36463	5.53
1.38130	5.53
1.39797	5.53
1.41463	5.53
1.43130	5.53
1.44797	5.53
1.46463	5.53
1.48130	5.53
1.49797	5.53
1.51463	5.53
1.53130	5.53
1.54797	5.54
1.56463	5.54
1.58130	5.54
1.59797	5.53
1.61463	5.53
1.63130	5.53
1.64797	5.52
1.66463	5.51
1.68130	5.50
1.69797	5.49
1.71463	5.48
1.73130	5.47
1.74797	5.46
1.76463	5.45
1.78130	5.44
1.79797	5.43
1.81463	5.42
1.83130	5.41
1.84797	5.40
1.86463	5.39
1.88130	5.38
1.89797	5.37
1.91463	5.36
1.93130	5.35
1.94797	5.34
1.96463	5.33
1.98130	5.32
1.99797	5.31
2.01463	5.30
2.03130	5.29
2.04797	5.28
2.06463	5.27
2.08130	5.26
2.09797	5.25
2.11463	5.24
2.13130	5.23
2.14797	5.22
2.16463	5.21
2.18130	5.20
2.19797	5.19
2.21463	5.18
2.23130	5.17
2.24797	5.16
2.26463	5.15
2.28130	5.15
2.29797	5.14
2.31463	5.13
2.33130	5.12
2.34797	5.11
2.36463	5.10
2.38130	5.10
2.39797	5.10
2.41463	5.10
2.43130	5.10
2.44797	5.10
2.46463	5.10
2.48130	5.10
2.49797	5.10
2.51463	5.10
2.53130	5.10
2.54797	5.10
2.56463	5.10
2.58130	5.10
2.59797	5.10
2.61463	5.10
2.63130	5.10
2.64797	5.10
2.66463	5.10
2.68130	5.09
2.69797	5.09
2.71463	5.09
2.73130	5.09
2.74797	5.09
2.76463	5.09
2.78130	5.09
2.79797	5.09
2.81463	5.09
2.83130	5.09
2.84797	5.09
2.86463	5.09
2.88130	5.09
2.89797	5.09
2.91463	5.09
2.93130	5.09
2.94797	5.09
2.96463	5.09
2.98130	5.09
2.99797	5.09
3.01463	5.09
3.03130	5.09
3.04797	5.09
3.06463	5.09
3.08130	5.09
3.09797	5.09
3.11463	5.09
3.13130	5.09
3.14797	5.09
3.16463	5.09
3.18130	5.09
3.19797	5.09
3.21463	5.09
3.23130	5.09
3.24797	5.09
3.26463	5.09
3.28130	5.09
3.29797	5.09
3.31463	5.09
3.33130	5.09
3.34797	5.09
3.36463	5.09
3.38130	5.09
3.39797	5.09
3.41463	5.09
3.43130	5.09
3.44797	5.09
3.46463	5.09
3.48130	5.09
3.49797	5.09
3.51463	5.09
3.53130	5.09
3.54797	5.09
3.56463	5.09
3.58130	5.09
3.59797	5.09
3.61463	5.09
3.63130	5.09
3.64797	5.09
3.66463	5.09
3.68130	5.09
3.69797	5.09
3.71463	5.09
3.73130	5.09
3.74797	5.09
3.76463	5.09
3.78130	5.09
3.79797	5.09
3.81463	5.09
3.83130	5.09
3.84797	5.09
3.86463	5.09
3.88130	5.09
3.89797	5.09
3.91463	5.09
3.93130	5.09
3.94797	5.09
3.96463	5.09
3.98130	5.09
3.99797	5.09

[Status Trace (Linear Velocity)]
Interval(msec)	1000
# of Points	240
Start Time(min)	0.015
End Time(min)	3.998
Intensity Units	
Intensity Multiplier	1
R.Time (min)	Intensity
0.01463	38.62
0.03130	37.44
0.04797	39.05
0.06463	40.22
0.08130	39.43
0.09797	39.00
0.11463	39.02
0.13130	39.03
0.14797	39.02
0.16463	39.02
0.18130	39.02
0.19797	39.02
0.21463	39.02
0.23130	39.02
0.24797	39.02
0.26463	39.02
0.28130	39.02
0.29797	39.02
0.31463	39.02
0.33130	39.02
0.34797	39.02
0.36463	39.02
0.38130	39.02
0.39797	39.02
0.41463	39.02
0.43130	39.02
0.44797	39.02
0.46463	39.02
0.48130	39.02
0.49797	39.02
0.51463	39.02
0.53130	39.02
0.54797	39.02
0.56463	39.02
0.58130	39.02
0.59797	39.02
0.61463	39.02
0.63130	39.02
0.64797	39.02
0.66463	39.02
0.68130	39.02
0.69797	39.02
0.71463	39.02
0.73130	39.02
0.74797	39.02
0.76463	39.02
0.78130	39.02
0.79797	39.02
0.81463	39.02
0.83130	39.02
0.84797	39.02
0.86463	39.02
0.88130	39.02
0.89797	39.02
0.91463	39.02
0.93130	39.02
0.94797	39.02
0.96463	39.02
0.98130	39.02
0.99797	39.02
1.01463	39.02
1.03130	39.02
1.04797	39.02
1.06463	39.02
1.08130	39.02
1.09797	39.02
1.11463	39.02
1.13130	39.02
1.14797	39.02
1.16463	39.02
1.18130	39.02
1.19797	39.02
1.21463	39.02
1.23130	39.02
1.24797	39.02
1.26463	39.02
1.28130	39.02
1.29797	39.02
1.31463	39.02
1.33130	39.02
1.34797	39.02
1.36463	39.02
1.38130	39.02
1.39797	39.02
1.41463	39.02
1.43130	39.02
1.44797	39.02
1.46463	39.02
1.48130	39.02
1.49797	39.02
1.51463	39.02
1.53130	39.02
1.54797	39.02
1.56463	39.02
1.58130	39.02
1.59797	39.02
1.61463	39.01
1.63130	39.00
1.64797	38.98
1.66463	38.95
1.68130	38.91
1.69797	38.88
1.71463	38.84
1.73130	38.81
1.74797	38.78
1.76463	38.75
1.78130	38.72
1.79797	38.69
1.81463	38.66
1.83130	38.63
1.84797	38.59
1.86463	38.56
1.88130	38.53
1.89797	38.50
1.91463	38.47
1.93130	38.44
1.94797	38.41
1.96463	38.38
1.98130	38.35
1.99797	38.32
2.01463	38.29
2.03130	38.26
2.04797	38.23
2.06463	38.20
2.08130	38.17
2.09797	38.14
2.11463	38.11
2.13130	38.08
2.14797	38.05
2.16463	38.02
2.18130	37.99
2.19797	37.96
2.21463	37.93
2.23130	37.90
2.24797	37.87
2.26463	37.84
2.28130	37.81
2.29797	37.79
2.31463	37.75
2.33130	37.72
2.34797	37.70
2.36463	37.68
2.38130	37.67
2.39797	37.66
2.41463	37.67
2.43130	37.67
2.44797	37.67
2.46463	37.67
2.48130	37.66
2.49797	37.66
2.51463	37.66
2.53130	37.65
2.54797	37.66
2.56463	37.66
2.58130	37.66
2.59797	37.66
2.61463	37.65
2.63130	37.65
2.64797	37.65
2.66463	37.65
2.68130	37.65
2.69797	37.65
2.71463	37.65
2.73130	37.65
2.74797	37.65
2.76463	37.65
2.78130	37.64
2.79797	37.64
2.81463	37.64
2.83130	37.65
2.84797	37.65
2.86463	37.65
2.88130	37.65
2.89797	37.65
2.91463	37.65
2.93130	37.64
2.94797	37.64
2.96463	37.64
2.98130	37.64
2.99797	37.63
3.01463	37.63
3.03130	37.63
3.04797	37.63
3.06463	37.63
3.08130	37.63
3.09797	37.63
3.11463	37.63
3.13130	37.63
3.14797	37.63
3.16463	37.63
3.18130	37.63
3.19797	37.63
3.21463	37.63
3.23130	37.63
3.24797	37.63
3.26463	37.63
3.28130	37.63
3.29797	37.63
3.31463	37.63
3.33130	37.63
3.34797	37.63
3.36463	37.63
3.38130	37.63
3.39797	37.63
3.41463	37.63
3.43130	37.63
3.44797	37.63
3.46463	37.64
3.48130	37.64
3.49797	37.64
3.51463	37.64
3.53130	37.63
3.54797	37.63
3.56463	37.63
3.58130	37.63
3.59797	37.63
3.61463	37.63
3.63130	37.63
3.64797	37.63
3.66463	37.63
3.68130	37.63
3.69797	37.63
3.71463	37.63
3.73130	37.63
3.74797	37.63
3.76463	37.63
3.78130	37.63
3.79797	37.63
3.81463	37.63
3.83130	37.63
3.84797	37.63
3.86463	37.63
3.88130	37.63
3.89797	37.63
3.91463	37.63
3.93130	37.63
3.94797	37.63
3.96463	37.63
3.98130	37.63
3.99797	37.63

