[Header]
Application Name	LabSolutions
Version	5.110
Data File Name	C:\Users\User\Desktop\GC Analyses\Jack\Nachusa Grasslands Sampling\T3 Timepoint July 12th\T3_07122022_070.gcd
Output Date	3/14/2023
Output Time	3:43:35 PM

[File Information]
Type	Data File
Generated	3/13/2023 10:18:28 PM
Generated by	System Administrator
Modified	3/13/2023 10:25:19 PM
Modified by	System Administrator

[Sample Information]
Operator Name	System Administrator
Acquired	3/13/2023 10:21:18 PM
Sample Type	0:Unknown
Level	0
Sample Name	070
Sample ID	070
ISTD Amount1	1
ISTD Amount2	1
ISTD Amount3	1
ISTD Amount4	1
ISTD Amount5	1
ISTD Amount6	1
ISTD Amount7	1
ISTD Amount8	1
ISTD Amount9	1
ISTD Amount10	1
ISTD Amount11	1
ISTD Amount12	1
ISTD Amount13	1
ISTD Amount14	1
ISTD Amount15	1
ISTD Amount16	1
ISTD Amount17	1
ISTD Amount18	1
ISTD Amount19	1
ISTD Amount20	1
ISTD Amount21	1
ISTD Amount22	1
ISTD Amount23	1
ISTD Amount24	1
ISTD Amount25	1
ISTD Amount26	1
ISTD Amount27	1
ISTD Amount28	1
ISTD Amount29	1
ISTD Amount30	1
ISTD Amount31	1
ISTD Amount32	1
Sample Amount	1
Dilution Factor	1
Vial#	69
Injection Volume	1
Injection Count	1
Bar Code	

[Original Files]
Data File	C:\Users\User\Desktop\GC Analyses\Jack\Nachusa Grasslands Sampling\T3 Timepoint July 12th\T3_07122022_070.gcd
Method File	C:\LabSolutions\Data\GHG_4min_2022\ghg3_togas_w_acet_4 min_new_int.gcm
Batch File	C:\LabSolutions\Data\AutoSamplerTesting\T3_07122022.gcb
Report Format File	c:\LabSolutions\System\DEFAULT.lsr

[File Description]


[Configuration]
Instrument Name	C0B7VH3-Instrument1
Instrument #	1
Line #	1
# of Detectors	3
Detector ID	DET#1	DET#2	DET#3
Detector Name	FID	PTCD	ECD
# of Channels	1	1	1

[Peak Table(Ch1)]
# of Peaks	3
Peak#	R.Time	I.Time	F.Time	Area	Height	A/H	Conc.	Mark	ID#	Name	k'	Plate #	Plate Ht.	Tailing	Resolution	Sep.Factor	Area Ratio	Height Ratio	Conc. %	Norm Conc.
1	1.476	1.424	1.534	31541	15602	2.022	222.679	   	1	CO	0.000	9635	15.568	1.255	0.000	0.000	0	0	18.588	18.588
2	1.571	1.538	1.611	3981	2086	1.908	76.973	   	2	CH4	0.065	12034	12.465	1.084	1.624	0.000	0	0	6.425	6.425
3	1.996	1.949	2.480	3579388	1723480	2.077	898.329	   	3	CO2	0.353	17297	8.672	1.304	7.209	5.462	0	0	74.987	74.987

[Peak Table(Ch2)]
# of Peaks	0

[Peak Table(Ch3)]
# of Peaks	6
Peak#	R.Time	I.Time	F.Time	Area	Height	A/H	Conc.	Mark	ID#	Name	k'	Plate #	Plate Ht.	Tailing	Resolution	Sep.Factor	Area Ratio	Height Ratio	Conc. %	Norm Conc.
1	1.135	0.852	1.377	308	17	18.415	0.000	   			0.000	494	303.532	0.926	0.000	0.000	0	0	0.000	0.000
2	2.458	2.326	2.510	2270	709	3.202	0.000	   			1.167	11664	12.860	0.000	8.967	0.000	0	0	0.000	0.000
3	2.528	2.510	2.579	1013	354	2.864	0.000	 V 			1.228	7455	20.121	0.000	0.669	1.053	0	0	0.000	0.000
4	2.601	2.579	2.675	546	155	3.528	0.000	 V 			1.293	1991	75.320	0.000	0.419	1.053	0	0	0.000	0.000
5	2.880	2.704	3.052	19680	4874	4.038	0.503	   	1	N2O	1.538	12848	11.675	1.531	1.665	1.190	0	0	100.000	100.000
6	3.276	3.060	3.995	21798	679	32.083	0.000	   	2	SF6	1.887	221	678.291	2.104	0.806	1.227	0	0	0.000	0.000

[Compound Results(Ch1)]
# of IDs	6
ID#	Name	R.Time	Area	Height	Conc.	Curve	3rd	2nd	1st	Constant	Area Ratio	Height Ratio	Conc. %	Norm Conc.
1	CO	1.476	31541	15602	222.679	Linear	0.000000e+00	0.000000e+00	1.416423e+002	0.000000e+00	0	0	18.588	18.588
2	CH4	1.571	3981	2086	76.973	Linear	0.000000e+00	0.000000e+00	5.171738e+001	0.000000e+00	0	0	6.425	6.425
3	CO2	1.996	3579388	1723480	898.329	Linear	0.000000e+00	0.000000e+00	3.984494e+003	0.000000e+00	0	0	74.987	74.987
4	Ethylene	0.000	0	0	0.000	Linear	0.000000e+00	0.000000e+00	0.000000e+00	0.000000e+00	0	0	0.000	0.000
5	Acetylene	0.000	0	0	0.000	Linear	0.000000e+00	0.000000e+00	0.000000e+00	0.000000e+00	0	0	0.000	0.000
6	Ethane	0.000	0	0	0.000	Linear	0.000000e+00	0.000000e+00	0.000000e+00	0.000000e+00	0	0	0.000	0.000

[Compound Results(Ch2)]
# of IDs	5
ID#	Name	R.Time	Area	Height	Conc.	Curve	3rd	2nd	1st	Constant	Area Ratio	Height Ratio	Conc. %	Norm Conc.
1	Hydrogen	0.000	0	0	0.000	Linear	0.000000e+00	0.000000e+00	0.000000e+00	0.000000e+00	0	0	0.000	0.000
2	Oxygen	0.000	0	0	0.000	Linear	0.000000e+00	0.000000e+00	0.000000e+00	0.000000e+00	0	0	0.000	0.000
3	Nitrogen	0.000	0	0	0.000	Linear	0.000000e+00	0.000000e+00	0.000000e+00	0.000000e+00	0	0	0.000	0.000
4	Methane	0.000	0	0	0.000	Linear	0.000000e+00	0.000000e+00	0.000000e+00	0.000000e+00	0	0	0.000	0.000
5	Carbon Monoxide	0.000	0	0	0.000	Linear	0.000000e+00	0.000000e+00	0.000000e+00	0.000000e+00	0	0	0.000	0.000

[Compound Results(Ch3)]
# of IDs	2
ID#	Name	R.Time	Area	Height	Conc.	Curve	3rd	2nd	1st	Constant	Area Ratio	Height Ratio	Conc. %	Norm Conc.
1	N2O	2.880	19680	4874	0.503	Linear	0.000000e+00	0.000000e+00	3.915173e+004	0.000000e+00	0	0	100.000	100.000
2	SF6	3.276	21798	679	0.000	Linear	0.000000e+00	0.000000e+00	0.000000e+00	0.000000e+00	0	0	0.000	0.000

[Group Results(Ch1)]
# of Groups	0

[Group Results(Ch2)]
# of Groups	0

[Group Results(Ch3)]
# of Groups	0

[Chromatogram (Ch1)]
Interval(msec)	220
# of Points	1091
Start Time(min)	0.002
End Time(min)	3.998
R.Time (min)	Intensity
0.00167	-6
0.00533	-3
0.00900	-1
0.01267	1
0.01633	4
0.02000	6
0.02367	10
0.02733	11
0.03100	12
0.03467	14
0.03833	19
0.04200	25
0.04567	30
0.04933	31
0.05300	27
0.05667	26
0.06033	29
0.06400	28
0.06767	22
0.07133	14
0.07500	12
0.07867	19
0.08233	29
0.08600	39
0.08967	51
0.09333	64
0.09700	74
0.10067	85
0.10433	92
0.10800	90
0.11167	78
0.11533	62
0.11900	50
0.12267	43
0.12633	37
0.13000	30
0.13367	25
0.13733	23
0.14100	22
0.14467	22
0.14833	25
0.15200	31
0.15567	38
0.15933	43
0.16300	42
0.16667	41
0.17033	41
0.17400	42
0.17767	40
0.18133	39
0.18500	39
0.18867	40
0.19233	40
0.19600	39
0.19967	35
0.20333	31
0.20700	28
0.21067	28
0.21433	33
0.21800	37
0.22167	40
0.22533	40
0.22900	36
0.23267	30
0.23633	20
0.24000	8
0.24367	-2
0.24733	-6
0.25100	-2
0.25467	7
0.25833	20
0.26200	28
0.26567	30
0.26933	26
0.27300	15
0.27667	8
0.28033	-0
0.28400	-5
0.28767	-8
0.29133	-8
0.29500	-6
0.29867	2
0.30233	11
0.30600	12
0.30967	10
0.31333	7
0.31700	2
0.32067	-2
0.32433	-1
0.32800	7
0.33167	14
0.33533	19
0.33900	19
0.34267	16
0.34633	14
0.35000	15
0.35367	18
0.35733	23
0.36100	33
0.36467	45
0.36833	47
0.37200	40
0.37567	29
0.37933	16
0.38300	-1
0.38667	-10
0.39033	-12
0.39400	-14
0.39767	-16
0.40133	-16
0.40500	-16
0.40867	-11
0.41233	-6
0.41600	-1
0.41967	6
0.42333	13
0.42700	19
0.43067	21
0.43433	21
0.43800	16
0.44167	3
0.44533	-9
0.44900	-14
0.45267	-11
0.45633	-2
0.46000	6
0.46367	11
0.46733	12
0.47100	8
0.47467	6
0.47833	8
0.48200	12
0.48567	17
0.48933	17
0.49300	12
0.49667	2
0.50033	-7
0.50400	-14
0.50767	-15
0.51133	-9
0.51500	-1
0.51867	8
0.52233	16
0.52600	21
0.52967	19
0.53333	15
0.53700	12
0.54067	12
0.54433	12
0.54800	12
0.55167	11
0.55533	10
0.55900	11
0.56267	11
0.56633	9
0.57000	11
0.57367	20
0.57733	27
0.58100	31
0.58467	32
0.58833	31
0.59200	25
0.59567	19
0.59933	16
0.60300	19
0.60667	23
0.61033	25
0.61400	25
0.61767	22
0.62133	21
0.62500	19
0.62867	15
0.63233	16
0.63600	25
0.63967	37
0.64333	41
0.64700	37
0.65067	29
0.65433	22
0.65800	11
0.66167	-1
0.66533	-7
0.66900	-11
0.67267	-15
0.67633	-17
0.68000	-16
0.68367	-12
0.68733	-8
0.69100	-3
0.69467	2
0.69833	8
0.70200	17
0.70567	21
0.70933	17
0.71300	11
0.71667	9
0.72033	14
0.72400	18
0.72767	20
0.73133	21
0.73500	23
0.73867	16
0.74233	3
0.74600	-9
0.74967	-16
0.75333	-19
0.75700	-18
0.76067	-11
0.76433	-1
0.76800	11
0.77167	19
0.77533	24
0.77900	26
0.78267	25
0.78633	18
0.79000	2
0.79367	-13
0.79733	-17
0.80100	-16
0.80467	-16
0.80833	-14
0.81200	-12
0.81567	-11
0.81933	-8
0.82300	-5
0.82667	-2
0.83033	4
0.83400	13
0.83767	22
0.84133	30
0.84500	28
0.84867	17
0.85233	9
0.85600	6
0.85967	8
0.86333	10
0.86700	10
0.87067	13
0.87433	21
0.87800	31
0.88167	39
0.88533	41
0.88900	35
0.89267	24
0.89633	19
0.90000	22
0.90367	24
0.90733	26
0.91100	28
0.91467	31
0.91833	34
0.92200	42
0.92567	46
0.92933	45
0.93300	40
0.93667	32
0.94033	28
0.94400	28
0.94767	29
0.95133	30
0.95500	28
0.95867	25
0.96233	24
0.96600	28
0.96967	33
0.97333	36
0.97700	38
0.98067	37
0.98433	36
0.98800	35
0.99167	34
0.99533	30
0.99900	24
1.00267	19
1.00633	16
1.01000	14
1.01367	20
1.01733	29
1.02100	35
1.02467	41
1.02833	49
1.03200	57
1.03567	63
1.03933	66
1.04300	68
1.04667	60
1.05033	46
1.05400	31
1.05767	17
1.06133	9
1.06500	3
1.06867	-2
1.07233	-3
1.07600	-1
1.07967	-1
1.08333	0
1.08700	2
1.09067	2
1.09433	7
1.09800	16
1.10167	23
1.10533	23
1.10900	17
1.11267	10
1.11633	3
1.12000	1
1.12367	2
1.12733	1
1.13100	-2
1.13467	-2
1.13833	1
1.14200	5
1.14567	9
1.14933	12
1.15300	14
1.15667	13
1.16033	13
1.16400	12
1.16767	11
1.17133	11
1.17500	12
1.17867	15
1.18233	17
1.18600	17
1.18967	18
1.19333	16
1.19700	13
1.20067	9
1.20433	5
1.20800	3
1.21167	7
1.21533	12
1.21900	12
1.22267	11
1.22633	10
1.23000	9
1.23367	6
1.23733	-1
1.24100	-9
1.24467	-14
1.24833	-13
1.25200	-10
1.25567	-3
1.25933	1
1.26300	3
1.26667	6
1.27033	5
1.27400	3
1.27767	5
1.28133	8
1.28500	9
1.28867	5
1.29233	2
1.29600	2
1.29967	5
1.30333	5
1.30700	5
1.31067	4
1.31433	1
1.31800	-3
1.32167	-6
1.32533	-8
1.32900	-7
1.33267	-3
1.33633	7
1.34000	19
1.34367	24
1.34733	18
1.35100	7
1.35467	-6
1.35833	-15
1.36200	-20
1.36567	-21
1.36933	-16
1.37300	-11
1.37667	-6
1.38033	-5
1.38400	-6
1.38767	-4
1.39133	-1
1.39500	-0
1.39867	0
1.40233	-1
1.40600	-6
1.40967	-13
1.41333	-23
1.41700	-30
1.42067	-29
1.42433	-24
1.42800	-16
1.43167	-12
1.43533	-12
1.43900	-3
1.44267	47
1.44633	230
1.45000	782
1.45367	2152
1.45733	4585
1.46100	7646
1.46467	10632
1.46833	13076
1.47200	14763
1.47567	15554
1.47933	15307
1.48300	14014
1.48667	11931
1.49033	9497
1.49400	7136
1.49767	5116
1.50133	3533
1.50500	2365
1.50867	1541
1.51233	973
1.51600	589
1.51967	331
1.52333	163
1.52700	51
1.53067	-27
1.53433	-75
1.53800	-92
1.54167	-55
1.54533	87
1.54900	374
1.55267	773
1.55633	1193
1.56000	1558
1.56367	1833
1.56733	1994
1.57100	2012
1.57467	1870
1.57833	1594
1.58200	1250
1.58567	907
1.58933	613
1.59300	384
1.59667	217
1.60033	105
1.60400	29
1.60767	-22
1.61133	-53
1.61500	-66
1.61867	-66
1.62233	-57
1.62600	-48
1.62967	-45
1.63333	-55
1.63700	-76
1.64067	-92
1.64433	-97
1.64800	-97
1.65167	-99
1.65533	-99
1.65900	-100
1.66267	-105
1.66633	-114
1.67000	-119
1.67367	-118
1.67733	-111
1.68100	-98
1.68467	-88
1.68833	-84
1.69200	-85
1.69567	-89
1.69933	-94
1.70300	-96
1.70667	-97
1.71033	-95
1.71400	-91
1.71767	-89
1.72133	-87
1.72500	-87
1.72867	-87
1.73233	-87
1.73600	-88
1.73967	-86
1.74333	-84
1.74700	-81
1.75067	-78
1.75433	-71
1.75800	-63
1.76167	-60
1.76533	-63
1.76900	-66
1.77267	-71
1.77633	-81
1.78000	-89
1.78367	-94
1.78733	-98
1.79100	-100
1.79467	-98
1.79833	-92
1.80200	-85
1.80567	-79
1.80933	-73
1.81300	-70
1.81667	-66
1.82033	-61
1.82400	-58
1.82767	-60
1.83133	-64
1.83500	-70
1.83867	-74
1.84233	-72
1.84600	-66
1.84967	-58
1.85333	-51
1.85700	-49
1.86067	-52
1.86433	-54
1.86800	-53
1.87167	-48
1.87533	-42
1.87900	-40
1.88267	-45
1.88633	-56
1.89000	-63
1.89367	-65
1.89733	-65
1.90100	-65
1.90467	-63
1.90833	-64
1.91200	-69
1.91567	-74
1.91933	-76
1.92300	-79
1.92667	-80
1.93033	-78
1.93400	-71
1.93767	-65
1.94133	-60
1.94500	-55
1.94867	-50
1.95233	-27
1.95600	160
1.95967	1378
1.96333	7439
1.96700	30326
1.97067	96375
1.97433	241271
1.97800	484175
1.98167	802978
1.98533	1139994
1.98900	1433157
1.99267	1636259
1.99633	1723460
2.00000	1689259
2.00367	1548395
2.00733	1332512
2.01100	1081976
2.01467	834767
2.01833	617439
2.02200	442221
2.02567	309763
2.02933	214178
2.03300	147403
2.03667	101737
2.04033	70886
2.04400	50157
2.04767	36216
2.05133	26781
2.05500	20323
2.05867	15835
2.06233	12657
2.06600	10359
2.06967	8661
2.07333	7378
2.07700	6385
2.08067	5598
2.08433	4964
2.08800	4442
2.09167	4006
2.09533	3637
2.09900	3323
2.10267	3059
2.10633	2832
2.11000	2629
2.11367	2444
2.11733	2276
2.12100	2125
2.12467	1988
2.12833	1872
2.13200	1775
2.13567	1696
2.13933	1628
2.14300	1565
2.14667	1503
2.15033	1438
2.15400	1370
2.15767	1307
2.16133	1249
2.16500	1194
2.16867	1145
2.17233	1102
2.17600	1061
2.17967	1017
2.18333	979
2.18700	947
2.19067	918
2.19433	893
2.19800	871
2.20167	848
2.20533	829
2.20900	809
2.21267	786
2.21633	763
2.22000	741
2.22367	723
2.22733	708
2.23100	695
2.23467	685
2.23833	672
2.24200	656
2.24567	637
2.24933	617
2.25300	598
2.25667	585
2.26033	582
2.26400	579
2.26767	569
2.27133	555
2.27500	544
2.27867	533
2.28233	523
2.28600	511
2.28967	498
2.29333	487
2.29700	479
2.30067	480
2.30433	478
2.30800	473
2.31167	467
2.31533	457
2.31900	441
2.32267	427
2.32633	415
2.33000	406
2.33367	403
2.33733	402
2.34100	400
2.34467	398
2.34833	395
2.35200	391
2.35567	391
2.35933	392
2.36300	391
2.36667	388
2.37033	382
2.37400	375
2.37767	372
2.38133	375
2.38500	375
2.38867	369
2.39233	361
2.39600	355
2.39967	352
2.40333	353
2.40700	352
2.41067	349
2.41433	344
2.41800	340
2.42167	339
2.42533	340
2.42900	340
2.43267	340
2.43633	339
2.44000	341
2.44367	344
2.44733	342
2.45100	336
2.45467	333
2.45833	331
2.46200	327
2.46567	318
2.46933	308
2.47300	298
2.47667	288
2.48033	281
2.48400	279
2.48767	279
2.49133	281
2.49500	286
2.49867	288
2.50233	289
2.50600	288
2.50967	289
2.51333	290
2.51700	291
2.52067	294
2.52433	299
2.52800	304
2.53167	310
2.53533	316
2.53900	316
2.54267	309
2.54633	301
2.55000	299
2.55367	300
2.55733	301
2.56100	302
2.56467	301
2.56833	297
2.57200	294
2.57567	289
2.57933	286
2.58300	287
2.58667	289
2.59033	290
2.59400	287
2.59767	284
2.60133	284
2.60500	287
2.60867	290
2.61233	289
2.61600	288
2.61967	289
2.62333	287
2.62700	286
2.63067	287
2.63433	293
2.63800	302
2.64167	307
2.64533	305
2.64900	302
2.65267	299
2.65633	301
2.66000	303
2.66367	301
2.66733	297
2.67100	293
2.67467	288
2.67833	286
2.68200	288
2.68567	292
2.68933	296
2.69300	300
2.69667	301
2.70033	300
2.70400	296
2.70767	293
2.71133	291
2.71500	290
2.71867	290
2.72233	289
2.72600	286
2.72967	282
2.73333	281
2.73700	282
2.74067	282
2.74433	283
2.74800	286
2.75167	289
2.75533	289
2.75900	292
2.76267	292
2.76633	295
2.77000	307
2.77367	324
2.77733	331
2.78100	328
2.78467	322
2.78833	314
2.79200	306
2.79567	298
2.79933	295
2.80300	295
2.80667	300
2.81033	306
2.81400	311
2.81767	316
2.82133	322
2.82500	331
2.82867	336
2.83233	336
2.83600	336
2.83967	337
2.84333	338
2.84700	339
2.85067	335
2.85433	321
2.85800	304
2.86167	293
2.86533	288
2.86900	289
2.87267	292
2.87633	294
2.88000	294
2.88367	296
2.88733	298
2.89100	296
2.89467	296
2.89833	298
2.90200	301
2.90567	303
2.90933	306
2.91300	310
2.91667	308
2.92033	302
2.92400	298
2.92767	299
2.93133	304
2.93500	314
2.93867	325
2.94233	328
2.94600	322
2.94967	316
2.95333	311
2.95700	309
2.96067	313
2.96433	322
2.96800	333
2.97167	338
2.97533	337
2.97900	337
2.98267	335
2.98633	334
2.99000	340
2.99367	349
2.99733	355
3.00100	360
3.00467	359
3.00833	355
3.01200	353
3.01567	348
3.01933	339
3.02300	335
3.02667	331
3.03033	328
3.03400	330
3.03767	330
3.04133	332
3.04500	336
3.04867	341
3.05233	343
3.05600	344
3.05967	344
3.06333	343
3.06700	340
3.07067	337
3.07433	334
3.07800	333
3.08167	333
3.08533	336
3.08900	340
3.09267	344
3.09633	347
3.10000	349
3.10367	350
3.10733	350
3.11100	350
3.11467	350
3.11833	349
3.12200	343
3.12567	337
3.12933	330
3.13300	325
3.13667	325
3.14033	329
3.14400	338
3.14767	341
3.15133	338
3.15500	329
3.15867	320
3.16233	316
3.16600	317
3.16967	317
3.17333	316
3.17700	314
3.18067	316
3.18433	319
3.18800	321
3.19167	325
3.19533	328
3.19900	331
3.20267	336
3.20633	339
3.21000	340
3.21367	339
3.21733	340
3.22100	340
3.22467	337
3.22833	334
3.23200	333
3.23567	338
3.23933	344
3.24300	348
3.24667	347
3.25033	345
3.25400	343
3.25767	342
3.26133	339
3.26500	332
3.26867	324
3.27233	319
3.27600	316
3.27967	312
3.28333	310
3.28700	311
3.29067	312
3.29433	312
3.29800	310
3.30167	307
3.30533	306
3.30900	307
3.31267	308
3.31633	303
3.32000	296
3.32367	296
3.32733	302
3.33100	311
3.33467	317
3.33833	321
3.34200	324
3.34567	328
3.34933	328
3.35300	324
3.35667	318
3.36033	311
3.36400	304
3.36767	297
3.37133	296
3.37500	301
3.37867	309
3.38233	316
3.38600	321
3.38967	324
3.39333	331
3.39700	338
3.40067	337
3.40433	331
3.40800	320
3.41167	307
3.41533	298
3.41900	294
3.42267	291
3.42633	292
3.43000	293
3.43367	298
3.43733	305
3.44100	316
3.44467	325
3.44833	329
3.45200	327
3.45567	323
3.45933	316
3.46300	309
3.46667	309
3.47033	316
3.47400	320
3.47767	318
3.48133	311
3.48500	302
3.48867	295
3.49233	293
3.49600	291
3.49967	287
3.50333	282
3.50700	279
3.51067	279
3.51433	283
3.51800	282
3.52167	277
3.52533	274
3.52900	273
3.53267	274
3.53633	276
3.54000	280
3.54367	288
3.54733	298
3.55100	307
3.55467	312
3.55833	309
3.56200	303
3.56567	293
3.56933	287
3.57300	285
3.57667	286
3.58033	286
3.58400	286
3.58767	282
3.59133	277
3.59500	274
3.59867	274
3.60233	276
3.60600	279
3.60967	285
3.61333	293
3.61700	301
3.62067	305
3.62433	306
3.62800	298
3.63167	289
3.63533	283
3.63900	282
3.64267	283
3.64633	285
3.65000	290
3.65367	291
3.65733	289
3.66100	284
3.66467	284
3.66833	286
3.67200	289
3.67567	290
3.67933	287
3.68300	280
3.68667	272
3.69033	266
3.69400	262
3.69767	260
3.70133	260
3.70500	261
3.70867	263
3.71233	267
3.71600	270
3.71967	274
3.72333	281
3.72700	286
3.73067	286
3.73433	279
3.73800	269
3.74167	258
3.74533	250
3.74900	248
3.75267	248
3.75633	247
3.76000	252
3.76367	259
3.76733	267
3.77100	271
3.77467	271
3.77833	272
3.78200	271
3.78567	268
3.78933	264
3.79300	259
3.79667	252
3.80033	245
3.80400	240
3.80767	238
3.81133	234
3.81500	227
3.81867	220
3.82233	221
3.82600	233
3.82967	250
3.83333	263
3.83700	273
3.84067	279
3.84433	276
3.84800	267
3.85167	256
3.85533	246
3.85900	237
3.86267	236
3.86633	240
3.87000	242
3.87367	247
3.87733	248
3.88100	248
3.88467	248
3.88833	247
3.89200	247
3.89567	248
3.89933	247
3.90300	242
3.90667	240
3.91033	242
3.91400	245
3.91767	246
3.92133	248
3.92500	248
3.92867	244
3.93233	238
3.93600	236
3.93967	234
3.94333	234
3.94700	239
3.95067	248
3.95433	253
3.95800	254
3.96167	254
3.96533	252
3.96900	250
3.97267	246
3.97633	242
3.98000	234
3.98367	224
3.98733	215
3.99100	211
3.99467	216
3.99833	229

[Chromatogram (Ch2)]
Interval(msec)	220
# of Points	1091
Start Time(min)	0.002
End Time(min)	3.998
R.Time (min)	Intensity
0.00167	0
0.00533	0
0.00900	0
0.01267	0
0.01633	0
0.02000	-0
0.02367	-0
0.02733	-0
0.03100	-1
0.03467	-1
0.03833	-1
0.04200	-1
0.04567	-1
0.04933	-0
0.05300	-0
0.05667	-0
0.06033	-1
0.06400	-1
0.06767	-1
0.07133	-1
0.07500	-0
0.07867	0
0.08233	1
0.08600	1
0.08967	2
0.09333	2
0.09700	3
0.10067	3
0.10433	4
0.10800	4
0.11167	4
0.11533	5
0.11900	5
0.12267	5
0.12633	5
0.13000	5
0.13367	5
0.13733	4
0.14100	4
0.14467	3
0.14833	3
0.15200	3
0.15567	3
0.15933	3
0.16300	3
0.16667	2
0.17033	2
0.17400	2
0.17767	1
0.18133	1
0.18500	1
0.18867	1
0.19233	1
0.19600	1
0.19967	1
0.20333	1
0.20700	1
0.21067	1
0.21433	1
0.21800	1
0.22167	1
0.22533	1
0.22900	0
0.23267	0
0.23633	0
0.24000	0
0.24367	0
0.24733	0
0.25100	0
0.25467	-0
0.25833	0
0.26200	0
0.26567	0
0.26933	1
0.27300	1
0.27667	1
0.28033	1
0.28400	1
0.28767	2
0.29133	2
0.29500	2
0.29867	2
0.30233	2
0.30600	2
0.30967	2
0.31333	2
0.31700	2
0.32067	2
0.32433	2
0.32800	1
0.33167	1
0.33533	1
0.33900	1
0.34267	1
0.34633	1
0.35000	2
0.35367	2
0.35733	2
0.36100	1
0.36467	1
0.36833	1
0.37200	1
0.37567	1
0.37933	1
0.38300	1
0.38667	1
0.39033	0
0.39400	-0
0.39767	-1
0.40133	-1
0.40500	-1
0.40867	-1
0.41233	-2
0.41600	-2
0.41967	-2
0.42333	-2
0.42700	-2
0.43067	-2
0.43433	-2
0.43800	-2
0.44167	-2
0.44533	-2
0.44900	-1
0.45267	-1
0.45633	-1
0.46000	-1
0.46367	-1
0.46733	-1
0.47100	-1
0.47467	-1
0.47833	-1
0.48200	-1
0.48567	-1
0.48933	-1
0.49300	-1
0.49667	-1
0.50033	-1
0.50400	-1
0.50767	-1
0.51133	-1
0.51500	-1
0.51867	-1
0.52233	-1
0.52600	-1
0.52967	-1
0.53333	-1
0.53700	-0
0.54067	-0
0.54433	-1
0.54800	-1
0.55167	-1
0.55533	-1
0.55900	-1
0.56267	-1
0.56633	-1
0.57000	-1
0.57367	-1
0.57733	-1
0.58100	-1
0.58467	-1
0.58833	-1
0.59200	-1
0.59567	-0
0.59933	-0
0.60300	-0
0.60667	-0
0.61033	0
0.61400	0
0.61767	-0
0.62133	-0
0.62500	-0
0.62867	-0
0.63233	-0
0.63600	-0
0.63967	-1
0.64333	-1
0.64700	-1
0.65067	-1
0.65433	-1
0.65800	-1
0.66167	-1
0.66533	-1
0.66900	-1
0.67267	-1
0.67633	-1
0.68000	-1
0.68367	-1
0.68733	-0
0.69100	-0
0.69467	-0
0.69833	0
0.70200	0
0.70567	-0
0.70933	-0
0.71300	-0
0.71667	-0
0.72033	-0
0.72400	-0
0.72767	0
0.73133	0
0.73500	-0
0.73867	-0
0.74233	-0
0.74600	-0
0.74967	-0
0.75333	-0
0.75700	0
0.76067	1
0.76433	1
0.76800	1
0.77167	1
0.77533	1
0.77900	1
0.78267	1
0.78633	1
0.79000	2
0.79367	2
0.79733	2
0.80100	2
0.80467	2
0.80833	2
0.81200	2
0.81567	2
0.81933	1
0.82300	1
0.82667	1
0.83033	0
0.83400	-0
0.83767	-0
0.84133	-1
0.84500	-1
0.84867	-1
0.85233	-1
0.85600	-1
0.85967	-1
0.86333	-1
0.86700	-1
0.87067	-1
0.87433	-1
0.87800	-2
0.88167	-2
0.88533	-2
0.88900	-2
0.89267	-2
0.89633	-2
0.90000	-2
0.90367	-2
0.90733	-2
0.91100	-2
0.91467	-2
0.91833	-2
0.92200	-2
0.92567	-2
0.92933	-2
0.93300	-2
0.93667	-2
0.94033	-2
0.94400	-2
0.94767	-2
0.95133	-2
0.95500	-2
0.95867	-2
0.96233	-2
0.96600	-1
0.96967	-1
0.97333	-1
0.97700	-1
0.98067	-1
0.98433	-1
0.98800	-1
0.99167	-1
0.99533	-1
0.99900	-1
1.00267	-1
1.00633	-0
1.01000	-0
1.01367	-0
1.01733	-0
1.02100	-0
1.02467	-0
1.02833	-1
1.03200	-1
1.03567	-2
1.03933	-2
1.04300	-2
1.04667	-2
1.05033	-2
1.05400	-2
1.05767	-2
1.06133	-2
1.06500	-2
1.06867	-2
1.07233	-2
1.07600	-2
1.07967	-2
1.08333	-2
1.08700	-2
1.09067	-2
1.09433	-2
1.09800	-1
1.10167	-1
1.10533	-1
1.10900	-1
1.11267	-1
1.11633	-1
1.12000	-1
1.12367	-1
1.12733	-1
1.13100	-1
1.13467	-1
1.13833	-1
1.14200	-1
1.14567	-1
1.14933	-1
1.15300	-1
1.15667	-1
1.16033	-1
1.16400	-1
1.16767	-2
1.17133	-2
1.17500	-2
1.17867	-2
1.18233	-2
1.18600	-2
1.18967	-2
1.19333	-2
1.19700	-2
1.20067	-2
1.20433	-2
1.20800	-2
1.21167	-3
1.21533	-3
1.21900	-3
1.22267	-3
1.22633	-3
1.23000	-3
1.23367	-3
1.23733	-2
1.24100	-2
1.24467	-2
1.24833	-2
1.25200	-2
1.25567	-2
1.25933	-2
1.26300	-2
1.26667	-2
1.27033	-2
1.27400	-2
1.27767	-2
1.28133	-2
1.28500	-2
1.28867	-2
1.29233	-2
1.29600	-2
1.29967	-2
1.30333	-2
1.30700	-2
1.31067	-2
1.31433	-2
1.31800	-2
1.32167	-2
1.32533	-3
1.32900	-3
1.33267	-3
1.33633	-3
1.34000	-3
1.34367	-3
1.34733	-2
1.35100	-2
1.35467	-2
1.35833	-2
1.36200	-2
1.36567	-2
1.36933	-2
1.37300	-2
1.37667	-2
1.38033	-2
1.38400	-2
1.38767	-3
1.39133	-3
1.39500	-3
1.39867	-3
1.40233	-3
1.40600	-3
1.40967	-3
1.41333	-4
1.41700	-4
1.42067	-4
1.42433	-4
1.42800	-4
1.43167	-3
1.43533	-3
1.43900	-3
1.44267	-3
1.44633	-2
1.45000	-2
1.45367	-2
1.45733	-2
1.46100	-2
1.46467	-2
1.46833	-2
1.47200	-2
1.47567	-2
1.47933	-2
1.48300	-2
1.48667	-2
1.49033	-1
1.49400	-1
1.49767	-1
1.50133	-1
1.50500	-1
1.50867	-1
1.51233	-1
1.51600	-2
1.51967	-2
1.52333	-1
1.52700	-1
1.53067	-1
1.53433	-1
1.53800	-0
1.54167	-0
1.54533	-0
1.54900	-1
1.55267	-1
1.55633	-1
1.56000	-2
1.56367	-2
1.56733	-3
1.57100	-4
1.57467	-4
1.57833	-4
1.58200	-4
1.58567	-4
1.58933	-4
1.59300	-4
1.59667	-4
1.60033	-4
1.60400	-6
1.60767	-7
1.61133	-9
1.61500	-11
1.61867	-13
1.62233	-15
1.62600	-18
1.62967	-22
1.63333	-25
1.63700	-28
1.64067	-32
1.64433	-35
1.64800	-39
1.65167	-42
1.65533	-45
1.65900	-49
1.66267	-53
1.66633	-57
1.67000	-61
1.67367	-66
1.67733	-71
1.68100	-75
1.68467	-80
1.68833	-84
1.69200	-88
1.69567	-92
1.69933	-95
1.70300	-98
1.70667	-100
1.71033	-102
1.71400	-104
1.71767	-105
1.72133	-106
1.72500	-107
1.72867	-107
1.73233	-107
1.73600	-107
1.73967	-106
1.74333	-106
1.74700	-105
1.75067	-105
1.75433	-104
1.75800	-104
1.76167	-104
1.76533	-105
1.76900	-106
1.77267	-107
1.77633	-108
1.78000	-109
1.78367	-111
1.78733	-112
1.79100	-113
1.79467	-114
1.79833	-114
1.80200	-115
1.80567	-114
1.80933	-114
1.81300	-113
1.81667	-112
1.82033	-111
1.82400	-110
1.82767	-110
1.83133	-109
1.83500	-110
1.83867	-110
1.84233	-111
1.84600	-112
1.84967	-112
1.85333	-112
1.85700	-112
1.86067	-112
1.86433	-112
1.86800	-112
1.87167	-112
1.87533	-112
1.87900	-112
1.88267	-112
1.88633	-112
1.89000	-112
1.89367	-112
1.89733	-113
1.90100	-113
1.90467	-113
1.90833	-113
1.91200	-113
1.91567	-113
1.91933	-112
1.92300	-112
1.92667	-111
1.93033	-110
1.93400	-110
1.93767	-110
1.94133	-110
1.94500	-110
1.94867	-110
1.95233	-109
1.95600	-109
1.95967	-108
1.96333	-108
1.96700	-108
1.97067	-108
1.97433	-108
1.97800	-108
1.98167	-108
1.98533	-108
1.98900	-108
1.99267	-107
1.99633	-107
2.00000	-106
2.00367	-105
2.00733	-105
2.01100	-104
2.01467	-104
2.01833	-104
2.02200	-104
2.02567	-104
2.02933	-104
2.03300	-104
2.03667	-103
2.04033	-103
2.04400	-103
2.04767	-103
2.05133	-103
2.05500	-103
2.05867	-102
2.06233	-102
2.06600	-102
2.06967	-102
2.07333	-101
2.07700	-101
2.08067	-102
2.08433	-102
2.08800	-102
2.09167	-102
2.09533	-102
2.09900	-101
2.10267	-101
2.10633	-100
2.11000	-99
2.11367	-98
2.11733	-96
2.12100	-95
2.12467	-94
2.12833	-93
2.13200	-93
2.13567	-92
2.13933	-93
2.14300	-93
2.14667	-93
2.15033	-94
2.15400	-94
2.15767	-94
2.16133	-95
2.16500	-94
2.16867	-94
2.17233	-94
2.17600	-94
2.17967	-93
2.18333	-93
2.18700	-92
2.19067	-92
2.19433	-92
2.19800	-91
2.20167	-91
2.20533	-91
2.20900	-91
2.21267	-91
2.21633	-91
2.22000	-90
2.22367	-90
2.22733	-89
2.23100	-88
2.23467	-87
2.23833	-86
2.24200	-85
2.24567	-85
2.24933	-85
2.25300	-85
2.25667	-84
2.26033	-84
2.26400	-84
2.26767	-85
2.27133	-85
2.27500	-84
2.27867	-84
2.28233	-83
2.28600	-83
2.28967	-82
2.29333	-82
2.29700	-81
2.30067	-81
2.30433	-81
2.30800	-80
2.31167	-80
2.31533	-79
2.31900	-78
2.32267	-78
2.32633	-77
2.33000	-77
2.33367	-77
2.33733	-77
2.34100	-76
2.34467	-76
2.34833	-75
2.35200	-75
2.35567	-75
2.35933	-74
2.36300	-74
2.36667	-73
2.37033	-72
2.37400	-70
2.37767	-68
2.38133	-65
2.38500	-62
2.38867	-58
2.39233	-53
2.39600	-49
2.39967	-44
2.40333	-39
2.40700	-34
2.41067	-29
2.41433	-25
2.41800	-21
2.42167	-18
2.42533	-15
2.42900	-13
2.43267	-11
2.43633	-10
2.44000	-9
2.44367	-8
2.44733	-7
2.45100	-7
2.45467	-7
2.45833	-6
2.46200	-5
2.46567	-4
2.46933	-3
2.47300	-2
2.47667	-1
2.48033	1
2.48400	2
2.48767	3
2.49133	5
2.49500	5
2.49867	6
2.50233	7
2.50600	7
2.50967	8
2.51333	9
2.51700	10
2.52067	10
2.52433	11
2.52800	12
2.53167	13
2.53533	13
2.53900	14
2.54267	14
2.54633	14
2.55000	15
2.55367	15
2.55733	15
2.56100	16
2.56467	17
2.56833	18
2.57200	18
2.57567	18
2.57933	18
2.58300	18
2.58667	18
2.59033	17
2.59400	17
2.59767	17
2.60133	17
2.60500	17
2.60867	17
2.61233	18
2.61600	18
2.61967	18
2.62333	18
2.62700	18
2.63067	18
2.63433	18
2.63800	18
2.64167	17
2.64533	17
2.64900	17
2.65267	18
2.65633	18
2.66000	19
2.66367	19
2.66733	20
2.67100	20
2.67467	21
2.67833	21
2.68200	21
2.68567	21
2.68933	21
2.69300	22
2.69667	22
2.70033	22
2.70400	23
2.70767	23
2.71133	23
2.71500	22
2.71867	22
2.72233	22
2.72600	22
2.72967	22
2.73333	22
2.73700	23
2.74067	23
2.74433	23
2.74800	24
2.75167	24
2.75533	25
2.75900	25
2.76267	25
2.76633	26
2.77000	26
2.77367	26
2.77733	26
2.78100	26
2.78467	26
2.78833	26
2.79200	26
2.79567	26
2.79933	26
2.80300	25
2.80667	25
2.81033	25
2.81400	25
2.81767	24
2.82133	24
2.82500	24
2.82867	25
2.83233	25
2.83600	25
2.83967	24
2.84333	23
2.84700	22
2.85067	18
2.85433	12
2.85800	4
2.86167	-8
2.86533	-24
2.86900	-44
2.87267	-68
2.87633	-97
2.88000	-130
2.88367	-168
2.88733	-209
2.89100	-254
2.89467	-302
2.89833	-352
2.90200	-405
2.90567	-459
2.90933	-514
2.91300	-569
2.91667	-625
2.92033	-680
2.92400	-734
2.92767	-786
2.93133	-837
2.93500	-889
2.93867	-945
2.94233	-1003
2.94600	-1055
2.94967	-1089
2.95333	-1099
2.95700	-1083
2.96067	-1044
2.96433	-986
2.96800	-916
2.97167	-838
2.97533	-758
2.97900	-678
2.98267	-601
2.98633	-529
2.99000	-463
2.99367	-402
2.99733	-348
3.00100	-300
3.00467	-257
3.00833	-220
3.01200	-187
3.01567	-159
3.01933	-134
3.02300	-113
3.02667	-95
3.03033	-79
3.03400	-66
3.03767	-54
3.04133	-44
3.04500	-36
3.04867	-28
3.05233	-22
3.05600	-17
3.05967	-13
3.06333	-9
3.06700	-6
3.07067	-3
3.07433	-1
3.07800	1
3.08167	3
3.08533	5
3.08900	6
3.09267	8
3.09633	9
3.10000	10
3.10367	11
3.10733	12
3.11100	13
3.11467	13
3.11833	14
3.12200	14
3.12567	14
3.12933	15
3.13300	15
3.13667	15
3.14033	16
3.14400	16
3.14767	16
3.15133	17
3.15500	17
3.15867	17
3.16233	17
3.16600	17
3.16967	17
3.17333	17
3.17700	17
3.18067	18
3.18433	18
3.18800	18
3.19167	18
3.19533	18
3.19900	18
3.20267	19
3.20633	19
3.21000	19
3.21367	19
3.21733	19
3.22100	20
3.22467	20
3.22833	20
3.23200	20
3.23567	20
3.23933	20
3.24300	20
3.24667	20
3.25033	21
3.25400	21
3.25767	21
3.26133	21
3.26500	21
3.26867	21
3.27233	22
3.27600	22
3.27967	22
3.28333	23
3.28700	23
3.29067	23
3.29433	24
3.29800	24
3.30167	24
3.30533	25
3.30900	25
3.31267	26
3.31633	26
3.32000	26
3.32367	26
3.32733	27
3.33100	27
3.33467	27
3.33833	27
3.34200	27
3.34567	27
3.34933	27
3.35300	27
3.35667	27
3.36033	27
3.36400	28
3.36767	27
3.37133	27
3.37500	27
3.37867	27
3.38233	27
3.38600	27
3.38967	27
3.39333	27
3.39700	27
3.40067	27
3.40433	27
3.40800	27
3.41167	27
3.41533	27
3.41900	27
3.42267	27
3.42633	27
3.43000	27
3.43367	27
3.43733	27
3.44100	27
3.44467	27
3.44833	26
3.45200	26
3.45567	26
3.45933	26
3.46300	26
3.46667	26
3.47033	26
3.47400	26
3.47767	26
3.48133	26
3.48500	26
3.48867	26
3.49233	25
3.49600	25
3.49967	25
3.50333	25
3.50700	25
3.51067	25
3.51433	25
3.51800	25
3.52167	25
3.52533	25
3.52900	26
3.53267	26
3.53633	26
3.54000	26
3.54367	26
3.54733	26
3.55100	26
3.55467	26
3.55833	26
3.56200	26
3.56567	25
3.56933	25
3.57300	25
3.57667	25
3.58033	25
3.58400	25
3.58767	25
3.59133	26
3.59500	26
3.59867	26
3.60233	26
3.60600	26
3.60967	27
3.61333	27
3.61700	27
3.62067	27
3.62433	27
3.62800	27
3.63167	27
3.63533	27
3.63900	27
3.64267	27
3.64633	26
3.65000	26
3.65367	26
3.65733	26
3.66100	26
3.66467	26
3.66833	26
3.67200	26
3.67567	26
3.67933	26
3.68300	26
3.68667	26
3.69033	26
3.69400	26
3.69767	26
3.70133	26
3.70500	26
3.70867	26
3.71233	26
3.71600	26
3.71967	26
3.72333	26
3.72700	26
3.73067	25
3.73433	25
3.73800	25
3.74167	25
3.74533	25
3.74900	25
3.75267	26
3.75633	26
3.76000	26
3.76367	26
3.76733	26
3.77100	26
3.77467	25
3.77833	25
3.78200	25
3.78567	25
3.78933	25
3.79300	25
3.79667	24
3.80033	24
3.80400	25
3.80767	25
3.81133	25
3.81500	26
3.81867	26
3.82233	26
3.82600	26
3.82967	26
3.83333	27
3.83700	27
3.84067	27
3.84433	27
3.84800	27
3.85167	27
3.85533	27
3.85900	27
3.86267	27
3.86633	27
3.87000	27
3.87367	27
3.87733	27
3.88100	27
3.88467	27
3.88833	27
3.89200	27
3.89567	27
3.89933	27
3.90300	27
3.90667	27
3.91033	26
3.91400	26
3.91767	26
3.92133	26
3.92500	26
3.92867	26
3.93233	27
3.93600	27
3.93967	27
3.94333	27
3.94700	27
3.95067	27
3.95433	26
3.95800	26
3.96167	26
3.96533	26
3.96900	26
3.97267	26
3.97633	27
3.98000	26
3.98367	26
3.98733	26
3.99100	26
3.99467	26
3.99833	27

[Chromatogram (Ch3)]
Interval(msec)	220
# of Points	1091
Start Time(min)	0.002
End Time(min)	3.998
R.Time (min)	Intensity
0.00167	-0
0.00533	-1
0.00900	-3
0.01267	-5
0.01633	-4
0.02000	-4
0.02367	-5
0.02733	-3
0.03100	-2
0.03467	-2
0.03833	-1
0.04200	-1
0.04567	-0
0.04933	0
0.05300	-1
0.05667	-4
0.06033	-4
0.06400	-3
0.06767	0
0.07133	2
0.07500	2
0.07867	1
0.08233	2
0.08600	3
0.08967	3
0.09333	3
0.09700	3
0.10067	2
0.10433	1
0.10800	1
0.11167	2
0.11533	3
0.11900	3
0.12267	2
0.12633	2
0.13000	4
0.13367	3
0.13733	4
0.14100	5
0.14467	5
0.14833	4
0.15200	2
0.15567	1
0.15933	1
0.16300	-1
0.16667	-3
0.17033	-1
0.17400	-1
0.17767	-0
0.18133	-0
0.18500	1
0.18867	3
0.19233	1
0.19600	1
0.19967	2
0.20333	1
0.20700	0
0.21067	-1
0.21433	-2
0.21800	-4
0.22167	-6
0.22533	-7
0.22900	-7
0.23267	-7
0.23633	-6
0.24000	-5
0.24367	-6
0.24733	-8
0.25100	-6
0.25467	-5
0.25833	-5
0.26200	-5
0.26567	-5
0.26933	-8
0.27300	-9
0.27667	-8
0.28033	-7
0.28400	-8
0.28767	-8
0.29133	-8
0.29500	-7
0.29867	-6
0.30233	-10
0.30600	-11
0.30967	-10
0.31333	-12
0.31700	-13
0.32067	-12
0.32433	-13
0.32800	-12
0.33167	-11
0.33533	-9
0.33900	-8
0.34267	-9
0.34633	-9
0.35000	-10
0.35367	-12
0.35733	-14
0.36100	-14
0.36467	-15
0.36833	-16
0.37200	-16
0.37567	-17
0.37933	-17
0.38300	-17
0.38667	-18
0.39033	-18
0.39400	-18
0.39767	-16
0.40133	-16
0.40500	-18
0.40867	-18
0.41233	-16
0.41600	-14
0.41967	-12
0.42333	-12
0.42700	-14
0.43067	-16
0.43433	-17
0.43800	-16
0.44167	-15
0.44533	-16
0.44900	-15
0.45267	-12
0.45633	-11
0.46000	-11
0.46367	-11
0.46733	-12
0.47100	-13
0.47467	-15
0.47833	-16
0.48200	-15
0.48567	-13
0.48933	-9
0.49300	-8
0.49667	-7
0.50033	-6
0.50400	-6
0.50767	-8
0.51133	-10
0.51500	-10
0.51867	-9
0.52233	-10
0.52600	-10
0.52967	-8
0.53333	-4
0.53700	-2
0.54067	-2
0.54433	-3
0.54800	-4
0.55167	-4
0.55533	-5
0.55900	-9
0.56267	-10
0.56633	-8
0.57000	-7
0.57367	-7
0.57733	-7
0.58100	-8
0.58467	-7
0.58833	-7
0.59200	-7
0.59567	-7
0.59933	-5
0.60300	-6
0.60667	-7
0.61033	-11
0.61400	-13
0.61767	-12
0.62133	-9
0.62500	-8
0.62867	-9
0.63233	-10
0.63600	-11
0.63967	-12
0.64333	-11
0.64700	-12
0.65067	-12
0.65433	-10
0.65800	-7
0.66167	-7
0.66533	-7
0.66900	-7
0.67267	-6
0.67633	-5
0.68000	-5
0.68367	-4
0.68733	-3
0.69100	-4
0.69467	-5
0.69833	-4
0.70200	-3
0.70567	-3
0.70933	-3
0.71300	-3
0.71667	-2
0.72033	-2
0.72400	-2
0.72767	-1
0.73133	-3
0.73500	-4
0.73867	-6
0.74233	-7
0.74600	-6
0.74967	-3
0.75333	-4
0.75700	-6
0.76067	-7
0.76433	-5
0.76800	-4
0.77167	-6
0.77533	-7
0.77900	-7
0.78267	-7
0.78633	-7
0.79000	-6
0.79367	-4
0.79733	-2
0.80100	-1
0.80467	-2
0.80833	-2
0.81200	-1
0.81567	-3
0.81933	-6
0.82300	-8
0.82667	-8
0.83033	-8
0.83400	-7
0.83767	-7
0.84133	-6
0.84500	-6
0.84867	-6
0.85233	-6
0.85600	-2
0.85967	2
0.86333	3
0.86700	2
0.87067	1
0.87433	0
0.87800	-0
0.88167	1
0.88533	1
0.88900	3
0.89267	2
0.89633	1
0.90000	1
0.90367	2
0.90733	1
0.91100	2
0.91467	4
0.91833	4
0.92200	5
0.92567	6
0.92933	5
0.93300	6
0.93667	6
0.94033	5
0.94400	5
0.94767	6
0.95133	7
0.95500	5
0.95867	4
0.96233	3
0.96600	3
0.96967	5
0.97333	8
0.97700	8
0.98067	7
0.98433	5
0.98800	5
0.99167	6
0.99533	7
0.99900	9
1.00267	11
1.00633	10
1.01000	9
1.01367	6
1.01733	5
1.02100	6
1.02467	8
1.02833	10
1.03200	9
1.03567	8
1.03933	8
1.04300	10
1.04667	11
1.05033	10
1.05400	9
1.05767	8
1.06133	7
1.06500	9
1.06867	11
1.07233	12
1.07600	14
1.07967	15
1.08333	14
1.08700	15
1.09067	15
1.09433	14
1.09800	14
1.10167	15
1.10533	15
1.10900	14
1.11267	13
1.11633	12
1.12000	11
1.12367	13
1.12733	15
1.13100	16
1.13467	17
1.13833	17
1.14200	17
1.14567	16
1.14933	14
1.15300	11
1.15667	12
1.16033	12
1.16400	12
1.16767	10
1.17133	8
1.17500	7
1.17867	8
1.18233	10
1.18600	11
1.18967	12
1.19333	11
1.19700	12
1.20067	13
1.20433	13
1.20800	14
1.21167	13
1.21533	13
1.21900	14
1.22267	15
1.22633	14
1.23000	12
1.23367	13
1.23733	16
1.24100	19
1.24467	19
1.24833	19
1.25200	19
1.25567	19
1.25933	17
1.26300	16
1.26667	15
1.27033	14
1.27400	13
1.27767	12
1.28133	12
1.28500	12
1.28867	13
1.29233	15
1.29600	13
1.29967	11
1.30333	9
1.30700	10
1.31067	12
1.31433	13
1.31800	12
1.32167	11
1.32533	11
1.32900	11
1.33267	12
1.33633	11
1.34000	9
1.34367	9
1.34733	9
1.35100	10
1.35467	10
1.35833	11
1.36200	13
1.36567	13
1.36933	10
1.37300	7
1.37667	6
1.38033	7
1.38400	9
1.38767	11
1.39133	12
1.39500	14
1.39867	14
1.40233	11
1.40600	9
1.40967	8
1.41333	8
1.41700	8
1.42067	8
1.42433	7
1.42800	5
1.43167	5
1.43533	6
1.43900	5
1.44267	6
1.44633	6
1.45000	5
1.45367	4
1.45733	5
1.46100	8
1.46467	10
1.46833	10
1.47200	10
1.47567	10
1.47933	10
1.48300	10
1.48667	11
1.49033	12
1.49400	12
1.49767	10
1.50133	8
1.50500	8
1.50867	8
1.51233	8
1.51600	10
1.51967	12
1.52333	14
1.52700	15
1.53067	17
1.53433	17
1.53800	16
1.54167	15
1.54533	16
1.54900	16
1.55267	15
1.55633	13
1.56000	11
1.56367	9
1.56733	8
1.57100	9
1.57467	10
1.57833	12
1.58200	15
1.58567	15
1.58933	14
1.59300	15
1.59667	16
1.60033	16
1.60400	16
1.60767	16
1.61133	14
1.61500	11
1.61867	11
1.62233	12
1.62600	14
1.62967	16
1.63333	16
1.63700	15
1.64067	16
1.64433	16
1.64800	14
1.65167	13
1.65533	13
1.65900	16
1.66267	17
1.66633	15
1.67000	17
1.67367	18
1.67733	19
1.68100	19
1.68467	18
1.68833	19
1.69200	22
1.69567	23
1.69933	24
1.70300	25
1.70667	24
1.71033	23
1.71400	25
1.71767	26
1.72133	26
1.72500	26
1.72867	27
1.73233	27
1.73600	28
1.73967	30
1.74333	31
1.74700	31
1.75067	31
1.75433	31
1.75800	30
1.76167	30
1.76533	31
1.76900	34
1.77267	36
1.77633	36
1.78000	38
1.78367	41
1.78733	42
1.79100	41
1.79467	40
1.79833	39
1.80200	37
1.80567	37
1.80933	38
1.81300	40
1.81667	43
1.82033	44
1.82400	44
1.82767	44
1.83133	44
1.83500	45
1.83867	45
1.84233	46
1.84600	47
1.84967	48
1.85333	51
1.85700	52
1.86067	53
1.86433	55
1.86800	57
1.87167	56
1.87533	54
1.87900	54
1.88267	55
1.88633	56
1.89000	57
1.89367	59
1.89733	58
1.90100	56
1.90467	53
1.90833	54
1.91200	55
1.91567	57
1.91933	60
1.92300	61
1.92667	64
1.93033	66
1.93400	67
1.93767	68
1.94133	69
1.94500	71
1.94867	72
1.95233	71
1.95600	70
1.95967	71
1.96333	73
1.96700	74
1.97067	75
1.97433	76
1.97800	79
1.98167	79
1.98533	79
1.98900	79
1.99267	80
1.99633	82
2.00000	84
2.00367	84
2.00733	86
2.01100	89
2.01467	90
2.01833	90
2.02200	91
2.02567	92
2.02933	95
2.03300	97
2.03667	98
2.04033	100
2.04400	103
2.04767	103
2.05133	103
2.05500	104
2.05867	107
2.06233	108
2.06600	108
2.06967	108
2.07333	110
2.07700	112
2.08067	112
2.08433	112
2.08800	112
2.09167	113
2.09533	116
2.09900	120
2.10267	124
2.10633	125
2.11000	125
2.11367	127
2.11733	130
2.12100	133
2.12467	135
2.12833	138
2.13200	140
2.13567	139
2.13933	137
2.14300	139
2.14667	142
2.15033	143
2.15400	145
2.15767	148
2.16133	150
2.16500	152
2.16867	154
2.17233	154
2.17600	153
2.17967	155
2.18333	157
2.18700	158
2.19067	159
2.19433	162
2.19800	164
2.20167	165
2.20533	167
2.20900	170
2.21267	171
2.21633	169
2.22000	169
2.22367	171
2.22733	172
2.23100	175
2.23467	175
2.23833	175
2.24200	175
2.24567	177
2.24933	179
2.25300	181
2.25667	182
2.26033	181
2.26400	180
2.26767	181
2.27133	183
2.27500	188
2.27867	191
2.28233	193
2.28600	193
2.28967	194
2.29333	196
2.29700	197
2.30067	195
2.30433	195
2.30800	196
2.31167	199
2.31533	201
2.31900	200
2.32267	200
2.32633	200
2.33000	202
2.33367	205
2.33733	206
2.34100	209
2.34467	211
2.34833	213
2.35200	213
2.35567	214
2.35933	213
2.36300	212
2.36667	211
2.37033	212
2.37400	214
2.37767	215
2.38133	217
2.38500	217
2.38867	215
2.39233	215
2.39600	217
2.39967	220
2.40333	224
2.40700	229
2.41067	233
2.41433	236
2.41800	240
2.42167	242
2.42533	241
2.42900	239
2.43267	238
2.43633	239
2.44000	245
2.44367	306
2.44733	459
2.45100	623
2.45467	758
2.45833	829
2.46200	821
2.46567	771
2.46933	718
2.47300	679
2.47667	654
2.48033	627
2.48400	587
2.48767	536
2.49133	482
2.49500	434
2.49867	398
2.50233	370
2.50600	354
2.50967	353
2.51333	363
2.51700	384
2.52067	407
2.52433	424
2.52800	431
2.53167	425
2.53533	405
2.53900	377
2.54267	345
2.54633	312
2.55000	279
2.55367	252
2.55733	230
2.56100	215
2.56467	204
2.56833	193
2.57200	187
2.57567	184
2.57933	183
2.58300	182
2.58667	184
2.59033	186
2.59400	188
2.59767	189
2.60133	187
2.60500	183
2.60867	175
2.61233	166
2.61600	157
2.61967	144
2.62333	133
2.62700	122
2.63067	113
2.63433	105
2.63800	96
2.64167	85
2.64533	74
2.64900	60
2.65267	46
2.65633	32
2.66000	20
2.66367	11
2.66733	3
2.67100	-6
2.67467	-12
2.67833	-17
2.68200	-20
2.68567	-20
2.68933	-20
2.69300	-19
2.69667	-17
2.70033	-16
2.70400	-16
2.70767	-15
2.71133	-12
2.71500	-7
2.71867	0
2.72233	9
2.72600	15
2.72967	19
2.73333	23
2.73700	27
2.74067	29
2.74433	31
2.74800	35
2.75167	39
2.75533	42
2.75900	46
2.76267	50
2.76633	51
2.77000	54
2.77367	59
2.77733	64
2.78100	66
2.78467	69
2.78833	75
2.79200	80
2.79567	86
2.79933	91
2.80300	97
2.80667	103
2.81033	109
2.81400	115
2.81767	122
2.82133	136
2.82500	159
2.82867	201
2.83233	272
2.83600	397
2.83967	596
2.84333	889
2.84700	1287
2.85067	1779
2.85433	2342
2.85800	2937
2.86167	3518
2.86533	4035
2.86900	4449
2.87267	4732
2.87633	4872
2.88000	4873
2.88367	4752
2.88733	4534
2.89100	4249
2.89467	3924
2.89833	3584
2.90200	3239
2.90567	2904
2.90933	2586
2.91300	2295
2.91667	2031
2.92033	1790
2.92400	1576
2.92767	1387
2.93133	1221
2.93500	1074
2.93867	946
2.94233	836
2.94600	739
2.94967	652
2.95333	577
2.95700	511
2.96067	453
2.96433	404
2.96800	363
2.97167	327
2.97533	297
2.97900	269
2.98267	245
2.98633	225
2.99000	207
2.99367	190
2.99733	177
3.00100	165
3.00467	155
3.00833	145
3.01200	137
3.01567	132
3.01933	130
3.02300	127
3.02667	124
3.03033	120
3.03400	116
3.03767	113
3.04133	108
3.04500	84
3.04867	45
3.05233	13
3.05600	3
3.05967	15
3.06333	41
3.06700	75
3.07067	117
3.07433	165
3.07800	213
3.08167	259
3.08533	307
3.08900	352
3.09267	393
3.09633	431
3.10000	464
3.10367	490
3.10733	510
3.11100	528
3.11467	546
3.11833	561
3.12200	575
3.12567	588
3.12933	598
3.13300	607
3.13667	616
3.14033	625
3.14400	633
3.14767	638
3.15133	644
3.15500	650
3.15867	654
3.16233	657
3.16600	662
3.16967	667
3.17333	672
3.17700	677
3.18067	680
3.18433	686
3.18800	692
3.19167	696
3.19533	701
3.19900	706
3.20267	713
3.20633	720
3.21000	726
3.21367	730
3.21733	735
3.22100	743
3.22467	750
3.22833	757
3.23200	760
3.23567	764
3.23933	770
3.24300	777
3.24667	782
3.25033	787
3.25400	790
3.25767	793
3.26133	797
3.26500	798
3.26867	801
3.27233	806
3.27600	809
3.27967	810
3.28333	811
3.28700	809
3.29067	808
3.29433	810
3.29800	812
3.30167	815
3.30533	819
3.30900	821
3.31267	821
3.31633	819
3.32000	815
3.32367	814
3.32733	813
3.33100	811
3.33467	808
3.33833	806
3.34200	805
3.34567	802
3.34933	799
3.35300	797
3.35667	796
3.36033	794
3.36400	790
3.36767	785
3.37133	781
3.37500	779
3.37867	776
3.38233	774
3.38600	774
3.38967	774
3.39333	775
3.39700	775
3.40067	774
3.40433	769
3.40800	765
3.41167	762
3.41533	758
3.41900	755
3.42267	753
3.42633	751
3.43000	750
3.43367	750
3.43733	750
3.44100	748
3.44467	745
3.44833	742
3.45200	741
3.45567	740
3.45933	739
3.46300	738
3.46667	736
3.47033	735
3.47400	733
3.47767	729
3.48133	727
3.48500	724
3.48867	724
3.49233	724
3.49600	723
3.49967	722
3.50333	722
3.50700	721
3.51067	721
3.51433	723
3.51800	723
3.52167	721
3.52533	718
3.52900	716
3.53267	713
3.53633	711
3.54000	710
3.54367	710
3.54733	708
3.55100	706
3.55467	703
3.55833	702
3.56200	702
3.56567	701
3.56933	699
3.57300	699
3.57667	699
3.58033	698
3.58400	697
3.58767	694
3.59133	690
3.59500	688
3.59867	687
3.60233	684
3.60600	683
3.60967	683
3.61333	681
3.61700	678
3.62067	678
3.62433	679
3.62800	679
3.63167	678
3.63533	676
3.63900	673
3.64267	668
3.64633	666
3.65000	665
3.65367	664
3.65733	663
3.66100	662
3.66467	661
3.66833	658
3.67200	655
3.67567	654
3.67933	652
3.68300	651
3.68667	648
3.69033	645
3.69400	644
3.69767	643
3.70133	641
3.70500	639
3.70867	636
3.71233	634
3.71600	631
3.71967	630
3.72333	629
3.72700	629
3.73067	628
3.73433	627
3.73800	626
3.74167	624
3.74533	619
3.74900	615
3.75267	610
3.75633	605
3.76000	602
3.76367	602
3.76733	602
3.77100	602
3.77467	601
3.77833	599
3.78200	596
3.78567	593
3.78933	593
3.79300	593
3.79667	592
3.80033	590
3.80400	588
3.80767	587
3.81133	587
3.81500	587
3.81867	584
3.82233	581
3.82600	580
3.82967	578
3.83333	574
3.83700	569
3.84067	566
3.84433	566
3.84800	567
3.85167	566
3.85533	564
3.85900	562
3.86267	562
3.86633	560
3.87000	557
3.87367	555
3.87733	553
3.88100	549
3.88467	545
3.88833	544
3.89200	542
3.89567	541
3.89933	539
3.90300	535
3.90667	533
3.91033	533
3.91400	533
3.91767	535
3.92133	534
3.92500	535
3.92867	532
3.93233	532
3.93600	530
3.93967	528
3.94333	526
3.94700	525
3.95067	524
3.95433	523
3.95800	520
3.96167	517
3.96533	512
3.96900	511
3.97267	511
3.97633	511
3.98000	510
3.98367	508
3.98733	507
3.99100	508
3.99467	509
3.99833	508

[Status Trace (Column Oven Temperature)]
Interval(msec)	1000
# of Points	239
Start Time(min)	0.015
End Time(min)	3.981
Intensity Units	
Intensity Multiplier	1
R.Time (min)	Intensity
0.01478	35.07
0.03145	35.08
0.04812	35.08
0.06478	35.08
0.08145	35.07
0.09812	35.06
0.11478	35.05
0.13145	35.04
0.14812	35.04
0.16478	35.03
0.18145	35.03
0.19812	35.04
0.21478	35.03
0.23145	35.03
0.24812	35.04
0.26478	35.04
0.28145	35.03
0.29812	35.01
0.31478	35.00
0.33145	34.99
0.34812	34.99
0.36478	34.99
0.38145	35.00
0.39812	35.00
0.41478	35.01
0.43145	35.02
0.44812	35.03
0.46478	35.02
0.48145	35.02
0.49812	35.02
0.51478	35.01
0.53145	35.00
0.54812	35.00
0.56478	35.01
0.58145	35.01
0.59812	35.00
0.61478	35.00
0.63145	35.00
0.64812	35.00
0.66478	35.01
0.68145	35.00
0.69812	35.00
0.71478	35.00
0.73145	34.99
0.74812	34.99
0.76478	34.99
0.78145	34.98
0.79812	34.97
0.81478	34.97
0.83145	34.98
0.84812	34.99
0.86478	34.98
0.88145	34.99
0.89812	34.99
0.91478	34.98
0.93145	34.98
0.94812	34.99
0.96478	34.99
0.98145	35.00
0.99812	35.00
1.01478	35.00
1.03145	35.01
1.04812	35.01
1.06478	35.01
1.08145	35.01
1.09812	35.01
1.11478	35.01
1.13145	35.01
1.14812	35.00
1.16478	35.00
1.18145	35.00
1.19812	35.01
1.21478	35.01
1.23145	35.00
1.24812	35.00
1.26478	35.00
1.28145	35.01
1.29812	35.00
1.31478	35.01
1.33145	35.01
1.34812	35.00
1.36478	35.01
1.38145	35.02
1.39812	35.02
1.41478	35.02
1.43145	35.02
1.44812	35.02
1.46478	35.02
1.48145	35.02
1.49812	35.01
1.51478	35.01
1.53145	34.99
1.54812	35.00
1.56478	35.00
1.58145	35.00
1.59812	35.03
1.61478	35.12
1.63145	35.27
1.64812	35.47
1.66478	35.76
1.68145	36.12
1.69812	36.49
1.71478	36.85
1.73145	37.17
1.74812	37.47
1.76478	37.79
1.78145	38.15
1.79812	38.49
1.81478	38.79
1.83145	39.11
1.84812	39.46
1.86478	39.79
1.88145	40.12
1.89812	40.45
1.91478	40.79
1.93145	41.11
1.94812	41.44
1.96478	41.76
1.98145	42.09
1.99812	42.41
2.01478	42.74
2.03145	43.08
2.04812	43.41
2.06478	43.73
2.08145	44.07
2.09812	44.42
2.11478	44.73
2.13145	45.04
2.14812	45.37
2.16478	45.70
2.18145	46.02
2.19812	46.35
2.21478	46.70
2.23145	47.00
2.24812	47.32
2.26478	47.66
2.28145	47.98
2.29812	48.31
2.31478	48.63
2.33145	48.96
2.34812	49.26
2.36478	49.58
2.38145	49.74
2.39812	49.76
2.41478	49.75
2.43145	49.76
2.44812	49.77
2.46478	49.77
2.48145	49.77
2.49812	49.79
2.51478	49.80
2.53145	49.81
2.54812	49.82
2.56478	49.79
2.58145	49.81
2.59812	49.82
2.61478	49.81
2.63145	49.82
2.64812	49.84
2.66478	49.84
2.68145	49.85
2.69812	49.85
2.71478	49.86
2.73145	49.87
2.74812	49.87
2.76478	49.86
2.78145	49.85
2.79812	49.86
2.81478	49.88
2.83145	49.89
2.84812	49.89
2.86478	49.90
2.88145	49.91
2.89812	49.93
2.91478	49.93
2.93145	49.94
2.94812	49.95
2.96478	49.95
2.98145	49.95
2.99812	49.97
3.01478	49.98
3.03145	49.98
3.04812	49.99
3.06478	50.01
3.08145	50.01
3.09812	50.01
3.11478	50.01
3.13145	50.03
3.14812	50.04
3.16478	50.05
3.18145	50.06
3.19812	50.07
3.21478	50.08
3.23145	50.09
3.24812	50.10
3.26478	50.10
3.28145	50.10
3.29812	50.10
3.31478	50.08
3.33145	50.07
3.34812	50.06
3.36478	50.05
3.38145	50.04
3.39812	50.03
3.41478	50.02
3.43145	50.02
3.44812	50.02
3.46478	50.02
3.48145	50.03
3.49812	50.03
3.51478	50.03
3.53145	50.02
3.54812	50.02
3.56478	50.02
3.58145	50.03
3.59812	50.03
3.61478	50.03
3.63145	50.02
3.64812	50.03
3.66478	50.03
3.68145	50.04
3.69812	50.05
3.71478	50.05
3.73145	50.05
3.74812	50.06
3.76478	50.06
3.78145	50.06
3.79812	50.06
3.81478	50.06
3.83145	50.06
3.84812	50.05
3.86478	50.05
3.88145	50.05
3.89812	50.05
3.91478	50.05
3.93145	50.05
3.94812	50.04
3.96478	50.03
3.98145	50.04

[Status Trace (Injection Unit Temperature)]
Interval(msec)	1000
# of Points	239
Start Time(min)	0.015
End Time(min)	3.981
Intensity Units	
Intensity Multiplier	1
R.Time (min)	Intensity
0.01478	99.99
0.03145	99.98
0.04812	99.99
0.06478	99.98
0.08145	99.98
0.09812	99.98
0.11478	99.99
0.13145	99.99
0.14812	99.99
0.16478	99.99
0.18145	99.99
0.19812	99.99
0.21478	99.98
0.23145	99.99
0.24812	99.99
0.26478	99.99
0.28145	99.98
0.29812	99.98
0.31478	99.99
0.33145	99.99
0.34812	99.99
0.36478	99.99
0.38145	99.98
0.39812	99.99
0.41478	99.99
0.43145	99.99
0.44812	99.99
0.46478	99.98
0.48145	99.99
0.49812	99.99
0.51478	99.99
0.53145	99.98
0.54812	99.99
0.56478	99.99
0.58145	99.99
0.59812	99.98
0.61478	99.98
0.63145	99.98
0.64812	99.99
0.66478	99.99
0.68145	99.98
0.69812	99.98
0.71478	99.99
0.73145	99.98
0.74812	99.98
0.76478	99.98
0.78145	99.98
0.79812	99.98
0.81478	99.98
0.83145	99.98
0.84812	99.98
0.86478	99.98
0.88145	99.98
0.89812	99.98
0.91478	99.98
0.93145	99.98
0.94812	99.98
0.96478	99.98
0.98145	99.98
0.99812	99.98
1.01478	99.98
1.03145	99.98
1.04812	99.98
1.06478	99.98
1.08145	99.98
1.09812	99.98
1.11478	99.98
1.13145	99.98
1.14812	99.98
1.16478	99.98
1.18145	99.98
1.19812	99.98
1.21478	99.98
1.23145	99.98
1.24812	99.98
1.26478	99.97
1.28145	99.98
1.29812	99.98
1.31478	99.97
1.33145	99.98
1.34812	99.98
1.36478	99.98
1.38145	99.98
1.39812	99.98
1.41478	99.98
1.43145	99.98
1.44812	99.98
1.46478	99.98
1.48145	99.98
1.49812	99.98
1.51478	99.98
1.53145	99.98
1.54812	99.98
1.56478	99.98
1.58145	99.98
1.59812	99.99
1.61478	99.98
1.63145	99.99
1.64812	99.99
1.66478	99.99
1.68145	99.99
1.69812	99.99
1.71478	99.99
1.73145	99.99
1.74812	99.99
1.76478	99.98
1.78145	99.98
1.79812	99.99
1.81478	99.98
1.83145	99.99
1.84812	99.98
1.86478	99.98
1.88145	99.98
1.89812	99.98
1.91478	99.98
1.93145	99.98
1.94812	99.98
1.96478	99.98
1.98145	99.98
1.99812	99.98
2.01478	99.98
2.03145	99.98
2.04812	99.98
2.06478	99.98
2.08145	99.98
2.09812	99.98
2.11478	99.97
2.13145	99.98
2.14812	99.98
2.16478	99.97
2.18145	99.97
2.19812	99.97
2.21478	99.97
2.23145	99.97
2.24812	99.97
2.26478	99.97
2.28145	99.97
2.29812	99.96
2.31478	99.97
2.33145	99.97
2.34812	99.97
2.36478	99.97
2.38145	99.97
2.39812	99.97
2.41478	99.97
2.43145	99.97
2.44812	99.97
2.46478	99.97
2.48145	99.97
2.49812	99.97
2.51478	99.97
2.53145	99.97
2.54812	99.97
2.56478	99.97
2.58145	99.97
2.59812	99.97
2.61478	99.97
2.63145	99.98
2.64812	99.97
2.66478	99.98
2.68145	99.98
2.69812	99.97
2.71478	99.98
2.73145	99.98
2.74812	99.98
2.76478	99.98
2.78145	99.99
2.79812	99.99
2.81478	99.99
2.83145	99.99
2.84812	99.99
2.86478	99.99
2.88145	99.99
2.89812	99.99
2.91478	99.99
2.93145	100.00
2.94812	100.00
2.96478	100.00
2.98145	100.00
2.99812	100.00
3.01478	100.01
3.03145	100.01
3.04812	100.01
3.06478	100.01
3.08145	100.01
3.09812	100.01
3.11478	100.01
3.13145	100.01
3.14812	100.02
3.16478	100.01
3.18145	100.02
3.19812	100.02
3.21478	100.02
3.23145	100.02
3.24812	100.02
3.26478	100.02
3.28145	100.02
3.29812	100.02
3.31478	100.03
3.33145	100.03
3.34812	100.03
3.36478	100.03
3.38145	100.03
3.39812	100.03
3.41478	100.03
3.43145	100.04
3.44812	100.03
3.46478	100.04
3.48145	100.04
3.49812	100.03
3.51478	100.04
3.53145	100.04
3.54812	100.04
3.56478	100.04
3.58145	100.04
3.59812	100.04
3.61478	100.05
3.63145	100.05
3.64812	100.04
3.66478	100.05
3.68145	100.04
3.69812	100.05
3.71478	100.05
3.73145	100.05
3.74812	100.05
3.76478	100.05
3.78145	100.05
3.79812	100.05
3.81478	100.05
3.83145	100.05
3.84812	100.05
3.86478	100.05
3.88145	100.05
3.89812	100.05
3.91478	100.05
3.93145	100.05
3.94812	100.05
3.96478	100.05
3.98145	100.05

[Status Trace (Carrier Gas Pressure)]
Interval(msec)	1000
# of Points	239
Start Time(min)	0.015
End Time(min)	3.981
Intensity Units	
Intensity Multiplier	1
R.Time (min)	Intensity
0.01478	57.21
0.03145	55.53
0.04812	58.03
0.06478	59.87
0.08145	58.65
0.09812	57.97
0.11478	58.00
0.13145	58.01
0.14812	58.01
0.16478	58.00
0.18145	58.00
0.19812	58.00
0.21478	58.00
0.23145	58.00
0.24812	58.00
0.26478	58.00
0.28145	58.00
0.29812	58.00
0.31478	58.00
0.33145	58.00
0.34812	58.00
0.36478	58.00
0.38145	58.00
0.39812	58.00
0.41478	58.00
0.43145	58.00
0.44812	58.00
0.46478	58.00
0.48145	58.00
0.49812	58.00
0.51478	58.00
0.53145	58.00
0.54812	58.00
0.56478	58.00
0.58145	58.00
0.59812	58.00
0.61478	58.00
0.63145	58.00
0.64812	58.00
0.66478	58.00
0.68145	58.00
0.69812	58.00
0.71478	58.00
0.73145	58.00
0.74812	58.00
0.76478	58.00
0.78145	58.00
0.79812	58.00
0.81478	58.00
0.83145	58.00
0.84812	58.00
0.86478	58.00
0.88145	58.00
0.89812	58.00
0.91478	58.00
0.93145	58.00
0.94812	58.00
0.96478	58.00
0.98145	58.00
0.99812	58.00
1.01478	58.00
1.03145	58.00
1.04812	58.00
1.06478	58.00
1.08145	58.00
1.09812	58.00
1.11478	58.00
1.13145	58.00
1.14812	58.00
1.16478	58.00
1.18145	58.00
1.19812	58.00
1.21478	58.00
1.23145	58.00
1.24812	58.00
1.26478	58.00
1.28145	58.00
1.29812	58.00
1.31478	58.00
1.33145	58.00
1.34812	58.00
1.36478	58.00
1.38145	58.00
1.39812	58.00
1.41478	58.00
1.43145	58.00
1.44812	58.00
1.46478	58.00
1.48145	58.00
1.49812	58.00
1.51478	58.00
1.53145	58.00
1.54812	58.00
1.56478	58.00
1.58145	58.00
1.59812	58.00
1.61478	58.00
1.63145	58.00
1.64812	58.00
1.66478	58.01
1.68145	58.01
1.69812	58.00
1.71478	58.00
1.73145	58.00
1.74812	58.00
1.76478	58.00
1.78145	58.00
1.79812	58.00
1.81478	58.00
1.83145	58.00
1.84812	58.00
1.86478	58.00
1.88145	58.00
1.89812	58.00
1.91478	58.00
1.93145	58.00
1.94812	58.00
1.96478	58.00
1.98145	58.00
1.99812	58.00
2.01478	58.00
2.03145	58.00
2.04812	58.00
2.06478	58.00
2.08145	58.00
2.09812	58.00
2.11478	58.00
2.13145	58.00
2.14812	58.00
2.16478	58.00
2.18145	58.00
2.19812	58.00
2.21478	58.00
2.23145	58.00
2.24812	58.00
2.26478	58.00
2.28145	58.00
2.29812	58.00
2.31478	58.00
2.33145	58.00
2.34812	58.00
2.36478	58.00
2.38145	57.99
2.39812	57.99
2.41478	57.99
2.43145	58.00
2.44812	58.00
2.46478	58.00
2.48145	58.00
2.49812	58.00
2.51478	57.99
2.53145	57.99
2.54812	58.00
2.56478	58.00
2.58145	58.00
2.59812	58.00
2.61478	58.00
2.63145	58.00
2.64812	58.00
2.66478	58.00
2.68145	58.00
2.69812	58.00
2.71478	58.00
2.73145	58.00
2.74812	58.00
2.76478	58.00
2.78145	58.00
2.79812	58.00
2.81478	58.00
2.83145	58.00
2.84812	58.00
2.86478	58.00
2.88145	58.00
2.89812	58.00
2.91478	58.00
2.93145	58.00
2.94812	58.00
2.96478	58.00
2.98145	58.00
2.99812	58.00
3.01478	58.00
3.03145	58.00
3.04812	58.00
3.06478	58.00
3.08145	58.00
3.09812	58.00
3.11478	58.00
3.13145	58.00
3.14812	58.00
3.16478	58.00
3.18145	58.00
3.19812	58.00
3.21478	58.00
3.23145	58.00
3.24812	58.00
3.26478	58.00
3.28145	58.00
3.29812	58.00
3.31478	58.00
3.33145	58.00
3.34812	58.00
3.36478	58.00
3.38145	58.00
3.39812	58.00
3.41478	58.00
3.43145	58.00
3.44812	58.00
3.46478	58.00
3.48145	58.00
3.49812	58.00
3.51478	58.00
3.53145	58.00
3.54812	58.00
3.56478	58.00
3.58145	58.00
3.59812	58.00
3.61478	58.00
3.63145	58.00
3.64812	58.00
3.66478	58.00
3.68145	58.00
3.69812	58.00
3.71478	58.00
3.73145	58.00
3.74812	58.00
3.76478	58.00
3.78145	58.00
3.79812	58.00
3.81478	58.00
3.83145	58.00
3.84812	58.00
3.86478	58.00
3.88145	58.00
3.89812	58.00
3.91478	58.00
3.93145	58.00
3.94812	58.00
3.96478	58.00
3.98145	58.00

[Status Trace (Carrier Gas Flow)]
Interval(msec)	1000
# of Points	239
Start Time(min)	0.015
End Time(min)	3.981
Intensity Units	
Intensity Multiplier	1
R.Time (min)	Intensity
0.01478	33.88
0.03145	34.53
0.04812	34.55
0.06478	34.51
0.08145	34.51
0.09812	34.52
0.11478	34.52
0.13145	34.52
0.14812	34.52
0.16478	34.52
0.18145	34.52
0.19812	34.52
0.21478	34.52
0.23145	34.51
0.24812	34.52
0.26478	34.52
0.28145	34.52
0.29812	34.51
0.31478	34.52
0.33145	34.52
0.34812	34.52
0.36478	34.52
0.38145	34.53
0.39812	34.52
0.41478	34.52
0.43145	34.52
0.44812	34.52
0.46478	34.52
0.48145	34.52
0.49812	34.52
0.51478	34.52
0.53145	34.52
0.54812	34.52
0.56478	34.52
0.58145	34.52
0.59812	34.52
0.61478	34.52
0.63145	34.52
0.64812	34.52
0.66478	34.52
0.68145	34.52
0.69812	34.52
0.71478	34.52
0.73145	34.52
0.74812	34.52
0.76478	34.52
0.78145	34.52
0.79812	34.52
0.81478	34.52
0.83145	34.52
0.84812	34.52
0.86478	34.52
0.88145	34.52
0.89812	34.52
0.91478	34.53
0.93145	34.52
0.94812	34.52
0.96478	34.52
0.98145	34.52
0.99812	34.52
1.01478	34.53
1.03145	34.52
1.04812	34.52
1.06478	34.52
1.08145	34.52
1.09812	34.53
1.11478	34.52
1.13145	34.52
1.14812	34.52
1.16478	34.52
1.18145	34.52
1.19812	34.52
1.21478	34.52
1.23145	34.52
1.24812	34.52
1.26478	34.52
1.28145	34.52
1.29812	34.52
1.31478	34.52
1.33145	34.52
1.34812	34.52
1.36478	34.52
1.38145	34.52
1.39812	34.52
1.41478	34.52
1.43145	34.52
1.44812	34.52
1.46478	34.52
1.48145	34.52
1.49812	34.52
1.51478	34.52
1.53145	34.52
1.54812	34.52
1.56478	34.52
1.58145	34.51
1.59812	34.52
1.61478	34.52
1.63145	34.52
1.64812	34.52
1.66478	34.52
1.68145	34.52
1.69812	34.52
1.71478	34.52
1.73145	34.52
1.74812	34.52
1.76478	34.52
1.78145	34.52
1.79812	34.52
1.81478	34.52
1.83145	34.52
1.84812	34.52
1.86478	34.52
1.88145	34.52
1.89812	34.52
1.91478	34.51
1.93145	34.52
1.94812	34.52
1.96478	34.52
1.98145	34.52
1.99812	34.52
2.01478	34.51
2.03145	34.52
2.04812	34.52
2.06478	34.52
2.08145	34.52
2.09812	34.52
2.11478	34.52
2.13145	34.52
2.14812	34.53
2.16478	34.52
2.18145	34.51
2.19812	34.52
2.21478	34.51
2.23145	34.51
2.24812	34.52
2.26478	34.52
2.28145	34.52
2.29812	34.51
2.31478	34.52
2.33145	34.51
2.34812	34.52
2.36478	34.52
2.38145	34.51
2.39812	34.52
2.41478	34.52
2.43145	34.52
2.44812	34.52
2.46478	34.52
2.48145	34.52
2.49812	34.52
2.51478	34.52
2.53145	34.52
2.54812	34.52
2.56478	34.52
2.58145	34.51
2.59812	34.52
2.61478	34.52
2.63145	34.52
2.64812	34.52
2.66478	34.52
2.68145	34.52
2.69812	34.52
2.71478	34.52
2.73145	34.52
2.74812	34.52
2.76478	34.52
2.78145	34.52
2.79812	34.52
2.81478	34.52
2.83145	34.52
2.84812	34.52
2.86478	34.52
2.88145	34.52
2.89812	34.52
2.91478	34.52
2.93145	34.52
2.94812	34.52
2.96478	34.52
2.98145	34.52
2.99812	34.52
3.01478	34.52
3.03145	34.52
3.04812	34.52
3.06478	34.52
3.08145	34.52
3.09812	34.52
3.11478	34.52
3.13145	34.52
3.14812	34.52
3.16478	34.51
3.18145	34.52
3.19812	34.52
3.21478	34.52
3.23145	34.52
3.24812	34.52
3.26478	34.52
3.28145	34.52
3.29812	34.52
3.31478	34.52
3.33145	34.52
3.34812	34.52
3.36478	34.52
3.38145	34.52
3.39812	34.52
3.41478	34.52
3.43145	34.52
3.44812	34.52
3.46478	34.52
3.48145	34.52
3.49812	34.52
3.51478	34.52
3.53145	34.52
3.54812	34.51
3.56478	34.52
3.58145	34.52
3.59812	34.52
3.61478	34.52
3.63145	34.52
3.64812	34.52
3.66478	34.52
3.68145	34.52
3.69812	34.52
3.71478	34.52
3.73145	34.52
3.74812	34.52
3.76478	34.52
3.78145	34.52
3.79812	34.52
3.81478	34.51
3.83145	34.51
3.84812	34.52
3.86478	34.52
3.88145	34.52
3.89812	34.52
3.91478	34.52
3.93145	34.52
3.94812	34.52
3.96478	34.52
3.98145	34.52

[Status Trace (Column Flow)]
Interval(msec)	1000
# of Points	239
Start Time(min)	0.015
End Time(min)	3.981
Intensity Units	
Intensity Multiplier	1
R.Time (min)	Intensity
0.01478	5.44
0.03145	5.25
0.04812	5.54
0.06478	5.75
0.08145	5.61
0.09812	5.53
0.11478	5.54
0.13145	5.54
0.14812	5.54
0.16478	5.54
0.18145	5.54
0.19812	5.54
0.21478	5.54
0.23145	5.54
0.24812	5.54
0.26478	5.54
0.28145	5.54
0.29812	5.54
0.31478	5.54
0.33145	5.54
0.34812	5.54
0.36478	5.54
0.38145	5.54
0.39812	5.54
0.41478	5.54
0.43145	5.54
0.44812	5.54
0.46478	5.54
0.48145	5.54
0.49812	5.54
0.51478	5.54
0.53145	5.54
0.54812	5.54
0.56478	5.54
0.58145	5.54
0.59812	5.54
0.61478	5.54
0.63145	5.54
0.64812	5.54
0.66478	5.54
0.68145	5.54
0.69812	5.54
0.71478	5.54
0.73145	5.54
0.74812	5.54
0.76478	5.54
0.78145	5.54
0.79812	5.54
0.81478	5.54
0.83145	5.54
0.84812	5.54
0.86478	5.54
0.88145	5.54
0.89812	5.54
0.91478	5.54
0.93145	5.54
0.94812	5.54
0.96478	5.54
0.98145	5.54
0.99812	5.54
1.01478	5.54
1.03145	5.54
1.04812	5.54
1.06478	5.54
1.08145	5.54
1.09812	5.54
1.11478	5.54
1.13145	5.54
1.14812	5.54
1.16478	5.54
1.18145	5.54
1.19812	5.54
1.21478	5.54
1.23145	5.54
1.24812	5.54
1.26478	5.54
1.28145	5.54
1.29812	5.54
1.31478	5.54
1.33145	5.54
1.34812	5.54
1.36478	5.54
1.38145	5.54
1.39812	5.54
1.41478	5.54
1.43145	5.54
1.44812	5.54
1.46478	5.54
1.48145	5.54
1.49812	5.54
1.51478	5.54
1.53145	5.54
1.54812	5.54
1.56478	5.54
1.58145	5.54
1.59812	5.54
1.61478	5.53
1.63145	5.53
1.64812	5.52
1.66478	5.51
1.68145	5.50
1.69812	5.49
1.71478	5.48
1.73145	5.47
1.74812	5.46
1.76478	5.45
1.78145	5.44
1.79812	5.43
1.81478	5.42
1.83145	5.41
1.84812	5.40
1.86478	5.39
1.88145	5.38
1.89812	5.37
1.91478	5.36
1.93145	5.35
1.94812	5.34
1.96478	5.33
1.98145	5.32
1.99812	5.31
2.01478	5.30
2.03145	5.29
2.04812	5.28
2.06478	5.27
2.08145	5.26
2.09812	5.25
2.11478	5.24
2.13145	5.23
2.14812	5.22
2.16478	5.21
2.18145	5.20
2.19812	5.20
2.21478	5.19
2.23145	5.18
2.24812	5.17
2.26478	5.16
2.28145	5.15
2.29812	5.14
2.31478	5.13
2.33145	5.12
2.34812	5.11
2.36478	5.10
2.38145	5.10
2.39812	5.10
2.41478	5.10
2.43145	5.10
2.44812	5.10
2.46478	5.10
2.48145	5.10
2.49812	5.10
2.51478	5.10
2.53145	5.10
2.54812	5.10
2.56478	5.10
2.58145	5.10
2.59812	5.10
2.61478	5.10
2.63145	5.10
2.64812	5.10
2.66478	5.10
2.68145	5.10
2.69812	5.10
2.71478	5.10
2.73145	5.10
2.74812	5.10
2.76478	5.10
2.78145	5.10
2.79812	5.10
2.81478	5.10
2.83145	5.10
2.84812	5.10
2.86478	5.10
2.88145	5.10
2.89812	5.09
2.91478	5.09
2.93145	5.09
2.94812	5.09
2.96478	5.09
2.98145	5.09
2.99812	5.09
3.01478	5.09
3.03145	5.09
3.04812	5.09
3.06478	5.09
3.08145	5.09
3.09812	5.09
3.11478	5.09
3.13145	5.09
3.14812	5.09
3.16478	5.09
3.18145	5.09
3.19812	5.09
3.21478	5.09
3.23145	5.09
3.24812	5.09
3.26478	5.09
3.28145	5.09
3.29812	5.09
3.31478	5.09
3.33145	5.09
3.34812	5.09
3.36478	5.09
3.38145	5.09
3.39812	5.09
3.41478	5.09
3.43145	5.09
3.44812	5.09
3.46478	5.09
3.48145	5.09
3.49812	5.09
3.51478	5.09
3.53145	5.09
3.54812	5.09
3.56478	5.09
3.58145	5.09
3.59812	5.09
3.61478	5.09
3.63145	5.09
3.64812	5.09
3.66478	5.09
3.68145	5.09
3.69812	5.09
3.71478	5.09
3.73145	5.09
3.74812	5.09
3.76478	5.09
3.78145	5.09
3.79812	5.09
3.81478	5.09
3.83145	5.09
3.84812	5.09
3.86478	5.09
3.88145	5.09
3.89812	5.09
3.91478	5.09
3.93145	5.09
3.94812	5.09
3.96478	5.09
3.98145	5.09

[Status Trace (Linear Velocity)]
Interval(msec)	1000
# of Points	239
Start Time(min)	0.015
End Time(min)	3.981
Intensity Units	
Intensity Multiplier	1
R.Time (min)	Intensity
0.01478	38.50
0.03145	37.39
0.04812	39.03
0.06478	40.24
0.08145	39.44
0.09812	39.00
0.11478	39.01
0.13145	39.02
0.14812	39.02
0.16478	39.02
0.18145	39.02
0.19812	39.02
0.21478	39.02
0.23145	39.02
0.24812	39.02
0.26478	39.02
0.28145	39.02
0.29812	39.02
0.31478	39.02
0.33145	39.02
0.34812	39.02
0.36478	39.02
0.38145	39.02
0.39812	39.02
0.41478	39.02
0.43145	39.02
0.44812	39.02
0.46478	39.02
0.48145	39.02
0.49812	39.02
0.51478	39.02
0.53145	39.02
0.54812	39.02
0.56478	39.02
0.58145	39.02
0.59812	39.02
0.61478	39.02
0.63145	39.02
0.64812	39.02
0.66478	39.02
0.68145	39.02
0.69812	39.02
0.71478	39.02
0.73145	39.02
0.74812	39.02
0.76478	39.02
0.78145	39.02
0.79812	39.02
0.81478	39.02
0.83145	39.02
0.84812	39.02
0.86478	39.02
0.88145	39.02
0.89812	39.02
0.91478	39.02
0.93145	39.02
0.94812	39.02
0.96478	39.02
0.98145	39.02
0.99812	39.02
1.01478	39.02
1.03145	39.02
1.04812	39.02
1.06478	39.02
1.08145	39.02
1.09812	39.02
1.11478	39.02
1.13145	39.02
1.14812	39.02
1.16478	39.02
1.18145	39.02
1.19812	39.02
1.21478	39.02
1.23145	39.02
1.24812	39.02
1.26478	39.02
1.28145	39.02
1.29812	39.02
1.31478	39.02
1.33145	39.02
1.34812	39.02
1.36478	39.02
1.38145	39.02
1.39812	39.02
1.41478	39.02
1.43145	39.02
1.44812	39.02
1.46478	39.02
1.48145	39.02
1.49812	39.02
1.51478	39.02
1.53145	39.02
1.54812	39.02
1.56478	39.02
1.58145	39.02
1.59812	39.02
1.61478	39.01
1.63145	39.00
1.64812	38.98
1.66478	38.95
1.68145	38.92
1.69812	38.88
1.71478	38.84
1.73145	38.81
1.74812	38.78
1.76478	38.75
1.78145	38.72
1.79812	38.69
1.81478	38.66
1.83145	38.63
1.84812	38.60
1.86478	38.56
1.88145	38.53
1.89812	38.50
1.91478	38.47
1.93145	38.44
1.94812	38.41
1.96478	38.38
1.98145	38.35
1.99812	38.32
2.01478	38.29
2.03145	38.26
2.04812	38.23
2.06478	38.20
2.08145	38.17
2.09812	38.14
2.11478	38.11
2.13145	38.08
2.14812	38.05
2.16478	38.02
2.18145	37.99
2.19812	37.96
2.21478	37.93
2.23145	37.90
2.24812	37.87
2.26478	37.85
2.28145	37.82
2.29812	37.79
2.31478	37.76
2.33145	37.73
2.34812	37.70
2.36478	37.67
2.38145	37.66
2.39812	37.65
2.41478	37.66
2.43145	37.66
2.44812	37.66
2.46478	37.66
2.48145	37.66
2.49812	37.65
2.51478	37.65
2.53145	37.65
2.54812	37.65
2.56478	37.65
2.58145	37.65
2.59812	37.65
2.61478	37.65
2.63145	37.65
2.64812	37.65
2.66478	37.65
2.68145	37.65
2.69812	37.65
2.71478	37.65
2.73145	37.65
2.74812	37.65
2.76478	37.65
2.78145	37.65
2.79812	37.65
2.81478	37.65
2.83145	37.65
2.84812	37.65
2.86478	37.64
2.88145	37.64
2.89812	37.64
2.91478	37.64
2.93145	37.64
2.94812	37.64
2.96478	37.64
2.98145	37.64
2.99812	37.64
3.01478	37.64
3.03145	37.64
3.04812	37.64
3.06478	37.64
3.08145	37.63
3.09812	37.63
3.11478	37.64
3.13145	37.63
3.14812	37.63
3.16478	37.63
3.18145	37.63
3.19812	37.63
3.21478	37.63
3.23145	37.63
3.24812	37.63
3.26478	37.63
3.28145	37.63
3.29812	37.63
3.31478	37.63
3.33145	37.63
3.34812	37.63
3.36478	37.63
3.38145	37.63
3.39812	37.63
3.41478	37.63
3.43145	37.64
3.44812	37.63
3.46478	37.63
3.48145	37.63
3.49812	37.63
3.51478	37.63
3.53145	37.63
3.54812	37.63
3.56478	37.63
3.58145	37.63
3.59812	37.63
3.61478	37.63
3.63145	37.63
3.64812	37.63
3.66478	37.63
3.68145	37.63
3.69812	37.63
3.71478	37.63
3.73145	37.63
3.74812	37.63
3.76478	37.63
3.78145	37.63
3.79812	37.63
3.81478	37.63
3.83145	37.63
3.84812	37.63
3.86478	37.63
3.88145	37.63
3.89812	37.63
3.91478	37.63
3.93145	37.63
3.94812	37.63
3.96478	37.63
3.98145	37.63

