[Header]
Application Name	LabSolutions
Version	5.110
Data File Name	C:\Users\User\Desktop\GC Analyses\Jack\Nachusa Grasslands Sampling\T3 Timepoint July 12th\T3_07122022_014.gcd
Output Date	3/14/2023
Output Time	3:43:30 PM

[File Information]
Type	Data File
Generated	3/13/2023 3:56:18 PM
Generated by	System Administrator
Modified	3/13/2023 4:02:54 PM
Modified by	System Administrator

[Sample Information]
Operator Name	System Administrator
Acquired	3/13/2023 3:58:53 PM
Sample Type	0:Unknown
Level	0
Sample Name	014
Sample ID	014
ISTD Amount1	1
ISTD Amount2	1
ISTD Amount3	1
ISTD Amount4	1
ISTD Amount5	1
ISTD Amount6	1
ISTD Amount7	1
ISTD Amount8	1
ISTD Amount9	1
ISTD Amount10	1
ISTD Amount11	1
ISTD Amount12	1
ISTD Amount13	1
ISTD Amount14	1
ISTD Amount15	1
ISTD Amount16	1
ISTD Amount17	1
ISTD Amount18	1
ISTD Amount19	1
ISTD Amount20	1
ISTD Amount21	1
ISTD Amount22	1
ISTD Amount23	1
ISTD Amount24	1
ISTD Amount25	1
ISTD Amount26	1
ISTD Amount27	1
ISTD Amount28	1
ISTD Amount29	1
ISTD Amount30	1
ISTD Amount31	1
ISTD Amount32	1
Sample Amount	1
Dilution Factor	1
Vial#	13
Injection Volume	1
Injection Count	1
Bar Code	

[Original Files]
Data File	C:\Users\User\Desktop\GC Analyses\Jack\Nachusa Grasslands Sampling\T3 Timepoint July 12th\T3_07122022_014.gcd
Method File	C:\LabSolutions\Data\GHG_4min_2022\ghg3_togas_w_acet_4 min_new_int.gcm
Batch File	C:\LabSolutions\Data\AutoSamplerTesting\T3_07122022.gcb
Report Format File	c:\LabSolutions\System\DEFAULT.lsr

[File Description]


[Configuration]
Instrument Name	C0B7VH3-Instrument1
Instrument #	1
Line #	1
# of Detectors	3
Detector ID	DET#1	DET#2	DET#3
Detector Name	FID	PTCD	ECD
# of Channels	1	1	1

[Peak Table(Ch1)]
# of Peaks	3
Peak#	R.Time	I.Time	F.Time	Area	Height	A/H	Conc.	Mark	ID#	Name	k'	Plate #	Plate Ht.	Tailing	Resolution	Sep.Factor	Area Ratio	Height Ratio	Conc. %	Norm Conc.
1	1.476	1.333	1.534	27256	12975	2.101	192.431	   	1	CO	0.000	9374	16.002	1.190	0.000	0.000	0	0	25.998	25.998
2	1.571	1.538	1.637	3953	2006	1.971	76.440	   	2	CH4	0.065	11732	12.786	1.215	1.602	0.000	0	0	10.327	10.327
3	2.000	1.949	2.315	1877924	909207	2.065	471.308	   	3	CO2	0.355	17689	8.480	1.183	7.261	5.500	0	0	63.675	63.675

[Peak Table(Ch2)]
# of Peaks	0

[Peak Table(Ch3)]
# of Peaks	5
Peak#	R.Time	I.Time	F.Time	Area	Height	A/H	Conc.	Mark	ID#	Name	k'	Plate #	Plate Ht.	Tailing	Resolution	Sep.Factor	Area Ratio	Height Ratio	Conc. %	Norm Conc.
1	2.462	2.326	2.510	1556	499	3.117	0.000	   			0.000	10368	14.468	0.000	0.000	0.000	0	0	0.000	0.000
2	2.524	2.510	2.579	838	291	2.882	0.000	 V 			0.025	5202	28.836	0.000	0.527	0.000	0	0	0.000	0.000
3	2.605	2.579	2.671	472	141	3.354	0.000	 V 			0.058	2332	64.327	0.000	0.453	2.294	0	0	0.000	0.000
4	2.880	2.700	3.071	18167	4754	3.821	0.464	   	1	N2O	0.170	13355	11.231	1.491	1.743	2.923	0	0	100.000	100.000
5	3.357	3.210	3.965	17776	711	24.999	0.000	   	2	SF6	0.363	310	483.490	2.501	1.106	2.140	0	0	0.000	0.000

[Compound Results(Ch1)]
# of IDs	6
ID#	Name	R.Time	Area	Height	Conc.	Curve	3rd	2nd	1st	Constant	Area Ratio	Height Ratio	Conc. %	Norm Conc.
1	CO	1.476	27256	12975	192.431	Linear	0.000000e+00	0.000000e+00	1.416423e+002	0.000000e+00	0	0	25.998	25.998
2	CH4	1.571	3953	2006	76.440	Linear	0.000000e+00	0.000000e+00	5.171738e+001	0.000000e+00	0	0	10.327	10.327
3	CO2	2.000	1877924	909207	471.308	Linear	0.000000e+00	0.000000e+00	3.984494e+003	0.000000e+00	0	0	63.675	63.675
4	Ethylene	0.000	0	0	0.000	Linear	0.000000e+00	0.000000e+00	0.000000e+00	0.000000e+00	0	0	0.000	0.000
5	Acetylene	0.000	0	0	0.000	Linear	0.000000e+00	0.000000e+00	0.000000e+00	0.000000e+00	0	0	0.000	0.000
6	Ethane	0.000	0	0	0.000	Linear	0.000000e+00	0.000000e+00	0.000000e+00	0.000000e+00	0	0	0.000	0.000

[Compound Results(Ch2)]
# of IDs	5
ID#	Name	R.Time	Area	Height	Conc.	Curve	3rd	2nd	1st	Constant	Area Ratio	Height Ratio	Conc. %	Norm Conc.
1	Hydrogen	0.000	0	0	0.000	Linear	0.000000e+00	0.000000e+00	0.000000e+00	0.000000e+00	0	0	0.000	0.000
2	Oxygen	0.000	0	0	0.000	Linear	0.000000e+00	0.000000e+00	0.000000e+00	0.000000e+00	0	0	0.000	0.000
3	Nitrogen	0.000	0	0	0.000	Linear	0.000000e+00	0.000000e+00	0.000000e+00	0.000000e+00	0	0	0.000	0.000
4	Methane	0.000	0	0	0.000	Linear	0.000000e+00	0.000000e+00	0.000000e+00	0.000000e+00	0	0	0.000	0.000
5	Carbon Monoxide	0.000	0	0	0.000	Linear	0.000000e+00	0.000000e+00	0.000000e+00	0.000000e+00	0	0	0.000	0.000

[Compound Results(Ch3)]
# of IDs	2
ID#	Name	R.Time	Area	Height	Conc.	Curve	3rd	2nd	1st	Constant	Area Ratio	Height Ratio	Conc. %	Norm Conc.
1	N2O	2.880	18167	4754	0.464	Linear	0.000000e+00	0.000000e+00	3.915173e+004	0.000000e+00	0	0	100.000	100.000
2	SF6	3.357	17776	711	0.000	Linear	0.000000e+00	0.000000e+00	0.000000e+00	0.000000e+00	0	0	0.000	0.000

[Group Results(Ch1)]
# of Groups	0

[Group Results(Ch2)]
# of Groups	0

[Group Results(Ch3)]
# of Groups	0

[Chromatogram (Ch1)]
Interval(msec)	220
# of Points	1091
Start Time(min)	0.002
End Time(min)	3.998
R.Time (min)	Intensity
0.00167	-1
0.00533	-1
0.00900	0
0.01267	3
0.01633	6
0.02000	6
0.02367	-1
0.02733	-9
0.03100	-18
0.03467	-29
0.03833	-27
0.04200	-23
0.04567	-19
0.04933	-17
0.05300	-13
0.05667	-11
0.06033	-13
0.06400	-23
0.06767	-32
0.07133	-34
0.07500	-27
0.07867	-22
0.08233	-20
0.08600	-16
0.08967	-10
0.09333	-3
0.09700	6
0.10067	13
0.10433	13
0.10800	5
0.11167	-3
0.11533	-8
0.11900	-10
0.12267	-13
0.12633	-15
0.13000	-16
0.13367	-15
0.13733	-14
0.14100	-11
0.14467	-6
0.14833	-1
0.15200	3
0.15567	9
0.15933	11
0.16300	11
0.16667	8
0.17033	3
0.17400	-5
0.17767	-13
0.18133	-16
0.18500	-16
0.18867	-10
0.19233	-6
0.19600	-4
0.19967	-3
0.20333	-3
0.20700	-5
0.21067	-9
0.21433	-15
0.21800	-20
0.22167	-18
0.22533	-13
0.22900	-15
0.23267	-19
0.23633	-19
0.24000	-18
0.24367	-17
0.24733	-14
0.25100	-11
0.25467	-8
0.25833	5
0.26200	23
0.26567	38
0.26933	41
0.27300	31
0.27667	18
0.28033	12
0.28400	10
0.28767	12
0.29133	16
0.29500	19
0.29867	13
0.30233	3
0.30600	-3
0.30967	-5
0.31333	-1
0.31700	10
0.32067	20
0.32433	23
0.32800	25
0.33167	27
0.33533	32
0.33900	36
0.34267	39
0.34633	47
0.35000	55
0.35367	50
0.35733	48
0.36100	45
0.36467	42
0.36833	42
0.37200	45
0.37567	50
0.37933	52
0.38300	52
0.38667	54
0.39033	55
0.39400	56
0.39767	58
0.40133	58
0.40500	55
0.40867	49
0.41233	47
0.41600	50
0.41967	53
0.42333	53
0.42700	53
0.43067	49
0.43433	39
0.43800	26
0.44167	18
0.44533	18
0.44900	21
0.45267	18
0.45633	12
0.46000	5
0.46367	-2
0.46733	-3
0.47100	-4
0.47467	0
0.47833	6
0.48200	8
0.48567	7
0.48933	7
0.49300	5
0.49667	0
0.50033	-5
0.50400	-4
0.50767	-0
0.51133	3
0.51500	1
0.51867	-0
0.52233	2
0.52600	5
0.52967	5
0.53333	-5
0.53700	-19
0.54067	-27
0.54433	-23
0.54800	-15
0.55167	-9
0.55533	-6
0.55900	-9
0.56267	-14
0.56633	-19
0.57000	-21
0.57367	-19
0.57733	-15
0.58100	-13
0.58467	-8
0.58833	-7
0.59200	-7
0.59567	-9
0.59933	-19
0.60300	-27
0.60667	-28
0.61033	-27
0.61400	-26
0.61767	-24
0.62133	-23
0.62500	-21
0.62867	-17
0.63233	-10
0.63600	-7
0.63967	-11
0.64333	-16
0.64700	-22
0.65067	-26
0.65433	-25
0.65800	-27
0.66167	-29
0.66533	-31
0.66900	-29
0.67267	-26
0.67633	-22
0.68000	-19
0.68367	-20
0.68733	-23
0.69100	-32
0.69467	-42
0.69833	-41
0.70200	-35
0.70567	-26
0.70933	-22
0.71300	-23
0.71667	-26
0.72033	-30
0.72400	-33
0.72767	-35
0.73133	-33
0.73500	-33
0.73867	-36
0.74233	-35
0.74600	-27
0.74967	-18
0.75333	-13
0.75700	-17
0.76067	-21
0.76433	-23
0.76800	-26
0.77167	-24
0.77533	-21
0.77900	-21
0.78267	-26
0.78633	-27
0.79000	-25
0.79367	-25
0.79733	-27
0.80100	-33
0.80467	-43
0.80833	-53
0.81200	-61
0.81567	-66
0.81933	-64
0.82300	-56
0.82667	-42
0.83033	-28
0.83400	-20
0.83767	-22
0.84133	-27
0.84500	-28
0.84867	-24
0.85233	-17
0.85600	-12
0.85967	-13
0.86333	-17
0.86700	-21
0.87067	-29
0.87433	-35
0.87800	-41
0.88167	-44
0.88533	-44
0.88900	-43
0.89267	-36
0.89633	-33
0.90000	-34
0.90367	-37
0.90733	-40
0.91100	-42
0.91467	-44
0.91833	-47
0.92200	-50
0.92567	-53
0.92933	-54
0.93300	-53
0.93667	-54
0.94033	-51
0.94400	-49
0.94767	-47
0.95133	-43
0.95500	-39
0.95867	-31
0.96233	-26
0.96600	-25
0.96967	-30
0.97333	-29
0.97700	-24
0.98067	-21
0.98433	-23
0.98800	-27
0.99167	-34
0.99533	-45
0.99900	-54
1.00267	-58
1.00633	-53
1.01000	-46
1.01367	-43
1.01733	-46
1.02100	-50
1.02467	-47
1.02833	-43
1.03200	-41
1.03567	-42
1.03933	-45
1.04300	-53
1.04667	-59
1.05033	-63
1.05400	-67
1.05767	-70
1.06133	-73
1.06500	-76
1.06867	-73
1.07233	-71
1.07600	-66
1.07967	-58
1.08333	-49
1.08700	-46
1.09067	-51
1.09433	-59
1.09800	-65
1.10167	-71
1.10533	-72
1.10900	-72
1.11267	-73
1.11633	-72
1.12000	-72
1.12367	-70
1.12733	-65
1.13100	-63
1.13467	-62
1.13833	-65
1.14200	-71
1.14567	-75
1.14933	-75
1.15300	-71
1.15667	-66
1.16033	-62
1.16400	-59
1.16767	-59
1.17133	-56
1.17500	-56
1.17867	-61
1.18233	-63
1.18600	-62
1.18967	-62
1.19333	-64
1.19700	-67
1.20067	-67
1.20433	-61
1.20800	-54
1.21167	-48
1.21533	-48
1.21900	-55
1.22267	-67
1.22633	-74
1.23000	-79
1.23367	-75
1.23733	-69
1.24100	-68
1.24467	-70
1.24833	-73
1.25200	-77
1.25567	-76
1.25933	-71
1.26300	-65
1.26667	-58
1.27033	-54
1.27400	-52
1.27767	-51
1.28133	-53
1.28500	-53
1.28867	-47
1.29233	-40
1.29600	-39
1.29967	-46
1.30333	-54
1.30700	-61
1.31067	-66
1.31433	-66
1.31800	-62
1.32167	-62
1.32533	-62
1.32900	-62
1.33267	-62
1.33633	-60
1.34000	-60
1.34367	-57
1.34733	-48
1.35100	-39
1.35467	-37
1.35833	-41
1.36200	-45
1.36567	-46
1.36933	-46
1.37300	-50
1.37667	-58
1.38033	-62
1.38400	-58
1.38767	-51
1.39133	-49
1.39500	-47
1.39867	-47
1.40233	-46
1.40600	-44
1.40967	-42
1.41333	-41
1.41700	-42
1.42067	-46
1.42433	-48
1.42800	-44
1.43167	-38
1.43533	-31
1.43900	-22
1.44267	14
1.44633	196
1.45000	756
1.45367	1941
1.45733	3911
1.46100	6367
1.46467	8763
1.46833	10718
1.47200	12064
1.47567	12700
1.47933	12509
1.48300	11466
1.48667	9760
1.49033	7733
1.49400	5744
1.49767	4034
1.50133	2691
1.50500	1693
1.50867	982
1.51233	487
1.51600	150
1.51967	-71
1.52333	-204
1.52700	-284
1.53067	-334
1.53433	-362
1.53800	-371
1.54167	-337
1.54533	-212
1.54900	45
1.55267	410
1.55633	812
1.56000	1178
1.56367	1460
1.56733	1637
1.57100	1680
1.57467	1568
1.57833	1325
1.58200	1007
1.58567	687
1.58933	414
1.59300	205
1.59667	56
1.60033	-46
1.60400	-112
1.60767	-156
1.61133	-184
1.61500	-205
1.61867	-218
1.62233	-226
1.62600	-231
1.62967	-233
1.63333	-234
1.63700	-236
1.64067	-233
1.64433	-230
1.64800	-230
1.65167	-228
1.65533	-224
1.65900	-218
1.66267	-215
1.66633	-214
1.67000	-216
1.67367	-218
1.67733	-217
1.68100	-215
1.68467	-210
1.68833	-206
1.69200	-205
1.69567	-205
1.69933	-208
1.70300	-206
1.70667	-201
1.71033	-196
1.71400	-196
1.71767	-198
1.72133	-199
1.72500	-201
1.72867	-196
1.73233	-189
1.73600	-187
1.73967	-186
1.74333	-181
1.74700	-179
1.75067	-180
1.75433	-182
1.75800	-185
1.76167	-187
1.76533	-184
1.76900	-184
1.77267	-188
1.77633	-191
1.78000	-187
1.78367	-180
1.78733	-173
1.79100	-169
1.79467	-166
1.79833	-165
1.80200	-166
1.80567	-166
1.80933	-166
1.81300	-169
1.81667	-171
1.82033	-170
1.82400	-167
1.82767	-162
1.83133	-157
1.83500	-153
1.83867	-157
1.84233	-160
1.84600	-159
1.84967	-154
1.85333	-149
1.85700	-148
1.86067	-154
1.86433	-164
1.86800	-175
1.87167	-182
1.87533	-185
1.87900	-184
1.88267	-177
1.88633	-176
1.89000	-177
1.89367	-180
1.89733	-182
1.90100	-180
1.90467	-180
1.90833	-179
1.91200	-181
1.91567	-185
1.91933	-190
1.92300	-195
1.92667	-202
1.93033	-205
1.93400	-203
1.93767	-199
1.94133	-201
1.94500	-203
1.94867	-200
1.95233	-185
1.95600	-107
1.95967	346
1.96333	2607
1.96700	11371
1.97067	37440
1.97433	97292
1.97800	204321
1.98167	355847
1.98533	529977
1.98900	695847
1.99267	825547
1.99633	899779
2.00000	909048
2.00367	854828
2.00733	750817
2.01100	619141
2.01467	482990
2.01833	359892
2.02200	258858
2.02567	181598
2.02933	125440
2.03300	86040
2.03667	59041
2.04033	40803
2.04400	28571
2.04767	20369
2.05133	14841
2.05500	11085
2.05867	8492
2.06233	6668
2.06600	5360
2.06967	4407
2.07333	3692
2.07700	3137
2.08067	2704
2.08433	2360
2.08800	2087
2.09167	1869
2.09533	1688
2.09900	1534
2.10267	1396
2.10633	1274
2.11000	1170
2.11367	1077
2.11733	993
2.12100	918
2.12467	853
2.12833	799
2.13200	745
2.13567	699
2.13933	658
2.14300	625
2.14667	600
2.15033	579
2.15400	554
2.15767	524
2.16133	493
2.16500	466
2.16867	443
2.17233	424
2.17600	405
2.17967	383
2.18333	365
2.18700	354
2.19067	340
2.19433	323
2.19800	303
2.20167	292
2.20533	283
2.20900	272
2.21267	260
2.21633	244
2.22000	232
2.22367	227
2.22733	228
2.23100	229
2.23467	222
2.23833	210
2.24200	199
2.24567	188
2.24933	179
2.25300	170
2.25667	159
2.26033	150
2.26400	144
2.26767	139
2.27133	136
2.27500	136
2.27867	135
2.28233	132
2.28600	129
2.28967	125
2.29333	122
2.29700	118
2.30067	114
2.30433	109
2.30800	102
2.31167	94
2.31533	92
2.31900	94
2.32267	96
2.32633	98
2.33000	94
2.33367	85
2.33733	81
2.34100	81
2.34467	85
2.34833	91
2.35200	96
2.35567	96
2.35933	93
2.36300	91
2.36667	89
2.37033	84
2.37400	78
2.37767	75
2.38133	73
2.38500	69
2.38867	66
2.39233	66
2.39600	63
2.39967	58
2.40333	56
2.40700	60
2.41067	64
2.41433	60
2.41800	49
2.42167	39
2.42533	34
2.42900	32
2.43267	25
2.43633	20
2.44000	22
2.44367	26
2.44733	30
2.45100	37
2.45467	44
2.45833	44
2.46200	43
2.46567	44
2.46933	49
2.47300	52
2.47667	51
2.48033	49
2.48400	45
2.48767	41
2.49133	32
2.49500	25
2.49867	24
2.50233	24
2.50600	28
2.50967	41
2.51333	56
2.51700	65
2.52067	63
2.52433	56
2.52800	50
2.53167	40
2.53533	28
2.53900	18
2.54267	14
2.54633	15
2.55000	22
2.55367	29
2.55733	31
2.56100	30
2.56467	27
2.56833	25
2.57200	26
2.57567	28
2.57933	28
2.58300	24
2.58667	20
2.59033	14
2.59400	6
2.59767	-6
2.60133	-15
2.60500	-15
2.60867	-6
2.61233	9
2.61600	26
2.61967	34
2.62333	34
2.62700	32
2.63067	26
2.63433	20
2.63800	17
2.64167	20
2.64533	23
2.64900	22
2.65267	20
2.65633	20
2.66000	26
2.66367	33
2.66733	41
2.67100	47
2.67467	53
2.67833	54
2.68200	48
2.68567	38
2.68933	25
2.69300	16
2.69667	13
2.70033	9
2.70400	4
2.70767	2
2.71133	2
2.71500	5
2.71867	11
2.72233	17
2.72600	27
2.72967	35
2.73333	39
2.73700	41
2.74067	44
2.74433	46
2.74800	47
2.75167	50
2.75533	56
2.75900	57
2.76267	55
2.76633	55
2.77000	52
2.77367	42
2.77733	37
2.78100	34
2.78467	29
2.78833	25
2.79200	24
2.79567	26
2.79933	32
2.80300	36
2.80667	37
2.81033	34
2.81400	32
2.81767	34
2.82133	36
2.82500	37
2.82867	36
2.83233	31
2.83600	28
2.83967	30
2.84333	33
2.84700	34
2.85067	39
2.85433	43
2.85800	44
2.86167	48
2.86533	53
2.86900	52
2.87267	47
2.87633	44
2.88000	43
2.88367	48
2.88733	52
2.89100	51
2.89467	48
2.89833	41
2.90200	37
2.90567	34
2.90933	33
2.91300	31
2.91667	32
2.92033	40
2.92400	50
2.92767	54
2.93133	49
2.93500	39
2.93867	30
2.94233	26
2.94600	29
2.94967	37
2.95333	44
2.95700	46
2.96067	43
2.96433	38
2.96800	38
2.97167	37
2.97533	31
2.97900	29
2.98267	31
2.98633	35
2.99000	43
2.99367	53
2.99733	60
3.00100	69
3.00467	71
3.00833	65
3.01200	61
3.01567	57
3.01933	51
3.02300	45
3.02667	42
3.03033	42
3.03400	43
3.03767	41
3.04133	38
3.04500	36
3.04867	36
3.05233	41
3.05600	49
3.05967	58
3.06333	64
3.06700	67
3.07067	68
3.07433	67
3.07800	61
3.08167	56
3.08533	53
3.08900	50
3.09267	45
3.09633	43
3.10000	44
3.10367	47
3.10733	44
3.11100	39
3.11467	34
3.11833	32
3.12200	31
3.12567	33
3.12933	35
3.13300	33
3.13667	32
3.14033	33
3.14400	32
3.14767	34
3.15133	38
3.15500	40
3.15867	41
3.16233	38
3.16600	37
3.16967	37
3.17333	38
3.17700	37
3.18067	33
3.18433	27
3.18800	25
3.19167	27
3.19533	32
3.19900	34
3.20267	33
3.20633	35
3.21000	42
3.21367	50
3.21733	54
3.22100	53
3.22467	45
3.22833	35
3.23200	28
3.23567	24
3.23933	19
3.24300	13
3.24667	11
3.25033	11
3.25400	12
3.25767	14
3.26133	19
3.26500	24
3.26867	31
3.27233	38
3.27600	42
3.27967	43
3.28333	43
3.28700	37
3.29067	28
3.29433	22
3.29800	17
3.30167	14
3.30533	15
3.30900	21
3.31267	29
3.31633	36
3.32000	40
3.32367	42
3.32733	38
3.33100	32
3.33467	28
3.33833	27
3.34200	34
3.34567	41
3.34933	42
3.35300	37
3.35667	31
3.36033	25
3.36400	21
3.36767	20
3.37133	23
3.37500	22
3.37867	19
3.38233	15
3.38600	12
3.38967	10
3.39333	7
3.39700	7
3.40067	12
3.40433	16
3.40800	16
3.41167	15
3.41533	13
3.41900	13
3.42267	15
3.42633	21
3.43000	28
3.43367	33
3.43733	36
3.44100	42
3.44467	45
3.44833	41
3.45200	36
3.45567	31
3.45933	28
3.46300	31
3.46667	39
3.47033	46
3.47400	44
3.47767	39
3.48133	35
3.48500	35
3.48867	40
3.49233	44
3.49600	44
3.49967	41
3.50333	32
3.50700	18
3.51067	3
3.51433	-8
3.51800	-17
3.52167	-18
3.52533	-17
3.52900	-11
3.53267	-1
3.53633	9
3.54000	16
3.54367	22
3.54733	25
3.55100	22
3.55467	12
3.55833	5
3.56200	4
3.56567	7
3.56933	11
3.57300	14
3.57667	12
3.58033	8
3.58400	7
3.58767	8
3.59133	12
3.59500	14
3.59867	13
3.60233	10
3.60600	13
3.60967	18
3.61333	24
3.61700	34
3.62067	39
3.62433	34
3.62800	27
3.63167	22
3.63533	16
3.63900	8
3.64267	1
3.64633	1
3.65000	5
3.65367	5
3.65733	1
3.66100	0
3.66467	4
3.66833	8
3.67200	8
3.67567	7
3.67933	6
3.68300	10
3.68667	11
3.69033	8
3.69400	4
3.69767	-3
3.70133	-5
3.70500	-5
3.70867	-9
3.71233	-8
3.71600	-2
3.71967	4
3.72333	4
3.72700	2
3.73067	1
3.73433	1
3.73800	2
3.74167	6
3.74533	11
3.74900	20
3.75267	29
3.75633	34
3.76000	31
3.76367	17
3.76733	6
3.77100	-3
3.77467	-7
3.77833	-7
3.78200	-6
3.78567	-8
3.78933	-9
3.79300	-9
3.79667	-10
3.80033	-12
3.80400	-13
3.80767	-6
3.81133	3
3.81500	3
3.81867	-9
3.82233	-23
3.82600	-23
3.82967	-14
3.83333	-8
3.83700	-3
3.84067	1
3.84433	2
3.84800	2
3.85167	-0
3.85533	-3
3.85900	-4
3.86267	-2
3.86633	2
3.87000	0
3.87367	-6
3.87733	-9
3.88100	-3
3.88467	10
3.88833	22
3.89200	26
3.89567	21
3.89933	10
3.90300	-3
3.90667	-12
3.91033	-16
3.91400	-18
3.91767	-17
3.92133	-15
3.92500	-14
3.92867	-14
3.93233	-16
3.93600	-17
3.93967	-16
3.94333	-16
3.94700	-14
3.95067	-15
3.95433	-17
3.95800	-13
3.96167	-8
3.96533	-8
3.96900	-9
3.97267	-10
3.97633	-8
3.98000	-6
3.98367	-5
3.98733	-1
3.99100	5
3.99467	6
3.99833	3

[Chromatogram (Ch2)]
Interval(msec)	220
# of Points	1091
Start Time(min)	0.002
End Time(min)	3.998
R.Time (min)	Intensity
0.00167	-0
0.00533	0
0.00900	1
0.01267	1
0.01633	2
0.02000	2
0.02367	2
0.02733	3
0.03100	3
0.03467	4
0.03833	4
0.04200	4
0.04567	5
0.04933	5
0.05300	5
0.05667	4
0.06033	4
0.06400	4
0.06767	4
0.07133	3
0.07500	3
0.07867	3
0.08233	3
0.08600	3
0.08967	3
0.09333	3
0.09700	3
0.10067	3
0.10433	3
0.10800	2
0.11167	2
0.11533	2
0.11900	2
0.12267	3
0.12633	3
0.13000	3
0.13367	3
0.13733	3
0.14100	3
0.14467	3
0.14833	3
0.15200	3
0.15567	3
0.15933	3
0.16300	3
0.16667	3
0.17033	3
0.17400	3
0.17767	3
0.18133	3
0.18500	3
0.18867	3
0.19233	3
0.19600	3
0.19967	3
0.20333	3
0.20700	3
0.21067	3
0.21433	3
0.21800	3
0.22167	3
0.22533	3
0.22900	3
0.23267	4
0.23633	4
0.24000	4
0.24367	3
0.24733	3
0.25100	2
0.25467	2
0.25833	2
0.26200	2
0.26567	1
0.26933	1
0.27300	1
0.27667	1
0.28033	1
0.28400	1
0.28767	1
0.29133	1
0.29500	1
0.29867	1
0.30233	1
0.30600	2
0.30967	2
0.31333	2
0.31700	2
0.32067	2
0.32433	2
0.32800	2
0.33167	2
0.33533	2
0.33900	3
0.34267	3
0.34633	3
0.35000	4
0.35367	4
0.35733	5
0.36100	5
0.36467	5
0.36833	5
0.37200	5
0.37567	5
0.37933	4
0.38300	4
0.38667	3
0.39033	3
0.39400	2
0.39767	2
0.40133	2
0.40500	2
0.40867	2
0.41233	2
0.41600	2
0.41967	2
0.42333	2
0.42700	2
0.43067	2
0.43433	2
0.43800	2
0.44167	2
0.44533	2
0.44900	2
0.45267	2
0.45633	1
0.46000	1
0.46367	1
0.46733	0
0.47100	0
0.47467	-0
0.47833	-0
0.48200	-0
0.48567	-0
0.48933	-0
0.49300	0
0.49667	0
0.50033	1
0.50400	1
0.50767	1
0.51133	2
0.51500	2
0.51867	2
0.52233	2
0.52600	2
0.52967	2
0.53333	2
0.53700	3
0.54067	3
0.54433	3
0.54800	3
0.55167	3
0.55533	3
0.55900	3
0.56267	3
0.56633	4
0.57000	4
0.57367	4
0.57733	4
0.58100	4
0.58467	4
0.58833	4
0.59200	4
0.59567	3
0.59933	3
0.60300	3
0.60667	3
0.61033	3
0.61400	3
0.61767	3
0.62133	3
0.62500	3
0.62867	3
0.63233	2
0.63600	2
0.63967	2
0.64333	2
0.64700	1
0.65067	1
0.65433	1
0.65800	1
0.66167	1
0.66533	1
0.66900	1
0.67267	1
0.67633	1
0.68000	2
0.68367	2
0.68733	2
0.69100	2
0.69467	3
0.69833	3
0.70200	2
0.70567	2
0.70933	2
0.71300	2
0.71667	2
0.72033	2
0.72400	1
0.72767	1
0.73133	1
0.73500	1
0.73867	1
0.74233	2
0.74600	2
0.74967	2
0.75333	2
0.75700	2
0.76067	2
0.76433	2
0.76800	2
0.77167	1
0.77533	1
0.77900	1
0.78267	1
0.78633	1
0.79000	1
0.79367	1
0.79733	1
0.80100	1
0.80467	1
0.80833	1
0.81200	1
0.81567	2
0.81933	2
0.82300	2
0.82667	2
0.83033	3
0.83400	3
0.83767	3
0.84133	3
0.84500	4
0.84867	4
0.85233	4
0.85600	4
0.85967	4
0.86333	3
0.86700	3
0.87067	3
0.87433	2
0.87800	2
0.88167	1
0.88533	1
0.88900	0
0.89267	0
0.89633	-0
0.90000	-0
0.90367	-0
0.90733	0
0.91100	0
0.91467	1
0.91833	1
0.92200	1
0.92567	1
0.92933	2
0.93300	2
0.93667	2
0.94033	2
0.94400	2
0.94767	2
0.95133	2
0.95500	2
0.95867	2
0.96233	1
0.96600	1
0.96967	1
0.97333	1
0.97700	1
0.98067	0
0.98433	-0
0.98800	-1
0.99167	-1
0.99533	-1
0.99900	-1
1.00267	-1
1.00633	-2
1.01000	-2
1.01367	-2
1.01733	-2
1.02100	-2
1.02467	-1
1.02833	-1
1.03200	-1
1.03567	-1
1.03933	-1
1.04300	-0
1.04667	-0
1.05033	0
1.05400	1
1.05767	1
1.06133	1
1.06500	1
1.06867	1
1.07233	0
1.07600	-0
1.07967	-0
1.08333	-1
1.08700	-1
1.09067	-1
1.09433	-1
1.09800	-0
1.10167	-0
1.10533	-0
1.10900	-0
1.11267	-0
1.11633	0
1.12000	0
1.12367	0
1.12733	1
1.13100	1
1.13467	1
1.13833	1
1.14200	1
1.14567	1
1.14933	1
1.15300	1
1.15667	1
1.16033	0
1.16400	0
1.16767	0
1.17133	1
1.17500	1
1.17867	1
1.18233	1
1.18600	1
1.18967	1
1.19333	2
1.19700	2
1.20067	2
1.20433	2
1.20800	2
1.21167	2
1.21533	2
1.21900	2
1.22267	2
1.22633	2
1.23000	2
1.23367	2
1.23733	2
1.24100	2
1.24467	2
1.24833	1
1.25200	1
1.25567	1
1.25933	1
1.26300	1
1.26667	0
1.27033	0
1.27400	0
1.27767	0
1.28133	-0
1.28500	0
1.28867	0
1.29233	0
1.29600	0
1.29967	0
1.30333	1
1.30700	1
1.31067	1
1.31433	1
1.31800	1
1.32167	1
1.32533	1
1.32900	1
1.33267	1
1.33633	1
1.34000	1
1.34367	1
1.34733	2
1.35100	2
1.35467	2
1.35833	2
1.36200	2
1.36567	2
1.36933	2
1.37300	1
1.37667	1
1.38033	1
1.38400	0
1.38767	-0
1.39133	-1
1.39500	-1
1.39867	-1
1.40233	-2
1.40600	-2
1.40967	-2
1.41333	-2
1.41700	-2
1.42067	-1
1.42433	-1
1.42800	-1
1.43167	-0
1.43533	-0
1.43900	-0
1.44267	0
1.44633	0
1.45000	1
1.45367	1
1.45733	1
1.46100	1
1.46467	1
1.46833	1
1.47200	2
1.47567	1
1.47933	1
1.48300	1
1.48667	1
1.49033	1
1.49400	1
1.49767	1
1.50133	1
1.50500	1
1.50867	1
1.51233	1
1.51600	1
1.51967	1
1.52333	0
1.52700	0
1.53067	0
1.53433	0
1.53800	0
1.54167	0
1.54533	0
1.54900	0
1.55267	0
1.55633	-0
1.56000	-0
1.56367	-0
1.56733	-1
1.57100	-0
1.57467	-0
1.57833	-0
1.58200	-0
1.58567	-1
1.58933	-1
1.59300	-1
1.59667	-1
1.60033	-2
1.60400	-3
1.60767	-4
1.61133	-5
1.61500	-7
1.61867	-9
1.62233	-12
1.62600	-14
1.62967	-17
1.63333	-21
1.63700	-24
1.64067	-28
1.64433	-31
1.64800	-35
1.65167	-39
1.65533	-43
1.65900	-47
1.66267	-51
1.66633	-56
1.67000	-61
1.67367	-66
1.67733	-71
1.68100	-76
1.68467	-80
1.68833	-84
1.69200	-87
1.69567	-91
1.69933	-93
1.70300	-95
1.70667	-97
1.71033	-99
1.71400	-100
1.71767	-101
1.72133	-102
1.72500	-102
1.72867	-103
1.73233	-104
1.73600	-105
1.73967	-105
1.74333	-106
1.74700	-107
1.75067	-107
1.75433	-108
1.75800	-108
1.76167	-108
1.76533	-107
1.76900	-107
1.77267	-106
1.77633	-106
1.78000	-105
1.78367	-105
1.78733	-105
1.79100	-106
1.79467	-106
1.79833	-107
1.80200	-108
1.80567	-109
1.80933	-110
1.81300	-110
1.81667	-110
1.82033	-110
1.82400	-110
1.82767	-110
1.83133	-110
1.83500	-110
1.83867	-110
1.84233	-109
1.84600	-109
1.84967	-110
1.85333	-110
1.85700	-110
1.86067	-111
1.86433	-111
1.86800	-111
1.87167	-110
1.87533	-110
1.87900	-110
1.88267	-110
1.88633	-111
1.89000	-111
1.89367	-112
1.89733	-112
1.90100	-111
1.90467	-111
1.90833	-110
1.91200	-109
1.91567	-108
1.91933	-107
1.92300	-106
1.92667	-105
1.93033	-105
1.93400	-105
1.93767	-105
1.94133	-105
1.94500	-106
1.94867	-106
1.95233	-107
1.95600	-107
1.95967	-107
1.96333	-107
1.96700	-107
1.97067	-107
1.97433	-106
1.97800	-106
1.98167	-106
1.98533	-105
1.98900	-104
1.99267	-103
1.99633	-102
2.00000	-101
2.00367	-101
2.00733	-101
2.01100	-101
2.01467	-101
2.01833	-100
2.02200	-100
2.02567	-99
2.02933	-99
2.03300	-99
2.03667	-99
2.04033	-99
2.04400	-100
2.04767	-100
2.05133	-100
2.05500	-100
2.05867	-100
2.06233	-100
2.06600	-100
2.06967	-100
2.07333	-99
2.07700	-99
2.08067	-98
2.08433	-98
2.08800	-98
2.09167	-97
2.09533	-96
2.09900	-96
2.10267	-95
2.10633	-95
2.11000	-94
2.11367	-94
2.11733	-94
2.12100	-93
2.12467	-93
2.12833	-93
2.13200	-93
2.13567	-93
2.13933	-93
2.14300	-92
2.14667	-92
2.15033	-92
2.15400	-92
2.15767	-92
2.16133	-92
2.16500	-93
2.16867	-93
2.17233	-93
2.17600	-93
2.17967	-92
2.18333	-91
2.18700	-91
2.19067	-90
2.19433	-89
2.19800	-89
2.20167	-89
2.20533	-88
2.20900	-88
2.21267	-88
2.21633	-88
2.22000	-88
2.22367	-88
2.22733	-88
2.23100	-87
2.23467	-87
2.23833	-86
2.24200	-85
2.24567	-84
2.24933	-84
2.25300	-83
2.25667	-81
2.26033	-80
2.26400	-80
2.26767	-79
2.27133	-79
2.27500	-79
2.27867	-79
2.28233	-80
2.28600	-80
2.28967	-80
2.29333	-80
2.29700	-80
2.30067	-80
2.30433	-80
2.30800	-79
2.31167	-79
2.31533	-78
2.31900	-77
2.32267	-77
2.32633	-77
2.33000	-77
2.33367	-78
2.33733	-78
2.34100	-78
2.34467	-78
2.34833	-77
2.35200	-76
2.35567	-74
2.35933	-72
2.36300	-71
2.36667	-68
2.37033	-66
2.37400	-62
2.37767	-59
2.38133	-55
2.38500	-51
2.38867	-46
2.39233	-42
2.39600	-37
2.39967	-33
2.40333	-28
2.40700	-24
2.41067	-21
2.41433	-17
2.41800	-15
2.42167	-13
2.42533	-11
2.42900	-10
2.43267	-9
2.43633	-7
2.44000	-6
2.44367	-5
2.44733	-5
2.45100	-4
2.45467	-3
2.45833	-3
2.46200	-2
2.46567	-1
2.46933	-0
2.47300	1
2.47667	1
2.48033	2
2.48400	3
2.48767	4
2.49133	5
2.49500	6
2.49867	7
2.50233	7
2.50600	8
2.50967	8
2.51333	9
2.51700	10
2.52067	10
2.52433	11
2.52800	12
2.53167	12
2.53533	13
2.53900	14
2.54267	14
2.54633	15
2.55000	15
2.55367	16
2.55733	17
2.56100	17
2.56467	18
2.56833	18
2.57200	18
2.57567	19
2.57933	19
2.58300	19
2.58667	19
2.59033	19
2.59400	18
2.59767	18
2.60133	18
2.60500	18
2.60867	18
2.61233	18
2.61600	18
2.61967	19
2.62333	19
2.62700	19
2.63067	19
2.63433	18
2.63800	18
2.64167	18
2.64533	18
2.64900	18
2.65267	19
2.65633	19
2.66000	20
2.66367	20
2.66733	21
2.67100	21
2.67467	22
2.67833	22
2.68200	23
2.68567	23
2.68933	24
2.69300	25
2.69667	25
2.70033	26
2.70400	26
2.70767	26
2.71133	27
2.71500	27
2.71867	27
2.72233	27
2.72600	27
2.72967	27
2.73333	28
2.73700	28
2.74067	28
2.74433	28
2.74800	27
2.75167	27
2.75533	27
2.75900	27
2.76267	27
2.76633	27
2.77000	27
2.77367	28
2.77733	28
2.78100	28
2.78467	28
2.78833	28
2.79200	28
2.79567	28
2.79933	28
2.80300	28
2.80667	28
2.81033	28
2.81400	28
2.81767	28
2.82133	28
2.82500	28
2.82867	28
2.83233	28
2.83600	27
2.83967	27
2.84333	25
2.84700	23
2.85067	19
2.85433	13
2.85800	3
2.86167	-9
2.86533	-26
2.86900	-47
2.87267	-73
2.87633	-103
2.88000	-136
2.88367	-175
2.88733	-217
2.89100	-262
2.89467	-310
2.89833	-361
2.90200	-413
2.90567	-468
2.90933	-522
2.91300	-578
2.91667	-633
2.92033	-688
2.92400	-742
2.92767	-794
2.93133	-845
2.93500	-898
2.93867	-956
2.94233	-1014
2.94600	-1064
2.94967	-1094
2.95333	-1098
2.95700	-1077
2.96067	-1033
2.96433	-972
2.96800	-899
2.97167	-820
2.97533	-739
2.97900	-659
2.98267	-583
2.98633	-511
2.99000	-446
2.99367	-387
2.99733	-334
3.00100	-287
3.00467	-245
3.00833	-208
3.01200	-177
3.01567	-149
3.01933	-125
3.02300	-105
3.02667	-87
3.03033	-72
3.03400	-59
3.03767	-48
3.04133	-38
3.04500	-30
3.04867	-23
3.05233	-17
3.05600	-12
3.05967	-8
3.06333	-4
3.06700	-1
3.07067	2
3.07433	4
3.07800	6
3.08167	8
3.08533	9
3.08900	10
3.09267	11
3.09633	12
3.10000	12
3.10367	13
3.10733	14
3.11100	14
3.11467	15
3.11833	16
3.12200	16
3.12567	17
3.12933	17
3.13300	18
3.13667	18
3.14033	19
3.14400	19
3.14767	20
3.15133	20
3.15500	20
3.15867	21
3.16233	21
3.16600	21
3.16967	21
3.17333	21
3.17700	22
3.18067	22
3.18433	22
3.18800	22
3.19167	22
3.19533	23
3.19900	23
3.20267	24
3.20633	24
3.21000	24
3.21367	24
3.21733	25
3.22100	25
3.22467	25
3.22833	25
3.23200	25
3.23567	25
3.23933	25
3.24300	25
3.24667	26
3.25033	26
3.25400	26
3.25767	26
3.26133	25
3.26500	25
3.26867	25
3.27233	25
3.27600	25
3.27967	25
3.28333	26
3.28700	26
3.29067	26
3.29433	26
3.29800	26
3.30167	27
3.30533	27
3.30900	27
3.31267	27
3.31633	27
3.32000	28
3.32367	28
3.32733	28
3.33100	28
3.33467	28
3.33833	28
3.34200	28
3.34567	29
3.34933	29
3.35300	29
3.35667	29
3.36033	28
3.36400	28
3.36767	28
3.37133	28
3.37500	29
3.37867	29
3.38233	29
3.38600	29
3.38967	28
3.39333	28
3.39700	28
3.40067	28
3.40433	28
3.40800	28
3.41167	28
3.41533	28
3.41900	27
3.42267	27
3.42633	27
3.43000	27
3.43367	28
3.43733	28
3.44100	28
3.44467	28
3.44833	28
3.45200	28
3.45567	28
3.45933	28
3.46300	28
3.46667	28
3.47033	28
3.47400	28
3.47767	28
3.48133	28
3.48500	28
3.48867	28
3.49233	28
3.49600	28
3.49967	28
3.50333	28
3.50700	28
3.51067	28
3.51433	29
3.51800	29
3.52167	29
3.52533	29
3.52900	29
3.53267	29
3.53633	29
3.54000	29
3.54367	29
3.54733	29
3.55100	29
3.55467	29
3.55833	29
3.56200	29
3.56567	29
3.56933	29
3.57300	29
3.57667	29
3.58033	29
3.58400	29
3.58767	29
3.59133	30
3.59500	30
3.59867	30
3.60233	30
3.60600	30
3.60967	30
3.61333	30
3.61700	30
3.62067	29
3.62433	30
3.62800	30
3.63167	30
3.63533	30
3.63900	31
3.64267	31
3.64633	31
3.65000	31
3.65367	31
3.65733	32
3.66100	31
3.66467	31
3.66833	31
3.67200	31
3.67567	30
3.67933	30
3.68300	30
3.68667	30
3.69033	30
3.69400	30
3.69767	30
3.70133	30
3.70500	29
3.70867	29
3.71233	29
3.71600	29
3.71967	29
3.72333	29
3.72700	29
3.73067	29
3.73433	29
3.73800	29
3.74167	29
3.74533	29
3.74900	29
3.75267	29
3.75633	29
3.76000	29
3.76367	29
3.76733	29
3.77100	29
3.77467	30
3.77833	30
3.78200	30
3.78567	30
3.78933	30
3.79300	30
3.79667	30
3.80033	30
3.80400	30
3.80767	30
3.81133	30
3.81500	30
3.81867	30
3.82233	30
3.82600	30
3.82967	30
3.83333	29
3.83700	29
3.84067	29
3.84433	29
3.84800	29
3.85167	29
3.85533	29
3.85900	29
3.86267	29
3.86633	29
3.87000	29
3.87367	29
3.87733	29
3.88100	29
3.88467	29
3.88833	28
3.89200	28
3.89567	28
3.89933	28
3.90300	28
3.90667	28
3.91033	28
3.91400	28
3.91767	28
3.92133	28
3.92500	28
3.92867	28
3.93233	28
3.93600	28
3.93967	28
3.94333	29
3.94700	29
3.95067	29
3.95433	29
3.95800	29
3.96167	29
3.96533	29
3.96900	29
3.97267	29
3.97633	29
3.98000	29
3.98367	29
3.98733	29
3.99100	30
3.99467	30
3.99833	29

[Chromatogram (Ch3)]
Interval(msec)	220
# of Points	1091
Start Time(min)	0.002
End Time(min)	3.998
R.Time (min)	Intensity
0.00167	-0
0.00533	1
0.00900	2
0.01267	1
0.01633	-1
0.02000	-1
0.02367	-2
0.02733	-2
0.03100	-2
0.03467	-3
0.03833	-3
0.04200	-4
0.04567	-3
0.04933	-4
0.05300	-4
0.05667	-3
0.06033	-3
0.06400	-0
0.06767	1
0.07133	-1
0.07500	-2
0.07867	-3
0.08233	-3
0.08600	-4
0.08967	-3
0.09333	-1
0.09700	-1
0.10067	-1
0.10433	1
0.10800	3
0.11167	4
0.11533	5
0.11900	3
0.12267	3
0.12633	4
0.13000	4
0.13367	4
0.13733	4
0.14100	3
0.14467	1
0.14833	1
0.15200	2
0.15567	3
0.15933	3
0.16300	2
0.16667	1
0.17033	-1
0.17400	-3
0.17767	-3
0.18133	-4
0.18500	-3
0.18867	-3
0.19233	-2
0.19600	-2
0.19967	-3
0.20333	-2
0.20700	-0
0.21067	2
0.21433	4
0.21800	5
0.22167	2
0.22533	3
0.22900	4
0.23267	5
0.23633	6
0.24000	5
0.24367	3
0.24733	3
0.25100	3
0.25467	2
0.25833	3
0.26200	3
0.26567	0
0.26933	-1
0.27300	-1
0.27667	1
0.28033	3
0.28400	5
0.28767	5
0.29133	5
0.29500	6
0.29867	6
0.30233	7
0.30600	7
0.30967	9
0.31333	9
0.31700	8
0.32067	8
0.32433	6
0.32800	4
0.33167	1
0.33533	-1
0.33900	0
0.34267	2
0.34633	5
0.35000	6
0.35367	3
0.35733	2
0.36100	-1
0.36467	-1
0.36833	0
0.37200	3
0.37567	4
0.37933	3
0.38300	2
0.38667	3
0.39033	5
0.39400	5
0.39767	2
0.40133	1
0.40500	1
0.40867	2
0.41233	3
0.41600	5
0.41967	6
0.42333	6
0.42700	6
0.43067	7
0.43433	7
0.43800	7
0.44167	6
0.44533	5
0.44900	4
0.45267	5
0.45633	5
0.46000	5
0.46367	4
0.46733	4
0.47100	5
0.47467	7
0.47833	8
0.48200	8
0.48567	7
0.48933	6
0.49300	6
0.49667	7
0.50033	8
0.50400	7
0.50767	6
0.51133	6
0.51500	5
0.51867	7
0.52233	8
0.52600	7
0.52967	5
0.53333	5
0.53700	3
0.54067	6
0.54433	7
0.54800	7
0.55167	7
0.55533	8
0.55900	9
0.56267	8
0.56633	9
0.57000	11
0.57367	13
0.57733	13
0.58100	12
0.58467	12
0.58833	9
0.59200	7
0.59567	9
0.59933	13
0.60300	15
0.60667	15
0.61033	13
0.61400	13
0.61767	14
0.62133	15
0.62500	14
0.62867	13
0.63233	13
0.63600	12
0.63967	11
0.64333	12
0.64700	11
0.65067	12
0.65433	13
0.65800	12
0.66167	11
0.66533	12
0.66900	11
0.67267	12
0.67633	14
0.68000	13
0.68367	10
0.68733	11
0.69100	11
0.69467	8
0.69833	7
0.70200	8
0.70567	7
0.70933	5
0.71300	3
0.71667	3
0.72033	4
0.72400	6
0.72767	6
0.73133	7
0.73500	9
0.73867	12
0.74233	14
0.74600	14
0.74967	16
0.75333	15
0.75700	14
0.76067	12
0.76433	11
0.76800	12
0.77167	12
0.77533	11
0.77900	11
0.78267	12
0.78633	12
0.79000	11
0.79367	11
0.79733	13
0.80100	11
0.80467	11
0.80833	10
0.81200	10
0.81567	10
0.81933	10
0.82300	9
0.82667	8
0.83033	8
0.83400	8
0.83767	8
0.84133	8
0.84500	7
0.84867	9
0.85233	10
0.85600	13
0.85967	13
0.86333	13
0.86700	13
0.87067	13
0.87433	11
0.87800	12
0.88167	13
0.88533	12
0.88900	10
0.89267	10
0.89633	12
0.90000	14
0.90367	14
0.90733	15
0.91100	17
0.91467	17
0.91833	16
0.92200	16
0.92567	16
0.92933	17
0.93300	17
0.93667	17
0.94033	16
0.94400	14
0.94767	15
0.95133	15
0.95500	14
0.95867	15
0.96233	14
0.96600	13
0.96967	12
0.97333	13
0.97700	15
0.98067	16
0.98433	17
0.98800	15
0.99167	16
0.99533	16
0.99900	17
1.00267	17
1.00633	17
1.01000	17
1.01367	17
1.01733	16
1.02100	16
1.02467	15
1.02833	16
1.03200	16
1.03567	16
1.03933	16
1.04300	16
1.04667	16
1.05033	17
1.05400	16
1.05767	16
1.06133	15
1.06500	15
1.06867	16
1.07233	17
1.07600	18
1.07967	20
1.08333	21
1.08700	22
1.09067	20
1.09433	19
1.09800	19
1.10167	20
1.10533	21
1.10900	21
1.11267	21
1.11633	22
1.12000	22
1.12367	20
1.12733	20
1.13100	21
1.13467	23
1.13833	23
1.14200	22
1.14567	20
1.14933	17
1.15300	15
1.15667	13
1.16033	12
1.16400	13
1.16767	16
1.17133	19
1.17500	21
1.17867	22
1.18233	22
1.18600	20
1.18967	19
1.19333	16
1.19700	16
1.20067	17
1.20433	18
1.20800	18
1.21167	18
1.21533	16
1.21900	15
1.22267	15
1.22633	15
1.23000	15
1.23367	15
1.23733	16
1.24100	18
1.24467	21
1.24833	24
1.25200	26
1.25567	25
1.25933	24
1.26300	23
1.26667	23
1.27033	24
1.27400	24
1.27767	23
1.28133	23
1.28500	22
1.28867	21
1.29233	22
1.29600	21
1.29967	21
1.30333	22
1.30700	21
1.31067	22
1.31433	25
1.31800	25
1.32167	23
1.32533	21
1.32900	22
1.33267	26
1.33633	28
1.34000	29
1.34367	29
1.34733	28
1.35100	27
1.35467	29
1.35833	29
1.36200	28
1.36567	29
1.36933	30
1.37300	31
1.37667	28
1.38033	27
1.38400	26
1.38767	25
1.39133	25
1.39500	25
1.39867	25
1.40233	26
1.40600	26
1.40967	27
1.41333	29
1.41700	30
1.42067	32
1.42433	33
1.42800	33
1.43167	33
1.43533	32
1.43900	29
1.44267	26
1.44633	24
1.45000	23
1.45367	21
1.45733	22
1.46100	24
1.46467	26
1.46833	27
1.47200	29
1.47567	29
1.47933	28
1.48300	27
1.48667	26
1.49033	27
1.49400	28
1.49767	28
1.50133	28
1.50500	29
1.50867	31
1.51233	31
1.51600	29
1.51967	29
1.52333	27
1.52700	27
1.53067	28
1.53433	29
1.53800	29
1.54167	28
1.54533	27
1.54900	27
1.55267	27
1.55633	26
1.56000	26
1.56367	25
1.56733	25
1.57100	24
1.57467	24
1.57833	23
1.58200	24
1.58567	25
1.58933	25
1.59300	27
1.59667	29
1.60033	29
1.60400	29
1.60767	29
1.61133	28
1.61500	26
1.61867	27
1.62233	30
1.62600	33
1.62967	33
1.63333	34
1.63700	34
1.64067	34
1.64433	32
1.64800	33
1.65167	34
1.65533	36
1.65900	38
1.66267	38
1.66633	39
1.67000	38
1.67367	39
1.67733	40
1.68100	41
1.68467	41
1.68833	42
1.69200	43
1.69567	45
1.69933	43
1.70300	44
1.70667	45
1.71033	47
1.71400	48
1.71767	47
1.72133	46
1.72500	46
1.72867	47
1.73233	50
1.73600	48
1.73967	44
1.74333	42
1.74700	43
1.75067	46
1.75433	48
1.75800	50
1.76167	49
1.76533	46
1.76900	44
1.77267	45
1.77633	46
1.78000	49
1.78367	50
1.78733	50
1.79100	51
1.79467	51
1.79833	53
1.80200	55
1.80567	56
1.80933	56
1.81300	56
1.81667	55
1.82033	55
1.82400	54
1.82767	55
1.83133	58
1.83500	59
1.83867	59
1.84233	57
1.84600	59
1.84967	62
1.85333	65
1.85700	65
1.86067	65
1.86433	65
1.86800	64
1.87167	64
1.87533	64
1.87900	66
1.88267	67
1.88633	68
1.89000	69
1.89367	70
1.89733	71
1.90100	72
1.90467	75
1.90833	76
1.91200	76
1.91567	77
1.91933	77
1.92300	77
1.92667	79
1.93033	82
1.93400	84
1.93767	84
1.94133	83
1.94500	83
1.94867	82
1.95233	83
1.95600	83
1.95967	82
1.96333	81
1.96700	85
1.97067	89
1.97433	94
1.97800	96
1.98167	97
1.98533	100
1.98900	102
1.99267	102
1.99633	103
2.00000	104
2.00367	104
2.00733	104
2.01100	103
2.01467	104
2.01833	108
2.02200	109
2.02567	108
2.02933	109
2.03300	111
2.03667	113
2.04033	113
2.04400	113
2.04767	114
2.05133	114
2.05500	115
2.05867	115
2.06233	116
2.06600	115
2.06967	115
2.07333	116
2.07700	120
2.08067	122
2.08433	121
2.08800	122
2.09167	124
2.09533	124
2.09900	128
2.10267	133
2.10633	137
2.11000	137
2.11367	136
2.11733	135
2.12100	136
2.12467	137
2.12833	136
2.13200	137
2.13567	137
2.13933	140
2.14300	143
2.14667	143
2.15033	142
2.15400	143
2.15767	144
2.16133	145
2.16500	145
2.16867	145
2.17233	147
2.17600	148
2.17967	149
2.18333	150
2.18700	152
2.19067	155
2.19433	159
2.19800	162
2.20167	161
2.20533	158
2.20900	157
2.21267	157
2.21633	156
2.22000	157
2.22367	159
2.22733	162
2.23100	165
2.23467	167
2.23833	167
2.24200	167
2.24567	166
2.24933	165
2.25300	168
2.25667	170
2.26033	172
2.26400	171
2.26767	173
2.27133	172
2.27500	174
2.27867	178
2.28233	180
2.28600	180
2.28967	181
2.29333	182
2.29700	182
2.30067	183
2.30433	182
2.30800	181
2.31167	182
2.31533	182
2.31900	184
2.32267	187
2.32633	190
2.33000	194
2.33367	196
2.33733	197
2.34100	195
2.34467	197
2.34833	199
2.35200	200
2.35567	199
2.35933	199
2.36300	199
2.36667	199
2.37033	199
2.37400	201
2.37767	202
2.38133	202
2.38500	200
2.38867	200
2.39233	201
2.39600	202
2.39967	204
2.40333	208
2.40700	211
2.41067	213
2.41433	216
2.41800	219
2.42167	220
2.42533	220
2.42900	219
2.43267	218
2.43633	218
2.44000	221
2.44367	264
2.44733	377
2.45100	503
2.45467	612
2.45833	673
2.46200	682
2.46567	663
2.46933	642
2.47300	630
2.47667	621
2.48033	606
2.48400	577
2.48767	540
2.49133	502
2.49500	469
2.49867	445
2.50233	429
2.50600	422
2.50967	422
2.51333	430
2.51700	446
2.52067	462
2.52433	470
2.52800	467
2.53167	454
2.53533	436
2.53900	414
2.54267	392
2.54633	369
2.55000	347
2.55367	330
2.55733	318
2.56100	310
2.56467	304
2.56833	300
2.57200	298
2.57567	294
2.57933	293
2.58300	295
2.58667	299
2.59033	301
2.59400	303
2.59767	309
2.60133	314
2.60500	316
2.60867	314
2.61233	310
2.61600	304
2.61967	295
2.62333	283
2.62700	273
2.63067	264
2.63433	252
2.63800	241
2.64167	232
2.64533	221
2.64900	211
2.65267	202
2.65633	193
2.66000	185
2.66367	179
2.66733	174
2.67100	172
2.67467	170
2.67833	168
2.68200	168
2.68567	168
2.68933	168
2.69300	167
2.69667	168
2.70033	172
2.70400	178
2.70767	181
2.71133	184
2.71500	188
2.71867	194
2.72233	199
2.72600	203
2.72967	205
2.73333	206
2.73700	210
2.74067	212
2.74433	215
2.74800	217
2.75167	218
2.75533	221
2.75900	225
2.76267	226
2.76633	230
2.77000	233
2.77367	238
2.77733	240
2.78100	240
2.78467	240
2.78833	240
2.79200	241
2.79567	243
2.79933	246
2.80300	250
2.80667	257
2.81033	262
2.81400	266
2.81767	271
2.82133	282
2.82500	301
2.82867	332
2.83233	391
2.83600	498
2.83967	671
2.84333	933
2.84700	1296
2.85067	1758
2.85433	2297
2.85800	2882
2.86167	3465
2.86533	3999
2.86900	4439
2.87267	4755
2.87633	4931
2.88000	4965
2.88367	4872
2.88733	4679
2.89100	4411
2.89467	4095
2.89833	3756
2.90200	3410
2.90567	3073
2.90933	2753
2.91300	2457
2.91667	2186
2.92033	1944
2.92400	1729
2.92767	1537
2.93133	1367
2.93500	1218
2.93867	1087
2.94233	972
2.94600	871
2.94967	785
2.95333	710
2.95700	646
2.96067	589
2.96433	540
2.96800	498
2.97167	464
2.97533	436
2.97900	410
2.98267	386
2.98633	366
2.99000	349
2.99367	333
2.99733	321
3.00100	311
3.00467	302
3.00833	295
3.01200	290
3.01567	286
3.01933	282
3.02300	279
3.02667	275
3.03033	269
3.03400	264
3.03767	260
3.04133	258
3.04500	255
3.04867	253
3.05233	251
3.05600	250
3.05967	251
3.06333	252
3.06700	253
3.07067	251
3.07433	249
3.07800	249
3.08167	251
3.08533	253
3.08900	255
3.09267	257
3.09633	258
3.10000	257
3.10367	255
3.10733	255
3.11100	256
3.11467	256
3.11833	255
3.12200	254
3.12567	252
3.12933	250
3.13300	252
3.13667	254
3.14033	253
3.14400	251
3.14767	251
3.15133	253
3.15500	254
3.15867	257
3.16233	258
3.16600	259
3.16967	260
3.17333	261
3.17700	263
3.18067	265
3.18433	265
3.18800	265
3.19167	265
3.19533	260
3.19900	236
3.20267	209
3.20633	202
3.21000	218
3.21367	253
3.21733	298
3.22100	350
3.22467	407
3.22833	461
3.23200	517
3.23567	568
3.23933	615
3.24300	659
3.24667	696
3.25033	729
3.25400	756
3.25767	781
3.26133	802
3.26500	821
3.26867	839
3.27233	854
3.27600	869
3.27967	883
3.28333	893
3.28700	902
3.29067	910
3.29433	919
3.29800	929
3.30167	936
3.30533	940
3.30900	945
3.31267	950
3.31633	955
3.32000	962
3.32367	970
3.32733	978
3.33100	985
3.33467	990
3.33833	993
3.34200	1000
3.34567	1006
3.34933	1013
3.35300	1017
3.35667	1021
3.36033	1022
3.36400	1023
3.36767	1023
3.37133	1022
3.37500	1022
3.37867	1023
3.38233	1025
3.38600	1028
3.38967	1031
3.39333	1033
3.39700	1033
3.40067	1032
3.40433	1032
3.40800	1030
3.41167	1025
3.41533	1022
3.41900	1020
3.42267	1019
3.42633	1014
3.43000	1010
3.43367	1007
3.43733	1003
3.44100	999
3.44467	994
3.44833	990
3.45200	985
3.45567	982
3.45933	979
3.46300	974
3.46667	971
3.47033	969
3.47400	965
3.47767	958
3.48133	952
3.48500	949
3.48867	949
3.49233	950
3.49600	948
3.49967	944
3.50333	941
3.50700	939
3.51067	935
3.51433	931
3.51800	929
3.52167	929
3.52533	928
3.52900	926
3.53267	926
3.53633	927
3.54000	925
3.54367	922
3.54733	917
3.55100	917
3.55467	917
3.55833	915
3.56200	914
3.56567	913
3.56933	912
3.57300	911
3.57667	909
3.58033	908
3.58400	909
3.58767	909
3.59133	908
3.59500	906
3.59867	903
3.60233	899
3.60600	898
3.60967	897
3.61333	896
3.61700	893
3.62067	892
3.62433	889
3.62800	886
3.63167	881
3.63533	877
3.63900	874
3.64267	872
3.64633	869
3.65000	866
3.65367	864
3.65733	862
3.66100	858
3.66467	856
3.66833	854
3.67200	852
3.67567	850
3.67933	848
3.68300	844
3.68667	840
3.69033	839
3.69400	836
3.69767	834
3.70133	833
3.70500	831
3.70867	829
3.71233	828
3.71600	825
3.71967	820
3.72333	816
3.72700	815
3.73067	813
3.73433	810
3.73800	808
3.74167	806
3.74533	803
3.74900	800
3.75267	796
3.75633	794
3.76000	791
3.76367	788
3.76733	786
3.77100	785
3.77467	783
3.77833	783
3.78200	782
3.78567	779
3.78933	776
3.79300	772
3.79667	768
3.80033	767
3.80400	763
3.80767	761
3.81133	757
3.81500	754
3.81867	754
3.82233	753
3.82600	752
3.82967	750
3.83333	748
3.83700	744
3.84067	740
3.84433	736
3.84800	734
3.85167	733
3.85533	734
3.85900	734
3.86267	732
3.86633	729
3.87000	727
3.87367	726
3.87733	725
3.88100	725
3.88467	723
3.88833	721
3.89200	718
3.89567	715
3.89933	712
3.90300	709
3.90667	706
3.91033	704
3.91400	703
3.91767	702
3.92133	703
3.92500	703
3.92867	700
3.93233	702
3.93600	702
3.93967	700
3.94333	698
3.94700	695
3.95067	692
3.95433	690
3.95800	690
3.96167	691
3.96533	689
3.96900	686
3.97267	685
3.97633	682
3.98000	680
3.98367	677
3.98733	676
3.99100	674
3.99467	674
3.99833	668

[Status Trace (Column Oven Temperature)]
Interval(msec)	1000
# of Points	240
Start Time(min)	0.005
End Time(min)	3.988
Intensity Units	
Intensity Multiplier	1
R.Time (min)	Intensity
0.00463	35.07
0.02130	35.06
0.03797	35.05
0.05463	35.04
0.07130	35.04
0.08797	35.04
0.10463	35.05
0.12130	35.05
0.13797	35.05
0.15463	35.04
0.17130	35.03
0.18797	35.03
0.20463	35.03
0.22130	35.02
0.23797	35.02
0.25463	35.03
0.27130	35.03
0.28797	35.04
0.30463	35.02
0.32130	35.02
0.33797	35.00
0.35463	35.00
0.37130	34.99
0.38797	35.00
0.40463	34.99
0.42130	35.00
0.43797	35.00
0.45463	35.01
0.47130	35.01
0.48797	35.01
0.50463	35.01
0.52130	35.01
0.53797	35.00
0.55463	34.99
0.57130	34.99
0.58797	34.98
0.60463	34.98
0.62130	34.98
0.63797	34.99
0.65463	35.00
0.67130	34.99
0.68797	34.98
0.70463	34.98
0.72130	34.99
0.73797	34.98
0.75463	34.98
0.77130	34.99
0.78797	34.99
0.80463	34.99
0.82130	34.98
0.83797	34.97
0.85463	34.96
0.87130	34.96
0.88797	34.97
0.90463	34.97
0.92130	34.97
0.93797	34.96
0.95463	34.96
0.97130	34.98
0.98797	34.99
1.00463	35.01
1.02130	35.00
1.03797	35.00
1.05463	35.00
1.07130	35.01
1.08797	35.01
1.10463	35.01
1.12130	35.01
1.13797	35.01
1.15463	35.02
1.17130	35.02
1.18797	35.01
1.20463	35.00
1.22130	34.99
1.23797	34.99
1.25463	34.99
1.27130	34.99
1.28797	34.99
1.30463	35.00
1.32130	34.99
1.33797	34.98
1.35463	34.97
1.37130	34.97
1.38797	34.99
1.40463	35.01
1.42130	35.01
1.43797	35.01
1.45463	35.01
1.47130	35.01
1.48797	35.00
1.50463	35.00
1.52130	35.01
1.53797	35.00
1.55463	35.00
1.57130	35.00
1.58797	35.00
1.60463	35.03
1.62130	35.14
1.63797	35.33
1.65463	35.57
1.67130	35.89
1.68797	36.26
1.70463	36.61
1.72130	36.95
1.73797	37.30
1.75463	37.63
1.77130	37.94
1.78797	38.27
1.80463	38.61
1.82130	38.92
1.83797	39.24
1.85463	39.58
1.87130	39.90
1.88797	40.26
1.90463	40.59
1.92130	40.90
1.93797	41.22
1.95463	41.56
1.97130	41.90
1.98797	42.20
2.00463	42.52
2.02130	42.85
2.03797	43.18
2.05463	43.50
2.07130	43.83
2.08797	44.16
2.10463	44.48
2.12130	44.81
2.13797	45.14
2.15463	45.47
2.17130	45.82
2.18797	46.13
2.20463	46.45
2.22130	46.80
2.23797	47.11
2.25463	47.43
2.27130	47.77
2.28797	48.09
2.30463	48.43
2.32130	48.76
2.33797	49.11
2.35463	49.40
2.37130	49.58
2.38797	49.64
2.40463	49.63
2.42130	49.64
2.43797	49.65
2.45463	49.65
2.47130	49.68
2.48797	49.68
2.50463	49.72
2.52130	49.72
2.53797	49.73
2.55463	49.75
2.57130	49.76
2.58797	49.77
2.60463	49.80
2.62130	49.80
2.63797	49.83
2.65463	49.84
2.67130	49.85
2.68797	49.84
2.70463	49.85
2.72130	49.85
2.73797	49.85
2.75463	49.87
2.77130	49.86
2.78797	49.86
2.80463	49.87
2.82130	49.87
2.83797	49.89
2.85463	49.89
2.87130	49.89
2.88797	49.90
2.90463	49.90
2.92130	49.92
2.93797	49.95
2.95463	49.96
2.97130	49.98
2.98797	49.99
3.00463	50.00
3.02130	50.01
3.03797	50.02
3.05463	50.02
3.07130	50.03
3.08797	50.04
3.10463	50.05
3.12130	50.05
3.13797	50.06
3.15463	50.06
3.17130	50.08
3.18797	50.08
3.20463	50.08
3.22130	50.08
3.23797	50.09
3.25463	50.10
3.27130	50.10
3.28797	50.11
3.30463	50.10
3.32130	50.08
3.33797	50.08
3.35463	50.09
3.37130	50.09
3.38797	50.08
3.40463	50.09
3.42130	50.09
3.43797	50.09
3.45463	50.10
3.47130	50.10
3.48797	50.10
3.50463	50.10
3.52130	50.09
3.53797	50.08
3.55463	50.08
3.57130	50.08
3.58797	50.07
3.60463	50.07
3.62130	50.06
3.63797	50.06
3.65463	50.05
3.67130	50.05
3.68797	50.05
3.70463	50.06
3.72130	50.06
3.73797	50.05
3.75463	50.05
3.77130	50.05
3.78797	50.04
3.80463	50.03
3.82130	50.03
3.83797	50.04
3.85463	50.04
3.87130	50.05
3.88797	50.05
3.90463	50.07
3.92130	50.06
3.93797	50.07
3.95463	50.07
3.97130	50.07
3.98797	50.06

[Status Trace (Injection Unit Temperature)]
Interval(msec)	1000
# of Points	240
Start Time(min)	0.005
End Time(min)	3.988
Intensity Units	
Intensity Multiplier	1
R.Time (min)	Intensity
0.00463	99.98
0.02130	99.98
0.03797	99.98
0.05463	99.99
0.07130	99.98
0.08797	99.99
0.10463	99.99
0.12130	99.98
0.13797	99.99
0.15463	99.99
0.17130	99.99
0.18797	99.99
0.20463	99.99
0.22130	99.99
0.23797	99.98
0.25463	99.99
0.27130	99.99
0.28797	99.99
0.30463	99.99
0.32130	99.99
0.33797	99.99
0.35463	99.99
0.37130	99.99
0.38797	99.99
0.40463	99.99
0.42130	99.99
0.43797	99.99
0.45463	99.98
0.47130	99.99
0.48797	99.98
0.50463	99.99
0.52130	99.99
0.53797	99.99
0.55463	99.99
0.57130	99.99
0.58797	99.99
0.60463	99.98
0.62130	99.98
0.63797	99.98
0.65463	99.98
0.67130	99.98
0.68797	99.98
0.70463	99.98
0.72130	99.98
0.73797	99.98
0.75463	99.98
0.77130	99.98
0.78797	99.98
0.80463	99.98
0.82130	99.98
0.83797	99.98
0.85463	99.98
0.87130	99.98
0.88797	99.98
0.90463	99.98
0.92130	99.98
0.93797	99.98
0.95463	99.98
0.97130	99.98
0.98797	99.98
1.00463	99.98
1.02130	99.98
1.03797	99.98
1.05463	99.98
1.07130	99.98
1.08797	99.99
1.10463	99.98
1.12130	99.98
1.13797	99.98
1.15463	99.98
1.17130	99.98
1.18797	99.98
1.20463	99.98
1.22130	99.98
1.23797	99.98
1.25463	99.98
1.27130	99.98
1.28797	99.99
1.30463	99.98
1.32130	99.98
1.33797	99.98
1.35463	99.99
1.37130	99.98
1.38797	99.98
1.40463	99.99
1.42130	99.99
1.43797	99.99
1.45463	99.98
1.47130	99.98
1.48797	99.98
1.50463	99.98
1.52130	99.99
1.53797	99.99
1.55463	99.99
1.57130	99.98
1.58797	99.99
1.60463	99.99
1.62130	99.99
1.63797	99.98
1.65463	99.98
1.67130	99.98
1.68797	99.98
1.70463	99.98
1.72130	99.99
1.73797	99.99
1.75463	99.98
1.77130	99.98
1.78797	99.98
1.80463	99.98
1.82130	99.98
1.83797	99.98
1.85463	99.98
1.87130	99.98
1.88797	99.98
1.90463	99.98
1.92130	99.98
1.93797	99.98
1.95463	99.98
1.97130	99.98
1.98797	99.97
2.00463	99.98
2.02130	99.98
2.03797	99.97
2.05463	99.98
2.07130	99.97
2.08797	99.98
2.10463	99.97
2.12130	99.97
2.13797	99.98
2.15463	99.97
2.17130	99.97
2.18797	99.97
2.20463	99.97
2.22130	99.97
2.23797	99.97
2.25463	99.97
2.27130	99.97
2.28797	99.97
2.30463	99.97
2.32130	99.97
2.33797	99.97
2.35463	99.97
2.37130	99.97
2.38797	99.97
2.40463	99.97
2.42130	99.97
2.43797	99.97
2.45463	99.97
2.47130	99.96
2.48797	99.97
2.50463	99.98
2.52130	99.97
2.53797	99.97
2.55463	99.97
2.57130	99.97
2.58797	99.97
2.60463	99.97
2.62130	99.97
2.63797	99.98
2.65463	99.98
2.67130	99.98
2.68797	99.98
2.70463	99.98
2.72130	99.98
2.73797	99.98
2.75463	99.98
2.77130	99.98
2.78797	99.98
2.80463	99.98
2.82130	99.98
2.83797	99.99
2.85463	99.99
2.87130	99.99
2.88797	100.00
2.90463	99.99
2.92130	100.00
2.93797	99.99
2.95463	100.00
2.97130	100.00
2.98797	100.00
3.00463	100.00
3.02130	100.01
3.03797	100.01
3.05463	100.01
3.07130	100.01
3.08797	100.01
3.10463	100.01
3.12130	100.01
3.13797	100.01
3.15463	100.01
3.17130	100.02
3.18797	100.01
3.20463	100.02
3.22130	100.02
3.23797	100.02
3.25463	100.03
3.27130	100.02
3.28797	100.02
3.30463	100.03
3.32130	100.02
3.33797	100.03
3.35463	100.02
3.37130	100.03
3.38797	100.03
3.40463	100.03
3.42130	100.03
3.43797	100.03
3.45463	100.04
3.47130	100.04
3.48797	100.04
3.50463	100.04
3.52130	100.04
3.53797	100.04
3.55463	100.04
3.57130	100.04
3.58797	100.05
3.60463	100.05
3.62130	100.05
3.63797	100.04
3.65463	100.05
3.67130	100.05
3.68797	100.04
3.70463	100.05
3.72130	100.05
3.73797	100.05
3.75463	100.05
3.77130	100.04
3.78797	100.05
3.80463	100.05
3.82130	100.05
3.83797	100.05
3.85463	100.05
3.87130	100.05
3.88797	100.05
3.90463	100.05
3.92130	100.04
3.93797	100.05
3.95463	100.05
3.97130	100.05
3.98797	100.05

[Status Trace (Carrier Gas Pressure)]
Interval(msec)	1000
# of Points	240
Start Time(min)	0.005
End Time(min)	3.988
Intensity Units	
Intensity Multiplier	1
R.Time (min)	Intensity
0.00463	58.00
0.02130	55.87
0.03797	56.72
0.05463	58.84
0.07130	59.71
0.08797	58.15
0.10463	57.98
0.12130	58.01
0.13797	58.01
0.15463	58.01
0.17130	58.00
0.18797	58.00
0.20463	58.00
0.22130	58.00
0.23797	58.00
0.25463	58.00
0.27130	58.00
0.28797	58.00
0.30463	58.00
0.32130	58.00
0.33797	58.00
0.35463	58.00
0.37130	58.00
0.38797	58.00
0.40463	58.00
0.42130	58.00
0.43797	58.00
0.45463	58.00
0.47130	58.00
0.48797	58.00
0.50463	58.00
0.52130	58.00
0.53797	58.00
0.55463	58.00
0.57130	58.00
0.58797	58.00
0.60463	58.00
0.62130	58.00
0.63797	58.00
0.65463	58.00
0.67130	58.00
0.68797	58.00
0.70463	58.00
0.72130	58.00
0.73797	58.00
0.75463	58.00
0.77130	58.00
0.78797	58.00
0.80463	58.00
0.82130	58.00
0.83797	58.00
0.85463	58.00
0.87130	58.00
0.88797	58.00
0.90463	58.00
0.92130	58.00
0.93797	58.00
0.95463	58.00
0.97130	58.00
0.98797	58.00
1.00463	58.00
1.02130	58.00
1.03797	58.00
1.05463	58.00
1.07130	58.00
1.08797	58.00
1.10463	58.00
1.12130	58.00
1.13797	58.00
1.15463	58.00
1.17130	58.00
1.18797	58.00
1.20463	58.00
1.22130	58.00
1.23797	58.00
1.25463	58.00
1.27130	58.00
1.28797	58.00
1.30463	58.00
1.32130	58.00
1.33797	58.00
1.35463	58.00
1.37130	58.00
1.38797	58.00
1.40463	58.00
1.42130	58.00
1.43797	58.00
1.45463	58.00
1.47130	58.00
1.48797	58.00
1.50463	58.00
1.52130	58.00
1.53797	58.00
1.55463	58.00
1.57130	58.00
1.58797	58.00
1.60463	58.00
1.62130	58.00
1.63797	58.01
1.65463	58.00
1.67130	58.01
1.68797	58.00
1.70463	58.00
1.72130	58.00
1.73797	58.00
1.75463	58.00
1.77130	58.00
1.78797	58.00
1.80463	58.00
1.82130	58.00
1.83797	58.00
1.85463	58.00
1.87130	58.00
1.88797	58.00
1.90463	58.00
1.92130	58.00
1.93797	58.00
1.95463	58.00
1.97130	58.00
1.98797	58.00
2.00463	58.00
2.02130	58.00
2.03797	58.00
2.05463	58.00
2.07130	58.00
2.08797	58.00
2.10463	58.00
2.12130	58.00
2.13797	58.00
2.15463	58.00
2.17130	58.00
2.18797	58.00
2.20463	58.00
2.22130	58.00
2.23797	58.00
2.25463	58.00
2.27130	58.00
2.28797	58.00
2.30463	58.00
2.32130	58.00
2.33797	58.00
2.35463	58.00
2.37130	58.00
2.38797	57.99
2.40463	57.99
2.42130	58.00
2.43797	58.00
2.45463	58.00
2.47130	58.00
2.48797	58.00
2.50463	57.99
2.52130	57.99
2.53797	58.00
2.55463	58.00
2.57130	58.00
2.58797	58.00
2.60463	58.00
2.62130	58.00
2.63797	58.00
2.65463	58.00
2.67130	58.00
2.68797	58.00
2.70463	58.00
2.72130	58.00
2.73797	58.00
2.75463	58.00
2.77130	58.00
2.78797	58.00
2.80463	58.00
2.82130	58.00
2.83797	58.00
2.85463	58.00
2.87130	58.00
2.88797	58.00
2.90463	58.00
2.92130	58.00
2.93797	58.00
2.95463	58.00
2.97130	58.00
2.98797	58.00
3.00463	58.00
3.02130	58.00
3.03797	58.00
3.05463	58.00
3.07130	58.00
3.08797	58.00
3.10463	58.00
3.12130	58.00
3.13797	58.00
3.15463	58.00
3.17130	58.00
3.18797	58.00
3.20463	58.00
3.22130	58.00
3.23797	58.00
3.25463	58.00
3.27130	58.00
3.28797	58.00
3.30463	58.00
3.32130	58.00
3.33797	58.00
3.35463	58.00
3.37130	58.00
3.38797	58.00
3.40463	58.00
3.42130	58.00
3.43797	58.00
3.45463	58.00
3.47130	58.00
3.48797	58.00
3.50463	58.00
3.52130	58.00
3.53797	58.00
3.55463	58.00
3.57130	58.00
3.58797	58.00
3.60463	58.00
3.62130	58.00
3.63797	58.00
3.65463	58.00
3.67130	58.00
3.68797	58.00
3.70463	58.00
3.72130	58.00
3.73797	58.00
3.75463	58.00
3.77130	58.00
3.78797	58.00
3.80463	58.00
3.82130	58.00
3.83797	58.00
3.85463	58.00
3.87130	58.00
3.88797	58.00
3.90463	58.00
3.92130	58.00
3.93797	58.00
3.95463	58.00
3.97130	58.00
3.98797	58.00

[Status Trace (Carrier Gas Flow)]
Interval(msec)	1000
# of Points	240
Start Time(min)	0.005
End Time(min)	3.988
Intensity Units	
Intensity Multiplier	1
R.Time (min)	Intensity
0.00463	34.51
0.02130	34.55
0.03797	34.55
0.05463	34.55
0.07130	34.50
0.08797	34.52
0.10463	34.52
0.12130	34.52
0.13797	34.52
0.15463	34.52
0.17130	34.52
0.18797	34.52
0.20463	34.52
0.22130	34.52
0.23797	34.52
0.25463	34.52
0.27130	34.52
0.28797	34.52
0.30463	34.52
0.32130	34.52
0.33797	34.52
0.35463	34.52
0.37130	34.52
0.38797	34.52
0.40463	34.52
0.42130	34.52
0.43797	34.52
0.45463	34.52
0.47130	34.52
0.48797	34.52
0.50463	34.52
0.52130	34.52
0.53797	34.52
0.55463	34.52
0.57130	34.52
0.58797	34.52
0.60463	34.52
0.62130	34.52
0.63797	34.52
0.65463	34.52
0.67130	34.52
0.68797	34.52
0.70463	34.52
0.72130	34.52
0.73797	34.53
0.75463	34.52
0.77130	34.52
0.78797	34.52
0.80463	34.52
0.82130	34.52
0.83797	34.52
0.85463	34.52
0.87130	34.52
0.88797	34.52
0.90463	34.52
0.92130	34.52
0.93797	34.52
0.95463	34.52
0.97130	34.52
0.98797	34.52
1.00463	34.51
1.02130	34.52
1.03797	34.52
1.05463	34.52
1.07130	34.52
1.08797	34.52
1.10463	34.52
1.12130	34.53
1.13797	34.52
1.15463	34.52
1.17130	34.52
1.18797	34.52
1.20463	34.52
1.22130	34.51
1.23797	34.52
1.25463	34.52
1.27130	34.52
1.28797	34.52
1.30463	34.52
1.32130	34.52
1.33797	34.52
1.35463	34.52
1.37130	34.52
1.38797	34.52
1.40463	34.52
1.42130	34.52
1.43797	34.52
1.45463	34.52
1.47130	34.52
1.48797	34.52
1.50463	34.52
1.52130	34.51
1.53797	34.52
1.55463	34.52
1.57130	34.52
1.58797	34.52
1.60463	34.52
1.62130	34.52
1.63797	34.52
1.65463	34.52
1.67130	34.52
1.68797	34.52
1.70463	34.52
1.72130	34.52
1.73797	34.52
1.75463	34.52
1.77130	34.52
1.78797	34.52
1.80463	34.52
1.82130	34.52
1.83797	34.52
1.85463	34.52
1.87130	34.52
1.88797	34.52
1.90463	34.52
1.92130	34.52
1.93797	34.52
1.95463	34.52
1.97130	34.52
1.98797	34.52
2.00463	34.51
2.02130	34.52
2.03797	34.52
2.05463	34.52
2.07130	34.52
2.08797	34.51
2.10463	34.52
2.12130	34.52
2.13797	34.52
2.15463	34.52
2.17130	34.52
2.18797	34.52
2.20463	34.52
2.22130	34.52
2.23797	34.52
2.25463	34.52
2.27130	34.52
2.28797	34.52
2.30463	34.52
2.32130	34.53
2.33797	34.52
2.35463	34.52
2.37130	34.52
2.38797	34.55
2.40463	34.51
2.42130	34.53
2.43797	34.53
2.45463	34.52
2.47130	34.51
2.48797	34.53
2.50463	34.56
2.52130	34.52
2.53797	34.52
2.55463	34.52
2.57130	34.52
2.58797	34.52
2.60463	34.52
2.62130	34.52
2.63797	34.52
2.65463	34.52
2.67130	34.52
2.68797	34.52
2.70463	34.52
2.72130	34.51
2.73797	34.52
2.75463	34.52
2.77130	34.52
2.78797	34.52
2.80463	34.52
2.82130	34.52
2.83797	34.52
2.85463	34.52
2.87130	34.52
2.88797	34.52
2.90463	34.52
2.92130	34.52
2.93797	34.52
2.95463	34.52
2.97130	34.52
2.98797	34.52
3.00463	34.52
3.02130	34.52
3.03797	34.52
3.05463	34.52
3.07130	34.52
3.08797	34.52
3.10463	34.51
3.12130	34.52
3.13797	34.52
3.15463	34.52
3.17130	34.52
3.18797	34.52
3.20463	34.52
3.22130	34.52
3.23797	34.52
3.25463	34.52
3.27130	34.52
3.28797	34.52
3.30463	34.52
3.32130	34.52
3.33797	34.52
3.35463	34.52
3.37130	34.52
3.38797	34.51
3.40463	34.52
3.42130	34.52
3.43797	34.51
3.45463	34.52
3.47130	34.52
3.48797	34.52
3.50463	34.51
3.52130	34.51
3.53797	34.52
3.55463	34.52
3.57130	34.51
3.58797	34.52
3.60463	34.52
3.62130	34.52
3.63797	34.52
3.65463	34.52
3.67130	34.52
3.68797	34.52
3.70463	34.52
3.72130	34.52
3.73797	34.52
3.75463	34.52
3.77130	34.52
3.78797	34.52
3.80463	34.52
3.82130	34.52
3.83797	34.52
3.85463	34.52
3.87130	34.52
3.88797	34.52
3.90463	34.52
3.92130	34.52
3.93797	34.52
3.95463	34.52
3.97130	34.52
3.98797	34.52

[Status Trace (Column Flow)]
Interval(msec)	1000
# of Points	240
Start Time(min)	0.005
End Time(min)	3.988
Intensity Units	
Intensity Multiplier	1
R.Time (min)	Intensity
0.00463	5.52
0.02130	5.28
0.03797	5.37
0.05463	5.62
0.07130	5.72
0.08797	5.54
0.10463	5.52
0.12130	5.52
0.13797	5.52
0.15463	5.52
0.17130	5.52
0.18797	5.52
0.20463	5.52
0.22130	5.52
0.23797	5.52
0.25463	5.52
0.27130	5.52
0.28797	5.52
0.30463	5.52
0.32130	5.52
0.33797	5.52
0.35463	5.52
0.37130	5.52
0.38797	5.52
0.40463	5.52
0.42130	5.52
0.43797	5.52
0.45463	5.52
0.47130	5.52
0.48797	5.52
0.50463	5.52
0.52130	5.52
0.53797	5.52
0.55463	5.52
0.57130	5.52
0.58797	5.52
0.60463	5.52
0.62130	5.52
0.63797	5.52
0.65463	5.52
0.67130	5.52
0.68797	5.52
0.70463	5.52
0.72130	5.52
0.73797	5.52
0.75463	5.52
0.77130	5.52
0.78797	5.52
0.80463	5.52
0.82130	5.52
0.83797	5.52
0.85463	5.53
0.87130	5.53
0.88797	5.52
0.90463	5.52
0.92130	5.52
0.93797	5.52
0.95463	5.53
0.97130	5.52
0.98797	5.52
1.00463	5.52
1.02130	5.52
1.03797	5.52
1.05463	5.52
1.07130	5.52
1.08797	5.52
1.10463	5.52
1.12130	5.52
1.13797	5.52
1.15463	5.52
1.17130	5.52
1.18797	5.52
1.20463	5.52
1.22130	5.52
1.23797	5.52
1.25463	5.52
1.27130	5.52
1.28797	5.52
1.30463	5.52
1.32130	5.52
1.33797	5.52
1.35463	5.52
1.37130	5.52
1.38797	5.52
1.40463	5.52
1.42130	5.52
1.43797	5.52
1.45463	5.52
1.47130	5.52
1.48797	5.52
1.50463	5.52
1.52130	5.52
1.53797	5.52
1.55463	5.52
1.57130	5.52
1.58797	5.52
1.60463	5.52
1.62130	5.52
1.63797	5.51
1.65463	5.51
1.67130	5.50
1.68797	5.48
1.70463	5.47
1.72130	5.46
1.73797	5.45
1.75463	5.44
1.77130	5.43
1.78797	5.42
1.80463	5.41
1.82130	5.40
1.83797	5.39
1.85463	5.38
1.87130	5.37
1.88797	5.36
1.90463	5.35
1.92130	5.34
1.93797	5.33
1.95463	5.32
1.97130	5.31
1.98797	5.30
2.00463	5.29
2.02130	5.28
2.03797	5.27
2.05463	5.27
2.07130	5.26
2.08797	5.25
2.10463	5.24
2.12130	5.23
2.13797	5.22
2.15463	5.21
2.17130	5.20
2.18797	5.19
2.20463	5.18
2.22130	5.17
2.23797	5.16
2.25463	5.15
2.27130	5.14
2.28797	5.13
2.30463	5.13
2.32130	5.12
2.33797	5.11
2.35463	5.10
2.37130	5.09
2.38797	5.09
2.40463	5.09
2.42130	5.09
2.43797	5.09
2.45463	5.09
2.47130	5.09
2.48797	5.09
2.50463	5.09
2.52130	5.09
2.53797	5.09
2.55463	5.09
2.57130	5.09
2.58797	5.09
2.60463	5.09
2.62130	5.09
2.63797	5.09
2.65463	5.08
2.67130	5.08
2.68797	5.08
2.70463	5.08
2.72130	5.08
2.73797	5.08
2.75463	5.08
2.77130	5.08
2.78797	5.08
2.80463	5.08
2.82130	5.08
2.83797	5.08
2.85463	5.08
2.87130	5.08
2.88797	5.08
2.90463	5.08
2.92130	5.08
2.93797	5.08
2.95463	5.08
2.97130	5.08
2.98797	5.08
3.00463	5.08
3.02130	5.08
3.03797	5.08
3.05463	5.08
3.07130	5.08
3.08797	5.08
3.10463	5.08
3.12130	5.08
3.13797	5.08
3.15463	5.08
3.17130	5.08
3.18797	5.08
3.20463	5.08
3.22130	5.08
3.23797	5.08
3.25463	5.08
3.27130	5.08
3.28797	5.08
3.30463	5.08
3.32130	5.08
3.33797	5.08
3.35463	5.08
3.37130	5.08
3.38797	5.08
3.40463	5.08
3.42130	5.08
3.43797	5.08
3.45463	5.08
3.47130	5.08
3.48797	5.08
3.50463	5.08
3.52130	5.08
3.53797	5.08
3.55463	5.08
3.57130	5.08
3.58797	5.08
3.60463	5.08
3.62130	5.08
3.63797	5.08
3.65463	5.08
3.67130	5.08
3.68797	5.08
3.70463	5.08
3.72130	5.08
3.73797	5.08
3.75463	5.08
3.77130	5.08
3.78797	5.08
3.80463	5.08
3.82130	5.08
3.83797	5.08
3.85463	5.08
3.87130	5.08
3.88797	5.08
3.90463	5.08
3.92130	5.08
3.93797	5.08
3.95463	5.08
3.97130	5.08
3.98797	5.08

[Status Trace (Linear Velocity)]
Interval(msec)	1000
# of Points	240
Start Time(min)	0.005
End Time(min)	3.988
Intensity Units	
Intensity Multiplier	1
R.Time (min)	Intensity
0.00463	39.01
0.02130	37.61
0.03797	38.17
0.05463	39.56
0.07130	40.13
0.08797	39.11
0.10463	39.00
0.12130	39.02
0.13797	39.02
0.15463	39.02
0.17130	39.02
0.18797	39.02
0.20463	39.02
0.22130	39.02
0.23797	39.02
0.25463	39.02
0.27130	39.01
0.28797	39.01
0.30463	39.02
0.32130	39.02
0.33797	39.02
0.35463	39.02
0.37130	39.02
0.38797	39.02
0.40463	39.02
0.42130	39.02
0.43797	39.02
0.45463	39.02
0.47130	39.02
0.48797	39.02
0.50463	39.02
0.52130	39.02
0.53797	39.02
0.55463	39.02
0.57130	39.02
0.58797	39.02
0.60463	39.02
0.62130	39.02
0.63797	39.02
0.65463	39.02
0.67130	39.02
0.68797	39.02
0.70463	39.02
0.72130	39.02
0.73797	39.02
0.75463	39.02
0.77130	39.02
0.78797	39.02
0.80463	39.02
0.82130	39.02
0.83797	39.02
0.85463	39.02
0.87130	39.02
0.88797	39.02
0.90463	39.02
0.92130	39.02
0.93797	39.02
0.95463	39.02
0.97130	39.02
0.98797	39.02
1.00463	39.02
1.02130	39.02
1.03797	39.02
1.05463	39.02
1.07130	39.02
1.08797	39.02
1.10463	39.02
1.12130	39.02
1.13797	39.02
1.15463	39.02
1.17130	39.02
1.18797	39.02
1.20463	39.02
1.22130	39.02
1.23797	39.02
1.25463	39.02
1.27130	39.02
1.28797	39.02
1.30463	39.02
1.32130	39.02
1.33797	39.02
1.35463	39.02
1.37130	39.02
1.38797	39.02
1.40463	39.02
1.42130	39.02
1.43797	39.02
1.45463	39.02
1.47130	39.02
1.48797	39.02
1.50463	39.02
1.52130	39.02
1.53797	39.02
1.55463	39.02
1.57130	39.02
1.58797	39.02
1.60463	39.02
1.62130	39.01
1.63797	38.99
1.65463	38.97
1.67130	38.94
1.68797	38.90
1.70463	38.86
1.72130	38.83
1.73797	38.80
1.75463	38.77
1.77130	38.74
1.78797	38.71
1.80463	38.67
1.82130	38.64
1.83797	38.61
1.85463	38.58
1.87130	38.55
1.88797	38.52
1.90463	38.49
1.92130	38.46
1.93797	38.43
1.95463	38.40
1.97130	38.37
1.98797	38.34
2.00463	38.31
2.02130	38.28
2.03797	38.25
2.05463	38.22
2.07130	38.19
2.08797	38.16
2.10463	38.13
2.12130	38.10
2.13797	38.07
2.15463	38.04
2.17130	38.01
2.18797	37.98
2.20463	37.95
2.22130	37.92
2.23797	37.89
2.25463	37.86
2.27130	37.83
2.28797	37.80
2.30463	37.78
2.32130	37.74
2.33797	37.71
2.35463	37.69
2.37130	37.67
2.38797	37.66
2.40463	37.66
2.42130	37.66
2.43797	37.66
2.45463	37.66
2.47130	37.66
2.48797	37.66
2.50463	37.65
2.52130	37.65
2.53797	37.65
2.55463	37.66
2.57130	37.65
2.58797	37.65
2.60463	37.65
2.62130	37.65
2.63797	37.65
2.65463	37.65
2.67130	37.65
2.68797	37.65
2.70463	37.65
2.72130	37.65
2.73797	37.65
2.75463	37.65
2.77130	37.65
2.78797	37.65
2.80463	37.64
2.82130	37.64
2.83797	37.64
2.85463	37.64
2.87130	37.64
2.88797	37.64
2.90463	37.64
2.92130	37.64
2.93797	37.64
2.95463	37.64
2.97130	37.64
2.98797	37.63
3.00463	37.63
3.02130	37.63
3.03797	37.63
3.05463	37.63
3.07130	37.63
3.08797	37.63
3.10463	37.63
3.12130	37.63
3.13797	37.63
3.15463	37.63
3.17130	37.63
3.18797	37.63
3.20463	37.63
3.22130	37.63
3.23797	37.63
3.25463	37.62
3.27130	37.62
3.28797	37.62
3.30463	37.62
3.32130	37.63
3.33797	37.63
3.35463	37.63
3.37130	37.63
3.38797	37.63
3.40463	37.63
3.42130	37.63
3.43797	37.62
3.45463	37.62
3.47130	37.62
3.48797	37.62
3.50463	37.62
3.52130	37.62
3.53797	37.63
3.55463	37.63
3.57130	37.63
3.58797	37.63
3.60463	37.63
3.62130	37.63
3.63797	37.63
3.65463	37.63
3.67130	37.63
3.68797	37.63
3.70463	37.63
3.72130	37.63
3.73797	37.63
3.75463	37.63
3.77130	37.63
3.78797	37.63
3.80463	37.63
3.82130	37.63
3.83797	37.63
3.85463	37.63
3.87130	37.63
3.88797	37.63
3.90463	37.63
3.92130	37.63
3.93797	37.63
3.95463	37.63
3.97130	37.63
3.98797	37.63

