[Header]
Application Name	LabSolutions
Version	5.110
Data File Name	C:\Users\User\Desktop\GC Analyses\Jack\Nachusa Grasslands Sampling\T3 Timepoint July 12th\T3_07122022_062.gcd
Output Date	3/14/2023
Output Time	3:43:34 PM

[File Information]
Type	Data File
Generated	3/13/2023 9:23:46 PM
Generated by	System Administrator
Modified	3/13/2023 9:30:37 PM
Modified by	System Administrator

[Sample Information]
Operator Name	System Administrator
Acquired	3/13/2023 9:26:37 PM
Sample Type	0:Unknown
Level	0
Sample Name	062
Sample ID	062
ISTD Amount1	1
ISTD Amount2	1
ISTD Amount3	1
ISTD Amount4	1
ISTD Amount5	1
ISTD Amount6	1
ISTD Amount7	1
ISTD Amount8	1
ISTD Amount9	1
ISTD Amount10	1
ISTD Amount11	1
ISTD Amount12	1
ISTD Amount13	1
ISTD Amount14	1
ISTD Amount15	1
ISTD Amount16	1
ISTD Amount17	1
ISTD Amount18	1
ISTD Amount19	1
ISTD Amount20	1
ISTD Amount21	1
ISTD Amount22	1
ISTD Amount23	1
ISTD Amount24	1
ISTD Amount25	1
ISTD Amount26	1
ISTD Amount27	1
ISTD Amount28	1
ISTD Amount29	1
ISTD Amount30	1
ISTD Amount31	1
ISTD Amount32	1
Sample Amount	1
Dilution Factor	1
Vial#	61
Injection Volume	1
Injection Count	1
Bar Code	

[Original Files]
Data File	C:\Users\User\Desktop\GC Analyses\Jack\Nachusa Grasslands Sampling\T3 Timepoint July 12th\T3_07122022_062.gcd
Method File	C:\LabSolutions\Data\GHG_4min_2022\ghg3_togas_w_acet_4 min_new_int.gcm
Batch File	C:\LabSolutions\Data\AutoSamplerTesting\T3_07122022.gcb
Report Format File	c:\LabSolutions\System\DEFAULT.lsr

[File Description]


[Configuration]
Instrument Name	C0B7VH3-Instrument1
Instrument #	1
Line #	1
# of Detectors	3
Detector ID	DET#1	DET#2	DET#3
Detector Name	FID	PTCD	ECD
# of Channels	1	1	1

[Peak Table(Ch1)]
# of Peaks	3
Peak#	R.Time	I.Time	F.Time	Area	Height	A/H	Conc.	Mark	ID#	Name	k'	Plate #	Plate Ht.	Tailing	Resolution	Sep.Factor	Area Ratio	Height Ratio	Conc. %	Norm Conc.
1	1.476	1.432	1.534	24295	12008	2.023	171.522	   	1	CO	0.000	9641	15.559	1.236	0.000	0.000	0	0	13.692	13.692
2	1.571	1.538	1.633	4215	2140	1.969	81.505	   	2	CH4	0.065	11685	12.837	1.168	1.612	0.000	0	0	6.506	6.506
3	1.996	1.949	2.480	3983144	1919498	2.075	999.661	   	3	CO2	0.353	17306	8.667	1.311	7.158	5.462	0	0	79.801	79.801

[Peak Table(Ch2)]
# of Peaks	0

[Peak Table(Ch3)]
# of Peaks	4
Peak#	R.Time	I.Time	F.Time	Area	Height	A/H	Conc.	Mark	ID#	Name	k'	Plate #	Plate Ht.	Tailing	Resolution	Sep.Factor	Area Ratio	Height Ratio	Conc. %	Norm Conc.
1	2.462	2.297	2.510	2276	668	3.408	0.000	   			0.000	9949	15.077	0.000	0.000	0.000	0	0	0.000	0.000
2	2.532	2.510	2.678	1709	381	4.481	0.000	 V 			0.028	5710	26.271	0.000	0.599	0.000	0	0	0.000	0.000
3	2.880	2.704	3.104	19215	4723	4.068	0.491	   	1	N2O	0.170	12894	11.633	1.569	2.959	6.000	0	0	100.000	100.000
4	3.276	3.111	3.995	19640	641	30.660	0.000	   	2	SF6	0.331	208	721.208	2.606	0.784	1.947	0	0	0.000	0.000

[Compound Results(Ch1)]
# of IDs	6
ID#	Name	R.Time	Area	Height	Conc.	Curve	3rd	2nd	1st	Constant	Area Ratio	Height Ratio	Conc. %	Norm Conc.
1	CO	1.476	24295	12008	171.522	Linear	0.000000e+00	0.000000e+00	1.416423e+002	0.000000e+00	0	0	13.692	13.692
2	CH4	1.571	4215	2140	81.505	Linear	0.000000e+00	0.000000e+00	5.171738e+001	0.000000e+00	0	0	6.506	6.506
3	CO2	1.996	3983144	1919498	999.661	Linear	0.000000e+00	0.000000e+00	3.984494e+003	0.000000e+00	0	0	79.801	79.801
4	Ethylene	0.000	0	0	0.000	Linear	0.000000e+00	0.000000e+00	0.000000e+00	0.000000e+00	0	0	0.000	0.000
5	Acetylene	0.000	0	0	0.000	Linear	0.000000e+00	0.000000e+00	0.000000e+00	0.000000e+00	0	0	0.000	0.000
6	Ethane	0.000	0	0	0.000	Linear	0.000000e+00	0.000000e+00	0.000000e+00	0.000000e+00	0	0	0.000	0.000

[Compound Results(Ch2)]
# of IDs	5
ID#	Name	R.Time	Area	Height	Conc.	Curve	3rd	2nd	1st	Constant	Area Ratio	Height Ratio	Conc. %	Norm Conc.
1	Hydrogen	0.000	0	0	0.000	Linear	0.000000e+00	0.000000e+00	0.000000e+00	0.000000e+00	0	0	0.000	0.000
2	Oxygen	0.000	0	0	0.000	Linear	0.000000e+00	0.000000e+00	0.000000e+00	0.000000e+00	0	0	0.000	0.000
3	Nitrogen	0.000	0	0	0.000	Linear	0.000000e+00	0.000000e+00	0.000000e+00	0.000000e+00	0	0	0.000	0.000
4	Methane	0.000	0	0	0.000	Linear	0.000000e+00	0.000000e+00	0.000000e+00	0.000000e+00	0	0	0.000	0.000
5	Carbon Monoxide	0.000	0	0	0.000	Linear	0.000000e+00	0.000000e+00	0.000000e+00	0.000000e+00	0	0	0.000	0.000

[Compound Results(Ch3)]
# of IDs	2
ID#	Name	R.Time	Area	Height	Conc.	Curve	3rd	2nd	1st	Constant	Area Ratio	Height Ratio	Conc. %	Norm Conc.
1	N2O	2.880	19215	4723	0.491	Linear	0.000000e+00	0.000000e+00	3.915173e+004	0.000000e+00	0	0	100.000	100.000
2	SF6	3.276	19640	641	0.000	Linear	0.000000e+00	0.000000e+00	0.000000e+00	0.000000e+00	0	0	0.000	0.000

[Group Results(Ch1)]
# of Groups	0

[Group Results(Ch2)]
# of Groups	0

[Group Results(Ch3)]
# of Groups	0

[Chromatogram (Ch1)]
Interval(msec)	220
# of Points	1091
Start Time(min)	0.002
End Time(min)	3.998
R.Time (min)	Intensity
0.00167	-17
0.00533	-19
0.00900	-17
0.01267	-17
0.01633	-18
0.02000	-16
0.02367	-13
0.02733	-6
0.03100	-0
0.03467	4
0.03833	8
0.04200	15
0.04567	22
0.04933	27
0.05300	32
0.05667	40
0.06033	50
0.06400	57
0.06767	62
0.07133	70
0.07500	80
0.07867	84
0.08233	84
0.08600	80
0.08967	80
0.09333	82
0.09700	80
0.10067	78
0.10433	76
0.10800	77
0.11167	77
0.11533	79
0.11900	74
0.12267	65
0.12633	61
0.13000	58
0.13367	56
0.13733	58
0.14100	63
0.14467	64
0.14833	61
0.15200	57
0.15567	55
0.15933	53
0.16300	51
0.16667	50
0.17033	51
0.17400	55
0.17767	55
0.18133	50
0.18500	44
0.18867	40
0.19233	35
0.19600	31
0.19967	29
0.20333	26
0.20700	24
0.21067	23
0.21433	25
0.21800	28
0.22167	25
0.22533	16
0.22900	9
0.23267	3
0.23633	1
0.24000	-0
0.24367	-1
0.24733	2
0.25100	-1
0.25467	-8
0.25833	-13
0.26200	-15
0.26567	-13
0.26933	-9
0.27300	-7
0.27667	-7
0.28033	-3
0.28400	3
0.28767	3
0.29133	3
0.29500	2
0.29867	5
0.30233	10
0.30600	13
0.30967	10
0.31333	4
0.31700	-1
0.32067	-0
0.32433	7
0.32800	15
0.33167	15
0.33533	9
0.33900	2
0.34267	0
0.34633	1
0.35000	2
0.35367	3
0.35733	6
0.36100	6
0.36467	6
0.36833	6
0.37200	3
0.37567	1
0.37933	2
0.38300	8
0.38667	13
0.39033	14
0.39400	15
0.39767	17
0.40133	20
0.40500	22
0.40867	30
0.41233	33
0.41600	32
0.41967	29
0.42333	25
0.42700	23
0.43067	23
0.43433	22
0.43800	18
0.44167	12
0.44533	9
0.44900	7
0.45267	3
0.45633	2
0.46000	9
0.46367	18
0.46733	26
0.47100	31
0.47467	30
0.47833	26
0.48200	20
0.48567	16
0.48933	18
0.49300	22
0.49667	26
0.50033	31
0.50400	37
0.50767	42
0.51133	43
0.51500	44
0.51867	44
0.52233	43
0.52600	39
0.52967	30
0.53333	19
0.53700	10
0.54067	5
0.54433	3
0.54800	5
0.55167	9
0.55533	11
0.55900	11
0.56267	12
0.56633	12
0.57000	13
0.57367	18
0.57733	24
0.58100	27
0.58467	30
0.58833	34
0.59200	37
0.59567	35
0.59933	28
0.60300	24
0.60667	19
0.61033	12
0.61400	7
0.61767	6
0.62133	11
0.62500	18
0.62867	22
0.63233	21
0.63600	20
0.63967	18
0.64333	14
0.64700	9
0.65067	7
0.65433	14
0.65800	22
0.66167	23
0.66533	22
0.66900	20
0.67267	14
0.67633	9
0.68000	6
0.68367	5
0.68733	6
0.69100	9
0.69467	14
0.69833	14
0.70200	15
0.70567	23
0.70933	31
0.71300	33
0.71667	32
0.72033	31
0.72400	29
0.72767	26
0.73133	21
0.73500	19
0.73867	19
0.74233	19
0.74600	18
0.74967	18
0.75333	26
0.75700	36
0.76067	47
0.76433	54
0.76800	57
0.77167	60
0.77533	57
0.77900	46
0.78267	34
0.78633	23
0.79000	13
0.79367	1
0.79733	-8
0.80100	-9
0.80467	-3
0.80833	-0
0.81200	-1
0.81567	1
0.81933	5
0.82300	12
0.82667	14
0.83033	15
0.83400	16
0.83767	17
0.84133	25
0.84500	33
0.84867	34
0.85233	33
0.85600	34
0.85967	35
0.86333	35
0.86700	36
0.87067	35
0.87433	29
0.87800	20
0.88167	12
0.88533	8
0.88900	7
0.89267	4
0.89633	1
0.90000	3
0.90367	6
0.90733	6
0.91100	3
0.91467	3
0.91833	10
0.92200	17
0.92567	16
0.92933	16
0.93300	14
0.93667	11
0.94033	7
0.94400	5
0.94767	2
0.95133	5
0.95500	8
0.95867	5
0.96233	-1
0.96600	-5
0.96967	3
0.97333	21
0.97700	35
0.98067	41
0.98433	42
0.98800	43
0.99167	43
0.99533	42
0.99900	35
1.00267	23
1.00633	9
1.01000	0
1.01367	-6
1.01733	-11
1.02100	-15
1.02467	-15
1.02833	-9
1.03200	3
1.03567	14
1.03933	24
1.04300	28
1.04667	32
1.05033	34
1.05400	37
1.05767	40
1.06133	42
1.06500	44
1.06867	48
1.07233	53
1.07600	58
1.07967	59
1.08333	57
1.08700	52
1.09067	50
1.09433	49
1.09800	41
1.10167	31
1.10533	23
1.10900	21
1.11267	28
1.11633	37
1.12000	39
1.12367	33
1.12733	25
1.13100	21
1.13467	22
1.13833	30
1.14200	40
1.14567	49
1.14933	53
1.15300	53
1.15667	49
1.16033	43
1.16400	40
1.16767	33
1.17133	20
1.17500	12
1.17867	10
1.18233	11
1.18600	13
1.18967	15
1.19333	17
1.19700	20
1.20067	24
1.20433	27
1.20800	34
1.21167	41
1.21533	51
1.21900	55
1.22267	52
1.22633	49
1.23000	45
1.23367	37
1.23733	22
1.24100	6
1.24467	-8
1.24833	-12
1.25200	-11
1.25567	-9
1.25933	-8
1.26300	-4
1.26667	3
1.27033	9
1.27400	19
1.27767	27
1.28133	29
1.28500	27
1.28867	25
1.29233	23
1.29600	17
1.29967	11
1.30333	12
1.30700	17
1.31067	22
1.31433	28
1.31800	37
1.32167	41
1.32533	41
1.32900	39
1.33267	38
1.33633	33
1.34000	23
1.34367	17
1.34733	9
1.35100	2
1.35467	-7
1.35833	-13
1.36200	-13
1.36567	-7
1.36933	2
1.37300	9
1.37667	15
1.38033	23
1.38400	29
1.38767	27
1.39133	16
1.39500	3
1.39867	-4
1.40233	-5
1.40600	-6
1.40967	-9
1.41333	-13
1.41700	-14
1.42067	-16
1.42433	-18
1.42800	-20
1.43167	-17
1.43533	-10
1.43900	2
1.44267	44
1.44633	203
1.45000	654
1.45367	1699
1.45733	3532
1.46100	5849
1.46467	8125
1.46833	9999
1.47200	11310
1.47567	11946
1.47933	11785
1.48300	10808
1.48667	9204
1.49033	7312
1.49400	5471
1.49767	3897
1.50133	2665
1.50500	1754
1.50867	1111
1.51233	671
1.51600	378
1.51967	187
1.52333	61
1.52700	-23
1.53067	-82
1.53433	-122
1.53800	-140
1.54167	-107
1.54533	33
1.54900	321
1.55267	725
1.55633	1153
1.56000	1530
1.56367	1815
1.56733	1985
1.57100	2013
1.57467	1879
1.57833	1604
1.58200	1260
1.58567	919
1.58933	626
1.59300	399
1.59667	235
1.60033	120
1.60400	42
1.60767	-9
1.61133	-41
1.61500	-59
1.61867	-67
1.62233	-75
1.62600	-84
1.62967	-95
1.63333	-103
1.63700	-106
1.64067	-106
1.64433	-105
1.64800	-105
1.65167	-103
1.65533	-94
1.65900	-85
1.66267	-80
1.66633	-78
1.67000	-79
1.67367	-82
1.67733	-85
1.68100	-90
1.68467	-94
1.68833	-95
1.69200	-93
1.69567	-90
1.69933	-84
1.70300	-68
1.70667	-54
1.71033	-50
1.71400	-57
1.71767	-71
1.72133	-83
1.72500	-94
1.72867	-102
1.73233	-109
1.73600	-116
1.73967	-119
1.74333	-116
1.74700	-112
1.75067	-108
1.75433	-102
1.75800	-91
1.76167	-79
1.76533	-73
1.76900	-76
1.77267	-83
1.77633	-87
1.78000	-85
1.78367	-78
1.78733	-71
1.79100	-69
1.79467	-68
1.79833	-65
1.80200	-61
1.80567	-60
1.80933	-60
1.81300	-61
1.81667	-59
1.82033	-58
1.82400	-60
1.82767	-61
1.83133	-59
1.83500	-59
1.83867	-60
1.84233	-60
1.84600	-60
1.84967	-60
1.85333	-58
1.85700	-62
1.86067	-68
1.86433	-70
1.86800	-66
1.87167	-57
1.87533	-50
1.87900	-49
1.88267	-53
1.88633	-60
1.89000	-61
1.89367	-56
1.89733	-54
1.90100	-52
1.90467	-49
1.90833	-42
1.91200	-35
1.91567	-32
1.91933	-32
1.92300	-39
1.92667	-45
1.93033	-47
1.93400	-47
1.93767	-50
1.94133	-55
1.94500	-56
1.94867	-52
1.95233	-25
1.95600	167
1.95967	1405
1.96333	7687
1.96700	31914
1.97067	103220
1.97433	262351
1.97800	532610
1.98167	889345
1.98533	1267260
1.98900	1595852
1.99267	1822761
1.99633	1919480
2.00000	1881249
2.00367	1724785
2.00733	1485251
2.01100	1207254
2.01467	932535
2.01833	690490
2.02200	494934
2.02567	346835
2.02933	239823
2.03300	164989
2.03667	113774
2.04033	79166
2.04400	55915
2.04767	40283
2.05133	29713
2.05500	22486
2.05867	17463
2.06233	13909
2.06600	11347
2.06967	9460
2.07333	8040
2.07700	6951
2.08067	6094
2.08433	5409
2.08800	4849
2.09167	4379
2.09533	3979
2.09900	3636
2.10267	3343
2.10633	3090
2.11000	2868
2.11367	2673
2.11733	2500
2.12100	2347
2.12467	2212
2.12833	2090
2.13200	1980
2.13567	1878
2.13933	1788
2.14300	1706
2.14667	1632
2.15033	1565
2.15400	1501
2.15767	1441
2.16133	1389
2.16500	1337
2.16867	1282
2.17233	1232
2.17600	1186
2.17967	1140
2.18333	1097
2.18700	1061
2.19067	1030
2.19433	993
2.19800	958
2.20167	925
2.20533	897
2.20900	877
2.21267	857
2.21633	835
2.22000	814
2.22367	798
2.22733	790
2.23100	777
2.23467	758
2.23833	737
2.24200	719
2.24567	703
2.24933	694
2.25300	682
2.25667	668
2.26033	656
2.26400	646
2.26767	634
2.27133	616
2.27500	597
2.27867	581
2.28233	565
2.28600	550
2.28967	540
2.29333	531
2.29700	521
2.30067	512
2.30433	505
2.30800	506
2.31167	504
2.31533	497
2.31900	489
2.32267	483
2.32633	481
2.33000	474
2.33367	466
2.33733	464
2.34100	461
2.34467	452
2.34833	443
2.35200	435
2.35567	428
2.35933	420
2.36300	414
2.36667	411
2.37033	406
2.37400	399
2.37767	395
2.38133	394
2.38500	396
2.38867	396
2.39233	396
2.39600	395
2.39967	394
2.40333	393
2.40700	392
2.41067	389
2.41433	385
2.41800	381
2.42167	383
2.42533	386
2.42900	379
2.43267	369
2.43633	363
2.44000	360
2.44367	359
2.44733	361
2.45100	361
2.45467	356
2.45833	346
2.46200	341
2.46567	339
2.46933	337
2.47300	337
2.47667	335
2.48033	333
2.48400	330
2.48767	327
2.49133	328
2.49500	333
2.49867	338
2.50233	344
2.50600	348
2.50967	344
2.51333	336
2.51700	328
2.52067	323
2.52433	326
2.52800	332
2.53167	335
2.53533	335
2.53900	331
2.54267	323
2.54633	313
2.55000	304
2.55367	300
2.55733	300
2.56100	304
2.56467	304
2.56833	302
2.57200	300
2.57567	296
2.57933	288
2.58300	275
2.58667	264
2.59033	259
2.59400	260
2.59767	263
2.60133	266
2.60500	270
2.60867	277
2.61233	286
2.61600	294
2.61967	299
2.62333	304
2.62700	308
2.63067	312
2.63433	312
2.63800	309
2.64167	303
2.64533	300
2.64900	298
2.65267	298
2.65633	301
2.66000	305
2.66367	307
2.66733	305
2.67100	301
2.67467	298
2.67833	299
2.68200	304
2.68567	307
2.68933	303
2.69300	296
2.69667	290
2.70033	287
2.70400	286
2.70767	287
2.71133	290
2.71500	288
2.71867	281
2.72233	275
2.72600	276
2.72967	282
2.73333	287
2.73700	292
2.74067	297
2.74433	296
2.74800	293
2.75167	291
2.75533	294
2.75900	298
2.76267	300
2.76633	303
2.77000	303
2.77367	303
2.77733	302
2.78100	300
2.78467	296
2.78833	297
2.79200	298
2.79567	293
2.79933	287
2.80300	285
2.80667	286
2.81033	288
2.81400	288
2.81767	289
2.82133	294
2.82500	301
2.82867	307
2.83233	311
2.83600	310
2.83967	304
2.84333	297
2.84700	290
2.85067	284
2.85433	279
2.85800	277
2.86167	279
2.86533	284
2.86900	294
2.87267	305
2.87633	313
2.88000	315
2.88367	315
2.88733	315
2.89100	314
2.89467	312
2.89833	310
2.90200	306
2.90567	305
2.90933	300
2.91300	297
2.91667	303
2.92033	309
2.92400	308
2.92767	302
2.93133	295
2.93500	289
2.93867	285
2.94233	285
2.94600	286
2.94967	288
2.95333	287
2.95700	287
2.96067	288
2.96433	290
2.96800	295
2.97167	297
2.97533	301
2.97900	303
2.98267	305
2.98633	311
2.99000	316
2.99367	319
2.99733	317
3.00100	315
3.00467	316
3.00833	318
3.01200	318
3.01567	315
3.01933	311
3.02300	309
3.02667	308
3.03033	310
3.03400	311
3.03767	310
3.04133	310
3.04500	317
3.04867	317
3.05233	306
3.05600	293
3.05967	282
3.06333	272
3.06700	268
3.07067	268
3.07433	272
3.07800	271
3.08167	272
3.08533	278
3.08900	289
3.09267	296
3.09633	296
3.10000	293
3.10367	291
3.10733	287
3.11100	280
3.11467	275
3.11833	270
3.12200	269
3.12567	274
3.12933	283
3.13300	289
3.13667	292
3.14033	292
3.14400	290
3.14767	286
3.15133	281
3.15500	276
3.15867	275
3.16233	279
3.16600	285
3.16967	286
3.17333	282
3.17700	280
3.18067	277
3.18433	273
3.18800	272
3.19167	275
3.19533	279
3.19900	278
3.20267	268
3.20633	256
3.21000	249
3.21367	245
3.21733	249
3.22100	256
3.22467	263
3.22833	271
3.23200	273
3.23567	270
3.23933	268
3.24300	270
3.24667	272
3.25033	275
3.25400	278
3.25767	281
3.26133	283
3.26500	282
3.26867	275
3.27233	268
3.27600	260
3.27967	256
3.28333	254
3.28700	256
3.29067	259
3.29433	262
3.29800	265
3.30167	263
3.30533	259
3.30900	257
3.31267	257
3.31633	264
3.32000	269
3.32367	267
3.32733	261
3.33100	258
3.33467	258
3.33833	257
3.34200	259
3.34567	260
3.34933	255
3.35300	251
3.35667	251
3.36033	249
3.36400	243
3.36767	235
3.37133	232
3.37500	232
3.37867	229
3.38233	226
3.38600	226
3.38967	230
3.39333	236
3.39700	245
3.40067	254
3.40433	262
3.40800	267
3.41167	268
3.41533	264
3.41900	252
3.42267	236
3.42633	221
3.43000	208
3.43367	200
3.43733	198
3.44100	197
3.44467	198
3.44833	202
3.45200	209
3.45567	216
3.45933	222
3.46300	226
3.46667	227
3.47033	227
3.47400	226
3.47767	228
3.48133	230
3.48500	231
3.48867	230
3.49233	231
3.49600	234
3.49967	237
3.50333	234
3.50700	230
3.51067	227
3.51433	225
3.51800	219
3.52167	211
3.52533	206
3.52900	204
3.53267	205
3.53633	211
3.54000	221
3.54367	230
3.54733	235
3.55100	234
3.55467	227
3.55833	218
3.56200	208
3.56567	198
3.56933	193
3.57300	191
3.57667	190
3.58033	192
3.58400	194
3.58767	188
3.59133	183
3.59500	180
3.59867	182
3.60233	189
3.60600	198
3.60967	202
3.61333	200
3.61700	195
3.62067	189
3.62433	185
3.62800	182
3.63167	183
3.63533	187
3.63900	191
3.64267	196
3.64633	197
3.65000	198
3.65367	200
3.65733	205
3.66100	203
3.66467	194
3.66833	186
3.67200	183
3.67567	185
3.67933	192
3.68300	194
3.68667	191
3.69033	185
3.69400	179
3.69767	176
3.70133	178
3.70500	179
3.70867	178
3.71233	177
3.71600	178
3.71967	179
3.72333	178
3.72700	172
3.73067	168
3.73433	167
3.73800	172
3.74167	180
3.74533	184
3.74900	183
3.75267	178
3.75633	168
3.76000	158
3.76367	156
3.76733	163
3.77100	169
3.77467	170
3.77833	170
3.78200	170
3.78567	169
3.78933	169
3.79300	170
3.79667	174
3.80033	177
3.80400	176
3.80767	173
3.81133	172
3.81500	175
3.81867	177
3.82233	179
3.82600	180
3.82967	181
3.83333	185
3.83700	184
3.84067	182
3.84433	176
3.84800	158
3.85167	142
3.85533	136
3.85900	132
3.86267	131
3.86633	133
3.87000	133
3.87367	132
3.87733	133
3.88100	138
3.88467	144
3.88833	145
3.89200	143
3.89567	144
3.89933	146
3.90300	150
3.90667	154
3.91033	156
3.91400	159
3.91767	160
3.92133	156
3.92500	150
3.92867	144
3.93233	140
3.93600	137
3.93967	137
3.94333	141
3.94700	146
3.95067	147
3.95433	141
3.95800	132
3.96167	127
3.96533	126
3.96900	126
3.97267	125
3.97633	123
3.98000	121
3.98367	119
3.98733	123
3.99100	132
3.99467	140
3.99833	146

[Chromatogram (Ch2)]
Interval(msec)	220
# of Points	1091
Start Time(min)	0.002
End Time(min)	3.998
R.Time (min)	Intensity
0.00167	-1
0.00533	-1
0.00900	-2
0.01267	-2
0.01633	-2
0.02000	-2
0.02367	-2
0.02733	-2
0.03100	-2
0.03467	-2
0.03833	-2
0.04200	-3
0.04567	-2
0.04933	-2
0.05300	-2
0.05667	-2
0.06033	-2
0.06400	-2
0.06767	-2
0.07133	-2
0.07500	-2
0.07867	-2
0.08233	-1
0.08600	-1
0.08967	-1
0.09333	-1
0.09700	-1
0.10067	-1
0.10433	-1
0.10800	-1
0.11167	-1
0.11533	-1
0.11900	-1
0.12267	-1
0.12633	-0
0.13000	-0
0.13367	0
0.13733	0
0.14100	0
0.14467	0
0.14833	0
0.15200	0
0.15567	-0
0.15933	-0
0.16300	-1
0.16667	-1
0.17033	-1
0.17400	-2
0.17767	-2
0.18133	-2
0.18500	-2
0.18867	-2
0.19233	-2
0.19600	-2
0.19967	-2
0.20333	-2
0.20700	-3
0.21067	-3
0.21433	-3
0.21800	-3
0.22167	-3
0.22533	-3
0.22900	-3
0.23267	-3
0.23633	-3
0.24000	-2
0.24367	-2
0.24733	-2
0.25100	-2
0.25467	-2
0.25833	-2
0.26200	-3
0.26567	-3
0.26933	-3
0.27300	-3
0.27667	-3
0.28033	-4
0.28400	-4
0.28767	-4
0.29133	-4
0.29500	-4
0.29867	-3
0.30233	-3
0.30600	-3
0.30967	-3
0.31333	-3
0.31700	-3
0.32067	-3
0.32433	-3
0.32800	-3
0.33167	-3
0.33533	-3
0.33900	-3
0.34267	-4
0.34633	-4
0.35000	-4
0.35367	-4
0.35733	-4
0.36100	-4
0.36467	-4
0.36833	-4
0.37200	-4
0.37567	-4
0.37933	-4
0.38300	-4
0.38667	-3
0.39033	-3
0.39400	-3
0.39767	-2
0.40133	-2
0.40500	-2
0.40867	-1
0.41233	-1
0.41600	-1
0.41967	-2
0.42333	-2
0.42700	-2
0.43067	-3
0.43433	-3
0.43800	-3
0.44167	-3
0.44533	-4
0.44900	-4
0.45267	-4
0.45633	-4
0.46000	-4
0.46367	-4
0.46733	-4
0.47100	-4
0.47467	-4
0.47833	-3
0.48200	-3
0.48567	-3
0.48933	-3
0.49300	-3
0.49667	-3
0.50033	-3
0.50400	-3
0.50767	-3
0.51133	-3
0.51500	-2
0.51867	-2
0.52233	-3
0.52600	-3
0.52967	-3
0.53333	-3
0.53700	-3
0.54067	-4
0.54433	-4
0.54800	-3
0.55167	-3
0.55533	-3
0.55900	-3
0.56267	-3
0.56633	-3
0.57000	-3
0.57367	-3
0.57733	-2
0.58100	-2
0.58467	-2
0.58833	-1
0.59200	-1
0.59567	-1
0.59933	-1
0.60300	-1
0.60667	-1
0.61033	-1
0.61400	-1
0.61767	-1
0.62133	-1
0.62500	-1
0.62867	-1
0.63233	-1
0.63600	-2
0.63967	-2
0.64333	-2
0.64700	-2
0.65067	-2
0.65433	-2
0.65800	-3
0.66167	-3
0.66533	-3
0.66900	-3
0.67267	-3
0.67633	-3
0.68000	-2
0.68367	-2
0.68733	-2
0.69100	-2
0.69467	-2
0.69833	-2
0.70200	-2
0.70567	-2
0.70933	-2
0.71300	-3
0.71667	-3
0.72033	-3
0.72400	-4
0.72767	-4
0.73133	-4
0.73500	-4
0.73867	-4
0.74233	-4
0.74600	-4
0.74967	-4
0.75333	-4
0.75700	-4
0.76067	-3
0.76433	-3
0.76800	-3
0.77167	-3
0.77533	-3
0.77900	-3
0.78267	-3
0.78633	-3
0.79000	-3
0.79367	-3
0.79733	-3
0.80100	-3
0.80467	-3
0.80833	-3
0.81200	-3
0.81567	-2
0.81933	-2
0.82300	-2
0.82667	-3
0.83033	-3
0.83400	-3
0.83767	-3
0.84133	-4
0.84500	-4
0.84867	-4
0.85233	-4
0.85600	-5
0.85967	-5
0.86333	-5
0.86700	-6
0.87067	-6
0.87433	-6
0.87800	-6
0.88167	-6
0.88533	-6
0.88900	-6
0.89267	-6
0.89633	-6
0.90000	-6
0.90367	-7
0.90733	-7
0.91100	-7
0.91467	-7
0.91833	-7
0.92200	-7
0.92567	-7
0.92933	-7
0.93300	-7
0.93667	-6
0.94033	-6
0.94400	-6
0.94767	-5
0.95133	-5
0.95500	-4
0.95867	-4
0.96233	-4
0.96600	-3
0.96967	-3
0.97333	-2
0.97700	-2
0.98067	-2
0.98433	-2
0.98800	-2
0.99167	-2
0.99533	-2
0.99900	-2
1.00267	-2
1.00633	-2
1.01000	-2
1.01367	-2
1.01733	-2
1.02100	-3
1.02467	-3
1.02833	-3
1.03200	-3
1.03567	-3
1.03933	-3
1.04300	-3
1.04667	-3
1.05033	-3
1.05400	-3
1.05767	-3
1.06133	-4
1.06500	-4
1.06867	-4
1.07233	-4
1.07600	-4
1.07967	-3
1.08333	-3
1.08700	-3
1.09067	-3
1.09433	-3
1.09800	-3
1.10167	-3
1.10533	-3
1.10900	-3
1.11267	-3
1.11633	-3
1.12000	-3
1.12367	-3
1.12733	-3
1.13100	-3
1.13467	-4
1.13833	-4
1.14200	-4
1.14567	-4
1.14933	-4
1.15300	-5
1.15667	-5
1.16033	-5
1.16400	-6
1.16767	-6
1.17133	-6
1.17500	-6
1.17867	-6
1.18233	-7
1.18600	-7
1.18967	-7
1.19333	-7
1.19700	-7
1.20067	-7
1.20433	-7
1.20800	-7
1.21167	-6
1.21533	-6
1.21900	-6
1.22267	-6
1.22633	-5
1.23000	-5
1.23367	-5
1.23733	-5
1.24100	-5
1.24467	-5
1.24833	-5
1.25200	-5
1.25567	-5
1.25933	-5
1.26300	-5
1.26667	-5
1.27033	-5
1.27400	-5
1.27767	-5
1.28133	-5
1.28500	-6
1.28867	-6
1.29233	-6
1.29600	-6
1.29967	-6
1.30333	-6
1.30700	-6
1.31067	-7
1.31433	-7
1.31800	-7
1.32167	-7
1.32533	-6
1.32900	-6
1.33267	-6
1.33633	-6
1.34000	-6
1.34367	-6
1.34733	-6
1.35100	-5
1.35467	-5
1.35833	-5
1.36200	-5
1.36567	-5
1.36933	-5
1.37300	-5
1.37667	-5
1.38033	-5
1.38400	-5
1.38767	-5
1.39133	-5
1.39500	-6
1.39867	-6
1.40233	-6
1.40600	-6
1.40967	-6
1.41333	-6
1.41700	-6
1.42067	-6
1.42433	-6
1.42800	-6
1.43167	-6
1.43533	-6
1.43900	-6
1.44267	-6
1.44633	-5
1.45000	-5
1.45367	-5
1.45733	-5
1.46100	-6
1.46467	-6
1.46833	-6
1.47200	-6
1.47567	-6
1.47933	-5
1.48300	-5
1.48667	-5
1.49033	-5
1.49400	-5
1.49767	-5
1.50133	-4
1.50500	-4
1.50867	-5
1.51233	-5
1.51600	-5
1.51967	-5
1.52333	-5
1.52700	-5
1.53067	-6
1.53433	-6
1.53800	-6
1.54167	-7
1.54533	-7
1.54900	-7
1.55267	-7
1.55633	-7
1.56000	-7
1.56367	-7
1.56733	-7
1.57100	-7
1.57467	-7
1.57833	-7
1.58200	-6
1.58567	-6
1.58933	-6
1.59300	-6
1.59667	-6
1.60033	-7
1.60400	-8
1.60767	-10
1.61133	-11
1.61500	-14
1.61867	-16
1.62233	-19
1.62600	-22
1.62967	-25
1.63333	-28
1.63700	-32
1.64067	-35
1.64433	-38
1.64800	-42
1.65167	-45
1.65533	-49
1.65900	-52
1.66267	-56
1.66633	-60
1.67000	-64
1.67367	-69
1.67733	-73
1.68100	-78
1.68467	-83
1.68833	-87
1.69200	-91
1.69567	-94
1.69933	-98
1.70300	-100
1.70667	-102
1.71033	-104
1.71400	-106
1.71767	-107
1.72133	-108
1.72500	-109
1.72867	-110
1.73233	-111
1.73600	-112
1.73967	-112
1.74333	-112
1.74700	-112
1.75067	-112
1.75433	-112
1.75800	-112
1.76167	-113
1.76533	-113
1.76900	-114
1.77267	-115
1.77633	-116
1.78000	-117
1.78367	-118
1.78733	-118
1.79100	-118
1.79467	-118
1.79833	-118
1.80200	-117
1.80567	-116
1.80933	-115
1.81300	-114
1.81667	-113
1.82033	-113
1.82400	-112
1.82767	-113
1.83133	-113
1.83500	-113
1.83867	-114
1.84233	-114
1.84600	-115
1.84967	-115
1.85333	-115
1.85700	-115
1.86067	-115
1.86433	-115
1.86800	-116
1.87167	-116
1.87533	-117
1.87900	-117
1.88267	-116
1.88633	-116
1.89000	-116
1.89367	-116
1.89733	-116
1.90100	-116
1.90467	-116
1.90833	-115
1.91200	-115
1.91567	-115
1.91933	-114
1.92300	-114
1.92667	-114
1.93033	-114
1.93400	-114
1.93767	-114
1.94133	-115
1.94500	-115
1.94867	-115
1.95233	-115
1.95600	-114
1.95967	-114
1.96333	-113
1.96700	-113
1.97067	-112
1.97433	-112
1.97800	-112
1.98167	-112
1.98533	-112
1.98900	-112
1.99267	-112
1.99633	-112
2.00000	-112
2.00367	-111
2.00733	-111
2.01100	-112
2.01467	-112
2.01833	-112
2.02200	-112
2.02567	-112
2.02933	-112
2.03300	-112
2.03667	-111
2.04033	-111
2.04400	-110
2.04767	-109
2.05133	-108
2.05500	-107
2.05867	-106
2.06233	-105
2.06600	-105
2.06967	-104
2.07333	-104
2.07700	-104
2.08067	-104
2.08433	-105
2.08800	-105
2.09167	-104
2.09533	-104
2.09900	-103
2.10267	-103
2.10633	-102
2.11000	-102
2.11367	-102
2.11733	-102
2.12100	-102
2.12467	-102
2.12833	-102
2.13200	-101
2.13567	-101
2.13933	-101
2.14300	-100
2.14667	-100
2.15033	-100
2.15400	-99
2.15767	-99
2.16133	-98
2.16500	-97
2.16867	-97
2.17233	-96
2.17600	-96
2.17967	-96
2.18333	-96
2.18700	-96
2.19067	-96
2.19433	-96
2.19800	-96
2.20167	-95
2.20533	-94
2.20900	-93
2.21267	-93
2.21633	-92
2.22000	-92
2.22367	-92
2.22733	-91
2.23100	-91
2.23467	-91
2.23833	-91
2.24200	-90
2.24567	-90
2.24933	-89
2.25300	-89
2.25667	-89
2.26033	-89
2.26400	-89
2.26767	-90
2.27133	-91
2.27500	-92
2.27867	-92
2.28233	-93
2.28600	-93
2.28967	-92
2.29333	-91
2.29700	-90
2.30067	-89
2.30433	-88
2.30800	-86
2.31167	-85
2.31533	-84
2.31900	-83
2.32267	-83
2.32633	-82
2.33000	-82
2.33367	-82
2.33733	-82
2.34100	-81
2.34467	-81
2.34833	-80
2.35200	-79
2.35567	-78
2.35933	-77
2.36300	-75
2.36667	-73
2.37033	-71
2.37400	-68
2.37767	-65
2.38133	-62
2.38500	-58
2.38867	-54
2.39233	-49
2.39600	-45
2.39967	-40
2.40333	-36
2.40700	-32
2.41067	-28
2.41433	-24
2.41800	-22
2.42167	-19
2.42533	-17
2.42900	-15
2.43267	-14
2.43633	-13
2.44000	-12
2.44367	-11
2.44733	-10
2.45100	-10
2.45467	-9
2.45833	-9
2.46200	-8
2.46567	-8
2.46933	-7
2.47300	-6
2.47667	-5
2.48033	-4
2.48400	-3
2.48767	-1
2.49133	-0
2.49500	1
2.49867	1
2.50233	2
2.50600	2
2.50967	3
2.51333	3
2.51700	4
2.52067	4
2.52433	5
2.52800	6
2.53167	7
2.53533	8
2.53900	8
2.54267	9
2.54633	10
2.55000	10
2.55367	11
2.55733	11
2.56100	12
2.56467	12
2.56833	12
2.57200	12
2.57567	12
2.57933	12
2.58300	12
2.58667	12
2.59033	12
2.59400	11
2.59767	11
2.60133	11
2.60500	11
2.60867	11
2.61233	11
2.61600	11
2.61967	11
2.62333	11
2.62700	11
2.63067	11
2.63433	11
2.63800	12
2.64167	12
2.64533	12
2.64900	13
2.65267	13
2.65633	14
2.66000	14
2.66367	14
2.66733	15
2.67100	15
2.67467	15
2.67833	15
2.68200	16
2.68567	16
2.68933	17
2.69300	17
2.69667	18
2.70033	18
2.70400	18
2.70767	18
2.71133	18
2.71500	18
2.71867	18
2.72233	18
2.72600	18
2.72967	18
2.73333	18
2.73700	18
2.74067	19
2.74433	19
2.74800	19
2.75167	19
2.75533	20
2.75900	20
2.76267	21
2.76633	22
2.77000	22
2.77367	23
2.77733	23
2.78100	24
2.78467	24
2.78833	24
2.79200	24
2.79567	23
2.79933	22
2.80300	22
2.80667	21
2.81033	20
2.81400	20
2.81767	20
2.82133	20
2.82500	20
2.82867	20
2.83233	21
2.83600	21
2.83967	21
2.84333	20
2.84700	19
2.85067	15
2.85433	10
2.85800	2
2.86167	-10
2.86533	-25
2.86900	-45
2.87267	-69
2.87633	-97
2.88000	-130
2.88367	-167
2.88733	-208
2.89100	-253
2.89467	-300
2.89833	-350
2.90200	-403
2.90567	-457
2.90933	-511
2.91300	-567
2.91667	-622
2.92033	-678
2.92400	-732
2.92767	-785
2.93133	-836
2.93500	-889
2.93867	-945
2.94233	-1003
2.94600	-1055
2.94967	-1090
2.95333	-1100
2.95700	-1085
2.96067	-1046
2.96433	-989
2.96800	-920
2.97167	-843
2.97533	-763
2.97900	-683
2.98267	-606
2.98633	-534
2.99000	-468
2.99367	-407
2.99733	-353
3.00100	-305
3.00467	-262
3.00833	-225
3.01200	-192
3.01567	-164
3.01933	-139
3.02300	-118
3.02667	-99
3.03033	-84
3.03400	-71
3.03767	-59
3.04133	-49
3.04500	-41
3.04867	-34
3.05233	-27
3.05600	-22
3.05967	-17
3.06333	-13
3.06700	-10
3.07067	-7
3.07433	-4
3.07800	-2
3.08167	-0
3.08533	1
3.08900	3
3.09267	4
3.09633	5
3.10000	6
3.10367	7
3.10733	7
3.11100	8
3.11467	9
3.11833	9
3.12200	10
3.12567	10
3.12933	11
3.13300	11
3.13667	11
3.14033	12
3.14400	12
3.14767	12
3.15133	13
3.15500	13
3.15867	13
3.16233	14
3.16600	14
3.16967	14
3.17333	14
3.17700	15
3.18067	15
3.18433	15
3.18800	15
3.19167	15
3.19533	16
3.19900	16
3.20267	16
3.20633	16
3.21000	16
3.21367	16
3.21733	16
3.22100	16
3.22467	16
3.22833	16
3.23200	17
3.23567	17
3.23933	17
3.24300	18
3.24667	18
3.25033	18
3.25400	18
3.25767	18
3.26133	18
3.26500	18
3.26867	18
3.27233	19
3.27600	19
3.27967	19
3.28333	19
3.28700	19
3.29067	19
3.29433	19
3.29800	19
3.30167	19
3.30533	19
3.30900	19
3.31267	19
3.31633	19
3.32000	19
3.32367	19
3.32733	19
3.33100	19
3.33467	19
3.33833	19
3.34200	19
3.34567	20
3.34933	20
3.35300	20
3.35667	21
3.36033	21
3.36400	21
3.36767	21
3.37133	21
3.37500	21
3.37867	21
3.38233	21
3.38600	21
3.38967	21
3.39333	21
3.39700	21
3.40067	22
3.40433	22
3.40800	22
3.41167	22
3.41533	22
3.41900	22
3.42267	22
3.42633	22
3.43000	22
3.43367	22
3.43733	22
3.44100	22
3.44467	22
3.44833	22
3.45200	22
3.45567	22
3.45933	22
3.46300	22
3.46667	22
3.47033	22
3.47400	22
3.47767	22
3.48133	22
3.48500	23
3.48867	23
3.49233	23
3.49600	23
3.49967	23
3.50333	23
3.50700	24
3.51067	24
3.51433	24
3.51800	24
3.52167	24
3.52533	25
3.52900	25
3.53267	25
3.53633	25
3.54000	24
3.54367	24
3.54733	23
3.55100	23
3.55467	23
3.55833	23
3.56200	22
3.56567	22
3.56933	22
3.57300	22
3.57667	22
3.58033	22
3.58400	22
3.58767	22
3.59133	22
3.59500	22
3.59867	22
3.60233	22
3.60600	22
3.60967	22
3.61333	22
3.61700	22
3.62067	22
3.62433	22
3.62800	22
3.63167	22
3.63533	22
3.63900	22
3.64267	22
3.64633	22
3.65000	22
3.65367	22
3.65733	22
3.66100	22
3.66467	22
3.66833	22
3.67200	22
3.67567	21
3.67933	21
3.68300	21
3.68667	21
3.69033	21
3.69400	21
3.69767	21
3.70133	21
3.70500	21
3.70867	21
3.71233	21
3.71600	21
3.71967	21
3.72333	21
3.72700	21
3.73067	21
3.73433	21
3.73800	21
3.74167	21
3.74533	21
3.74900	21
3.75267	21
3.75633	21
3.76000	21
3.76367	21
3.76733	21
3.77100	21
3.77467	21
3.77833	21
3.78200	21
3.78567	21
3.78933	21
3.79300	21
3.79667	21
3.80033	21
3.80400	21
3.80767	22
3.81133	22
3.81500	22
3.81867	22
3.82233	22
3.82600	23
3.82967	23
3.83333	23
3.83700	23
3.84067	23
3.84433	23
3.84800	22
3.85167	22
3.85533	22
3.85900	22
3.86267	21
3.86633	21
3.87000	20
3.87367	20
3.87733	20
3.88100	20
3.88467	20
3.88833	21
3.89200	21
3.89567	21
3.89933	21
3.90300	22
3.90667	22
3.91033	22
3.91400	22
3.91767	22
3.92133	22
3.92500	22
3.92867	22
3.93233	22
3.93600	22
3.93967	22
3.94333	22
3.94700	22
3.95067	22
3.95433	22
3.95800	22
3.96167	22
3.96533	22
3.96900	22
3.97267	22
3.97633	22
3.98000	22
3.98367	22
3.98733	22
3.99100	22
3.99467	22
3.99833	22

[Chromatogram (Ch3)]
Interval(msec)	220
# of Points	1091
Start Time(min)	0.002
End Time(min)	3.998
R.Time (min)	Intensity
0.00167	-1
0.00533	-2
0.00900	-2
0.01267	-1
0.01633	-0
0.02000	-1
0.02367	-3
0.02733	-5
0.03100	-6
0.03467	-5
0.03833	-5
0.04200	-6
0.04567	-7
0.04933	-6
0.05300	-4
0.05667	-1
0.06033	2
0.06400	5
0.06767	4
0.07133	2
0.07500	-1
0.07867	-4
0.08233	-5
0.08600	-6
0.08967	-6
0.09333	-4
0.09700	-2
0.10067	-2
0.10433	-3
0.10800	-4
0.11167	-3
0.11533	-1
0.11900	-0
0.12267	-1
0.12633	-1
0.13000	-2
0.13367	-3
0.13733	-4
0.14100	-4
0.14467	-6
0.14833	-8
0.15200	-5
0.15567	-4
0.15933	-2
0.16300	0
0.16667	2
0.17033	2
0.17400	2
0.17767	3
0.18133	2
0.18500	0
0.18867	0
0.19233	1
0.19600	2
0.19967	4
0.20333	5
0.20700	5
0.21067	3
0.21433	2
0.21800	3
0.22167	3
0.22533	4
0.22900	5
0.23267	7
0.23633	8
0.24000	8
0.24367	9
0.24733	10
0.25100	9
0.25467	7
0.25833	6
0.26200	7
0.26567	6
0.26933	4
0.27300	5
0.27667	6
0.28033	7
0.28400	8
0.28767	9
0.29133	9
0.29500	9
0.29867	9
0.30233	8
0.30600	7
0.30967	6
0.31333	7
0.31700	8
0.32067	9
0.32433	10
0.32800	9
0.33167	7
0.33533	4
0.33900	3
0.34267	3
0.34633	1
0.35000	0
0.35367	2
0.35733	5
0.36100	7
0.36467	6
0.36833	4
0.37200	3
0.37567	2
0.37933	0
0.38300	-0
0.38667	2
0.39033	3
0.39400	2
0.39767	0
0.40133	-1
0.40500	1
0.40867	3
0.41233	3
0.41600	4
0.41967	6
0.42333	7
0.42700	8
0.43067	8
0.43433	7
0.43800	7
0.44167	5
0.44533	4
0.44900	4
0.45267	4
0.45633	4
0.46000	4
0.46367	6
0.46733	6
0.47100	6
0.47467	6
0.47833	6
0.48200	5
0.48567	4
0.48933	3
0.49300	5
0.49667	5
0.50033	5
0.50400	4
0.50767	2
0.51133	-1
0.51500	-1
0.51867	1
0.52233	2
0.52600	3
0.52967	4
0.53333	3
0.53700	1
0.54067	1
0.54433	1
0.54800	-0
0.55167	0
0.55533	1
0.55900	2
0.56267	4
0.56633	6
0.57000	6
0.57367	5
0.57733	4
0.58100	3
0.58467	2
0.58833	-0
0.59200	-1
0.59567	1
0.59933	2
0.60300	4
0.60667	5
0.61033	7
0.61400	8
0.61767	8
0.62133	7
0.62500	6
0.62867	5
0.63233	4
0.63600	4
0.63967	3
0.64333	3
0.64700	5
0.65067	5
0.65433	6
0.65800	8
0.66167	8
0.66533	8
0.66900	8
0.67267	8
0.67633	8
0.68000	9
0.68367	8
0.68733	8
0.69100	7
0.69467	5
0.69833	4
0.70200	4
0.70567	3
0.70933	4
0.71300	5
0.71667	5
0.72033	3
0.72400	1
0.72767	-1
0.73133	-1
0.73500	1
0.73867	3
0.74233	4
0.74600	3
0.74967	3
0.75333	3
0.75700	3
0.76067	2
0.76433	3
0.76800	2
0.77167	2
0.77533	2
0.77900	2
0.78267	1
0.78633	1
0.79000	1
0.79367	0
0.79733	0
0.80100	2
0.80467	4
0.80833	4
0.81200	4
0.81567	1
0.81933	-1
0.82300	1
0.82667	2
0.83033	2
0.83400	3
0.83767	4
0.84133	5
0.84500	6
0.84867	8
0.85233	10
0.85600	11
0.85967	12
0.86333	12
0.86700	12
0.87067	13
0.87433	13
0.87800	11
0.88167	10
0.88533	8
0.88900	7
0.89267	7
0.89633	7
0.90000	6
0.90367	5
0.90733	4
0.91100	3
0.91467	5
0.91833	7
0.92200	8
0.92567	8
0.92933	7
0.93300	7
0.93667	9
0.94033	11
0.94400	14
0.94767	14
0.95133	13
0.95500	12
0.95867	11
0.96233	10
0.96600	11
0.96967	12
0.97333	11
0.97700	14
0.98067	16
0.98433	15
0.98800	13
0.99167	14
0.99533	15
0.99900	18
1.00267	19
1.00633	18
1.01000	19
1.01367	18
1.01733	15
1.02100	13
1.02467	12
1.02833	11
1.03200	13
1.03567	13
1.03933	14
1.04300	14
1.04667	14
1.05033	14
1.05400	13
1.05767	14
1.06133	14
1.06500	16
1.06867	18
1.07233	19
1.07600	20
1.07967	21
1.08333	20
1.08700	18
1.09067	17
1.09433	16
1.09800	17
1.10167	17
1.10533	16
1.10900	14
1.11267	12
1.11633	12
1.12000	11
1.12367	10
1.12733	11
1.13100	12
1.13467	13
1.13833	14
1.14200	15
1.14567	15
1.14933	14
1.15300	14
1.15667	14
1.16033	15
1.16400	15
1.16767	16
1.17133	19
1.17500	20
1.17867	17
1.18233	13
1.18600	14
1.18967	16
1.19333	15
1.19700	15
1.20067	16
1.20433	17
1.20800	17
1.21167	17
1.21533	17
1.21900	16
1.22267	18
1.22633	17
1.23000	17
1.23367	19
1.23733	20
1.24100	20
1.24467	20
1.24833	20
1.25200	21
1.25567	20
1.25933	19
1.26300	17
1.26667	15
1.27033	14
1.27400	13
1.27767	15
1.28133	17
1.28500	19
1.28867	20
1.29233	20
1.29600	18
1.29967	17
1.30333	18
1.30700	21
1.31067	22
1.31433	21
1.31800	20
1.32167	18
1.32533	19
1.32900	19
1.33267	21
1.33633	22
1.34000	25
1.34367	25
1.34733	25
1.35100	24
1.35467	23
1.35833	22
1.36200	22
1.36567	23
1.36933	26
1.37300	27
1.37667	25
1.38033	23
1.38400	23
1.38767	24
1.39133	27
1.39500	29
1.39867	29
1.40233	27
1.40600	25
1.40967	23
1.41333	22
1.41700	23
1.42067	26
1.42433	25
1.42800	24
1.43167	27
1.43533	28
1.43900	27
1.44267	27
1.44633	27
1.45000	28
1.45367	27
1.45733	26
1.46100	26
1.46467	24
1.46833	24
1.47200	26
1.47567	29
1.47933	33
1.48300	35
1.48667	35
1.49033	34
1.49400	35
1.49767	36
1.50133	34
1.50500	32
1.50867	31
1.51233	31
1.51600	31
1.51967	30
1.52333	28
1.52700	26
1.53067	26
1.53433	29
1.53800	32
1.54167	32
1.54533	33
1.54900	34
1.55267	33
1.55633	34
1.56000	35
1.56367	36
1.56733	35
1.57100	33
1.57467	30
1.57833	29
1.58200	28
1.58567	28
1.58933	29
1.59300	29
1.59667	29
1.60033	27
1.60400	28
1.60767	30
1.61133	34
1.61500	35
1.61867	35
1.62233	36
1.62600	36
1.62967	36
1.63333	36
1.63700	36
1.64067	37
1.64433	37
1.64800	38
1.65167	41
1.65533	42
1.65900	41
1.66267	42
1.66633	44
1.67000	46
1.67367	48
1.67733	50
1.68100	50
1.68467	50
1.68833	52
1.69200	52
1.69567	52
1.69933	52
1.70300	51
1.70667	49
1.71033	49
1.71400	50
1.71767	53
1.72133	56
1.72500	58
1.72867	61
1.73233	61
1.73600	61
1.73967	62
1.74333	62
1.74700	62
1.75067	63
1.75433	63
1.75800	62
1.76167	62
1.76533	62
1.76900	63
1.77267	66
1.77633	66
1.78000	66
1.78367	65
1.78733	64
1.79100	64
1.79467	66
1.79833	68
1.80200	68
1.80567	68
1.80933	69
1.81300	70
1.81667	70
1.82033	70
1.82400	69
1.82767	70
1.83133	70
1.83500	72
1.83867	75
1.84233	77
1.84600	77
1.84967	76
1.85333	76
1.85700	76
1.86067	78
1.86433	78
1.86800	78
1.87167	79
1.87533	79
1.87900	78
1.88267	76
1.88633	76
1.89000	76
1.89367	80
1.89733	86
1.90100	87
1.90467	89
1.90833	90
1.91200	91
1.91567	90
1.91933	90
1.92300	90
1.92667	90
1.93033	91
1.93400	91
1.93767	90
1.94133	89
1.94500	90
1.94867	90
1.95233	89
1.95600	89
1.95967	90
1.96333	90
1.96700	92
1.97067	93
1.97433	95
1.97800	98
1.98167	103
1.98533	105
1.98900	107
1.99267	106
1.99633	104
2.00000	103
2.00367	103
2.00733	103
2.01100	103
2.01467	105
2.01833	108
2.02200	110
2.02567	110
2.02933	112
2.03300	115
2.03667	116
2.04033	116
2.04400	119
2.04767	121
2.05133	123
2.05500	123
2.05867	123
2.06233	123
2.06600	125
2.06967	125
2.07333	126
2.07700	126
2.08067	128
2.08433	130
2.08800	134
2.09167	136
2.09533	138
2.09900	138
2.10267	139
2.10633	141
2.11000	142
2.11367	141
2.11733	140
2.12100	140
2.12467	141
2.12833	143
2.13200	146
2.13567	147
2.13933	148
2.14300	149
2.14667	152
2.15033	154
2.15400	155
2.15767	156
2.16133	160
2.16500	163
2.16867	164
2.17233	166
2.17600	169
2.17967	169
2.18333	170
2.18700	170
2.19067	169
2.19433	169
2.19800	169
2.20167	170
2.20533	173
2.20900	174
2.21267	176
2.21633	179
2.22000	179
2.22367	178
2.22733	180
2.23100	182
2.23467	186
2.23833	187
2.24200	188
2.24567	190
2.24933	189
2.25300	190
2.25667	191
2.26033	193
2.26400	192
2.26767	191
2.27133	193
2.27500	196
2.27867	198
2.28233	199
2.28600	201
2.28967	202
2.29333	202
2.29700	202
2.30067	202
2.30433	202
2.30800	202
2.31167	203
2.31533	205
2.31900	206
2.32267	204
2.32633	206
2.33000	207
2.33367	210
2.33733	212
2.34100	213
2.34467	214
2.34833	214
2.35200	214
2.35567	215
2.35933	217
2.36300	220
2.36667	221
2.37033	224
2.37400	224
2.37767	223
2.38133	222
2.38500	221
2.38867	221
2.39233	223
2.39600	227
2.39967	231
2.40333	235
2.40700	240
2.41067	240
2.41433	239
2.41800	238
2.42167	238
2.42533	237
2.42900	238
2.43267	239
2.43633	240
2.44000	245
2.44367	304
2.44733	454
2.45100	613
2.45467	742
2.45833	812
2.46200	815
2.46567	782
2.46933	745
2.47300	718
2.47667	703
2.48033	686
2.48400	654
2.48767	608
2.49133	557
2.49500	511
2.49867	474
2.50233	448
2.50600	432
2.50967	429
2.51333	435
2.51700	452
2.52067	475
2.52433	495
2.52800	506
2.53167	505
2.53533	490
2.53900	463
2.54267	431
2.54633	398
2.55000	368
2.55367	343
2.55733	323
2.56100	307
2.56467	295
2.56833	287
2.57200	282
2.57567	278
2.57933	277
2.58300	276
2.58667	275
2.59033	275
2.59400	275
2.59767	274
2.60133	273
2.60500	268
2.60867	258
2.61233	244
2.61600	229
2.61967	212
2.62333	196
2.62700	185
2.63067	175
2.63433	165
2.63800	155
2.64167	147
2.64533	141
2.64900	133
2.65267	124
2.65633	116
2.66000	108
2.66367	100
2.66733	92
2.67100	86
2.67467	80
2.67833	75
2.68200	71
2.68567	68
2.68933	69
2.69300	70
2.69667	70
2.70033	71
2.70400	73
2.70767	76
2.71133	80
2.71500	85
2.71867	89
2.72233	94
2.72600	100
2.72967	105
2.73333	108
2.73700	111
2.74067	114
2.74433	119
2.74800	124
2.75167	128
2.75533	131
2.75900	134
2.76267	137
2.76633	140
2.77000	142
2.77367	146
2.77733	150
2.78100	152
2.78467	155
2.78833	159
2.79200	162
2.79567	166
2.79933	170
2.80300	174
2.80667	180
2.81033	186
2.81400	193
2.81767	202
2.82133	214
2.82500	233
2.82867	266
2.83233	327
2.83600	439
2.83967	623
2.84333	897
2.84700	1268
2.85067	1733
2.85433	2273
2.85800	2850
2.86167	3420
2.86533	3934
2.86900	4354
2.87267	4646
2.87633	4797
2.88000	4814
2.88367	4709
2.88733	4506
2.89100	4235
2.89467	3926
2.89833	3596
2.90200	3262
2.90567	2937
2.90933	2629
2.91300	2345
2.91667	2088
2.92033	1854
2.92400	1645
2.92767	1460
2.93133	1296
2.93500	1149
2.93867	1020
2.94233	910
2.94600	814
2.94967	732
2.95333	660
2.95700	597
2.96067	543
2.96433	496
2.96800	455
2.97167	418
2.97533	386
2.97900	360
2.98267	336
2.98633	315
2.99000	299
2.99367	283
2.99733	269
3.00100	258
3.00467	247
3.00833	238
3.01200	229
3.01567	222
3.01933	216
3.02300	210
3.02667	206
3.03033	204
3.03400	202
3.03767	199
3.04133	196
3.04500	195
3.04867	193
3.05233	191
3.05600	191
3.05967	190
3.06333	191
3.06700	190
3.07067	188
3.07433	187
3.07800	190
3.08167	191
3.08533	191
3.08900	186
3.09267	171
3.09633	145
3.10000	123
3.10367	112
3.10733	113
3.11100	124
3.11467	145
3.11833	179
3.12200	221
3.12567	265
3.12933	312
3.13300	359
3.13667	404
3.14033	446
3.14400	485
3.14767	517
3.15133	545
3.15500	571
3.15867	594
3.16233	614
3.16600	632
3.16967	648
3.17333	663
3.17700	676
3.18067	686
3.18433	695
3.18800	704
3.19167	713
3.19533	724
3.19900	735
3.20267	742
3.20633	748
3.21000	754
3.21367	759
3.21733	765
3.22100	773
3.22467	780
3.22833	785
3.23200	792
3.23567	800
3.23933	807
3.24300	813
3.24667	817
3.25033	820
3.25400	824
3.25767	829
3.26133	834
3.26500	837
3.26867	841
3.27233	846
3.27600	848
3.27967	849
3.28333	851
3.28700	852
3.29067	854
3.29433	856
3.29800	855
3.30167	856
3.30533	855
3.30900	856
3.31267	860
3.31633	863
3.32000	863
3.32367	863
3.32733	864
3.33100	864
3.33467	863
3.33833	862
3.34200	862
3.34567	863
3.34933	865
3.35300	866
3.35667	864
3.36033	862
3.36400	862
3.36767	860
3.37133	858
3.37500	857
3.37867	856
3.38233	853
3.38600	851
3.38967	851
3.39333	850
3.39700	849
3.40067	847
3.40433	846
3.40800	843
3.41167	840
3.41533	836
3.41900	833
3.42267	832
3.42633	831
3.43000	831
3.43367	830
3.43733	828
3.44100	827
3.44467	823
3.44833	820
3.45200	819
3.45567	819
3.45933	818
3.46300	815
3.46667	813
3.47033	810
3.47400	808
3.47767	805
3.48133	802
3.48500	798
3.48867	795
3.49233	794
3.49600	795
3.49967	796
3.50333	797
3.50700	796
3.51067	796
3.51433	795
3.51800	791
3.52167	789
3.52533	787
3.52900	785
3.53267	784
3.53633	786
3.54000	785
3.54367	784
3.54733	783
3.55100	783
3.55467	781
3.55833	780
3.56200	779
3.56567	777
3.56933	775
3.57300	775
3.57667	774
3.58033	774
3.58400	772
3.58767	770
3.59133	767
3.59500	765
3.59867	765
3.60233	764
3.60600	763
3.60967	762
3.61333	762
3.61700	762
3.62067	761
3.62433	758
3.62800	754
3.63167	750
3.63533	748
3.63900	747
3.64267	744
3.64633	741
3.65000	740
3.65367	741
3.65733	742
3.66100	742
3.66467	742
3.66833	740
3.67200	738
3.67567	734
3.67933	732
3.68300	731
3.68667	728
3.69033	727
3.69400	725
3.69767	723
3.70133	719
3.70500	715
3.70867	712
3.71233	710
3.71600	708
3.71967	705
3.72333	701
3.72700	698
3.73067	697
3.73433	696
3.73800	695
3.74167	693
3.74533	691
3.74900	686
3.75267	680
3.75633	676
3.76000	673
3.76367	672
3.76733	671
3.77100	672
3.77467	673
3.77833	673
3.78200	671
3.78567	667
3.78933	665
3.79300	662
3.79667	659
3.80033	658
3.80400	658
3.80767	656
3.81133	654
3.81500	652
3.81867	648
3.82233	644
3.82600	641
3.82967	640
3.83333	638
3.83700	637
3.84067	636
3.84433	636
3.84800	634
3.85167	630
3.85533	627
3.85900	625
3.86267	624
3.86633	625
3.87000	625
3.87367	624
3.87733	620
3.88100	616
3.88467	613
3.88833	612
3.89200	610
3.89567	608
3.89933	607
3.90300	603
3.90667	601
3.91033	601
3.91400	598
3.91767	597
3.92133	596
3.92500	595
3.92867	594
3.93233	593
3.93600	593
3.93967	591
3.94333	588
3.94700	583
3.95067	579
3.95433	578
3.95800	578
3.96167	577
3.96533	576
3.96900	574
3.97267	572
3.97633	571
3.98000	571
3.98367	572
3.98733	572
3.99100	573
3.99467	571
3.99833	566

[Status Trace (Column Oven Temperature)]
Interval(msec)	1000
# of Points	240
Start Time(min)	0.003
End Time(min)	3.986
Intensity Units	
Intensity Multiplier	1
R.Time (min)	Intensity
0.00303	35.04
0.01970	35.04
0.03637	35.04
0.05303	35.03
0.06970	35.03
0.08637	35.03
0.10303	35.03
0.11970	35.03
0.13637	35.02
0.15303	35.01
0.16970	35.01
0.18637	35.00
0.20303	35.00
0.21970	35.00
0.23637	35.00
0.25303	35.01
0.26970	35.01
0.28637	35.02
0.30303	35.02
0.31970	35.02
0.33637	35.02
0.35303	35.03
0.36970	35.04
0.38637	35.02
0.40303	35.02
0.41970	35.01
0.43637	35.02
0.45303	35.02
0.46970	35.02
0.48637	35.01
0.50303	35.00
0.51970	35.01
0.53637	35.01
0.55303	35.01
0.56970	35.01
0.58637	35.00
0.60303	35.00
0.61970	34.99
0.63637	34.99
0.65303	35.00
0.66970	35.00
0.68637	35.00
0.70303	35.00
0.71970	35.01
0.73637	35.01
0.75303	35.01
0.76970	35.00
0.78637	35.00
0.80303	34.99
0.81970	34.99
0.83637	35.00
0.85303	35.00
0.86970	35.01
0.88637	35.02
0.90303	35.03
0.91970	35.03
0.93637	35.04
0.95303	35.03
0.96970	35.02
0.98637	35.01
1.00303	35.01
1.01970	35.01
1.03637	35.00
1.05303	35.00
1.06970	35.00
1.08637	34.99
1.10303	35.00
1.11970	34.99
1.13637	34.99
1.15303	34.99
1.16970	34.99
1.18637	34.99
1.20303	35.00
1.21970	34.99
1.23637	35.00
1.25303	35.00
1.26970	35.00
1.28637	35.01
1.30303	35.01
1.31970	35.02
1.33637	35.02
1.35303	35.01
1.36970	35.00
1.38637	35.01
1.40303	35.00
1.41970	35.01
1.43637	35.01
1.45303	35.01
1.46970	35.01
1.48637	35.00
1.50303	34.99
1.51970	35.00
1.53637	35.00
1.55303	35.00
1.56970	35.00
1.58637	35.01
1.60303	35.05
1.61970	35.15
1.63637	35.32
1.65303	35.55
1.66970	35.87
1.68637	36.22
1.70303	36.57
1.71970	36.91
1.73637	37.25
1.75303	37.58
1.76970	37.92
1.78637	38.26
1.80303	38.57
1.81970	38.88
1.83637	39.21
1.85303	39.53
1.86970	39.88
1.88637	40.21
1.90303	40.55
1.91970	40.86
1.93637	41.19
1.95303	41.51
1.96970	41.84
1.98637	42.18
2.00303	42.50
2.01970	42.84
2.03637	43.17
2.05303	43.48
2.06970	43.80
2.08637	44.14
2.10303	44.46
2.11970	44.80
2.13637	45.11
2.15303	45.44
2.16970	45.76
2.18637	46.09
2.20303	46.42
2.21970	46.73
2.23637	47.06
2.25303	47.38
2.26970	47.78
2.28637	48.13
2.30303	48.44
2.31970	48.76
2.33637	49.08
2.35303	49.36
2.36970	49.55
2.38637	49.65
2.40303	49.65
2.41970	49.65
2.43637	49.66
2.45303	49.67
2.46970	49.68
2.48637	49.69
2.50303	49.71
2.51970	49.73
2.53637	49.74
2.55303	49.75
2.56970	49.76
2.58637	49.77
2.60303	49.79
2.61970	49.82
2.63637	49.83
2.65303	49.83
2.66970	49.85
2.68637	49.85
2.70303	49.84
2.71970	49.86
2.73637	49.87
2.75303	49.86
2.76970	49.85
2.78637	49.85
2.80303	49.88
2.81970	49.88
2.83637	49.89
2.85303	49.87
2.86970	49.87
2.88637	49.88
2.90303	49.90
2.91970	49.91
2.93637	49.92
2.95303	49.93
2.96970	49.95
2.98637	49.96
3.00303	49.98
3.01970	49.99
3.03637	50.00
3.05303	50.01
3.06970	50.01
3.08637	50.01
3.10303	50.01
3.11970	50.02
3.13637	50.02
3.15303	50.03
3.16970	50.04
3.18637	50.05
3.20303	50.06
3.21970	50.07
3.23637	50.08
3.25303	50.08
3.26970	50.09
3.28637	50.10
3.30303	50.10
3.31970	50.10
3.33637	50.10
3.35303	50.10
3.36970	50.10
3.38637	50.10
3.40303	50.10
3.41970	50.10
3.43637	50.09
3.45303	50.09
3.46970	50.09
3.48637	50.08
3.50303	50.06
3.51970	50.05
3.53637	50.04
3.55303	50.04
3.56970	50.04
3.58637	50.04
3.60303	50.04
3.61970	50.04
3.63637	50.05
3.65303	50.05
3.66970	50.05
3.68637	50.05
3.70303	50.05
3.71970	50.05
3.73637	50.05
3.75303	50.06
3.76970	50.08
3.78637	50.08
3.80303	50.08
3.81970	50.07
3.83637	50.06
3.85303	50.06
3.86970	50.07
3.88637	50.06
3.90303	50.07
3.91970	50.07
3.93637	50.07
3.95303	50.07
3.96970	50.08
3.98637	50.07

[Status Trace (Injection Unit Temperature)]
Interval(msec)	1000
# of Points	240
Start Time(min)	0.003
End Time(min)	3.986
Intensity Units	
Intensity Multiplier	1
R.Time (min)	Intensity
0.00303	99.98
0.01970	99.97
0.03637	99.97
0.05303	99.97
0.06970	99.98
0.08637	99.98
0.10303	99.98
0.11970	99.98
0.13637	99.98
0.15303	99.98
0.16970	99.98
0.18637	99.98
0.20303	99.98
0.21970	99.98
0.23637	99.98
0.25303	99.98
0.26970	99.98
0.28637	99.98
0.30303	99.98
0.31970	99.98
0.33637	99.98
0.35303	99.98
0.36970	99.99
0.38637	99.98
0.40303	99.98
0.41970	99.98
0.43637	99.98
0.45303	99.99
0.46970	99.98
0.48637	99.98
0.50303	99.98
0.51970	99.98
0.53637	99.98
0.55303	99.98
0.56970	99.98
0.58637	99.99
0.60303	99.98
0.61970	99.99
0.63637	99.97
0.65303	99.99
0.66970	99.98
0.68637	99.99
0.70303	99.98
0.71970	99.99
0.73637	99.98
0.75303	99.99
0.76970	99.99
0.78637	99.99
0.80303	99.99
0.81970	99.99
0.83637	99.98
0.85303	99.99
0.86970	99.99
0.88637	99.98
0.90303	99.99
0.91970	99.98
0.93637	99.98
0.95303	99.98
0.96970	99.99
0.98637	99.99
1.00303	99.99
1.01970	99.98
1.03637	99.98
1.05303	99.97
1.06970	99.99
1.08637	99.98
1.10303	99.98
1.11970	99.98
1.13637	99.98
1.15303	99.98
1.16970	99.98
1.18637	99.98
1.20303	99.98
1.21970	99.98
1.23637	99.98
1.25303	99.98
1.26970	99.98
1.28637	99.98
1.30303	99.98
1.31970	99.98
1.33637	99.98
1.35303	99.98
1.36970	99.98
1.38637	99.98
1.40303	99.98
1.41970	99.98
1.43637	99.98
1.45303	99.98
1.46970	99.98
1.48637	99.98
1.50303	99.98
1.51970	99.98
1.53637	99.98
1.55303	99.98
1.56970	99.98
1.58637	99.98
1.60303	99.99
1.61970	99.99
1.63637	99.98
1.65303	99.98
1.66970	99.98
1.68637	99.99
1.70303	99.99
1.71970	99.99
1.73637	99.98
1.75303	99.98
1.76970	99.99
1.78637	99.98
1.80303	99.98
1.81970	99.98
1.83637	99.98
1.85303	99.98
1.86970	99.98
1.88637	99.98
1.90303	99.98
1.91970	99.97
1.93637	99.98
1.95303	99.98
1.96970	99.98
1.98637	99.98
2.00303	99.97
2.01970	99.97
2.03637	99.98
2.05303	99.98
2.06970	99.97
2.08637	99.97
2.10303	99.97
2.11970	99.97
2.13637	99.97
2.15303	99.97
2.16970	99.97
2.18637	99.97
2.20303	99.97
2.21970	99.97
2.23637	99.97
2.25303	99.97
2.26970	99.97
2.28637	99.97
2.30303	99.97
2.31970	99.97
2.33637	99.97
2.35303	99.97
2.36970	99.97
2.38637	99.97
2.40303	99.97
2.41970	99.97
2.43637	99.97
2.45303	99.97
2.46970	99.97
2.48637	99.97
2.50303	99.98
2.51970	99.98
2.53637	99.98
2.55303	99.98
2.56970	99.98
2.58637	99.98
2.60303	99.98
2.61970	99.98
2.63637	99.99
2.65303	99.98
2.66970	99.99
2.68637	99.98
2.70303	99.99
2.71970	99.99
2.73637	99.99
2.75303	99.99
2.76970	99.99
2.78637	99.99
2.80303	99.99
2.81970	100.00
2.83637	100.00
2.85303	100.00
2.86970	100.00
2.88637	100.00
2.90303	100.00
2.91970	100.00
2.93637	100.01
2.95303	100.01
2.96970	100.00
2.98637	100.01
3.00303	100.01
3.01970	100.02
3.03637	100.01
3.05303	100.02
3.06970	100.01
3.08637	100.02
3.10303	100.01
3.11970	100.02
3.13637	100.02
3.15303	100.02
3.16970	100.02
3.18637	100.02
3.20303	100.03
3.21970	100.03
3.23637	100.03
3.25303	100.03
3.26970	100.03
3.28637	100.02
3.30303	100.03
3.31970	100.03
3.33637	100.03
3.35303	100.03
3.36970	100.03
3.38637	100.03
3.40303	100.03
3.41970	100.04
3.43637	100.04
3.45303	100.03
3.46970	100.03
3.48637	100.04
3.50303	100.04
3.51970	100.04
3.53637	100.04
3.55303	100.04
3.56970	100.04
3.58637	100.04
3.60303	100.04
3.61970	100.04
3.63637	100.04
3.65303	100.04
3.66970	100.04
3.68637	100.04
3.70303	100.04
3.71970	100.04
3.73637	100.05
3.75303	100.04
3.76970	100.04
3.78637	100.05
3.80303	100.05
3.81970	100.04
3.83637	100.04
3.85303	100.04
3.86970	100.04
3.88637	100.05
3.90303	100.04
3.91970	100.04
3.93637	100.04
3.95303	100.04
3.96970	100.05
3.98637	100.05

[Status Trace (Carrier Gas Pressure)]
Interval(msec)	1000
# of Points	240
Start Time(min)	0.003
End Time(min)	3.986
Intensity Units	
Intensity Multiplier	1
R.Time (min)	Intensity
0.00303	58.00
0.01970	56.23
0.03637	56.42
0.05303	58.71
0.06970	59.83
0.08637	58.24
0.10303	57.97
0.11970	58.01
0.13637	58.01
0.15303	58.01
0.16970	58.00
0.18637	58.00
0.20303	58.00
0.21970	58.00
0.23637	58.00
0.25303	58.00
0.26970	58.00
0.28637	58.00
0.30303	58.00
0.31970	58.00
0.33637	58.00
0.35303	58.00
0.36970	58.00
0.38637	58.00
0.40303	58.00
0.41970	58.00
0.43637	58.00
0.45303	58.00
0.46970	58.00
0.48637	58.00
0.50303	58.00
0.51970	58.00
0.53637	58.00
0.55303	58.00
0.56970	58.00
0.58637	58.00
0.60303	58.00
0.61970	58.00
0.63637	58.00
0.65303	58.00
0.66970	58.00
0.68637	58.00
0.70303	58.00
0.71970	58.00
0.73637	58.00
0.75303	58.00
0.76970	58.00
0.78637	58.00
0.80303	58.00
0.81970	58.00
0.83637	58.00
0.85303	58.00
0.86970	58.00
0.88637	58.00
0.90303	58.00
0.91970	58.00
0.93637	58.00
0.95303	58.00
0.96970	58.00
0.98637	58.00
1.00303	58.00
1.01970	58.00
1.03637	58.00
1.05303	58.00
1.06970	58.00
1.08637	58.00
1.10303	58.00
1.11970	58.00
1.13637	58.00
1.15303	58.00
1.16970	58.00
1.18637	58.00
1.20303	58.00
1.21970	58.00
1.23637	58.00
1.25303	58.00
1.26970	58.00
1.28637	58.00
1.30303	58.00
1.31970	58.00
1.33637	58.00
1.35303	58.00
1.36970	58.00
1.38637	58.00
1.40303	58.00
1.41970	58.00
1.43637	58.00
1.45303	58.00
1.46970	58.00
1.48637	58.00
1.50303	58.00
1.51970	58.00
1.53637	58.00
1.55303	58.00
1.56970	58.00
1.58637	58.00
1.60303	58.00
1.61970	58.00
1.63637	58.00
1.65303	58.01
1.66970	58.01
1.68637	58.00
1.70303	58.00
1.71970	58.00
1.73637	58.00
1.75303	58.00
1.76970	58.00
1.78637	58.00
1.80303	58.00
1.81970	58.00
1.83637	58.00
1.85303	58.00
1.86970	58.00
1.88637	58.00
1.90303	58.00
1.91970	58.00
1.93637	58.00
1.95303	58.00
1.96970	58.00
1.98637	58.00
2.00303	58.00
2.01970	58.00
2.03637	58.00
2.05303	58.00
2.06970	58.00
2.08637	58.00
2.10303	58.00
2.11970	58.00
2.13637	58.00
2.15303	58.00
2.16970	58.00
2.18637	58.00
2.20303	58.00
2.21970	58.00
2.23637	58.00
2.25303	58.00
2.26970	58.00
2.28637	58.00
2.30303	58.00
2.31970	58.00
2.33637	58.00
2.35303	58.00
2.36970	58.00
2.38637	57.99
2.40303	57.99
2.41970	58.00
2.43637	58.00
2.45303	58.00
2.46970	58.00
2.48637	58.00
2.50303	57.96
2.51970	57.98
2.53637	57.99
2.55303	58.00
2.56970	58.00
2.58637	58.00
2.60303	58.00
2.61970	58.00
2.63637	58.00
2.65303	58.00
2.66970	58.00
2.68637	58.00
2.70303	58.00
2.71970	58.00
2.73637	58.00
2.75303	58.00
2.76970	58.00
2.78637	58.00
2.80303	58.00
2.81970	58.00
2.83637	58.00
2.85303	58.00
2.86970	58.00
2.88637	58.00
2.90303	58.00
2.91970	58.00
2.93637	58.00
2.95303	58.00
2.96970	58.00
2.98637	58.00
3.00303	58.00
3.01970	58.00
3.03637	58.00
3.05303	58.00
3.06970	58.00
3.08637	58.00
3.10303	58.00
3.11970	58.00
3.13637	58.00
3.15303	58.00
3.16970	58.00
3.18637	58.00
3.20303	58.00
3.21970	58.00
3.23637	58.00
3.25303	58.00
3.26970	58.00
3.28637	58.00
3.30303	58.00
3.31970	58.00
3.33637	58.00
3.35303	58.00
3.36970	58.00
3.38637	58.00
3.40303	58.00
3.41970	58.00
3.43637	58.00
3.45303	58.00
3.46970	58.00
3.48637	58.00
3.50303	58.00
3.51970	58.00
3.53637	58.00
3.55303	58.00
3.56970	58.00
3.58637	58.00
3.60303	58.00
3.61970	58.00
3.63637	58.00
3.65303	58.00
3.66970	58.00
3.68637	58.00
3.70303	58.00
3.71970	58.00
3.73637	58.00
3.75303	58.00
3.76970	58.00
3.78637	58.00
3.80303	58.00
3.81970	58.00
3.83637	58.00
3.85303	58.00
3.86970	58.00
3.88637	58.00
3.90303	58.00
3.91970	58.00
3.93637	58.00
3.95303	58.00
3.96970	58.00
3.98637	58.00

[Status Trace (Carrier Gas Flow)]
Interval(msec)	1000
# of Points	240
Start Time(min)	0.003
End Time(min)	3.986
Intensity Units	
Intensity Multiplier	1
R.Time (min)	Intensity
0.00303	34.52
0.01970	34.60
0.03637	34.55
0.05303	34.54
0.06970	34.50
0.08637	34.51
0.10303	34.53
0.11970	34.52
0.13637	34.52
0.15303	34.52
0.16970	34.52
0.18637	34.52
0.20303	34.52
0.21970	34.52
0.23637	34.52
0.25303	34.52
0.26970	34.53
0.28637	34.52
0.30303	34.52
0.31970	34.52
0.33637	34.52
0.35303	34.52
0.36970	34.52
0.38637	34.53
0.40303	34.52
0.41970	34.52
0.43637	34.52
0.45303	34.52
0.46970	34.52
0.48637	34.52
0.50303	34.52
0.51970	34.52
0.53637	34.52
0.55303	34.52
0.56970	34.52
0.58637	34.51
0.60303	34.52
0.61970	34.52
0.63637	34.52
0.65303	34.52
0.66970	34.52
0.68637	34.52
0.70303	34.51
0.71970	34.52
0.73637	34.52
0.75303	34.51
0.76970	34.52
0.78637	34.52
0.80303	34.52
0.81970	34.51
0.83637	34.52
0.85303	34.51
0.86970	34.52
0.88637	34.52
0.90303	34.52
0.91970	34.52
0.93637	34.52
0.95303	34.52
0.96970	34.52
0.98637	34.52
1.00303	34.52
1.01970	34.51
1.03637	34.52
1.05303	34.53
1.06970	34.51
1.08637	34.51
1.10303	34.52
1.11970	34.52
1.13637	34.51
1.15303	34.52
1.16970	34.52
1.18637	34.53
1.20303	34.52
1.21970	34.52
1.23637	34.52
1.25303	34.52
1.26970	34.52
1.28637	34.52
1.30303	34.51
1.31970	34.52
1.33637	34.52
1.35303	34.52
1.36970	34.52
1.38637	34.51
1.40303	34.52
1.41970	34.52
1.43637	34.52
1.45303	34.52
1.46970	34.52
1.48637	34.52
1.50303	34.52
1.51970	34.52
1.53637	34.52
1.55303	34.52
1.56970	34.52
1.58637	34.52
1.60303	34.52
1.61970	34.52
1.63637	34.52
1.65303	34.52
1.66970	34.52
1.68637	34.52
1.70303	34.51
1.71970	34.52
1.73637	34.52
1.75303	34.51
1.76970	34.52
1.78637	34.51
1.80303	34.52
1.81970	34.51
1.83637	34.51
1.85303	34.51
1.86970	34.52
1.88637	34.52
1.90303	34.52
1.91970	34.53
1.93637	34.51
1.95303	34.52
1.96970	34.51
1.98637	34.52
2.00303	34.52
2.01970	34.52
2.03637	34.51
2.05303	34.52
2.06970	34.52
2.08637	34.52
2.10303	34.51
2.11970	34.52
2.13637	34.52
2.15303	34.52
2.16970	34.52
2.18637	34.52
2.20303	34.52
2.21970	34.52
2.23637	34.52
2.25303	34.52
2.26970	34.51
2.28637	34.51
2.30303	34.51
2.31970	34.53
2.33637	34.52
2.35303	34.52
2.36970	34.52
2.38637	34.51
2.40303	34.52
2.41970	34.52
2.43637	34.52
2.45303	34.52
2.46970	34.51
2.48637	34.52
2.50303	34.70
2.51970	34.52
2.53637	34.52
2.55303	34.53
2.56970	34.53
2.58637	34.53
2.60303	34.52
2.61970	34.52
2.63637	34.51
2.65303	34.52
2.66970	34.52
2.68637	34.52
2.70303	34.52
2.71970	34.52
2.73637	34.51
2.75303	34.52
2.76970	34.52
2.78637	34.52
2.80303	34.52
2.81970	34.52
2.83637	34.51
2.85303	34.52
2.86970	34.52
2.88637	34.53
2.90303	34.52
2.91970	34.52
2.93637	34.52
2.95303	34.52
2.96970	34.52
2.98637	34.52
3.00303	34.52
3.01970	34.52
3.03637	34.52
3.05303	34.52
3.06970	34.52
3.08637	34.52
3.10303	34.52
3.11970	34.52
3.13637	34.52
3.15303	34.52
3.16970	34.52
3.18637	34.51
3.20303	34.52
3.21970	34.52
3.23637	34.52
3.25303	34.52
3.26970	34.52
3.28637	34.52
3.30303	34.52
3.31970	34.52
3.33637	34.52
3.35303	34.52
3.36970	34.52
3.38637	34.52
3.40303	34.52
3.41970	34.51
3.43637	34.52
3.45303	34.52
3.46970	34.52
3.48637	34.52
3.50303	34.52
3.51970	34.52
3.53637	34.52
3.55303	34.52
3.56970	34.52
3.58637	34.52
3.60303	34.52
3.61970	34.52
3.63637	34.52
3.65303	34.52
3.66970	34.52
3.68637	34.52
3.70303	34.52
3.71970	34.52
3.73637	34.52
3.75303	34.51
3.76970	34.52
3.78637	34.52
3.80303	34.52
3.81970	34.52
3.83637	34.52
3.85303	34.52
3.86970	34.52
3.88637	34.52
3.90303	34.52
3.91970	34.52
3.93637	34.52
3.95303	34.51
3.96970	34.52
3.98637	34.52

[Status Trace (Column Flow)]
Interval(msec)	1000
# of Points	240
Start Time(min)	0.003
End Time(min)	3.986
Intensity Units	
Intensity Multiplier	1
R.Time (min)	Intensity
0.00303	5.54
0.01970	5.33
0.03637	5.35
0.05303	5.62
0.06970	5.75
0.08637	5.56
0.10303	5.53
0.11970	5.54
0.13637	5.54
0.15303	5.54
0.16970	5.54
0.18637	5.54
0.20303	5.54
0.21970	5.54
0.23637	5.54
0.25303	5.54
0.26970	5.54
0.28637	5.54
0.30303	5.54
0.31970	5.54
0.33637	5.54
0.35303	5.54
0.36970	5.54
0.38637	5.54
0.40303	5.54
0.41970	5.54
0.43637	5.54
0.45303	5.54
0.46970	5.54
0.48637	5.54
0.50303	5.54
0.51970	5.54
0.53637	5.54
0.55303	5.54
0.56970	5.54
0.58637	5.54
0.60303	5.54
0.61970	5.54
0.63637	5.54
0.65303	5.54
0.66970	5.54
0.68637	5.54
0.70303	5.54
0.71970	5.54
0.73637	5.54
0.75303	5.54
0.76970	5.54
0.78637	5.54
0.80303	5.54
0.81970	5.54
0.83637	5.54
0.85303	5.54
0.86970	5.54
0.88637	5.54
0.90303	5.54
0.91970	5.54
0.93637	5.54
0.95303	5.54
0.96970	5.54
0.98637	5.54
1.00303	5.54
1.01970	5.54
1.03637	5.54
1.05303	5.54
1.06970	5.54
1.08637	5.54
1.10303	5.54
1.11970	5.54
1.13637	5.54
1.15303	5.54
1.16970	5.54
1.18637	5.54
1.20303	5.54
1.21970	5.54
1.23637	5.54
1.25303	5.54
1.26970	5.54
1.28637	5.54
1.30303	5.54
1.31970	5.54
1.33637	5.54
1.35303	5.54
1.36970	5.54
1.38637	5.54
1.40303	5.54
1.41970	5.54
1.43637	5.54
1.45303	5.54
1.46970	5.54
1.48637	5.54
1.50303	5.54
1.51970	5.54
1.53637	5.54
1.55303	5.54
1.56970	5.54
1.58637	5.54
1.60303	5.54
1.61970	5.53
1.63637	5.53
1.65303	5.52
1.66970	5.51
1.68637	5.50
1.70303	5.49
1.71970	5.48
1.73637	5.47
1.75303	5.46
1.76970	5.45
1.78637	5.43
1.80303	5.43
1.81970	5.42
1.83637	5.41
1.85303	5.40
1.86970	5.39
1.88637	5.38
1.90303	5.37
1.91970	5.36
1.93637	5.35
1.95303	5.34
1.96970	5.33
1.98637	5.32
2.00303	5.31
2.01970	5.30
2.03637	5.29
2.05303	5.28
2.06970	5.27
2.08637	5.26
2.10303	5.25
2.11970	5.24
2.13637	5.23
2.15303	5.22
2.16970	5.21
2.18637	5.20
2.20303	5.19
2.21970	5.18
2.23637	5.17
2.25303	5.17
2.26970	5.15
2.28637	5.14
2.30303	5.14
2.31970	5.13
2.33637	5.12
2.35303	5.11
2.36970	5.10
2.38637	5.10
2.40303	5.10
2.41970	5.10
2.43637	5.10
2.45303	5.10
2.46970	5.10
2.48637	5.10
2.50303	5.10
2.51970	5.10
2.53637	5.10
2.55303	5.10
2.56970	5.10
2.58637	5.10
2.60303	5.10
2.61970	5.10
2.63637	5.10
2.65303	5.10
2.66970	5.10
2.68637	5.10
2.70303	5.10
2.71970	5.10
2.73637	5.10
2.75303	5.10
2.76970	5.10
2.78637	5.10
2.80303	5.10
2.81970	5.10
2.83637	5.10
2.85303	5.10
2.86970	5.10
2.88637	5.10
2.90303	5.10
2.91970	5.09
2.93637	5.09
2.95303	5.09
2.96970	5.09
2.98637	5.09
3.00303	5.09
3.01970	5.09
3.03637	5.09
3.05303	5.09
3.06970	5.09
3.08637	5.09
3.10303	5.09
3.11970	5.09
3.13637	5.09
3.15303	5.09
3.16970	5.09
3.18637	5.09
3.20303	5.09
3.21970	5.09
3.23637	5.09
3.25303	5.09
3.26970	5.09
3.28637	5.09
3.30303	5.09
3.31970	5.09
3.33637	5.09
3.35303	5.09
3.36970	5.09
3.38637	5.09
3.40303	5.09
3.41970	5.09
3.43637	5.09
3.45303	5.09
3.46970	5.09
3.48637	5.09
3.50303	5.09
3.51970	5.09
3.53637	5.09
3.55303	5.09
3.56970	5.09
3.58637	5.09
3.60303	5.09
3.61970	5.09
3.63637	5.09
3.65303	5.09
3.66970	5.09
3.68637	5.09
3.70303	5.09
3.71970	5.09
3.73637	5.09
3.75303	5.09
3.76970	5.09
3.78637	5.09
3.80303	5.09
3.81970	5.09
3.83637	5.09
3.85303	5.09
3.86970	5.09
3.88637	5.09
3.90303	5.09
3.91970	5.09
3.93637	5.09
3.95303	5.09
3.96970	5.09
3.98637	5.09

[Status Trace (Linear Velocity)]
Interval(msec)	1000
# of Points	240
Start Time(min)	0.003
End Time(min)	3.986
Intensity Units	
Intensity Multiplier	1
R.Time (min)	Intensity
0.00303	39.02
0.01970	37.86
0.03637	37.98
0.05303	39.48
0.06970	40.22
0.08637	39.18
0.10303	39.00
0.11970	39.02
0.13637	39.02
0.15303	39.02
0.16970	39.02
0.18637	39.02
0.20303	39.02
0.21970	39.02
0.23637	39.02
0.25303	39.02
0.26970	39.02
0.28637	39.02
0.30303	39.02
0.31970	39.02
0.33637	39.02
0.35303	39.02
0.36970	39.02
0.38637	39.02
0.40303	39.02
0.41970	39.02
0.43637	39.02
0.45303	39.02
0.46970	39.02
0.48637	39.02
0.50303	39.02
0.51970	39.02
0.53637	39.02
0.55303	39.02
0.56970	39.02
0.58637	39.02
0.60303	39.02
0.61970	39.02
0.63637	39.02
0.65303	39.02
0.66970	39.02
0.68637	39.02
0.70303	39.02
0.71970	39.02
0.73637	39.02
0.75303	39.02
0.76970	39.02
0.78637	39.02
0.80303	39.02
0.81970	39.02
0.83637	39.02
0.85303	39.02
0.86970	39.02
0.88637	39.02
0.90303	39.02
0.91970	39.02
0.93637	39.02
0.95303	39.02
0.96970	39.02
0.98637	39.02
1.00303	39.02
1.01970	39.02
1.03637	39.02
1.05303	39.02
1.06970	39.02
1.08637	39.02
1.10303	39.02
1.11970	39.02
1.13637	39.02
1.15303	39.02
1.16970	39.02
1.18637	39.02
1.20303	39.02
1.21970	39.02
1.23637	39.02
1.25303	39.02
1.26970	39.02
1.28637	39.02
1.30303	39.02
1.31970	39.02
1.33637	39.02
1.35303	39.02
1.36970	39.02
1.38637	39.02
1.40303	39.02
1.41970	39.02
1.43637	39.02
1.45303	39.02
1.46970	39.02
1.48637	39.02
1.50303	39.02
1.51970	39.02
1.53637	39.02
1.55303	39.02
1.56970	39.02
1.58637	39.02
1.60303	39.02
1.61970	39.01
1.63637	38.99
1.65303	38.97
1.66970	38.94
1.68637	38.91
1.70303	38.87
1.71970	38.84
1.73637	38.81
1.75303	38.77
1.76970	38.74
1.78637	38.71
1.80303	38.68
1.81970	38.65
1.83637	38.62
1.85303	38.59
1.86970	38.56
1.88637	38.52
1.90303	38.49
1.91970	38.47
1.93637	38.43
1.95303	38.40
1.96970	38.37
1.98637	38.34
2.00303	38.31
2.01970	38.28
2.03637	38.25
2.05303	38.22
2.06970	38.19
2.08637	38.16
2.10303	38.13
2.11970	38.10
2.13637	38.07
2.15303	38.04
2.16970	38.02
2.18637	37.99
2.20303	37.95
2.21970	37.93
2.23637	37.90
2.25303	37.87
2.26970	37.84
2.28637	37.80
2.30303	37.77
2.31970	37.75
2.33637	37.72
2.35303	37.69
2.36970	37.67
2.38637	37.66
2.40303	37.66
2.41970	37.67
2.43637	37.67
2.45303	37.66
2.46970	37.66
2.48637	37.66
2.50303	37.64
2.51970	37.65
2.53637	37.65
2.55303	37.66
2.56970	37.66
2.58637	37.66
2.60303	37.65
2.61970	37.65
2.63637	37.65
2.65303	37.65
2.66970	37.65
2.68637	37.65
2.70303	37.65
2.71970	37.65
2.73637	37.65
2.75303	37.65
2.76970	37.65
2.78637	37.65
2.80303	37.65
2.81970	37.65
2.83637	37.65
2.85303	37.65
2.86970	37.65
2.88637	37.65
2.90303	37.64
2.91970	37.64
2.93637	37.64
2.95303	37.64
2.96970	37.64
2.98637	37.64
3.00303	37.64
3.01970	37.64
3.03637	37.64
3.05303	37.64
3.06970	37.64
3.08637	37.63
3.10303	37.64
3.11970	37.63
3.13637	37.63
3.15303	37.63
3.16970	37.63
3.18637	37.63
3.20303	37.63
3.21970	37.63
3.23637	37.63
3.25303	37.63
3.26970	37.63
3.28637	37.63
3.30303	37.63
3.31970	37.63
3.33637	37.63
3.35303	37.63
3.36970	37.63
3.38637	37.63
3.40303	37.63
3.41970	37.63
3.43637	37.63
3.45303	37.63
3.46970	37.63
3.48637	37.63
3.50303	37.63
3.51970	37.63
3.53637	37.63
3.55303	37.63
3.56970	37.63
3.58637	37.63
3.60303	37.63
3.61970	37.63
3.63637	37.63
3.65303	37.63
3.66970	37.63
3.68637	37.63
3.70303	37.63
3.71970	37.63
3.73637	37.63
3.75303	37.63
3.76970	37.63
3.78637	37.63
3.80303	37.63
3.81970	37.63
3.83637	37.63
3.85303	37.63
3.86970	37.63
3.88637	37.63
3.90303	37.63
3.91970	37.63
3.93637	37.63
3.95303	37.63
3.96970	37.63
3.98637	37.63

