[Header]
Application Name	LabSolutions
Version	5.110
Data File Name	C:\Users\User\Desktop\GC Analyses\Jack\Nachusa Grasslands Sampling\T3 Timepoint July 12th\T3_07122022_016.gcd
Output Date	3/14/2023
Output Time	3:43:30 PM

[File Information]
Type	Data File
Generated	3/13/2023 4:09:48 PM
Generated by	System Administrator
Modified	3/13/2023 4:16:38 PM
Modified by	System Administrator

[Sample Information]
Operator Name	System Administrator
Acquired	3/13/2023 4:12:38 PM
Sample Type	0:Unknown
Level	0
Sample Name	016
Sample ID	016
ISTD Amount1	1
ISTD Amount2	1
ISTD Amount3	1
ISTD Amount4	1
ISTD Amount5	1
ISTD Amount6	1
ISTD Amount7	1
ISTD Amount8	1
ISTD Amount9	1
ISTD Amount10	1
ISTD Amount11	1
ISTD Amount12	1
ISTD Amount13	1
ISTD Amount14	1
ISTD Amount15	1
ISTD Amount16	1
ISTD Amount17	1
ISTD Amount18	1
ISTD Amount19	1
ISTD Amount20	1
ISTD Amount21	1
ISTD Amount22	1
ISTD Amount23	1
ISTD Amount24	1
ISTD Amount25	1
ISTD Amount26	1
ISTD Amount27	1
ISTD Amount28	1
ISTD Amount29	1
ISTD Amount30	1
ISTD Amount31	1
ISTD Amount32	1
Sample Amount	1
Dilution Factor	1
Vial#	15
Injection Volume	1
Injection Count	1
Bar Code	

[Original Files]
Data File	C:\Users\User\Desktop\GC Analyses\Jack\Nachusa Grasslands Sampling\T3 Timepoint July 12th\T3_07122022_016.gcd
Method File	C:\LabSolutions\Data\GHG_4min_2022\ghg3_togas_w_acet_4 min_new_int.gcm
Batch File	C:\LabSolutions\Data\AutoSamplerTesting\T3_07122022.gcb
Report Format File	c:\LabSolutions\System\DEFAULT.lsr

[File Description]


[Configuration]
Instrument Name	C0B7VH3-Instrument1
Instrument #	1
Line #	1
# of Detectors	3
Detector ID	DET#1	DET#2	DET#3
Detector Name	FID	PTCD	ECD
# of Channels	1	1	1

[Peak Table(Ch1)]
# of Peaks	3
Peak#	R.Time	I.Time	F.Time	Area	Height	A/H	Conc.	Mark	ID#	Name	k'	Plate #	Plate Ht.	Tailing	Resolution	Sep.Factor	Area Ratio	Height Ratio	Conc. %	Norm Conc.
1	1.476	1.406	1.534	24832	12079	2.056	175.312	   	1	CO	0.000	9662	15.525	1.181	0.000	0.000	0	0	23.746	23.746
2	1.571	1.538	1.633	3781	1928	1.961	73.113	   	2	CH4	0.065	11806	12.705	1.185	1.617	0.000	0	0	9.903	9.903
3	2.000	1.952	2.304	1951766	941137	2.074	489.840	   	3	CO2	0.355	17679	8.484	1.169	7.271	5.500	0	0	66.350	66.350

[Peak Table(Ch2)]
# of Peaks	0

[Peak Table(Ch3)]
# of Peaks	5
Peak#	R.Time	I.Time	F.Time	Area	Height	A/H	Conc.	Mark	ID#	Name	k'	Plate #	Plate Ht.	Tailing	Resolution	Sep.Factor	Area Ratio	Height Ratio	Conc. %	Norm Conc.
1	2.462	2.396	2.506	1360	490	2.775	0.000	   			0.000	11145	13.459	0.000	0.000	0.000	0	0	0.000	0.000
2	2.528	2.506	2.579	876	282	3.108	0.000	 V 			0.027	4514	33.227	0.000	0.541	0.000	0	0	0.000	0.000
3	2.605	2.579	2.675	496	141	3.511	0.000	 V 			0.058	2928	51.229	0.000	0.449	2.167	0	0	0.000	0.000
4	2.880	2.697	3.074	18597	4714	3.945	0.475	   	1	N2O	0.170	13187	11.375	1.532	1.878	2.923	0	0	100.000	100.000
5	3.269	3.078	3.995	20918	694	30.148	0.000	   	2	SF6	0.328	205	730.867	2.319	0.767	1.930	0	0	0.000	0.000

[Compound Results(Ch1)]
# of IDs	6
ID#	Name	R.Time	Area	Height	Conc.	Curve	3rd	2nd	1st	Constant	Area Ratio	Height Ratio	Conc. %	Norm Conc.
1	CO	1.476	24832	12079	175.312	Linear	0.000000e+00	0.000000e+00	1.416423e+002	0.000000e+00	0	0	23.746	23.746
2	CH4	1.571	3781	1928	73.113	Linear	0.000000e+00	0.000000e+00	5.171738e+001	0.000000e+00	0	0	9.903	9.903
3	CO2	2.000	1951766	941137	489.840	Linear	0.000000e+00	0.000000e+00	3.984494e+003	0.000000e+00	0	0	66.350	66.350
4	Ethylene	0.000	0	0	0.000	Linear	0.000000e+00	0.000000e+00	0.000000e+00	0.000000e+00	0	0	0.000	0.000
5	Acetylene	0.000	0	0	0.000	Linear	0.000000e+00	0.000000e+00	0.000000e+00	0.000000e+00	0	0	0.000	0.000
6	Ethane	0.000	0	0	0.000	Linear	0.000000e+00	0.000000e+00	0.000000e+00	0.000000e+00	0	0	0.000	0.000

[Compound Results(Ch2)]
# of IDs	5
ID#	Name	R.Time	Area	Height	Conc.	Curve	3rd	2nd	1st	Constant	Area Ratio	Height Ratio	Conc. %	Norm Conc.
1	Hydrogen	0.000	0	0	0.000	Linear	0.000000e+00	0.000000e+00	0.000000e+00	0.000000e+00	0	0	0.000	0.000
2	Oxygen	0.000	0	0	0.000	Linear	0.000000e+00	0.000000e+00	0.000000e+00	0.000000e+00	0	0	0.000	0.000
3	Nitrogen	0.000	0	0	0.000	Linear	0.000000e+00	0.000000e+00	0.000000e+00	0.000000e+00	0	0	0.000	0.000
4	Methane	0.000	0	0	0.000	Linear	0.000000e+00	0.000000e+00	0.000000e+00	0.000000e+00	0	0	0.000	0.000
5	Carbon Monoxide	0.000	0	0	0.000	Linear	0.000000e+00	0.000000e+00	0.000000e+00	0.000000e+00	0	0	0.000	0.000

[Compound Results(Ch3)]
# of IDs	2
ID#	Name	R.Time	Area	Height	Conc.	Curve	3rd	2nd	1st	Constant	Area Ratio	Height Ratio	Conc. %	Norm Conc.
1	N2O	2.880	18597	4714	0.475	Linear	0.000000e+00	0.000000e+00	3.915173e+004	0.000000e+00	0	0	100.000	100.000
2	SF6	3.269	20918	694	0.000	Linear	0.000000e+00	0.000000e+00	0.000000e+00	0.000000e+00	0	0	0.000	0.000

[Group Results(Ch1)]
# of Groups	0

[Group Results(Ch2)]
# of Groups	0

[Group Results(Ch3)]
# of Groups	0

[Chromatogram (Ch1)]
Interval(msec)	220
# of Points	1091
Start Time(min)	0.002
End Time(min)	3.998
R.Time (min)	Intensity
0.00167	11
0.00533	12
0.00900	10
0.01267	7
0.01633	3
0.02000	-4
0.02367	-4
0.02733	-6
0.03100	-9
0.03467	-12
0.03833	-12
0.04200	-12
0.04567	-12
0.04933	-6
0.05300	0
0.05667	8
0.06033	19
0.06400	28
0.06767	39
0.07133	48
0.07500	48
0.07867	41
0.08233	27
0.08600	13
0.08967	7
0.09333	5
0.09700	9
0.10067	17
0.10433	20
0.10800	21
0.11167	28
0.11533	37
0.11900	45
0.12267	50
0.12633	54
0.13000	56
0.13367	56
0.13733	53
0.14100	45
0.14467	39
0.14833	36
0.15200	34
0.15567	33
0.15933	30
0.16300	29
0.16667	30
0.17033	32
0.17400	35
0.17767	39
0.18133	43
0.18500	46
0.18867	48
0.19233	46
0.19600	43
0.19967	35
0.20333	24
0.20700	16
0.21067	10
0.21433	9
0.21800	11
0.22167	11
0.22533	9
0.22900	6
0.23267	1
0.23633	-5
0.24000	-5
0.24367	1
0.24733	5
0.25100	5
0.25467	3
0.25833	-4
0.26200	-13
0.26567	-23
0.26933	-28
0.27300	-34
0.27667	-38
0.28033	-39
0.28400	-34
0.28767	-26
0.29133	-20
0.29500	-16
0.29867	-16
0.30233	-18
0.30600	-19
0.30967	-20
0.31333	-19
0.31700	-15
0.32067	-9
0.32433	-3
0.32800	-1
0.33167	1
0.33533	2
0.33900	6
0.34267	8
0.34633	3
0.35000	-4
0.35367	-11
0.35733	-18
0.36100	-21
0.36467	-22
0.36833	-21
0.37200	-18
0.37567	-16
0.37933	-17
0.38300	-17
0.38667	-16
0.39033	-18
0.39400	-21
0.39767	-23
0.40133	-25
0.40500	-26
0.40867	-27
0.41233	-29
0.41600	-28
0.41967	-31
0.42333	-38
0.42700	-44
0.43067	-46
0.43433	-46
0.43800	-42
0.44167	-35
0.44533	-30
0.44900	-26
0.45267	-25
0.45633	-22
0.46000	-17
0.46367	-13
0.46733	-13
0.47100	-16
0.47467	-16
0.47833	-23
0.48200	-28
0.48567	-33
0.48933	-33
0.49300	-26
0.49667	-18
0.50033	-17
0.50400	-17
0.50767	-15
0.51133	-9
0.51500	-4
0.51867	-6
0.52233	-10
0.52600	-15
0.52967	-18
0.53333	-17
0.53700	-20
0.54067	-22
0.54433	-21
0.54800	-20
0.55167	-24
0.55533	-32
0.55900	-40
0.56267	-40
0.56633	-39
0.57000	-38
0.57367	-37
0.57733	-38
0.58100	-39
0.58467	-34
0.58833	-30
0.59200	-29
0.59567	-30
0.59933	-31
0.60300	-32
0.60667	-32
0.61033	-30
0.61400	-26
0.61767	-21
0.62133	-15
0.62500	-13
0.62867	-18
0.63233	-23
0.63600	-24
0.63967	-25
0.64333	-24
0.64700	-24
0.65067	-25
0.65433	-26
0.65800	-28
0.66167	-30
0.66533	-30
0.66900	-25
0.67267	-17
0.67633	-17
0.68000	-24
0.68367	-31
0.68733	-39
0.69100	-45
0.69467	-43
0.69833	-30
0.70200	-22
0.70567	-20
0.70933	-22
0.71300	-25
0.71667	-29
0.72033	-34
0.72400	-35
0.72767	-33
0.73133	-36
0.73500	-38
0.73867	-36
0.74233	-26
0.74600	-11
0.74967	-2
0.75333	2
0.75700	2
0.76067	-2
0.76433	-8
0.76800	-11
0.77167	-12
0.77533	-8
0.77900	-5
0.78267	-3
0.78633	-7
0.79000	-12
0.79367	-7
0.79733	3
0.80100	12
0.80467	13
0.80833	11
0.81200	6
0.81567	0
0.81933	-4
0.82300	-3
0.82667	-3
0.83033	-6
0.83400	-12
0.83767	-15
0.84133	-11
0.84500	-6
0.84867	-2
0.85233	-2
0.85600	-5
0.85967	-5
0.86333	1
0.86700	10
0.87067	16
0.87433	19
0.87800	17
0.88167	7
0.88533	-3
0.88900	-10
0.89267	-18
0.89633	-24
0.90000	-35
0.90367	-45
0.90733	-51
0.91100	-51
0.91467	-48
0.91833	-44
0.92200	-40
0.92567	-32
0.92933	-24
0.93300	-22
0.93667	-20
0.94033	-18
0.94400	-15
0.94767	-11
0.95133	-8
0.95500	-9
0.95867	-14
0.96233	-24
0.96600	-30
0.96967	-31
0.97333	-30
0.97700	-29
0.98067	-24
0.98433	-19
0.98800	-11
0.99167	-5
0.99533	3
0.99900	13
1.00267	19
1.00633	18
1.01000	10
1.01367	-1
1.01733	-12
1.02100	-23
1.02467	-37
1.02833	-43
1.03200	-44
1.03567	-45
1.03933	-49
1.04300	-53
1.04667	-57
1.05033	-60
1.05400	-59
1.05767	-56
1.06133	-59
1.06500	-62
1.06867	-58
1.07233	-48
1.07600	-36
1.07967	-33
1.08333	-37
1.08700	-43
1.09067	-43
1.09433	-40
1.09800	-37
1.10167	-37
1.10533	-42
1.10900	-48
1.11267	-54
1.11633	-58
1.12000	-57
1.12367	-53
1.12733	-49
1.13100	-46
1.13467	-41
1.13833	-40
1.14200	-42
1.14567	-46
1.14933	-48
1.15300	-46
1.15667	-46
1.16033	-50
1.16400	-50
1.16767	-46
1.17133	-50
1.17500	-57
1.17867	-63
1.18233	-62
1.18600	-58
1.18967	-58
1.19333	-57
1.19700	-55
1.20067	-48
1.20433	-37
1.20800	-25
1.21167	-15
1.21533	-11
1.21900	-17
1.22267	-30
1.22633	-48
1.23000	-64
1.23367	-75
1.23733	-83
1.24100	-92
1.24467	-101
1.24833	-105
1.25200	-103
1.25567	-94
1.25933	-86
1.26300	-83
1.26667	-85
1.27033	-88
1.27400	-86
1.27767	-82
1.28133	-77
1.28500	-70
1.28867	-59
1.29233	-49
1.29600	-51
1.29967	-62
1.30333	-72
1.30700	-83
1.31067	-96
1.31433	-96
1.31800	-85
1.32167	-79
1.32533	-76
1.32900	-74
1.33267	-71
1.33633	-65
1.34000	-61
1.34367	-60
1.34733	-60
1.35100	-63
1.35467	-68
1.35833	-74
1.36200	-81
1.36567	-86
1.36933	-89
1.37300	-91
1.37667	-91
1.38033	-91
1.38400	-87
1.38767	-82
1.39133	-82
1.39500	-87
1.39867	-95
1.40233	-99
1.40600	-104
1.40967	-106
1.41333	-106
1.41700	-106
1.42067	-101
1.42433	-95
1.42800	-93
1.43167	-94
1.43533	-92
1.43900	-79
1.44267	-27
1.44633	182
1.45000	763
1.45367	1943
1.45733	3834
1.46100	6125
1.46467	8321
1.46833	10090
1.47200	11285
1.47567	11811
1.47933	11566
1.48300	10540
1.48667	8917
1.49033	7019
1.49400	5176
1.49767	3594
1.50133	2351
1.50500	1436
1.50867	793
1.51233	359
1.51600	66
1.51967	-127
1.52333	-249
1.52700	-327
1.53067	-377
1.53433	-407
1.53800	-416
1.54167	-384
1.54533	-256
1.54900	10
1.55267	377
1.55633	768
1.56000	1112
1.56367	1375
1.56733	1534
1.57100	1560
1.57467	1436
1.57833	1183
1.58200	871
1.58567	571
1.58933	319
1.59300	123
1.59667	-19
1.60033	-111
1.60400	-171
1.60767	-213
1.61133	-241
1.61500	-256
1.61867	-263
1.62233	-267
1.62600	-269
1.62967	-274
1.63333	-278
1.63700	-280
1.64067	-278
1.64433	-277
1.64800	-277
1.65167	-278
1.65533	-277
1.65900	-273
1.66267	-263
1.66633	-254
1.67000	-247
1.67367	-245
1.67733	-249
1.68100	-251
1.68467	-251
1.68833	-247
1.69200	-237
1.69567	-227
1.69933	-225
1.70300	-235
1.70667	-246
1.71033	-254
1.71400	-258
1.71767	-252
1.72133	-243
1.72500	-235
1.72867	-231
1.73233	-227
1.73600	-223
1.73967	-220
1.74333	-218
1.74700	-214
1.75067	-210
1.75433	-206
1.75800	-204
1.76167	-197
1.76533	-192
1.76900	-192
1.77267	-199
1.77633	-214
1.78000	-230
1.78367	-244
1.78733	-254
1.79100	-258
1.79467	-255
1.79833	-249
1.80200	-242
1.80567	-234
1.80933	-226
1.81300	-222
1.81667	-224
1.82033	-224
1.82400	-223
1.82767	-220
1.83133	-213
1.83500	-203
1.83867	-197
1.84233	-195
1.84600	-200
1.84967	-204
1.85333	-199
1.85700	-192
1.86067	-183
1.86433	-176
1.86800	-182
1.87167	-198
1.87533	-213
1.87900	-223
1.88267	-228
1.88633	-229
1.89000	-228
1.89367	-222
1.89733	-211
1.90100	-198
1.90467	-189
1.90833	-186
1.91200	-189
1.91567	-193
1.91933	-197
1.92300	-202
1.92667	-205
1.93033	-207
1.93400	-208
1.93767	-209
1.94133	-207
1.94500	-207
1.94867	-203
1.95233	-188
1.95600	-96
1.95967	471
1.96333	3245
1.96700	13736
1.97067	44053
1.97433	111570
1.97800	228874
1.98167	390921
1.98533	573075
1.98900	742719
1.99267	871308
1.99633	940120
2.00000	940986
2.00367	877427
2.00733	764943
2.01100	626740
2.01467	486269
2.01833	360721
2.02200	258560
2.02567	180937
2.02933	124781
2.03300	85510
2.03667	58659
2.04033	40550
2.04400	28418
2.04767	20289
2.05133	14815
2.05500	11092
2.05867	8518
2.06233	6702
2.06600	5394
2.06967	4434
2.07333	3717
2.07700	3169
2.08067	2739
2.08433	2393
2.08800	2110
2.09167	1876
2.09533	1680
2.09900	1518
2.10267	1388
2.10633	1274
2.11000	1176
2.11367	1089
2.11733	1011
2.12100	938
2.12467	870
2.12833	807
2.13200	751
2.13567	705
2.13933	662
2.14300	622
2.14667	586
2.15033	551
2.15400	514
2.15767	479
2.16133	444
2.16500	414
2.16867	390
2.17233	373
2.17600	355
2.17967	340
2.18333	326
2.18700	310
2.19067	297
2.19433	290
2.19800	285
2.20167	275
2.20533	263
2.20900	253
2.21267	241
2.21633	228
2.22000	215
2.22367	208
2.22733	205
2.23100	202
2.23467	204
2.23833	204
2.24200	199
2.24567	191
2.24933	183
2.25300	172
2.25667	160
2.26033	146
2.26400	132
2.26767	122
2.27133	119
2.27500	122
2.27867	125
2.28233	128
2.28600	126
2.28967	116
2.29333	106
2.29700	104
2.30067	100
2.30433	91
2.30800	82
2.31167	77
2.31533	74
2.31900	73
2.32267	79
2.32633	85
2.33000	81
2.33367	71
2.33733	59
2.34100	47
2.34467	36
2.34833	28
2.35200	21
2.35567	17
2.35933	17
2.36300	19
2.36667	25
2.37033	30
2.37400	33
2.37767	34
2.38133	36
2.38500	40
2.38867	44
2.39233	45
2.39600	38
2.39967	28
2.40333	16
2.40700	5
2.41067	-1
2.41433	-1
2.41800	7
2.42167	15
2.42533	19
2.42900	21
2.43267	22
2.43633	28
2.44000	32
2.44367	30
2.44733	22
2.45100	15
2.45467	14
2.45833	15
2.46200	20
2.46567	24
2.46933	26
2.47300	27
2.47667	28
2.48033	34
2.48400	36
2.48767	34
2.49133	31
2.49500	26
2.49867	20
2.50233	15
2.50600	13
2.50967	17
2.51333	26
2.51700	32
2.52067	33
2.52433	29
2.52800	21
2.53167	12
2.53533	5
2.53900	-0
2.54267	-6
2.54633	-9
2.55000	-10
2.55367	-12
2.55733	-13
2.56100	-9
2.56467	-6
2.56833	-7
2.57200	-9
2.57567	-10
2.57933	-7
2.58300	-2
2.58667	4
2.59033	8
2.59400	12
2.59767	12
2.60133	9
2.60500	8
2.60867	12
2.61233	15
2.61600	15
2.61967	17
2.62333	18
2.62700	22
2.63067	24
2.63433	22
2.63800	19
2.64167	16
2.64533	12
2.64900	7
2.65267	0
2.65633	-4
2.66000	-3
2.66367	2
2.66733	5
2.67100	9
2.67467	13
2.67833	13
2.68200	12
2.68567	8
2.68933	4
2.69300	-0
2.69667	-4
2.70033	-5
2.70400	-5
2.70767	-7
2.71133	-8
2.71500	-4
2.71867	2
2.72233	9
2.72600	15
2.72967	18
2.73333	19
2.73700	21
2.74067	24
2.74433	24
2.74800	19
2.75167	16
2.75533	15
2.75900	14
2.76267	10
2.76633	5
2.77000	-1
2.77367	-4
2.77733	-3
2.78100	-4
2.78467	-3
2.78833	-1
2.79200	-1
2.79567	-0
2.79933	2
2.80300	2
2.80667	4
2.81033	3
2.81400	4
2.81767	0
2.82133	-2
2.82500	-3
2.82867	-3
2.83233	-2
2.83600	4
2.83967	11
2.84333	20
2.84700	22
2.85067	16
2.85433	12
2.85800	11
2.86167	13
2.86533	12
2.86900	6
2.87267	-1
2.87633	-1
2.88000	3
2.88367	3
2.88733	-5
2.89100	-11
2.89467	-15
2.89833	-17
2.90200	-12
2.90567	-2
2.90933	6
2.91300	8
2.91667	6
2.92033	-0
2.92400	-3
2.92767	1
2.93133	12
2.93500	19
2.93867	21
2.94233	25
2.94600	25
2.94967	18
2.95333	7
2.95700	-3
2.96067	-10
2.96433	-11
2.96800	-11
2.97167	-14
2.97533	-17
2.97900	-16
2.98267	-11
2.98633	-5
2.99000	3
2.99367	10
2.99733	10
3.00100	9
3.00467	7
3.00833	2
3.01200	-0
3.01567	-1
3.01933	-2
3.02300	-6
3.02667	-7
3.03033	-7
3.03400	-9
3.03767	-7
3.04133	1
3.04500	9
3.04867	9
3.05233	9
3.05600	12
3.05967	13
3.06333	12
3.06700	16
3.07067	25
3.07433	35
3.07800	41
3.08167	45
3.08533	43
3.08900	36
3.09267	28
3.09633	24
3.10000	19
3.10367	14
3.10733	10
3.11100	6
3.11467	3
3.11833	5
3.12200	6
3.12567	6
3.12933	7
3.13300	8
3.13667	10
3.14033	12
3.14400	13
3.14767	13
3.15133	14
3.15500	17
3.15867	18
3.16233	19
3.16600	18
3.16967	16
3.17333	19
3.17700	23
3.18067	27
3.18433	31
3.18800	30
3.19167	26
3.19533	14
3.19900	5
3.20267	7
3.20633	10
3.21000	13
3.21367	15
3.21733	19
3.22100	21
3.22467	20
3.22833	15
3.23200	1
3.23567	-10
3.23933	-15
3.24300	-16
3.24667	-13
3.25033	-8
3.25400	-4
3.25767	0
3.26133	4
3.26500	9
3.26867	15
3.27233	14
3.27600	9
3.27967	5
3.28333	6
3.28700	8
3.29067	13
3.29433	22
3.29800	28
3.30167	30
3.30533	27
3.30900	21
3.31267	19
3.31633	17
3.32000	16
3.32367	15
3.32733	16
3.33100	17
3.33467	19
3.33833	21
3.34200	23
3.34567	23
3.34933	23
3.35300	20
3.35667	16
3.36033	14
3.36400	11
3.36767	10
3.37133	12
3.37500	15
3.37867	18
3.38233	20
3.38600	20
3.38967	19
3.39333	16
3.39700	10
3.40067	4
3.40433	-1
3.40800	-1
3.41167	3
3.41533	8
3.41900	13
3.42267	11
3.42633	5
3.43000	-1
3.43367	-3
3.43733	-2
3.44100	3
3.44467	11
3.44833	18
3.45200	20
3.45567	21
3.45933	20
3.46300	18
3.46667	17
3.47033	17
3.47400	18
3.47767	16
3.48133	8
3.48500	-2
3.48867	-7
3.49233	-6
3.49600	-2
3.49967	-1
3.50333	-3
3.50700	-2
3.51067	1
3.51433	3
3.51800	3
3.52167	4
3.52533	4
3.52900	4
3.53267	9
3.53633	15
3.54000	15
3.54367	12
3.54733	10
3.55100	11
3.55467	11
3.55833	9
3.56200	6
3.56567	3
3.56933	2
3.57300	-1
3.57667	-1
3.58033	5
3.58400	9
3.58767	9
3.59133	4
3.59500	-1
3.59867	-1
3.60233	1
3.60600	-2
3.60967	-9
3.61333	-17
3.61700	-23
3.62067	-24
3.62433	-22
3.62800	-20
3.63167	-14
3.63533	-9
3.63900	-10
3.64267	-9
3.64633	-0
3.65000	12
3.65367	21
3.65733	21
3.66100	10
3.66467	-6
3.66833	-21
3.67200	-23
3.67567	-19
3.67933	-13
3.68300	-5
3.68667	3
3.69033	7
3.69400	4
3.69767	-1
3.70133	-2
3.70500	-6
3.70867	-14
3.71233	-20
3.71600	-24
3.71967	-25
3.72333	-20
3.72700	-16
3.73067	-17
3.73433	-16
3.73800	-14
3.74167	-11
3.74533	-7
3.74900	-4
3.75267	-6
3.75633	-11
3.76000	-9
3.76367	-5
3.76733	-5
3.77100	-9
3.77467	-13
3.77833	-17
3.78200	-18
3.78567	-16
3.78933	-11
3.79300	-7
3.79667	-7
3.80033	-10
3.80400	-17
3.80767	-26
3.81133	-36
3.81500	-43
3.81867	-42
3.82233	-38
3.82600	-31
3.82967	-24
3.83333	-20
3.83700	-20
3.84067	-18
3.84433	-17
3.84800	-22
3.85167	-28
3.85533	-31
3.85900	-31
3.86267	-24
3.86633	-18
3.87000	-16
3.87367	-15
3.87733	-15
3.88100	-11
3.88467	-7
3.88833	-9
3.89200	-18
3.89567	-26
3.89933	-32
3.90300	-35
3.90667	-41
3.91033	-45
3.91400	-46
3.91767	-45
3.92133	-44
3.92500	-44
3.92867	-48
3.93233	-50
3.93600	-48
3.93967	-47
3.94333	-45
3.94700	-42
3.95067	-42
3.95433	-41
3.95800	-38
3.96167	-36
3.96533	-32
3.96900	-30
3.97267	-31
3.97633	-31
3.98000	-31
3.98367	-26
3.98733	-21
3.99100	-15
3.99467	-14
3.99833	-14

[Chromatogram (Ch2)]
Interval(msec)	220
# of Points	1091
Start Time(min)	0.002
End Time(min)	3.998
R.Time (min)	Intensity
0.00167	0
0.00533	0
0.00900	0
0.01267	0
0.01633	-0
0.02000	-0
0.02367	-0
0.02733	-0
0.03100	-0
0.03467	-0
0.03833	-0
0.04200	-0
0.04567	-0
0.04933	-0
0.05300	-1
0.05667	-1
0.06033	-1
0.06400	-1
0.06767	-1
0.07133	-1
0.07500	-1
0.07867	-1
0.08233	-1
0.08600	-1
0.08967	-0
0.09333	-0
0.09700	0
0.10067	0
0.10433	0
0.10800	0
0.11167	1
0.11533	1
0.11900	1
0.12267	1
0.12633	1
0.13000	0
0.13367	0
0.13733	0
0.14100	-0
0.14467	-1
0.14833	-1
0.15200	-1
0.15567	-1
0.15933	-1
0.16300	-1
0.16667	-1
0.17033	-1
0.17400	-1
0.17767	-1
0.18133	-1
0.18500	-1
0.18867	-1
0.19233	-1
0.19600	-1
0.19967	-1
0.20333	-2
0.20700	-2
0.21067	-2
0.21433	-2
0.21800	-2
0.22167	-1
0.22533	-1
0.22900	-1
0.23267	-1
0.23633	-1
0.24000	-1
0.24367	-1
0.24733	-1
0.25100	-1
0.25467	-2
0.25833	-1
0.26200	-1
0.26567	-1
0.26933	-1
0.27300	-1
0.27667	-1
0.28033	-1
0.28400	-1
0.28767	-1
0.29133	-0
0.29500	-0
0.29867	0
0.30233	0
0.30600	1
0.30967	1
0.31333	1
0.31700	1
0.32067	0
0.32433	0
0.32800	0
0.33167	-0
0.33533	-0
0.33900	-0
0.34267	-0
0.34633	-0
0.35000	-0
0.35367	-0
0.35733	-0
0.36100	-0
0.36467	-1
0.36833	-1
0.37200	-1
0.37567	-1
0.37933	-1
0.38300	-1
0.38667	-1
0.39033	-1
0.39400	-1
0.39767	-1
0.40133	-1
0.40500	-1
0.40867	-1
0.41233	-1
0.41600	-1
0.41967	-1
0.42333	-2
0.42700	-2
0.43067	-2
0.43433	-2
0.43800	-2
0.44167	-2
0.44533	-2
0.44900	-2
0.45267	-2
0.45633	-2
0.46000	-2
0.46367	-2
0.46733	-2
0.47100	-1
0.47467	-1
0.47833	-1
0.48200	-1
0.48567	-0
0.48933	-0
0.49300	-0
0.49667	-0
0.50033	-0
0.50400	-1
0.50767	-1
0.51133	-0
0.51500	-0
0.51867	-0
0.52233	-0
0.52600	-0
0.52967	-1
0.53333	-1
0.53700	-1
0.54067	-1
0.54433	-0
0.54800	-0
0.55167	-0
0.55533	0
0.55900	0
0.56267	0
0.56633	1
0.57000	1
0.57367	1
0.57733	0
0.58100	0
0.58467	0
0.58833	0
0.59200	0
0.59567	-0
0.59933	-1
0.60300	-1
0.60667	-1
0.61033	-1
0.61400	-1
0.61767	-1
0.62133	-1
0.62500	-1
0.62867	-1
0.63233	-1
0.63600	-1
0.63967	-1
0.64333	-1
0.64700	-1
0.65067	-1
0.65433	-1
0.65800	-1
0.66167	-1
0.66533	-1
0.66900	-1
0.67267	-1
0.67633	-2
0.68000	-2
0.68367	-2
0.68733	-2
0.69100	-2
0.69467	-2
0.69833	-2
0.70200	-3
0.70567	-3
0.70933	-3
0.71300	-4
0.71667	-4
0.72033	-4
0.72400	-3
0.72767	-3
0.73133	-3
0.73500	-3
0.73867	-3
0.74233	-3
0.74600	-3
0.74967	-3
0.75333	-3
0.75700	-3
0.76067	-4
0.76433	-4
0.76800	-4
0.77167	-5
0.77533	-5
0.77900	-5
0.78267	-5
0.78633	-5
0.79000	-5
0.79367	-4
0.79733	-4
0.80100	-4
0.80467	-4
0.80833	-4
0.81200	-4
0.81567	-4
0.81933	-4
0.82300	-4
0.82667	-4
0.83033	-4
0.83400	-4
0.83767	-3
0.84133	-3
0.84500	-2
0.84867	-2
0.85233	-2
0.85600	-1
0.85967	-1
0.86333	-1
0.86700	-1
0.87067	-0
0.87433	0
0.87800	0
0.88167	0
0.88533	0
0.88900	-0
0.89267	-0
0.89633	-0
0.90000	-1
0.90367	-1
0.90733	-1
0.91100	-1
0.91467	-1
0.91833	-1
0.92200	-1
0.92567	-2
0.92933	-2
0.93300	-3
0.93667	-3
0.94033	-4
0.94400	-4
0.94767	-4
0.95133	-4
0.95500	-4
0.95867	-4
0.96233	-4
0.96600	-4
0.96967	-4
0.97333	-4
0.97700	-5
0.98067	-5
0.98433	-4
0.98800	-4
0.99167	-4
0.99533	-4
0.99900	-4
1.00267	-4
1.00633	-3
1.01000	-3
1.01367	-3
1.01733	-3
1.02100	-3
1.02467	-3
1.02833	-3
1.03200	-3
1.03567	-3
1.03933	-3
1.04300	-3
1.04667	-3
1.05033	-3
1.05400	-3
1.05767	-3
1.06133	-3
1.06500	-3
1.06867	-3
1.07233	-3
1.07600	-2
1.07967	-2
1.08333	-2
1.08700	-2
1.09067	-2
1.09433	-2
1.09800	-2
1.10167	-2
1.10533	-2
1.10900	-3
1.11267	-3
1.11633	-3
1.12000	-3
1.12367	-3
1.12733	-4
1.13100	-4
1.13467	-3
1.13833	-3
1.14200	-3
1.14567	-3
1.14933	-3
1.15300	-3
1.15667	-2
1.16033	-2
1.16400	-2
1.16767	-2
1.17133	-2
1.17500	-2
1.17867	-2
1.18233	-2
1.18600	-3
1.18967	-3
1.19333	-3
1.19700	-4
1.20067	-4
1.20433	-4
1.20800	-4
1.21167	-4
1.21533	-4
1.21900	-3
1.22267	-3
1.22633	-2
1.23000	-2
1.23367	-2
1.23733	-2
1.24100	-2
1.24467	-3
1.24833	-3
1.25200	-3
1.25567	-3
1.25933	-3
1.26300	-2
1.26667	-2
1.27033	-2
1.27400	-2
1.27767	-2
1.28133	-2
1.28500	-2
1.28867	-2
1.29233	-2
1.29600	-2
1.29967	-2
1.30333	-3
1.30700	-3
1.31067	-3
1.31433	-3
1.31800	-3
1.32167	-3
1.32533	-4
1.32900	-4
1.33267	-4
1.33633	-4
1.34000	-4
1.34367	-4
1.34733	-4
1.35100	-4
1.35467	-4
1.35833	-3
1.36200	-3
1.36567	-3
1.36933	-3
1.37300	-4
1.37667	-4
1.38033	-3
1.38400	-3
1.38767	-3
1.39133	-3
1.39500	-3
1.39867	-3
1.40233	-3
1.40600	-3
1.40967	-3
1.41333	-3
1.41700	-3
1.42067	-3
1.42433	-3
1.42800	-3
1.43167	-4
1.43533	-4
1.43900	-4
1.44267	-4
1.44633	-4
1.45000	-4
1.45367	-4
1.45733	-4
1.46100	-4
1.46467	-4
1.46833	-4
1.47200	-3
1.47567	-3
1.47933	-3
1.48300	-2
1.48667	-2
1.49033	-2
1.49400	-2
1.49767	-2
1.50133	-2
1.50500	-3
1.50867	-3
1.51233	-3
1.51600	-4
1.51967	-4
1.52333	-4
1.52700	-5
1.53067	-5
1.53433	-5
1.53800	-5
1.54167	-5
1.54533	-5
1.54900	-5
1.55267	-5
1.55633	-5
1.56000	-5
1.56367	-5
1.56733	-5
1.57100	-5
1.57467	-5
1.57833	-5
1.58200	-5
1.58567	-5
1.58933	-5
1.59300	-5
1.59667	-5
1.60033	-5
1.60400	-6
1.60767	-7
1.61133	-9
1.61500	-11
1.61867	-13
1.62233	-16
1.62600	-19
1.62967	-22
1.63333	-26
1.63700	-29
1.64067	-33
1.64433	-36
1.64800	-40
1.65167	-43
1.65533	-46
1.65900	-49
1.66267	-53
1.66633	-57
1.67000	-61
1.67367	-66
1.67733	-70
1.68100	-75
1.68467	-80
1.68833	-85
1.69200	-89
1.69567	-93
1.69933	-96
1.70300	-99
1.70667	-101
1.71033	-103
1.71400	-105
1.71767	-106
1.72133	-107
1.72500	-108
1.72867	-108
1.73233	-109
1.73600	-109
1.73967	-109
1.74333	-109
1.74700	-109
1.75067	-109
1.75433	-108
1.75800	-108
1.76167	-107
1.76533	-108
1.76900	-108
1.77267	-109
1.77633	-109
1.78000	-110
1.78367	-111
1.78733	-112
1.79100	-113
1.79467	-113
1.79833	-114
1.80200	-114
1.80567	-114
1.80933	-115
1.81300	-115
1.81667	-115
1.82033	-115
1.82400	-114
1.82767	-114
1.83133	-113
1.83500	-113
1.83867	-113
1.84233	-113
1.84600	-113
1.84967	-114
1.85333	-114
1.85700	-115
1.86067	-115
1.86433	-115
1.86800	-115
1.87167	-115
1.87533	-115
1.87900	-115
1.88267	-115
1.88633	-115
1.89000	-115
1.89367	-115
1.89733	-115
1.90100	-114
1.90467	-114
1.90833	-113
1.91200	-113
1.91567	-113
1.91933	-113
1.92300	-113
1.92667	-113
1.93033	-113
1.93400	-113
1.93767	-113
1.94133	-113
1.94500	-113
1.94867	-112
1.95233	-112
1.95600	-111
1.95967	-111
1.96333	-110
1.96700	-109
1.97067	-109
1.97433	-109
1.97800	-109
1.98167	-109
1.98533	-109
1.98900	-109
1.99267	-108
1.99633	-108
2.00000	-108
2.00367	-108
2.00733	-108
2.01100	-108
2.01467	-108
2.01833	-108
2.02200	-108
2.02567	-108
2.02933	-107
2.03300	-107
2.03667	-106
2.04033	-105
2.04400	-104
2.04767	-103
2.05133	-102
2.05500	-102
2.05867	-101
2.06233	-101
2.06600	-101
2.06967	-100
2.07333	-100
2.07700	-99
2.08067	-98
2.08433	-98
2.08800	-97
2.09167	-98
2.09533	-98
2.09900	-98
2.10267	-98
2.10633	-98
2.11000	-98
2.11367	-98
2.11733	-99
2.12100	-99
2.12467	-99
2.12833	-98
2.13200	-98
2.13567	-97
2.13933	-97
2.14300	-96
2.14667	-95
2.15033	-94
2.15400	-94
2.15767	-93
2.16133	-93
2.16500	-93
2.16867	-93
2.17233	-93
2.17600	-93
2.17967	-93
2.18333	-93
2.18700	-93
2.19067	-92
2.19433	-92
2.19800	-92
2.20167	-92
2.20533	-91
2.20900	-90
2.21267	-90
2.21633	-90
2.22000	-90
2.22367	-90
2.22733	-91
2.23100	-91
2.23467	-91
2.23833	-90
2.24200	-90
2.24567	-90
2.24933	-89
2.25300	-89
2.25667	-89
2.26033	-88
2.26400	-88
2.26767	-88
2.27133	-87
2.27500	-86
2.27867	-85
2.28233	-85
2.28600	-84
2.28967	-84
2.29333	-84
2.29700	-85
2.30067	-85
2.30433	-85
2.30800	-85
2.31167	-85
2.31533	-85
2.31900	-84
2.32267	-83
2.32633	-82
2.33000	-81
2.33367	-80
2.33733	-79
2.34100	-78
2.34467	-77
2.34833	-77
2.35200	-77
2.35567	-77
2.35933	-76
2.36300	-75
2.36667	-74
2.37033	-72
2.37400	-70
2.37767	-67
2.38133	-63
2.38500	-59
2.38867	-55
2.39233	-51
2.39600	-47
2.39967	-42
2.40333	-37
2.40700	-33
2.41067	-29
2.41433	-25
2.41800	-21
2.42167	-19
2.42533	-16
2.42900	-15
2.43267	-14
2.43633	-13
2.44000	-12
2.44367	-12
2.44733	-11
2.45100	-10
2.45467	-9
2.45833	-7
2.46200	-6
2.46567	-5
2.46933	-4
2.47300	-3
2.47667	-2
2.48033	-1
2.48400	-1
2.48767	-0
2.49133	0
2.49500	1
2.49867	1
2.50233	2
2.50600	3
2.50967	4
2.51333	5
2.51700	6
2.52067	7
2.52433	8
2.52800	9
2.53167	9
2.53533	9
2.53900	9
2.54267	9
2.54633	10
2.55000	10
2.55367	10
2.55733	11
2.56100	11
2.56467	12
2.56833	12
2.57200	13
2.57567	13
2.57933	13
2.58300	14
2.58667	14
2.59033	14
2.59400	15
2.59767	15
2.60133	15
2.60500	15
2.60867	15
2.61233	16
2.61600	16
2.61967	16
2.62333	16
2.62700	16
2.63067	17
2.63433	17
2.63800	17
2.64167	17
2.64533	17
2.64900	17
2.65267	17
2.65633	18
2.66000	18
2.66367	19
2.66733	19
2.67100	20
2.67467	20
2.67833	21
2.68200	21
2.68567	20
2.68933	20
2.69300	20
2.69667	19
2.70033	19
2.70400	19
2.70767	20
2.71133	20
2.71500	20
2.71867	20
2.72233	20
2.72600	21
2.72967	21
2.73333	21
2.73700	21
2.74067	22
2.74433	22
2.74800	23
2.75167	24
2.75533	24
2.75900	24
2.76267	25
2.76633	25
2.77000	25
2.77367	25
2.77733	25
2.78100	25
2.78467	25
2.78833	25
2.79200	24
2.79567	24
2.79933	23
2.80300	23
2.80667	23
2.81033	23
2.81400	24
2.81767	24
2.82133	24
2.82500	24
2.82867	24
2.83233	24
2.83600	24
2.83967	24
2.84333	23
2.84700	20
2.85067	16
2.85433	10
2.85800	1
2.86167	-12
2.86533	-28
2.86900	-49
2.87267	-74
2.87633	-103
2.88000	-137
2.88367	-175
2.88733	-217
2.89100	-262
2.89467	-310
2.89833	-360
2.90200	-413
2.90567	-467
2.90933	-522
2.91300	-577
2.91667	-632
2.92033	-686
2.92400	-740
2.92767	-792
2.93133	-843
2.93500	-896
2.93867	-953
2.94233	-1011
2.94600	-1062
2.94967	-1094
2.95333	-1102
2.95700	-1083
2.96067	-1041
2.96433	-982
2.96800	-910
2.97167	-832
2.97533	-751
2.97900	-672
2.98267	-595
2.98633	-523
2.99000	-457
2.99367	-397
2.99733	-343
3.00100	-296
3.00467	-253
3.00833	-216
3.01200	-184
3.01567	-156
3.01933	-132
3.02300	-111
3.02667	-93
3.03033	-78
3.03400	-64
3.03767	-53
3.04133	-44
3.04500	-36
3.04867	-29
3.05233	-23
3.05600	-18
3.05967	-13
3.06333	-10
3.06700	-6
3.07067	-4
3.07433	-1
3.07800	0
3.08167	2
3.08533	3
3.08900	5
3.09267	6
3.09633	6
3.10000	7
3.10367	8
3.10733	9
3.11100	10
3.11467	11
3.11833	11
3.12200	12
3.12567	12
3.12933	12
3.13300	13
3.13667	13
3.14033	13
3.14400	13
3.14767	14
3.15133	14
3.15500	14
3.15867	15
3.16233	15
3.16600	15
3.16967	15
3.17333	16
3.17700	16
3.18067	16
3.18433	17
3.18800	17
3.19167	17
3.19533	17
3.19900	18
3.20267	18
3.20633	18
3.21000	19
3.21367	19
3.21733	19
3.22100	19
3.22467	19
3.22833	19
3.23200	19
3.23567	19
3.23933	19
3.24300	19
3.24667	19
3.25033	19
3.25400	19
3.25767	19
3.26133	19
3.26500	19
3.26867	19
3.27233	20
3.27600	20
3.27967	20
3.28333	21
3.28700	21
3.29067	22
3.29433	22
3.29800	23
3.30167	23
3.30533	24
3.30900	24
3.31267	24
3.31633	25
3.32000	25
3.32367	25
3.32733	25
3.33100	25
3.33467	25
3.33833	25
3.34200	25
3.34567	25
3.34933	25
3.35300	25
3.35667	26
3.36033	26
3.36400	26
3.36767	26
3.37133	26
3.37500	25
3.37867	25
3.38233	25
3.38600	25
3.38967	25
3.39333	25
3.39700	24
3.40067	24
3.40433	24
3.40800	24
3.41167	24
3.41533	24
3.41900	23
3.42267	24
3.42633	24
3.43000	24
3.43367	24
3.43733	24
3.44100	24
3.44467	24
3.44833	23
3.45200	24
3.45567	24
3.45933	24
3.46300	24
3.46667	24
3.47033	24
3.47400	24
3.47767	25
3.48133	25
3.48500	25
3.48867	25
3.49233	25
3.49600	25
3.49967	25
3.50333	24
3.50700	24
3.51067	24
3.51433	24
3.51800	24
3.52167	24
3.52533	24
3.52900	24
3.53267	24
3.53633	24
3.54000	24
3.54367	25
3.54733	25
3.55100	25
3.55467	25
3.55833	25
3.56200	25
3.56567	25
3.56933	24
3.57300	24
3.57667	24
3.58033	24
3.58400	24
3.58767	24
3.59133	24
3.59500	24
3.59867	24
3.60233	24
3.60600	25
3.60967	25
3.61333	25
3.61700	25
3.62067	25
3.62433	25
3.62800	25
3.63167	25
3.63533	25
3.63900	25
3.64267	25
3.64633	25
3.65000	25
3.65367	25
3.65733	25
3.66100	25
3.66467	25
3.66833	25
3.67200	25
3.67567	25
3.67933	25
3.68300	25
3.68667	25
3.69033	25
3.69400	25
3.69767	25
3.70133	25
3.70500	25
3.70867	25
3.71233	25
3.71600	25
3.71967	25
3.72333	25
3.72700	26
3.73067	26
3.73433	26
3.73800	26
3.74167	26
3.74533	26
3.74900	26
3.75267	25
3.75633	25
3.76000	25
3.76367	25
3.76733	25
3.77100	25
3.77467	24
3.77833	24
3.78200	24
3.78567	24
3.78933	24
3.79300	24
3.79667	24
3.80033	24
3.80400	24
3.80767	24
3.81133	24
3.81500	25
3.81867	25
3.82233	25
3.82600	25
3.82967	25
3.83333	26
3.83700	26
3.84067	26
3.84433	26
3.84800	26
3.85167	26
3.85533	26
3.85900	26
3.86267	26
3.86633	27
3.87000	27
3.87367	27
3.87733	28
3.88100	28
3.88467	28
3.88833	28
3.89200	27
3.89567	27
3.89933	27
3.90300	27
3.90667	26
3.91033	26
3.91400	26
3.91767	26
3.92133	26
3.92500	25
3.92867	26
3.93233	26
3.93600	26
3.93967	26
3.94333	26
3.94700	26
3.95067	26
3.95433	26
3.95800	26
3.96167	26
3.96533	26
3.96900	25
3.97267	25
3.97633	25
3.98000	25
3.98367	25
3.98733	25
3.99100	25
3.99467	24
3.99833	24

[Chromatogram (Ch3)]
Interval(msec)	220
# of Points	1091
Start Time(min)	0.002
End Time(min)	3.998
R.Time (min)	Intensity
0.00167	0
0.00533	-1
0.00900	-4
0.01267	-5
0.01633	-4
0.02000	-5
0.02367	-8
0.02733	-12
0.03100	-12
0.03467	-11
0.03833	-7
0.04200	-3
0.04567	-2
0.04933	-4
0.05300	-5
0.05667	-8
0.06033	-9
0.06400	-10
0.06767	-9
0.07133	-9
0.07500	-8
0.07867	-5
0.08233	-1
0.08600	-0
0.08967	-2
0.09333	-3
0.09700	-4
0.10067	-6
0.10433	-4
0.10800	-4
0.11167	-4
0.11533	-5
0.11900	-7
0.12267	-8
0.12633	-7
0.13000	-5
0.13367	-4
0.13733	-4
0.14100	-6
0.14467	-7
0.14833	-8
0.15200	-9
0.15567	-6
0.15933	-5
0.16300	-5
0.16667	-4
0.17033	-3
0.17400	-3
0.17767	-4
0.18133	-5
0.18500	-6
0.18867	-5
0.19233	-5
0.19600	-5
0.19967	-6
0.20333	-4
0.20700	-3
0.21067	-2
0.21433	-2
0.21800	-3
0.22167	-3
0.22533	-5
0.22900	-5
0.23267	-6
0.23633	-7
0.24000	-7
0.24367	-8
0.24733	-8
0.25100	-5
0.25467	-4
0.25833	-4
0.26200	-4
0.26567	-3
0.26933	-3
0.27300	-3
0.27667	-3
0.28033	-2
0.28400	-4
0.28767	-4
0.29133	-4
0.29500	-4
0.29867	-3
0.30233	-4
0.30600	-2
0.30967	-1
0.31333	-1
0.31700	-1
0.32067	-1
0.32433	0
0.32800	1
0.33167	-1
0.33533	-2
0.33900	-3
0.34267	-3
0.34633	-2
0.35000	-1
0.35367	0
0.35733	-1
0.36100	-0
0.36467	2
0.36833	1
0.37200	2
0.37567	1
0.37933	-1
0.38300	-0
0.38667	1
0.39033	3
0.39400	3
0.39767	4
0.40133	5
0.40500	6
0.40867	6
0.41233	3
0.41600	1
0.41967	-1
0.42333	-1
0.42700	-2
0.43067	-4
0.43433	-5
0.43800	-3
0.44167	-0
0.44533	0
0.44900	2
0.45267	2
0.45633	3
0.46000	3
0.46367	3
0.46733	4
0.47100	5
0.47467	3
0.47833	3
0.48200	2
0.48567	1
0.48933	-1
0.49300	-0
0.49667	1
0.50033	1
0.50400	1
0.50767	3
0.51133	4
0.51500	5
0.51867	6
0.52233	6
0.52600	6
0.52967	8
0.53333	9
0.53700	8
0.54067	6
0.54433	5
0.54800	4
0.55167	4
0.55533	3
0.55900	6
0.56267	10
0.56633	11
0.57000	11
0.57367	11
0.57733	10
0.58100	11
0.58467	12
0.58833	11
0.59200	8
0.59567	6
0.59933	5
0.60300	4
0.60667	5
0.61033	6
0.61400	7
0.61767	9
0.62133	9
0.62500	8
0.62867	7
0.63233	5
0.63600	5
0.63967	6
0.64333	6
0.64700	6
0.65067	5
0.65433	5
0.65800	5
0.66167	6
0.66533	7
0.66900	7
0.67267	7
0.67633	7
0.68000	8
0.68367	10
0.68733	12
0.69100	13
0.69467	12
0.69833	11
0.70200	11
0.70567	10
0.70933	10
0.71300	10
0.71667	10
0.72033	10
0.72400	10
0.72767	10
0.73133	9
0.73500	10
0.73867	11
0.74233	11
0.74600	12
0.74967	12
0.75333	11
0.75700	9
0.76067	8
0.76433	9
0.76800	11
0.77167	11
0.77533	12
0.77900	15
0.78267	16
0.78633	16
0.79000	15
0.79367	13
0.79733	12
0.80100	11
0.80467	11
0.80833	13
0.81200	14
0.81567	15
0.81933	15
0.82300	18
0.82667	18
0.83033	17
0.83400	16
0.83767	16
0.84133	15
0.84500	16
0.84867	18
0.85233	19
0.85600	19
0.85967	18
0.86333	16
0.86700	15
0.87067	14
0.87433	14
0.87800	15
0.88167	17
0.88533	16
0.88900	17
0.89267	16
0.89633	16
0.90000	16
0.90367	16
0.90733	18
0.91100	21
0.91467	20
0.91833	19
0.92200	19
0.92567	19
0.92933	18
0.93300	19
0.93667	21
0.94033	24
0.94400	25
0.94767	25
0.95133	25
0.95500	24
0.95867	22
0.96233	20
0.96600	22
0.96967	23
0.97333	23
0.97700	22
0.98067	21
0.98433	22
0.98800	23
0.99167	24
0.99533	23
0.99900	21
1.00267	20
1.00633	21
1.01000	21
1.01367	20
1.01733	21
1.02100	21
1.02467	22
1.02833	22
1.03200	21
1.03567	20
1.03933	21
1.04300	23
1.04667	24
1.05033	25
1.05400	25
1.05767	24
1.06133	22
1.06500	19
1.06867	17
1.07233	18
1.07600	20
1.07967	23
1.08333	27
1.08700	29
1.09067	28
1.09433	27
1.09800	26
1.10167	25
1.10533	26
1.10900	27
1.11267	26
1.11633	26
1.12000	26
1.12367	24
1.12733	21
1.13100	20
1.13467	21
1.13833	23
1.14200	24
1.14567	26
1.14933	27
1.15300	27
1.15667	27
1.16033	25
1.16400	24
1.16767	23
1.17133	24
1.17500	25
1.17867	26
1.18233	26
1.18600	26
1.18967	26
1.19333	27
1.19700	30
1.20067	31
1.20433	31
1.20800	31
1.21167	31
1.21533	30
1.21900	30
1.22267	30
1.22633	30
1.23000	30
1.23367	28
1.23733	24
1.24100	23
1.24467	25
1.24833	26
1.25200	27
1.25567	30
1.25933	31
1.26300	31
1.26667	30
1.27033	30
1.27400	31
1.27767	32
1.28133	34
1.28500	35
1.28867	33
1.29233	30
1.29600	30
1.29967	29
1.30333	30
1.30700	32
1.31067	32
1.31433	33
1.31800	34
1.32167	34
1.32533	34
1.32900	32
1.33267	32
1.33633	33
1.34000	36
1.34367	39
1.34733	39
1.35100	36
1.35467	34
1.35833	34
1.36200	34
1.36567	34
1.36933	37
1.37300	39
1.37667	38
1.38033	36
1.38400	34
1.38767	33
1.39133	31
1.39500	30
1.39867	30
1.40233	30
1.40600	33
1.40967	34
1.41333	34
1.41700	37
1.42067	37
1.42433	36
1.42800	34
1.43167	36
1.43533	37
1.43900	38
1.44267	38
1.44633	38
1.45000	36
1.45367	35
1.45733	35
1.46100	35
1.46467	38
1.46833	38
1.47200	38
1.47567	38
1.47933	37
1.48300	35
1.48667	35
1.49033	34
1.49400	35
1.49767	34
1.50133	33
1.50500	34
1.50867	35
1.51233	35
1.51600	35
1.51967	36
1.52333	36
1.52700	37
1.53067	38
1.53433	38
1.53800	39
1.54167	42
1.54533	45
1.54900	44
1.55267	43
1.55633	41
1.56000	40
1.56367	38
1.56733	36
1.57100	35
1.57467	36
1.57833	37
1.58200	39
1.58567	40
1.58933	41
1.59300	43
1.59667	44
1.60033	43
1.60400	42
1.60767	42
1.61133	41
1.61500	40
1.61867	41
1.62233	42
1.62600	44
1.62967	45
1.63333	47
1.63700	49
1.64067	52
1.64433	52
1.64800	51
1.65167	51
1.65533	49
1.65900	48
1.66267	47
1.66633	47
1.67000	46
1.67367	45
1.67733	45
1.68100	46
1.68467	48
1.68833	51
1.69200	54
1.69567	57
1.69933	57
1.70300	56
1.70667	56
1.71033	58
1.71400	56
1.71767	52
1.72133	50
1.72500	48
1.72867	49
1.73233	51
1.73600	52
1.73967	53
1.74333	53
1.74700	54
1.75067	53
1.75433	52
1.75800	54
1.76167	58
1.76533	62
1.76900	64
1.77267	64
1.77633	62
1.78000	60
1.78367	60
1.78733	59
1.79100	61
1.79467	62
1.79833	61
1.80200	62
1.80567	64
1.80933	65
1.81300	66
1.81667	66
1.82033	64
1.82400	62
1.82767	63
1.83133	63
1.83500	66
1.83867	66
1.84233	67
1.84600	68
1.84967	69
1.85333	70
1.85700	71
1.86067	71
1.86433	73
1.86800	73
1.87167	72
1.87533	74
1.87900	75
1.88267	77
1.88633	79
1.89000	81
1.89367	84
1.89733	85
1.90100	86
1.90467	87
1.90833	89
1.91200	90
1.91567	91
1.91933	90
1.92300	90
1.92667	92
1.93033	93
1.93400	92
1.93767	93
1.94133	95
1.94500	95
1.94867	96
1.95233	98
1.95600	100
1.95967	102
1.96333	103
1.96700	102
1.97067	102
1.97433	105
1.97800	105
1.98167	105
1.98533	106
1.98900	107
1.99267	109
1.99633	111
2.00000	116
2.00367	120
2.00733	123
2.01100	125
2.01467	127
2.01833	129
2.02200	130
2.02567	130
2.02933	132
2.03300	134
2.03667	136
2.04033	137
2.04400	138
2.04767	139
2.05133	140
2.05500	142
2.05867	142
2.06233	139
2.06600	137
2.06967	139
2.07333	139
2.07700	139
2.08067	139
2.08433	138
2.08800	138
2.09167	139
2.09533	142
2.09900	145
2.10267	144
2.10633	145
2.11000	144
2.11367	144
2.11733	144
2.12100	144
2.12467	146
2.12833	150
2.13200	153
2.13567	153
2.13933	152
2.14300	151
2.14667	149
2.15033	148
2.15400	151
2.15767	156
2.16133	158
2.16500	160
2.16867	160
2.17233	159
2.17600	161
2.17967	163
2.18333	165
2.18700	165
2.19067	165
2.19433	166
2.19800	167
2.20167	167
2.20533	166
2.20900	165
2.21267	166
2.21633	170
2.22000	172
2.22367	172
2.22733	171
2.23100	172
2.23467	174
2.23833	177
2.24200	178
2.24567	178
2.24933	177
2.25300	177
2.25667	175
2.26033	175
2.26400	176
2.26767	178
2.27133	179
2.27500	181
2.27867	182
2.28233	184
2.28600	185
2.28967	186
2.29333	187
2.29700	186
2.30067	185
2.30433	185
2.30800	186
2.31167	186
2.31533	187
2.31900	188
2.32267	191
2.32633	194
2.33000	196
2.33367	194
2.33733	196
2.34100	200
2.34467	201
2.34833	200
2.35200	201
2.35567	202
2.35933	204
2.36300	204
2.36667	205
2.37033	205
2.37400	204
2.37767	203
2.38133	200
2.38500	199
2.38867	198
2.39233	198
2.39600	200
2.39967	203
2.40333	205
2.40700	205
2.41067	206
2.41433	207
2.41800	209
2.42167	210
2.42533	208
2.42900	207
2.43267	206
2.43633	207
2.44000	212
2.44367	260
2.44733	380
2.45100	510
2.45467	618
2.45833	676
2.46200	682
2.46567	661
2.46933	639
2.47300	626
2.47667	617
2.48033	600
2.48400	571
2.48767	533
2.49133	493
2.49500	460
2.49867	434
2.50233	418
2.50600	412
2.50967	416
2.51333	426
2.51700	439
2.52067	453
2.52433	463
2.52800	465
2.53167	456
2.53533	439
2.53900	417
2.54267	393
2.54633	370
2.55000	349
2.55367	332
2.55733	318
2.56100	309
2.56467	304
2.56833	300
2.57200	298
2.57567	296
2.57933	294
2.58300	294
2.58667	297
2.59033	301
2.59400	303
2.59767	308
2.60133	312
2.60500	314
2.60867	313
2.61233	309
2.61600	302
2.61967	294
2.62333	284
2.62700	273
2.63067	263
2.63433	253
2.63800	242
2.64167	230
2.64533	220
2.64900	210
2.65267	201
2.65633	194
2.66000	188
2.66367	181
2.66733	175
2.67100	169
2.67467	163
2.67833	161
2.68200	161
2.68567	161
2.68933	160
2.69300	160
2.69667	164
2.70033	170
2.70400	175
2.70767	176
2.71133	180
2.71500	185
2.71867	188
2.72233	191
2.72600	197
2.72967	202
2.73333	204
2.73700	206
2.74067	209
2.74433	212
2.74800	213
2.75167	213
2.75533	214
2.75900	216
2.76267	218
2.76633	219
2.77000	219
2.77367	220
2.77733	224
2.78100	228
2.78467	233
2.78833	235
2.79200	238
2.79567	243
2.79933	249
2.80300	254
2.80667	258
2.81033	261
2.81400	264
2.81767	271
2.82133	279
2.82500	297
2.82867	332
2.83233	394
2.83600	503
2.83967	684
2.84333	956
2.84700	1329
2.85067	1798
2.85433	2340
2.85800	2922
2.86167	3494
2.86533	4010
2.86900	4431
2.87267	4725
2.87633	4881
2.88000	4895
2.88367	4788
2.88733	4582
2.89100	4305
2.89467	3985
2.89833	3650
2.90200	3314
2.90567	2987
2.90933	2678
2.91300	2394
2.91667	2132
2.92033	1896
2.92400	1684
2.92767	1496
2.93133	1331
2.93500	1184
2.93867	1059
2.94233	951
2.94600	858
2.94967	777
2.95333	707
2.95700	645
2.96067	590
2.96433	542
2.96800	501
2.97167	465
2.97533	437
2.97900	413
2.98267	392
2.98633	372
2.99000	356
2.99367	342
2.99733	329
3.00100	318
3.00467	308
3.00833	300
3.01200	293
3.01567	287
3.01933	282
3.02300	277
3.02667	275
3.03033	273
3.03400	270
3.03767	266
3.04133	264
3.04500	263
3.04867	263
3.05233	262
3.05600	261
3.05967	261
3.06333	257
3.06700	244
3.07067	217
3.07433	199
3.07800	205
3.08167	230
3.08533	266
3.08900	307
3.09267	350
3.09633	396
3.10000	445
3.10367	494
3.10733	540
3.11100	582
3.11467	620
3.11833	654
3.12200	683
3.12567	708
3.12933	731
3.13300	749
3.13667	766
3.14033	778
3.14400	788
3.14767	797
3.15133	804
3.15500	813
3.15867	822
3.16233	831
3.16600	841
3.16967	849
3.17333	855
3.17700	859
3.18067	864
3.18433	868
3.18800	872
3.19167	877
3.19533	883
3.19900	889
3.20267	894
3.20633	897
3.21000	903
3.21367	909
3.21733	914
3.22100	920
3.22467	924
3.22833	930
3.23200	935
3.23567	939
3.23933	943
3.24300	948
3.24667	955
3.25033	960
3.25400	965
3.25767	970
3.26133	973
3.26500	976
3.26867	980
3.27233	981
3.27600	982
3.27967	983
3.28333	984
3.28700	984
3.29067	983
3.29433	982
3.29800	981
3.30167	981
3.30533	979
3.30900	977
3.31267	975
3.31633	971
3.32000	967
3.32367	965
3.32733	963
3.33100	964
3.33467	962
3.33833	959
3.34200	957
3.34567	956
3.34933	953
3.35300	950
3.35667	949
3.36033	946
3.36400	945
3.36767	941
3.37133	940
3.37500	937
3.37867	933
3.38233	931
3.38600	929
3.38967	928
3.39333	923
3.39700	918
3.40067	913
3.40433	909
3.40800	908
3.41167	907
3.41533	904
3.41900	901
3.42267	900
3.42633	898
3.43000	896
3.43367	894
3.43733	891
3.44100	889
3.44467	887
3.44833	884
3.45200	883
3.45567	882
3.45933	879
3.46300	877
3.46667	875
3.47033	874
3.47400	873
3.47767	870
3.48133	867
3.48500	863
3.48867	862
3.49233	862
3.49600	861
3.49967	859
3.50333	857
3.50700	856
3.51067	854
3.51433	851
3.51800	847
3.52167	844
3.52533	841
3.52900	838
3.53267	837
3.53633	838
3.54000	839
3.54367	836
3.54733	833
3.55100	831
3.55467	830
3.55833	829
3.56200	826
3.56567	824
3.56933	823
3.57300	822
3.57667	817
3.58033	814
3.58400	813
3.58767	812
3.59133	809
3.59500	805
3.59867	803
3.60233	802
3.60600	799
3.60967	797
3.61333	797
3.61700	796
3.62067	793
3.62433	790
3.62800	784
3.63167	782
3.63533	781
3.63900	778
3.64267	776
3.64633	772
3.65000	769
3.65367	768
3.65733	766
3.66100	764
3.66467	763
3.66833	761
3.67200	758
3.67567	755
3.67933	751
3.68300	749
3.68667	748
3.69033	746
3.69400	742
3.69767	737
3.70133	734
3.70500	731
3.70867	729
3.71233	727
3.71600	722
3.71967	717
3.72333	714
3.72700	712
3.73067	711
3.73433	710
3.73800	708
3.74167	705
3.74533	704
3.74900	703
3.75267	704
3.75633	703
3.76000	700
3.76367	698
3.76733	695
3.77100	691
3.77467	688
3.77833	687
3.78200	685
3.78567	683
3.78933	682
3.79300	681
3.79667	681
3.80033	678
3.80400	675
3.80767	674
3.81133	672
3.81500	671
3.81867	671
3.82233	670
3.82600	667
3.82967	664
3.83333	662
3.83700	659
3.84067	657
3.84433	656
3.84800	654
3.85167	651
3.85533	649
3.85900	647
3.86267	644
3.86633	640
3.87000	638
3.87367	636
3.87733	635
3.88100	633
3.88467	631
3.88833	629
3.89200	628
3.89567	627
3.89933	625
3.90300	622
3.90667	621
3.91033	619
3.91400	620
3.91767	622
3.92133	621
3.92500	619
3.92867	616
3.93233	612
3.93600	610
3.93967	609
3.94333	608
3.94700	608
3.95067	608
3.95433	606
3.95800	605
3.96167	604
3.96533	604
3.96900	604
3.97267	600
3.97633	598
3.98000	598
3.98367	598
3.98733	599
3.99100	598
3.99467	595
3.99833	590

[Status Trace (Column Oven Temperature)]
Interval(msec)	1000
# of Points	240
Start Time(min)	0.008
End Time(min)	3.991
Intensity Units	
Intensity Multiplier	1
R.Time (min)	Intensity
0.00813	35.05
0.02480	35.05
0.04147	35.05
0.05813	35.05
0.07480	35.04
0.09147	35.04
0.10813	35.03
0.12480	35.04
0.14147	35.05
0.15813	35.04
0.17480	35.05
0.19147	35.05
0.20813	35.05
0.22480	35.05
0.24147	35.05
0.25813	35.05
0.27480	35.05
0.29147	35.04
0.30813	35.03
0.32480	35.04
0.34147	35.02
0.35813	35.02
0.37480	35.02
0.39147	35.02
0.40813	35.01
0.42480	35.02
0.44147	35.02
0.45813	35.02
0.47480	35.01
0.49147	35.01
0.50813	35.01
0.52480	35.00
0.54147	34.99
0.55813	34.98
0.57480	34.97
0.59147	34.98
0.60813	34.99
0.62480	34.98
0.64147	34.98
0.65813	34.98
0.67480	34.98
0.69147	34.97
0.70813	34.99
0.72480	34.99
0.74147	34.99
0.75813	35.00
0.77480	35.01
0.79147	35.02
0.80813	35.02
0.82480	35.02
0.84147	35.02
0.85813	35.00
0.87480	34.99
0.89147	34.97
0.90813	34.98
0.92480	34.99
0.94147	34.99
0.95813	34.99
0.97480	34.99
0.99147	34.99
1.00813	34.99
1.02480	35.00
1.04147	35.01
1.05813	35.01
1.07480	35.02
1.09147	35.02
1.10813	35.02
1.12480	35.02
1.14147	35.01
1.15813	34.99
1.17480	35.00
1.19147	35.00
1.20813	34.99
1.22480	35.00
1.24147	35.00
1.25813	35.00
1.27480	34.99
1.29147	34.99
1.30813	34.98
1.32480	34.98
1.34147	34.99
1.35813	35.00
1.37480	35.00
1.39147	34.99
1.40813	34.99
1.42480	34.98
1.44147	34.98
1.45813	34.98
1.47480	34.98
1.49147	34.97
1.50813	34.98
1.52480	34.99
1.54147	35.00
1.55813	35.00
1.57480	35.00
1.59147	35.01
1.60813	35.07
1.62480	35.20
1.64147	35.38
1.65813	35.62
1.67480	35.96
1.69147	36.33
1.70813	36.68
1.72480	37.03
1.74147	37.35
1.75813	37.65
1.77480	37.99
1.79147	38.33
1.80813	38.67
1.82480	38.98
1.84147	39.32
1.85813	39.65
1.87480	39.98
1.89147	40.31
1.90813	40.63
1.92480	40.96
1.94147	41.30
1.95813	41.62
1.97480	41.94
1.99147	42.28
2.00813	42.61
2.02480	42.95
2.04147	43.24
2.05813	43.57
2.07480	43.88
2.09147	44.21
2.10813	44.53
2.12480	44.85
2.14147	45.16
2.15813	45.49
2.17480	45.82
2.19147	46.16
2.20813	46.48
2.22480	46.83
2.24147	47.15
2.25813	47.50
2.27480	47.81
2.29147	48.17
2.30813	48.52
2.32480	48.83
2.34147	49.13
2.35813	49.45
2.37480	49.66
2.39147	49.71
2.40813	49.70
2.42480	49.72
2.44147	49.73
2.45813	49.72
2.47480	49.73
2.49147	49.75
2.50813	49.75
2.52480	49.77
2.54147	49.78
2.55813	49.79
2.57480	49.80
2.59147	49.81
2.60813	49.81
2.62480	49.82
2.64147	49.82
2.65813	49.83
2.67480	49.83
2.69147	49.84
2.70813	49.86
2.72480	49.87
2.74147	49.86
2.75813	49.85
2.77480	49.85
2.79147	49.87
2.80813	49.87
2.82480	49.88
2.84147	49.89
2.85813	49.90
2.87480	49.90
2.89147	49.89
2.90813	49.90
2.92480	49.91
2.94147	49.93
2.95813	49.93
2.97480	49.95
2.99147	49.95
3.00813	49.95
3.02480	49.96
3.04147	49.97
3.05813	49.97
3.07480	49.99
3.09147	50.01
3.10813	50.02
3.12480	50.03
3.14147	50.04
3.15813	50.04
3.17480	50.06
3.19147	50.06
3.20813	50.06
3.22480	50.07
3.24147	50.08
3.25813	50.10
3.27480	50.11
3.29147	50.10
3.30813	50.09
3.32480	50.08
3.34147	50.07
3.35813	50.06
3.37480	50.06
3.39147	50.06
3.40813	50.07
3.42480	50.07
3.44147	50.07
3.45813	50.07
3.47480	50.07
3.49147	50.08
3.50813	50.09
3.52480	50.08
3.54147	50.08
3.55813	50.08
3.57480	50.09
3.59147	50.08
3.60813	50.08
3.62480	50.08
3.64147	50.09
3.65813	50.08
3.67480	50.08
3.69147	50.09
3.70813	50.09
3.72480	50.09
3.74147	50.09
3.75813	50.08
3.77480	50.07
3.79147	50.07
3.80813	50.07
3.82480	50.06
3.84147	50.06
3.85813	50.05
3.87480	50.04
3.89147	50.04
3.90813	50.05
3.92480	50.05
3.94147	50.05
3.95813	50.05
3.97480	50.05
3.99147	50.05

[Status Trace (Injection Unit Temperature)]
Interval(msec)	1000
# of Points	240
Start Time(min)	0.008
End Time(min)	3.991
Intensity Units	
Intensity Multiplier	1
R.Time (min)	Intensity
0.00813	99.98
0.02480	99.97
0.04147	99.98
0.05813	99.98
0.07480	99.98
0.09147	99.98
0.10813	99.98
0.12480	99.98
0.14147	99.97
0.15813	99.98
0.17480	99.98
0.19147	99.98
0.20813	99.98
0.22480	99.98
0.24147	99.98
0.25813	99.98
0.27480	99.98
0.29147	99.98
0.30813	99.98
0.32480	99.98
0.34147	99.98
0.35813	99.98
0.37480	99.98
0.39147	99.98
0.40813	99.98
0.42480	99.99
0.44147	99.98
0.45813	99.98
0.47480	99.98
0.49147	99.98
0.50813	99.98
0.52480	99.98
0.54147	99.98
0.55813	99.98
0.57480	99.98
0.59147	99.98
0.60813	99.99
0.62480	99.98
0.64147	99.98
0.65813	99.98
0.67480	99.98
0.69147	99.98
0.70813	99.98
0.72480	99.98
0.74147	99.98
0.75813	99.98
0.77480	99.98
0.79147	99.98
0.80813	99.98
0.82480	99.98
0.84147	99.98
0.85813	99.98
0.87480	99.98
0.89147	99.98
0.90813	99.98
0.92480	99.98
0.94147	99.98
0.95813	99.98
0.97480	99.98
0.99147	99.98
1.00813	99.98
1.02480	99.98
1.04147	99.98
1.05813	99.98
1.07480	99.98
1.09147	99.98
1.10813	99.98
1.12480	99.98
1.14147	99.98
1.15813	99.98
1.17480	99.98
1.19147	99.98
1.20813	99.99
1.22480	99.98
1.24147	99.99
1.25813	99.98
1.27480	99.98
1.29147	99.98
1.30813	99.99
1.32480	99.99
1.34147	99.99
1.35813	99.99
1.37480	99.99
1.39147	99.99
1.40813	99.99
1.42480	99.99
1.44147	99.99
1.45813	99.99
1.47480	99.99
1.49147	99.99
1.50813	99.99
1.52480	99.99
1.54147	99.99
1.55813	99.99
1.57480	99.99
1.59147	99.99
1.60813	99.99
1.62480	99.99
1.64147	99.99
1.65813	99.99
1.67480	99.99
1.69147	99.98
1.70813	99.99
1.72480	99.99
1.74147	99.99
1.75813	99.99
1.77480	99.99
1.79147	99.99
1.80813	99.99
1.82480	99.99
1.84147	99.99
1.85813	99.99
1.87480	99.99
1.89147	99.99
1.90813	99.99
1.92480	99.99
1.94147	99.99
1.95813	99.99
1.97480	99.98
1.99147	99.98
2.00813	99.98
2.02480	99.98
2.04147	99.98
2.05813	99.98
2.07480	99.98
2.09147	99.98
2.10813	99.98
2.12480	99.98
2.14147	99.97
2.15813	99.97
2.17480	99.97
2.19147	99.97
2.20813	99.97
2.22480	99.97
2.24147	99.97
2.25813	99.96
2.27480	99.96
2.29147	99.96
2.30813	99.96
2.32480	99.96
2.34147	99.96
2.35813	99.96
2.37480	99.96
2.39147	99.96
2.40813	99.95
2.42480	99.96
2.44147	99.95
2.45813	99.95
2.47480	99.95
2.49147	99.95
2.50813	99.95
2.52480	99.96
2.54147	99.96
2.55813	99.96
2.57480	99.96
2.59147	99.96
2.60813	99.96
2.62480	99.96
2.64147	99.96
2.65813	99.97
2.67480	99.96
2.69147	99.97
2.70813	99.97
2.72480	99.97
2.74147	99.97
2.75813	99.98
2.77480	99.98
2.79147	99.98
2.80813	99.99
2.82480	99.99
2.84147	99.99
2.85813	99.99
2.87480	100.00
2.89147	100.00
2.90813	100.00
2.92480	100.01
2.94147	100.00
2.95813	100.01
2.97480	100.01
2.99147	100.01
3.00813	100.01
3.02480	100.02
3.04147	100.02
3.05813	100.02
3.07480	100.03
3.09147	100.03
3.10813	100.03
3.12480	100.03
3.14147	100.03
3.15813	100.03
3.17480	100.03
3.19147	100.04
3.20813	100.04
3.22480	100.04
3.24147	100.04
3.25813	100.04
3.27480	100.04
3.29147	100.04
3.30813	100.04
3.32480	100.05
3.34147	100.04
3.35813	100.04
3.37480	100.04
3.39147	100.04
3.40813	100.04
3.42480	100.04
3.44147	100.05
3.45813	100.05
3.47480	100.05
3.49147	100.05
3.50813	100.05
3.52480	100.04
3.54147	100.05
3.55813	100.04
3.57480	100.05
3.59147	100.05
3.60813	100.05
3.62480	100.05
3.64147	100.05
3.65813	100.05
3.67480	100.05
3.69147	100.05
3.70813	100.05
3.72480	100.05
3.74147	100.04
3.75813	100.05
3.77480	100.05
3.79147	100.04
3.80813	100.05
3.82480	100.05
3.84147	100.05
3.85813	100.05
3.87480	100.05
3.89147	100.05
3.90813	100.05
3.92480	100.05
3.94147	100.05
3.95813	100.05
3.97480	100.05
3.99147	100.04

[Status Trace (Carrier Gas Pressure)]
Interval(msec)	1000
# of Points	240
Start Time(min)	0.008
End Time(min)	3.991
Intensity Units	
Intensity Multiplier	1
R.Time (min)	Intensity
0.00813	58.00
0.02480	55.36
0.04147	57.22
0.05813	59.27
0.07480	59.35
0.09147	58.04
0.10813	57.98
0.12480	58.01
0.14147	58.01
0.15813	58.00
0.17480	58.00
0.19147	58.00
0.20813	58.00
0.22480	58.00
0.24147	58.00
0.25813	58.00
0.27480	58.00
0.29147	58.00
0.30813	58.00
0.32480	58.00
0.34147	58.00
0.35813	58.00
0.37480	58.00
0.39147	58.00
0.40813	58.00
0.42480	58.00
0.44147	58.00
0.45813	58.00
0.47480	58.00
0.49147	58.00
0.50813	58.00
0.52480	58.00
0.54147	58.00
0.55813	58.00
0.57480	58.00
0.59147	58.00
0.60813	58.00
0.62480	58.00
0.64147	58.00
0.65813	58.00
0.67480	58.00
0.69147	58.00
0.70813	58.00
0.72480	58.00
0.74147	58.00
0.75813	58.00
0.77480	58.00
0.79147	58.00
0.80813	58.00
0.82480	58.00
0.84147	58.00
0.85813	58.00
0.87480	58.00
0.89147	58.00
0.90813	58.00
0.92480	58.00
0.94147	58.00
0.95813	58.00
0.97480	58.00
0.99147	58.00
1.00813	58.00
1.02480	58.00
1.04147	58.00
1.05813	58.00
1.07480	58.00
1.09147	58.00
1.10813	58.00
1.12480	58.00
1.14147	58.00
1.15813	58.00
1.17480	58.00
1.19147	58.00
1.20813	58.00
1.22480	58.00
1.24147	58.00
1.25813	58.00
1.27480	58.00
1.29147	58.00
1.30813	58.00
1.32480	58.00
1.34147	58.00
1.35813	58.00
1.37480	58.00
1.39147	58.00
1.40813	58.00
1.42480	58.00
1.44147	58.00
1.45813	58.00
1.47480	58.00
1.49147	58.00
1.50813	58.00
1.52480	58.00
1.54147	58.00
1.55813	58.00
1.57480	58.00
1.59147	58.00
1.60813	58.00
1.62480	58.00
1.64147	58.00
1.65813	58.00
1.67480	58.01
1.69147	58.00
1.70813	58.00
1.72480	58.00
1.74147	58.00
1.75813	58.00
1.77480	58.00
1.79147	58.00
1.80813	58.00
1.82480	58.00
1.84147	58.00
1.85813	58.00
1.87480	58.00
1.89147	58.00
1.90813	58.00
1.92480	58.00
1.94147	58.00
1.95813	58.00
1.97480	58.00
1.99147	58.00
2.00813	58.00
2.02480	58.00
2.04147	58.00
2.05813	58.00
2.07480	58.00
2.09147	58.00
2.10813	58.00
2.12480	58.00
2.14147	58.00
2.15813	58.00
2.17480	58.00
2.19147	58.00
2.20813	58.00
2.22480	58.00
2.24147	58.00
2.25813	58.00
2.27480	58.00
2.29147	58.00
2.30813	58.00
2.32480	58.00
2.34147	58.00
2.35813	58.00
2.37480	58.00
2.39147	57.99
2.40813	57.99
2.42480	58.00
2.44147	58.00
2.45813	58.00
2.47480	58.00
2.49147	58.00
2.50813	57.99
2.52480	57.98
2.54147	58.00
2.55813	58.00
2.57480	58.00
2.59147	58.00
2.60813	58.00
2.62480	58.00
2.64147	58.00
2.65813	58.00
2.67480	58.00
2.69147	58.00
2.70813	58.00
2.72480	58.00
2.74147	58.00
2.75813	58.00
2.77480	58.00
2.79147	58.00
2.80813	58.00
2.82480	58.00
2.84147	58.00
2.85813	58.00
2.87480	58.00
2.89147	58.00
2.90813	58.00
2.92480	58.00
2.94147	58.00
2.95813	58.00
2.97480	58.00
2.99147	58.00
3.00813	58.00
3.02480	58.00
3.04147	58.00
3.05813	58.00
3.07480	58.00
3.09147	58.00
3.10813	58.00
3.12480	58.00
3.14147	58.00
3.15813	58.00
3.17480	58.00
3.19147	58.00
3.20813	58.00
3.22480	58.00
3.24147	58.00
3.25813	58.00
3.27480	58.00
3.29147	58.00
3.30813	58.00
3.32480	58.00
3.34147	58.00
3.35813	58.00
3.37480	58.00
3.39147	58.00
3.40813	58.00
3.42480	58.00
3.44147	58.00
3.45813	58.00
3.47480	58.00
3.49147	58.00
3.50813	58.00
3.52480	58.00
3.54147	58.00
3.55813	58.00
3.57480	58.00
3.59147	58.00
3.60813	58.00
3.62480	58.00
3.64147	58.00
3.65813	58.00
3.67480	58.00
3.69147	58.00
3.70813	58.00
3.72480	58.00
3.74147	58.00
3.75813	58.00
3.77480	58.00
3.79147	58.00
3.80813	58.00
3.82480	58.00
3.84147	58.00
3.85813	58.00
3.87480	58.00
3.89147	58.00
3.90813	58.00
3.92480	58.00
3.94147	58.00
3.95813	58.00
3.97480	58.00
3.99147	58.00

[Status Trace (Carrier Gas Flow)]
Interval(msec)	1000
# of Points	240
Start Time(min)	0.008
End Time(min)	3.991
Intensity Units	
Intensity Multiplier	1
R.Time (min)	Intensity
0.00813	34.52
0.02480	34.53
0.04147	34.55
0.05813	34.55
0.07480	34.50
0.09147	34.52
0.10813	34.52
0.12480	34.51
0.14147	34.52
0.15813	34.52
0.17480	34.52
0.19147	34.51
0.20813	34.52
0.22480	34.52
0.24147	34.52
0.25813	34.51
0.27480	34.52
0.29147	34.52
0.30813	34.52
0.32480	34.52
0.34147	34.52
0.35813	34.51
0.37480	34.52
0.39147	34.52
0.40813	34.52
0.42480	34.51
0.44147	34.52
0.45813	34.53
0.47480	34.51
0.49147	34.51
0.50813	34.52
0.52480	34.51
0.54147	34.51
0.55813	34.52
0.57480	34.51
0.59147	34.52
0.60813	34.52
0.62480	34.52
0.64147	34.52
0.65813	34.52
0.67480	34.52
0.69147	34.52
0.70813	34.52
0.72480	34.52
0.74147	34.52
0.75813	34.52
0.77480	34.52
0.79147	34.52
0.80813	34.51
0.82480	34.51
0.84147	34.52
0.85813	34.52
0.87480	34.52
0.89147	34.52
0.90813	34.52
0.92480	34.52
0.94147	34.52
0.95813	34.52
0.97480	34.52
0.99147	34.52
1.00813	34.52
1.02480	34.51
1.04147	34.52
1.05813	34.52
1.07480	34.51
1.09147	34.52
1.10813	34.52
1.12480	34.52
1.14147	34.51
1.15813	34.51
1.17480	34.51
1.19147	34.52
1.20813	34.51
1.22480	34.52
1.24147	34.52
1.25813	34.52
1.27480	34.51
1.29147	34.52
1.30813	34.52
1.32480	34.52
1.34147	34.52
1.35813	34.52
1.37480	34.52
1.39147	34.52
1.40813	34.52
1.42480	34.51
1.44147	34.52
1.45813	34.52
1.47480	34.51
1.49147	34.52
1.50813	34.52
1.52480	34.51
1.54147	34.52
1.55813	34.51
1.57480	34.52
1.59147	34.52
1.60813	34.52
1.62480	34.52
1.64147	34.52
1.65813	34.51
1.67480	34.52
1.69147	34.52
1.70813	34.52
1.72480	34.52
1.74147	34.52
1.75813	34.51
1.77480	34.52
1.79147	34.51
1.80813	34.52
1.82480	34.52
1.84147	34.52
1.85813	34.52
1.87480	34.52
1.89147	34.51
1.90813	34.51
1.92480	34.51
1.94147	34.51
1.95813	34.52
1.97480	34.52
1.99147	34.51
2.00813	34.52
2.02480	34.52
2.04147	34.52
2.05813	34.52
2.07480	34.52
2.09147	34.52
2.10813	34.52
2.12480	34.52
2.14147	34.52
2.15813	34.52
2.17480	34.52
2.19147	34.52
2.20813	34.52
2.22480	34.52
2.24147	34.52
2.25813	34.52
2.27480	34.52
2.29147	34.52
2.30813	34.52
2.32480	34.52
2.34147	34.52
2.35813	34.52
2.37480	34.52
2.39147	34.52
2.40813	34.52
2.42480	34.51
2.44147	34.52
2.45813	34.52
2.47480	34.52
2.49147	34.52
2.50813	34.39
2.52480	34.52
2.54147	34.52
2.55813	34.52
2.57480	34.52
2.59147	34.52
2.60813	34.52
2.62480	34.52
2.64147	34.52
2.65813	34.52
2.67480	34.52
2.69147	34.52
2.70813	34.52
2.72480	34.52
2.74147	34.52
2.75813	34.52
2.77480	34.52
2.79147	34.52
2.80813	34.52
2.82480	34.52
2.84147	34.51
2.85813	34.52
2.87480	34.52
2.89147	34.52
2.90813	34.52
2.92480	34.52
2.94147	34.52
2.95813	34.52
2.97480	34.51
2.99147	34.52
3.00813	34.52
3.02480	34.52
3.04147	34.52
3.05813	34.52
3.07480	34.52
3.09147	34.52
3.10813	34.52
3.12480	34.52
3.14147	34.52
3.15813	34.52
3.17480	34.52
3.19147	34.52
3.20813	34.52
3.22480	34.52
3.24147	34.52
3.25813	34.52
3.27480	34.52
3.29147	34.52
3.30813	34.52
3.32480	34.52
3.34147	34.52
3.35813	34.52
3.37480	34.52
3.39147	34.52
3.40813	34.52
3.42480	34.52
3.44147	34.52
3.45813	34.53
3.47480	34.52
3.49147	34.52
3.50813	34.52
3.52480	34.51
3.54147	34.52
3.55813	34.52
3.57480	34.52
3.59147	34.52
3.60813	34.52
3.62480	34.51
3.64147	34.52
3.65813	34.52
3.67480	34.52
3.69147	34.52
3.70813	34.52
3.72480	34.52
3.74147	34.51
3.75813	34.52
3.77480	34.52
3.79147	34.52
3.80813	34.52
3.82480	34.52
3.84147	34.51
3.85813	34.52
3.87480	34.52
3.89147	34.52
3.90813	34.52
3.92480	34.52
3.94147	34.52
3.95813	34.52
3.97480	34.51
3.99147	34.52

[Status Trace (Column Flow)]
Interval(msec)	1000
# of Points	240
Start Time(min)	0.008
End Time(min)	3.991
Intensity Units	
Intensity Multiplier	1
R.Time (min)	Intensity
0.00813	5.52
0.02480	5.22
0.04147	5.43
0.05813	5.67
0.07480	5.68
0.09147	5.53
0.10813	5.52
0.12480	5.52
0.14147	5.52
0.15813	5.52
0.17480	5.52
0.19147	5.52
0.20813	5.52
0.22480	5.52
0.24147	5.52
0.25813	5.52
0.27480	5.52
0.29147	5.52
0.30813	5.52
0.32480	5.52
0.34147	5.52
0.35813	5.52
0.37480	5.52
0.39147	5.52
0.40813	5.52
0.42480	5.52
0.44147	5.52
0.45813	5.52
0.47480	5.52
0.49147	5.52
0.50813	5.52
0.52480	5.52
0.54147	5.52
0.55813	5.52
0.57480	5.52
0.59147	5.52
0.60813	5.52
0.62480	5.52
0.64147	5.52
0.65813	5.52
0.67480	5.52
0.69147	5.52
0.70813	5.52
0.72480	5.52
0.74147	5.52
0.75813	5.52
0.77480	5.52
0.79147	5.52
0.80813	5.52
0.82480	5.52
0.84147	5.52
0.85813	5.52
0.87480	5.52
0.89147	5.52
0.90813	5.52
0.92480	5.52
0.94147	5.52
0.95813	5.52
0.97480	5.52
0.99147	5.52
1.00813	5.52
1.02480	5.52
1.04147	5.52
1.05813	5.52
1.07480	5.52
1.09147	5.52
1.10813	5.52
1.12480	5.52
1.14147	5.52
1.15813	5.52
1.17480	5.52
1.19147	5.52
1.20813	5.52
1.22480	5.52
1.24147	5.52
1.25813	5.52
1.27480	5.52
1.29147	5.52
1.30813	5.52
1.32480	5.52
1.34147	5.52
1.35813	5.52
1.37480	5.52
1.39147	5.52
1.40813	5.52
1.42480	5.52
1.44147	5.52
1.45813	5.52
1.47480	5.52
1.49147	5.52
1.50813	5.52
1.52480	5.52
1.54147	5.52
1.55813	5.52
1.57480	5.52
1.59147	5.52
1.60813	5.52
1.62480	5.52
1.64147	5.51
1.65813	5.50
1.67480	5.49
1.69147	5.48
1.70813	5.47
1.72480	5.46
1.74147	5.45
1.75813	5.44
1.77480	5.43
1.79147	5.42
1.80813	5.41
1.82480	5.40
1.84147	5.39
1.85813	5.38
1.87480	5.37
1.89147	5.36
1.90813	5.35
1.92480	5.34
1.94147	5.33
1.95813	5.32
1.97480	5.31
1.99147	5.30
2.00813	5.29
2.02480	5.28
2.04147	5.27
2.05813	5.26
2.07480	5.25
2.09147	5.25
2.10813	5.24
2.12480	5.23
2.14147	5.22
2.15813	5.21
2.17480	5.20
2.19147	5.19
2.20813	5.18
2.22480	5.17
2.24147	5.16
2.25813	5.15
2.27480	5.14
2.29147	5.13
2.30813	5.12
2.32480	5.11
2.34147	5.10
2.35813	5.10
2.37480	5.09
2.39147	5.09
2.40813	5.09
2.42480	5.09
2.44147	5.09
2.45813	5.09
2.47480	5.09
2.49147	5.09
2.50813	5.09
2.52480	5.08
2.54147	5.09
2.55813	5.09
2.57480	5.09
2.59147	5.09
2.60813	5.09
2.62480	5.09
2.64147	5.09
2.65813	5.09
2.67480	5.09
2.69147	5.09
2.70813	5.08
2.72480	5.08
2.74147	5.08
2.75813	5.08
2.77480	5.08
2.79147	5.08
2.80813	5.08
2.82480	5.08
2.84147	5.08
2.85813	5.08
2.87480	5.08
2.89147	5.08
2.90813	5.08
2.92480	5.08
2.94147	5.08
2.95813	5.08
2.97480	5.08
2.99147	5.08
3.00813	5.08
3.02480	5.08
3.04147	5.08
3.05813	5.08
3.07480	5.08
3.09147	5.08
3.10813	5.08
3.12480	5.08
3.14147	5.08
3.15813	5.08
3.17480	5.08
3.19147	5.08
3.20813	5.08
3.22480	5.08
3.24147	5.08
3.25813	5.08
3.27480	5.08
3.29147	5.08
3.30813	5.08
3.32480	5.08
3.34147	5.08
3.35813	5.08
3.37480	5.08
3.39147	5.08
3.40813	5.08
3.42480	5.08
3.44147	5.08
3.45813	5.08
3.47480	5.08
3.49147	5.08
3.50813	5.08
3.52480	5.08
3.54147	5.08
3.55813	5.08
3.57480	5.08
3.59147	5.08
3.60813	5.08
3.62480	5.08
3.64147	5.08
3.65813	5.08
3.67480	5.08
3.69147	5.08
3.70813	5.08
3.72480	5.08
3.74147	5.08
3.75813	5.08
3.77480	5.08
3.79147	5.08
3.80813	5.08
3.82480	5.08
3.84147	5.08
3.85813	5.08
3.87480	5.08
3.89147	5.08
3.90813	5.08
3.92480	5.08
3.94147	5.08
3.95813	5.08
3.97480	5.08
3.99147	5.08

[Status Trace (Linear Velocity)]
Interval(msec)	1000
# of Points	240
Start Time(min)	0.008
End Time(min)	3.991
Intensity Units	
Intensity Multiplier	1
R.Time (min)	Intensity
0.00813	39.01
0.02480	37.28
0.04147	38.50
0.05813	39.85
0.07480	39.90
0.09147	39.04
0.10813	39.00
0.12480	39.02
0.14147	39.02
0.15813	39.02
0.17480	39.02
0.19147	39.02
0.20813	39.01
0.22480	39.01
0.24147	39.01
0.25813	39.01
0.27480	39.01
0.29147	39.01
0.30813	39.02
0.32480	39.02
0.34147	39.02
0.35813	39.01
0.37480	39.01
0.39147	39.02
0.40813	39.02
0.42480	39.02
0.44147	39.02
0.45813	39.02
0.47480	39.02
0.49147	39.02
0.50813	39.02
0.52480	39.02
0.54147	39.02
0.55813	39.02
0.57480	39.02
0.59147	39.02
0.60813	39.02
0.62480	39.02
0.64147	39.02
0.65813	39.02
0.67480	39.02
0.69147	39.02
0.70813	39.02
0.72480	39.02
0.74147	39.02
0.75813	39.02
0.77480	39.02
0.79147	39.02
0.80813	39.02
0.82480	39.01
0.84147	39.02
0.85813	39.02
0.87480	39.02
0.89147	39.02
0.90813	39.02
0.92480	39.02
0.94147	39.02
0.95813	39.02
0.97480	39.02
0.99147	39.02
1.00813	39.02
1.02480	39.02
1.04147	39.02
1.05813	39.02
1.07480	39.02
1.09147	39.02
1.10813	39.02
1.12480	39.02
1.14147	39.02
1.15813	39.02
1.17480	39.02
1.19147	39.02
1.20813	39.02
1.22480	39.02
1.24147	39.02
1.25813	39.02
1.27480	39.02
1.29147	39.02
1.30813	39.02
1.32480	39.02
1.34147	39.02
1.35813	39.02
1.37480	39.02
1.39147	39.02
1.40813	39.02
1.42480	39.02
1.44147	39.02
1.45813	39.02
1.47480	39.02
1.49147	39.02
1.50813	39.02
1.52480	39.02
1.54147	39.02
1.55813	39.02
1.57480	39.02
1.59147	39.02
1.60813	39.01
1.62480	39.00
1.64147	38.98
1.65813	38.96
1.67480	38.93
1.69147	38.89
1.70813	38.86
1.72480	38.82
1.74147	38.79
1.75813	38.76
1.77480	38.73
1.79147	38.70
1.80813	38.67
1.82480	38.64
1.84147	38.61
1.85813	38.58
1.87480	38.54
1.89147	38.51
1.90813	38.48
1.92480	38.45
1.94147	38.42
1.95813	38.39
1.97480	38.36
1.99147	38.33
2.00813	38.30
2.02480	38.27
2.04147	38.24
2.05813	38.21
2.07480	38.18
2.09147	38.15
2.10813	38.12
2.12480	38.09
2.14147	38.07
2.15813	38.04
2.17480	38.01
2.19147	37.98
2.20813	37.95
2.22480	37.92
2.24147	37.89
2.25813	37.86
2.27480	37.83
2.29147	37.80
2.30813	37.76
2.32480	37.74
2.34147	37.71
2.35813	37.68
2.37480	37.66
2.39147	37.65
2.40813	37.65
2.42480	37.66
2.44147	37.66
2.45813	37.66
2.47480	37.66
2.49147	37.66
2.50813	37.65
2.52480	37.64
2.54147	37.65
2.55813	37.65
2.57480	37.65
2.59147	37.65
2.60813	37.65
2.62480	37.65
2.64147	37.65
2.65813	37.65
2.67480	37.65
2.69147	37.65
2.70813	37.65
2.72480	37.65
2.74147	37.64
2.75813	37.65
2.77480	37.65
2.79147	37.65
2.80813	37.64
2.82480	37.64
2.84147	37.64
2.85813	37.64
2.87480	37.64
2.89147	37.64
2.90813	37.64
2.92480	37.64
2.94147	37.64
2.95813	37.64
2.97480	37.64
2.99147	37.64
3.00813	37.64
3.02480	37.64
3.04147	37.64
3.05813	37.64
3.07480	37.63
3.09147	37.63
3.10813	37.63
3.12480	37.63
3.14147	37.63
3.15813	37.63
3.17480	37.63
3.19147	37.63
3.20813	37.63
3.22480	37.63
3.24147	37.63
3.25813	37.62
3.27480	37.62
3.29147	37.62
3.30813	37.63
3.32480	37.63
3.34147	37.63
3.35813	37.63
3.37480	37.63
3.39147	37.63
3.40813	37.63
3.42480	37.63
3.44147	37.63
3.45813	37.63
3.47480	37.63
3.49147	37.63
3.50813	37.63
3.52480	37.63
3.54147	37.63
3.55813	37.63
3.57480	37.63
3.59147	37.63
3.60813	37.63
3.62480	37.63
3.64147	37.63
3.65813	37.63
3.67480	37.63
3.69147	37.62
3.70813	37.63
3.72480	37.63
3.74147	37.63
3.75813	37.63
3.77480	37.63
3.79147	37.63
3.80813	37.63
3.82480	37.63
3.84147	37.63
3.85813	37.63
3.87480	37.63
3.89147	37.63
3.90813	37.63
3.92480	37.63
3.94147	37.63
3.95813	37.63
3.97480	37.63
3.99147	37.63

