[Header]
Application Name	LabSolutions
Version	5.110
Data File Name	C:\Users\User\Desktop\GC Analyses\Jack\Nachusa Grasslands Sampling\T3 Timepoint July 12th\T3_07122022_020.gcd
Output Date	3/14/2023
Output Time	3:43:31 PM

[File Information]
Type	Data File
Generated	3/13/2023 4:37:26 PM
Generated by	System Administrator
Modified	3/13/2023 4:44:01 PM
Modified by	System Administrator

[Sample Information]
Operator Name	System Administrator
Acquired	3/13/2023 4:39:59 PM
Sample Type	0:Unknown
Level	0
Sample Name	020
Sample ID	020
ISTD Amount1	1
ISTD Amount2	1
ISTD Amount3	1
ISTD Amount4	1
ISTD Amount5	1
ISTD Amount6	1
ISTD Amount7	1
ISTD Amount8	1
ISTD Amount9	1
ISTD Amount10	1
ISTD Amount11	1
ISTD Amount12	1
ISTD Amount13	1
ISTD Amount14	1
ISTD Amount15	1
ISTD Amount16	1
ISTD Amount17	1
ISTD Amount18	1
ISTD Amount19	1
ISTD Amount20	1
ISTD Amount21	1
ISTD Amount22	1
ISTD Amount23	1
ISTD Amount24	1
ISTD Amount25	1
ISTD Amount26	1
ISTD Amount27	1
ISTD Amount28	1
ISTD Amount29	1
ISTD Amount30	1
ISTD Amount31	1
ISTD Amount32	1
Sample Amount	1
Dilution Factor	1
Vial#	19
Injection Volume	1
Injection Count	1
Bar Code	

[Original Files]
Data File	C:\Users\User\Desktop\GC Analyses\Jack\Nachusa Grasslands Sampling\T3 Timepoint July 12th\T3_07122022_020.gcd
Method File	C:\LabSolutions\Data\GHG_4min_2022\ghg3_togas_w_acet_4 min_new_int.gcm
Batch File	C:\LabSolutions\Data\AutoSamplerTesting\T3_07122022.gcb
Report Format File	c:\LabSolutions\System\DEFAULT.lsr

[File Description]


[Configuration]
Instrument Name	C0B7VH3-Instrument1
Instrument #	1
Line #	1
# of Detectors	3
Detector ID	DET#1	DET#2	DET#3
Detector Name	FID	PTCD	ECD
# of Channels	1	1	1

[Peak Table(Ch1)]
# of Peaks	3
Peak#	R.Time	I.Time	F.Time	Area	Height	A/H	Conc.	Mark	ID#	Name	k'	Plate #	Plate Ht.	Tailing	Resolution	Sep.Factor	Area Ratio	Height Ratio	Conc. %	Norm Conc.
1	1.476	1.384	1.534	27750	13452	2.063	195.916	   	1	CO	0.000	9477	15.828	1.235	0.000	0.000	0	0	23.706	23.706
2	1.571	1.538	1.608	3963	2101	1.886	76.627	   	2	CH4	0.065	12133	12.363	1.081	1.620	0.000	0	0	9.272	9.272
3	2.000	1.945	2.348	2206934	1067114	2.068	553.881	   	3	CO2	0.355	17611	8.517	1.194	7.313	5.500	0	0	67.021	67.021

[Peak Table(Ch2)]
# of Peaks	0

[Peak Table(Ch3)]
# of Peaks	5
Peak#	R.Time	I.Time	F.Time	Area	Height	A/H	Conc.	Mark	ID#	Name	k'	Plate #	Plate Ht.	Tailing	Resolution	Sep.Factor	Area Ratio	Height Ratio	Conc. %	Norm Conc.
1	2.462	2.319	2.510	1797	544	3.302	0.000	   			0.000	9479	15.824	0.000	0.000	0.000	0	0	0.000	0.000
2	2.528	2.510	2.576	917	318	2.884	0.000	 V 			0.027	3821	39.255	0.000	0.499	0.000	0	0	0.000	0.000
3	2.601	2.576	2.675	565	153	3.701	0.000	 V 			0.057	1350	111.087	0.000	0.328	2.111	0	0	0.000	0.000
4	2.880	2.700	3.096	17837	4627	3.855	0.456	   	1	N2O	0.170	13249	11.322	1.523	1.454	3.000	0	0	100.000	100.000
5	3.390	3.221	3.995	17989	693	25.976	0.000	   	2	SF6	0.377	340	441.810	2.245	1.219	2.219	0	0	0.000	0.000

[Compound Results(Ch1)]
# of IDs	6
ID#	Name	R.Time	Area	Height	Conc.	Curve	3rd	2nd	1st	Constant	Area Ratio	Height Ratio	Conc. %	Norm Conc.
1	CO	1.476	27750	13452	195.916	Linear	0.000000e+00	0.000000e+00	1.416423e+002	0.000000e+00	0	0	23.706	23.706
2	CH4	1.571	3963	2101	76.627	Linear	0.000000e+00	0.000000e+00	5.171738e+001	0.000000e+00	0	0	9.272	9.272
3	CO2	2.000	2206934	1067114	553.881	Linear	0.000000e+00	0.000000e+00	3.984494e+003	0.000000e+00	0	0	67.021	67.021
4	Ethylene	0.000	0	0	0.000	Linear	0.000000e+00	0.000000e+00	0.000000e+00	0.000000e+00	0	0	0.000	0.000
5	Acetylene	0.000	0	0	0.000	Linear	0.000000e+00	0.000000e+00	0.000000e+00	0.000000e+00	0	0	0.000	0.000
6	Ethane	0.000	0	0	0.000	Linear	0.000000e+00	0.000000e+00	0.000000e+00	0.000000e+00	0	0	0.000	0.000

[Compound Results(Ch2)]
# of IDs	5
ID#	Name	R.Time	Area	Height	Conc.	Curve	3rd	2nd	1st	Constant	Area Ratio	Height Ratio	Conc. %	Norm Conc.
1	Hydrogen	0.000	0	0	0.000	Linear	0.000000e+00	0.000000e+00	0.000000e+00	0.000000e+00	0	0	0.000	0.000
2	Oxygen	0.000	0	0	0.000	Linear	0.000000e+00	0.000000e+00	0.000000e+00	0.000000e+00	0	0	0.000	0.000
3	Nitrogen	0.000	0	0	0.000	Linear	0.000000e+00	0.000000e+00	0.000000e+00	0.000000e+00	0	0	0.000	0.000
4	Methane	0.000	0	0	0.000	Linear	0.000000e+00	0.000000e+00	0.000000e+00	0.000000e+00	0	0	0.000	0.000
5	Carbon Monoxide	0.000	0	0	0.000	Linear	0.000000e+00	0.000000e+00	0.000000e+00	0.000000e+00	0	0	0.000	0.000

[Compound Results(Ch3)]
# of IDs	2
ID#	Name	R.Time	Area	Height	Conc.	Curve	3rd	2nd	1st	Constant	Area Ratio	Height Ratio	Conc. %	Norm Conc.
1	N2O	2.880	17837	4627	0.456	Linear	0.000000e+00	0.000000e+00	3.915173e+004	0.000000e+00	0	0	100.000	100.000
2	SF6	3.390	17989	693	0.000	Linear	0.000000e+00	0.000000e+00	0.000000e+00	0.000000e+00	0	0	0.000	0.000

[Group Results(Ch1)]
# of Groups	0

[Group Results(Ch2)]
# of Groups	0

[Group Results(Ch3)]
# of Groups	0

[Chromatogram (Ch1)]
Interval(msec)	220
# of Points	1091
Start Time(min)	0.002
End Time(min)	3.998
R.Time (min)	Intensity
0.00167	14
0.00533	14
0.00900	16
0.01267	23
0.01633	28
0.02000	33
0.02367	33
0.02733	29
0.03100	28
0.03467	33
0.03833	33
0.04200	30
0.04567	22
0.04933	16
0.05300	16
0.05667	18
0.06033	19
0.06400	21
0.06767	23
0.07133	26
0.07500	33
0.07867	41
0.08233	43
0.08600	40
0.08967	38
0.09333	39
0.09700	42
0.10067	43
0.10433	40
0.10800	28
0.11167	23
0.11533	25
0.11900	25
0.12267	23
0.12633	23
0.13000	20
0.13367	13
0.13733	11
0.14100	21
0.14467	33
0.14833	40
0.15200	40
0.15567	40
0.15933	38
0.16300	35
0.16667	33
0.17033	33
0.17400	35
0.17767	40
0.18133	45
0.18500	49
0.18867	50
0.19233	45
0.19600	39
0.19967	36
0.20333	37
0.20700	42
0.21067	41
0.21433	39
0.21800	36
0.22167	28
0.22533	14
0.22900	1
0.23267	-5
0.23633	2
0.24000	18
0.24367	36
0.24733	47
0.25100	52
0.25467	53
0.25833	51
0.26200	48
0.26567	50
0.26933	50
0.27300	46
0.27667	41
0.28033	36
0.28400	32
0.28767	32
0.29133	33
0.29500	37
0.29867	40
0.30233	40
0.30600	42
0.30967	45
0.31333	50
0.31700	56
0.32067	67
0.32433	78
0.32800	86
0.33167	90
0.33533	89
0.33900	84
0.34267	81
0.34633	82
0.35000	84
0.35367	80
0.35733	75
0.36100	78
0.36467	91
0.36833	103
0.37200	112
0.37567	116
0.37933	119
0.38300	118
0.38667	114
0.39033	110
0.39400	108
0.39767	110
0.40133	118
0.40500	126
0.40867	129
0.41233	132
0.41600	129
0.41967	120
0.42333	108
0.42700	96
0.43067	90
0.43433	92
0.43800	93
0.44167	89
0.44533	83
0.44900	80
0.45267	76
0.45633	76
0.46000	79
0.46367	81
0.46733	79
0.47100	71
0.47467	62
0.47833	55
0.48200	48
0.48567	43
0.48933	39
0.49300	37
0.49667	37
0.50033	39
0.50400	41
0.50767	43
0.51133	45
0.51500	46
0.51867	41
0.52233	28
0.52600	20
0.52967	20
0.53333	26
0.53700	34
0.54067	39
0.54433	41
0.54800	40
0.55167	38
0.55533	33
0.55900	30
0.56267	31
0.56633	36
0.57000	43
0.57367	49
0.57733	53
0.58100	55
0.58467	49
0.58833	42
0.59200	32
0.59567	23
0.59933	17
0.60300	11
0.60667	3
0.61033	-1
0.61400	-3
0.61767	-5
0.62133	-2
0.62500	3
0.62867	4
0.63233	2
0.63600	3
0.63967	0
0.64333	-1
0.64700	-1
0.65067	1
0.65433	1
0.65800	3
0.66167	8
0.66533	10
0.66900	11
0.67267	17
0.67633	20
0.68000	25
0.68367	34
0.68733	43
0.69100	47
0.69467	44
0.69833	37
0.70200	30
0.70567	29
0.70933	26
0.71300	17
0.71667	7
0.72033	1
0.72400	-4
0.72767	-7
0.73133	-8
0.73500	-9
0.73867	-8
0.74233	-3
0.74600	6
0.74967	17
0.75333	25
0.75700	26
0.76067	29
0.76433	32
0.76800	28
0.77167	14
0.77533	2
0.77900	-4
0.78267	-2
0.78633	8
0.79000	12
0.79367	11
0.79733	12
0.80100	13
0.80467	13
0.80833	11
0.81200	10
0.81567	11
0.81933	16
0.82300	23
0.82667	27
0.83033	25
0.83400	23
0.83767	20
0.84133	18
0.84500	14
0.84867	8
0.85233	5
0.85600	10
0.85967	14
0.86333	14
0.86700	17
0.87067	22
0.87433	27
0.87800	28
0.88167	27
0.88533	22
0.88900	17
0.89267	11
0.89633	4
0.90000	-3
0.90367	-8
0.90733	-11
0.91100	-14
0.91467	-12
0.91833	-8
0.92200	-3
0.92567	-2
0.92933	-5
0.93300	-4
0.93667	-3
0.94033	-0
0.94400	5
0.94767	9
0.95133	9
0.95500	6
0.95867	7
0.96233	11
0.96600	9
0.96967	1
0.97333	-3
0.97700	-5
0.98067	-6
0.98433	-4
0.98800	-4
0.99167	-8
0.99533	-11
0.99900	-13
1.00267	-11
1.00633	-6
1.01000	-0
1.01367	-2
1.01733	-9
1.02100	-14
1.02467	-16
1.02833	-17
1.03200	-15
1.03567	-13
1.03933	-10
1.04300	-8
1.04667	-7
1.05033	-10
1.05400	-9
1.05767	-12
1.06133	-18
1.06500	-21
1.06867	-22
1.07233	-21
1.07600	-25
1.07967	-30
1.08333	-28
1.08700	-20
1.09067	-13
1.09433	-10
1.09800	-6
1.10167	-1
1.10533	-1
1.10900	-7
1.11267	-13
1.11633	-16
1.12000	-16
1.12367	-14
1.12733	-15
1.13100	-18
1.13467	-18
1.13833	-21
1.14200	-24
1.14567	-26
1.14933	-26
1.15300	-25
1.15667	-20
1.16033	-9
1.16400	6
1.16767	19
1.17133	17
1.17500	8
1.17867	-4
1.18233	-14
1.18600	-17
1.18967	-13
1.19333	-7
1.19700	-2
1.20067	3
1.20433	4
1.20800	7
1.21167	8
1.21533	8
1.21900	7
1.22267	-1
1.22633	-8
1.23000	-12
1.23367	-14
1.23733	-15
1.24100	-20
1.24467	-26
1.24833	-26
1.25200	-22
1.25567	-18
1.25933	-13
1.26300	-6
1.26667	1
1.27033	5
1.27400	7
1.27767	11
1.28133	16
1.28500	19
1.28867	17
1.29233	16
1.29600	17
1.29967	14
1.30333	8
1.30700	8
1.31067	13
1.31433	15
1.31800	16
1.32167	19
1.32533	23
1.32900	28
1.33267	32
1.33633	32
1.34000	27
1.34367	24
1.34733	27
1.35100	28
1.35467	29
1.35833	31
1.36200	30
1.36567	28
1.36933	27
1.37300	27
1.37667	27
1.38033	26
1.38400	24
1.38767	24
1.39133	26
1.39500	27
1.39867	26
1.40233	25
1.40600	25
1.40967	20
1.41333	16
1.41700	18
1.42067	26
1.42433	33
1.42800	33
1.43167	30
1.43533	30
1.43900	39
1.44267	74
1.44633	230
1.45000	741
1.45367	1898
1.45733	3902
1.46100	6461
1.46467	9001
1.46833	11104
1.47200	12578
1.47567	13312
1.47933	13187
1.48300	12167
1.48667	10433
1.49033	8341
1.49400	6268
1.49767	4471
1.50133	3049
1.50500	1994
1.50867	1243
1.51233	723
1.51600	373
1.51967	138
1.52333	-24
1.52700	-134
1.53067	-206
1.53433	-245
1.53800	-255
1.54167	-219
1.54533	-85
1.54900	188
1.55267	577
1.55633	1005
1.56000	1390
1.56367	1690
1.56733	1881
1.57100	1935
1.57467	1825
1.57833	1570
1.58200	1233
1.58567	893
1.58933	601
1.59300	371
1.59667	197
1.60033	72
1.60400	-13
1.60767	-67
1.61133	-95
1.61500	-107
1.61867	-110
1.62233	-110
1.62600	-115
1.62967	-123
1.63333	-131
1.63700	-137
1.64067	-138
1.64433	-133
1.64800	-127
1.65167	-126
1.65533	-132
1.65900	-139
1.66267	-136
1.66633	-131
1.67000	-128
1.67367	-123
1.67733	-117
1.68100	-110
1.68467	-99
1.68833	-90
1.69200	-86
1.69567	-90
1.69933	-97
1.70300	-102
1.70667	-101
1.71033	-96
1.71400	-92
1.71767	-92
1.72133	-97
1.72500	-98
1.72867	-92
1.73233	-91
1.73600	-91
1.73967	-85
1.74333	-77
1.74700	-76
1.75067	-79
1.75433	-77
1.75800	-70
1.76167	-66
1.76533	-64
1.76900	-64
1.77267	-63
1.77633	-63
1.78000	-68
1.78367	-73
1.78733	-76
1.79100	-78
1.79467	-81
1.79833	-82
1.80200	-78
1.80567	-74
1.80933	-70
1.81300	-65
1.81667	-66
1.82033	-72
1.82400	-80
1.82767	-87
1.83133	-89
1.83500	-85
1.83867	-77
1.84233	-65
1.84600	-53
1.84967	-39
1.85333	-25
1.85700	-17
1.86067	-15
1.86433	-20
1.86800	-30
1.87167	-42
1.87533	-54
1.87900	-63
1.88267	-67
1.88633	-72
1.89000	-75
1.89367	-75
1.89733	-74
1.90100	-67
1.90467	-63
1.90833	-58
1.91200	-56
1.91567	-53
1.91933	-51
1.92300	-52
1.92667	-54
1.93033	-53
1.93400	-55
1.93767	-57
1.94133	-56
1.94500	-51
1.94867	-40
1.95233	-16
1.95600	70
1.95967	529
1.96333	2860
1.96700	12154
1.97067	40536
1.97433	107362
1.97800	229256
1.98167	404482
1.98533	608517
1.98900	805032
1.99267	960490
1.99633	1051646
2.00000	1067105
2.00367	1008653
2.00733	891251
2.01100	739427
2.01467	580024
2.01833	434190
2.02200	313417
2.02567	220438
2.02933	152531
2.03300	104729
2.03667	71905
2.04033	49714
2.04400	34820
2.04767	24831
2.05133	18098
2.05500	13520
2.05867	10368
2.06233	8162
2.06600	6588
2.06967	5443
2.07333	4590
2.07700	3940
2.08067	3433
2.08433	3025
2.08800	2690
2.09167	2412
2.09533	2180
2.09900	1983
2.10267	1811
2.10633	1665
2.11000	1539
2.11367	1429
2.11733	1335
2.12100	1255
2.12467	1185
2.12833	1122
2.13200	1064
2.13567	1014
2.13933	971
2.14300	932
2.14667	900
2.15033	869
2.15400	837
2.15767	805
2.16133	776
2.16500	748
2.16867	720
2.17233	692
2.17600	666
2.17967	643
2.18333	622
2.18700	599
2.19067	579
2.19433	559
2.19800	541
2.20167	526
2.20533	513
2.20900	500
2.21267	487
2.21633	472
2.22000	462
2.22367	448
2.22733	434
2.23100	422
2.23467	411
2.23833	408
2.24200	404
2.24567	395
2.24933	385
2.25300	383
2.25667	381
2.26033	377
2.26400	373
2.26767	370
2.27133	366
2.27500	360
2.27867	350
2.28233	342
2.28600	340
2.28967	336
2.29333	330
2.29700	323
2.30067	312
2.30433	304
2.30800	302
2.31167	300
2.31533	294
2.31900	291
2.32267	291
2.32633	291
2.33000	286
2.33367	277
2.33733	269
2.34100	267
2.34467	265
2.34833	259
2.35200	254
2.35567	253
2.35933	253
2.36300	251
2.36667	247
2.37033	249
2.37400	256
2.37767	263
2.38133	268
2.38500	270
2.38867	268
2.39233	266
2.39600	266
2.39967	260
2.40333	253
2.40700	245
2.41067	238
2.41433	234
2.41800	227
2.42167	222
2.42533	219
2.42900	219
2.43267	223
2.43633	226
2.44000	230
2.44367	234
2.44733	234
2.45100	232
2.45467	232
2.45833	226
2.46200	217
2.46567	211
2.46933	208
2.47300	207
2.47667	211
2.48033	214
2.48400	214
2.48767	211
2.49133	207
2.49500	204
2.49867	201
2.50233	200
2.50600	202
2.50967	205
2.51333	210
2.51700	216
2.52067	220
2.52433	222
2.52800	221
2.53167	219
2.53533	215
2.53900	211
2.54267	214
2.54633	219
2.55000	222
2.55367	221
2.55733	222
2.56100	225
2.56467	220
2.56833	207
2.57200	195
2.57567	184
2.57933	177
2.58300	174
2.58667	172
2.59033	173
2.59400	175
2.59767	177
2.60133	176
2.60500	176
2.60867	180
2.61233	186
2.61600	190
2.61967	186
2.62333	179
2.62700	175
2.63067	174
2.63433	177
2.63800	177
2.64167	172
2.64533	170
2.64900	175
2.65267	184
2.65633	191
2.66000	189
2.66367	187
2.66733	190
2.67100	189
2.67467	183
2.67833	177
2.68200	178
2.68567	178
2.68933	180
2.69300	180
2.69667	179
2.70033	180
2.70400	185
2.70767	183
2.71133	180
2.71500	176
2.71867	169
2.72233	168
2.72600	170
2.72967	176
2.73333	185
2.73700	194
2.74067	198
2.74433	193
2.74800	180
2.75167	166
2.75533	160
2.75900	162
2.76267	166
2.76633	173
2.77000	179
2.77367	180
2.77733	173
2.78100	167
2.78467	159
2.78833	153
2.79200	150
2.79567	150
2.79933	157
2.80300	168
2.80667	174
2.81033	172
2.81400	167
2.81767	164
2.82133	166
2.82500	170
2.82867	170
2.83233	167
2.83600	167
2.83967	166
2.84333	161
2.84700	160
2.85067	161
2.85433	164
2.85800	169
2.86167	174
2.86533	178
2.86900	181
2.87267	180
2.87633	178
2.88000	182
2.88367	188
2.88733	188
2.89100	187
2.89467	189
2.89833	188
2.90200	183
2.90567	182
2.90933	186
2.91300	190
2.91667	189
2.92033	184
2.92400	176
2.92767	166
2.93133	161
2.93500	161
2.93867	168
2.94233	178
2.94600	188
2.94967	197
2.95333	202
2.95700	207
2.96067	208
2.96433	205
2.96800	196
2.97167	187
2.97533	184
2.97900	182
2.98267	182
2.98633	178
2.99000	169
2.99367	163
2.99733	162
3.00100	164
3.00467	167
3.00833	170
3.01200	168
3.01567	163
3.01933	156
3.02300	151
3.02667	150
3.03033	150
3.03400	149
3.03767	143
3.04133	142
3.04500	146
3.04867	151
3.05233	157
3.05600	164
3.05967	171
3.06333	179
3.06700	188
3.07067	194
3.07433	194
3.07800	191
3.08167	185
3.08533	178
3.08900	171
3.09267	168
3.09633	168
3.10000	168
3.10367	165
3.10733	156
3.11100	146
3.11467	139
3.11833	133
3.12200	134
3.12567	141
3.12933	149
3.13300	159
3.13667	161
3.14033	159
3.14400	152
3.14767	143
3.15133	138
3.15500	139
3.15867	139
3.16233	138
3.16600	136
3.16967	133
3.17333	133
3.17700	135
3.18067	136
3.18433	137
3.18800	140
3.19167	140
3.19533	142
3.19900	149
3.20267	152
3.20633	148
3.21000	143
3.21367	137
3.21733	132
3.22100	129
3.22467	134
3.22833	144
3.23200	151
3.23567	153
3.23933	151
3.24300	146
3.24667	142
3.25033	140
3.25400	140
3.25767	140
3.26133	139
3.26500	140
3.26867	144
3.27233	148
3.27600	150
3.27967	155
3.28333	159
3.28700	161
3.29067	162
3.29433	156
3.29800	145
3.30167	138
3.30533	133
3.30900	128
3.31267	131
3.31633	130
3.32000	121
3.32367	111
3.32733	108
3.33100	112
3.33467	118
3.33833	124
3.34200	130
3.34567	129
3.34933	123
3.35300	115
3.35667	108
3.36033	103
3.36400	103
3.36767	104
3.37133	105
3.37500	107
3.37867	113
3.38233	122
3.38600	132
3.38967	139
3.39333	139
3.39700	133
3.40067	124
3.40433	114
3.40800	109
3.41167	106
3.41533	104
3.41900	102
3.42267	101
3.42633	104
3.43000	111
3.43367	118
3.43733	124
3.44100	130
3.44467	133
3.44833	126
3.45200	118
3.45567	114
3.45933	113
3.46300	113
3.46667	112
3.47033	112
3.47400	116
3.47767	115
3.48133	106
3.48500	94
3.48867	86
3.49233	86
3.49600	88
3.49967	89
3.50333	89
3.50700	90
3.51067	85
3.51433	76
3.51800	70
3.52167	72
3.52533	80
3.52900	89
3.53267	96
3.53633	101
3.54000	106
3.54367	112
3.54733	117
3.55100	116
3.55467	112
3.55833	106
3.56200	101
3.56567	98
3.56933	98
3.57300	100
3.57667	100
3.58033	98
3.58400	96
3.58767	96
3.59133	98
3.59500	98
3.59867	100
3.60233	103
3.60600	105
3.60967	102
3.61333	96
3.61700	92
3.62067	91
3.62433	86
3.62800	87
3.63167	92
3.63533	96
3.63900	96
3.64267	86
3.64633	71
3.65000	61
3.65367	56
3.65733	59
3.66100	64
3.66467	70
3.66833	73
3.67200	75
3.67567	76
3.67933	78
3.68300	81
3.68667	83
3.69033	85
3.69400	87
3.69767	85
3.70133	81
3.70500	80
3.70867	84
3.71233	91
3.71600	97
3.71967	101
3.72333	102
3.72700	92
3.73067	76
3.73433	60
3.73800	47
3.74167	41
3.74533	42
3.74900	42
3.75267	40
3.75633	38
3.76000	40
3.76367	47
3.76733	56
3.77100	62
3.77467	63
3.77833	61
3.78200	62
3.78567	67
3.78933	72
3.79300	74
3.79667	74
3.80033	74
3.80400	74
3.80767	74
3.81133	76
3.81500	75
3.81867	69
3.82233	61
3.82600	57
3.82967	61
3.83333	64
3.83700	66
3.84067	63
3.84433	60
3.84800	61
3.85167	65
3.85533	69
3.85900	71
3.86267	69
3.86633	66
3.87000	62
3.87367	58
3.87733	54
3.88100	53
3.88467	57
3.88833	59
3.89200	64
3.89567	71
3.89933	77
3.90300	80
3.90667	77
3.91033	71
3.91400	62
3.91767	54
3.92133	47
3.92500	42
3.92867	38
3.93233	38
3.93600	39
3.93967	43
3.94333	49
3.94700	53
3.95067	57
3.95433	59
3.95800	61
3.96167	60
3.96533	56
3.96900	50
3.97267	46
3.97633	41
3.98000	38
3.98367	43
3.98733	48
3.99100	49
3.99467	45
3.99833	40

[Chromatogram (Ch2)]
Interval(msec)	220
# of Points	1091
Start Time(min)	0.002
End Time(min)	3.998
R.Time (min)	Intensity
0.00167	-0
0.00533	-0
0.00900	-0
0.01267	-0
0.01633	-0
0.02000	-0
0.02367	-0
0.02733	-0
0.03100	-0
0.03467	-0
0.03833	-0
0.04200	-0
0.04567	-0
0.04933	-0
0.05300	-0
0.05667	0
0.06033	0
0.06400	0
0.06767	0
0.07133	0
0.07500	0
0.07867	0
0.08233	0
0.08600	0
0.08967	0
0.09333	1
0.09700	1
0.10067	2
0.10433	2
0.10800	2
0.11167	3
0.11533	3
0.11900	3
0.12267	3
0.12633	3
0.13000	3
0.13367	3
0.13733	2
0.14100	2
0.14467	2
0.14833	1
0.15200	1
0.15567	0
0.15933	-0
0.16300	-0
0.16667	-1
0.17033	-1
0.17400	-1
0.17767	-1
0.18133	-2
0.18500	-2
0.18867	-2
0.19233	-2
0.19600	-1
0.19967	-1
0.20333	-1
0.20700	-1
0.21067	-0
0.21433	-0
0.21800	-1
0.22167	-1
0.22533	-1
0.22900	-0
0.23267	0
0.23633	0
0.24000	1
0.24367	1
0.24733	1
0.25100	2
0.25467	3
0.25833	3
0.26200	4
0.26567	4
0.26933	5
0.27300	5
0.27667	5
0.28033	5
0.28400	5
0.28767	4
0.29133	4
0.29500	4
0.29867	4
0.30233	5
0.30600	5
0.30967	5
0.31333	5
0.31700	5
0.32067	5
0.32433	4
0.32800	4
0.33167	3
0.33533	3
0.33900	3
0.34267	2
0.34633	2
0.35000	2
0.35367	1
0.35733	1
0.36100	0
0.36467	0
0.36833	-0
0.37200	-0
0.37567	-0
0.37933	-0
0.38300	-1
0.38667	-1
0.39033	-1
0.39400	-1
0.39767	-1
0.40133	-1
0.40500	-1
0.40867	-1
0.41233	-0
0.41600	-0
0.41967	0
0.42333	1
0.42700	1
0.43067	1
0.43433	2
0.43800	2
0.44167	2
0.44533	2
0.44900	2
0.45267	2
0.45633	2
0.46000	2
0.46367	2
0.46733	1
0.47100	1
0.47467	1
0.47833	0
0.48200	0
0.48567	0
0.48933	0
0.49300	0
0.49667	0
0.50033	0
0.50400	0
0.50767	1
0.51133	1
0.51500	1
0.51867	1
0.52233	2
0.52600	2
0.52967	2
0.53333	2
0.53700	2
0.54067	2
0.54433	2
0.54800	2
0.55167	2
0.55533	3
0.55900	3
0.56267	3
0.56633	3
0.57000	3
0.57367	3
0.57733	3
0.58100	3
0.58467	3
0.58833	2
0.59200	2
0.59567	1
0.59933	1
0.60300	0
0.60667	-0
0.61033	-1
0.61400	-1
0.61767	-1
0.62133	-1
0.62500	-1
0.62867	-1
0.63233	-1
0.63600	-0
0.63967	0
0.64333	1
0.64700	1
0.65067	1
0.65433	1
0.65800	1
0.66167	1
0.66533	1
0.66900	1
0.67267	1
0.67633	1
0.68000	1
0.68367	2
0.68733	2
0.69100	3
0.69467	3
0.69833	3
0.70200	3
0.70567	4
0.70933	4
0.71300	4
0.71667	4
0.72033	4
0.72400	4
0.72767	4
0.73133	4
0.73500	4
0.73867	4
0.74233	4
0.74600	3
0.74967	3
0.75333	3
0.75700	3
0.76067	2
0.76433	2
0.76800	2
0.77167	2
0.77533	2
0.77900	2
0.78267	2
0.78633	2
0.79000	2
0.79367	2
0.79733	1
0.80100	1
0.80467	-0
0.80833	-1
0.81200	-1
0.81567	-2
0.81933	-2
0.82300	-2
0.82667	-3
0.83033	-3
0.83400	-3
0.83767	-3
0.84133	-4
0.84500	-4
0.84867	-4
0.85233	-4
0.85600	-3
0.85967	-3
0.86333	-2
0.86700	-2
0.87067	-2
0.87433	-1
0.87800	-1
0.88167	-1
0.88533	-1
0.88900	-1
0.89267	-1
0.89633	-1
0.90000	-2
0.90367	-2
0.90733	-3
0.91100	-3
0.91467	-3
0.91833	-3
0.92200	-3
0.92567	-3
0.92933	-2
0.93300	-2
0.93667	-2
0.94033	-2
0.94400	-2
0.94767	-1
0.95133	-1
0.95500	-1
0.95867	-1
0.96233	-1
0.96600	-1
0.96967	-1
0.97333	-1
0.97700	-1
0.98067	-1
0.98433	-1
0.98800	-1
0.99167	-1
0.99533	-1
0.99900	-1
1.00267	-1
1.00633	-1
1.01000	-0
1.01367	-0
1.01733	-0
1.02100	0
1.02467	0
1.02833	1
1.03200	1
1.03567	1
1.03933	1
1.04300	1
1.04667	1
1.05033	2
1.05400	2
1.05767	2
1.06133	2
1.06500	2
1.06867	2
1.07233	3
1.07600	3
1.07967	3
1.08333	4
1.08700	4
1.09067	4
1.09433	4
1.09800	4
1.10167	4
1.10533	4
1.10900	3
1.11267	3
1.11633	4
1.12000	4
1.12367	4
1.12733	4
1.13100	4
1.13467	4
1.13833	4
1.14200	4
1.14567	4
1.14933	4
1.15300	4
1.15667	3
1.16033	3
1.16400	3
1.16767	3
1.17133	2
1.17500	2
1.17867	2
1.18233	2
1.18600	1
1.18967	1
1.19333	0
1.19700	-1
1.20067	-1
1.20433	-2
1.20800	-3
1.21167	-3
1.21533	-4
1.21900	-4
1.22267	-5
1.22633	-5
1.23000	-5
1.23367	-5
1.23733	-5
1.24100	-4
1.24467	-4
1.24833	-3
1.25200	-3
1.25567	-2
1.25933	-2
1.26300	-1
1.26667	-1
1.27033	-1
1.27400	-0
1.27767	0
1.28133	1
1.28500	1
1.28867	1
1.29233	1
1.29600	1
1.29967	1
1.30333	1
1.30700	1
1.31067	1
1.31433	1
1.31800	1
1.32167	1
1.32533	1
1.32900	0
1.33267	0
1.33633	0
1.34000	0
1.34367	0
1.34733	-0
1.35100	-0
1.35467	-1
1.35833	-1
1.36200	-1
1.36567	-1
1.36933	-1
1.37300	-0
1.37667	-0
1.38033	-0
1.38400	-0
1.38767	0
1.39133	0
1.39500	1
1.39867	1
1.40233	2
1.40600	2
1.40967	2
1.41333	2
1.41700	2
1.42067	2
1.42433	2
1.42800	2
1.43167	2
1.43533	2
1.43900	2
1.44267	2
1.44633	1
1.45000	1
1.45367	0
1.45733	-0
1.46100	-1
1.46467	-1
1.46833	-1
1.47200	-1
1.47567	-2
1.47933	-2
1.48300	-2
1.48667	-2
1.49033	-2
1.49400	-2
1.49767	-2
1.50133	-2
1.50500	-1
1.50867	-1
1.51233	-0
1.51600	-0
1.51967	-0
1.52333	-0
1.52700	-0
1.53067	-0
1.53433	-1
1.53800	-1
1.54167	-1
1.54533	-1
1.54900	-1
1.55267	-0
1.55633	-0
1.56000	0
1.56367	0
1.56733	0
1.57100	0
1.57467	0
1.57833	1
1.58200	1
1.58567	0
1.58933	0
1.59300	0
1.59667	-0
1.60033	-1
1.60400	-2
1.60767	-4
1.61133	-5
1.61500	-8
1.61867	-10
1.62233	-13
1.62600	-16
1.62967	-19
1.63333	-22
1.63700	-26
1.64067	-29
1.64433	-33
1.64800	-36
1.65167	-40
1.65533	-43
1.65900	-47
1.66267	-50
1.66633	-53
1.67000	-57
1.67367	-62
1.67733	-66
1.68100	-72
1.68467	-77
1.68833	-82
1.69200	-87
1.69567	-91
1.69933	-94
1.70300	-97
1.70667	-100
1.71033	-102
1.71400	-104
1.71767	-105
1.72133	-106
1.72500	-107
1.72867	-107
1.73233	-107
1.73600	-107
1.73967	-106
1.74333	-106
1.74700	-105
1.75067	-104
1.75433	-104
1.75800	-103
1.76167	-103
1.76533	-102
1.76900	-103
1.77267	-103
1.77633	-104
1.78000	-105
1.78367	-106
1.78733	-107
1.79100	-108
1.79467	-109
1.79833	-109
1.80200	-110
1.80567	-110
1.80933	-110
1.81300	-110
1.81667	-110
1.82033	-110
1.82400	-109
1.82767	-109
1.83133	-108
1.83500	-107
1.83867	-107
1.84233	-107
1.84600	-108
1.84967	-108
1.85333	-109
1.85700	-110
1.86067	-111
1.86433	-111
1.86800	-112
1.87167	-112
1.87533	-112
1.87900	-112
1.88267	-112
1.88633	-111
1.89000	-111
1.89367	-111
1.89733	-111
1.90100	-110
1.90467	-110
1.90833	-110
1.91200	-110
1.91567	-109
1.91933	-109
1.92300	-109
1.92667	-109
1.93033	-108
1.93400	-108
1.93767	-108
1.94133	-108
1.94500	-108
1.94867	-108
1.95233	-108
1.95600	-108
1.95967	-107
1.96333	-106
1.96700	-105
1.97067	-104
1.97433	-103
1.97800	-103
1.98167	-103
1.98533	-103
1.98900	-103
1.99267	-103
1.99633	-103
2.00000	-103
2.00367	-103
2.00733	-103
2.01100	-103
2.01467	-103
2.01833	-103
2.02200	-103
2.02567	-103
2.02933	-102
2.03300	-101
2.03667	-101
2.04033	-101
2.04400	-101
2.04767	-101
2.05133	-100
2.05500	-100
2.05867	-99
2.06233	-99
2.06600	-99
2.06967	-98
2.07333	-98
2.07700	-97
2.08067	-97
2.08433	-97
2.08800	-96
2.09167	-96
2.09533	-96
2.09900	-96
2.10267	-96
2.10633	-95
2.11000	-95
2.11367	-94
2.11733	-94
2.12100	-94
2.12467	-93
2.12833	-93
2.13200	-93
2.13567	-93
2.13933	-93
2.14300	-93
2.14667	-93
2.15033	-94
2.15400	-94
2.15767	-94
2.16133	-94
2.16500	-93
2.16867	-92
2.17233	-92
2.17600	-91
2.17967	-90
2.18333	-89
2.18700	-89
2.19067	-88
2.19433	-87
2.19800	-86
2.20167	-86
2.20533	-85
2.20900	-85
2.21267	-84
2.21633	-85
2.22000	-85
2.22367	-86
2.22733	-88
2.23100	-89
2.23467	-90
2.23833	-90
2.24200	-90
2.24567	-90
2.24933	-89
2.25300	-87
2.25667	-85
2.26033	-84
2.26400	-82
2.26767	-81
2.27133	-81
2.27500	-81
2.27867	-80
2.28233	-80
2.28600	-80
2.28967	-79
2.29333	-79
2.29700	-79
2.30067	-79
2.30433	-79
2.30800	-78
2.31167	-78
2.31533	-78
2.31900	-77
2.32267	-77
2.32633	-77
2.33000	-77
2.33367	-77
2.33733	-76
2.34100	-75
2.34467	-75
2.34833	-74
2.35200	-73
2.35567	-73
2.35933	-72
2.36300	-72
2.36667	-71
2.37033	-70
2.37400	-68
2.37767	-66
2.38133	-63
2.38500	-60
2.38867	-56
2.39233	-52
2.39600	-47
2.39967	-43
2.40333	-38
2.40700	-33
2.41067	-29
2.41433	-24
2.41800	-20
2.42167	-17
2.42533	-14
2.42900	-12
2.43267	-10
2.43633	-9
2.44000	-8
2.44367	-7
2.44733	-6
2.45100	-5
2.45467	-4
2.45833	-3
2.46200	-2
2.46567	-2
2.46933	-1
2.47300	0
2.47667	1
2.48033	2
2.48400	3
2.48767	4
2.49133	6
2.49500	8
2.49867	9
2.50233	11
2.50600	11
2.50967	12
2.51333	12
2.51700	12
2.52067	13
2.52433	13
2.52800	13
2.53167	14
2.53533	15
2.53900	15
2.54267	16
2.54633	17
2.55000	18
2.55367	18
2.55733	18
2.56100	18
2.56467	19
2.56833	19
2.57200	19
2.57567	19
2.57933	20
2.58300	20
2.58667	19
2.59033	19
2.59400	19
2.59767	20
2.60133	20
2.60500	20
2.60867	20
2.61233	20
2.61600	20
2.61967	20
2.62333	20
2.62700	21
2.63067	21
2.63433	21
2.63800	21
2.64167	21
2.64533	21
2.64900	21
2.65267	20
2.65633	20
2.66000	20
2.66367	20
2.66733	21
2.67100	21
2.67467	22
2.67833	23
2.68200	24
2.68567	25
2.68933	25
2.69300	26
2.69667	27
2.70033	27
2.70400	28
2.70767	28
2.71133	28
2.71500	28
2.71867	28
2.72233	28
2.72600	28
2.72967	27
2.73333	27
2.73700	27
2.74067	27
2.74433	26
2.74800	26
2.75167	27
2.75533	27
2.75900	27
2.76267	28
2.76633	28
2.77000	28
2.77367	29
2.77733	29
2.78100	30
2.78467	30
2.78833	30
2.79200	30
2.79567	30
2.79933	30
2.80300	30
2.80667	30
2.81033	30
2.81400	30
2.81767	30
2.82133	30
2.82500	29
2.82867	29
2.83233	29
2.83600	29
2.83967	28
2.84333	27
2.84700	25
2.85067	21
2.85433	15
2.85800	6
2.86167	-6
2.86533	-22
2.86900	-43
2.87267	-68
2.87633	-98
2.88000	-132
2.88367	-169
2.88733	-211
2.89100	-256
2.89467	-305
2.89833	-356
2.90200	-409
2.90567	-463
2.90933	-518
2.91300	-573
2.91667	-629
2.92033	-684
2.92400	-738
2.92767	-791
2.93133	-843
2.93500	-896
2.93867	-953
2.94233	-1012
2.94600	-1061
2.94967	-1092
2.95333	-1097
2.95700	-1077
2.96067	-1034
2.96433	-974
2.96800	-901
2.97167	-823
2.97533	-742
2.97900	-662
2.98267	-585
2.98633	-514
2.99000	-448
2.99367	-388
2.99733	-335
3.00100	-287
3.00467	-245
3.00833	-208
3.01200	-176
3.01567	-148
3.01933	-124
3.02300	-103
3.02667	-86
3.03033	-70
3.03400	-57
3.03767	-46
3.04133	-37
3.04500	-29
3.04867	-21
3.05233	-16
3.05600	-10
3.05967	-6
3.06333	-3
3.06700	0
3.07067	3
3.07433	5
3.07800	7
3.08167	9
3.08533	10
3.08900	11
3.09267	12
3.09633	13
3.10000	14
3.10367	15
3.10733	15
3.11100	16
3.11467	16
3.11833	17
3.12200	17
3.12567	18
3.12933	18
3.13300	18
3.13667	18
3.14033	18
3.14400	18
3.14767	19
3.15133	19
3.15500	19
3.15867	19
3.16233	20
3.16600	20
3.16967	20
3.17333	20
3.17700	20
3.18067	20
3.18433	21
3.18800	21
3.19167	21
3.19533	21
3.19900	22
3.20267	22
3.20633	22
3.21000	22
3.21367	22
3.21733	22
3.22100	22
3.22467	22
3.22833	22
3.23200	23
3.23567	23
3.23933	23
3.24300	23
3.24667	24
3.25033	24
3.25400	24
3.25767	24
3.26133	25
3.26500	25
3.26867	25
3.27233	26
3.27600	26
3.27967	27
3.28333	27
3.28700	27
3.29067	27
3.29433	28
3.29800	28
3.30167	29
3.30533	29
3.30900	30
3.31267	30
3.31633	31
3.32000	31
3.32367	31
3.32733	31
3.33100	31
3.33467	31
3.33833	31
3.34200	31
3.34567	31
3.34933	30
3.35300	30
3.35667	30
3.36033	30
3.36400	30
3.36767	30
3.37133	30
3.37500	29
3.37867	29
3.38233	29
3.38600	29
3.38967	29
3.39333	29
3.39700	28
3.40067	28
3.40433	28
3.40800	28
3.41167	28
3.41533	28
3.41900	28
3.42267	28
3.42633	28
3.43000	28
3.43367	28
3.43733	28
3.44100	28
3.44467	28
3.44833	28
3.45200	28
3.45567	28
3.45933	28
3.46300	28
3.46667	28
3.47033	29
3.47400	29
3.47767	29
3.48133	29
3.48500	29
3.48867	29
3.49233	29
3.49600	29
3.49967	29
3.50333	29
3.50700	29
3.51067	29
3.51433	29
3.51800	29
3.52167	29
3.52533	29
3.52900	29
3.53267	28
3.53633	28
3.54000	28
3.54367	28
3.54733	28
3.55100	28
3.55467	28
3.55833	28
3.56200	28
3.56567	28
3.56933	28
3.57300	28
3.57667	28
3.58033	28
3.58400	28
3.58767	29
3.59133	29
3.59500	29
3.59867	29
3.60233	29
3.60600	29
3.60967	29
3.61333	29
3.61700	29
3.62067	29
3.62433	29
3.62800	29
3.63167	29
3.63533	29
3.63900	29
3.64267	29
3.64633	29
3.65000	29
3.65367	29
3.65733	29
3.66100	29
3.66467	29
3.66833	29
3.67200	29
3.67567	29
3.67933	29
3.68300	29
3.68667	29
3.69033	29
3.69400	28
3.69767	28
3.70133	28
3.70500	28
3.70867	28
3.71233	28
3.71600	29
3.71967	29
3.72333	29
3.72700	30
3.73067	30
3.73433	30
3.73800	30
3.74167	30
3.74533	30
3.74900	29
3.75267	29
3.75633	29
3.76000	29
3.76367	29
3.76733	29
3.77100	28
3.77467	28
3.77833	28
3.78200	28
3.78567	28
3.78933	28
3.79300	28
3.79667	28
3.80033	28
3.80400	28
3.80767	28
3.81133	28
3.81500	28
3.81867	28
3.82233	28
3.82600	29
3.82967	29
3.83333	29
3.83700	29
3.84067	29
3.84433	29
3.84800	29
3.85167	29
3.85533	29
3.85900	29
3.86267	29
3.86633	29
3.87000	29
3.87367	29
3.87733	29
3.88100	29
3.88467	29
3.88833	29
3.89200	29
3.89567	29
3.89933	29
3.90300	29
3.90667	29
3.91033	30
3.91400	30
3.91767	30
3.92133	31
3.92500	31
3.92867	31
3.93233	31
3.93600	31
3.93967	31
3.94333	31
3.94700	31
3.95067	31
3.95433	31
3.95800	31
3.96167	30
3.96533	30
3.96900	30
3.97267	30
3.97633	30
3.98000	30
3.98367	30
3.98733	30
3.99100	30
3.99467	30
3.99833	29

[Chromatogram (Ch3)]
Interval(msec)	220
# of Points	1091
Start Time(min)	0.002
End Time(min)	3.998
R.Time (min)	Intensity
0.00167	-0
0.00533	-2
0.00900	-4
0.01267	-5
0.01633	-7
0.02000	-9
0.02367	-11
0.02733	-9
0.03100	-10
0.03467	-11
0.03833	-11
0.04200	-11
0.04567	-9
0.04933	-7
0.05300	-8
0.05667	-8
0.06033	-6
0.06400	-3
0.06767	-1
0.07133	-0
0.07500	-2
0.07867	-5
0.08233	-6
0.08600	-7
0.08967	-6
0.09333	-7
0.09700	-8
0.10067	-6
0.10433	-3
0.10800	-3
0.11167	-2
0.11533	-3
0.11900	-4
0.12267	-4
0.12633	-2
0.13000	0
0.13367	2
0.13733	2
0.14100	2
0.14467	2
0.14833	-0
0.15200	-1
0.15567	-2
0.15933	-5
0.16300	-7
0.16667	-6
0.17033	-5
0.17400	-5
0.17767	-6
0.18133	-7
0.18500	-6
0.18867	-7
0.19233	-8
0.19600	-8
0.19967	-8
0.20333	-7
0.20700	-7
0.21067	-7
0.21433	-5
0.21800	-4
0.22167	-3
0.22533	-4
0.22900	-5
0.23267	-5
0.23633	-6
0.24000	-7
0.24367	-7
0.24733	-4
0.25100	-4
0.25467	-4
0.25833	-3
0.26200	-3
0.26567	-4
0.26933	-4
0.27300	-4
0.27667	-2
0.28033	-3
0.28400	-3
0.28767	-4
0.29133	-3
0.29500	-5
0.29867	-6
0.30233	-6
0.30600	-6
0.30967	-5
0.31333	-4
0.31700	-3
0.32067	-1
0.32433	1
0.32800	2
0.33167	0
0.33533	-1
0.33900	-2
0.34267	-4
0.34633	-4
0.35000	-4
0.35367	-4
0.35733	-5
0.36100	-6
0.36467	-5
0.36833	-4
0.37200	-5
0.37567	-6
0.37933	-5
0.38300	-5
0.38667	-5
0.39033	-6
0.39400	-6
0.39767	-5
0.40133	-4
0.40500	-5
0.40867	-5
0.41233	-4
0.41600	-3
0.41967	-2
0.42333	0
0.42700	-0
0.43067	-2
0.43433	-5
0.43800	-5
0.44167	-4
0.44533	-2
0.44900	-2
0.45267	-3
0.45633	-2
0.46000	-1
0.46367	-1
0.46733	-2
0.47100	-4
0.47467	-5
0.47833	-4
0.48200	-4
0.48567	-5
0.48933	-5
0.49300	-5
0.49667	-6
0.50033	-8
0.50400	-8
0.50767	-7
0.51133	-6
0.51500	-3
0.51867	-3
0.52233	-3
0.52600	-4
0.52967	-4
0.53333	-4
0.53700	-3
0.54067	-1
0.54433	-1
0.54800	-1
0.55167	-3
0.55533	-5
0.55900	-5
0.56267	-4
0.56633	-4
0.57000	-4
0.57367	-4
0.57733	-4
0.58100	-2
0.58467	-2
0.58833	-2
0.59200	-2
0.59567	-3
0.59933	-2
0.60300	-3
0.60667	-3
0.61033	-3
0.61400	-3
0.61767	-4
0.62133	-7
0.62500	-8
0.62867	-6
0.63233	-4
0.63600	-2
0.63967	-2
0.64333	-1
0.64700	-1
0.65067	-0
0.65433	-1
0.65800	-3
0.66167	-4
0.66533	-5
0.66900	-5
0.67267	-5
0.67633	-2
0.68000	-1
0.68367	-2
0.68733	0
0.69100	1
0.69467	0
0.69833	1
0.70200	-0
0.70567	-2
0.70933	1
0.71300	2
0.71667	2
0.72033	1
0.72400	1
0.72767	-1
0.73133	-2
0.73500	-1
0.73867	-1
0.74233	-2
0.74600	-3
0.74967	-2
0.75333	-2
0.75700	-0
0.76067	3
0.76433	4
0.76800	2
0.77167	2
0.77533	2
0.77900	1
0.78267	1
0.78633	3
0.79000	4
0.79367	5
0.79733	5
0.80100	6
0.80467	7
0.80833	7
0.81200	7
0.81567	6
0.81933	4
0.82300	3
0.82667	1
0.83033	-1
0.83400	-1
0.83767	1
0.84133	-1
0.84500	-2
0.84867	-3
0.85233	-1
0.85600	1
0.85967	3
0.86333	5
0.86700	8
0.87067	6
0.87433	4
0.87800	3
0.88167	1
0.88533	-1
0.88900	0
0.89267	0
0.89633	0
0.90000	0
0.90367	2
0.90733	5
0.91100	7
0.91467	6
0.91833	6
0.92200	4
0.92567	3
0.92933	3
0.93300	7
0.93667	11
0.94033	11
0.94400	9
0.94767	7
0.95133	7
0.95500	8
0.95867	8
0.96233	9
0.96600	11
0.96967	11
0.97333	10
0.97700	8
0.98067	5
0.98433	4
0.98800	6
0.99167	8
0.99533	9
0.99900	11
1.00267	10
1.00633	10
1.01000	8
1.01367	6
1.01733	7
1.02100	7
1.02467	8
1.02833	7
1.03200	8
1.03567	9
1.03933	7
1.04300	6
1.04667	6
1.05033	7
1.05400	8
1.05767	9
1.06133	8
1.06500	9
1.06867	10
1.07233	10
1.07600	10
1.07967	8
1.08333	8
1.08700	9
1.09067	9
1.09433	8
1.09800	8
1.10167	9
1.10533	10
1.10900	10
1.11267	11
1.11633	12
1.12000	14
1.12367	13
1.12733	10
1.13100	9
1.13467	9
1.13833	8
1.14200	7
1.14567	5
1.14933	5
1.15300	3
1.15667	4
1.16033	8
1.16400	9
1.16767	9
1.17133	11
1.17500	10
1.17867	7
1.18233	6
1.18600	8
1.18967	9
1.19333	9
1.19700	8
1.20067	8
1.20433	7
1.20800	8
1.21167	10
1.21533	13
1.21900	14
1.22267	13
1.22633	15
1.23000	13
1.23367	13
1.23733	13
1.24100	14
1.24467	13
1.24833	11
1.25200	12
1.25567	12
1.25933	12
1.26300	13
1.26667	15
1.27033	15
1.27400	13
1.27767	10
1.28133	10
1.28500	10
1.28867	12
1.29233	13
1.29600	13
1.29967	11
1.30333	11
1.30700	13
1.31067	16
1.31433	17
1.31800	19
1.32167	18
1.32533	17
1.32900	17
1.33267	16
1.33633	16
1.34000	15
1.34367	13
1.34733	15
1.35100	16
1.35467	17
1.35833	17
1.36200	17
1.36567	17
1.36933	17
1.37300	15
1.37667	14
1.38033	13
1.38400	12
1.38767	10
1.39133	10
1.39500	12
1.39867	16
1.40233	18
1.40600	20
1.40967	22
1.41333	21
1.41700	19
1.42067	19
1.42433	19
1.42800	18
1.43167	17
1.43533	17
1.43900	17
1.44267	19
1.44633	21
1.45000	21
1.45367	20
1.45733	18
1.46100	18
1.46467	18
1.46833	20
1.47200	19
1.47567	18
1.47933	18
1.48300	18
1.48667	17
1.49033	18
1.49400	20
1.49767	22
1.50133	23
1.50500	23
1.50867	23
1.51233	22
1.51600	22
1.51967	24
1.52333	25
1.52700	24
1.53067	20
1.53433	18
1.53800	19
1.54167	20
1.54533	21
1.54900	19
1.55267	19
1.55633	21
1.56000	20
1.56367	19
1.56733	17
1.57100	16
1.57467	17
1.57833	18
1.58200	20
1.58567	21
1.58933	21
1.59300	22
1.59667	22
1.60033	24
1.60400	24
1.60767	22
1.61133	22
1.61500	24
1.61867	27
1.62233	28
1.62600	30
1.62967	31
1.63333	31
1.63700	30
1.64067	30
1.64433	31
1.64800	31
1.65167	31
1.65533	32
1.65900	30
1.66267	30
1.66633	30
1.67000	30
1.67367	30
1.67733	32
1.68100	32
1.68467	33
1.68833	33
1.69200	34
1.69567	35
1.69933	35
1.70300	36
1.70667	37
1.71033	36
1.71400	35
1.71767	35
1.72133	36
1.72500	38
1.72867	41
1.73233	42
1.73600	42
1.73967	44
1.74333	44
1.74700	42
1.75067	42
1.75433	42
1.75800	41
1.76167	41
1.76533	42
1.76900	41
1.77267	39
1.77633	39
1.78000	40
1.78367	41
1.78733	41
1.79100	41
1.79467	41
1.79833	41
1.80200	40
1.80567	41
1.80933	43
1.81300	45
1.81667	47
1.82033	48
1.82400	49
1.82767	50
1.83133	50
1.83500	50
1.83867	52
1.84233	54
1.84600	54
1.84967	55
1.85333	56
1.85700	56
1.86067	55
1.86433	55
1.86800	55
1.87167	57
1.87533	59
1.87900	61
1.88267	62
1.88633	63
1.89000	64
1.89367	65
1.89733	67
1.90100	68
1.90467	69
1.90833	70
1.91200	70
1.91567	69
1.91933	68
1.92300	68
1.92667	70
1.93033	73
1.93400	73
1.93767	73
1.94133	75
1.94500	77
1.94867	77
1.95233	76
1.95600	76
1.95967	77
1.96333	78
1.96700	80
1.97067	82
1.97433	82
1.97800	82
1.98167	83
1.98533	84
1.98900	83
1.99267	85
1.99633	86
2.00000	87
2.00367	89
2.00733	93
2.01100	95
2.01467	95
2.01833	96
2.02200	95
2.02567	97
2.02933	101
2.03300	103
2.03667	104
2.04033	104
2.04400	104
2.04767	106
2.05133	107
2.05500	107
2.05867	106
2.06233	106
2.06600	107
2.06967	108
2.07333	108
2.07700	108
2.08067	110
2.08433	110
2.08800	111
2.09167	112
2.09533	114
2.09900	116
2.10267	118
2.10633	121
2.11000	124
2.11367	127
2.11733	131
2.12100	134
2.12467	133
2.12833	132
2.13200	133
2.13567	135
2.13933	137
2.14300	137
2.14667	135
2.15033	134
2.15400	135
2.15767	137
2.16133	141
2.16500	144
2.16867	147
2.17233	149
2.17600	151
2.17967	150
2.18333	151
2.18700	152
2.19067	152
2.19433	151
2.19800	152
2.20167	156
2.20533	159
2.20900	157
2.21267	156
2.21633	158
2.22000	159
2.22367	160
2.22733	161
2.23100	164
2.23467	167
2.23833	168
2.24200	167
2.24567	168
2.24933	168
2.25300	169
2.25667	167
2.26033	169
2.26400	173
2.26767	175
2.27133	175
2.27500	175
2.27867	174
2.28233	176
2.28600	179
2.28967	182
2.29333	184
2.29700	187
2.30067	188
2.30433	188
2.30800	189
2.31167	188
2.31533	186
2.31900	185
2.32267	184
2.32633	187
2.33000	188
2.33367	189
2.33733	192
2.34100	194
2.34467	195
2.34833	196
2.35200	197
2.35567	198
2.35933	202
2.36300	205
2.36667	206
2.37033	207
2.37400	207
2.37767	207
2.38133	207
2.38500	206
2.38867	203
2.39233	202
2.39600	206
2.39967	210
2.40333	214
2.40700	215
2.41067	217
2.41433	220
2.41800	222
2.42167	225
2.42533	228
2.42900	231
2.43267	231
2.43633	229
2.44000	230
2.44367	278
2.44733	405
2.45100	541
2.45467	651
2.45833	709
2.46200	717
2.46567	698
2.46933	676
2.47300	660
2.47667	652
2.48033	637
2.48400	608
2.48767	569
2.49133	529
2.49500	495
2.49867	469
2.50233	453
2.50600	442
2.50967	438
2.51333	445
2.51700	455
2.52067	468
2.52433	481
2.52800	485
2.53167	477
2.53533	461
2.53900	438
2.54267	412
2.54633	387
2.55000	365
2.55367	345
2.55733	328
2.56100	318
2.56467	311
2.56833	306
2.57200	303
2.57567	302
2.57933	303
2.58300	306
2.58667	308
2.59033	311
2.59400	312
2.59767	313
2.60133	314
2.60500	312
2.60867	308
2.61233	301
2.61600	295
2.61967	288
2.62333	277
2.62700	268
2.63067	259
2.63433	248
2.63800	234
2.64167	223
2.64533	213
2.64900	203
2.65267	193
2.65633	183
2.66000	175
2.66367	169
2.66733	164
2.67100	158
2.67467	155
2.67833	154
2.68200	152
2.68567	151
2.68933	153
2.69300	152
2.69667	154
2.70033	157
2.70400	159
2.70767	164
2.71133	169
2.71500	172
2.71867	175
2.72233	177
2.72600	180
2.72967	184
2.73333	189
2.73700	191
2.74067	194
2.74433	198
2.74800	202
2.75167	206
2.75533	209
2.75900	212
2.76267	213
2.76633	214
2.77000	215
2.77367	215
2.77733	215
2.78100	218
2.78467	219
2.78833	223
2.79200	227
2.79567	230
2.79933	234
2.80300	239
2.80667	242
2.81033	244
2.81400	250
2.81767	260
2.82133	271
2.82500	286
2.82867	311
2.83233	362
2.83600	460
2.83967	624
2.84333	873
2.84700	1219
2.85067	1662
2.85433	2183
2.85800	2751
2.86167	3321
2.86533	3844
2.86900	4278
2.87267	4594
2.87633	4774
2.88000	4815
2.88367	4730
2.88733	4544
2.89100	4286
2.89467	3982
2.89833	3656
2.90200	3324
2.90567	2998
2.90933	2690
2.91300	2402
2.91667	2140
2.92033	1903
2.92400	1689
2.92767	1502
2.93133	1336
2.93500	1190
2.93867	1063
2.94233	952
2.94600	857
2.94967	772
2.95333	700
2.95700	635
2.96067	578
2.96433	530
2.96800	490
2.97167	454
2.97533	422
2.97900	391
2.98267	367
2.98633	346
2.99000	329
2.99367	318
2.99733	306
3.00100	296
3.00467	285
3.00833	275
3.01200	267
3.01567	262
3.01933	257
3.02300	254
3.02667	253
3.03033	251
3.03400	247
3.03767	244
3.04133	241
3.04500	240
3.04867	239
3.05233	238
3.05600	236
3.05967	235
3.06333	234
3.06700	232
3.07067	232
3.07433	231
3.07800	230
3.08167	228
3.08533	228
3.08900	228
3.09267	226
3.09633	226
3.10000	226
3.10367	228
3.10733	228
3.11100	228
3.11467	229
3.11833	228
3.12200	228
3.12567	230
3.12933	230
3.13300	229
3.13667	229
3.14033	228
3.14400	228
3.14767	228
3.15133	230
3.15500	232
3.15867	234
3.16233	238
3.16600	240
3.16967	241
3.17333	244
3.17700	246
3.18067	245
3.18433	245
3.18800	246
3.19167	247
3.19533	248
3.19900	248
3.20267	250
3.20633	250
3.21000	238
3.21367	208
3.21733	188
3.22100	189
3.22467	209
3.22833	242
3.23200	284
3.23567	333
3.23933	387
3.24300	440
3.24667	490
3.25033	539
3.25400	586
3.25767	626
3.26133	660
3.26500	691
3.26867	719
3.27233	742
3.27600	761
3.27967	778
3.28333	796
3.28700	812
3.29067	827
3.29433	839
3.29800	851
3.30167	861
3.30533	867
3.30900	873
3.31267	881
3.31633	887
3.32000	894
3.32367	902
3.32733	909
3.33100	915
3.33467	921
3.33833	927
3.34200	933
3.34567	938
3.34933	945
3.35300	951
3.35667	955
3.36033	958
3.36400	959
3.36767	963
3.37133	965
3.37500	968
3.37867	971
3.38233	975
3.38600	980
3.38967	982
3.39333	984
3.39700	986
3.40067	988
3.40433	990
3.40800	991
3.41167	992
3.41533	992
3.41900	993
3.42267	991
3.42633	990
3.43000	988
3.43367	983
3.43733	977
3.44100	974
3.44467	974
3.44833	973
3.45200	970
3.45567	966
3.45933	963
3.46300	960
3.46667	956
3.47033	950
3.47400	942
3.47767	936
3.48133	932
3.48500	928
3.48867	923
3.49233	917
3.49600	912
3.49967	910
3.50333	908
3.50700	906
3.51067	902
3.51433	898
3.51800	897
3.52167	897
3.52533	896
3.52900	898
3.53267	898
3.53633	895
3.54000	891
3.54367	888
3.54733	885
3.55100	883
3.55467	883
3.55833	883
3.56200	882
3.56567	882
3.56933	881
3.57300	882
3.57667	880
3.58033	877
3.58400	876
3.58767	874
3.59133	872
3.59500	872
3.59867	871
3.60233	869
3.60600	870
3.60967	868
3.61333	866
3.61700	862
3.62067	858
3.62433	857
3.62800	856
3.63167	853
3.63533	852
3.63900	851
3.64267	849
3.64633	847
3.65000	843
3.65367	839
3.65733	838
3.66100	838
3.66467	836
3.66833	835
3.67200	834
3.67567	832
3.67933	830
3.68300	828
3.68667	825
3.69033	821
3.69400	818
3.69767	818
3.70133	817
3.70500	816
3.70867	815
3.71233	814
3.71600	811
3.71967	807
3.72333	805
3.72700	802
3.73067	799
3.73433	797
3.73800	798
3.74167	796
3.74533	792
3.74900	789
3.75267	787
3.75633	784
3.76000	783
3.76367	783
3.76733	781
3.77100	779
3.77467	777
3.77833	774
3.78200	772
3.78567	770
3.78933	766
3.79300	761
3.79667	760
3.80033	760
3.80400	759
3.80767	757
3.81133	754
3.81500	751
3.81867	750
3.82233	746
3.82600	743
3.82967	742
3.83333	741
3.83700	737
3.84067	734
3.84433	732
3.84800	730
3.85167	729
3.85533	728
3.85900	726
3.86267	723
3.86633	720
3.87000	718
3.87367	713
3.87733	708
3.88100	704
3.88467	702
3.88833	701
3.89200	699
3.89567	696
3.89933	693
3.90300	691
3.90667	690
3.91033	689
3.91400	687
3.91767	688
3.92133	686
3.92500	682
3.92867	681
3.93233	678
3.93600	674
3.93967	672
3.94333	671
3.94700	669
3.95067	669
3.95433	668
3.95800	666
3.96167	665
3.96533	664
3.96900	663
3.97267	663
3.97633	663
3.98000	661
3.98367	659
3.98733	656
3.99100	655
3.99467	653
3.99833	647

[Status Trace (Column Oven Temperature)]
Interval(msec)	1000
# of Points	240
Start Time(min)	0.001
End Time(min)	3.984
Intensity Units	
Intensity Multiplier	1
R.Time (min)	Intensity
0.00113	35.04
0.01780	35.03
0.03447	35.03
0.05113	35.03
0.06780	35.04
0.08447	35.03
0.10113	35.02
0.11780	35.02
0.13447	35.02
0.15113	35.04
0.16780	35.05
0.18447	35.05
0.20113	35.06
0.21780	35.05
0.23447	35.04
0.25113	35.02
0.26780	35.01
0.28447	35.01
0.30113	34.99
0.31780	34.98
0.33447	34.98
0.35113	34.99
0.36780	35.00
0.38447	35.01
0.40113	35.01
0.41780	35.01
0.43447	35.00
0.45113	34.99
0.46780	35.00
0.48447	35.00
0.50113	35.00
0.51780	34.99
0.53447	34.98
0.55113	34.97
0.56780	34.97
0.58447	34.99
0.60113	35.00
0.61780	35.00
0.63447	35.00
0.65113	35.01
0.66780	35.00
0.68447	34.99
0.70113	34.98
0.71780	34.97
0.73447	34.95
0.75113	34.95
0.76780	34.94
0.78447	34.95
0.80113	34.97
0.81780	34.98
0.83447	35.00
0.85113	35.00
0.86780	35.00
0.88447	35.01
0.90113	35.02
0.91780	35.02
0.93447	35.02
0.95113	35.03
0.96780	35.02
0.98447	35.03
1.00113	35.03
1.01780	35.03
1.03447	35.03
1.05113	35.02
1.06780	35.00
1.08447	34.98
1.10113	34.97
1.11780	34.96
1.13447	34.95
1.15113	34.95
1.16780	34.95
1.18447	34.97
1.20113	34.98
1.21780	35.00
1.23447	35.00
1.25113	35.00
1.26780	34.99
1.28447	34.99
1.30113	34.99
1.31780	35.00
1.33447	35.00
1.35113	35.00
1.36780	35.00
1.38447	35.00
1.40113	34.98
1.41780	34.97
1.43447	34.96
1.45113	34.98
1.46780	34.99
1.48447	35.00
1.50113	35.00
1.51780	35.00
1.53447	35.01
1.55113	35.01
1.56780	35.00
1.58447	35.00
1.60113	35.03
1.61780	35.13
1.63447	35.30
1.65113	35.52
1.66780	35.79
1.68447	36.16
1.70113	36.53
1.71780	36.90
1.73447	37.23
1.75113	37.53
1.76780	37.84
1.78447	38.18
1.80113	38.51
1.81780	38.85
1.83447	39.16
1.85113	39.50
1.86780	39.84
1.88447	40.17
1.90113	40.49
1.91780	40.83
1.93447	41.15
1.95113	41.48
1.96780	41.79
1.98447	42.12
2.00113	42.44
2.01780	42.77
2.03447	43.09
2.05113	43.42
2.06780	43.75
2.08447	44.07
2.10113	44.39
2.11780	44.72
2.13447	45.06
2.15113	45.40
2.16780	45.72
2.18447	46.05
2.20113	46.35
2.21780	46.69
2.23447	47.09
2.25113	47.41
2.26780	47.71
2.28447	48.04
2.30113	48.38
2.31780	48.70
2.33447	49.02
2.35113	49.32
2.36780	49.60
2.38447	49.75
2.40113	49.78
2.41780	49.77
2.43447	49.78
2.45113	49.77
2.46780	49.78
2.48447	49.80
2.50113	49.79
2.51780	49.83
2.53447	49.82
2.55113	49.81
2.56780	49.82
2.58447	49.82
2.60113	49.83
2.61780	49.83
2.63447	49.83
2.65113	49.86
2.66780	49.87
2.68447	49.86
2.70113	49.84
2.71780	49.86
2.73447	49.88
2.75113	49.89
2.76780	49.88
2.78447	49.88
2.80113	49.88
2.81780	49.88
2.83447	49.91
2.85113	49.92
2.86780	49.93
2.88447	49.94
2.90113	49.96
2.91780	49.97
2.93447	49.98
2.95113	49.99
2.96780	50.00
2.98447	50.02
3.00113	50.01
3.01780	50.01
3.03447	50.01
3.05113	50.01
3.06780	50.01
3.08447	50.01
3.10113	50.01
3.11780	50.01
3.13447	50.04
3.15113	50.05
3.16780	50.07
3.18447	50.08
3.20113	50.09
3.21780	50.11
3.23447	50.12
3.25113	50.11
3.26780	50.10
3.28447	50.09
3.30113	50.06
3.31780	50.05
3.33447	50.03
3.35113	50.02
3.36780	50.01
3.38447	50.01
3.40113	50.01
3.41780	50.02
3.43447	50.03
3.45113	50.02
3.46780	50.03
3.48447	50.03
3.50113	50.03
3.51780	50.03
3.53447	50.04
3.55113	50.06
3.56780	50.06
3.58447	50.07
3.60113	50.07
3.61780	50.06
3.63447	50.06
3.65113	50.06
3.66780	50.06
3.68447	50.07
3.70113	50.07
3.71780	50.07
3.73447	50.07
3.75113	50.08
3.76780	50.08
3.78447	50.08
3.80113	50.08
3.81780	50.08
3.83447	50.07
3.85113	50.07
3.86780	50.07
3.88447	50.07
3.90113	50.06
3.91780	50.05
3.93447	50.03
3.95113	50.03
3.96780	50.03
3.98447	50.03

[Status Trace (Injection Unit Temperature)]
Interval(msec)	1000
# of Points	240
Start Time(min)	0.001
End Time(min)	3.984
Intensity Units	
Intensity Multiplier	1
R.Time (min)	Intensity
0.00113	99.97
0.01780	99.97
0.03447	99.97
0.05113	99.98
0.06780	99.97
0.08447	99.97
0.10113	99.97
0.11780	99.98
0.13447	99.98
0.15113	99.98
0.16780	99.97
0.18447	99.98
0.20113	99.98
0.21780	99.98
0.23447	99.98
0.25113	99.98
0.26780	99.98
0.28447	99.98
0.30113	99.98
0.31780	99.98
0.33447	99.98
0.35113	99.98
0.36780	99.98
0.38447	99.98
0.40113	99.98
0.41780	99.98
0.43447	99.98
0.45113	99.98
0.46780	99.98
0.48447	99.99
0.50113	99.98
0.51780	99.98
0.53447	99.98
0.55113	99.98
0.56780	99.98
0.58447	99.98
0.60113	99.98
0.61780	99.98
0.63447	99.98
0.65113	99.98
0.66780	99.98
0.68447	99.98
0.70113	99.98
0.71780	99.98
0.73447	99.98
0.75113	99.98
0.76780	99.98
0.78447	99.98
0.80113	99.98
0.81780	99.98
0.83447	99.97
0.85113	99.98
0.86780	99.98
0.88447	99.98
0.90113	99.98
0.91780	99.98
0.93447	99.98
0.95113	99.98
0.96780	99.97
0.98447	99.97
1.00113	99.97
1.01780	99.98
1.03447	99.98
1.05113	99.98
1.06780	99.98
1.08447	99.98
1.10113	99.97
1.11780	99.97
1.13447	99.98
1.15113	99.98
1.16780	99.98
1.18447	99.98
1.20113	99.98
1.21780	99.98
1.23447	99.97
1.25113	99.98
1.26780	99.98
1.28447	99.98
1.30113	99.97
1.31780	99.98
1.33447	99.98
1.35113	99.98
1.36780	99.98
1.38447	99.98
1.40113	99.98
1.41780	99.98
1.43447	99.98
1.45113	99.98
1.46780	99.98
1.48447	99.98
1.50113	99.98
1.51780	99.98
1.53447	99.98
1.55113	99.98
1.56780	99.98
1.58447	99.99
1.60113	99.99
1.61780	99.99
1.63447	99.98
1.65113	99.98
1.66780	99.98
1.68447	99.98
1.70113	99.98
1.71780	99.98
1.73447	99.98
1.75113	99.99
1.76780	99.99
1.78447	99.99
1.80113	99.98
1.81780	99.99
1.83447	99.98
1.85113	99.99
1.86780	99.98
1.88447	99.98
1.90113	99.98
1.91780	99.98
1.93447	99.98
1.95113	99.98
1.96780	99.98
1.98447	99.98
2.00113	99.98
2.01780	99.98
2.03447	99.98
2.05113	99.98
2.06780	99.98
2.08447	99.98
2.10113	99.97
2.11780	99.97
2.13447	99.97
2.15113	99.97
2.16780	99.97
2.18447	99.97
2.20113	99.97
2.21780	99.97
2.23447	99.97
2.25113	99.97
2.26780	99.97
2.28447	99.97
2.30113	99.97
2.31780	99.96
2.33447	99.97
2.35113	99.97
2.36780	99.97
2.38447	99.96
2.40113	99.97
2.41780	99.97
2.43447	99.97
2.45113	99.97
2.46780	99.97
2.48447	99.97
2.50113	99.97
2.51780	99.97
2.53447	99.97
2.55113	99.97
2.56780	99.98
2.58447	99.97
2.60113	99.97
2.61780	99.98
2.63447	99.98
2.65113	99.98
2.66780	99.99
2.68447	99.98
2.70113	99.98
2.71780	99.99
2.73447	99.99
2.75113	99.99
2.76780	99.99
2.78447	99.99
2.80113	99.99
2.81780	99.99
2.83447	99.99
2.85113	100.00
2.86780	99.99
2.88447	100.00
2.90113	100.00
2.91780	100.00
2.93447	100.01
2.95113	100.01
2.96780	100.01
2.98447	100.01
3.00113	100.01
3.01780	100.01
3.03447	100.01
3.05113	100.01
3.06780	100.02
3.08447	100.01
3.10113	100.02
3.11780	100.02
3.13447	100.02
3.15113	100.02
3.16780	100.02
3.18447	100.02
3.20113	100.02
3.21780	100.02
3.23447	100.03
3.25113	100.03
3.26780	100.03
3.28447	100.03
3.30113	100.03
3.31780	100.03
3.33447	100.03
3.35113	100.03
3.36780	100.03
3.38447	100.03
3.40113	100.03
3.41780	100.03
3.43447	100.03
3.45113	100.03
3.46780	100.03
3.48447	100.04
3.50113	100.03
3.51780	100.04
3.53447	100.04
3.55113	100.04
3.56780	100.03
3.58447	100.04
3.60113	100.03
3.61780	100.04
3.63447	100.04
3.65113	100.04
3.66780	100.04
3.68447	100.04
3.70113	100.04
3.71780	100.04
3.73447	100.04
3.75113	100.05
3.76780	100.05
3.78447	100.04
3.80113	100.04
3.81780	100.04
3.83447	100.04
3.85113	100.05
3.86780	100.05
3.88447	100.05
3.90113	100.04
3.91780	100.04
3.93447	100.04
3.95113	100.04
3.96780	100.04
3.98447	100.04

[Status Trace (Carrier Gas Pressure)]
Interval(msec)	1000
# of Points	240
Start Time(min)	0.001
End Time(min)	3.984
Intensity Units	
Intensity Multiplier	1
R.Time (min)	Intensity
0.00113	58.00
0.01780	56.51
0.03447	56.20
0.05113	58.39
0.06780	59.89
0.08447	58.34
0.10113	57.97
0.11780	58.00
0.13447	58.01
0.15113	58.01
0.16780	58.00
0.18447	58.00
0.20113	58.00
0.21780	58.00
0.23447	58.00
0.25113	58.00
0.26780	58.00
0.28447	58.00
0.30113	58.00
0.31780	58.00
0.33447	58.00
0.35113	58.00
0.36780	58.00
0.38447	58.00
0.40113	58.00
0.41780	58.00
0.43447	58.00
0.45113	58.00
0.46780	58.00
0.48447	58.00
0.50113	58.00
0.51780	58.00
0.53447	58.00
0.55113	58.00
0.56780	58.00
0.58447	58.00
0.60113	58.00
0.61780	58.00
0.63447	58.00
0.65113	58.00
0.66780	58.00
0.68447	58.00
0.70113	58.00
0.71780	58.00
0.73447	58.00
0.75113	58.00
0.76780	58.00
0.78447	58.00
0.80113	58.00
0.81780	58.00
0.83447	58.00
0.85113	58.00
0.86780	58.00
0.88447	58.00
0.90113	58.00
0.91780	58.00
0.93447	58.00
0.95113	58.00
0.96780	58.00
0.98447	58.00
1.00113	58.00
1.01780	58.00
1.03447	58.00
1.05113	58.00
1.06780	58.00
1.08447	58.00
1.10113	58.00
1.11780	58.00
1.13447	58.00
1.15113	58.00
1.16780	58.00
1.18447	58.00
1.20113	58.00
1.21780	58.00
1.23447	58.00
1.25113	58.00
1.26780	58.00
1.28447	58.00
1.30113	58.00
1.31780	58.00
1.33447	58.00
1.35113	58.00
1.36780	58.00
1.38447	58.00
1.40113	58.00
1.41780	58.00
1.43447	58.00
1.45113	58.00
1.46780	58.00
1.48447	58.00
1.50113	58.00
1.51780	58.00
1.53447	58.00
1.55113	58.00
1.56780	58.00
1.58447	58.00
1.60113	58.00
1.61780	58.00
1.63447	58.00
1.65113	58.00
1.66780	58.00
1.68447	58.01
1.70113	58.00
1.71780	58.00
1.73447	58.00
1.75113	58.00
1.76780	58.00
1.78447	58.00
1.80113	58.00
1.81780	58.00
1.83447	58.00
1.85113	58.00
1.86780	58.00
1.88447	58.00
1.90113	58.00
1.91780	58.00
1.93447	58.00
1.95113	58.00
1.96780	58.00
1.98447	58.00
2.00113	58.00
2.01780	58.00
2.03447	58.00
2.05113	58.00
2.06780	58.00
2.08447	58.00
2.10113	58.00
2.11780	58.00
2.13447	58.00
2.15113	58.00
2.16780	58.00
2.18447	58.00
2.20113	58.00
2.21780	58.00
2.23447	58.00
2.25113	58.00
2.26780	58.00
2.28447	58.00
2.30113	58.00
2.31780	58.00
2.33447	58.00
2.35113	58.00
2.36780	58.00
2.38447	57.99
2.40113	57.99
2.41780	57.99
2.43447	58.00
2.45113	58.00
2.46780	58.00
2.48447	58.00
2.50113	58.00
2.51780	57.99
2.53447	57.99
2.55113	58.00
2.56780	58.00
2.58447	58.00
2.60113	58.00
2.61780	58.00
2.63447	58.00
2.65113	58.00
2.66780	58.00
2.68447	58.00
2.70113	58.00
2.71780	58.00
2.73447	58.00
2.75113	58.00
2.76780	58.00
2.78447	58.00
2.80113	58.00
2.81780	58.00
2.83447	58.00
2.85113	58.00
2.86780	58.00
2.88447	58.00
2.90113	58.00
2.91780	58.00
2.93447	58.00
2.95113	58.00
2.96780	58.00
2.98447	58.00
3.00113	58.00
3.01780	58.00
3.03447	58.00
3.05113	58.00
3.06780	58.00
3.08447	58.00
3.10113	58.00
3.11780	58.00
3.13447	58.00
3.15113	58.00
3.16780	58.00
3.18447	58.00
3.20113	58.00
3.21780	58.00
3.23447	58.00
3.25113	58.00
3.26780	58.00
3.28447	58.00
3.30113	58.00
3.31780	58.00
3.33447	58.00
3.35113	58.00
3.36780	58.00
3.38447	58.00
3.40113	58.00
3.41780	58.00
3.43447	58.00
3.45113	58.00
3.46780	58.00
3.48447	58.00
3.50113	58.00
3.51780	58.00
3.53447	58.00
3.55113	58.00
3.56780	58.00
3.58447	58.00
3.60113	58.00
3.61780	58.00
3.63447	58.00
3.65113	58.00
3.66780	58.00
3.68447	58.00
3.70113	58.00
3.71780	58.00
3.73447	58.00
3.75113	58.00
3.76780	58.00
3.78447	58.00
3.80113	58.00
3.81780	58.00
3.83447	58.00
3.85113	58.00
3.86780	58.00
3.88447	58.00
3.90113	58.00
3.91780	58.00
3.93447	58.00
3.95113	58.00
3.96780	58.00
3.98447	58.00

[Status Trace (Carrier Gas Flow)]
Interval(msec)	1000
# of Points	240
Start Time(min)	0.001
End Time(min)	3.984
Intensity Units	
Intensity Multiplier	1
R.Time (min)	Intensity
0.00113	34.52
0.01780	34.23
0.03447	34.54
0.05113	34.55
0.06780	34.49
0.08447	34.51
0.10113	34.52
0.11780	34.52
0.13447	34.52
0.15113	34.52
0.16780	34.52
0.18447	34.52
0.20113	34.52
0.21780	34.52
0.23447	34.52
0.25113	34.52
0.26780	34.52
0.28447	34.52
0.30113	34.52
0.31780	34.52
0.33447	34.52
0.35113	34.52
0.36780	34.52
0.38447	34.52
0.40113	34.52
0.41780	34.52
0.43447	34.52
0.45113	34.52
0.46780	34.51
0.48447	34.52
0.50113	34.52
0.51780	34.52
0.53447	34.52
0.55113	34.52
0.56780	34.52
0.58447	34.52
0.60113	34.52
0.61780	34.51
0.63447	34.52
0.65113	34.52
0.66780	34.52
0.68447	34.51
0.70113	34.52
0.71780	34.52
0.73447	34.52
0.75113	34.52
0.76780	34.52
0.78447	34.52
0.80113	34.52
0.81780	34.52
0.83447	34.52
0.85113	34.52
0.86780	34.52
0.88447	34.52
0.90113	34.52
0.91780	34.52
0.93447	34.52
0.95113	34.52
0.96780	34.52
0.98447	34.52
1.00113	34.52
1.01780	34.52
1.03447	34.52
1.05113	34.52
1.06780	34.51
1.08447	34.52
1.10113	34.52
1.11780	34.52
1.13447	34.52
1.15113	34.52
1.16780	34.52
1.18447	34.52
1.20113	34.52
1.21780	34.52
1.23447	34.52
1.25113	34.52
1.26780	34.52
1.28447	34.52
1.30113	34.52
1.31780	34.52
1.33447	34.52
1.35113	34.52
1.36780	34.52
1.38447	34.52
1.40113	34.52
1.41780	34.52
1.43447	34.52
1.45113	34.52
1.46780	34.52
1.48447	34.52
1.50113	34.52
1.51780	34.52
1.53447	34.52
1.55113	34.52
1.56780	34.52
1.58447	34.52
1.60113	34.52
1.61780	34.52
1.63447	34.52
1.65113	34.52
1.66780	34.52
1.68447	34.52
1.70113	34.51
1.71780	34.52
1.73447	34.52
1.75113	34.52
1.76780	34.52
1.78447	34.52
1.80113	34.52
1.81780	34.52
1.83447	34.52
1.85113	34.52
1.86780	34.52
1.88447	34.52
1.90113	34.52
1.91780	34.52
1.93447	34.52
1.95113	34.52
1.96780	34.52
1.98447	34.52
2.00113	34.52
2.01780	34.52
2.03447	34.52
2.05113	34.52
2.06780	34.52
2.08447	34.52
2.10113	34.52
2.11780	34.52
2.13447	34.51
2.15113	34.52
2.16780	34.52
2.18447	34.52
2.20113	34.51
2.21780	34.52
2.23447	34.52
2.25113	34.52
2.26780	34.52
2.28447	34.52
2.30113	34.52
2.31780	34.52
2.33447	34.51
2.35113	34.52
2.36780	34.52
2.38447	34.58
2.40113	34.52
2.41780	34.51
2.43447	34.52
2.45113	34.52
2.46780	34.52
2.48447	34.52
2.50113	34.52
2.51780	34.52
2.53447	34.52
2.55113	34.52
2.56780	34.52
2.58447	34.52
2.60113	34.52
2.61780	34.52
2.63447	34.52
2.65113	34.52
2.66780	34.52
2.68447	34.52
2.70113	34.52
2.71780	34.52
2.73447	34.52
2.75113	34.52
2.76780	34.52
2.78447	34.52
2.80113	34.51
2.81780	34.51
2.83447	34.52
2.85113	34.52
2.86780	34.53
2.88447	34.52
2.90113	34.52
2.91780	34.52
2.93447	34.52
2.95113	34.52
2.96780	34.52
2.98447	34.52
3.00113	34.52
3.01780	34.52
3.03447	34.52
3.05113	34.52
3.06780	34.51
3.08447	34.52
3.10113	34.52
3.11780	34.52
3.13447	34.52
3.15113	34.52
3.16780	34.52
3.18447	34.52
3.20113	34.52
3.21780	34.52
3.23447	34.52
3.25113	34.52
3.26780	34.52
3.28447	34.52
3.30113	34.52
3.31780	34.52
3.33447	34.52
3.35113	34.52
3.36780	34.52
3.38447	34.52
3.40113	34.52
3.41780	34.52
3.43447	34.52
3.45113	34.52
3.46780	34.52
3.48447	34.52
3.50113	34.52
3.51780	34.51
3.53447	34.52
3.55113	34.52
3.56780	34.53
3.58447	34.52
3.60113	34.52
3.61780	34.51
3.63447	34.52
3.65113	34.52
3.66780	34.52
3.68447	34.52
3.70113	34.52
3.71780	34.52
3.73447	34.52
3.75113	34.52
3.76780	34.52
3.78447	34.52
3.80113	34.52
3.81780	34.52
3.83447	34.52
3.85113	34.52
3.86780	34.52
3.88447	34.52
3.90113	34.52
3.91780	34.52
3.93447	34.52
3.95113	34.51
3.96780	34.52
3.98447	34.52

[Status Trace (Column Flow)]
Interval(msec)	1000
# of Points	240
Start Time(min)	0.001
End Time(min)	3.984
Intensity Units	
Intensity Multiplier	1
R.Time (min)	Intensity
0.00113	5.53
0.01780	5.35
0.03447	5.32
0.05113	5.57
0.06780	5.75
0.08447	5.56
0.10113	5.52
0.11780	5.53
0.13447	5.53
0.15113	5.53
0.16780	5.53
0.18447	5.53
0.20113	5.52
0.21780	5.53
0.23447	5.53
0.25113	5.53
0.26780	5.53
0.28447	5.53
0.30113	5.53
0.31780	5.53
0.33447	5.53
0.35113	5.53
0.36780	5.53
0.38447	5.53
0.40113	5.53
0.41780	5.53
0.43447	5.53
0.45113	5.53
0.46780	5.53
0.48447	5.53
0.50113	5.53
0.51780	5.53
0.53447	5.53
0.55113	5.53
0.56780	5.53
0.58447	5.53
0.60113	5.53
0.61780	5.53
0.63447	5.53
0.65113	5.53
0.66780	5.53
0.68447	5.53
0.70113	5.53
0.71780	5.53
0.73447	5.53
0.75113	5.53
0.76780	5.53
0.78447	5.53
0.80113	5.53
0.81780	5.53
0.83447	5.53
0.85113	5.53
0.86780	5.53
0.88447	5.53
0.90113	5.53
0.91780	5.53
0.93447	5.53
0.95113	5.53
0.96780	5.53
0.98447	5.53
1.00113	5.53
1.01780	5.53
1.03447	5.53
1.05113	5.53
1.06780	5.53
1.08447	5.53
1.10113	5.53
1.11780	5.53
1.13447	5.53
1.15113	5.53
1.16780	5.53
1.18447	5.53
1.20113	5.53
1.21780	5.53
1.23447	5.53
1.25113	5.53
1.26780	5.53
1.28447	5.53
1.30113	5.53
1.31780	5.53
1.33447	5.53
1.35113	5.53
1.36780	5.53
1.38447	5.53
1.40113	5.53
1.41780	5.53
1.43447	5.53
1.45113	5.53
1.46780	5.53
1.48447	5.53
1.50113	5.53
1.51780	5.53
1.53447	5.53
1.55113	5.53
1.56780	5.53
1.58447	5.53
1.60113	5.53
1.61780	5.52
1.63447	5.52
1.65113	5.51
1.66780	5.50
1.68447	5.49
1.70113	5.48
1.71780	5.47
1.73447	5.46
1.75113	5.45
1.76780	5.44
1.78447	5.43
1.80113	5.42
1.81780	5.41
1.83447	5.40
1.85113	5.39
1.86780	5.38
1.88447	5.37
1.90113	5.36
1.91780	5.35
1.93447	5.34
1.95113	5.33
1.96780	5.32
1.98447	5.31
2.00113	5.30
2.01780	5.29
2.03447	5.28
2.05113	5.27
2.06780	5.26
2.08447	5.25
2.10113	5.24
2.11780	5.23
2.13447	5.22
2.15113	5.21
2.16780	5.20
2.18447	5.19
2.20113	5.19
2.21780	5.18
2.23447	5.16
2.25113	5.15
2.26780	5.15
2.28447	5.14
2.30113	5.13
2.31780	5.12
2.33447	5.11
2.35113	5.10
2.36780	5.09
2.38447	5.09
2.40113	5.09
2.41780	5.09
2.43447	5.09
2.45113	5.09
2.46780	5.09
2.48447	5.09
2.50113	5.09
2.51780	5.09
2.53447	5.09
2.55113	5.09
2.56780	5.09
2.58447	5.09
2.60113	5.09
2.61780	5.09
2.63447	5.09
2.65113	5.09
2.66780	5.09
2.68447	5.09
2.70113	5.09
2.71780	5.09
2.73447	5.09
2.75113	5.09
2.76780	5.09
2.78447	5.09
2.80113	5.09
2.81780	5.09
2.83447	5.09
2.85113	5.08
2.86780	5.08
2.88447	5.08
2.90113	5.08
2.91780	5.08
2.93447	5.08
2.95113	5.08
2.96780	5.08
2.98447	5.08
3.00113	5.08
3.01780	5.08
3.03447	5.08
3.05113	5.08
3.06780	5.08
3.08447	5.08
3.10113	5.08
3.11780	5.08
3.13447	5.08
3.15113	5.08
3.16780	5.08
3.18447	5.08
3.20113	5.08
3.21780	5.08
3.23447	5.08
3.25113	5.08
3.26780	5.08
3.28447	5.08
3.30113	5.08
3.31780	5.08
3.33447	5.08
3.35113	5.08
3.36780	5.08
3.38447	5.08
3.40113	5.08
3.41780	5.08
3.43447	5.08
3.45113	5.08
3.46780	5.08
3.48447	5.08
3.50113	5.08
3.51780	5.08
3.53447	5.08
3.55113	5.08
3.56780	5.08
3.58447	5.08
3.60113	5.08
3.61780	5.08
3.63447	5.08
3.65113	5.08
3.66780	5.08
3.68447	5.08
3.70113	5.08
3.71780	5.08
3.73447	5.08
3.75113	5.08
3.76780	5.08
3.78447	5.08
3.80113	5.08
3.81780	5.08
3.83447	5.08
3.85113	5.08
3.86780	5.08
3.88447	5.08
3.90113	5.08
3.91780	5.08
3.93447	5.08
3.95113	5.08
3.96780	5.08
3.98447	5.08

[Status Trace (Linear Velocity)]
Interval(msec)	1000
# of Points	240
Start Time(min)	0.001
End Time(min)	3.984
Intensity Units	
Intensity Multiplier	1
R.Time (min)	Intensity
0.00113	39.01
0.01780	38.04
0.03447	37.83
0.05113	39.27
0.06780	40.25
0.08447	39.24
0.10113	39.00
0.11780	39.02
0.13447	39.02
0.15113	39.02
0.16780	39.02
0.18447	39.01
0.20113	39.01
0.21780	39.01
0.23447	39.01
0.25113	39.02
0.26780	39.02
0.28447	39.02
0.30113	39.02
0.31780	39.02
0.33447	39.02
0.35113	39.02
0.36780	39.02
0.38447	39.02
0.40113	39.02
0.41780	39.02
0.43447	39.02
0.45113	39.02
0.46780	39.02
0.48447	39.02
0.50113	39.02
0.51780	39.02
0.53447	39.02
0.55113	39.02
0.56780	39.02
0.58447	39.02
0.60113	39.02
0.61780	39.02
0.63447	39.02
0.65113	39.02
0.66780	39.02
0.68447	39.02
0.70113	39.02
0.71780	39.02
0.73447	39.02
0.75113	39.02
0.76780	39.02
0.78447	39.02
0.80113	39.02
0.81780	39.02
0.83447	39.02
0.85113	39.02
0.86780	39.02
0.88447	39.02
0.90113	39.02
0.91780	39.01
0.93447	39.02
0.95113	39.02
0.96780	39.01
0.98447	39.02
1.00113	39.01
1.01780	39.01
1.03447	39.02
1.05113	39.02
1.06780	39.02
1.08447	39.02
1.10113	39.02
1.11780	39.02
1.13447	39.02
1.15113	39.02
1.16780	39.02
1.18447	39.02
1.20113	39.02
1.21780	39.02
1.23447	39.02
1.25113	39.02
1.26780	39.02
1.28447	39.02
1.30113	39.02
1.31780	39.02
1.33447	39.02
1.35113	39.02
1.36780	39.02
1.38447	39.02
1.40113	39.02
1.41780	39.02
1.43447	39.02
1.45113	39.02
1.46780	39.02
1.48447	39.02
1.50113	39.02
1.51780	39.02
1.53447	39.02
1.55113	39.02
1.56780	39.02
1.58447	39.02
1.60113	39.02
1.61780	39.01
1.63447	38.99
1.65113	38.97
1.66780	38.94
1.68447	38.91
1.70113	38.87
1.71780	38.84
1.73447	38.80
1.75113	38.78
1.76780	38.75
1.78447	38.72
1.80113	38.68
1.81780	38.65
1.83447	38.62
1.85113	38.59
1.86780	38.56
1.88447	38.53
1.90113	38.50
1.91780	38.47
1.93447	38.44
1.95113	38.41
1.96780	38.37
1.98447	38.35
2.00113	38.32
2.01780	38.29
2.03447	38.26
2.05113	38.23
2.06780	38.20
2.08447	38.17
2.10113	38.14
2.11780	38.11
2.13447	38.08
2.15113	38.05
2.16780	38.02
2.18447	37.99
2.20113	37.96
2.21780	37.93
2.23447	37.89
2.25113	37.86
2.26780	37.84
2.28447	37.81
2.30113	37.78
2.31780	37.75
2.33447	37.72
2.35113	37.69
2.36780	37.67
2.38447	37.65
2.40113	37.65
2.41780	37.65
2.43447	37.65
2.45113	37.65
2.46780	37.65
2.48447	37.65
2.50113	37.65
2.51780	37.64
2.53447	37.64
2.55113	37.65
2.56780	37.65
2.58447	37.65
2.60113	37.65
2.61780	37.65
2.63447	37.65
2.65113	37.65
2.66780	37.64
2.68447	37.65
2.70113	37.65
2.71780	37.65
2.73447	37.64
2.75113	37.64
2.76780	37.64
2.78447	37.64
2.80113	37.64
2.81780	37.64
2.83447	37.64
2.85113	37.64
2.86780	37.64
2.88447	37.64
2.90113	37.64
2.91780	37.64
2.93447	37.64
2.95113	37.63
2.96780	37.63
2.98447	37.63
3.00113	37.63
3.01780	37.63
3.03447	37.63
3.05113	37.63
3.06780	37.63
3.08447	37.63
3.10113	37.63
3.11780	37.63
3.13447	37.63
3.15113	37.63
3.16780	37.63
3.18447	37.63
3.20113	37.63
3.21780	37.62
3.23447	37.62
3.25113	37.62
3.26780	37.62
3.28447	37.63
3.30113	37.63
3.31780	37.63
3.33447	37.63
3.35113	37.63
3.36780	37.63
3.38447	37.63
3.40113	37.63
3.41780	37.63
3.43447	37.63
3.45113	37.63
3.46780	37.63
3.48447	37.63
3.50113	37.63
3.51780	37.63
3.53447	37.63
3.55113	37.63
3.56780	37.63
3.58447	37.63
3.60113	37.63
3.61780	37.63
3.63447	37.63
3.65113	37.63
3.66780	37.63
3.68447	37.63
3.70113	37.63
3.71780	37.63
3.73447	37.63
3.75113	37.63
3.76780	37.63
3.78447	37.63
3.80113	37.63
3.81780	37.63
3.83447	37.63
3.85113	37.63
3.86780	37.63
3.88447	37.63
3.90113	37.63
3.91780	37.63
3.93447	37.63
3.95113	37.63
3.96780	37.63
3.98447	37.63

