[Header]
Application Name	LabSolutions
Version	5.110
Data File Name	C:\Users\User\Desktop\GC Analyses\Jack\Nachusa Grasslands Sampling\T3 Timepoint July 12th\T3_07122022_042.gcd
Output Date	3/14/2023
Output Time	3:43:32 PM

[File Information]
Type	Data File
Generated	3/13/2023 7:07:36 PM
Generated by	System Administrator
Modified	3/13/2023 7:14:11 PM
Modified by	System Administrator

[Sample Information]
Operator Name	System Administrator
Acquired	3/13/2023 7:10:09 PM
Sample Type	0:Unknown
Level	0
Sample Name	042
Sample ID	042
ISTD Amount1	1
ISTD Amount2	1
ISTD Amount3	1
ISTD Amount4	1
ISTD Amount5	1
ISTD Amount6	1
ISTD Amount7	1
ISTD Amount8	1
ISTD Amount9	1
ISTD Amount10	1
ISTD Amount11	1
ISTD Amount12	1
ISTD Amount13	1
ISTD Amount14	1
ISTD Amount15	1
ISTD Amount16	1
ISTD Amount17	1
ISTD Amount18	1
ISTD Amount19	1
ISTD Amount20	1
ISTD Amount21	1
ISTD Amount22	1
ISTD Amount23	1
ISTD Amount24	1
ISTD Amount25	1
ISTD Amount26	1
ISTD Amount27	1
ISTD Amount28	1
ISTD Amount29	1
ISTD Amount30	1
ISTD Amount31	1
ISTD Amount32	1
Sample Amount	1
Dilution Factor	1
Vial#	41
Injection Volume	1
Injection Count	1
Bar Code	

[Original Files]
Data File	C:\Users\User\Desktop\GC Analyses\Jack\Nachusa Grasslands Sampling\T3 Timepoint July 12th\T3_07122022_042.gcd
Method File	C:\LabSolutions\Data\GHG_4min_2022\ghg3_togas_w_acet_4 min_new_int.gcm
Batch File	C:\LabSolutions\Data\AutoSamplerTesting\T3_07122022.gcb
Report Format File	c:\LabSolutions\System\DEFAULT.lsr

[File Description]


[Configuration]
Instrument Name	C0B7VH3-Instrument1
Instrument #	1
Line #	1
# of Detectors	3
Detector ID	DET#1	DET#2	DET#3
Detector Name	FID	PTCD	ECD
# of Channels	1	1	1

[Peak Table(Ch1)]
# of Peaks	3
Peak#	R.Time	I.Time	F.Time	Area	Height	A/H	Conc.	Mark	ID#	Name	k'	Plate #	Plate Ht.	Tailing	Resolution	Sep.Factor	Area Ratio	Height Ratio	Conc. %	Norm Conc.
1	1.476	1.435	1.534	36661	18075	2.028	258.827	   	1	CO	0.000	9684	15.490	1.277	0.000	0.000	0	0	30.469	30.469
2	1.571	1.542	1.604	3309	1820	1.818	63.981	   	2	CH4	0.065	13442	11.159	1.054	1.670	0.000	0	0	7.532	7.532
3	2.000	1.945	2.301	2098484	1013117	2.071	526.663	   	3	CO2	0.355	17562	8.541	1.193	7.489	5.500	0	0	61.999	61.999

[Peak Table(Ch2)]
# of Peaks	0

[Peak Table(Ch3)]
# of Peaks	5
Peak#	R.Time	I.Time	F.Time	Area	Height	A/H	Conc.	Mark	ID#	Name	k'	Plate #	Plate Ht.	Tailing	Resolution	Sep.Factor	Area Ratio	Height Ratio	Conc. %	Norm Conc.
1	2.462	2.271	2.510	2133	623	3.424	0.000	   			0.000	10061	14.910	0.000	0.000	0.000	0	0	0.000	0.000
2	2.528	2.510	2.583	1080	353	3.064	0.000	 V 			0.027	5112	29.344	0.000	0.551	0.000	0	0	0.000	0.000
3	2.609	2.583	2.682	583	154	3.796	0.000	 V 			0.060	924	162.282	0.000	0.333	2.222	0	0	0.000	0.000
4	2.880	2.708	3.126	18763	4848	3.871	0.479	   	1	N2O	0.170	13135	11.420	1.520	1.223	2.850	0	0	100.000	100.000
5	3.459	3.155	3.709	1878	84	22.463	0.000	   	2	SF6	0.405	93	1608.901	0.914	0.756	2.386	0	0	0.000	0.000

[Compound Results(Ch1)]
# of IDs	6
ID#	Name	R.Time	Area	Height	Conc.	Curve	3rd	2nd	1st	Constant	Area Ratio	Height Ratio	Conc. %	Norm Conc.
1	CO	1.476	36661	18075	258.827	Linear	0.000000e+00	0.000000e+00	1.416423e+002	0.000000e+00	0	0	30.469	30.469
2	CH4	1.571	3309	1820	63.981	Linear	0.000000e+00	0.000000e+00	5.171738e+001	0.000000e+00	0	0	7.532	7.532
3	CO2	2.000	2098484	1013117	526.663	Linear	0.000000e+00	0.000000e+00	3.984494e+003	0.000000e+00	0	0	61.999	61.999
4	Ethylene	0.000	0	0	0.000	Linear	0.000000e+00	0.000000e+00	0.000000e+00	0.000000e+00	0	0	0.000	0.000
5	Acetylene	0.000	0	0	0.000	Linear	0.000000e+00	0.000000e+00	0.000000e+00	0.000000e+00	0	0	0.000	0.000
6	Ethane	0.000	0	0	0.000	Linear	0.000000e+00	0.000000e+00	0.000000e+00	0.000000e+00	0	0	0.000	0.000

[Compound Results(Ch2)]
# of IDs	5
ID#	Name	R.Time	Area	Height	Conc.	Curve	3rd	2nd	1st	Constant	Area Ratio	Height Ratio	Conc. %	Norm Conc.
1	Hydrogen	0.000	0	0	0.000	Linear	0.000000e+00	0.000000e+00	0.000000e+00	0.000000e+00	0	0	0.000	0.000
2	Oxygen	0.000	0	0	0.000	Linear	0.000000e+00	0.000000e+00	0.000000e+00	0.000000e+00	0	0	0.000	0.000
3	Nitrogen	0.000	0	0	0.000	Linear	0.000000e+00	0.000000e+00	0.000000e+00	0.000000e+00	0	0	0.000	0.000
4	Methane	0.000	0	0	0.000	Linear	0.000000e+00	0.000000e+00	0.000000e+00	0.000000e+00	0	0	0.000	0.000
5	Carbon Monoxide	0.000	0	0	0.000	Linear	0.000000e+00	0.000000e+00	0.000000e+00	0.000000e+00	0	0	0.000	0.000

[Compound Results(Ch3)]
# of IDs	2
ID#	Name	R.Time	Area	Height	Conc.	Curve	3rd	2nd	1st	Constant	Area Ratio	Height Ratio	Conc. %	Norm Conc.
1	N2O	2.880	18763	4848	0.479	Linear	0.000000e+00	0.000000e+00	3.915173e+004	0.000000e+00	0	0	100.000	100.000
2	SF6	3.459	1878	84	0.000	Linear	0.000000e+00	0.000000e+00	0.000000e+00	0.000000e+00	0	0	0.000	0.000

[Group Results(Ch1)]
# of Groups	0

[Group Results(Ch2)]
# of Groups	0

[Group Results(Ch3)]
# of Groups	0

[Chromatogram (Ch1)]
Interval(msec)	220
# of Points	1091
Start Time(min)	0.002
End Time(min)	3.998
R.Time (min)	Intensity
0.00167	15
0.00533	22
0.00900	31
0.01267	35
0.01633	34
0.02000	28
0.02367	22
0.02733	18
0.03100	12
0.03467	6
0.03833	-2
0.04200	-8
0.04567	-10
0.04933	-8
0.05300	-5
0.05667	-6
0.06033	-7
0.06400	-6
0.06767	-5
0.07133	-0
0.07500	13
0.07867	27
0.08233	33
0.08600	27
0.08967	14
0.09333	1
0.09700	-9
0.10067	-14
0.10433	-13
0.10800	-3
0.11167	4
0.11533	-1
0.11900	-10
0.12267	-19
0.12633	-21
0.13000	-18
0.13367	-12
0.13733	-7
0.14100	-2
0.14467	-1
0.14833	-1
0.15200	3
0.15567	11
0.15933	16
0.16300	14
0.16667	12
0.17033	9
0.17400	5
0.17767	2
0.18133	2
0.18500	6
0.18867	14
0.19233	27
0.19600	44
0.19967	51
0.20333	47
0.20700	36
0.21067	23
0.21433	11
0.21800	1
0.22167	-5
0.22533	-4
0.22900	-0
0.23267	5
0.23633	11
0.24000	12
0.24367	14
0.24733	14
0.25100	14
0.25467	17
0.25833	23
0.26200	27
0.26567	25
0.26933	24
0.27300	21
0.27667	10
0.28033	-0
0.28400	-4
0.28767	-4
0.29133	-6
0.29500	-8
0.29867	-7
0.30233	-3
0.30600	5
0.30967	11
0.31333	14
0.31700	16
0.32067	19
0.32433	24
0.32800	25
0.33167	24
0.33533	19
0.33900	14
0.34267	12
0.34633	11
0.35000	9
0.35367	10
0.35733	17
0.36100	26
0.36467	32
0.36833	36
0.37200	37
0.37567	32
0.37933	23
0.38300	19
0.38667	14
0.39033	2
0.39400	-14
0.39767	-25
0.40133	-28
0.40500	-28
0.40867	-25
0.41233	-16
0.41600	-6
0.41967	-4
0.42333	-8
0.42700	-13
0.43067	-22
0.43433	-35
0.43800	-43
0.44167	-41
0.44533	-24
0.44900	-8
0.45267	-1
0.45633	-1
0.46000	-2
0.46367	-2
0.46733	-3
0.47100	-3
0.47467	-6
0.47833	-10
0.48200	-8
0.48567	3
0.48933	13
0.49300	19
0.49667	23
0.50033	23
0.50400	15
0.50767	7
0.51133	2
0.51500	-1
0.51867	-4
0.52233	-10
0.52600	-20
0.52967	-26
0.53333	-24
0.53700	-14
0.54067	-4
0.54433	5
0.54800	11
0.55167	15
0.55533	17
0.55900	14
0.56267	4
0.56633	-5
0.57000	-12
0.57367	-17
0.57733	-17
0.58100	-8
0.58467	5
0.58833	11
0.59200	8
0.59567	5
0.59933	7
0.60300	11
0.60667	10
0.61033	5
0.61400	-3
0.61767	-10
0.62133	-18
0.62500	-29
0.62867	-37
0.63233	-36
0.63600	-32
0.63967	-26
0.64333	-22
0.64700	-20
0.65067	-17
0.65433	-10
0.65800	-6
0.66167	-11
0.66533	-13
0.66900	-15
0.67267	-12
0.67633	-7
0.68000	1
0.68367	6
0.68733	5
0.69100	5
0.69467	6
0.69833	1
0.70200	-3
0.70567	-3
0.70933	1
0.71300	1
0.71667	-8
0.72033	-19
0.72400	-28
0.72767	-36
0.73133	-44
0.73500	-51
0.73867	-56
0.74233	-58
0.74600	-56
0.74967	-49
0.75333	-39
0.75700	-30
0.76067	-23
0.76433	-17
0.76800	-9
0.77167	-1
0.77533	1
0.77900	1
0.78267	0
0.78633	-1
0.79000	-8
0.79367	-16
0.79733	-20
0.80100	-22
0.80467	-24
0.80833	-27
0.81200	-31
0.81567	-35
0.81933	-37
0.82300	-35
0.82667	-32
0.83033	-31
0.83400	-30
0.83767	-24
0.84133	-19
0.84500	-17
0.84867	-14
0.85233	-10
0.85600	-9
0.85967	-10
0.86333	-12
0.86700	-14
0.87067	-15
0.87433	-11
0.87800	-8
0.88167	-8
0.88533	-14
0.88900	-24
0.89267	-30
0.89633	-31
0.90000	-28
0.90367	-28
0.90733	-30
0.91100	-32
0.91467	-33
0.91833	-32
0.92200	-33
0.92567	-36
0.92933	-38
0.93300	-36
0.93667	-33
0.94033	-29
0.94400	-28
0.94767	-26
0.95133	-22
0.95500	-21
0.95867	-24
0.96233	-31
0.96600	-38
0.96967	-42
0.97333	-44
0.97700	-47
0.98067	-46
0.98433	-44
0.98800	-42
0.99167	-39
0.99533	-35
0.99900	-34
1.00267	-40
1.00633	-48
1.01000	-55
1.01367	-55
1.01733	-54
1.02100	-55
1.02467	-51
1.02833	-43
1.03200	-35
1.03567	-29
1.03933	-24
1.04300	-25
1.04667	-31
1.05033	-40
1.05400	-44
1.05767	-46
1.06133	-46
1.06500	-42
1.06867	-38
1.07233	-33
1.07600	-33
1.07967	-31
1.08333	-26
1.08700	-22
1.09067	-16
1.09433	-2
1.09800	11
1.10167	10
1.10533	-2
1.10900	-18
1.11267	-32
1.11633	-38
1.12000	-34
1.12367	-31
1.12733	-33
1.13100	-34
1.13467	-34
1.13833	-33
1.14200	-29
1.14567	-23
1.14933	-20
1.15300	-17
1.15667	-7
1.16033	5
1.16400	16
1.16767	16
1.17133	7
1.17500	-5
1.17867	-17
1.18233	-28
1.18600	-30
1.18967	-28
1.19333	-22
1.19700	-14
1.20067	-10
1.20433	-9
1.20800	-9
1.21167	-10
1.21533	-12
1.21900	-12
1.22267	-9
1.22633	-9
1.23000	-9
1.23367	-10
1.23733	-9
1.24100	-7
1.24467	-7
1.24833	-8
1.25200	-12
1.25567	-16
1.25933	-15
1.26300	-16
1.26667	-20
1.27033	-25
1.27400	-33
1.27767	-36
1.28133	-35
1.28500	-33
1.28867	-30
1.29233	-26
1.29600	-24
1.29967	-21
1.30333	-20
1.30700	-22
1.31067	-23
1.31433	-25
1.31800	-26
1.32167	-28
1.32533	-30
1.32900	-30
1.33267	-30
1.33633	-31
1.34000	-25
1.34367	-17
1.34733	-17
1.35100	-23
1.35467	-32
1.35833	-38
1.36200	-37
1.36567	-34
1.36933	-33
1.37300	-32
1.37667	-33
1.38033	-31
1.38400	-25
1.38767	-18
1.39133	-16
1.39500	-20
1.39867	-26
1.40233	-27
1.40600	-27
1.40967	-30
1.41333	-36
1.41700	-47
1.42067	-61
1.42433	-72
1.42800	-77
1.43167	-76
1.43533	-69
1.43900	-49
1.44267	4
1.44633	174
1.45000	720
1.45367	2142
1.45733	4801
1.46100	8301
1.46467	11830
1.46833	14788
1.47200	16894
1.47567	17981
1.47933	17883
1.48300	16566
1.48667	14272
1.49033	11477
1.49400	8690
1.49767	6258
1.50133	4327
1.50500	2886
1.50867	1857
1.51233	1147
1.51600	669
1.51967	353
1.52333	144
1.52700	7
1.53067	-79
1.53433	-131
1.53800	-153
1.54167	-134
1.54533	-29
1.54900	202
1.55267	542
1.55633	917
1.56000	1257
1.56367	1520
1.56733	1690
1.57100	1736
1.57467	1636
1.57833	1402
1.58200	1094
1.58567	783
1.58933	509
1.59300	298
1.59667	144
1.60033	39
1.60400	-28
1.60767	-73
1.61133	-97
1.61500	-106
1.61867	-102
1.62233	-95
1.62600	-98
1.62967	-106
1.63333	-113
1.63700	-120
1.64067	-128
1.64433	-134
1.64800	-136
1.65167	-136
1.65533	-131
1.65900	-126
1.66267	-126
1.66633	-127
1.67000	-128
1.67367	-132
1.67733	-135
1.68100	-137
1.68467	-136
1.68833	-130
1.69200	-121
1.69567	-117
1.69933	-117
1.70300	-119
1.70667	-119
1.71033	-120
1.71400	-122
1.71767	-123
1.72133	-125
1.72500	-123
1.72867	-119
1.73233	-118
1.73600	-115
1.73967	-106
1.74333	-96
1.74700	-84
1.75067	-74
1.75433	-73
1.75800	-76
1.76167	-82
1.76533	-87
1.76900	-90
1.77267	-93
1.77633	-98
1.78000	-109
1.78367	-119
1.78733	-123
1.79100	-120
1.79467	-118
1.79833	-116
1.80200	-110
1.80567	-103
1.80933	-94
1.81300	-84
1.81667	-80
1.82033	-83
1.82400	-89
1.82767	-96
1.83133	-102
1.83500	-110
1.83867	-119
1.84233	-123
1.84600	-120
1.84967	-112
1.85333	-102
1.85700	-95
1.86067	-93
1.86433	-93
1.86800	-93
1.87167	-90
1.87533	-84
1.87900	-79
1.88267	-76
1.88633	-73
1.89000	-75
1.89367	-80
1.89733	-85
1.90100	-88
1.90467	-86
1.90833	-85
1.91200	-90
1.91567	-97
1.91933	-103
1.92300	-109
1.92667	-112
1.93033	-114
1.93400	-114
1.93767	-112
1.94133	-108
1.94500	-102
1.94867	-95
1.95233	-77
1.95600	-2
1.95967	442
1.96333	2738
1.96700	11833
1.97067	39371
1.97433	103698
1.97800	220410
1.98167	387410
1.98533	580887
1.98900	766521
1.99267	913071
1.99633	998811
2.00000	1013065
2.00367	957137
2.00733	845272
2.01100	700964
2.01467	549696
2.01833	411453
2.02200	297063
2.02567	209056
2.02933	144799
2.03300	99571
2.03667	68500
2.04033	47474
2.04400	33351
2.04767	23873
2.05133	17486
2.05500	13144
2.05867	10146
2.06233	8029
2.06600	6499
2.06967	5374
2.07333	4528
2.07700	3878
2.08067	3370
2.08433	2967
2.08800	2643
2.09167	2372
2.09533	2143
2.09900	1948
2.10267	1780
2.10633	1642
2.11000	1521
2.11367	1410
2.11733	1310
2.12100	1225
2.12467	1152
2.12833	1084
2.13200	1021
2.13567	963
2.13933	912
2.14300	865
2.14667	819
2.15033	777
2.15400	741
2.15767	707
2.16133	678
2.16500	655
2.16867	634
2.17233	612
2.17600	590
2.17967	569
2.18333	552
2.18700	539
2.19067	526
2.19433	513
2.19800	499
2.20167	485
2.20533	471
2.20900	455
2.21267	436
2.21633	415
2.22000	397
2.22367	383
2.22733	369
2.23100	358
2.23467	347
2.23833	338
2.24200	331
2.24567	326
2.24933	322
2.25300	319
2.25667	320
2.26033	320
2.26400	316
2.26767	309
2.27133	302
2.27500	292
2.27867	279
2.28233	265
2.28600	249
2.28967	234
2.29333	224
2.29700	220
2.30067	220
2.30433	221
2.30800	223
2.31167	226
2.31533	228
2.31900	229
2.32267	229
2.32633	234
2.33000	242
2.33367	242
2.33733	232
2.34100	217
2.34467	203
2.34833	189
2.35200	178
2.35567	171
2.35933	168
2.36300	165
2.36667	164
2.37033	166
2.37400	171
2.37767	174
2.38133	173
2.38500	167
2.38867	165
2.39233	161
2.39600	158
2.39967	159
2.40333	165
2.40700	171
2.41067	177
2.41433	182
2.41800	187
2.42167	187
2.42533	182
2.42900	176
2.43267	171
2.43633	165
2.44000	158
2.44367	156
2.44733	156
2.45100	157
2.45467	153
2.45833	156
2.46200	162
2.46567	162
2.46933	159
2.47300	153
2.47667	149
2.48033	151
2.48400	155
2.48767	159
2.49133	163
2.49500	163
2.49867	155
2.50233	144
2.50600	134
2.50967	130
2.51333	129
2.51700	128
2.52067	128
2.52433	129
2.52800	130
2.53167	136
2.53533	143
2.53900	149
2.54267	148
2.54633	139
2.55000	129
2.55367	119
2.55733	120
2.56100	124
2.56467	128
2.56833	131
2.57200	134
2.57567	136
2.57933	141
2.58300	147
2.58667	150
2.59033	150
2.59400	145
2.59767	135
2.60133	127
2.60500	125
2.60867	128
2.61233	130
2.61600	135
2.61967	139
2.62333	141
2.62700	141
2.63067	138
2.63433	132
2.63800	130
2.64167	136
2.64533	147
2.64900	158
2.65267	165
2.65633	168
2.66000	163
2.66367	156
2.66733	149
2.67100	141
2.67467	136
2.67833	133
2.68200	129
2.68567	128
2.68933	132
2.69300	140
2.69667	151
2.70033	163
2.70400	173
2.70767	174
2.71133	168
2.71500	159
2.71867	151
2.72233	149
2.72600	154
2.72967	160
2.73333	161
2.73700	161
2.74067	161
2.74433	156
2.74800	152
2.75167	149
2.75533	145
2.75900	138
2.76267	128
2.76633	125
2.77000	131
2.77367	140
2.77733	150
2.78100	155
2.78467	156
2.78833	157
2.79200	157
2.79567	156
2.79933	156
2.80300	156
2.80667	153
2.81033	146
2.81400	138
2.81767	132
2.82133	131
2.82500	137
2.82867	148
2.83233	159
2.83600	165
2.83967	167
2.84333	169
2.84700	169
2.85067	164
2.85433	161
2.85800	164
2.86167	171
2.86533	176
2.86900	174
2.87267	171
2.87633	166
2.88000	163
2.88367	165
2.88733	166
2.89100	166
2.89467	164
2.89833	161
2.90200	160
2.90567	161
2.90933	160
2.91300	162
2.91667	171
2.92033	183
2.92400	194
2.92767	199
2.93133	199
2.93500	199
2.93867	200
2.94233	200
2.94600	193
2.94967	182
2.95333	173
2.95700	167
2.96067	161
2.96433	154
2.96800	143
2.97167	131
2.97533	124
2.97900	124
2.98267	133
2.98633	147
2.99000	159
2.99367	166
2.99733	169
3.00100	170
3.00467	172
3.00833	175
3.01200	179
3.01567	191
3.01933	209
3.02300	226
3.02667	229
3.03033	216
3.03400	200
3.03767	187
3.04133	181
3.04500	179
3.04867	176
3.05233	170
3.05600	168
3.05967	166
3.06333	165
3.06700	165
3.07067	167
3.07433	168
3.07800	168
3.08167	170
3.08533	172
3.08900	171
3.09267	167
3.09633	163
3.10000	161
3.10367	164
3.10733	168
3.11100	170
3.11467	169
3.11833	171
3.12200	172
3.12567	170
3.12933	167
3.13300	167
3.13667	168
3.14033	174
3.14400	185
3.14767	192
3.15133	194
3.15500	189
3.15867	178
3.16233	165
3.16600	156
3.16967	151
3.17333	151
3.17700	154
3.18067	155
3.18433	157
3.18800	159
3.19167	163
3.19533	166
3.19900	167
3.20267	164
3.20633	162
3.21000	160
3.21367	153
3.21733	144
3.22100	141
3.22467	139
3.22833	136
3.23200	138
3.23567	141
3.23933	143
3.24300	141
3.24667	136
3.25033	136
3.25400	142
3.25767	148
3.26133	147
3.26500	141
3.26867	139
3.27233	141
3.27600	143
3.27967	144
3.28333	146
3.28700	149
3.29067	151
3.29433	151
3.29800	150
3.30167	150
3.30533	146
3.30900	138
3.31267	132
3.31633	131
3.32000	133
3.32367	137
3.32733	140
3.33100	140
3.33467	139
3.33833	140
3.34200	145
3.34567	148
3.34933	148
3.35300	143
3.35667	140
3.36033	141
3.36400	139
3.36767	135
3.37133	130
3.37500	126
3.37867	127
3.38233	130
3.38600	132
3.38967	134
3.39333	138
3.39700	140
3.40067	139
3.40433	134
3.40800	127
3.41167	121
3.41533	121
3.41900	125
3.42267	129
3.42633	133
3.43000	137
3.43367	139
3.43733	133
3.44100	125
3.44467	117
3.44833	116
3.45200	120
3.45567	119
3.45933	114
3.46300	112
3.46667	112
3.47033	114
3.47400	124
3.47767	139
3.48133	146
3.48500	143
3.48867	137
3.49233	133
3.49600	131
3.49967	130
3.50333	125
3.50700	116
3.51067	115
3.51433	117
3.51800	120
3.52167	117
3.52533	115
3.52900	112
3.53267	112
3.53633	112
3.54000	113
3.54367	114
3.54733	119
3.55100	123
3.55467	124
3.55833	122
3.56200	116
3.56567	108
3.56933	100
3.57300	97
3.57667	101
3.58033	110
3.58400	119
3.58767	120
3.59133	113
3.59500	109
3.59867	106
3.60233	106
3.60600	107
3.60967	106
3.61333	103
3.61700	99
3.62067	92
3.62433	84
3.62800	81
3.63167	78
3.63533	74
3.63900	70
3.64267	69
3.64633	71
3.65000	80
3.65367	89
3.65733	97
3.66100	102
3.66467	101
3.66833	97
3.67200	93
3.67567	90
3.67933	89
3.68300	90
3.68667	92
3.69033	94
3.69400	94
3.69767	89
3.70133	86
3.70500	87
3.70867	88
3.71233	89
3.71600	92
3.71967	94
3.72333	92
3.72700	88
3.73067	86
3.73433	87
3.73800	86
3.74167	82
3.74533	76
3.74900	73
3.75267	74
3.75633	78
3.76000	86
3.76367	95
3.76733	100
3.77100	99
3.77467	98
3.77833	95
3.78200	89
3.78567	83
3.78933	74
3.79300	65
3.79667	56
3.80033	51
3.80400	53
3.80767	60
3.81133	68
3.81500	74
3.81867	81
3.82233	88
3.82600	94
3.82967	91
3.83333	85
3.83700	79
3.84067	76
3.84433	76
3.84800	77
3.85167	77
3.85533	75
3.85900	69
3.86267	60
3.86633	53
3.87000	55
3.87367	61
3.87733	70
3.88100	79
3.88467	83
3.88833	80
3.89200	69
3.89567	63
3.89933	63
3.90300	68
3.90667	76
3.91033	77
3.91400	66
3.91767	53
3.92133	46
3.92500	48
3.92867	54
3.93233	61
3.93600	61
3.93967	55
3.94333	44
3.94700	35
3.95067	37
3.95433	47
3.95800	53
3.96167	50
3.96533	39
3.96900	31
3.97267	28
3.97633	34
3.98000	42
3.98367	48
3.98733	53
3.99100	58
3.99467	59
3.99833	61

[Chromatogram (Ch2)]
Interval(msec)	220
# of Points	1091
Start Time(min)	0.002
End Time(min)	3.998
R.Time (min)	Intensity
0.00167	0
0.00533	0
0.00900	1
0.01267	1
0.01633	1
0.02000	1
0.02367	2
0.02733	2
0.03100	2
0.03467	2
0.03833	2
0.04200	2
0.04567	3
0.04933	3
0.05300	4
0.05667	4
0.06033	4
0.06400	4
0.06767	5
0.07133	5
0.07500	5
0.07867	5
0.08233	5
0.08600	5
0.08967	5
0.09333	5
0.09700	4
0.10067	4
0.10433	4
0.10800	4
0.11167	3
0.11533	3
0.11900	3
0.12267	3
0.12633	3
0.13000	2
0.13367	2
0.13733	2
0.14100	2
0.14467	1
0.14833	1
0.15200	0
0.15567	0
0.15933	-0
0.16300	-0
0.16667	-0
0.17033	-0
0.17400	-0
0.17767	0
0.18133	0
0.18500	0
0.18867	0
0.19233	1
0.19600	0
0.19967	1
0.20333	1
0.20700	1
0.21067	1
0.21433	1
0.21800	2
0.22167	2
0.22533	2
0.22900	2
0.23267	2
0.23633	2
0.24000	2
0.24367	3
0.24733	3
0.25100	3
0.25467	3
0.25833	3
0.26200	3
0.26567	3
0.26933	3
0.27300	3
0.27667	4
0.28033	4
0.28400	4
0.28767	3
0.29133	3
0.29500	3
0.29867	2
0.30233	2
0.30600	2
0.30967	2
0.31333	2
0.31700	2
0.32067	2
0.32433	3
0.32800	3
0.33167	3
0.33533	3
0.33900	3
0.34267	3
0.34633	4
0.35000	4
0.35367	4
0.35733	4
0.36100	4
0.36467	5
0.36833	5
0.37200	5
0.37567	4
0.37933	4
0.38300	4
0.38667	4
0.39033	4
0.39400	4
0.39767	4
0.40133	4
0.40500	4
0.40867	3
0.41233	3
0.41600	3
0.41967	3
0.42333	2
0.42700	2
0.43067	2
0.43433	1
0.43800	1
0.44167	1
0.44533	1
0.44900	1
0.45267	1
0.45633	1
0.46000	1
0.46367	1
0.46733	1
0.47100	2
0.47467	2
0.47833	2
0.48200	2
0.48567	2
0.48933	2
0.49300	2
0.49667	2
0.50033	3
0.50400	3
0.50767	3
0.51133	3
0.51500	3
0.51867	3
0.52233	3
0.52600	3
0.52967	4
0.53333	4
0.53700	4
0.54067	3
0.54433	3
0.54800	2
0.55167	2
0.55533	2
0.55900	2
0.56267	2
0.56633	2
0.57000	2
0.57367	2
0.57733	2
0.58100	2
0.58467	2
0.58833	2
0.59200	2
0.59567	2
0.59933	2
0.60300	2
0.60667	2
0.61033	2
0.61400	2
0.61767	2
0.62133	2
0.62500	2
0.62867	2
0.63233	1
0.63600	1
0.63967	1
0.64333	1
0.64700	0
0.65067	0
0.65433	0
0.65800	0
0.66167	1
0.66533	1
0.66900	1
0.67267	2
0.67633	2
0.68000	2
0.68367	2
0.68733	2
0.69100	2
0.69467	2
0.69833	1
0.70200	1
0.70567	2
0.70933	2
0.71300	2
0.71667	3
0.72033	3
0.72400	3
0.72767	3
0.73133	3
0.73500	4
0.73867	4
0.74233	4
0.74600	4
0.74967	4
0.75333	3
0.75700	3
0.76067	3
0.76433	3
0.76800	3
0.77167	2
0.77533	2
0.77900	2
0.78267	2
0.78633	1
0.79000	1
0.79367	1
0.79733	1
0.80100	0
0.80467	0
0.80833	0
0.81200	0
0.81567	0
0.81933	0
0.82300	0
0.82667	0
0.83033	0
0.83400	0
0.83767	0
0.84133	0
0.84500	0
0.84867	0
0.85233	0
0.85600	0
0.85967	0
0.86333	1
0.86700	1
0.87067	1
0.87433	2
0.87800	2
0.88167	2
0.88533	2
0.88900	3
0.89267	3
0.89633	4
0.90000	4
0.90367	4
0.90733	4
0.91100	3
0.91467	3
0.91833	2
0.92200	2
0.92567	2
0.92933	1
0.93300	1
0.93667	0
0.94033	-1
0.94400	-1
0.94767	-2
0.95133	-2
0.95500	-2
0.95867	-2
0.96233	-2
0.96600	-3
0.96967	-3
0.97333	-3
0.97700	-3
0.98067	-3
0.98433	-3
0.98800	-2
0.99167	-2
0.99533	-2
0.99900	-1
1.00267	-1
1.00633	-1
1.01000	-1
1.01367	-1
1.01733	-1
1.02100	-0
1.02467	-0
1.02833	-0
1.03200	-0
1.03567	-0
1.03933	0
1.04300	1
1.04667	1
1.05033	1
1.05400	1
1.05767	0
1.06133	-0
1.06500	-0
1.06867	-1
1.07233	-1
1.07600	-1
1.07967	-1
1.08333	-1
1.08700	-1
1.09067	-1
1.09433	-1
1.09800	-1
1.10167	-0
1.10533	-0
1.10900	0
1.11267	0
1.11633	1
1.12000	1
1.12367	2
1.12733	2
1.13100	2
1.13467	3
1.13833	3
1.14200	3
1.14567	3
1.14933	3
1.15300	3
1.15667	3
1.16033	3
1.16400	3
1.16767	3
1.17133	3
1.17500	2
1.17867	2
1.18233	2
1.18600	2
1.18967	2
1.19333	1
1.19700	1
1.20067	2
1.20433	2
1.20800	2
1.21167	2
1.21533	2
1.21900	3
1.22267	3
1.22633	3
1.23000	3
1.23367	4
1.23733	4
1.24100	5
1.24467	5
1.24833	5
1.25200	5
1.25567	5
1.25933	5
1.26300	5
1.26667	4
1.27033	4
1.27400	3
1.27767	3
1.28133	3
1.28500	2
1.28867	2
1.29233	1
1.29600	1
1.29967	0
1.30333	0
1.30700	-0
1.31067	-0
1.31433	-1
1.31800	-1
1.32167	-1
1.32533	-1
1.32900	-1
1.33267	-0
1.33633	-0
1.34000	-0
1.34367	-0
1.34733	-1
1.35100	-1
1.35467	-1
1.35833	-1
1.36200	-1
1.36567	-2
1.36933	-2
1.37300	-2
1.37667	-2
1.38033	-2
1.38400	-2
1.38767	-2
1.39133	-2
1.39500	-2
1.39867	-2
1.40233	-2
1.40600	-2
1.40967	-2
1.41333	-2
1.41700	-2
1.42067	-1
1.42433	-1
1.42800	-1
1.43167	-0
1.43533	0
1.43900	0
1.44267	1
1.44633	1
1.45000	1
1.45367	1
1.45733	2
1.46100	2
1.46467	2
1.46833	3
1.47200	3
1.47567	3
1.47933	4
1.48300	4
1.48667	4
1.49033	4
1.49400	4
1.49767	4
1.50133	3
1.50500	3
1.50867	2
1.51233	1
1.51600	1
1.51967	1
1.52333	0
1.52700	0
1.53067	-0
1.53433	-0
1.53800	-0
1.54167	-0
1.54533	-0
1.54900	-0
1.55267	-0
1.55633	-0
1.56000	-0
1.56367	-1
1.56733	-1
1.57100	-1
1.57467	-1
1.57833	-1
1.58200	-1
1.58567	-1
1.58933	-2
1.59300	-2
1.59667	-3
1.60033	-3
1.60400	-4
1.60767	-5
1.61133	-6
1.61500	-8
1.61867	-10
1.62233	-12
1.62600	-15
1.62967	-18
1.63333	-21
1.63700	-25
1.64067	-28
1.64433	-31
1.64800	-35
1.65167	-39
1.65533	-42
1.65900	-46
1.66267	-50
1.66633	-55
1.67000	-60
1.67367	-65
1.67733	-70
1.68100	-75
1.68467	-80
1.68833	-84
1.69200	-88
1.69567	-91
1.69933	-93
1.70300	-95
1.70667	-97
1.71033	-99
1.71400	-100
1.71767	-102
1.72133	-102
1.72500	-103
1.72867	-104
1.73233	-104
1.73600	-104
1.73967	-104
1.74333	-105
1.74700	-105
1.75067	-106
1.75433	-107
1.75800	-108
1.76167	-109
1.76533	-109
1.76900	-109
1.77267	-109
1.77633	-108
1.78000	-108
1.78367	-107
1.78733	-107
1.79100	-107
1.79467	-107
1.79833	-107
1.80200	-108
1.80567	-108
1.80933	-109
1.81300	-110
1.81667	-111
1.82033	-112
1.82400	-112
1.82767	-112
1.83133	-112
1.83500	-112
1.83867	-111
1.84233	-111
1.84600	-112
1.84967	-112
1.85333	-112
1.85700	-112
1.86067	-112
1.86433	-112
1.86800	-112
1.87167	-112
1.87533	-113
1.87900	-113
1.88267	-113
1.88633	-112
1.89000	-112
1.89367	-112
1.89733	-112
1.90100	-112
1.90467	-111
1.90833	-111
1.91200	-110
1.91567	-110
1.91933	-110
1.92300	-110
1.92667	-110
1.93033	-110
1.93400	-110
1.93767	-110
1.94133	-109
1.94500	-108
1.94867	-107
1.95233	-106
1.95600	-106
1.95967	-106
1.96333	-106
1.96700	-107
1.97067	-107
1.97433	-107
1.97800	-107
1.98167	-107
1.98533	-107
1.98900	-106
1.99267	-105
1.99633	-104
2.00000	-104
2.00367	-104
2.00733	-104
2.01100	-103
2.01467	-103
2.01833	-103
2.02200	-103
2.02567	-102
2.02933	-102
2.03300	-102
2.03667	-101
2.04033	-101
2.04400	-100
2.04767	-100
2.05133	-100
2.05500	-100
2.05867	-100
2.06233	-99
2.06600	-99
2.06967	-98
2.07333	-98
2.07700	-98
2.08067	-98
2.08433	-99
2.08800	-98
2.09167	-98
2.09533	-97
2.09900	-97
2.10267	-96
2.10633	-96
2.11000	-96
2.11367	-96
2.11733	-96
2.12100	-96
2.12467	-96
2.12833	-96
2.13200	-96
2.13567	-95
2.13933	-94
2.14300	-93
2.14667	-93
2.15033	-92
2.15400	-92
2.15767	-91
2.16133	-90
2.16500	-90
2.16867	-90
2.17233	-90
2.17600	-90
2.17967	-90
2.18333	-90
2.18700	-89
2.19067	-89
2.19433	-88
2.19800	-87
2.20167	-86
2.20533	-86
2.20900	-85
2.21267	-85
2.21633	-85
2.22000	-85
2.22367	-85
2.22733	-85
2.23100	-85
2.23467	-85
2.23833	-85
2.24200	-85
2.24567	-84
2.24933	-84
2.25300	-83
2.25667	-82
2.26033	-82
2.26400	-81
2.26767	-81
2.27133	-80
2.27500	-80
2.27867	-81
2.28233	-81
2.28600	-81
2.28967	-81
2.29333	-81
2.29700	-81
2.30067	-81
2.30433	-81
2.30800	-81
2.31167	-81
2.31533	-80
2.31900	-78
2.32267	-77
2.32633	-75
2.33000	-75
2.33367	-74
2.33733	-73
2.34100	-73
2.34467	-73
2.34833	-74
2.35200	-74
2.35567	-73
2.35933	-73
2.36300	-72
2.36667	-71
2.37033	-69
2.37400	-66
2.37767	-63
2.38133	-60
2.38500	-56
2.38867	-52
2.39233	-47
2.39600	-43
2.39967	-38
2.40333	-33
2.40700	-28
2.41067	-24
2.41433	-20
2.41800	-17
2.42167	-14
2.42533	-12
2.42900	-10
2.43267	-9
2.43633	-7
2.44000	-6
2.44367	-5
2.44733	-4
2.45100	-4
2.45467	-4
2.45833	-3
2.46200	-3
2.46567	-2
2.46933	-1
2.47300	-0
2.47667	1
2.48033	2
2.48400	3
2.48767	5
2.49133	6
2.49500	7
2.49867	8
2.50233	8
2.50600	9
2.50967	10
2.51333	11
2.51700	12
2.52067	13
2.52433	14
2.52800	14
2.53167	14
2.53533	14
2.53900	14
2.54267	14
2.54633	14
2.55000	14
2.55367	14
2.55733	14
2.56100	15
2.56467	15
2.56833	16
2.57200	17
2.57567	17
2.57933	17
2.58300	17
2.58667	17
2.59033	17
2.59400	17
2.59767	16
2.60133	17
2.60500	17
2.60867	17
2.61233	17
2.61600	18
2.61967	18
2.62333	19
2.62700	19
2.63067	19
2.63433	19
2.63800	19
2.64167	20
2.64533	20
2.64900	20
2.65267	20
2.65633	21
2.66000	21
2.66367	21
2.66733	21
2.67100	21
2.67467	21
2.67833	22
2.68200	22
2.68567	23
2.68933	24
2.69300	24
2.69667	25
2.70033	26
2.70400	26
2.70767	26
2.71133	27
2.71500	27
2.71867	27
2.72233	26
2.72600	26
2.72967	26
2.73333	26
2.73700	26
2.74067	27
2.74433	27
2.74800	27
2.75167	27
2.75533	27
2.75900	28
2.76267	28
2.76633	28
2.77000	29
2.77367	29
2.77733	30
2.78100	30
2.78467	30
2.78833	30
2.79200	30
2.79567	29
2.79933	29
2.80300	28
2.80667	27
2.81033	27
2.81400	26
2.81767	26
2.82133	26
2.82500	25
2.82867	25
2.83233	25
2.83600	25
2.83967	25
2.84333	24
2.84700	22
2.85067	19
2.85433	13
2.85800	4
2.86167	-8
2.86533	-25
2.86900	-45
2.87267	-70
2.87633	-99
2.88000	-133
2.88367	-170
2.88733	-212
2.89100	-257
2.89467	-305
2.89833	-355
2.90200	-408
2.90567	-462
2.90933	-517
2.91300	-572
2.91667	-627
2.92033	-682
2.92400	-736
2.92767	-788
2.93133	-839
2.93500	-891
2.93867	-948
2.94233	-1006
2.94600	-1058
2.94967	-1092
2.95333	-1102
2.95700	-1086
2.96067	-1046
2.96433	-988
2.96800	-917
2.97167	-839
2.97533	-758
2.97900	-678
2.98267	-601
2.98633	-528
2.99000	-461
2.99367	-400
2.99733	-346
3.00100	-298
3.00467	-255
3.00833	-218
3.01200	-185
3.01567	-157
3.01933	-133
3.02300	-112
3.02667	-94
3.03033	-78
3.03400	-65
3.03767	-54
3.04133	-44
3.04500	-35
3.04867	-28
3.05233	-21
3.05600	-15
3.05967	-10
3.06333	-6
3.06700	-3
3.07067	0
3.07433	3
3.07800	5
3.08167	7
3.08533	8
3.08900	9
3.09267	11
3.09633	12
3.10000	12
3.10367	13
3.10733	14
3.11100	15
3.11467	15
3.11833	16
3.12200	16
3.12567	16
3.12933	17
3.13300	17
3.13667	17
3.14033	18
3.14400	18
3.14767	19
3.15133	19
3.15500	19
3.15867	20
3.16233	20
3.16600	21
3.16967	21
3.17333	21
3.17700	22
3.18067	22
3.18433	23
3.18800	24
3.19167	24
3.19533	24
3.19900	24
3.20267	24
3.20633	24
3.21000	24
3.21367	24
3.21733	24
3.22100	24
3.22467	24
3.22833	24
3.23200	24
3.23567	24
3.23933	24
3.24300	24
3.24667	25
3.25033	25
3.25400	25
3.25767	25
3.26133	25
3.26500	26
3.26867	26
3.27233	26
3.27600	27
3.27967	27
3.28333	28
3.28700	28
3.29067	28
3.29433	29
3.29800	29
3.30167	29
3.30533	30
3.30900	30
3.31267	30
3.31633	30
3.32000	30
3.32367	30
3.32733	30
3.33100	30
3.33467	30
3.33833	30
3.34200	29
3.34567	29
3.34933	29
3.35300	29
3.35667	29
3.36033	28
3.36400	28
3.36767	28
3.37133	28
3.37500	28
3.37867	28
3.38233	28
3.38600	28
3.38967	28
3.39333	28
3.39700	28
3.40067	28
3.40433	29
3.40800	29
3.41167	29
3.41533	30
3.41900	30
3.42267	30
3.42633	30
3.43000	30
3.43367	30
3.43733	29
3.44100	29
3.44467	29
3.44833	29
3.45200	29
3.45567	29
3.45933	29
3.46300	29
3.46667	30
3.47033	30
3.47400	30
3.47767	30
3.48133	30
3.48500	30
3.48867	29
3.49233	30
3.49600	30
3.49967	30
3.50333	30
3.50700	30
3.51067	30
3.51433	30
3.51800	30
3.52167	30
3.52533	30
3.52900	30
3.53267	29
3.53633	29
3.54000	29
3.54367	28
3.54733	28
3.55100	27
3.55467	27
3.55833	27
3.56200	27
3.56567	27
3.56933	27
3.57300	27
3.57667	27
3.58033	27
3.58400	27
3.58767	27
3.59133	27
3.59500	27
3.59867	27
3.60233	27
3.60600	27
3.60967	27
3.61333	28
3.61700	28
3.62067	28
3.62433	28
3.62800	29
3.63167	29
3.63533	29
3.63900	29
3.64267	29
3.64633	29
3.65000	29
3.65367	29
3.65733	28
3.66100	28
3.66467	28
3.66833	28
3.67200	28
3.67567	28
3.67933	28
3.68300	28
3.68667	28
3.69033	28
3.69400	28
3.69767	27
3.70133	27
3.70500	27
3.70867	27
3.71233	27
3.71600	28
3.71967	28
3.72333	28
3.72700	28
3.73067	28
3.73433	28
3.73800	28
3.74167	28
3.74533	29
3.74900	29
3.75267	29
3.75633	29
3.76000	29
3.76367	29
3.76733	29
3.77100	29
3.77467	29
3.77833	28
3.78200	28
3.78567	28
3.78933	28
3.79300	28
3.79667	27
3.80033	27
3.80400	27
3.80767	27
3.81133	27
3.81500	27
3.81867	27
3.82233	27
3.82600	27
3.82967	27
3.83333	27
3.83700	27
3.84067	27
3.84433	27
3.84800	28
3.85167	28
3.85533	28
3.85900	28
3.86267	28
3.86633	28
3.87000	28
3.87367	28
3.87733	28
3.88100	28
3.88467	28
3.88833	28
3.89200	28
3.89567	28
3.89933	28
3.90300	28
3.90667	28
3.91033	28
3.91400	28
3.91767	28
3.92133	28
3.92500	28
3.92867	28
3.93233	28
3.93600	28
3.93967	28
3.94333	28
3.94700	28
3.95067	28
3.95433	28
3.95800	28
3.96167	28
3.96533	29
3.96900	29
3.97267	29
3.97633	29
3.98000	29
3.98367	28
3.98733	28
3.99100	28
3.99467	28
3.99833	28

[Chromatogram (Ch3)]
Interval(msec)	220
# of Points	1091
Start Time(min)	0.002
End Time(min)	3.998
R.Time (min)	Intensity
0.00167	-0
0.00533	-1
0.00900	-1
0.01267	-1
0.01633	-0
0.02000	1
0.02367	1
0.02733	1
0.03100	2
0.03467	3
0.03833	2
0.04200	2
0.04567	3
0.04933	4
0.05300	5
0.05667	5
0.06033	4
0.06400	3
0.06767	2
0.07133	1
0.07500	-2
0.07867	-4
0.08233	-3
0.08600	-1
0.08967	1
0.09333	3
0.09700	3
0.10067	4
0.10433	3
0.10800	0
0.11167	-2
0.11533	-3
0.11900	-3
0.12267	-4
0.12633	-6
0.13000	-7
0.13367	-6
0.13733	-4
0.14100	-2
0.14467	-1
0.14833	-0
0.15200	-1
0.15567	-2
0.15933	1
0.16300	2
0.16667	1
0.17033	2
0.17400	-0
0.17767	-3
0.18133	-5
0.18500	-5
0.18867	-5
0.19233	-6
0.19600	-6
0.19967	-6
0.20333	-5
0.20700	-4
0.21067	-3
0.21433	-3
0.21800	-2
0.22167	-1
0.22533	-0
0.22900	0
0.23267	1
0.23633	2
0.24000	2
0.24367	2
0.24733	2
0.25100	3
0.25467	4
0.25833	2
0.26200	-0
0.26567	-1
0.26933	-0
0.27300	1
0.27667	3
0.28033	5
0.28400	5
0.28767	5
0.29133	5
0.29500	5
0.29867	6
0.30233	7
0.30600	8
0.30967	10
0.31333	12
0.31700	12
0.32067	10
0.32433	9
0.32800	9
0.33167	9
0.33533	9
0.33900	10
0.34267	10
0.34633	9
0.35000	7
0.35367	7
0.35733	7
0.36100	8
0.36467	9
0.36833	11
0.37200	12
0.37567	12
0.37933	11
0.38300	11
0.38667	10
0.39033	7
0.39400	5
0.39767	4
0.40133	2
0.40500	2
0.40867	3
0.41233	3
0.41600	2
0.41967	2
0.42333	3
0.42700	4
0.43067	5
0.43433	6
0.43800	7
0.44167	7
0.44533	8
0.44900	9
0.45267	9
0.45633	9
0.46000	9
0.46367	8
0.46733	6
0.47100	5
0.47467	5
0.47833	5
0.48200	8
0.48567	9
0.48933	9
0.49300	9
0.49667	9
0.50033	8
0.50400	4
0.50767	2
0.51133	1
0.51500	-1
0.51867	-1
0.52233	-0
0.52600	2
0.52967	3
0.53333	4
0.53700	5
0.54067	5
0.54433	4
0.54800	5
0.55167	6
0.55533	5
0.55900	4
0.56267	3
0.56633	2
0.57000	1
0.57367	1
0.57733	0
0.58100	1
0.58467	2
0.58833	3
0.59200	4
0.59567	4
0.59933	3
0.60300	2
0.60667	1
0.61033	-1
0.61400	-0
0.61767	0
0.62133	2
0.62500	3
0.62867	2
0.63233	0
0.63600	-1
0.63967	-2
0.64333	-2
0.64700	-1
0.65067	-1
0.65433	-1
0.65800	0
0.66167	-1
0.66533	-1
0.66900	-0
0.67267	0
0.67633	-0
0.68000	-0
0.68367	0
0.68733	-1
0.69100	-2
0.69467	-0
0.69833	-0
0.70200	-2
0.70567	-4
0.70933	-4
0.71300	-4
0.71667	-1
0.72033	-0
0.72400	-1
0.72767	-1
0.73133	1
0.73500	1
0.73867	-1
0.74233	-2
0.74600	-2
0.74967	-3
0.75333	-2
0.75700	-0
0.76067	-0
0.76433	-0
0.76800	-1
0.77167	-3
0.77533	-3
0.77900	-4
0.78267	-2
0.78633	-1
0.79000	-2
0.79367	-4
0.79733	-5
0.80100	-4
0.80467	-5
0.80833	-4
0.81200	-2
0.81567	-1
0.81933	-2
0.82300	-3
0.82667	-5
0.83033	-6
0.83400	-5
0.83767	-2
0.84133	0
0.84500	2
0.84867	3
0.85233	3
0.85600	4
0.85967	5
0.86333	3
0.86700	1
0.87067	-0
0.87433	-1
0.87800	-2
0.88167	-1
0.88533	-0
0.88900	-2
0.89267	-3
0.89633	-3
0.90000	-1
0.90367	-2
0.90733	-3
0.91100	-3
0.91467	-1
0.91833	-1
0.92200	0
0.92567	-1
0.92933	-2
0.93300	-1
0.93667	-1
0.94033	1
0.94400	2
0.94767	2
0.95133	2
0.95500	2
0.95867	2
0.96233	2
0.96600	3
0.96967	3
0.97333	1
0.97700	0
0.98067	-1
0.98433	-2
0.98800	-1
0.99167	0
0.99533	-0
0.99900	1
1.00267	0
1.00633	-2
1.01000	-5
1.01367	-5
1.01733	-4
1.02100	-2
1.02467	-2
1.02833	0
1.03200	1
1.03567	1
1.03933	-0
1.04300	1
1.04667	2
1.05033	1
1.05400	1
1.05767	-0
1.06133	-2
1.06500	-3
1.06867	-1
1.07233	1
1.07600	2
1.07967	5
1.08333	6
1.08700	6
1.09067	6
1.09433	6
1.09800	5
1.10167	5
1.10533	4
1.10900	4
1.11267	3
1.11633	2
1.12000	2
1.12367	2
1.12733	4
1.13100	5
1.13467	2
1.13833	1
1.14200	0
1.14567	3
1.14933	5
1.15300	4
1.15667	4
1.16033	4
1.16400	4
1.16767	3
1.17133	4
1.17500	5
1.17867	4
1.18233	3
1.18600	2
1.18967	4
1.19333	5
1.19700	5
1.20067	4
1.20433	4
1.20800	5
1.21167	6
1.21533	6
1.21900	7
1.22267	8
1.22633	9
1.23000	10
1.23367	10
1.23733	10
1.24100	11
1.24467	11
1.24833	11
1.25200	12
1.25567	10
1.25933	9
1.26300	10
1.26667	9
1.27033	8
1.27400	9
1.27767	8
1.28133	7
1.28500	5
1.28867	6
1.29233	6
1.29600	7
1.29967	9
1.30333	9
1.30700	9
1.31067	10
1.31433	11
1.31800	13
1.32167	14
1.32533	12
1.32900	10
1.33267	12
1.33633	13
1.34000	11
1.34367	11
1.34733	10
1.35100	10
1.35467	13
1.35833	13
1.36200	12
1.36567	12
1.36933	12
1.37300	12
1.37667	13
1.38033	14
1.38400	13
1.38767	11
1.39133	9
1.39500	7
1.39867	7
1.40233	10
1.40600	11
1.40967	12
1.41333	14
1.41700	14
1.42067	15
1.42433	15
1.42800	15
1.43167	16
1.43533	15
1.43900	14
1.44267	13
1.44633	13
1.45000	12
1.45367	11
1.45733	10
1.46100	9
1.46467	9
1.46833	7
1.47200	6
1.47567	9
1.47933	12
1.48300	12
1.48667	14
1.49033	15
1.49400	15
1.49767	13
1.50133	11
1.50500	13
1.50867	14
1.51233	14
1.51600	14
1.51967	13
1.52333	13
1.52700	14
1.53067	15
1.53433	16
1.53800	18
1.54167	17
1.54533	16
1.54900	15
1.55267	15
1.55633	14
1.56000	14
1.56367	15
1.56733	16
1.57100	16
1.57467	18
1.57833	19
1.58200	21
1.58567	21
1.58933	21
1.59300	21
1.59667	20
1.60033	18
1.60400	17
1.60767	16
1.61133	17
1.61500	17
1.61867	16
1.62233	16
1.62600	17
1.62967	17
1.63333	15
1.63700	17
1.64067	19
1.64433	20
1.64800	20
1.65167	19
1.65533	21
1.65900	22
1.66267	22
1.66633	23
1.67000	24
1.67367	25
1.67733	24
1.68100	23
1.68467	23
1.68833	25
1.69200	29
1.69567	31
1.69933	31
1.70300	29
1.70667	29
1.71033	29
1.71400	30
1.71767	31
1.72133	31
1.72500	31
1.72867	32
1.73233	32
1.73600	33
1.73967	34
1.74333	37
1.74700	37
1.75067	36
1.75433	36
1.75800	34
1.76167	33
1.76533	34
1.76900	36
1.77267	39
1.77633	41
1.78000	43
1.78367	43
1.78733	44
1.79100	45
1.79467	47
1.79833	47
1.80200	44
1.80567	43
1.80933	43
1.81300	44
1.81667	44
1.82033	46
1.82400	48
1.82767	49
1.83133	48
1.83500	49
1.83867	48
1.84233	47
1.84600	47
1.84967	47
1.85333	48
1.85700	51
1.86067	54
1.86433	55
1.86800	55
1.87167	54
1.87533	55
1.87900	57
1.88267	58
1.88633	59
1.89000	58
1.89367	59
1.89733	60
1.90100	60
1.90467	61
1.90833	64
1.91200	67
1.91567	68
1.91933	68
1.92300	69
1.92667	71
1.93033	71
1.93400	70
1.93767	71
1.94133	73
1.94500	75
1.94867	75
1.95233	74
1.95600	75
1.95967	75
1.96333	77
1.96700	76
1.97067	77
1.97433	79
1.97800	82
1.98167	86
1.98533	88
1.98900	88
1.99267	88
1.99633	87
2.00000	88
2.00367	90
2.00733	92
2.01100	93
2.01467	97
2.01833	100
2.02200	101
2.02567	102
2.02933	105
2.03300	107
2.03667	107
2.04033	108
2.04400	107
2.04767	106
2.05133	107
2.05500	108
2.05867	109
2.06233	111
2.06600	110
2.06967	109
2.07333	109
2.07700	109
2.08067	110
2.08433	112
2.08800	115
2.09167	117
2.09533	119
2.09900	121
2.10267	122
2.10633	123
2.11000	124
2.11367	126
2.11733	126
2.12100	128
2.12467	131
2.12833	133
2.13200	134
2.13567	135
2.13933	138
2.14300	140
2.14667	142
2.15033	145
2.15400	144
2.15767	143
2.16133	142
2.16500	144
2.16867	147
2.17233	150
2.17600	152
2.17967	155
2.18333	158
2.18700	156
2.19067	154
2.19433	155
2.19800	156
2.20167	159
2.20533	163
2.20900	165
2.21267	167
2.21633	167
2.22000	169
2.22367	171
2.22733	172
2.23100	173
2.23467	174
2.23833	173
2.24200	173
2.24567	172
2.24933	172
2.25300	174
2.25667	177
2.26033	179
2.26400	180
2.26767	182
2.27133	184
2.27500	186
2.27867	187
2.28233	187
2.28600	185
2.28967	187
2.29333	189
2.29700	192
2.30067	193
2.30433	194
2.30800	194
2.31167	194
2.31533	192
2.31900	192
2.32267	194
2.32633	199
2.33000	203
2.33367	205
2.33733	206
2.34100	205
2.34467	204
2.34833	204
2.35200	205
2.35567	205
2.35933	209
2.36300	213
2.36667	216
2.37033	217
2.37400	217
2.37767	218
2.38133	219
2.38500	218
2.38867	216
2.39233	218
2.39600	220
2.39967	222
2.40333	223
2.40700	224
2.41067	225
2.41433	227
2.41800	230
2.42167	232
2.42533	234
2.42900	236
2.43267	237
2.43633	238
2.44000	242
2.44367	295
2.44733	431
2.45100	583
2.45467	708
2.45833	778
2.46200	786
2.46567	761
2.46933	729
2.47300	706
2.47667	693
2.48033	678
2.48400	648
2.48767	605
2.49133	557
2.49500	515
2.49867	480
2.50233	458
2.50600	447
2.50967	443
2.51333	448
2.51700	464
2.52067	483
2.52433	499
2.52800	509
2.53167	508
2.53533	493
2.53900	471
2.54267	444
2.54633	414
2.55000	385
2.55367	359
2.55733	337
2.56100	321
2.56467	310
2.56833	303
2.57200	298
2.57567	295
2.57933	293
2.58300	293
2.58667	294
2.59033	297
2.59400	298
2.59767	299
2.60133	299
2.60500	301
2.60867	301
2.61233	300
2.61600	295
2.61967	288
2.62333	280
2.62700	271
2.63067	263
2.63433	255
2.63800	246
2.64167	236
2.64533	225
2.64900	216
2.65267	207
2.65633	198
2.66000	187
2.66367	176
2.66733	166
2.67100	159
2.67467	153
2.67833	147
2.68200	140
2.68567	136
2.68933	136
2.69300	136
2.69667	135
2.70033	134
2.70400	136
2.70767	138
2.71133	141
2.71500	144
2.71867	147
2.72233	150
2.72600	153
2.72967	156
2.73333	158
2.73700	160
2.74067	163
2.74433	168
2.74800	172
2.75167	174
2.75533	174
2.75900	174
2.76267	176
2.76633	178
2.77000	181
2.77367	184
2.77733	188
2.78100	193
2.78467	196
2.78833	199
2.79200	203
2.79567	207
2.79933	210
2.80300	211
2.80667	213
2.81033	217
2.81400	222
2.81767	230
2.82133	241
2.82500	258
2.82867	290
2.83233	351
2.83600	461
2.83967	643
2.84333	914
2.84700	1286
2.85067	1757
2.85433	2305
2.85800	2896
2.86167	3485
2.86533	4024
2.86900	4472
2.87267	4793
2.87633	4971
2.88000	5009
2.88367	4917
2.88733	4722
2.89100	4452
2.89467	4134
2.89833	3791
2.90200	3443
2.90567	3101
2.90933	2778
2.91300	2481
2.91667	2208
2.92033	1963
2.92400	1742
2.92767	1545
2.93133	1371
2.93500	1216
2.93867	1081
2.94233	964
2.94600	862
2.94967	772
2.95333	694
2.95700	626
2.96067	567
2.96433	516
2.96800	472
2.97167	436
2.97533	407
2.97900	381
2.98267	358
2.98633	337
2.99000	318
2.99367	302
2.99733	286
3.00100	272
3.00467	262
3.00833	254
3.01200	248
3.01567	243
3.01933	239
3.02300	230
3.02667	222
3.03033	217
3.03400	216
3.03767	213
3.04133	210
3.04500	209
3.04867	210
3.05233	209
3.05600	208
3.05967	206
3.06333	204
3.06700	202
3.07067	201
3.07433	201
3.07800	202
3.08167	201
3.08533	198
3.08900	195
3.09267	195
3.09633	197
3.10000	198
3.10367	197
3.10733	195
3.11100	196
3.11467	195
3.11833	195
3.12200	194
3.12567	195
3.12933	195
3.13300	195
3.13667	195
3.14033	195
3.14400	195
3.14767	196
3.15133	195
3.15500	196
3.15867	200
3.16233	205
3.16600	205
3.16967	205
3.17333	205
3.17700	208
3.18067	210
3.18433	211
3.18800	212
3.19167	212
3.19533	211
3.19900	212
3.20267	215
3.20633	216
3.21000	218
3.21367	219
3.21733	221
3.22100	224
3.22467	225
3.22833	225
3.23200	225
3.23567	228
3.23933	232
3.24300	234
3.24667	237
3.25033	239
3.25400	241
3.25767	242
3.26133	245
3.26500	248
3.26867	251
3.27233	253
3.27600	256
3.27967	258
3.28333	257
3.28700	256
3.29067	255
3.29433	257
3.29800	261
3.30167	265
3.30533	265
3.30900	267
3.31267	268
3.31633	269
3.32000	269
3.32367	272
3.32733	274
3.33100	274
3.33467	277
3.33833	279
3.34200	281
3.34567	284
3.34933	285
3.35300	289
3.35667	292
3.36033	292
3.36400	290
3.36767	291
3.37133	294
3.37500	297
3.37867	299
3.38233	299
3.38600	300
3.38967	300
3.39333	301
3.39700	301
3.40067	299
3.40433	299
3.40800	301
3.41167	303
3.41533	304
3.41900	303
3.42267	304
3.42633	307
3.43000	308
3.43367	307
3.43733	306
3.44100	305
3.44467	307
3.44833	307
3.45200	308
3.45567	311
3.45933	312
3.46300	311
3.46667	310
3.47033	309
3.47400	310
3.47767	312
3.48133	312
3.48500	310
3.48867	308
3.49233	307
3.49600	307
3.49967	308
3.50333	310
3.50700	313
3.51067	316
3.51433	318
3.51800	315
3.52167	313
3.52533	311
3.52900	310
3.53267	309
3.53633	308
3.54000	309
3.54367	311
3.54733	312
3.55100	314
3.55467	315
3.55833	316
3.56200	315
3.56567	313
3.56933	311
3.57300	309
3.57667	308
3.58033	308
3.58400	308
3.58767	308
3.59133	308
3.59500	308
3.59867	309
3.60233	308
3.60600	307
3.60967	306
3.61333	307
3.61700	307
3.62067	307
3.62433	306
3.62800	305
3.63167	305
3.63533	306
3.63900	305
3.64267	305
3.64633	304
3.65000	305
3.65367	306
3.65733	307
3.66100	306
3.66467	305
3.66833	305
3.67200	307
3.67567	307
3.67933	307
3.68300	306
3.68667	306
3.69033	304
3.69400	300
3.69767	295
3.70133	283
3.70500	268
3.70867	255
3.71233	249
3.71600	251
3.71967	257
3.72333	268
3.72700	284
3.73067	300
3.73433	315
3.73800	332
3.74167	351
3.74533	370
3.74900	391
3.75267	412
3.75633	434
3.76000	453
3.76367	471
3.76733	488
3.77100	504
3.77467	519
3.77833	532
3.78200	543
3.78567	553
3.78933	562
3.79300	568
3.79667	573
3.80033	579
3.80400	585
3.80767	591
3.81133	594
3.81500	596
3.81867	598
3.82233	600
3.82600	603
3.82967	605
3.83333	609
3.83700	613
3.84067	614
3.84433	615
3.84800	617
3.85167	616
3.85533	615
3.85900	614
3.86267	614
3.86633	614
3.87000	613
3.87367	613
3.87733	613
3.88100	612
3.88467	611
3.88833	611
3.89200	614
3.89567	614
3.89933	615
3.90300	617
3.90667	620
3.91033	620
3.91400	621
3.91767	621
3.92133	619
3.92500	616
3.92867	613
3.93233	611
3.93600	610
3.93967	610
3.94333	611
3.94700	611
3.95067	610
3.95433	610
3.95800	610
3.96167	611
3.96533	613
3.96900	612
3.97267	609
3.97633	606
3.98000	603
3.98367	602
3.98733	602
3.99100	601
3.99467	597
3.99833	591

[Status Trace (Column Oven Temperature)]
Interval(msec)	1000
# of Points	240
Start Time(min)	0.010
End Time(min)	3.993
Intensity Units	
Intensity Multiplier	1
R.Time (min)	Intensity
0.00970	35.05
0.02637	35.06
0.04303	35.04
0.05970	35.03
0.07637	35.02
0.09303	35.01
0.10970	35.03
0.12637	35.03
0.14303	35.04
0.15970	35.05
0.17637	35.06
0.19303	35.07
0.20970	35.06
0.22637	35.05
0.24303	35.04
0.25970	35.03
0.27637	35.03
0.29303	35.03
0.30970	35.03
0.32637	35.02
0.34303	35.01
0.35970	35.01
0.37637	35.00
0.39303	35.00
0.40970	34.99
0.42637	35.00
0.44303	35.00
0.45970	35.01
0.47637	35.01
0.49303	35.01
0.50970	35.00
0.52637	35.00
0.54303	34.99
0.55970	34.98
0.57637	34.98
0.59303	34.99
0.60970	34.99
0.62637	34.99
0.64303	35.00
0.65970	35.00
0.67637	34.99
0.69303	34.99
0.70970	34.99
0.72637	34.98
0.74303	34.98
0.75970	34.97
0.77637	34.98
0.79303	34.99
0.80970	35.00
0.82637	35.00
0.84303	35.01
0.85970	35.01
0.87637	35.00
0.89303	34.98
0.90970	34.99
0.92637	34.99
0.94303	35.00
0.95970	35.02
0.97637	35.03
0.99303	35.03
1.00970	35.04
1.02637	35.03
1.04303	35.03
1.05970	35.03
1.07637	35.03
1.09303	35.03
1.10970	35.03
1.12637	35.01
1.14303	35.01
1.15970	35.00
1.17637	35.00
1.19303	35.01
1.20970	35.00
1.22637	35.00
1.24303	34.98
1.25970	34.96
1.27637	34.96
1.29303	34.97
1.30970	34.98
1.32637	34.99
1.34303	34.99
1.35970	35.00
1.37637	35.02
1.39303	35.03
1.40970	35.02
1.42637	35.02
1.44303	35.01
1.45970	34.99
1.47637	34.98
1.49303	34.97
1.50970	34.97
1.52637	34.97
1.54303	34.98
1.55970	34.99
1.57637	34.98
1.59303	35.00
1.60970	35.07
1.62637	35.19
1.64303	35.39
1.65970	35.66
1.67637	36.01
1.69303	36.37
1.70970	36.72
1.72637	37.05
1.74303	37.38
1.75970	37.72
1.77637	38.04
1.79303	38.35
1.80970	38.71
1.82637	39.03
1.84303	39.37
1.85970	39.70
1.87637	40.04
1.89303	40.38
1.90970	40.70
1.92637	41.04
1.94303	41.36
1.95970	41.68
1.97637	42.02
1.99303	42.33
2.00970	42.65
2.02637	42.97
2.04303	43.30
2.05970	43.63
2.07637	43.95
2.09303	44.27
2.10970	44.61
2.12637	44.94
2.14303	45.26
2.15970	45.57
2.17637	45.92
2.19303	46.24
2.20970	46.57
2.22637	46.90
2.24303	47.23
2.25970	47.54
2.27637	47.89
2.29303	48.23
2.30970	48.55
2.32637	48.85
2.34303	49.19
2.35970	49.49
2.37637	49.68
2.39303	49.75
2.40970	49.71
2.42637	49.73
2.44303	49.73
2.45970	49.75
2.47637	49.74
2.49303	49.75
2.50970	49.75
2.52637	49.77
2.54303	49.79
2.55970	49.79
2.57637	49.80
2.59303	49.83
2.60970	49.83
2.62637	49.84
2.64303	49.84
2.65970	49.85
2.67637	49.86
2.69303	49.84
2.70970	49.85
2.72637	49.86
2.74303	49.86
2.75970	49.86
2.77637	49.85
2.79303	49.86
2.80970	49.88
2.82637	49.90
2.84303	49.91
2.85970	49.92
2.87637	49.92
2.89303	49.92
2.90970	49.92
2.92637	49.93
2.94303	49.93
2.95970	49.95
2.97637	49.97
2.99303	49.99
3.00970	50.00
3.02637	50.02
3.04303	50.04
3.05970	50.04
3.07637	50.05
3.09303	50.05
3.10970	50.06
3.12637	50.07
3.14303	50.08
3.15970	50.08
3.17637	50.07
3.19303	50.07
3.20970	50.09
3.22637	50.10
3.24303	50.11
3.25970	50.11
3.27637	50.09
3.29303	50.08
3.30970	50.06
3.32637	50.06
3.34303	50.06
3.35970	50.05
3.37637	50.05
3.39303	50.05
3.40970	50.04
3.42637	50.04
3.44303	50.03
3.45970	50.02
3.47637	50.02
3.49303	50.02
3.50970	50.02
3.52637	50.03
3.54303	50.05
3.55970	50.06
3.57637	50.06
3.59303	50.06
3.60970	50.06
3.62637	50.05
3.64303	50.05
3.65970	50.05
3.67637	50.05
3.69303	50.05
3.70970	50.05
3.72637	50.06
3.74303	50.05
3.75970	50.04
3.77637	50.05
3.79303	50.06
3.80970	50.07
3.82637	50.08
3.84303	50.07
3.85970	50.07
3.87637	50.07
3.89303	50.07
3.90970	50.08
3.92637	50.08
3.94303	50.08
3.95970	50.08
3.97637	50.09
3.99303	50.09

[Status Trace (Injection Unit Temperature)]
Interval(msec)	1000
# of Points	240
Start Time(min)	0.010
End Time(min)	3.993
Intensity Units	
Intensity Multiplier	1
R.Time (min)	Intensity
0.00970	99.98
0.02637	99.98
0.04303	99.97
0.05970	99.97
0.07637	99.98
0.09303	99.98
0.10970	99.98
0.12637	99.98
0.14303	99.98
0.15970	99.98
0.17637	99.98
0.19303	99.98
0.20970	99.99
0.22637	99.98
0.24303	99.98
0.25970	99.98
0.27637	99.98
0.29303	99.99
0.30970	99.98
0.32637	99.98
0.34303	99.98
0.35970	99.99
0.37637	99.98
0.39303	99.98
0.40970	99.99
0.42637	99.98
0.44303	99.98
0.45970	99.98
0.47637	99.98
0.49303	99.98
0.50970	99.98
0.52637	99.98
0.54303	99.98
0.55970	99.98
0.57637	99.98
0.59303	99.98
0.60970	99.98
0.62637	99.98
0.64303	99.98
0.65970	99.98
0.67637	99.98
0.69303	99.98
0.70970	99.98
0.72637	99.98
0.74303	99.98
0.75970	99.98
0.77637	99.98
0.79303	99.97
0.80970	99.98
0.82637	99.97
0.84303	99.99
0.85970	99.98
0.87637	99.98
0.89303	99.98
0.90970	99.98
0.92637	99.98
0.94303	99.97
0.95970	99.98
0.97637	99.98
0.99303	99.98
1.00970	99.98
1.02637	99.98
1.04303	99.98
1.05970	99.98
1.07637	99.98
1.09303	99.98
1.10970	99.98
1.12637	99.98
1.14303	99.98
1.15970	99.98
1.17637	99.98
1.19303	99.98
1.20970	99.98
1.22637	99.98
1.24303	99.98
1.25970	99.98
1.27637	99.98
1.29303	99.98
1.30970	99.98
1.32637	99.97
1.34303	99.98
1.35970	99.98
1.37637	99.98
1.39303	99.98
1.40970	99.98
1.42637	99.98
1.44303	99.98
1.45970	99.98
1.47637	99.98
1.49303	99.98
1.50970	99.98
1.52637	99.98
1.54303	99.97
1.55970	99.98
1.57637	99.98
1.59303	99.98
1.60970	99.98
1.62637	99.98
1.64303	99.98
1.65970	99.98
1.67637	99.98
1.69303	99.98
1.70970	99.98
1.72637	99.99
1.74303	99.98
1.75970	99.97
1.77637	99.98
1.79303	99.98
1.80970	99.98
1.82637	99.98
1.84303	99.97
1.85970	99.98
1.87637	99.98
1.89303	99.98
1.90970	99.98
1.92637	99.97
1.94303	99.98
1.95970	99.97
1.97637	99.98
1.99303	99.98
2.00970	99.98
2.02637	99.97
2.04303	99.97
2.05970	99.97
2.07637	99.98
2.09303	99.97
2.10970	99.97
2.12637	99.97
2.14303	99.97
2.15970	99.97
2.17637	99.97
2.19303	99.97
2.20970	99.97
2.22637	99.97
2.24303	99.97
2.25970	99.97
2.27637	99.97
2.29303	99.97
2.30970	99.96
2.32637	99.98
2.34303	99.97
2.35970	99.97
2.37637	99.97
2.39303	99.97
2.40970	99.97
2.42637	99.97
2.44303	99.97
2.45970	99.97
2.47637	99.97
2.49303	99.97
2.50970	99.97
2.52637	99.97
2.54303	99.98
2.55970	99.98
2.57637	99.98
2.59303	99.98
2.60970	99.97
2.62637	99.98
2.64303	99.98
2.65970	99.98
2.67637	99.98
2.69303	99.98
2.70970	99.98
2.72637	99.98
2.74303	99.99
2.75970	99.99
2.77637	99.99
2.79303	99.99
2.80970	99.99
2.82637	99.99
2.84303	99.99
2.85970	100.00
2.87637	99.99
2.89303	100.00
2.90970	100.00
2.92637	100.00
2.94303	100.00
2.95970	100.00
2.97637	100.00
2.99303	100.00
3.00970	100.00
3.02637	100.00
3.04303	100.00
3.05970	100.01
3.07637	100.01
3.09303	100.00
3.10970	100.01
3.12637	100.01
3.14303	100.01
3.15970	100.01
3.17637	100.00
3.19303	100.01
3.20970	100.01
3.22637	100.01
3.24303	100.01
3.25970	100.01
3.27637	100.01
3.29303	100.01
3.30970	100.01
3.32637	100.02
3.34303	100.02
3.35970	100.01
3.37637	100.02
3.39303	100.01
3.40970	100.02
3.42637	100.02
3.44303	100.02
3.45970	100.02
3.47637	100.02
3.49303	100.02
3.50970	100.03
3.52637	100.02
3.54303	100.02
3.55970	100.02
3.57637	100.03
3.59303	100.02
3.60970	100.03
3.62637	100.03
3.64303	100.03
3.65970	100.03
3.67637	100.03
3.69303	100.03
3.70970	100.03
3.72637	100.03
3.74303	100.03
3.75970	100.03
3.77637	100.03
3.79303	100.04
3.80970	100.03
3.82637	100.04
3.84303	100.04
3.85970	100.04
3.87637	100.04
3.89303	100.04
3.90970	100.04
3.92637	100.04
3.94303	100.04
3.95970	100.04
3.97637	100.04
3.99303	100.05

[Status Trace (Carrier Gas Pressure)]
Interval(msec)	1000
# of Points	240
Start Time(min)	0.010
End Time(min)	3.993
Intensity Units	
Intensity Multiplier	1
R.Time (min)	Intensity
0.00970	58.00
0.02637	55.21
0.04303	57.34
0.05970	59.49
0.07637	59.27
0.09303	58.03
0.10970	57.99
0.12637	58.01
0.14303	58.01
0.15970	58.01
0.17637	58.00
0.19303	58.00
0.20970	58.00
0.22637	58.00
0.24303	58.00
0.25970	58.00
0.27637	58.00
0.29303	58.00
0.30970	58.00
0.32637	58.00
0.34303	58.00
0.35970	58.00
0.37637	58.00
0.39303	58.00
0.40970	58.00
0.42637	58.00
0.44303	58.00
0.45970	58.00
0.47637	58.00
0.49303	58.00
0.50970	58.00
0.52637	58.00
0.54303	58.00
0.55970	58.00
0.57637	58.00
0.59303	58.00
0.60970	58.00
0.62637	58.00
0.64303	58.00
0.65970	58.00
0.67637	58.00
0.69303	58.00
0.70970	58.00
0.72637	58.00
0.74303	58.00
0.75970	58.00
0.77637	58.00
0.79303	58.00
0.80970	58.00
0.82637	58.00
0.84303	58.00
0.85970	58.00
0.87637	58.00
0.89303	58.00
0.90970	58.00
0.92637	58.00
0.94303	58.00
0.95970	58.00
0.97637	58.00
0.99303	58.00
1.00970	58.00
1.02637	58.00
1.04303	58.00
1.05970	58.00
1.07637	58.00
1.09303	58.00
1.10970	58.00
1.12637	58.00
1.14303	58.00
1.15970	58.00
1.17637	58.00
1.19303	58.00
1.20970	58.00
1.22637	58.00
1.24303	58.00
1.25970	58.00
1.27637	58.00
1.29303	58.00
1.30970	58.00
1.32637	58.00
1.34303	58.00
1.35970	58.00
1.37637	58.00
1.39303	58.00
1.40970	58.00
1.42637	58.00
1.44303	58.00
1.45970	58.00
1.47637	58.00
1.49303	58.00
1.50970	58.00
1.52637	58.00
1.54303	58.00
1.55970	58.00
1.57637	58.00
1.59303	58.00
1.60970	58.00
1.62637	58.00
1.64303	58.00
1.65970	58.00
1.67637	58.01
1.69303	58.00
1.70970	58.00
1.72637	58.00
1.74303	58.00
1.75970	58.00
1.77637	58.00
1.79303	58.00
1.80970	58.00
1.82637	58.00
1.84303	58.00
1.85970	58.00
1.87637	58.00
1.89303	58.00
1.90970	58.00
1.92637	58.00
1.94303	58.00
1.95970	58.00
1.97637	58.00
1.99303	58.00
2.00970	58.00
2.02637	58.00
2.04303	58.00
2.05970	58.00
2.07637	58.00
2.09303	58.00
2.10970	58.00
2.12637	58.00
2.14303	58.00
2.15970	58.00
2.17637	58.00
2.19303	58.00
2.20970	58.00
2.22637	58.00
2.24303	58.00
2.25970	58.00
2.27637	58.00
2.29303	58.00
2.30970	58.00
2.32637	58.00
2.34303	58.00
2.35970	58.00
2.37637	57.99
2.39303	57.99
2.40970	57.99
2.42637	58.00
2.44303	58.00
2.45970	58.00
2.47637	58.00
2.49303	58.00
2.50970	57.99
2.52637	57.99
2.54303	58.00
2.55970	58.00
2.57637	58.00
2.59303	58.00
2.60970	58.00
2.62637	58.00
2.64303	58.00
2.65970	58.00
2.67637	58.00
2.69303	58.00
2.70970	58.00
2.72637	58.00
2.74303	58.00
2.75970	58.00
2.77637	58.00
2.79303	58.00
2.80970	58.00
2.82637	58.00
2.84303	58.00
2.85970	58.00
2.87637	58.00
2.89303	58.00
2.90970	58.00
2.92637	58.00
2.94303	58.00
2.95970	58.00
2.97637	58.00
2.99303	58.00
3.00970	58.00
3.02637	58.00
3.04303	58.00
3.05970	58.00
3.07637	58.00
3.09303	58.00
3.10970	58.00
3.12637	58.00
3.14303	58.00
3.15970	58.00
3.17637	58.00
3.19303	58.00
3.20970	58.00
3.22637	58.00
3.24303	58.00
3.25970	58.00
3.27637	58.00
3.29303	58.00
3.30970	58.00
3.32637	58.00
3.34303	58.00
3.35970	58.00
3.37637	58.00
3.39303	58.00
3.40970	58.00
3.42637	58.00
3.44303	58.00
3.45970	58.00
3.47637	58.00
3.49303	58.00
3.50970	58.00
3.52637	58.00
3.54303	58.00
3.55970	58.00
3.57637	58.00
3.59303	58.00
3.60970	58.00
3.62637	58.00
3.64303	58.00
3.65970	58.00
3.67637	58.00
3.69303	58.00
3.70970	58.00
3.72637	58.00
3.74303	58.00
3.75970	58.00
3.77637	58.00
3.79303	58.00
3.80970	58.00
3.82637	58.00
3.84303	58.00
3.85970	58.00
3.87637	58.00
3.89303	58.00
3.90970	58.00
3.92637	58.00
3.94303	58.00
3.95970	58.00
3.97637	58.00
3.99303	58.00

[Status Trace (Carrier Gas Flow)]
Interval(msec)	1000
# of Points	240
Start Time(min)	0.010
End Time(min)	3.993
Intensity Units	
Intensity Multiplier	1
R.Time (min)	Intensity
0.00970	34.52
0.02637	34.53
0.04303	34.54
0.05970	34.54
0.07637	34.50
0.09303	34.51
0.10970	34.52
0.12637	34.53
0.14303	34.51
0.15970	34.52
0.17637	34.52
0.19303	34.52
0.20970	34.53
0.22637	34.52
0.24303	34.52
0.25970	34.52
0.27637	34.52
0.29303	34.52
0.30970	34.52
0.32637	34.52
0.34303	34.53
0.35970	34.51
0.37637	34.52
0.39303	34.52
0.40970	34.52
0.42637	34.52
0.44303	34.52
0.45970	34.51
0.47637	34.52
0.49303	34.51
0.50970	34.52
0.52637	34.52
0.54303	34.52
0.55970	34.51
0.57637	34.52
0.59303	34.52
0.60970	34.51
0.62637	34.52
0.64303	34.52
0.65970	34.52
0.67637	34.52
0.69303	34.52
0.70970	34.52
0.72637	34.52
0.74303	34.52
0.75970	34.52
0.77637	34.52
0.79303	34.52
0.80970	34.52
0.82637	34.52
0.84303	34.52
0.85970	34.52
0.87637	34.52
0.89303	34.52
0.90970	34.52
0.92637	34.52
0.94303	34.52
0.95970	34.52
0.97637	34.52
0.99303	34.52
1.00970	34.52
1.02637	34.52
1.04303	34.52
1.05970	34.52
1.07637	34.52
1.09303	34.52
1.10970	34.52
1.12637	34.52
1.14303	34.52
1.15970	34.52
1.17637	34.52
1.19303	34.52
1.20970	34.52
1.22637	34.52
1.24303	34.52
1.25970	34.52
1.27637	34.52
1.29303	34.52
1.30970	34.52
1.32637	34.52
1.34303	34.52
1.35970	34.52
1.37637	34.52
1.39303	34.52
1.40970	34.52
1.42637	34.52
1.44303	34.52
1.45970	34.52
1.47637	34.53
1.49303	34.52
1.50970	34.52
1.52637	34.52
1.54303	34.52
1.55970	34.52
1.57637	34.52
1.59303	34.52
1.60970	34.52
1.62637	34.52
1.64303	34.52
1.65970	34.52
1.67637	34.52
1.69303	34.52
1.70970	34.52
1.72637	34.52
1.74303	34.52
1.75970	34.52
1.77637	34.52
1.79303	34.52
1.80970	34.52
1.82637	34.51
1.84303	34.52
1.85970	34.52
1.87637	34.52
1.89303	34.52
1.90970	34.52
1.92637	34.52
1.94303	34.52
1.95970	34.52
1.97637	34.51
1.99303	34.51
2.00970	34.52
2.02637	34.52
2.04303	34.52
2.05970	34.52
2.07637	34.52
2.09303	34.52
2.10970	34.52
2.12637	34.52
2.14303	34.52
2.15970	34.52
2.17637	34.52
2.19303	34.52
2.20970	34.52
2.22637	34.51
2.24303	34.52
2.25970	34.52
2.27637	34.51
2.29303	34.52
2.30970	34.52
2.32637	34.52
2.34303	34.52
2.35970	34.52
2.37637	34.52
2.39303	34.52
2.40970	34.52
2.42637	34.52
2.44303	34.51
2.45970	34.52
2.47637	34.52
2.49303	34.52
2.50970	34.51
2.52637	34.52
2.54303	34.52
2.55970	34.52
2.57637	34.51
2.59303	34.52
2.60970	34.52
2.62637	34.52
2.64303	34.52
2.65970	34.52
2.67637	34.52
2.69303	34.52
2.70970	34.52
2.72637	34.52
2.74303	34.52
2.75970	34.52
2.77637	34.52
2.79303	34.52
2.80970	34.52
2.82637	34.52
2.84303	34.52
2.85970	34.52
2.87637	34.52
2.89303	34.52
2.90970	34.52
2.92637	34.52
2.94303	34.52
2.95970	34.52
2.97637	34.52
2.99303	34.51
3.00970	34.52
3.02637	34.52
3.04303	34.52
3.05970	34.52
3.07637	34.52
3.09303	34.52
3.10970	34.52
3.12637	34.51
3.14303	34.52
3.15970	34.52
3.17637	34.52
3.19303	34.52
3.20970	34.52
3.22637	34.52
3.24303	34.52
3.25970	34.52
3.27637	34.52
3.29303	34.51
3.30970	34.52
3.32637	34.51
3.34303	34.52
3.35970	34.52
3.37637	34.52
3.39303	34.52
3.40970	34.51
3.42637	34.52
3.44303	34.52
3.45970	34.52
3.47637	34.52
3.49303	34.51
3.50970	34.52
3.52637	34.52
3.54303	34.52
3.55970	34.52
3.57637	34.52
3.59303	34.52
3.60970	34.52
3.62637	34.52
3.64303	34.52
3.65970	34.52
3.67637	34.52
3.69303	34.51
3.70970	34.52
3.72637	34.51
3.74303	34.52
3.75970	34.51
3.77637	34.52
3.79303	34.51
3.80970	34.52
3.82637	34.51
3.84303	34.52
3.85970	34.51
3.87637	34.52
3.89303	34.52
3.90970	34.53
3.92637	34.52
3.94303	34.52
3.95970	34.52
3.97637	34.52
3.99303	34.53

[Status Trace (Column Flow)]
Interval(msec)	1000
# of Points	240
Start Time(min)	0.010
End Time(min)	3.993
Intensity Units	
Intensity Multiplier	1
R.Time (min)	Intensity
0.00970	5.53
0.02637	5.21
0.04303	5.45
0.05970	5.71
0.07637	5.68
0.09303	5.53
0.10970	5.53
0.12637	5.53
0.14303	5.53
0.15970	5.53
0.17637	5.53
0.19303	5.53
0.20970	5.53
0.22637	5.53
0.24303	5.53
0.25970	5.53
0.27637	5.53
0.29303	5.53
0.30970	5.53
0.32637	5.53
0.34303	5.53
0.35970	5.53
0.37637	5.53
0.39303	5.53
0.40970	5.53
0.42637	5.53
0.44303	5.53
0.45970	5.53
0.47637	5.53
0.49303	5.53
0.50970	5.53
0.52637	5.53
0.54303	5.53
0.55970	5.53
0.57637	5.53
0.59303	5.53
0.60970	5.53
0.62637	5.53
0.64303	5.53
0.65970	5.53
0.67637	5.53
0.69303	5.53
0.70970	5.53
0.72637	5.53
0.74303	5.53
0.75970	5.53
0.77637	5.53
0.79303	5.53
0.80970	5.53
0.82637	5.53
0.84303	5.53
0.85970	5.53
0.87637	5.53
0.89303	5.53
0.90970	5.53
0.92637	5.53
0.94303	5.53
0.95970	5.53
0.97637	5.53
0.99303	5.53
1.00970	5.53
1.02637	5.53
1.04303	5.53
1.05970	5.53
1.07637	5.53
1.09303	5.53
1.10970	5.53
1.12637	5.53
1.14303	5.53
1.15970	5.53
1.17637	5.53
1.19303	5.53
1.20970	5.53
1.22637	5.53
1.24303	5.53
1.25970	5.53
1.27637	5.53
1.29303	5.53
1.30970	5.53
1.32637	5.53
1.34303	5.53
1.35970	5.53
1.37637	5.53
1.39303	5.53
1.40970	5.53
1.42637	5.53
1.44303	5.53
1.45970	5.53
1.47637	5.53
1.49303	5.53
1.50970	5.53
1.52637	5.53
1.54303	5.53
1.55970	5.53
1.57637	5.53
1.59303	5.53
1.60970	5.53
1.62637	5.53
1.64303	5.52
1.65970	5.51
1.67637	5.50
1.69303	5.49
1.70970	5.48
1.72637	5.47
1.74303	5.46
1.75970	5.45
1.77637	5.44
1.79303	5.43
1.80970	5.42
1.82637	5.41
1.84303	5.40
1.85970	5.39
1.87637	5.38
1.89303	5.37
1.90970	5.36
1.92637	5.35
1.94303	5.34
1.95970	5.33
1.97637	5.32
1.99303	5.31
2.00970	5.30
2.02637	5.29
2.04303	5.28
2.05970	5.27
2.07637	5.26
2.09303	5.25
2.10970	5.24
2.12637	5.23
2.14303	5.22
2.15970	5.21
2.17637	5.20
2.19303	5.19
2.20970	5.18
2.22637	5.17
2.24303	5.17
2.25970	5.16
2.27637	5.15
2.29303	5.14
2.30970	5.13
2.32637	5.12
2.34303	5.11
2.35970	5.10
2.37637	5.10
2.39303	5.09
2.40970	5.09
2.42637	5.09
2.44303	5.09
2.45970	5.09
2.47637	5.09
2.49303	5.09
2.50970	5.09
2.52637	5.09
2.54303	5.09
2.55970	5.09
2.57637	5.09
2.59303	5.09
2.60970	5.09
2.62637	5.09
2.64303	5.09
2.65970	5.09
2.67637	5.09
2.69303	5.09
2.70970	5.09
2.72637	5.09
2.74303	5.09
2.75970	5.09
2.77637	5.09
2.79303	5.09
2.80970	5.09
2.82637	5.09
2.84303	5.09
2.85970	5.09
2.87637	5.09
2.89303	5.09
2.90970	5.09
2.92637	5.09
2.94303	5.09
2.95970	5.09
2.97637	5.09
2.99303	5.09
3.00970	5.09
3.02637	5.09
3.04303	5.09
3.05970	5.09
3.07637	5.09
3.09303	5.09
3.10970	5.09
3.12637	5.09
3.14303	5.09
3.15970	5.09
3.17637	5.09
3.19303	5.09
3.20970	5.09
3.22637	5.08
3.24303	5.08
3.25970	5.08
3.27637	5.08
3.29303	5.09
3.30970	5.09
3.32637	5.09
3.34303	5.09
3.35970	5.09
3.37637	5.09
3.39303	5.09
3.40970	5.09
3.42637	5.09
3.44303	5.09
3.45970	5.09
3.47637	5.09
3.49303	5.09
3.50970	5.09
3.52637	5.09
3.54303	5.09
3.55970	5.09
3.57637	5.09
3.59303	5.09
3.60970	5.09
3.62637	5.09
3.64303	5.09
3.65970	5.09
3.67637	5.09
3.69303	5.09
3.70970	5.09
3.72637	5.09
3.74303	5.09
3.75970	5.09
3.77637	5.09
3.79303	5.09
3.80970	5.09
3.82637	5.09
3.84303	5.09
3.85970	5.09
3.87637	5.09
3.89303	5.09
3.90970	5.09
3.92637	5.09
3.94303	5.09
3.95970	5.09
3.97637	5.08
3.99303	5.08

[Status Trace (Linear Velocity)]
Interval(msec)	1000
# of Points	240
Start Time(min)	0.010
End Time(min)	3.993
Intensity Units	
Intensity Multiplier	1
R.Time (min)	Intensity
0.00970	39.01
0.02637	37.18
0.04303	38.59
0.05970	39.99
0.07637	39.85
0.09303	39.04
0.10970	39.01
0.12637	39.02
0.14303	39.02
0.15970	39.02
0.17637	39.02
0.19303	39.01
0.20970	39.01
0.22637	39.02
0.24303	39.02
0.25970	39.02
0.27637	39.02
0.29303	39.02
0.30970	39.02
0.32637	39.02
0.34303	39.02
0.35970	39.02
0.37637	39.02
0.39303	39.02
0.40970	39.02
0.42637	39.02
0.44303	39.02
0.45970	39.02
0.47637	39.02
0.49303	39.02
0.50970	39.02
0.52637	39.02
0.54303	39.02
0.55970	39.02
0.57637	39.02
0.59303	39.02
0.60970	39.02
0.62637	39.02
0.64303	39.02
0.65970	39.02
0.67637	39.02
0.69303	39.02
0.70970	39.02
0.72637	39.02
0.74303	39.02
0.75970	39.02
0.77637	39.02
0.79303	39.02
0.80970	39.02
0.82637	39.02
0.84303	39.02
0.85970	39.02
0.87637	39.02
0.89303	39.02
0.90970	39.02
0.92637	39.02
0.94303	39.02
0.95970	39.02
0.97637	39.02
0.99303	39.01
1.00970	39.02
1.02637	39.02
1.04303	39.02
1.05970	39.02
1.07637	39.02
1.09303	39.02
1.10970	39.02
1.12637	39.02
1.14303	39.02
1.15970	39.02
1.17637	39.02
1.19303	39.02
1.20970	39.02
1.22637	39.02
1.24303	39.02
1.25970	39.02
1.27637	39.02
1.29303	39.02
1.30970	39.02
1.32637	39.02
1.34303	39.02
1.35970	39.02
1.37637	39.02
1.39303	39.02
1.40970	39.02
1.42637	39.02
1.44303	39.02
1.45970	39.02
1.47637	39.02
1.49303	39.02
1.50970	39.02
1.52637	39.02
1.54303	39.02
1.55970	39.02
1.57637	39.02
1.59303	39.02
1.60970	39.01
1.62637	39.00
1.64303	38.98
1.65970	38.96
1.67637	38.93
1.69303	38.89
1.70970	38.85
1.72637	38.82
1.74303	38.79
1.75970	38.76
1.77637	38.73
1.79303	38.70
1.80970	38.67
1.82637	38.63
1.84303	38.60
1.85970	38.57
1.87637	38.54
1.89303	38.51
1.90970	38.48
1.92637	38.45
1.94303	38.42
1.95970	38.39
1.97637	38.36
1.99303	38.33
2.00970	38.30
2.02637	38.27
2.04303	38.24
2.05970	38.21
2.07637	38.18
2.09303	38.15
2.10970	38.12
2.12637	38.09
2.14303	38.06
2.15970	38.03
2.17637	38.00
2.19303	37.97
2.20970	37.94
2.22637	37.91
2.24303	37.88
2.25970	37.85
2.27637	37.82
2.29303	37.79
2.30970	37.76
2.32637	37.74
2.34303	37.71
2.35970	37.68
2.37637	37.66
2.39303	37.65
2.40970	37.66
2.42637	37.66
2.44303	37.66
2.45970	37.66
2.47637	37.66
2.49303	37.66
2.50970	37.65
2.52637	37.65
2.54303	37.65
2.55970	37.65
2.57637	37.65
2.59303	37.65
2.60970	37.65
2.62637	37.65
2.64303	37.65
2.65970	37.65
2.67637	37.65
2.69303	37.65
2.70970	37.65
2.72637	37.65
2.74303	37.65
2.75970	37.65
2.77637	37.65
2.79303	37.65
2.80970	37.65
2.82637	37.64
2.84303	37.64
2.85970	37.64
2.87637	37.64
2.89303	37.64
2.90970	37.64
2.92637	37.64
2.94303	37.64
2.95970	37.64
2.97637	37.64
2.99303	37.64
3.00970	37.63
3.02637	37.63
3.04303	37.63
3.05970	37.63
3.07637	37.63
3.09303	37.63
3.10970	37.63
3.12637	37.63
3.14303	37.63
3.15970	37.63
3.17637	37.63
3.19303	37.63
3.20970	37.63
3.22637	37.63
3.24303	37.62
3.25970	37.63
3.27637	37.63
3.29303	37.63
3.30970	37.63
3.32637	37.63
3.34303	37.63
3.35970	37.63
3.37637	37.63
3.39303	37.63
3.40970	37.63
3.42637	37.63
3.44303	37.63
3.45970	37.63
3.47637	37.63
3.49303	37.63
3.50970	37.63
3.52637	37.63
3.54303	37.63
3.55970	37.63
3.57637	37.63
3.59303	37.63
3.60970	37.63
3.62637	37.63
3.64303	37.63
3.65970	37.63
3.67637	37.63
3.69303	37.63
3.70970	37.63
3.72637	37.63
3.74303	37.63
3.75970	37.63
3.77637	37.63
3.79303	37.63
3.80970	37.63
3.82637	37.63
3.84303	37.63
3.85970	37.63
3.87637	37.63
3.89303	37.63
3.90970	37.63
3.92637	37.63
3.94303	37.63
3.95970	37.63
3.97637	37.63
3.99303	37.63

