[Header]
Application Name	LabSolutions
Version	5.110
Data File Name	C:\Users\User\Desktop\GC Analyses\Jack\Nachusa Grasslands Sampling\T3 Timepoint July 12th\T3_07122022_063.gcd
Output Date	3/14/2023
Output Time	3:43:34 PM

[File Information]
Type	Data File
Generated	3/13/2023 9:30:43 PM
Generated by	System Administrator
Modified	3/13/2023 9:37:37 PM
Modified by	System Administrator

[Sample Information]
Operator Name	System Administrator
Acquired	3/13/2023 9:33:36 PM
Sample Type	0:Unknown
Level	0
Sample Name	063
Sample ID	063
ISTD Amount1	1
ISTD Amount2	1
ISTD Amount3	1
ISTD Amount4	1
ISTD Amount5	1
ISTD Amount6	1
ISTD Amount7	1
ISTD Amount8	1
ISTD Amount9	1
ISTD Amount10	1
ISTD Amount11	1
ISTD Amount12	1
ISTD Amount13	1
ISTD Amount14	1
ISTD Amount15	1
ISTD Amount16	1
ISTD Amount17	1
ISTD Amount18	1
ISTD Amount19	1
ISTD Amount20	1
ISTD Amount21	1
ISTD Amount22	1
ISTD Amount23	1
ISTD Amount24	1
ISTD Amount25	1
ISTD Amount26	1
ISTD Amount27	1
ISTD Amount28	1
ISTD Amount29	1
ISTD Amount30	1
ISTD Amount31	1
ISTD Amount32	1
Sample Amount	1
Dilution Factor	1
Vial#	62
Injection Volume	1
Injection Count	1
Bar Code	

[Original Files]
Data File	C:\Users\User\Desktop\GC Analyses\Jack\Nachusa Grasslands Sampling\T3 Timepoint July 12th\T3_07122022_063.gcd
Method File	C:\LabSolutions\Data\GHG_4min_2022\ghg3_togas_w_acet_4 min_new_int.gcm
Batch File	C:\LabSolutions\Data\AutoSamplerTesting\T3_07122022.gcb
Report Format File	c:\LabSolutions\System\DEFAULT.lsr

[File Description]


[Configuration]
Instrument Name	C0B7VH3-Instrument1
Instrument #	1
Line #	1
# of Detectors	3
Detector ID	DET#1	DET#2	DET#3
Detector Name	FID	PTCD	ECD
# of Channels	1	1	1

[Peak Table(Ch1)]
# of Peaks	3
Peak#	R.Time	I.Time	F.Time	Area	Height	A/H	Conc.	Mark	ID#	Name	k'	Plate #	Plate Ht.	Tailing	Resolution	Sep.Factor	Area Ratio	Height Ratio	Conc. %	Norm Conc.
1	1.476	1.424	1.538	30043	14843	2.024	212.103	   	1	CO	0.000	9667	15.516	1.260	0.000	0.000	0	0	19.314	19.314
2	1.571	1.538	1.626	4185	2156	1.941	80.912	   	2	CH4	0.065	11930	12.574	1.160	1.622	0.000	0	0	7.368	7.368
3	1.996	1.949	2.385	3208225	1545293	2.076	805.178	   	3	CO2	0.353	17383	8.629	1.319	7.203	5.462	0	0	73.318	73.318

[Peak Table(Ch2)]
# of Peaks	0

[Peak Table(Ch3)]
# of Peaks	4
Peak#	R.Time	I.Time	F.Time	Area	Height	A/H	Conc.	Mark	ID#	Name	k'	Plate #	Plate Ht.	Tailing	Resolution	Sep.Factor	Area Ratio	Height Ratio	Conc. %	Norm Conc.
1	2.462	2.323	2.510	2100	661	3.176	0.000	   			0.000	10061	14.910	0.000	0.000	0.000	0	0	0.000	0.000
2	2.528	2.510	2.678	1658	372	4.454	0.000	 V 			0.027	5198	28.855	0.000	0.554	0.000	0	0	0.000	0.000
3	2.880	2.708	3.019	18910	4826	3.918	0.483	   	1	N2O	0.170	13001	11.538	1.535	2.918	6.333	0	0	100.000	100.000
4	3.294	3.023	3.995	22386	648	34.522	0.000	   	2	SF6	0.338	197	759.779	1.737	0.798	1.991	0	0	0.000	0.000

[Compound Results(Ch1)]
# of IDs	6
ID#	Name	R.Time	Area	Height	Conc.	Curve	3rd	2nd	1st	Constant	Area Ratio	Height Ratio	Conc. %	Norm Conc.
1	CO	1.476	30043	14843	212.103	Linear	0.000000e+00	0.000000e+00	1.416423e+002	0.000000e+00	0	0	19.314	19.314
2	CH4	1.571	4185	2156	80.912	Linear	0.000000e+00	0.000000e+00	5.171738e+001	0.000000e+00	0	0	7.368	7.368
3	CO2	1.996	3208225	1545293	805.178	Linear	0.000000e+00	0.000000e+00	3.984494e+003	0.000000e+00	0	0	73.318	73.318
4	Ethylene	0.000	0	0	0.000	Linear	0.000000e+00	0.000000e+00	0.000000e+00	0.000000e+00	0	0	0.000	0.000
5	Acetylene	0.000	0	0	0.000	Linear	0.000000e+00	0.000000e+00	0.000000e+00	0.000000e+00	0	0	0.000	0.000
6	Ethane	0.000	0	0	0.000	Linear	0.000000e+00	0.000000e+00	0.000000e+00	0.000000e+00	0	0	0.000	0.000

[Compound Results(Ch2)]
# of IDs	5
ID#	Name	R.Time	Area	Height	Conc.	Curve	3rd	2nd	1st	Constant	Area Ratio	Height Ratio	Conc. %	Norm Conc.
1	Hydrogen	0.000	0	0	0.000	Linear	0.000000e+00	0.000000e+00	0.000000e+00	0.000000e+00	0	0	0.000	0.000
2	Oxygen	0.000	0	0	0.000	Linear	0.000000e+00	0.000000e+00	0.000000e+00	0.000000e+00	0	0	0.000	0.000
3	Nitrogen	0.000	0	0	0.000	Linear	0.000000e+00	0.000000e+00	0.000000e+00	0.000000e+00	0	0	0.000	0.000
4	Methane	0.000	0	0	0.000	Linear	0.000000e+00	0.000000e+00	0.000000e+00	0.000000e+00	0	0	0.000	0.000
5	Carbon Monoxide	0.000	0	0	0.000	Linear	0.000000e+00	0.000000e+00	0.000000e+00	0.000000e+00	0	0	0.000	0.000

[Compound Results(Ch3)]
# of IDs	2
ID#	Name	R.Time	Area	Height	Conc.	Curve	3rd	2nd	1st	Constant	Area Ratio	Height Ratio	Conc. %	Norm Conc.
1	N2O	2.880	18910	4826	0.483	Linear	0.000000e+00	0.000000e+00	3.915173e+004	0.000000e+00	0	0	100.000	100.000
2	SF6	3.294	22386	648	0.000	Linear	0.000000e+00	0.000000e+00	0.000000e+00	0.000000e+00	0	0	0.000	0.000

[Group Results(Ch1)]
# of Groups	0

[Group Results(Ch2)]
# of Groups	0

[Group Results(Ch3)]
# of Groups	0

[Chromatogram (Ch1)]
Interval(msec)	220
# of Points	1091
Start Time(min)	0.002
End Time(min)	3.998
R.Time (min)	Intensity
0.00167	14
0.00533	18
0.00900	17
0.01267	13
0.01633	14
0.02000	20
0.02367	26
0.02733	29
0.03100	33
0.03467	36
0.03833	35
0.04200	34
0.04567	32
0.04933	30
0.05300	30
0.05667	29
0.06033	28
0.06400	30
0.06767	34
0.07133	40
0.07500	48
0.07867	54
0.08233	55
0.08600	54
0.08967	55
0.09333	57
0.09700	58
0.10067	63
0.10433	68
0.10800	67
0.11167	62
0.11533	54
0.11900	42
0.12267	30
0.12633	23
0.13000	26
0.13367	30
0.13733	32
0.14100	35
0.14467	40
0.14833	41
0.15200	38
0.15567	33
0.15933	29
0.16300	26
0.16667	24
0.17033	24
0.17400	22
0.17767	20
0.18133	21
0.18500	20
0.18867	14
0.19233	9
0.19600	7
0.19967	8
0.20333	8
0.20700	8
0.21067	17
0.21433	34
0.21800	46
0.22167	49
0.22533	45
0.22900	35
0.23267	20
0.23633	1
0.24000	-22
0.24367	-38
0.24733	-43
0.25100	-38
0.25467	-34
0.25833	-28
0.26200	-23
0.26567	-20
0.26933	-18
0.27300	-18
0.27667	-15
0.28033	-9
0.28400	-1
0.28767	4
0.29133	3
0.29500	-0
0.29867	-1
0.30233	2
0.30600	5
0.30967	8
0.31333	9
0.31700	7
0.32067	5
0.32433	7
0.32800	10
0.33167	11
0.33533	11
0.33900	8
0.34267	6
0.34633	8
0.35000	12
0.35367	16
0.35733	20
0.36100	19
0.36467	15
0.36833	9
0.37200	3
0.37567	-2
0.37933	-5
0.38300	-1
0.38667	2
0.39033	2
0.39400	4
0.39767	8
0.40133	9
0.40500	6
0.40867	4
0.41233	1
0.41600	5
0.41967	9
0.42333	9
0.42700	9
0.43067	8
0.43433	6
0.43800	5
0.44167	9
0.44533	16
0.44900	23
0.45267	26
0.45633	22
0.46000	17
0.46367	12
0.46733	8
0.47100	7
0.47467	4
0.47833	-2
0.48200	-5
0.48567	-4
0.48933	2
0.49300	8
0.49667	9
0.50033	12
0.50400	18
0.50767	22
0.51133	29
0.51500	35
0.51867	34
0.52233	27
0.52600	20
0.52967	15
0.53333	10
0.53700	5
0.54067	1
0.54433	-2
0.54800	-1
0.55167	5
0.55533	11
0.55900	17
0.56267	27
0.56633	33
0.57000	31
0.57367	23
0.57733	17
0.58100	13
0.58467	10
0.58833	7
0.59200	3
0.59567	3
0.59933	5
0.60300	8
0.60667	12
0.61033	17
0.61400	24
0.61767	31
0.62133	35
0.62500	34
0.62867	29
0.63233	22
0.63600	15
0.63967	13
0.64333	11
0.64700	9
0.65067	9
0.65433	7
0.65800	8
0.66167	9
0.66533	8
0.66900	9
0.67267	11
0.67633	13
0.68000	16
0.68367	22
0.68733	23
0.69100	21
0.69467	12
0.69833	-1
0.70200	-13
0.70567	-18
0.70933	-20
0.71300	-18
0.71667	-8
0.72033	1
0.72400	1
0.72767	-4
0.73133	-5
0.73500	-4
0.73867	1
0.74233	6
0.74600	11
0.74967	11
0.75333	8
0.75700	2
0.76067	-2
0.76433	-4
0.76800	-8
0.77167	-8
0.77533	-6
0.77900	-1
0.78267	-1
0.78633	-8
0.79000	-14
0.79367	-17
0.79733	-14
0.80100	-10
0.80467	-6
0.80833	-3
0.81200	-1
0.81567	1
0.81933	4
0.82300	6
0.82667	5
0.83033	-3
0.83400	-10
0.83767	-16
0.84133	-17
0.84500	-14
0.84867	-7
0.85233	-2
0.85600	-1
0.85967	-2
0.86333	-8
0.86700	-14
0.87067	-19
0.87433	-20
0.87800	-17
0.88167	-14
0.88533	-10
0.88900	-7
0.89267	-3
0.89633	-0
0.90000	-3
0.90367	-8
0.90733	-11
0.91100	-10
0.91467	-8
0.91833	-7
0.92200	-3
0.92567	1
0.92933	6
0.93300	12
0.93667	19
0.94033	23
0.94400	26
0.94767	33
0.95133	42
0.95500	48
0.95867	53
0.96233	55
0.96600	52
0.96967	48
0.97333	44
0.97700	44
0.98067	42
0.98433	38
0.98800	38
0.99167	42
0.99533	50
0.99900	57
1.00267	61
1.00633	59
1.01000	54
1.01367	46
1.01733	39
1.02100	34
1.02467	32
1.02833	31
1.03200	29
1.03567	28
1.03933	29
1.04300	29
1.04667	27
1.05033	23
1.05400	21
1.05767	23
1.06133	23
1.06500	18
1.06867	11
1.07233	5
1.07600	4
1.07967	4
1.08333	3
1.08700	4
1.09067	4
1.09433	8
1.09800	15
1.10167	21
1.10533	27
1.10900	28
1.11267	25
1.11633	23
1.12000	25
1.12367	30
1.12733	36
1.13100	42
1.13467	46
1.13833	43
1.14200	38
1.14567	36
1.14933	37
1.15300	34
1.15667	29
1.16033	24
1.16400	19
1.16767	17
1.17133	18
1.17500	19
1.17867	20
1.18233	20
1.18600	21
1.18967	22
1.19333	25
1.19700	32
1.20067	37
1.20433	39
1.20800	40
1.21167	43
1.21533	44
1.21900	43
1.22267	38
1.22633	30
1.23000	25
1.23367	19
1.23733	14
1.24100	17
1.24467	21
1.24833	23
1.25200	26
1.25567	29
1.25933	29
1.26300	27
1.26667	25
1.27033	25
1.27400	25
1.27767	24
1.28133	21
1.28500	12
1.28867	1
1.29233	-5
1.29600	-2
1.29967	6
1.30333	13
1.30700	17
1.31067	18
1.31433	16
1.31800	12
1.32167	7
1.32533	4
1.32900	2
1.33267	2
1.33633	8
1.34000	15
1.34367	18
1.34733	20
1.35100	24
1.35467	30
1.35833	34
1.36200	35
1.36567	32
1.36933	24
1.37300	15
1.37667	10
1.38033	8
1.38400	3
1.38767	2
1.39133	10
1.39500	19
1.39867	25
1.40233	28
1.40600	27
1.40967	24
1.41333	22
1.41700	22
1.42067	21
1.42433	22
1.42800	26
1.43167	31
1.43533	37
1.43900	49
1.44267	95
1.44633	263
1.45000	769
1.45367	2025
1.45733	4287
1.46100	7178
1.46467	10033
1.46833	12388
1.47200	14031
1.47567	14824
1.47933	14630
1.48300	13435
1.48667	11468
1.49033	9146
1.49400	6886
1.49767	4947
1.50133	3424
1.50500	2300
1.50867	1503
1.51233	956
1.51600	586
1.51967	341
1.52333	178
1.52700	69
1.53067	-4
1.53433	-49
1.53800	-69
1.54167	-38
1.54533	99
1.54900	383
1.55267	787
1.55633	1224
1.56000	1610
1.56367	1903
1.56733	2072
1.57100	2090
1.57467	1943
1.57833	1660
1.58200	1308
1.58567	958
1.58933	661
1.59300	437
1.59667	274
1.60033	161
1.60400	87
1.60767	35
1.61133	-4
1.61500	-31
1.61867	-48
1.62233	-57
1.62600	-62
1.62967	-65
1.63333	-65
1.63700	-65
1.64067	-63
1.64433	-57
1.64800	-51
1.65167	-47
1.65533	-43
1.65900	-41
1.66267	-41
1.66633	-43
1.67000	-46
1.67367	-48
1.67733	-46
1.68100	-44
1.68467	-45
1.68833	-48
1.69200	-53
1.69567	-58
1.69933	-59
1.70300	-56
1.70667	-46
1.71033	-34
1.71400	-26
1.71767	-25
1.72133	-30
1.72500	-35
1.72867	-33
1.73233	-31
1.73600	-34
1.73967	-36
1.74333	-38
1.74700	-38
1.75067	-36
1.75433	-32
1.75800	-35
1.76167	-42
1.76533	-47
1.76900	-45
1.77267	-41
1.77633	-32
1.78000	-24
1.78367	-21
1.78733	-24
1.79100	-27
1.79467	-30
1.79833	-36
1.80200	-45
1.80567	-52
1.80933	-56
1.81300	-56
1.81667	-51
1.82033	-43
1.82400	-42
1.82767	-45
1.83133	-48
1.83500	-47
1.83867	-39
1.84233	-28
1.84600	-15
1.84967	-3
1.85333	4
1.85700	6
1.86067	7
1.86433	6
1.86800	1
1.87167	-3
1.87533	-4
1.87900	-4
1.88267	-7
1.88633	-12
1.89000	-19
1.89367	-27
1.89733	-32
1.90100	-31
1.90467	-27
1.90833	-21
1.91200	-13
1.91567	-6
1.91933	-1
1.92300	3
1.92667	4
1.93033	-1
1.93400	-4
1.93767	-3
1.94133	6
1.94500	12
1.94867	16
1.95233	36
1.95600	190
1.95967	1191
1.96333	6208
1.96700	25291
1.97067	80703
1.97433	203797
1.97800	413750
1.98167	694448
1.98533	997390
1.98900	1266029
1.99267	1457004
1.99633	1545352
2.00000	1523980
2.00367	1404349
2.00733	1213967
2.01100	989239
2.01467	765285
2.01833	567135
2.02200	406704
2.02567	285080
2.02933	197155
2.03300	135650
2.03667	93557
2.04033	65122
2.04400	46021
2.04767	33179
2.05133	24491
2.05500	18548
2.05867	14424
2.06233	11507
2.06600	9400
2.06967	7847
2.07333	6679
2.07700	5778
2.08067	5069
2.08433	4498
2.08800	4030
2.09167	3644
2.09533	3325
2.09900	3055
2.10267	2820
2.10633	2610
2.11000	2422
2.11367	2260
2.11733	2121
2.12100	1995
2.12467	1878
2.12833	1778
2.13200	1691
2.13567	1610
2.13933	1537
2.14300	1472
2.14667	1415
2.15033	1360
2.15400	1310
2.15767	1264
2.16133	1218
2.16500	1174
2.16867	1129
2.17233	1082
2.17600	1036
2.17967	992
2.18333	951
2.18700	914
2.19067	877
2.19433	850
2.19800	828
2.20167	811
2.20533	797
2.20900	783
2.21267	771
2.21633	768
2.22000	766
2.22367	758
2.22733	739
2.23100	712
2.23467	679
2.23833	650
2.24200	628
2.24567	611
2.24933	600
2.25300	592
2.25667	584
2.26033	577
2.26400	566
2.26767	556
2.27133	548
2.27500	541
2.27867	531
2.28233	519
2.28600	510
2.28967	504
2.29333	502
2.29700	504
2.30067	505
2.30433	503
2.30800	497
2.31167	491
2.31533	482
2.31900	474
2.32267	468
2.32633	462
2.33000	458
2.33367	457
2.33733	454
2.34100	447
2.34467	441
2.34833	437
2.35200	431
2.35567	425
2.35933	421
2.36300	419
2.36667	413
2.37033	406
2.37400	403
2.37767	407
2.38133	410
2.38500	412
2.38867	412
2.39233	408
2.39600	401
2.39967	396
2.40333	399
2.40700	407
2.41067	411
2.41433	412
2.41800	411
2.42167	405
2.42533	399
2.42900	394
2.43267	389
2.43633	384
2.44000	376
2.44367	368
2.44733	361
2.45100	358
2.45467	361
2.45833	366
2.46200	368
2.46567	367
2.46933	367
2.47300	366
2.47667	365
2.48033	366
2.48400	372
2.48767	379
2.49133	385
2.49500	385
2.49867	377
2.50233	367
2.50600	358
2.50967	351
2.51333	348
2.51700	345
2.52067	340
2.52433	338
2.52800	341
2.53167	349
2.53533	357
2.53900	362
2.54267	361
2.54633	357
2.55000	351
2.55367	345
2.55733	342
2.56100	340
2.56467	338
2.56833	330
2.57200	322
2.57567	319
2.57933	328
2.58300	339
2.58667	348
2.59033	352
2.59400	350
2.59767	347
2.60133	346
2.60500	349
2.60867	357
2.61233	363
2.61600	361
2.61967	354
2.62333	349
2.62700	348
2.63067	345
2.63433	340
2.63800	328
2.64167	320
2.64533	318
2.64900	319
2.65267	321
2.65633	327
2.66000	335
2.66367	343
2.66733	349
2.67100	354
2.67467	360
2.67833	367
2.68200	366
2.68567	357
2.68933	349
2.69300	347
2.69667	346
2.70033	344
2.70400	341
2.70767	343
2.71133	343
2.71500	335
2.71867	330
2.72233	328
2.72600	326
2.72967	328
2.73333	329
2.73700	328
2.74067	330
2.74433	336
2.74800	350
2.75167	363
2.75533	370
2.75900	370
2.76267	369
2.76633	368
2.77000	368
2.77367	371
2.77733	371
2.78100	364
2.78467	356
2.78833	350
2.79200	346
2.79567	342
2.79933	341
2.80300	341
2.80667	343
2.81033	347
2.81400	351
2.81767	349
2.82133	348
2.82500	348
2.82867	349
2.83233	353
2.83600	354
2.83967	354
2.84333	356
2.84700	358
2.85067	356
2.85433	355
2.85800	359
2.86167	364
2.86533	366
2.86900	365
2.87267	366
2.87633	367
2.88000	364
2.88367	364
2.88733	370
2.89100	379
2.89467	386
2.89833	389
2.90200	384
2.90567	379
2.90933	374
2.91300	368
2.91667	364
2.92033	360
2.92400	356
2.92767	355
2.93133	356
2.93500	358
2.93867	357
2.94233	358
2.94600	357
2.94967	356
2.95333	353
2.95700	352
2.96067	355
2.96433	361
2.96800	366
2.97167	367
2.97533	364
2.97900	362
2.98267	360
2.98633	355
2.99000	352
2.99367	356
2.99733	366
3.00100	374
3.00467	377
3.00833	377
3.01200	376
3.01567	376
3.01933	373
3.02300	369
3.02667	370
3.03033	368
3.03400	362
3.03767	362
3.04133	364
3.04500	370
3.04867	380
3.05233	386
3.05600	385
3.05967	384
3.06333	386
3.06700	381
3.07067	371
3.07433	361
3.07800	353
3.08167	345
3.08533	336
3.08900	328
3.09267	326
3.09633	328
3.10000	333
3.10367	341
3.10733	345
3.11100	348
3.11467	354
3.11833	357
3.12200	356
3.12567	351
3.12933	348
3.13300	343
3.13667	338
3.14033	339
3.14400	345
3.14767	350
3.15133	358
3.15500	363
3.15867	362
3.16233	359
3.16600	361
3.16967	369
3.17333	375
3.17700	374
3.18067	367
3.18433	358
3.18800	349
3.19167	344
3.19533	342
3.19900	342
3.20267	338
3.20633	334
3.21000	334
3.21367	335
3.21733	334
3.22100	328
3.22467	321
3.22833	316
3.23200	310
3.23567	307
3.23933	307
3.24300	313
3.24667	321
3.25033	330
3.25400	335
3.25767	336
3.26133	334
3.26500	329
3.26867	322
3.27233	315
3.27600	312
3.27967	312
3.28333	311
3.28700	315
3.29067	324
3.29433	328
3.29800	327
3.30167	328
3.30533	331
3.30900	335
3.31267	337
3.31633	336
3.32000	333
3.32367	333
3.32733	334
3.33100	336
3.33467	334
3.33833	330
3.34200	323
3.34567	318
3.34933	319
3.35300	321
3.35667	321
3.36033	322
3.36400	325
3.36767	329
3.37133	334
3.37500	338
3.37867	346
3.38233	355
3.38600	363
3.38967	360
3.39333	349
3.39700	335
3.40067	323
3.40433	313
3.40800	305
3.41167	297
3.41533	290
3.41900	286
3.42267	287
3.42633	289
3.43000	292
3.43367	294
3.43733	293
3.44100	293
3.44467	294
3.44833	301
3.45200	309
3.45567	317
3.45933	320
3.46300	320
3.46667	325
3.47033	337
3.47400	348
3.47767	354
3.48133	350
3.48500	339
3.48867	328
3.49233	316
3.49600	306
3.49967	299
3.50333	296
3.50700	296
3.51067	301
3.51433	308
3.51800	314
3.52167	314
3.52533	308
3.52900	303
3.53267	301
3.53633	301
3.54000	300
3.54367	295
3.54733	295
3.55100	301
3.55467	304
3.55833	303
3.56200	301
3.56567	299
3.56933	300
3.57300	298
3.57667	295
3.58033	293
3.58400	291
3.58767	288
3.59133	284
3.59500	279
3.59867	279
3.60233	283
3.60600	288
3.60967	290
3.61333	291
3.61700	293
3.62067	301
3.62433	308
3.62800	305
3.63167	302
3.63533	295
3.63900	287
3.64267	286
3.64633	287
3.65000	288
3.65367	288
3.65733	285
3.66100	280
3.66467	278
3.66833	280
3.67200	282
3.67567	284
3.67933	284
3.68300	287
3.68667	286
3.69033	285
3.69400	279
3.69767	269
3.70133	264
3.70500	266
3.70867	272
3.71233	278
3.71600	282
3.71967	285
3.72333	288
3.72700	287
3.73067	283
3.73433	281
3.73800	277
3.74167	270
3.74533	267
3.74900	265
3.75267	266
3.75633	269
3.76000	267
3.76367	262
3.76733	258
3.77100	251
3.77467	247
3.77833	247
3.78200	248
3.78567	250
3.78933	251
3.79300	251
3.79667	251
3.80033	251
3.80400	250
3.80767	249
3.81133	246
3.81500	244
3.81867	248
3.82233	255
3.82600	262
3.82967	261
3.83333	255
3.83700	250
3.84067	250
3.84433	251
3.84800	251
3.85167	246
3.85533	238
3.85900	234
3.86267	235
3.86633	242
3.87000	248
3.87367	251
3.87733	257
3.88100	264
3.88467	263
3.88833	253
3.89200	243
3.89567	240
3.89933	239
3.90300	238
3.90667	238
3.91033	239
3.91400	251
3.91767	268
3.92133	273
3.92500	265
3.92867	252
3.93233	240
3.93600	229
3.93967	220
3.94333	214
3.94700	210
3.95067	207
3.95433	206
3.95800	211
3.96167	219
3.96533	226
3.96900	234
3.97267	237
3.97633	236
3.98000	231
3.98367	222
3.98733	217
3.99100	214
3.99467	214
3.99833	218

[Chromatogram (Ch2)]
Interval(msec)	220
# of Points	1091
Start Time(min)	0.002
End Time(min)	3.998
R.Time (min)	Intensity
0.00167	-0
0.00533	-0
0.00900	0
0.01267	0
0.01633	0
0.02000	0
0.02367	0
0.02733	0
0.03100	0
0.03467	1
0.03833	1
0.04200	1
0.04567	1
0.04933	1
0.05300	1
0.05667	1
0.06033	1
0.06400	1
0.06767	1
0.07133	0
0.07500	0
0.07867	0
0.08233	0
0.08600	0
0.08967	1
0.09333	1
0.09700	1
0.10067	1
0.10433	1
0.10800	1
0.11167	1
0.11533	0
0.11900	0
0.12267	0
0.12633	0
0.13000	0
0.13367	-0
0.13733	0
0.14100	0
0.14467	-0
0.14833	-0
0.15200	-1
0.15567	-1
0.15933	-1
0.16300	-1
0.16667	-1
0.17033	-1
0.17400	-1
0.17767	-1
0.18133	-1
0.18500	-1
0.18867	-1
0.19233	-1
0.19600	-1
0.19967	-1
0.20333	-1
0.20700	-1
0.21067	-2
0.21433	-2
0.21800	-2
0.22167	-2
0.22533	-2
0.22900	-2
0.23267	-2
0.23633	-3
0.24000	-3
0.24367	-3
0.24733	-3
0.25100	-2
0.25467	-2
0.25833	-1
0.26200	-1
0.26567	-0
0.26933	-0
0.27300	-0
0.27667	0
0.28033	0
0.28400	0
0.28767	1
0.29133	1
0.29500	1
0.29867	1
0.30233	1
0.30600	1
0.30967	1
0.31333	0
0.31700	-0
0.32067	-1
0.32433	-2
0.32800	-2
0.33167	-2
0.33533	-3
0.33900	-3
0.34267	-2
0.34633	-2
0.35000	-2
0.35367	-2
0.35733	-2
0.36100	-3
0.36467	-3
0.36833	-3
0.37200	-2
0.37567	-2
0.37933	-2
0.38300	-2
0.38667	-2
0.39033	-2
0.39400	-2
0.39767	-2
0.40133	-2
0.40500	-2
0.40867	-3
0.41233	-3
0.41600	-3
0.41967	-3
0.42333	-2
0.42700	-2
0.43067	-1
0.43433	-1
0.43800	-1
0.44167	-0
0.44533	0
0.44900	0
0.45267	1
0.45633	1
0.46000	1
0.46367	1
0.46733	1
0.47100	2
0.47467	2
0.47833	2
0.48200	2
0.48567	2
0.48933	2
0.49300	2
0.49667	2
0.50033	2
0.50400	2
0.50767	2
0.51133	2
0.51500	2
0.51867	1
0.52233	1
0.52600	1
0.52967	1
0.53333	1
0.53700	1
0.54067	1
0.54433	1
0.54800	1
0.55167	1
0.55533	0
0.55900	1
0.56267	1
0.56633	0
0.57000	-0
0.57367	-1
0.57733	-1
0.58100	-1
0.58467	-2
0.58833	-2
0.59200	-2
0.59567	-3
0.59933	-3
0.60300	-3
0.60667	-3
0.61033	-3
0.61400	-3
0.61767	-4
0.62133	-4
0.62500	-4
0.62867	-4
0.63233	-5
0.63600	-5
0.63967	-5
0.64333	-5
0.64700	-5
0.65067	-5
0.65433	-5
0.65800	-5
0.66167	-4
0.66533	-4
0.66900	-3
0.67267	-3
0.67633	-3
0.68000	-3
0.68367	-3
0.68733	-2
0.69100	-2
0.69467	-2
0.69833	-2
0.70200	-2
0.70567	-2
0.70933	-2
0.71300	-2
0.71667	-2
0.72033	-3
0.72400	-3
0.72767	-2
0.73133	-2
0.73500	-2
0.73867	-2
0.74233	-2
0.74600	-1
0.74967	-1
0.75333	-0
0.75700	-0
0.76067	-0
0.76433	-0
0.76800	-0
0.77167	-0
0.77533	-0
0.77900	0
0.78267	0
0.78633	1
0.79000	1
0.79367	1
0.79733	1
0.80100	1
0.80467	1
0.80833	0
0.81200	0
0.81567	-0
0.81933	-0
0.82300	-1
0.82667	-1
0.83033	-1
0.83400	-2
0.83767	-2
0.84133	-2
0.84500	-2
0.84867	-2
0.85233	-3
0.85600	-3
0.85967	-3
0.86333	-3
0.86700	-3
0.87067	-4
0.87433	-4
0.87800	-4
0.88167	-4
0.88533	-4
0.88900	-4
0.89267	-3
0.89633	-3
0.90000	-3
0.90367	-3
0.90733	-3
0.91100	-3
0.91467	-3
0.91833	-3
0.92200	-3
0.92567	-3
0.92933	-3
0.93300	-2
0.93667	-2
0.94033	-2
0.94400	-2
0.94767	-2
0.95133	-3
0.95500	-3
0.95867	-3
0.96233	-3
0.96600	-3
0.96967	-3
0.97333	-3
0.97700	-3
0.98067	-3
0.98433	-3
0.98800	-3
0.99167	-3
0.99533	-3
0.99900	-3
1.00267	-3
1.00633	-3
1.01000	-3
1.01367	-3
1.01733	-3
1.02100	-3
1.02467	-3
1.02833	-3
1.03200	-3
1.03567	-2
1.03933	-2
1.04300	-2
1.04667	-2
1.05033	-2
1.05400	-2
1.05767	-3
1.06133	-3
1.06500	-3
1.06867	-3
1.07233	-3
1.07600	-4
1.07967	-4
1.08333	-4
1.08700	-3
1.09067	-4
1.09433	-4
1.09800	-4
1.10167	-4
1.10533	-4
1.10900	-5
1.11267	-5
1.11633	-5
1.12000	-5
1.12367	-5
1.12733	-5
1.13100	-4
1.13467	-4
1.13833	-4
1.14200	-4
1.14567	-4
1.14933	-3
1.15300	-3
1.15667	-3
1.16033	-3
1.16400	-2
1.16767	-2
1.17133	-2
1.17500	-2
1.17867	-2
1.18233	-2
1.18600	-2
1.18967	-2
1.19333	-2
1.19700	-2
1.20067	-2
1.20433	-2
1.20800	-2
1.21167	-2
1.21533	-2
1.21900	-2
1.22267	-2
1.22633	-2
1.23000	-1
1.23367	-1
1.23733	-1
1.24100	-1
1.24467	-2
1.24833	-2
1.25200	-2
1.25567	-2
1.25933	-2
1.26300	-2
1.26667	-2
1.27033	-3
1.27400	-3
1.27767	-3
1.28133	-3
1.28500	-3
1.28867	-3
1.29233	-3
1.29600	-3
1.29967	-3
1.30333	-3
1.30700	-3
1.31067	-3
1.31433	-3
1.31800	-3
1.32167	-3
1.32533	-3
1.32900	-3
1.33267	-3
1.33633	-2
1.34000	-2
1.34367	-2
1.34733	-2
1.35100	-2
1.35467	-2
1.35833	-2
1.36200	-2
1.36567	-2
1.36933	-3
1.37300	-3
1.37667	-3
1.38033	-3
1.38400	-3
1.38767	-4
1.39133	-4
1.39500	-4
1.39867	-5
1.40233	-5
1.40600	-6
1.40967	-6
1.41333	-6
1.41700	-7
1.42067	-7
1.42433	-7
1.42800	-6
1.43167	-6
1.43533	-6
1.43900	-6
1.44267	-6
1.44633	-6
1.45000	-6
1.45367	-6
1.45733	-7
1.46100	-7
1.46467	-7
1.46833	-6
1.47200	-6
1.47567	-6
1.47933	-5
1.48300	-5
1.48667	-5
1.49033	-5
1.49400	-5
1.49767	-5
1.50133	-5
1.50500	-5
1.50867	-5
1.51233	-5
1.51600	-5
1.51967	-5
1.52333	-5
1.52700	-5
1.53067	-5
1.53433	-5
1.53800	-5
1.54167	-5
1.54533	-5
1.54900	-5
1.55267	-5
1.55633	-4
1.56000	-4
1.56367	-3
1.56733	-3
1.57100	-3
1.57467	-2
1.57833	-2
1.58200	-2
1.58567	-2
1.58933	-2
1.59300	-2
1.59667	-2
1.60033	-3
1.60400	-4
1.60767	-6
1.61133	-8
1.61500	-10
1.61867	-13
1.62233	-16
1.62600	-19
1.62967	-22
1.63333	-26
1.63700	-30
1.64067	-33
1.64433	-37
1.64800	-41
1.65167	-45
1.65533	-49
1.65900	-53
1.66267	-57
1.66633	-60
1.67000	-64
1.67367	-69
1.67733	-73
1.68100	-77
1.68467	-82
1.68833	-86
1.69200	-90
1.69567	-93
1.69933	-97
1.70300	-100
1.70667	-102
1.71033	-104
1.71400	-106
1.71767	-107
1.72133	-107
1.72500	-108
1.72867	-108
1.73233	-108
1.73600	-108
1.73967	-108
1.74333	-108
1.74700	-107
1.75067	-107
1.75433	-107
1.75800	-108
1.76167	-108
1.76533	-110
1.76900	-111
1.77267	-112
1.77633	-113
1.78000	-113
1.78367	-114
1.78733	-114
1.79100	-115
1.79467	-115
1.79833	-115
1.80200	-115
1.80567	-115
1.80933	-115
1.81300	-115
1.81667	-115
1.82033	-116
1.82400	-116
1.82767	-116
1.83133	-116
1.83500	-117
1.83867	-117
1.84233	-117
1.84600	-117
1.84967	-117
1.85333	-117
1.85700	-116
1.86067	-115
1.86433	-115
1.86800	-114
1.87167	-113
1.87533	-113
1.87900	-113
1.88267	-113
1.88633	-113
1.89000	-114
1.89367	-113
1.89733	-113
1.90100	-113
1.90467	-112
1.90833	-112
1.91200	-111
1.91567	-112
1.91933	-112
1.92300	-112
1.92667	-112
1.93033	-112
1.93400	-112
1.93767	-112
1.94133	-112
1.94500	-112
1.94867	-112
1.95233	-112
1.95600	-112
1.95967	-111
1.96333	-111
1.96700	-110
1.97067	-109
1.97433	-109
1.97800	-109
1.98167	-110
1.98533	-110
1.98900	-110
1.99267	-109
1.99633	-108
2.00000	-107
2.00367	-107
2.00733	-106
2.01100	-106
2.01467	-106
2.01833	-106
2.02200	-106
2.02567	-106
2.02933	-105
2.03300	-105
2.03667	-105
2.04033	-104
2.04400	-104
2.04767	-103
2.05133	-103
2.05500	-103
2.05867	-103
2.06233	-104
2.06600	-104
2.06967	-104
2.07333	-104
2.07700	-104
2.08067	-103
2.08433	-103
2.08800	-103
2.09167	-102
2.09533	-102
2.09900	-101
2.10267	-100
2.10633	-99
2.11000	-98
2.11367	-97
2.11733	-96
2.12100	-96
2.12467	-96
2.12833	-96
2.13200	-96
2.13567	-96
2.13933	-96
2.14300	-95
2.14667	-95
2.15033	-95
2.15400	-96
2.15767	-96
2.16133	-96
2.16500	-96
2.16867	-95
2.17233	-94
2.17600	-93
2.17967	-93
2.18333	-92
2.18700	-92
2.19067	-92
2.19433	-92
2.19800	-93
2.20167	-93
2.20533	-94
2.20900	-95
2.21267	-95
2.21633	-94
2.22000	-94
2.22367	-93
2.22733	-92
2.23100	-91
2.23467	-91
2.23833	-90
2.24200	-90
2.24567	-89
2.24933	-89
2.25300	-88
2.25667	-88
2.26033	-88
2.26400	-88
2.26767	-88
2.27133	-88
2.27500	-88
2.27867	-88
2.28233	-88
2.28600	-88
2.28967	-87
2.29333	-86
2.29700	-85
2.30067	-85
2.30433	-84
2.30800	-84
2.31167	-84
2.31533	-85
2.31900	-84
2.32267	-84
2.32633	-84
2.33000	-83
2.33367	-83
2.33733	-82
2.34100	-82
2.34467	-81
2.34833	-80
2.35200	-78
2.35567	-76
2.35933	-74
2.36300	-72
2.36667	-69
2.37033	-66
2.37400	-63
2.37767	-59
2.38133	-55
2.38500	-51
2.38867	-47
2.39233	-42
2.39600	-38
2.39967	-34
2.40333	-29
2.40700	-26
2.41067	-22
2.41433	-19
2.41800	-17
2.42167	-15
2.42533	-13
2.42900	-12
2.43267	-11
2.43633	-11
2.44000	-10
2.44367	-9
2.44733	-9
2.45100	-8
2.45467	-8
2.45833	-7
2.46200	-7
2.46567	-6
2.46933	-5
2.47300	-4
2.47667	-3
2.48033	-2
2.48400	-1
2.48767	0
2.49133	1
2.49500	3
2.49867	3
2.50233	4
2.50600	5
2.50967	6
2.51333	7
2.51700	8
2.52067	8
2.52433	9
2.52800	9
2.53167	9
2.53533	10
2.53900	10
2.54267	10
2.54633	10
2.55000	11
2.55367	11
2.55733	11
2.56100	11
2.56467	11
2.56833	11
2.57200	11
2.57567	12
2.57933	12
2.58300	12
2.58667	12
2.59033	13
2.59400	13
2.59767	13
2.60133	14
2.60500	14
2.60867	14
2.61233	14
2.61600	14
2.61967	14
2.62333	14
2.62700	14
2.63067	15
2.63433	15
2.63800	15
2.64167	15
2.64533	15
2.64900	15
2.65267	15
2.65633	16
2.66000	16
2.66367	17
2.66733	17
2.67100	18
2.67467	18
2.67833	18
2.68200	19
2.68567	19
2.68933	20
2.69300	20
2.69667	20
2.70033	21
2.70400	21
2.70767	21
2.71133	21
2.71500	21
2.71867	21
2.72233	21
2.72600	21
2.72967	21
2.73333	21
2.73700	21
2.74067	21
2.74433	21
2.74800	22
2.75167	22
2.75533	22
2.75900	23
2.76267	23
2.76633	23
2.77000	23
2.77367	23
2.77733	23
2.78100	23
2.78467	23
2.78833	23
2.79200	23
2.79567	23
2.79933	23
2.80300	23
2.80667	23
2.81033	23
2.81400	24
2.81767	24
2.82133	24
2.82500	24
2.82867	25
2.83233	25
2.83600	25
2.83967	24
2.84333	23
2.84700	21
2.85067	18
2.85433	12
2.85800	3
2.86167	-9
2.86533	-25
2.86900	-45
2.87267	-69
2.87633	-98
2.88000	-131
2.88367	-168
2.88733	-209
2.89100	-254
2.89467	-302
2.89833	-352
2.90200	-404
2.90567	-458
2.90933	-513
2.91300	-568
2.91667	-623
2.92033	-678
2.92400	-732
2.92767	-785
2.93133	-836
2.93500	-888
2.93867	-944
2.94233	-1003
2.94600	-1055
2.94967	-1091
2.95333	-1102
2.95700	-1088
2.96067	-1050
2.96433	-993
2.96800	-923
2.97167	-846
2.97533	-766
2.97900	-686
2.98267	-609
2.98633	-537
2.99000	-470
2.99367	-410
2.99733	-355
3.00100	-306
3.00467	-263
3.00833	-225
3.01200	-192
3.01567	-164
3.01933	-139
3.02300	-118
3.02667	-99
3.03033	-83
3.03400	-70
3.03767	-58
3.04133	-48
3.04500	-39
3.04867	-32
3.05233	-26
3.05600	-20
3.05967	-16
3.06333	-12
3.06700	-9
3.07067	-6
3.07433	-4
3.07800	-1
3.08167	0
3.08533	2
3.08900	3
3.09267	5
3.09633	6
3.10000	7
3.10367	8
3.10733	9
3.11100	10
3.11467	11
3.11833	11
3.12200	12
3.12567	12
3.12933	12
3.13300	13
3.13667	13
3.14033	13
3.14400	14
3.14767	14
3.15133	14
3.15500	15
3.15867	15
3.16233	15
3.16600	16
3.16967	16
3.17333	16
3.17700	17
3.18067	17
3.18433	18
3.18800	18
3.19167	18
3.19533	18
3.19900	18
3.20267	18
3.20633	18
3.21000	18
3.21367	18
3.21733	18
3.22100	18
3.22467	19
3.22833	19
3.23200	19
3.23567	19
3.23933	20
3.24300	20
3.24667	21
3.25033	21
3.25400	21
3.25767	21
3.26133	21
3.26500	21
3.26867	21
3.27233	21
3.27600	21
3.27967	21
3.28333	21
3.28700	21
3.29067	21
3.29433	21
3.29800	21
3.30167	21
3.30533	21
3.30900	21
3.31267	20
3.31633	20
3.32000	21
3.32367	21
3.32733	21
3.33100	22
3.33467	22
3.33833	23
3.34200	23
3.34567	24
3.34933	24
3.35300	25
3.35667	25
3.36033	26
3.36400	26
3.36767	26
3.37133	26
3.37500	25
3.37867	25
3.38233	25
3.38600	25
3.38967	25
3.39333	25
3.39700	25
3.40067	24
3.40433	24
3.40800	24
3.41167	24
3.41533	24
3.41900	24
3.42267	24
3.42633	24
3.43000	24
3.43367	24
3.43733	24
3.44100	24
3.44467	24
3.44833	24
3.45200	25
3.45567	25
3.45933	25
3.46300	26
3.46667	26
3.47033	26
3.47400	26
3.47767	25
3.48133	25
3.48500	25
3.48867	25
3.49233	25
3.49600	25
3.49967	25
3.50333	25
3.50700	25
3.51067	25
3.51433	25
3.51800	25
3.52167	25
3.52533	25
3.52900	25
3.53267	25
3.53633	25
3.54000	26
3.54367	26
3.54733	26
3.55100	26
3.55467	26
3.55833	26
3.56200	26
3.56567	25
3.56933	25
3.57300	25
3.57667	25
3.58033	24
3.58400	24
3.58767	23
3.59133	23
3.59500	23
3.59867	23
3.60233	23
3.60600	23
3.60967	23
3.61333	23
3.61700	23
3.62067	23
3.62433	23
3.62800	23
3.63167	24
3.63533	24
3.63900	24
3.64267	24
3.64633	24
3.65000	23
3.65367	23
3.65733	23
3.66100	23
3.66467	23
3.66833	23
3.67200	23
3.67567	23
3.67933	23
3.68300	23
3.68667	23
3.69033	23
3.69400	23
3.69767	23
3.70133	24
3.70500	24
3.70867	24
3.71233	23
3.71600	23
3.71967	23
3.72333	23
3.72700	22
3.73067	22
3.73433	22
3.73800	22
3.74167	22
3.74533	22
3.74900	22
3.75267	22
3.75633	22
3.76000	23
3.76367	23
3.76733	23
3.77100	24
3.77467	24
3.77833	24
3.78200	24
3.78567	24
3.78933	24
3.79300	24
3.79667	24
3.80033	24
3.80400	24
3.80767	24
3.81133	24
3.81500	24
3.81867	24
3.82233	25
3.82600	25
3.82967	25
3.83333	25
3.83700	25
3.84067	25
3.84433	26
3.84800	26
3.85167	26
3.85533	25
3.85900	25
3.86267	24
3.86633	24
3.87000	24
3.87367	24
3.87733	24
3.88100	24
3.88467	24
3.88833	24
3.89200	23
3.89567	24
3.89933	24
3.90300	24
3.90667	23
3.91033	23
3.91400	23
3.91767	23
3.92133	23
3.92500	23
3.92867	23
3.93233	23
3.93600	23
3.93967	23
3.94333	23
3.94700	24
3.95067	24
3.95433	24
3.95800	24
3.96167	24
3.96533	23
3.96900	23
3.97267	23
3.97633	23
3.98000	23
3.98367	23
3.98733	23
3.99100	23
3.99467	23
3.99833	23

[Chromatogram (Ch3)]
Interval(msec)	220
# of Points	1091
Start Time(min)	0.002
End Time(min)	3.998
R.Time (min)	Intensity
0.00167	-0
0.00533	-1
0.00900	-0
0.01267	1
0.01633	2
0.02000	2
0.02367	2
0.02733	0
0.03100	0
0.03467	0
0.03833	-0
0.04200	-1
0.04567	-1
0.04933	-1
0.05300	-1
0.05667	-1
0.06033	-0
0.06400	-0
0.06767	-0
0.07133	-1
0.07500	1
0.07867	2
0.08233	0
0.08600	-1
0.08967	-4
0.09333	-7
0.09700	-9
0.10067	-6
0.10433	-3
0.10800	-3
0.11167	-2
0.11533	-1
0.11900	1
0.12267	3
0.12633	5
0.13000	5
0.13367	5
0.13733	3
0.14100	4
0.14467	6
0.14833	4
0.15200	2
0.15567	1
0.15933	1
0.16300	0
0.16667	1
0.17033	2
0.17400	3
0.17767	3
0.18133	3
0.18500	4
0.18867	4
0.19233	3
0.19600	1
0.19967	-0
0.20333	-0
0.20700	-2
0.21067	-4
0.21433	-4
0.21800	-2
0.22167	-0
0.22533	0
0.22900	-1
0.23267	-3
0.23633	-3
0.24000	-6
0.24367	-6
0.24733	-3
0.25100	-1
0.25467	-0
0.25833	0
0.26200	1
0.26567	1
0.26933	1
0.27300	-1
0.27667	-1
0.28033	-2
0.28400	-1
0.28767	0
0.29133	-1
0.29500	-3
0.29867	-4
0.30233	-6
0.30600	-6
0.30967	-5
0.31333	-3
0.31700	-3
0.32067	-3
0.32433	-4
0.32800	-6
0.33167	-4
0.33533	-3
0.33900	-2
0.34267	-1
0.34633	-2
0.35000	-2
0.35367	-4
0.35733	-5
0.36100	-4
0.36467	-2
0.36833	-1
0.37200	-0
0.37567	2
0.37933	3
0.38300	2
0.38667	3
0.39033	2
0.39400	0
0.39767	0
0.40133	1
0.40500	2
0.40867	-0
0.41233	-1
0.41600	-3
0.41967	-3
0.42333	-2
0.42700	-1
0.43067	-1
0.43433	-2
0.43800	-2
0.44167	-3
0.44533	-2
0.44900	-4
0.45267	-6
0.45633	-6
0.46000	-6
0.46367	-6
0.46733	-4
0.47100	-2
0.47467	-2
0.47833	-1
0.48200	-1
0.48567	-1
0.48933	-1
0.49300	-2
0.49667	-3
0.50033	-0
0.50400	-0
0.50767	-1
0.51133	-0
0.51500	-1
0.51867	-2
0.52233	-4
0.52600	-4
0.52967	-4
0.53333	-6
0.53700	-7
0.54067	-9
0.54433	-9
0.54800	-8
0.55167	-8
0.55533	-7
0.55900	-7
0.56267	-6
0.56633	-6
0.57000	-9
0.57367	-11
0.57733	-12
0.58100	-12
0.58467	-9
0.58833	-6
0.59200	-6
0.59567	-8
0.59933	-6
0.60300	-5
0.60667	-5
0.61033	-7
0.61400	-7
0.61767	-7
0.62133	-6
0.62500	-6
0.62867	-6
0.63233	-9
0.63600	-12
0.63967	-14
0.64333	-13
0.64700	-13
0.65067	-15
0.65433	-16
0.65800	-16
0.66167	-13
0.66533	-10
0.66900	-10
0.67267	-12
0.67633	-13
0.68000	-14
0.68367	-14
0.68733	-14
0.69100	-13
0.69467	-13
0.69833	-12
0.70200	-12
0.70567	-12
0.70933	-13
0.71300	-11
0.71667	-11
0.72033	-12
0.72400	-12
0.72767	-10
0.73133	-7
0.73500	-6
0.73867	-6
0.74233	-9
0.74600	-11
0.74967	-12
0.75333	-11
0.75700	-10
0.76067	-11
0.76433	-11
0.76800	-11
0.77167	-10
0.77533	-7
0.77900	-5
0.78267	-4
0.78633	-6
0.79000	-9
0.79367	-12
0.79733	-14
0.80100	-14
0.80467	-13
0.80833	-11
0.81200	-11
0.81567	-10
0.81933	-9
0.82300	-11
0.82667	-13
0.83033	-14
0.83400	-12
0.83767	-11
0.84133	-9
0.84500	-6
0.84867	-6
0.85233	-8
0.85600	-12
0.85967	-13
0.86333	-11
0.86700	-10
0.87067	-8
0.87433	-7
0.87800	-6
0.88167	-8
0.88533	-9
0.88900	-8
0.89267	-7
0.89633	-7
0.90000	-6
0.90367	-6
0.90733	-5
0.91100	-6
0.91467	-10
0.91833	-10
0.92200	-10
0.92567	-8
0.92933	-6
0.93300	-4
0.93667	-2
0.94033	-1
0.94400	-1
0.94767	-3
0.95133	-5
0.95500	-5
0.95867	-3
0.96233	-2
0.96600	-0
0.96967	1
0.97333	0
0.97700	1
0.98067	0
0.98433	-1
0.98800	-1
0.99167	-1
0.99533	-1
0.99900	-2
1.00267	-2
1.00633	-1
1.01000	-0
1.01367	-2
1.01733	-4
1.02100	-4
1.02467	-3
1.02833	-4
1.03200	-4
1.03567	-2
1.03933	-2
1.04300	-1
1.04667	0
1.05033	1
1.05400	2
1.05767	2
1.06133	2
1.06500	3
1.06867	2
1.07233	3
1.07600	2
1.07967	1
1.08333	0
1.08700	0
1.09067	-0
1.09433	-1
1.09800	-1
1.10167	-1
1.10533	-1
1.10900	-0
1.11267	-0
1.11633	-1
1.12000	-0
1.12367	0
1.12733	3
1.13100	4
1.13467	5
1.13833	5
1.14200	5
1.14567	5
1.14933	6
1.15300	5
1.15667	3
1.16033	4
1.16400	2
1.16767	0
1.17133	-1
1.17500	-1
1.17867	-2
1.18233	-3
1.18600	-2
1.18967	-1
1.19333	-2
1.19700	-1
1.20067	1
1.20433	4
1.20800	6
1.21167	6
1.21533	6
1.21900	4
1.22267	4
1.22633	6
1.23000	9
1.23367	10
1.23733	8
1.24100	6
1.24467	3
1.24833	2
1.25200	2
1.25567	1
1.25933	1
1.26300	4
1.26667	7
1.27033	10
1.27400	11
1.27767	11
1.28133	10
1.28500	12
1.28867	14
1.29233	14
1.29600	13
1.29967	13
1.30333	13
1.30700	12
1.31067	12
1.31433	11
1.31800	11
1.32167	11
1.32533	14
1.32900	15
1.33267	16
1.33633	17
1.34000	18
1.34367	19
1.34733	19
1.35100	18
1.35467	18
1.35833	19
1.36200	19
1.36567	20
1.36933	19
1.37300	19
1.37667	20
1.38033	22
1.38400	21
1.38767	19
1.39133	16
1.39500	16
1.39867	18
1.40233	19
1.40600	20
1.40967	20
1.41333	20
1.41700	19
1.42067	18
1.42433	17
1.42800	18
1.43167	18
1.43533	17
1.43900	16
1.44267	16
1.44633	14
1.45000	13
1.45367	13
1.45733	12
1.46100	12
1.46467	11
1.46833	13
1.47200	15
1.47567	17
1.47933	18
1.48300	19
1.48667	17
1.49033	15
1.49400	16
1.49767	17
1.50133	17
1.50500	19
1.50867	19
1.51233	20
1.51600	18
1.51967	18
1.52333	19
1.52700	21
1.53067	22
1.53433	23
1.53800	23
1.54167	23
1.54533	22
1.54900	23
1.55267	22
1.55633	20
1.56000	21
1.56367	22
1.56733	21
1.57100	19
1.57467	19
1.57833	19
1.58200	20
1.58567	22
1.58933	22
1.59300	22
1.59667	21
1.60033	21
1.60400	24
1.60767	25
1.61133	26
1.61500	28
1.61867	28
1.62233	26
1.62600	27
1.62967	29
1.63333	31
1.63700	32
1.64067	32
1.64433	31
1.64800	30
1.65167	30
1.65533	29
1.65900	28
1.66267	28
1.66633	29
1.67000	30
1.67367	31
1.67733	33
1.68100	36
1.68467	39
1.68833	40
1.69200	38
1.69567	37
1.69933	35
1.70300	36
1.70667	36
1.71033	36
1.71400	37
1.71767	39
1.72133	41
1.72500	43
1.72867	44
1.73233	46
1.73600	46
1.73967	46
1.74333	45
1.74700	46
1.75067	45
1.75433	45
1.75800	44
1.76167	44
1.76533	41
1.76900	39
1.77267	41
1.77633	42
1.78000	42
1.78367	42
1.78733	43
1.79100	44
1.79467	45
1.79833	47
1.80200	47
1.80567	47
1.80933	46
1.81300	46
1.81667	47
1.82033	50
1.82400	50
1.82767	50
1.83133	51
1.83500	53
1.83867	55
1.84233	56
1.84600	56
1.84967	54
1.85333	54
1.85700	55
1.86067	56
1.86433	58
1.86800	60
1.87167	58
1.87533	58
1.87900	60
1.88267	64
1.88633	66
1.89000	69
1.89367	69
1.89733	69
1.90100	68
1.90467	70
1.90833	73
1.91200	75
1.91567	77
1.91933	80
1.92300	82
1.92667	84
1.93033	84
1.93400	83
1.93767	84
1.94133	85
1.94500	87
1.94867	88
1.95233	89
1.95600	91
1.95967	93
1.96333	95
1.96700	97
1.97067	95
1.97433	95
1.97800	95
1.98167	95
1.98533	97
1.98900	101
1.99267	102
1.99633	102
2.00000	103
2.00367	103
2.00733	105
2.01100	109
2.01467	111
2.01833	111
2.02200	108
2.02567	107
2.02933	109
2.03300	112
2.03667	111
2.04033	112
2.04400	114
2.04767	115
2.05133	117
2.05500	119
2.05867	123
2.06233	126
2.06600	127
2.06967	127
2.07333	129
2.07700	131
2.08067	131
2.08433	132
2.08800	133
2.09167	134
2.09533	136
2.09900	141
2.10267	142
2.10633	140
2.11000	141
2.11367	142
2.11733	143
2.12100	143
2.12467	144
2.12833	145
2.13200	148
2.13567	150
2.13933	152
2.14300	154
2.14667	155
2.15033	156
2.15400	158
2.15767	158
2.16133	161
2.16500	162
2.16867	161
2.17233	160
2.17600	161
2.17967	163
2.18333	165
2.18700	167
2.19067	169
2.19433	169
2.19800	170
2.20167	170
2.20533	169
2.20900	169
2.21267	169
2.21633	172
2.22000	174
2.22367	177
2.22733	178
2.23100	178
2.23467	178
2.23833	179
2.24200	181
2.24567	182
2.24933	181
2.25300	180
2.25667	179
2.26033	179
2.26400	179
2.26767	180
2.27133	181
2.27500	181
2.27867	182
2.28233	184
2.28600	183
2.28967	183
2.29333	184
2.29700	187
2.30067	189
2.30433	191
2.30800	194
2.31167	197
2.31533	198
2.31900	198
2.32267	199
2.32633	200
2.33000	200
2.33367	200
2.33733	201
2.34100	204
2.34467	205
2.34833	206
2.35200	205
2.35567	205
2.35933	208
2.36300	208
2.36667	207
2.37033	208
2.37400	210
2.37767	213
2.38133	214
2.38500	213
2.38867	210
2.39233	209
2.39600	210
2.39967	213
2.40333	217
2.40700	221
2.41067	223
2.41433	226
2.41800	229
2.42167	230
2.42533	232
2.42900	231
2.43267	231
2.43633	232
2.44000	236
2.44367	294
2.44733	443
2.45100	605
2.45467	739
2.45833	815
2.46200	823
2.46567	794
2.46933	758
2.47300	732
2.47667	718
2.48033	703
2.48400	674
2.48767	630
2.49133	578
2.49500	532
2.49867	494
2.50233	469
2.50600	453
2.50967	447
2.51333	453
2.51700	468
2.52067	488
2.52433	507
2.52800	517
2.53167	513
2.53533	497
2.53900	473
2.54267	442
2.54633	411
2.55000	383
2.55367	357
2.55733	336
2.56100	319
2.56467	305
2.56833	295
2.57200	289
2.57567	283
2.57933	282
2.58300	282
2.58667	283
2.59033	284
2.59400	284
2.59767	284
2.60133	283
2.60500	277
2.60867	268
2.61233	258
2.61600	247
2.61967	237
2.62333	227
2.62700	218
2.63067	210
2.63433	202
2.63800	195
2.64167	189
2.64533	182
2.64900	174
2.65267	162
2.65633	153
2.66000	144
2.66367	134
2.66733	125
2.67100	118
2.67467	112
2.67833	106
2.68200	102
2.68567	98
2.68933	97
2.69300	97
2.69667	98
2.70033	98
2.70400	99
2.70767	103
2.71133	106
2.71500	109
2.71867	112
2.72233	117
2.72600	122
2.72967	126
2.73333	130
2.73700	133
2.74067	136
2.74433	140
2.74800	144
2.75167	148
2.75533	149
2.75900	150
2.76267	153
2.76633	154
2.77000	157
2.77367	161
2.77733	167
2.78100	173
2.78467	177
2.78833	180
2.79200	184
2.79567	187
2.79933	190
2.80300	195
2.80667	203
2.81033	210
2.81400	216
2.81767	224
2.82133	235
2.82500	254
2.82867	290
2.83233	358
2.83600	480
2.83967	674
2.84333	962
2.84700	1355
2.85067	1840
2.85433	2395
2.85800	2984
2.86167	3562
2.86533	4084
2.86900	4508
2.87267	4802
2.87633	4951
2.88000	4960
2.88367	4846
2.88733	4638
2.89100	4361
2.89467	4042
2.89833	3701
2.90200	3356
2.90567	3022
2.90933	2706
2.91300	2413
2.91667	2148
2.92033	1910
2.92400	1696
2.92767	1506
2.93133	1339
2.93500	1191
2.93867	1062
2.94233	951
2.94600	854
2.94967	768
2.95333	695
2.95700	632
2.96067	578
2.96433	531
2.96800	488
2.97167	449
2.97533	414
2.97900	386
2.98267	362
2.98633	342
2.99000	327
2.99367	313
2.99733	301
3.00100	288
3.00467	273
3.00833	246
3.01200	203
3.01567	170
3.01933	159
3.02300	163
3.02667	179
3.03033	207
3.03400	247
3.03767	293
3.04133	341
3.04500	392
3.04867	441
3.05233	486
3.05600	526
3.05967	560
3.06333	591
3.06700	619
3.07067	644
3.07433	663
3.07800	677
3.08167	693
3.08533	706
3.08900	716
3.09267	722
3.09633	729
3.10000	734
3.10367	739
3.10733	742
3.11100	746
3.11467	749
3.11833	756
3.12200	762
3.12567	767
3.12933	772
3.13300	774
3.13667	776
3.14033	781
3.14400	782
3.14767	784
3.15133	789
3.15500	795
3.15867	800
3.16233	802
3.16600	804
3.16967	808
3.17333	814
3.17700	818
3.18067	824
3.18433	831
3.18800	838
3.19167	843
3.19533	845
3.19900	850
3.20267	858
3.20633	864
3.21000	871
3.21367	877
3.21733	882
3.22100	888
3.22467	892
3.22833	895
3.23200	899
3.23567	904
3.23933	909
3.24300	912
3.24667	914
3.25033	915
3.25400	915
3.25767	916
3.26133	919
3.26500	922
3.26867	927
3.27233	929
3.27600	930
3.27967	932
3.28333	934
3.28700	935
3.29067	937
3.29433	939
3.29800	937
3.30167	935
3.30533	932
3.30900	932
3.31267	933
3.31633	933
3.32000	933
3.32367	933
3.32733	932
3.33100	931
3.33467	930
3.33833	927
3.34200	924
3.34567	919
3.34933	914
3.35300	910
3.35667	908
3.36033	908
3.36400	908
3.36767	906
3.37133	902
3.37500	899
3.37867	896
3.38233	894
3.38600	892
3.38967	891
3.39333	891
3.39700	890
3.40067	890
3.40433	890
3.40800	890
3.41167	889
3.41533	885
3.41900	882
3.42267	880
3.42633	878
3.43000	878
3.43367	880
3.43733	881
3.44100	881
3.44467	880
3.44833	880
3.45200	878
3.45567	876
3.45933	875
3.46300	875
3.46667	873
3.47033	870
3.47400	870
3.47767	870
3.48133	870
3.48500	868
3.48867	866
3.49233	866
3.49600	866
3.49967	864
3.50333	861
3.50700	859
3.51067	857
3.51433	856
3.51800	857
3.52167	857
3.52533	855
3.52900	853
3.53267	851
3.53633	850
3.54000	848
3.54367	846
3.54733	844
3.55100	840
3.55467	838
3.55833	838
3.56200	837
3.56567	834
3.56933	833
3.57300	832
3.57667	828
3.58033	825
3.58400	824
3.58767	823
3.59133	821
3.59500	818
3.59867	817
3.60233	817
3.60600	816
3.60967	815
3.61333	813
3.61700	813
3.62067	812
3.62433	809
3.62800	805
3.63167	800
3.63533	798
3.63900	794
3.64267	790
3.64633	790
3.65000	789
3.65367	786
3.65733	783
3.66100	780
3.66467	780
3.66833	780
3.67200	779
3.67567	777
3.67933	776
3.68300	776
3.68667	777
3.69033	776
3.69400	772
3.69767	768
3.70133	762
3.70500	758
3.70867	757
3.71233	754
3.71600	751
3.71967	747
3.72333	746
3.72700	744
3.73067	742
3.73433	740
3.73800	739
3.74167	737
3.74533	733
3.74900	731
3.75267	730
3.75633	730
3.76000	729
3.76367	725
3.76733	721
3.77100	719
3.77467	716
3.77833	712
3.78200	708
3.78567	705
3.78933	702
3.79300	702
3.79667	702
3.80033	703
3.80400	702
3.80767	698
3.81133	694
3.81500	692
3.81867	692
3.82233	691
3.82600	690
3.82967	687
3.83333	683
3.83700	681
3.84067	677
3.84433	675
3.84800	673
3.85167	673
3.85533	673
3.85900	673
3.86267	672
3.86633	670
3.87000	670
3.87367	671
3.87733	671
3.88100	669
3.88467	667
3.88833	666
3.89200	663
3.89567	660
3.89933	656
3.90300	653
3.90667	651
3.91033	650
3.91400	651
3.91767	649
3.92133	648
3.92500	648
3.92867	646
3.93233	642
3.93600	637
3.93967	635
3.94333	634
3.94700	633
3.95067	631
3.95433	630
3.95800	628
3.96167	627
3.96533	626
3.96900	625
3.97267	625
3.97633	625
3.98000	625
3.98367	626
3.98733	625
3.99100	622
3.99467	620
3.99833	617

[Status Trace (Column Oven Temperature)]
Interval(msec)	1000
# of Points	240
Start Time(min)	0.001
End Time(min)	3.985
Intensity Units	
Intensity Multiplier	1
R.Time (min)	Intensity
0.00130	35.03
0.01797	35.03
0.03463	35.02
0.05130	35.01
0.06797	35.01
0.08463	35.01
0.10130	35.00
0.11797	35.00
0.13463	35.01
0.15130	35.02
0.16797	35.01
0.18463	35.02
0.20130	35.02
0.21797	35.03
0.23463	35.03
0.25130	35.03
0.26797	35.01
0.28463	35.00
0.30130	35.00
0.31797	35.00
0.33463	35.01
0.35130	35.01
0.36797	35.01
0.38463	35.02
0.40130	35.02
0.41797	35.02
0.43463	35.03
0.45130	35.01
0.46797	35.00
0.48463	35.00
0.50130	34.99
0.51797	34.99
0.53463	34.98
0.55130	34.97
0.56797	34.98
0.58463	34.99
0.60130	34.98
0.61797	35.00
0.63463	35.02
0.65130	35.03
0.66797	35.03
0.68463	35.03
0.70130	35.03
0.71797	35.03
0.73463	35.03
0.75130	35.02
0.76797	35.00
0.78463	34.99
0.80130	34.99
0.81797	35.00
0.83463	35.00
0.85130	35.00
0.86797	35.01
0.88463	35.02
0.90130	35.02
0.91797	35.02
0.93463	35.01
0.95130	35.02
0.96797	35.02
0.98463	35.02
1.00130	35.02
1.01797	35.01
1.03463	35.01
1.05130	35.00
1.06797	35.00
1.08463	35.01
1.10130	35.01
1.11797	35.02
1.13463	35.02
1.15130	35.03
1.16797	35.02
1.18463	35.00
1.20130	34.99
1.21797	34.98
1.23463	34.98
1.25130	34.98
1.26797	34.98
1.28463	34.98
1.30130	34.98
1.31797	34.98
1.33463	34.98
1.35130	34.97
1.36797	34.97
1.38463	34.97
1.40130	34.98
1.41797	34.99
1.43463	35.00
1.45130	35.01
1.46797	35.01
1.48463	35.01
1.50130	35.01
1.51797	35.02
1.53463	35.02
1.55130	35.01
1.56797	35.01
1.58463	34.99
1.60130	35.03
1.61797	35.13
1.63463	35.30
1.65130	35.54
1.66797	35.84
1.68463	36.20
1.70130	36.56
1.71797	36.90
1.73463	37.22
1.75130	37.52
1.76797	37.87
1.78463	38.21
1.80130	38.54
1.81797	38.87
1.83463	39.22
1.85130	39.54
1.86797	39.85
1.88463	40.18
1.90130	40.49
1.91797	40.84
1.93463	41.16
1.95130	41.50
1.96797	41.82
1.98463	42.16
2.00130	42.46
2.01797	42.79
2.03463	43.11
2.05130	43.43
2.06797	43.77
2.08463	44.10
2.10130	44.41
2.11797	44.71
2.13463	45.04
2.15130	45.37
2.16797	45.69
2.18463	46.01
2.20130	46.38
2.21797	46.70
2.23463	47.03
2.25130	47.37
2.26797	47.70
2.28463	48.03
2.30130	48.36
2.31797	48.70
2.33463	49.03
2.35130	49.33
2.36797	49.52
2.38463	49.59
2.40130	49.59
2.41797	49.60
2.43463	49.62
2.45130	49.62
2.46797	49.63
2.48463	49.65
2.50130	49.66
2.51797	49.67
2.53463	49.68
2.55130	49.70
2.56797	49.73
2.58463	49.74
2.60130	49.75
2.61797	49.78
2.63463	49.79
2.65130	49.80
2.66797	49.82
2.68463	49.81
2.70130	49.82
2.71797	49.84
2.73463	49.85
2.75130	49.85
2.76797	49.86
2.78463	49.87
2.80130	49.86
2.81797	49.86
2.83463	49.86
2.85130	49.85
2.86797	49.86
2.88463	49.87
2.90130	49.87
2.91797	49.88
2.93463	49.90
2.95130	49.90
2.96797	49.91
2.98463	49.93
3.00130	49.95
3.01797	49.97
3.03463	49.98
3.05130	49.99
3.06797	50.01
3.08463	50.02
3.10130	50.02
3.11797	50.03
3.13463	50.04
3.15130	50.04
3.16797	50.05
3.18463	50.05
3.20130	50.07
3.21797	50.08
3.23463	50.08
3.25130	50.07
3.26797	50.08
3.28463	50.10
3.30130	50.10
3.31797	50.10
3.33463	50.10
3.35130	50.08
3.36797	50.08
3.38463	50.08
3.40130	50.08
3.41797	50.07
3.43463	50.07
3.45130	50.06
3.46797	50.06
3.48463	50.06
3.50130	50.06
3.51797	50.05
3.53463	50.04
3.55130	50.04
3.56797	50.04
3.58463	50.04
3.60130	50.04
3.61797	50.03
3.63463	50.04
3.65130	50.06
3.66797	50.06
3.68463	50.06
3.70130	50.07
3.71797	50.09
3.73463	50.09
3.75130	50.09
3.76797	50.09
3.78463	50.08
3.80130	50.08
3.81797	50.07
3.83463	50.06
3.85130	50.06
3.86797	50.07
3.88463	50.07
3.90130	50.07
3.91797	50.07
3.93463	50.07
3.95130	50.07
3.96797	50.08
3.98463	50.09

[Status Trace (Injection Unit Temperature)]
Interval(msec)	1000
# of Points	240
Start Time(min)	0.001
End Time(min)	3.985
Intensity Units	
Intensity Multiplier	1
R.Time (min)	Intensity
0.00130	99.98
0.01797	99.97
0.03463	99.98
0.05130	99.98
0.06797	99.98
0.08463	99.98
0.10130	99.98
0.11797	99.98
0.13463	99.98
0.15130	99.98
0.16797	99.98
0.18463	99.98
0.20130	99.98
0.21797	99.98
0.23463	99.98
0.25130	99.98
0.26797	99.98
0.28463	99.98
0.30130	99.98
0.31797	99.99
0.33463	99.98
0.35130	99.98
0.36797	99.98
0.38463	99.98
0.40130	99.99
0.41797	99.99
0.43463	99.98
0.45130	99.98
0.46797	99.99
0.48463	99.99
0.50130	99.98
0.51797	99.98
0.53463	99.98
0.55130	99.99
0.56797	99.98
0.58463	99.98
0.60130	99.99
0.61797	99.98
0.63463	99.98
0.65130	99.98
0.66797	99.98
0.68463	99.98
0.70130	99.98
0.71797	99.99
0.73463	99.98
0.75130	99.98
0.76797	99.98
0.78463	99.99
0.80130	99.98
0.81797	99.99
0.83463	99.98
0.85130	99.98
0.86797	99.98
0.88463	99.98
0.90130	99.99
0.91797	99.98
0.93463	99.98
0.95130	99.98
0.96797	99.98
0.98463	99.98
1.00130	99.98
1.01797	99.98
1.03463	99.98
1.05130	99.99
1.06797	99.99
1.08463	99.99
1.10130	99.98
1.11797	99.98
1.13463	99.98
1.15130	99.98
1.16797	99.98
1.18463	99.98
1.20130	99.98
1.21797	99.99
1.23463	99.99
1.25130	99.98
1.26797	99.98
1.28463	99.99
1.30130	99.98
1.31797	99.99
1.33463	99.99
1.35130	99.98
1.36797	99.98
1.38463	99.99
1.40130	99.98
1.41797	99.98
1.43463	99.98
1.45130	99.98
1.46797	99.98
1.48463	99.98
1.50130	99.99
1.51797	99.98
1.53463	99.98
1.55130	99.98
1.56797	99.98
1.58463	99.98
1.60130	99.98
1.61797	99.98
1.63463	99.98
1.65130	99.98
1.66797	99.98
1.68463	99.98
1.70130	99.98
1.71797	99.98
1.73463	99.98
1.75130	99.97
1.76797	99.97
1.78463	99.98
1.80130	99.97
1.81797	99.98
1.83463	99.97
1.85130	99.97
1.86797	99.98
1.88463	99.97
1.90130	99.97
1.91797	99.97
1.93463	99.97
1.95130	99.97
1.96797	99.97
1.98463	99.97
2.00130	99.97
2.01797	99.97
2.03463	99.97
2.05130	99.97
2.06797	99.97
2.08463	99.97
2.10130	99.97
2.11797	99.97
2.13463	99.97
2.15130	99.97
2.16797	99.96
2.18463	99.97
2.20130	99.96
2.21797	99.97
2.23463	99.97
2.25130	99.97
2.26797	99.97
2.28463	99.97
2.30130	99.97
2.31797	99.97
2.33463	99.97
2.35130	99.97
2.36797	99.97
2.38463	99.97
2.40130	99.97
2.41797	99.97
2.43463	99.97
2.45130	99.97
2.46797	99.97
2.48463	99.98
2.50130	99.98
2.51797	99.98
2.53463	99.98
2.55130	99.98
2.56797	99.98
2.58463	99.98
2.60130	99.98
2.61797	99.98
2.63463	99.98
2.65130	99.98
2.66797	99.99
2.68463	99.99
2.70130	99.98
2.71797	99.99
2.73463	99.99
2.75130	99.99
2.76797	99.99
2.78463	99.99
2.80130	99.98
2.81797	99.99
2.83463	99.99
2.85130	99.99
2.86797	100.00
2.88463	100.00
2.90130	100.00
2.91797	100.00
2.93463	100.00
2.95130	100.00
2.96797	100.01
2.98463	100.01
3.00130	100.01
3.01797	100.01
3.03463	100.01
3.05130	100.01
3.06797	100.01
3.08463	100.02
3.10130	100.02
3.11797	100.02
3.13463	100.02
3.15130	100.02
3.16797	100.02
3.18463	100.02
3.20130	100.02
3.21797	100.02
3.23463	100.02
3.25130	100.02
3.26797	100.03
3.28463	100.03
3.30130	100.03
3.31797	100.03
3.33463	100.03
3.35130	100.03
3.36797	100.03
3.38463	100.03
3.40130	100.03
3.41797	100.03
3.43463	100.03
3.45130	100.04
3.46797	100.03
3.48463	100.04
3.50130	100.04
3.51797	100.04
3.53463	100.04
3.55130	100.04
3.56797	100.04
3.58463	100.04
3.60130	100.03
3.61797	100.04
3.63463	100.04
3.65130	100.04
3.66797	100.04
3.68463	100.04
3.70130	100.04
3.71797	100.04
3.73463	100.04
3.75130	100.04
3.76797	100.04
3.78463	100.04
3.80130	100.04
3.81797	100.04
3.83463	100.04
3.85130	100.04
3.86797	100.05
3.88463	100.04
3.90130	100.04
3.91797	100.04
3.93463	100.05
3.95130	100.05
3.96797	100.04
3.98463	100.05

[Status Trace (Carrier Gas Pressure)]
Interval(msec)	1000
# of Points	240
Start Time(min)	0.001
End Time(min)	3.985
Intensity Units	
Intensity Multiplier	1
R.Time (min)	Intensity
0.00130	58.00
0.01797	56.42
0.03463	56.11
0.05130	58.45
0.06797	59.87
0.08463	58.37
0.10130	57.97
0.11797	58.00
0.13463	58.01
0.15130	58.01
0.16797	58.00
0.18463	58.00
0.20130	58.00
0.21797	58.00
0.23463	58.00
0.25130	58.00
0.26797	58.00
0.28463	58.00
0.30130	58.00
0.31797	58.00
0.33463	58.00
0.35130	58.00
0.36797	58.00
0.38463	58.00
0.40130	58.00
0.41797	58.00
0.43463	58.00
0.45130	58.00
0.46797	58.00
0.48463	58.00
0.50130	58.00
0.51797	58.00
0.53463	58.00
0.55130	58.00
0.56797	58.00
0.58463	58.00
0.60130	58.00
0.61797	58.00
0.63463	58.00
0.65130	58.00
0.66797	58.00
0.68463	58.00
0.70130	58.00
0.71797	58.00
0.73463	58.00
0.75130	58.00
0.76797	58.00
0.78463	58.00
0.80130	58.00
0.81797	58.00
0.83463	58.00
0.85130	58.00
0.86797	58.00
0.88463	58.00
0.90130	58.00
0.91797	58.00
0.93463	58.00
0.95130	58.00
0.96797	58.00
0.98463	58.00
1.00130	58.00
1.01797	58.00
1.03463	58.00
1.05130	58.00
1.06797	58.00
1.08463	58.00
1.10130	58.00
1.11797	58.00
1.13463	58.00
1.15130	58.00
1.16797	58.00
1.18463	58.00
1.20130	58.00
1.21797	58.00
1.23463	58.00
1.25130	58.00
1.26797	58.00
1.28463	58.00
1.30130	58.00
1.31797	58.00
1.33463	58.00
1.35130	58.00
1.36797	58.00
1.38463	58.00
1.40130	58.00
1.41797	58.00
1.43463	58.00
1.45130	58.00
1.46797	58.00
1.48463	58.00
1.50130	58.00
1.51797	58.00
1.53463	58.00
1.55130	58.00
1.56797	58.00
1.58463	58.00
1.60130	58.00
1.61797	58.00
1.63463	58.00
1.65130	58.00
1.66797	58.01
1.68463	58.01
1.70130	58.00
1.71797	58.00
1.73463	58.00
1.75130	58.00
1.76797	58.00
1.78463	58.00
1.80130	58.00
1.81797	58.00
1.83463	58.00
1.85130	58.00
1.86797	58.00
1.88463	58.00
1.90130	58.00
1.91797	58.00
1.93463	58.00
1.95130	58.00
1.96797	58.00
1.98463	58.00
2.00130	58.00
2.01797	58.00
2.03463	58.00
2.05130	58.00
2.06797	58.00
2.08463	58.00
2.10130	58.00
2.11797	58.00
2.13463	58.00
2.15130	58.00
2.16797	58.00
2.18463	58.00
2.20130	58.00
2.21797	58.00
2.23463	58.00
2.25130	58.00
2.26797	58.00
2.28463	58.00
2.30130	58.00
2.31797	58.00
2.33463	58.00
2.35130	58.00
2.36797	58.00
2.38463	57.99
2.40130	57.99
2.41797	58.00
2.43463	58.00
2.45130	58.00
2.46797	58.00
2.48463	58.00
2.50130	58.00
2.51797	58.00
2.53463	57.99
2.55130	58.00
2.56797	58.00
2.58463	58.00
2.60130	58.00
2.61797	58.00
2.63463	58.00
2.65130	58.00
2.66797	58.00
2.68463	58.00
2.70130	58.00
2.71797	58.00
2.73463	58.00
2.75130	58.00
2.76797	58.00
2.78463	58.00
2.80130	58.00
2.81797	58.00
2.83463	58.00
2.85130	58.00
2.86797	58.00
2.88463	58.00
2.90130	58.00
2.91797	58.00
2.93463	58.00
2.95130	58.00
2.96797	58.00
2.98463	58.00
3.00130	58.00
3.01797	58.00
3.03463	58.00
3.05130	58.00
3.06797	58.00
3.08463	58.00
3.10130	58.00
3.11797	58.00
3.13463	58.00
3.15130	58.00
3.16797	58.00
3.18463	58.00
3.20130	58.00
3.21797	58.00
3.23463	58.00
3.25130	58.00
3.26797	58.00
3.28463	58.00
3.30130	58.00
3.31797	58.00
3.33463	58.00
3.35130	58.00
3.36797	58.00
3.38463	58.00
3.40130	58.00
3.41797	58.00
3.43463	58.00
3.45130	58.00
3.46797	58.00
3.48463	58.00
3.50130	58.00
3.51797	58.00
3.53463	58.00
3.55130	58.00
3.56797	58.00
3.58463	58.00
3.60130	58.00
3.61797	58.00
3.63463	58.00
3.65130	58.00
3.66797	58.00
3.68463	58.00
3.70130	58.00
3.71797	58.00
3.73463	58.00
3.75130	58.00
3.76797	58.00
3.78463	58.00
3.80130	58.00
3.81797	58.00
3.83463	58.00
3.85130	58.00
3.86797	58.00
3.88463	58.00
3.90130	58.00
3.91797	58.00
3.93463	58.00
3.95130	58.00
3.96797	58.00
3.98463	58.00

[Status Trace (Carrier Gas Flow)]
Interval(msec)	1000
# of Points	240
Start Time(min)	0.001
End Time(min)	3.985
Intensity Units	
Intensity Multiplier	1
R.Time (min)	Intensity
0.00130	34.52
0.01797	34.49
0.03463	34.55
0.05130	34.55
0.06797	34.49
0.08463	34.51
0.10130	34.52
0.11797	34.51
0.13463	34.52
0.15130	34.52
0.16797	34.52
0.18463	34.51
0.20130	34.52
0.21797	34.52
0.23463	34.52
0.25130	34.52
0.26797	34.52
0.28463	34.52
0.30130	34.52
0.31797	34.52
0.33463	34.52
0.35130	34.51
0.36797	34.52
0.38463	34.52
0.40130	34.52
0.41797	34.52
0.43463	34.52
0.45130	34.51
0.46797	34.52
0.48463	34.52
0.50130	34.52
0.51797	34.52
0.53463	34.52
0.55130	34.52
0.56797	34.52
0.58463	34.52
0.60130	34.52
0.61797	34.52
0.63463	34.51
0.65130	34.52
0.66797	34.52
0.68463	34.52
0.70130	34.52
0.71797	34.52
0.73463	34.52
0.75130	34.52
0.76797	34.52
0.78463	34.52
0.80130	34.52
0.81797	34.52
0.83463	34.53
0.85130	34.52
0.86797	34.51
0.88463	34.53
0.90130	34.52
0.91797	34.51
0.93463	34.53
0.95130	34.53
0.96797	34.51
0.98463	34.52
1.00130	34.52
1.01797	34.52
1.03463	34.52
1.05130	34.52
1.06797	34.52
1.08463	34.52
1.10130	34.52
1.11797	34.52
1.13463	34.52
1.15130	34.52
1.16797	34.51
1.18463	34.52
1.20130	34.52
1.21797	34.52
1.23463	34.52
1.25130	34.52
1.26797	34.53
1.28463	34.52
1.30130	34.52
1.31797	34.51
1.33463	34.52
1.35130	34.52
1.36797	34.52
1.38463	34.52
1.40130	34.52
1.41797	34.52
1.43463	34.52
1.45130	34.52
1.46797	34.52
1.48463	34.52
1.50130	34.51
1.51797	34.52
1.53463	34.52
1.55130	34.52
1.56797	34.51
1.58463	34.52
1.60130	34.52
1.61797	34.52
1.63463	34.51
1.65130	34.52
1.66797	34.52
1.68463	34.52
1.70130	34.52
1.71797	34.52
1.73463	34.52
1.75130	34.52
1.76797	34.52
1.78463	34.52
1.80130	34.52
1.81797	34.52
1.83463	34.51
1.85130	34.51
1.86797	34.52
1.88463	34.52
1.90130	34.52
1.91797	34.52
1.93463	34.52
1.95130	34.52
1.96797	34.52
1.98463	34.53
2.00130	34.52
2.01797	34.52
2.03463	34.52
2.05130	34.52
2.06797	34.52
2.08463	34.52
2.10130	34.51
2.11797	34.52
2.13463	34.52
2.15130	34.52
2.16797	34.52
2.18463	34.52
2.20130	34.52
2.21797	34.51
2.23463	34.51
2.25130	34.52
2.26797	34.52
2.28463	34.52
2.30130	34.52
2.31797	34.52
2.33463	34.52
2.35130	34.52
2.36797	34.52
2.38463	34.51
2.40130	34.52
2.41797	34.51
2.43463	34.51
2.45130	34.52
2.46797	34.53
2.48463	34.52
2.50130	34.52
2.51797	34.52
2.53463	34.52
2.55130	34.51
2.56797	34.52
2.58463	34.52
2.60130	34.52
2.61797	34.51
2.63463	34.51
2.65130	34.52
2.66797	34.52
2.68463	34.52
2.70130	34.52
2.71797	34.53
2.73463	34.52
2.75130	34.52
2.76797	34.52
2.78463	34.52
2.80130	34.52
2.81797	34.52
2.83463	34.51
2.85130	34.52
2.86797	34.52
2.88463	34.52
2.90130	34.52
2.91797	34.52
2.93463	34.52
2.95130	34.52
2.96797	34.52
2.98463	34.52
3.00130	34.52
3.01797	34.51
3.03463	34.52
3.05130	34.52
3.06797	34.52
3.08463	34.52
3.10130	34.52
3.11797	34.52
3.13463	34.52
3.15130	34.52
3.16797	34.52
3.18463	34.52
3.20130	34.52
3.21797	34.52
3.23463	34.52
3.25130	34.52
3.26797	34.52
3.28463	34.51
3.30130	34.52
3.31797	34.52
3.33463	34.52
3.35130	34.52
3.36797	34.52
3.38463	34.52
3.40130	34.52
3.41797	34.52
3.43463	34.52
3.45130	34.52
3.46797	34.51
3.48463	34.52
3.50130	34.52
3.51797	34.52
3.53463	34.52
3.55130	34.52
3.56797	34.52
3.58463	34.52
3.60130	34.53
3.61797	34.52
3.63463	34.52
3.65130	34.52
3.66797	34.51
3.68463	34.52
3.70130	34.52
3.71797	34.52
3.73463	34.51
3.75130	34.52
3.76797	34.52
3.78463	34.52
3.80130	34.52
3.81797	34.52
3.83463	34.52
3.85130	34.52
3.86797	34.52
3.88463	34.52
3.90130	34.52
3.91797	34.52
3.93463	34.52
3.95130	34.52
3.96797	34.52
3.98463	34.52

[Status Trace (Column Flow)]
Interval(msec)	1000
# of Points	240
Start Time(min)	0.001
End Time(min)	3.985
Intensity Units	
Intensity Multiplier	1
R.Time (min)	Intensity
0.00130	5.54
0.01797	5.35
0.03463	5.32
0.05130	5.59
0.06797	5.76
0.08463	5.58
0.10130	5.53
0.11797	5.54
0.13463	5.54
0.15130	5.54
0.16797	5.54
0.18463	5.54
0.20130	5.54
0.21797	5.54
0.23463	5.54
0.25130	5.54
0.26797	5.54
0.28463	5.54
0.30130	5.54
0.31797	5.54
0.33463	5.54
0.35130	5.54
0.36797	5.54
0.38463	5.54
0.40130	5.54
0.41797	5.54
0.43463	5.54
0.45130	5.54
0.46797	5.54
0.48463	5.54
0.50130	5.54
0.51797	5.54
0.53463	5.54
0.55130	5.54
0.56797	5.54
0.58463	5.54
0.60130	5.54
0.61797	5.54
0.63463	5.54
0.65130	5.54
0.66797	5.54
0.68463	5.54
0.70130	5.54
0.71797	5.54
0.73463	5.54
0.75130	5.54
0.76797	5.54
0.78463	5.54
0.80130	5.54
0.81797	5.54
0.83463	5.54
0.85130	5.54
0.86797	5.54
0.88463	5.54
0.90130	5.54
0.91797	5.54
0.93463	5.54
0.95130	5.54
0.96797	5.54
0.98463	5.54
1.00130	5.54
1.01797	5.54
1.03463	5.54
1.05130	5.54
1.06797	5.54
1.08463	5.54
1.10130	5.54
1.11797	5.54
1.13463	5.54
1.15130	5.54
1.16797	5.54
1.18463	5.54
1.20130	5.54
1.21797	5.54
1.23463	5.54
1.25130	5.54
1.26797	5.54
1.28463	5.54
1.30130	5.54
1.31797	5.54
1.33463	5.54
1.35130	5.54
1.36797	5.54
1.38463	5.54
1.40130	5.54
1.41797	5.54
1.43463	5.54
1.45130	5.54
1.46797	5.54
1.48463	5.54
1.50130	5.54
1.51797	5.54
1.53463	5.54
1.55130	5.54
1.56797	5.54
1.58463	5.54
1.60130	5.54
1.61797	5.53
1.63463	5.53
1.65130	5.52
1.66797	5.51
1.68463	5.50
1.70130	5.49
1.71797	5.48
1.73463	5.47
1.75130	5.46
1.76797	5.45
1.78463	5.44
1.80130	5.43
1.81797	5.42
1.83463	5.41
1.85130	5.40
1.86797	5.39
1.88463	5.38
1.90130	5.37
1.91797	5.36
1.93463	5.35
1.95130	5.34
1.96797	5.33
1.98463	5.32
2.00130	5.31
2.01797	5.30
2.03463	5.29
2.05130	5.28
2.06797	5.27
2.08463	5.26
2.10130	5.25
2.11797	5.24
2.13463	5.23
2.15130	5.22
2.16797	5.21
2.18463	5.20
2.20130	5.19
2.21797	5.19
2.23463	5.18
2.25130	5.17
2.26797	5.16
2.28463	5.15
2.30130	5.14
2.31797	5.13
2.33463	5.12
2.35130	5.11
2.36797	5.11
2.38463	5.10
2.40130	5.10
2.41797	5.10
2.43463	5.10
2.45130	5.10
2.46797	5.10
2.48463	5.10
2.50130	5.10
2.51797	5.10
2.53463	5.10
2.55130	5.10
2.56797	5.10
2.58463	5.10
2.60130	5.10
2.61797	5.10
2.63463	5.10
2.65130	5.10
2.66797	5.10
2.68463	5.10
2.70130	5.10
2.71797	5.10
2.73463	5.10
2.75130	5.10
2.76797	5.10
2.78463	5.10
2.80130	5.10
2.81797	5.10
2.83463	5.10
2.85130	5.10
2.86797	5.10
2.88463	5.10
2.90130	5.10
2.91797	5.10
2.93463	5.10
2.95130	5.10
2.96797	5.09
2.98463	5.09
3.00130	5.09
3.01797	5.09
3.03463	5.09
3.05130	5.09
3.06797	5.09
3.08463	5.09
3.10130	5.09
3.11797	5.09
3.13463	5.09
3.15130	5.09
3.16797	5.09
3.18463	5.09
3.20130	5.09
3.21797	5.09
3.23463	5.09
3.25130	5.09
3.26797	5.09
3.28463	5.09
3.30130	5.09
3.31797	5.09
3.33463	5.09
3.35130	5.09
3.36797	5.09
3.38463	5.09
3.40130	5.09
3.41797	5.09
3.43463	5.09
3.45130	5.09
3.46797	5.09
3.48463	5.09
3.50130	5.09
3.51797	5.09
3.53463	5.09
3.55130	5.09
3.56797	5.09
3.58463	5.09
3.60130	5.09
3.61797	5.09
3.63463	5.09
3.65130	5.09
3.66797	5.09
3.68463	5.09
3.70130	5.09
3.71797	5.09
3.73463	5.09
3.75130	5.09
3.76797	5.09
3.78463	5.09
3.80130	5.09
3.81797	5.09
3.83463	5.09
3.85130	5.09
3.86797	5.09
3.88463	5.09
3.90130	5.09
3.91797	5.09
3.93463	5.09
3.95130	5.09
3.96797	5.09
3.98463	5.09

[Status Trace (Linear Velocity)]
Interval(msec)	1000
# of Points	240
Start Time(min)	0.001
End Time(min)	3.985
Intensity Units	
Intensity Multiplier	1
R.Time (min)	Intensity
0.00130	39.02
0.01797	37.98
0.03463	37.78
0.05130	39.31
0.06797	40.25
0.08463	39.26
0.10130	39.00
0.11797	39.02
0.13463	39.03
0.15130	39.02
0.16797	39.02
0.18463	39.02
0.20130	39.02
0.21797	39.02
0.23463	39.02
0.25130	39.02
0.26797	39.02
0.28463	39.02
0.30130	39.02
0.31797	39.02
0.33463	39.02
0.35130	39.02
0.36797	39.02
0.38463	39.02
0.40130	39.02
0.41797	39.02
0.43463	39.02
0.45130	39.02
0.46797	39.02
0.48463	39.02
0.50130	39.02
0.51797	39.02
0.53463	39.02
0.55130	39.02
0.56797	39.02
0.58463	39.02
0.60130	39.02
0.61797	39.02
0.63463	39.02
0.65130	39.02
0.66797	39.02
0.68463	39.02
0.70130	39.02
0.71797	39.02
0.73463	39.02
0.75130	39.02
0.76797	39.02
0.78463	39.02
0.80130	39.02
0.81797	39.02
0.83463	39.02
0.85130	39.02
0.86797	39.02
0.88463	39.02
0.90130	39.02
0.91797	39.02
0.93463	39.02
0.95130	39.02
0.96797	39.02
0.98463	39.02
1.00130	39.02
1.01797	39.02
1.03463	39.02
1.05130	39.02
1.06797	39.02
1.08463	39.02
1.10130	39.02
1.11797	39.02
1.13463	39.02
1.15130	39.02
1.16797	39.02
1.18463	39.02
1.20130	39.02
1.21797	39.02
1.23463	39.02
1.25130	39.02
1.26797	39.02
1.28463	39.02
1.30130	39.02
1.31797	39.02
1.33463	39.02
1.35130	39.02
1.36797	39.02
1.38463	39.02
1.40130	39.02
1.41797	39.02
1.43463	39.02
1.45130	39.02
1.46797	39.02
1.48463	39.02
1.50130	39.02
1.51797	39.02
1.53463	39.02
1.55130	39.02
1.56797	39.02
1.58463	39.02
1.60130	39.02
1.61797	39.01
1.63463	38.99
1.65130	38.97
1.66797	38.94
1.68463	38.91
1.70130	38.87
1.71797	38.84
1.73463	38.81
1.75130	38.78
1.76797	38.75
1.78463	38.71
1.80130	38.68
1.81797	38.65
1.83463	38.62
1.85130	38.59
1.86797	38.56
1.88463	38.53
1.90130	38.50
1.91797	38.47
1.93463	38.44
1.95130	38.41
1.96797	38.37
1.98463	38.34
2.00130	38.32
2.01797	38.29
2.03463	38.26
2.05130	38.23
2.06797	38.20
2.08463	38.17
2.10130	38.14
2.11797	38.11
2.13463	38.08
2.15130	38.05
2.16797	38.02
2.18463	37.99
2.20130	37.96
2.21797	37.93
2.23463	37.90
2.25130	37.87
2.26797	37.84
2.28463	37.81
2.30130	37.78
2.31797	37.75
2.33463	37.72
2.35130	37.69
2.36797	37.68
2.38463	37.67
2.40130	37.67
2.41797	37.67
2.43463	37.67
2.45130	37.67
2.46797	37.67
2.48463	37.67
2.50130	37.67
2.51797	37.67
2.53463	37.66
2.55130	37.66
2.56797	37.66
2.58463	37.66
2.60130	37.66
2.61797	37.66
2.63463	37.65
2.65130	37.65
2.66797	37.65
2.68463	37.65
2.70130	37.65
2.71797	37.65
2.73463	37.65
2.75130	37.65
2.76797	37.65
2.78463	37.65
2.80130	37.65
2.81797	37.65
2.83463	37.65
2.85130	37.65
2.86797	37.65
2.88463	37.65
2.90130	37.65
2.91797	37.65
2.93463	37.65
2.95130	37.64
2.96797	37.64
2.98463	37.64
3.00130	37.64
3.01797	37.64
3.03463	37.64
3.05130	37.64
3.06797	37.64
3.08463	37.63
3.10130	37.63
3.11797	37.63
3.13463	37.63
3.15130	37.63
3.16797	37.63
3.18463	37.63
3.20130	37.63
3.21797	37.63
3.23463	37.63
3.25130	37.63
3.26797	37.63
3.28463	37.63
3.30130	37.63
3.31797	37.63
3.33463	37.63
3.35130	37.63
3.36797	37.63
3.38463	37.63
3.40130	37.63
3.41797	37.63
3.43463	37.63
3.45130	37.63
3.46797	37.63
3.48463	37.63
3.50130	37.63
3.51797	37.63
3.53463	37.63
3.55130	37.63
3.56797	37.63
3.58463	37.63
3.60130	37.63
3.61797	37.63
3.63463	37.63
3.65130	37.63
3.66797	37.63
3.68463	37.63
3.70130	37.63
3.71797	37.63
3.73463	37.63
3.75130	37.63
3.76797	37.63
3.78463	37.63
3.80130	37.63
3.81797	37.63
3.83463	37.63
3.85130	37.63
3.86797	37.63
3.88463	37.63
3.90130	37.63
3.91797	37.63
3.93463	37.63
3.95130	37.63
3.96797	37.63
3.98463	37.63

