[Header]
Application Name	LabSolutions
Version	5.110
Data File Name	C:\Users\User\Desktop\GC Analyses\Jack\Nachusa Grasslands Sampling\T3 Timepoint July 12th\T3_07122022_030.gcd
Output Date	3/14/2023
Output Time	3:43:31 PM

[File Information]
Type	Data File
Generated	3/13/2023 5:45:25 PM
Generated by	System Administrator
Modified	3/13/2023 5:52:07 PM
Modified by	System Administrator

[Sample Information]
Operator Name	System Administrator
Acquired	3/13/2023 5:48:06 PM
Sample Type	0:Unknown
Level	0
Sample Name	030
Sample ID	030
ISTD Amount1	1
ISTD Amount2	1
ISTD Amount3	1
ISTD Amount4	1
ISTD Amount5	1
ISTD Amount6	1
ISTD Amount7	1
ISTD Amount8	1
ISTD Amount9	1
ISTD Amount10	1
ISTD Amount11	1
ISTD Amount12	1
ISTD Amount13	1
ISTD Amount14	1
ISTD Amount15	1
ISTD Amount16	1
ISTD Amount17	1
ISTD Amount18	1
ISTD Amount19	1
ISTD Amount20	1
ISTD Amount21	1
ISTD Amount22	1
ISTD Amount23	1
ISTD Amount24	1
ISTD Amount25	1
ISTD Amount26	1
ISTD Amount27	1
ISTD Amount28	1
ISTD Amount29	1
ISTD Amount30	1
ISTD Amount31	1
ISTD Amount32	1
Sample Amount	1
Dilution Factor	1
Vial#	29
Injection Volume	1
Injection Count	1
Bar Code	

[Original Files]
Data File	C:\Users\User\Desktop\GC Analyses\Jack\Nachusa Grasslands Sampling\T3 Timepoint July 12th\T3_07122022_030.gcd
Method File	C:\LabSolutions\Data\GHG_4min_2022\ghg3_togas_w_acet_4 min_new_int.gcm
Batch File	C:\LabSolutions\Data\AutoSamplerTesting\T3_07122022.gcb
Report Format File	c:\LabSolutions\System\DEFAULT.lsr

[File Description]


[Configuration]
Instrument Name	C0B7VH3-Instrument1
Instrument #	1
Line #	1
# of Detectors	3
Detector ID	DET#1	DET#2	DET#3
Detector Name	FID	PTCD	ECD
# of Channels	1	1	1

[Peak Table(Ch1)]
# of Peaks	3
Peak#	R.Time	I.Time	F.Time	Area	Height	A/H	Conc.	Mark	ID#	Name	k'	Plate #	Plate Ht.	Tailing	Resolution	Sep.Factor	Area Ratio	Height Ratio	Conc. %	Norm Conc.
1	1.476	1.439	1.531	22884	11298	2.025	161.562	   	1	CO	0.000	9577	15.663	1.217	0.000	0.000	0	0	19.221	19.221
2	1.571	1.538	1.611	4035	2145	1.881	78.012	   	2	CH4	0.065	12261	12.233	1.091	1.629	0.000	0	0	9.281	9.281
3	2.000	1.945	2.337	2394540	1154604	2.074	600.965	   	3	CO2	0.355	17660	8.494	1.179	7.336	5.500	0	0	71.498	71.498

[Peak Table(Ch2)]
# of Peaks	0

[Peak Table(Ch3)]
# of Peaks	5
Peak#	R.Time	I.Time	F.Time	Area	Height	A/H	Conc.	Mark	ID#	Name	k'	Plate #	Plate Ht.	Tailing	Resolution	Sep.Factor	Area Ratio	Height Ratio	Conc. %	Norm Conc.
1	2.462	2.326	2.510	1759	553	3.181	0.000	   			0.000	10693	14.027	0.000	0.000	0.000	0	0	0.000	0.000
2	2.528	2.510	2.583	908	303	2.992	0.000	 V 			0.027	6490	23.111	0.000	0.598	0.000	0	0	0.000	0.000
3	2.601	2.583	2.675	434	133	3.262	0.000	 V 			0.057	2420	61.973	0.000	0.435	2.111	0	0	0.000	0.000
4	2.880	2.704	3.093	20348	5286	3.849	0.520	   	1	N2O	0.170	13205	11.359	1.534	1.788	3.000	0	0	100.000	100.000
5	3.489	3.177	3.683	1308	69	18.863	0.000	   			0.417	634	236.427	0.814	1.861	2.456	0	0	0.000	0.000

[Compound Results(Ch1)]
# of IDs	6
ID#	Name	R.Time	Area	Height	Conc.	Curve	3rd	2nd	1st	Constant	Area Ratio	Height Ratio	Conc. %	Norm Conc.
1	CO	1.476	22884	11298	161.562	Linear	0.000000e+00	0.000000e+00	1.416423e+002	0.000000e+00	0	0	19.221	19.221
2	CH4	1.571	4035	2145	78.012	Linear	0.000000e+00	0.000000e+00	5.171738e+001	0.000000e+00	0	0	9.281	9.281
3	CO2	2.000	2394540	1154604	600.965	Linear	0.000000e+00	0.000000e+00	3.984494e+003	0.000000e+00	0	0	71.498	71.498
4	Ethylene	0.000	0	0	0.000	Linear	0.000000e+00	0.000000e+00	0.000000e+00	0.000000e+00	0	0	0.000	0.000
5	Acetylene	0.000	0	0	0.000	Linear	0.000000e+00	0.000000e+00	0.000000e+00	0.000000e+00	0	0	0.000	0.000
6	Ethane	0.000	0	0	0.000	Linear	0.000000e+00	0.000000e+00	0.000000e+00	0.000000e+00	0	0	0.000	0.000

[Compound Results(Ch2)]
# of IDs	5
ID#	Name	R.Time	Area	Height	Conc.	Curve	3rd	2nd	1st	Constant	Area Ratio	Height Ratio	Conc. %	Norm Conc.
1	Hydrogen	0.000	0	0	0.000	Linear	0.000000e+00	0.000000e+00	0.000000e+00	0.000000e+00	0	0	0.000	0.000
2	Oxygen	0.000	0	0	0.000	Linear	0.000000e+00	0.000000e+00	0.000000e+00	0.000000e+00	0	0	0.000	0.000
3	Nitrogen	0.000	0	0	0.000	Linear	0.000000e+00	0.000000e+00	0.000000e+00	0.000000e+00	0	0	0.000	0.000
4	Methane	0.000	0	0	0.000	Linear	0.000000e+00	0.000000e+00	0.000000e+00	0.000000e+00	0	0	0.000	0.000
5	Carbon Monoxide	0.000	0	0	0.000	Linear	0.000000e+00	0.000000e+00	0.000000e+00	0.000000e+00	0	0	0.000	0.000

[Compound Results(Ch3)]
# of IDs	2
ID#	Name	R.Time	Area	Height	Conc.	Curve	3rd	2nd	1st	Constant	Area Ratio	Height Ratio	Conc. %	Norm Conc.
1	N2O	2.880	20348	5286	0.520	Linear	0.000000e+00	0.000000e+00	3.915173e+004	0.000000e+00	0	0	100.000	100.000
2	SF6	0.000	0	0	0.000	Linear	0.000000e+00	0.000000e+00	0.000000e+00	0.000000e+00	0	0	0.000	0.000

[Group Results(Ch1)]
# of Groups	0

[Group Results(Ch2)]
# of Groups	0

[Group Results(Ch3)]
# of Groups	0

[Chromatogram (Ch1)]
Interval(msec)	220
# of Points	1091
Start Time(min)	0.002
End Time(min)	3.998
R.Time (min)	Intensity
0.00167	9
0.00533	16
0.00900	15
0.01267	7
0.01633	2
0.02000	1
0.02367	0
0.02733	-5
0.03100	-12
0.03467	-19
0.03833	-24
0.04200	-23
0.04567	-20
0.04933	-15
0.05300	-11
0.05667	-7
0.06033	-2
0.06400	-0
0.06767	0
0.07133	-4
0.07500	-10
0.07867	-18
0.08233	-25
0.08600	-29
0.08967	-27
0.09333	-20
0.09700	-16
0.10067	-15
0.10433	-16
0.10800	-20
0.11167	-25
0.11533	-27
0.11900	-27
0.12267	-23
0.12633	-16
0.13000	-10
0.13367	-7
0.13733	-8
0.14100	-11
0.14467	-11
0.14833	-7
0.15200	-0
0.15567	5
0.15933	6
0.16300	9
0.16667	12
0.17033	17
0.17400	20
0.17767	18
0.18133	13
0.18500	11
0.18867	14
0.19233	20
0.19600	20
0.19967	18
0.20333	11
0.20700	4
0.21067	0
0.21433	-5
0.21800	-11
0.22167	-16
0.22533	-16
0.22900	-5
0.23267	12
0.23633	25
0.24000	30
0.24367	31
0.24733	26
0.25100	20
0.25467	15
0.25833	14
0.26200	12
0.26567	9
0.26933	5
0.27300	3
0.27667	1
0.28033	-0
0.28400	4
0.28767	9
0.29133	17
0.29500	28
0.29867	38
0.30233	38
0.30600	26
0.30967	15
0.31333	8
0.31700	5
0.32067	5
0.32433	8
0.32800	13
0.33167	19
0.33533	26
0.33900	32
0.34267	31
0.34633	25
0.35000	21
0.35367	19
0.35733	18
0.36100	15
0.36467	15
0.36833	16
0.37200	16
0.37567	16
0.37933	11
0.38300	8
0.38667	9
0.39033	11
0.39400	17
0.39767	20
0.40133	19
0.40500	20
0.40867	20
0.41233	24
0.41600	32
0.41967	42
0.42333	49
0.42700	48
0.43067	36
0.43433	24
0.43800	20
0.44167	18
0.44533	20
0.44900	21
0.45267	22
0.45633	21
0.46000	19
0.46367	17
0.46733	16
0.47100	17
0.47467	21
0.47833	23
0.48200	22
0.48567	22
0.48933	25
0.49300	25
0.49667	22
0.50033	15
0.50400	10
0.50767	9
0.51133	10
0.51500	11
0.51867	11
0.52233	8
0.52600	4
0.52967	-0
0.53333	-2
0.53700	-1
0.54067	0
0.54433	0
0.54800	2
0.55167	5
0.55533	7
0.55900	10
0.56267	14
0.56633	17
0.57000	15
0.57367	13
0.57733	10
0.58100	8
0.58467	7
0.58833	5
0.59200	5
0.59567	5
0.59933	4
0.60300	3
0.60667	7
0.61033	11
0.61400	16
0.61767	20
0.62133	23
0.62500	23
0.62867	22
0.63233	22
0.63600	27
0.63967	26
0.64333	23
0.64700	21
0.65067	19
0.65433	18
0.65800	17
0.66167	16
0.66533	16
0.66900	16
0.67267	20
0.67633	23
0.68000	26
0.68367	30
0.68733	31
0.69100	28
0.69467	24
0.69833	19
0.70200	12
0.70567	8
0.70933	6
0.71300	7
0.71667	11
0.72033	13
0.72400	12
0.72767	11
0.73133	11
0.73500	9
0.73867	6
0.74233	2
0.74600	4
0.74967	12
0.75333	18
0.75700	22
0.76067	27
0.76433	33
0.76800	38
0.77167	37
0.77533	27
0.77900	17
0.78267	10
0.78633	6
0.79000	3
0.79367	2
0.79733	7
0.80100	15
0.80467	24
0.80833	29
0.81200	32
0.81567	34
0.81933	31
0.82300	26
0.82667	20
0.83033	16
0.83400	11
0.83767	5
0.84133	1
0.84500	-2
0.84867	2
0.85233	8
0.85600	7
0.85967	2
0.86333	-4
0.86700	-7
0.87067	-4
0.87433	-1
0.87800	1
0.88167	1
0.88533	-1
0.88900	1
0.89267	3
0.89633	6
0.90000	5
0.90367	4
0.90733	5
0.91100	7
0.91467	8
0.91833	8
0.92200	9
0.92567	9
0.92933	8
0.93300	10
0.93667	12
0.94033	18
0.94400	26
0.94767	30
0.95133	30
0.95500	30
0.95867	28
0.96233	22
0.96600	15
0.96967	11
0.97333	6
0.97700	2
0.98067	1
0.98433	5
0.98800	8
0.99167	7
0.99533	1
0.99900	-7
1.00267	-13
1.00633	-15
1.01000	-11
1.01367	-5
1.01733	-3
1.02100	-2
1.02467	-2
1.02833	-2
1.03200	-4
1.03567	-5
1.03933	-10
1.04300	-11
1.04667	-10
1.05033	-8
1.05400	-6
1.05767	-5
1.06133	-6
1.06500	-8
1.06867	-7
1.07233	0
1.07600	7
1.07967	11
1.08333	11
1.08700	7
1.09067	3
1.09433	-2
1.09800	-5
1.10167	-4
1.10533	-3
1.10900	3
1.11267	4
1.11633	-1
1.12000	-7
1.12367	-11
1.12733	-10
1.13100	-4
1.13467	3
1.13833	7
1.14200	5
1.14567	-1
1.14933	-5
1.15300	-3
1.15667	4
1.16033	11
1.16400	14
1.16767	13
1.17133	7
1.17500	1
1.17867	-5
1.18233	-11
1.18600	-15
1.18967	-18
1.19333	-19
1.19700	-18
1.20067	-15
1.20433	-14
1.20800	-13
1.21167	-9
1.21533	-4
1.21900	-3
1.22267	-4
1.22633	-7
1.23000	-12
1.23367	-20
1.23733	-23
1.24100	-20
1.24467	-15
1.24833	-9
1.25200	-5
1.25567	-5
1.25933	-10
1.26300	-22
1.26667	-37
1.27033	-49
1.27400	-57
1.27767	-57
1.28133	-51
1.28500	-44
1.28867	-37
1.29233	-32
1.29600	-31
1.29967	-33
1.30333	-39
1.30700	-39
1.31067	-30
1.31433	-17
1.31800	-11
1.32167	-10
1.32533	-10
1.32900	-3
1.33267	3
1.33633	5
1.34000	1
1.34367	-5
1.34733	-10
1.35100	-15
1.35467	-16
1.35833	-12
1.36200	-7
1.36567	-6
1.36933	-7
1.37300	-10
1.37667	-15
1.38033	-14
1.38400	-7
1.38767	1
1.39133	7
1.39500	6
1.39867	-3
1.40233	-12
1.40600	-21
1.40967	-32
1.41333	-32
1.41700	-28
1.42067	-24
1.42433	-20
1.42800	-14
1.43167	-10
1.43533	-3
1.43900	14
1.44267	59
1.44633	221
1.45000	687
1.45367	1701
1.45733	3418
1.46100	5578
1.46467	7699
1.46833	9444
1.47200	10660
1.47567	11248
1.47933	11098
1.48300	10193
1.48667	8699
1.49033	6925
1.49400	5184
1.49767	3681
1.50133	2496
1.50500	1619
1.50867	997
1.51233	570
1.51600	284
1.51967	96
1.52333	-25
1.52700	-101
1.53067	-147
1.53433	-174
1.53800	-185
1.54167	-149
1.54533	-11
1.54900	272
1.55267	671
1.55633	1102
1.56000	1485
1.56367	1784
1.56733	1975
1.57100	2020
1.57467	1890
1.57833	1612
1.58200	1257
1.58567	904
1.58933	604
1.59300	376
1.59667	210
1.60033	97
1.60400	23
1.60767	-23
1.61133	-51
1.61500	-68
1.61867	-82
1.62233	-93
1.62600	-99
1.62967	-102
1.63333	-106
1.63700	-107
1.64067	-104
1.64433	-101
1.64800	-99
1.65167	-95
1.65533	-93
1.65900	-93
1.66267	-89
1.66633	-86
1.67000	-85
1.67367	-85
1.67733	-82
1.68100	-80
1.68467	-77
1.68833	-73
1.69200	-73
1.69567	-73
1.69933	-73
1.70300	-74
1.70667	-76
1.71033	-80
1.71400	-79
1.71767	-74
1.72133	-70
1.72500	-71
1.72867	-74
1.73233	-79
1.73600	-81
1.73967	-81
1.74333	-81
1.74700	-80
1.75067	-76
1.75433	-66
1.75800	-53
1.76167	-47
1.76533	-53
1.76900	-62
1.77267	-68
1.77633	-74
1.78000	-73
1.78367	-68
1.78733	-63
1.79100	-55
1.79467	-50
1.79833	-54
1.80200	-59
1.80567	-64
1.80933	-64
1.81300	-60
1.81667	-60
1.82033	-60
1.82400	-60
1.82767	-60
1.83133	-61
1.83500	-63
1.83867	-68
1.84233	-72
1.84600	-74
1.84967	-71
1.85333	-63
1.85700	-52
1.86067	-43
1.86433	-42
1.86800	-46
1.87167	-53
1.87533	-59
1.87900	-60
1.88267	-56
1.88633	-50
1.89000	-48
1.89367	-46
1.89733	-43
1.90100	-37
1.90467	-31
1.90833	-27
1.91200	-27
1.91567	-30
1.91933	-36
1.92300	-38
1.92667	-35
1.93033	-30
1.93400	-28
1.93767	-26
1.94133	-23
1.94500	-18
1.94867	-11
1.95233	6
1.95600	98
1.95967	680
1.96333	3662
1.96700	15297
1.97067	49853
1.97433	128973
1.97800	269571
1.98167	467066
1.98533	691381
1.98900	901692
1.99267	1062361
1.99633	1149978
2.00000	1154631
2.00367	1080428
2.00733	945669
2.01100	778105
2.01467	606238
2.01833	451452
2.02200	324676
2.02567	227839
2.02933	157497
2.03300	108159
2.03667	74355
2.04033	51525
2.04400	36209
2.04767	25931
2.05133	18991
2.05500	14259
2.05867	10988
2.06233	8688
2.06600	7041
2.06967	5841
2.07333	4942
2.07700	4251
2.08067	3707
2.08433	3276
2.08800	2931
2.09167	2648
2.09533	2411
2.09900	2205
2.10267	2021
2.10633	1860
2.11000	1720
2.11367	1601
2.11733	1501
2.12100	1414
2.12467	1333
2.12833	1262
2.13200	1200
2.13567	1138
2.13933	1076
2.14300	1024
2.14667	981
2.15033	941
2.15400	901
2.15767	867
2.16133	835
2.16500	801
2.16867	770
2.17233	747
2.17600	727
2.17967	708
2.18333	687
2.18700	667
2.19067	649
2.19433	629
2.19800	611
2.20167	595
2.20533	580
2.20900	563
2.21267	545
2.21633	527
2.22000	512
2.22367	500
2.22733	488
2.23100	476
2.23467	460
2.23833	443
2.24200	431
2.24567	423
2.24933	419
2.25300	416
2.25667	411
2.26033	405
2.26400	399
2.26767	390
2.27133	381
2.27500	371
2.27867	365
2.28233	361
2.28600	359
2.28967	361
2.29333	365
2.29700	368
2.30067	365
2.30433	356
2.30800	346
2.31167	339
2.31533	334
2.31900	331
2.32267	329
2.32633	326
2.33000	320
2.33367	312
2.33733	305
2.34100	305
2.34467	307
2.34833	305
2.35200	305
2.35567	309
2.35933	311
2.36300	309
2.36667	310
2.37033	316
2.37400	320
2.37767	313
2.38133	299
2.38500	287
2.38867	281
2.39233	276
2.39600	273
2.39967	277
2.40333	278
2.40700	273
2.41067	268
2.41433	264
2.41800	266
2.42167	271
2.42533	273
2.42900	271
2.43267	266
2.43633	262
2.44000	256
2.44367	251
2.44733	249
2.45100	245
2.45467	239
2.45833	234
2.46200	234
2.46567	237
2.46933	243
2.47300	249
2.47667	251
2.48033	249
2.48400	245
2.48767	243
2.49133	239
2.49500	233
2.49867	231
2.50233	234
2.50600	233
2.50967	231
2.51333	230
2.51700	232
2.52067	234
2.52433	233
2.52800	230
2.53167	228
2.53533	228
2.53900	229
2.54267	231
2.54633	238
2.55000	243
2.55367	241
2.55733	232
2.56100	222
2.56467	213
2.56833	204
2.57200	197
2.57567	193
2.57933	194
2.58300	199
2.58667	207
2.59033	214
2.59400	220
2.59767	228
2.60133	232
2.60500	231
2.60867	226
2.61233	216
2.61600	204
2.61967	191
2.62333	184
2.62700	182
2.63067	181
2.63433	182
2.63800	187
2.64167	195
2.64533	200
2.64900	204
2.65267	208
2.65633	213
2.66000	216
2.66367	215
2.66733	217
2.67100	219
2.67467	214
2.67833	206
2.68200	202
2.68567	200
2.68933	198
2.69300	195
2.69667	191
2.70033	189
2.70400	187
2.70767	187
2.71133	189
2.71500	191
2.71867	191
2.72233	191
2.72600	192
2.72967	195
2.73333	199
2.73700	202
2.74067	202
2.74433	201
2.74800	201
2.75167	200
2.75533	202
2.75900	208
2.76267	214
2.76633	215
2.77000	219
2.77367	223
2.77733	221
2.78100	221
2.78467	225
2.78833	230
2.79200	232
2.79567	232
2.79933	226
2.80300	216
2.80667	209
2.81033	203
2.81400	200
2.81767	201
2.82133	201
2.82500	200
2.82867	199
2.83233	200
2.83600	201
2.83967	201
2.84333	203
2.84700	206
2.85067	213
2.85433	221
2.85800	225
2.86167	228
2.86533	230
2.86900	230
2.87267	221
2.87633	213
2.88000	206
2.88367	200
2.88733	195
2.89100	189
2.89467	184
2.89833	183
2.90200	186
2.90567	189
2.90933	191
2.91300	192
2.91667	192
2.92033	190
2.92400	192
2.92767	197
2.93133	201
2.93500	201
2.93867	199
2.94233	200
2.94600	203
2.94967	205
2.95333	206
2.95700	208
2.96067	208
2.96433	206
2.96800	207
2.97167	207
2.97533	205
2.97900	202
2.98267	196
2.98633	196
2.99000	201
2.99367	206
2.99733	211
3.00100	216
3.00467	217
3.00833	219
3.01200	220
3.01567	220
3.01933	216
3.02300	206
3.02667	197
3.03033	193
3.03400	192
3.03767	194
3.04133	197
3.04500	197
3.04867	198
3.05233	200
3.05600	205
3.05967	206
3.06333	203
3.06700	198
3.07067	193
3.07433	190
3.07800	187
3.08167	182
3.08533	175
3.08900	173
3.09267	178
3.09633	181
3.10000	180
3.10367	179
3.10733	174
3.11100	168
3.11467	165
3.11833	163
3.12200	165
3.12567	174
3.12933	183
3.13300	192
3.13667	196
3.14033	192
3.14400	185
3.14767	179
3.15133	173
3.15500	165
3.15867	157
3.16233	155
3.16600	155
3.16967	156
3.17333	159
3.17700	165
3.18067	170
3.18433	168
3.18800	160
3.19167	152
3.19533	147
3.19900	145
3.20267	149
3.20633	155
3.21000	161
3.21367	164
3.21733	167
3.22100	172
3.22467	175
3.22833	176
3.23200	175
3.23567	171
3.23933	169
3.24300	168
3.24667	164
3.25033	161
3.25400	161
3.25767	164
3.26133	169
3.26500	165
3.26867	162
3.27233	163
3.27600	165
3.27967	165
3.28333	164
3.28700	162
3.29067	163
3.29433	158
3.29800	151
3.30167	150
3.30533	151
3.30900	156
3.31267	164
3.31633	166
3.32000	162
3.32367	155
3.32733	147
3.33100	144
3.33467	147
3.33833	152
3.34200	154
3.34567	150
3.34933	144
3.35300	140
3.35667	137
3.36033	132
3.36400	133
3.36767	141
3.37133	147
3.37500	145
3.37867	139
3.38233	132
3.38600	128
3.38967	127
3.39333	129
3.39700	135
3.40067	137
3.40433	137
3.40800	138
3.41167	134
3.41533	127
3.41900	117
3.42267	106
3.42633	102
3.43000	102
3.43367	98
3.43733	96
3.44100	98
3.44467	103
3.44833	106
3.45200	105
3.45567	104
3.45933	108
3.46300	114
3.46667	118
3.47033	121
3.47400	124
3.47767	124
3.48133	125
3.48500	125
3.48867	127
3.49233	133
3.49600	136
3.49967	139
3.50333	143
3.50700	140
3.51067	132
3.51433	118
3.51800	109
3.52167	111
3.52533	119
3.52900	117
3.53267	109
3.53633	105
3.54000	102
3.54367	93
3.54733	87
3.55100	87
3.55467	90
3.55833	91
3.56200	94
3.56567	101
3.56933	108
3.57300	114
3.57667	115
3.58033	113
3.58400	108
3.58767	101
3.59133	102
3.59500	105
3.59867	109
3.60233	114
3.60600	116
3.60967	110
3.61333	103
3.61700	97
3.62067	94
3.62433	92
3.62800	90
3.63167	89
3.63533	88
3.63900	87
3.64267	87
3.64633	89
3.65000	91
3.65367	90
3.65733	87
3.66100	89
3.66467	93
3.66833	95
3.67200	99
3.67567	107
3.67933	115
3.68300	117
3.68667	112
3.69033	105
3.69400	100
3.69767	96
3.70133	91
3.70500	88
3.70867	87
3.71233	86
3.71600	82
3.71967	77
3.72333	74
3.72700	71
3.73067	70
3.73433	68
3.73800	68
3.74167	71
3.74533	70
3.74900	69
3.75267	69
3.75633	70
3.76000	68
3.76367	70
3.76733	73
3.77100	73
3.77467	70
3.77833	69
3.78200	69
3.78567	71
3.78933	76
3.79300	83
3.79667	90
3.80033	95
3.80400	95
3.80767	91
3.81133	86
3.81500	82
3.81867	83
3.82233	87
3.82600	88
3.82967	87
3.83333	89
3.83700	92
3.84067	90
3.84433	83
3.84800	73
3.85167	64
3.85533	57
3.85900	58
3.86267	62
3.86633	67
3.87000	70
3.87367	69
3.87733	66
3.88100	62
3.88467	59
3.88833	55
3.89200	50
3.89567	49
3.89933	49
3.90300	49
3.90667	47
3.91033	48
3.91400	53
3.91767	56
3.92133	59
3.92500	62
3.92867	63
3.93233	66
3.93600	65
3.93967	62
3.94333	56
3.94700	52
3.95067	53
3.95433	54
3.95800	53
3.96167	53
3.96533	58
3.96900	63
3.97267	65
3.97633	60
3.98000	52
3.98367	46
3.98733	46
3.99100	49
3.99467	54
3.99833	57

[Chromatogram (Ch2)]
Interval(msec)	220
# of Points	1091
Start Time(min)	0.002
End Time(min)	3.998
R.Time (min)	Intensity
0.00167	1
0.00533	1
0.00900	0
0.01267	0
0.01633	-0
0.02000	-0
0.02367	-0
0.02733	-0
0.03100	-1
0.03467	-1
0.03833	-1
0.04200	-1
0.04567	-1
0.04933	-1
0.05300	-1
0.05667	-1
0.06033	-1
0.06400	-1
0.06767	-0
0.07133	-0
0.07500	0
0.07867	0
0.08233	0
0.08600	0
0.08967	1
0.09333	1
0.09700	1
0.10067	1
0.10433	1
0.10800	1
0.11167	1
0.11533	1
0.11900	1
0.12267	1
0.12633	0
0.13000	-0
0.13367	-1
0.13733	-1
0.14100	-2
0.14467	-2
0.14833	-2
0.15200	-2
0.15567	-2
0.15933	-2
0.16300	-2
0.16667	-2
0.17033	-2
0.17400	-3
0.17767	-3
0.18133	-3
0.18500	-3
0.18867	-3
0.19233	-3
0.19600	-3
0.19967	-3
0.20333	-3
0.20700	-3
0.21067	-3
0.21433	-3
0.21800	-3
0.22167	-3
0.22533	-3
0.22900	-2
0.23267	-2
0.23633	-2
0.24000	-2
0.24367	-2
0.24733	-2
0.25100	-2
0.25467	-2
0.25833	-2
0.26200	-2
0.26567	-1
0.26933	-1
0.27300	-1
0.27667	-1
0.28033	-1
0.28400	-1
0.28767	-1
0.29133	-1
0.29500	-1
0.29867	-1
0.30233	-1
0.30600	-2
0.30967	-2
0.31333	-2
0.31700	-2
0.32067	-2
0.32433	-2
0.32800	-2
0.33167	-2
0.33533	-2
0.33900	-2
0.34267	-1
0.34633	-1
0.35000	-0
0.35367	0
0.35733	0
0.36100	0
0.36467	0
0.36833	-0
0.37200	-0
0.37567	-1
0.37933	-1
0.38300	-1
0.38667	-1
0.39033	-1
0.39400	-2
0.39767	-2
0.40133	-2
0.40500	-2
0.40867	-2
0.41233	-2
0.41600	-2
0.41967	-2
0.42333	-1
0.42700	-1
0.43067	-1
0.43433	-1
0.43800	-1
0.44167	-1
0.44533	-1
0.44900	-2
0.45267	-2
0.45633	-2
0.46000	-2
0.46367	-2
0.46733	-2
0.47100	-2
0.47467	-2
0.47833	-1
0.48200	-1
0.48567	-1
0.48933	-0
0.49300	-0
0.49667	0
0.50033	0
0.50400	0
0.50767	0
0.51133	-0
0.51500	-0
0.51867	-0
0.52233	-0
0.52600	0
0.52967	0
0.53333	0
0.53700	1
0.54067	1
0.54433	1
0.54800	1
0.55167	1
0.55533	1
0.55900	1
0.56267	1
0.56633	1
0.57000	1
0.57367	1
0.57733	1
0.58100	1
0.58467	1
0.58833	1
0.59200	0
0.59567	0
0.59933	-0
0.60300	-0
0.60667	-1
0.61033	-1
0.61400	-1
0.61767	-2
0.62133	-2
0.62500	-2
0.62867	-2
0.63233	-3
0.63600	-3
0.63967	-3
0.64333	-3
0.64700	-3
0.65067	-3
0.65433	-3
0.65800	-3
0.66167	-2
0.66533	-2
0.66900	-2
0.67267	-2
0.67633	-2
0.68000	-2
0.68367	-2
0.68733	-2
0.69100	-2
0.69467	-2
0.69833	-3
0.70200	-3
0.70567	-3
0.70933	-2
0.71300	-2
0.71667	-2
0.72033	-2
0.72400	-2
0.72767	-1
0.73133	-1
0.73500	-1
0.73867	-1
0.74233	-1
0.74600	-1
0.74967	-1
0.75333	-2
0.75700	-2
0.76067	-2
0.76433	-2
0.76800	-2
0.77167	-2
0.77533	-1
0.77900	-1
0.78267	-1
0.78633	-1
0.79000	-1
0.79367	-1
0.79733	-1
0.80100	-1
0.80467	-1
0.80833	-1
0.81200	-1
0.81567	-1
0.81933	-1
0.82300	-1
0.82667	-1
0.83033	-1
0.83400	-1
0.83767	-1
0.84133	-1
0.84500	-1
0.84867	-1
0.85233	-1
0.85600	-1
0.85967	-1
0.86333	-1
0.86700	-1
0.87067	-1
0.87433	-2
0.87800	-2
0.88167	-2
0.88533	-2
0.88900	-2
0.89267	-3
0.89633	-3
0.90000	-3
0.90367	-3
0.90733	-3
0.91100	-2
0.91467	-3
0.91833	-3
0.92200	-3
0.92567	-3
0.92933	-3
0.93300	-3
0.93667	-3
0.94033	-2
0.94400	-2
0.94767	-2
0.95133	-2
0.95500	-1
0.95867	-1
0.96233	-1
0.96600	-1
0.96967	-1
0.97333	-1
0.97700	-1
0.98067	-2
0.98433	-2
0.98800	-2
0.99167	-2
0.99533	-2
0.99900	-3
1.00267	-3
1.00633	-3
1.01000	-3
1.01367	-3
1.01733	-3
1.02100	-4
1.02467	-4
1.02833	-3
1.03200	-3
1.03567	-4
1.03933	-4
1.04300	-4
1.04667	-4
1.05033	-3
1.05400	-3
1.05767	-3
1.06133	-3
1.06500	-3
1.06867	-3
1.07233	-2
1.07600	-2
1.07967	-2
1.08333	-1
1.08700	-1
1.09067	-1
1.09433	-0
1.09800	-0
1.10167	0
1.10533	0
1.10900	0
1.11267	0
1.11633	0
1.12000	1
1.12367	0
1.12733	0
1.13100	0
1.13467	0
1.13833	0
1.14200	-0
1.14567	-0
1.14933	-1
1.15300	-1
1.15667	-1
1.16033	-1
1.16400	-1
1.16767	-2
1.17133	-2
1.17500	-2
1.17867	-2
1.18233	-3
1.18600	-3
1.18967	-2
1.19333	-2
1.19700	-2
1.20067	-3
1.20433	-3
1.20800	-3
1.21167	-3
1.21533	-3
1.21900	-3
1.22267	-3
1.22633	-3
1.23000	-4
1.23367	-4
1.23733	-4
1.24100	-4
1.24467	-4
1.24833	-4
1.25200	-4
1.25567	-4
1.25933	-3
1.26300	-3
1.26667	-3
1.27033	-3
1.27400	-2
1.27767	-2
1.28133	-2
1.28500	-2
1.28867	-3
1.29233	-3
1.29600	-3
1.29967	-3
1.30333	-3
1.30700	-4
1.31067	-4
1.31433	-4
1.31800	-4
1.32167	-4
1.32533	-4
1.32900	-4
1.33267	-4
1.33633	-4
1.34000	-4
1.34367	-4
1.34733	-4
1.35100	-4
1.35467	-4
1.35833	-3
1.36200	-3
1.36567	-3
1.36933	-3
1.37300	-3
1.37667	-3
1.38033	-3
1.38400	-3
1.38767	-3
1.39133	-3
1.39500	-2
1.39867	-2
1.40233	-2
1.40600	-2
1.40967	-2
1.41333	-2
1.41700	-2
1.42067	-2
1.42433	-2
1.42800	-2
1.43167	-2
1.43533	-2
1.43900	-1
1.44267	-1
1.44633	-1
1.45000	-1
1.45367	-1
1.45733	-1
1.46100	-1
1.46467	-1
1.46833	-1
1.47200	-1
1.47567	-2
1.47933	-2
1.48300	-2
1.48667	-3
1.49033	-3
1.49400	-3
1.49767	-3
1.50133	-3
1.50500	-3
1.50867	-3
1.51233	-3
1.51600	-3
1.51967	-3
1.52333	-3
1.52700	-3
1.53067	-3
1.53433	-3
1.53800	-3
1.54167	-3
1.54533	-4
1.54900	-4
1.55267	-4
1.55633	-3
1.56000	-3
1.56367	-3
1.56733	-3
1.57100	-2
1.57467	-2
1.57833	-2
1.58200	-2
1.58567	-2
1.58933	-2
1.59300	-2
1.59667	-3
1.60033	-4
1.60400	-5
1.60767	-7
1.61133	-8
1.61500	-11
1.61867	-13
1.62233	-15
1.62600	-18
1.62967	-21
1.63333	-25
1.63700	-28
1.64067	-31
1.64433	-35
1.64800	-38
1.65167	-42
1.65533	-45
1.65900	-49
1.66267	-53
1.66633	-56
1.67000	-61
1.67367	-65
1.67733	-70
1.68100	-75
1.68467	-79
1.68833	-84
1.69200	-88
1.69567	-92
1.69933	-95
1.70300	-98
1.70667	-100
1.71033	-102
1.71400	-103
1.71767	-105
1.72133	-106
1.72500	-107
1.72867	-108
1.73233	-109
1.73600	-110
1.73967	-110
1.74333	-110
1.74700	-111
1.75067	-111
1.75433	-111
1.75800	-111
1.76167	-110
1.76533	-110
1.76900	-110
1.77267	-110
1.77633	-110
1.78000	-111
1.78367	-111
1.78733	-112
1.79100	-113
1.79467	-113
1.79833	-114
1.80200	-114
1.80567	-115
1.80933	-115
1.81300	-115
1.81667	-115
1.82033	-114
1.82400	-114
1.82767	-113
1.83133	-113
1.83500	-113
1.83867	-114
1.84233	-114
1.84600	-114
1.84967	-113
1.85333	-113
1.85700	-112
1.86067	-112
1.86433	-112
1.86800	-112
1.87167	-112
1.87533	-113
1.87900	-114
1.88267	-114
1.88633	-115
1.89000	-115
1.89367	-115
1.89733	-115
1.90100	-114
1.90467	-113
1.90833	-112
1.91200	-112
1.91567	-112
1.91933	-111
1.92300	-111
1.92667	-111
1.93033	-111
1.93400	-111
1.93767	-111
1.94133	-111
1.94500	-111
1.94867	-111
1.95233	-111
1.95600	-111
1.95967	-110
1.96333	-110
1.96700	-110
1.97067	-109
1.97433	-109
1.97800	-108
1.98167	-108
1.98533	-107
1.98900	-106
1.99267	-106
1.99633	-105
2.00000	-105
2.00367	-106
2.00733	-106
2.01100	-106
2.01467	-105
2.01833	-105
2.02200	-105
2.02567	-105
2.02933	-105
2.03300	-105
2.03667	-105
2.04033	-105
2.04400	-105
2.04767	-105
2.05133	-105
2.05500	-104
2.05867	-104
2.06233	-104
2.06600	-103
2.06967	-102
2.07333	-101
2.07700	-100
2.08067	-100
2.08433	-99
2.08800	-99
2.09167	-99
2.09533	-98
2.09900	-98
2.10267	-98
2.10633	-98
2.11000	-97
2.11367	-97
2.11733	-96
2.12100	-96
2.12467	-97
2.12833	-97
2.13200	-97
2.13567	-97
2.13933	-97
2.14300	-96
2.14667	-96
2.15033	-95
2.15400	-94
2.15767	-94
2.16133	-94
2.16500	-94
2.16867	-94
2.17233	-94
2.17600	-94
2.17967	-94
2.18333	-93
2.18700	-93
2.19067	-92
2.19433	-91
2.19800	-90
2.20167	-90
2.20533	-90
2.20900	-90
2.21267	-89
2.21633	-89
2.22000	-88
2.22367	-87
2.22733	-86
2.23100	-86
2.23467	-85
2.23833	-85
2.24200	-85
2.24567	-86
2.24933	-87
2.25300	-88
2.25667	-89
2.26033	-90
2.26400	-90
2.26767	-89
2.27133	-89
2.27500	-88
2.27867	-87
2.28233	-86
2.28600	-86
2.28967	-85
2.29333	-85
2.29700	-84
2.30067	-84
2.30433	-84
2.30800	-83
2.31167	-82
2.31533	-81
2.31900	-80
2.32267	-79
2.32633	-79
2.33000	-79
2.33367	-79
2.33733	-80
2.34100	-81
2.34467	-82
2.34833	-82
2.35200	-81
2.35567	-80
2.35933	-79
2.36300	-77
2.36667	-74
2.37033	-71
2.37400	-68
2.37767	-64
2.38133	-60
2.38500	-55
2.38867	-51
2.39233	-47
2.39600	-42
2.39967	-37
2.40333	-33
2.40700	-29
2.41067	-26
2.41433	-23
2.41800	-21
2.42167	-19
2.42533	-17
2.42900	-15
2.43267	-14
2.43633	-12
2.44000	-11
2.44367	-10
2.44733	-9
2.45100	-8
2.45467	-7
2.45833	-6
2.46200	-5
2.46567	-4
2.46933	-3
2.47300	-2
2.47667	-1
2.48033	-0
2.48400	1
2.48767	2
2.49133	3
2.49500	4
2.49867	5
2.50233	6
2.50600	6
2.50967	7
2.51333	7
2.51700	8
2.52067	9
2.52433	10
2.52800	10
2.53167	11
2.53533	12
2.53900	13
2.54267	13
2.54633	13
2.55000	13
2.55367	13
2.55733	12
2.56100	12
2.56467	12
2.56833	13
2.57200	13
2.57567	13
2.57933	13
2.58300	13
2.58667	13
2.59033	13
2.59400	13
2.59767	13
2.60133	13
2.60500	13
2.60867	13
2.61233	14
2.61600	14
2.61967	15
2.62333	15
2.62700	15
2.63067	16
2.63433	16
2.63800	16
2.64167	16
2.64533	16
2.64900	16
2.65267	17
2.65633	17
2.66000	18
2.66367	18
2.66733	19
2.67100	19
2.67467	19
2.67833	19
2.68200	19
2.68567	20
2.68933	20
2.69300	20
2.69667	21
2.70033	21
2.70400	22
2.70767	22
2.71133	22
2.71500	21
2.71867	21
2.72233	21
2.72600	21
2.72967	21
2.73333	21
2.73700	21
2.74067	21
2.74433	21
2.74800	21
2.75167	22
2.75533	23
2.75900	24
2.76267	24
2.76633	25
2.77000	25
2.77367	26
2.77733	26
2.78100	26
2.78467	26
2.78833	26
2.79200	26
2.79567	26
2.79933	27
2.80300	27
2.80667	27
2.81033	27
2.81400	26
2.81767	26
2.82133	26
2.82500	26
2.82867	26
2.83233	26
2.83600	26
2.83967	25
2.84333	24
2.84700	21
2.85067	17
2.85433	11
2.85800	2
2.86167	-11
2.86533	-27
2.86900	-47
2.87267	-72
2.87633	-102
2.88000	-135
2.88367	-173
2.88733	-214
2.89100	-259
2.89467	-307
2.89833	-357
2.90200	-410
2.90567	-464
2.90933	-519
2.91300	-574
2.91667	-630
2.92033	-685
2.92400	-739
2.92767	-792
2.93133	-843
2.93500	-896
2.93867	-954
2.94233	-1013
2.94600	-1063
2.94967	-1095
2.95333	-1102
2.95700	-1083
2.96067	-1041
2.96433	-981
2.96800	-910
2.97167	-831
2.97533	-750
2.97900	-670
2.98267	-594
2.98633	-522
2.99000	-456
2.99367	-396
2.99733	-343
3.00100	-295
3.00467	-253
3.00833	-216
3.01200	-184
3.01567	-156
3.01933	-132
3.02300	-111
3.02667	-94
3.03033	-78
3.03400	-65
3.03767	-54
3.04133	-45
3.04500	-36
3.04867	-29
3.05233	-23
3.05600	-18
3.05967	-14
3.06333	-10
3.06700	-6
3.07067	-3
3.07433	-1
3.07800	1
3.08167	3
3.08533	5
3.08900	6
3.09267	7
3.09633	8
3.10000	9
3.10367	10
3.10733	10
3.11100	11
3.11467	11
3.11833	12
3.12200	12
3.12567	13
3.12933	13
3.13300	14
3.13667	14
3.14033	14
3.14400	15
3.14767	15
3.15133	15
3.15500	15
3.15867	16
3.16233	16
3.16600	16
3.16967	16
3.17333	16
3.17700	17
3.18067	17
3.18433	17
3.18800	17
3.19167	17
3.19533	17
3.19900	17
3.20267	17
3.20633	17
3.21000	18
3.21367	18
3.21733	18
3.22100	18
3.22467	19
3.22833	19
3.23200	19
3.23567	20
3.23933	20
3.24300	20
3.24667	20
3.25033	20
3.25400	21
3.25767	21
3.26133	21
3.26500	21
3.26867	22
3.27233	22
3.27600	22
3.27967	23
3.28333	23
3.28700	24
3.29067	24
3.29433	24
3.29800	24
3.30167	25
3.30533	25
3.30900	25
3.31267	24
3.31633	24
3.32000	24
3.32367	25
3.32733	25
3.33100	25
3.33467	25
3.33833	25
3.34200	25
3.34567	25
3.34933	26
3.35300	26
3.35667	26
3.36033	25
3.36400	25
3.36767	25
3.37133	25
3.37500	25
3.37867	25
3.38233	25
3.38600	25
3.38967	25
3.39333	25
3.39700	25
3.40067	24
3.40433	24
3.40800	24
3.41167	24
3.41533	24
3.41900	24
3.42267	24
3.42633	24
3.43000	23
3.43367	23
3.43733	23
3.44100	23
3.44467	23
3.44833	23
3.45200	23
3.45567	23
3.45933	22
3.46300	23
3.46667	23
3.47033	23
3.47400	23
3.47767	23
3.48133	23
3.48500	24
3.48867	24
3.49233	24
3.49600	24
3.49967	24
3.50333	25
3.50700	25
3.51067	25
3.51433	25
3.51800	25
3.52167	25
3.52533	25
3.52900	25
3.53267	25
3.53633	25
3.54000	25
3.54367	25
3.54733	24
3.55100	24
3.55467	25
3.55833	25
3.56200	25
3.56567	25
3.56933	25
3.57300	25
3.57667	25
3.58033	25
3.58400	25
3.58767	25
3.59133	25
3.59500	25
3.59867	25
3.60233	25
3.60600	25
3.60967	25
3.61333	25
3.61700	25
3.62067	25
3.62433	26
3.62800	26
3.63167	26
3.63533	27
3.63900	27
3.64267	27
3.64633	27
3.65000	28
3.65367	28
3.65733	28
3.66100	28
3.66467	27
3.66833	27
3.67200	27
3.67567	27
3.67933	27
3.68300	27
3.68667	27
3.69033	26
3.69400	26
3.69767	26
3.70133	26
3.70500	26
3.70867	26
3.71233	26
3.71600	26
3.71967	26
3.72333	26
3.72700	26
3.73067	26
3.73433	26
3.73800	25
3.74167	25
3.74533	25
3.74900	25
3.75267	25
3.75633	25
3.76000	25
3.76367	25
3.76733	25
3.77100	25
3.77467	25
3.77833	25
3.78200	25
3.78567	25
3.78933	26
3.79300	26
3.79667	26
3.80033	26
3.80400	26
3.80767	26
3.81133	26
3.81500	26
3.81867	25
3.82233	25
3.82600	25
3.82967	25
3.83333	25
3.83700	25
3.84067	25
3.84433	25
3.84800	25
3.85167	25
3.85533	25
3.85900	25
3.86267	25
3.86633	25
3.87000	25
3.87367	25
3.87733	25
3.88100	25
3.88467	25
3.88833	25
3.89200	24
3.89567	24
3.89933	24
3.90300	24
3.90667	25
3.91033	24
3.91400	24
3.91767	24
3.92133	24
3.92500	24
3.92867	24
3.93233	23
3.93600	23
3.93967	24
3.94333	24
3.94700	24
3.95067	24
3.95433	24
3.95800	24
3.96167	24
3.96533	24
3.96900	24
3.97267	23
3.97633	23
3.98000	23
3.98367	23
3.98733	23
3.99100	23
3.99467	23
3.99833	23

[Chromatogram (Ch3)]
Interval(msec)	220
# of Points	1091
Start Time(min)	0.002
End Time(min)	3.998
R.Time (min)	Intensity
0.00167	-1
0.00533	0
0.00900	1
0.01267	2
0.01633	2
0.02000	3
0.02367	4
0.02733	5
0.03100	5
0.03467	6
0.03833	8
0.04200	6
0.04567	4
0.04933	3
0.05300	1
0.05667	0
0.06033	1
0.06400	3
0.06767	5
0.07133	6
0.07500	6
0.07867	5
0.08233	5
0.08600	5
0.08967	6
0.09333	4
0.09700	2
0.10067	1
0.10433	1
0.10800	-1
0.11167	-2
0.11533	-2
0.11900	-3
0.12267	-4
0.12633	-5
0.13000	-4
0.13367	-5
0.13733	-4
0.14100	-3
0.14467	-1
0.14833	-0
0.15200	0
0.15567	1
0.15933	2
0.16300	0
0.16667	-3
0.17033	-5
0.17400	-5
0.17767	-3
0.18133	-3
0.18500	-2
0.18867	-2
0.19233	-1
0.19600	-0
0.19967	1
0.20333	-1
0.20700	-3
0.21067	-3
0.21433	-4
0.21800	-3
0.22167	-2
0.22533	-2
0.22900	-2
0.23267	-3
0.23633	-4
0.24000	-4
0.24367	-3
0.24733	-2
0.25100	-3
0.25467	-3
0.25833	-2
0.26200	-4
0.26567	-6
0.26933	-6
0.27300	-8
0.27667	-11
0.28033	-13
0.28400	-12
0.28767	-9
0.29133	-6
0.29500	-7
0.29867	-8
0.30233	-8
0.30600	-8
0.30967	-9
0.31333	-9
0.31700	-10
0.32067	-9
0.32433	-10
0.32800	-12
0.33167	-14
0.33533	-12
0.33900	-10
0.34267	-8
0.34633	-6
0.35000	-7
0.35367	-8
0.35733	-11
0.36100	-11
0.36467	-10
0.36833	-10
0.37200	-11
0.37567	-13
0.37933	-11
0.38300	-9
0.38667	-8
0.39033	-9
0.39400	-11
0.39767	-12
0.40133	-12
0.40500	-12
0.40867	-10
0.41233	-7
0.41600	-7
0.41967	-7
0.42333	-9
0.42700	-10
0.43067	-12
0.43433	-13
0.43800	-11
0.44167	-9
0.44533	-10
0.44900	-10
0.45267	-11
0.45633	-13
0.46000	-13
0.46367	-11
0.46733	-9
0.47100	-7
0.47467	-7
0.47833	-6
0.48200	-4
0.48567	-4
0.48933	-4
0.49300	-5
0.49667	-7
0.50033	-8
0.50400	-9
0.50767	-8
0.51133	-7
0.51500	-7
0.51867	-5
0.52233	-2
0.52600	-3
0.52967	-4
0.53333	-4
0.53700	-4
0.54067	-4
0.54433	-3
0.54800	-1
0.55167	-1
0.55533	-3
0.55900	-4
0.56267	-5
0.56633	-3
0.57000	-3
0.57367	-2
0.57733	-1
0.58100	-1
0.58467	1
0.58833	-0
0.59200	-3
0.59567	-3
0.59933	-2
0.60300	-2
0.60667	-2
0.61033	-1
0.61400	0
0.61767	2
0.62133	3
0.62500	3
0.62867	3
0.63233	1
0.63600	-1
0.63967	-2
0.64333	-1
0.64700	1
0.65067	4
0.65433	5
0.65800	4
0.66167	2
0.66533	4
0.66900	6
0.67267	6
0.67633	6
0.68000	5
0.68367	5
0.68733	5
0.69100	2
0.69467	1
0.69833	3
0.70200	6
0.70567	7
0.70933	7
0.71300	7
0.71667	5
0.72033	5
0.72400	7
0.72767	7
0.73133	7
0.73500	6
0.73867	5
0.74233	5
0.74600	5
0.74967	4
0.75333	5
0.75700	7
0.76067	8
0.76433	7
0.76800	4
0.77167	3
0.77533	4
0.77900	3
0.78267	2
0.78633	0
0.79000	-0
0.79367	1
0.79733	1
0.80100	0
0.80467	1
0.80833	1
0.81200	3
0.81567	4
0.81933	3
0.82300	3
0.82667	4
0.83033	8
0.83400	11
0.83767	13
0.84133	12
0.84500	11
0.84867	11
0.85233	12
0.85600	13
0.85967	14
0.86333	15
0.86700	15
0.87067	14
0.87433	13
0.87800	10
0.88167	9
0.88533	9
0.88900	8
0.89267	7
0.89633	8
0.90000	11
0.90367	14
0.90733	16
0.91100	16
0.91467	15
0.91833	13
0.92200	10
0.92567	8
0.92933	8
0.93300	8
0.93667	8
0.94033	8
0.94400	6
0.94767	8
0.95133	9
0.95500	10
0.95867	13
0.96233	14
0.96600	15
0.96967	16
0.97333	14
0.97700	13
0.98067	10
0.98433	7
0.98800	6
0.99167	7
0.99533	7
0.99900	5
1.00267	5
1.00633	7
1.01000	10
1.01367	11
1.01733	9
1.02100	9
1.02467	7
1.02833	5
1.03200	4
1.03567	4
1.03933	5
1.04300	7
1.04667	8
1.05033	11
1.05400	11
1.05767	10
1.06133	9
1.06500	9
1.06867	9
1.07233	10
1.07600	11
1.07967	9
1.08333	7
1.08700	9
1.09067	11
1.09433	14
1.09800	14
1.10167	12
1.10533	11
1.10900	11
1.11267	11
1.11633	9
1.12000	8
1.12367	6
1.12733	6
1.13100	5
1.13467	5
1.13833	6
1.14200	8
1.14567	10
1.14933	11
1.15300	11
1.15667	13
1.16033	14
1.16400	12
1.16767	9
1.17133	6
1.17500	3
1.17867	1
1.18233	2
1.18600	4
1.18967	6
1.19333	6
1.19700	6
1.20067	7
1.20433	7
1.20800	4
1.21167	3
1.21533	3
1.21900	3
1.22267	3
1.22633	3
1.23000	2
1.23367	3
1.23733	5
1.24100	6
1.24467	5
1.24833	5
1.25200	8
1.25567	9
1.25933	10
1.26300	9
1.26667	8
1.27033	8
1.27400	6
1.27767	5
1.28133	3
1.28500	3
1.28867	3
1.29233	2
1.29600	2
1.29967	3
1.30333	3
1.30700	3
1.31067	4
1.31433	5
1.31800	6
1.32167	7
1.32533	9
1.32900	11
1.33267	13
1.33633	12
1.34000	12
1.34367	11
1.34733	10
1.35100	9
1.35467	8
1.35833	7
1.36200	8
1.36567	8
1.36933	8
1.37300	7
1.37667	7
1.38033	9
1.38400	9
1.38767	8
1.39133	8
1.39500	9
1.39867	7
1.40233	6
1.40600	6
1.40967	5
1.41333	7
1.41700	7
1.42067	4
1.42433	3
1.42800	4
1.43167	5
1.43533	6
1.43900	7
1.44267	7
1.44633	9
1.45000	9
1.45367	7
1.45733	8
1.46100	8
1.46467	8
1.46833	8
1.47200	9
1.47567	10
1.47933	12
1.48300	12
1.48667	11
1.49033	12
1.49400	14
1.49767	15
1.50133	15
1.50500	15
1.50867	13
1.51233	11
1.51600	9
1.51967	8
1.52333	10
1.52700	12
1.53067	14
1.53433	13
1.53800	12
1.54167	13
1.54533	14
1.54900	14
1.55267	15
1.55633	17
1.56000	16
1.56367	14
1.56733	14
1.57100	15
1.57467	17
1.57833	19
1.58200	20
1.58567	20
1.58933	21
1.59300	22
1.59667	21
1.60033	20
1.60400	19
1.60767	19
1.61133	17
1.61500	15
1.61867	16
1.62233	16
1.62600	16
1.62967	17
1.63333	18
1.63700	17
1.64067	17
1.64433	19
1.64800	20
1.65167	20
1.65533	20
1.65900	19
1.66267	19
1.66633	19
1.67000	19
1.67367	20
1.67733	21
1.68100	22
1.68467	24
1.68833	26
1.69200	27
1.69567	27
1.69933	29
1.70300	29
1.70667	29
1.71033	30
1.71400	28
1.71767	26
1.72133	26
1.72500	27
1.72867	29
1.73233	30
1.73600	32
1.73967	34
1.74333	37
1.74700	39
1.75067	41
1.75433	42
1.75800	41
1.76167	40
1.76533	40
1.76900	40
1.77267	38
1.77633	37
1.78000	38
1.78367	39
1.78733	39
1.79100	40
1.79467	41
1.79833	42
1.80200	44
1.80567	44
1.80933	42
1.81300	42
1.81667	42
1.82033	44
1.82400	46
1.82767	48
1.83133	50
1.83500	53
1.83867	56
1.84233	57
1.84600	56
1.84967	53
1.85333	53
1.85700	56
1.86067	57
1.86433	57
1.86800	56
1.87167	56
1.87533	57
1.87900	58
1.88267	58
1.88633	58
1.89000	59
1.89367	59
1.89733	59
1.90100	59
1.90467	60
1.90833	63
1.91200	65
1.91567	67
1.91933	68
1.92300	69
1.92667	68
1.93033	66
1.93400	68
1.93767	70
1.94133	71
1.94500	73
1.94867	74
1.95233	75
1.95600	77
1.95967	79
1.96333	78
1.96700	79
1.97067	80
1.97433	79
1.97800	80
1.98167	82
1.98533	84
1.98900	85
1.99267	85
1.99633	86
2.00000	87
2.00367	88
2.00733	89
2.01100	91
2.01467	91
2.01833	91
2.02200	91
2.02567	91
2.02933	92
2.03300	94
2.03667	96
2.04033	98
2.04400	98
2.04767	99
2.05133	99
2.05500	100
2.05867	99
2.06233	99
2.06600	99
2.06967	100
2.07333	103
2.07700	106
2.08067	107
2.08433	107
2.08800	108
2.09167	111
2.09533	115
2.09900	117
2.10267	117
2.10633	116
2.11000	118
2.11367	120
2.11733	121
2.12100	122
2.12467	124
2.12833	125
2.13200	125
2.13567	125
2.13933	125
2.14300	126
2.14667	126
2.15033	126
2.15400	125
2.15767	124
2.16133	125
2.16500	127
2.16867	128
2.17233	129
2.17600	131
2.17967	132
2.18333	134
2.18700	136
2.19067	138
2.19433	138
2.19800	137
2.20167	139
2.20533	141
2.20900	141
2.21267	141
2.21633	141
2.22000	140
2.22367	143
2.22733	148
2.23100	152
2.23467	154
2.23833	155
2.24200	157
2.24567	159
2.24933	158
2.25300	158
2.25667	160
2.26033	162
2.26400	163
2.26767	164
2.27133	165
2.27500	167
2.27867	167
2.28233	167
2.28600	166
2.28967	165
2.29333	166
2.29700	169
2.30067	173
2.30433	175
2.30800	176
2.31167	176
2.31533	176
2.31900	174
2.32267	175
2.32633	178
2.33000	179
2.33367	180
2.33733	181
2.34100	182
2.34467	184
2.34833	186
2.35200	186
2.35567	186
2.35933	188
2.36300	189
2.36667	188
2.37033	189
2.37400	189
2.37767	188
2.38133	187
2.38500	187
2.38867	186
2.39233	186
2.39600	187
2.39967	190
2.40333	194
2.40700	198
2.41067	202
2.41433	206
2.41800	208
2.42167	210
2.42533	209
2.42900	211
2.43267	211
2.43633	208
2.44000	211
2.44367	257
2.44733	379
2.45100	511
2.45467	623
2.45833	687
2.46200	693
2.46567	666
2.46933	636
2.47300	615
2.47667	600
2.48033	582
2.48400	553
2.48767	513
2.49133	469
2.49500	430
2.49867	401
2.50233	380
2.50600	367
2.50967	362
2.51333	367
2.51700	381
2.52067	401
2.52433	418
2.52800	426
2.53167	423
2.53533	408
2.53900	385
2.54267	358
2.54633	330
2.55000	306
2.55367	284
2.55733	266
2.56100	253
2.56467	243
2.56833	237
2.57200	233
2.57567	229
2.57933	227
2.58300	226
2.58667	227
2.59033	228
2.59400	231
2.59767	234
2.60133	235
2.60500	234
2.60867	229
2.61233	222
2.61600	215
2.61967	206
2.62333	194
2.62700	184
2.63067	173
2.63433	164
2.63800	154
2.64167	146
2.64533	140
2.64900	133
2.65267	125
2.65633	117
2.66000	109
2.66367	99
2.66733	93
2.67100	87
2.67467	82
2.67833	77
2.68200	76
2.68567	74
2.68933	72
2.69300	73
2.69667	74
2.70033	76
2.70400	78
2.70767	82
2.71133	83
2.71500	86
2.71867	91
2.72233	94
2.72600	97
2.72967	101
2.73333	105
2.73700	109
2.74067	114
2.74433	116
2.74800	116
2.75167	117
2.75533	118
2.75900	118
2.76267	119
2.76633	120
2.77000	124
2.77367	127
2.77733	131
2.78100	136
2.78467	139
2.78833	142
2.79200	146
2.79567	150
2.79933	152
2.80300	155
2.80667	158
2.81033	163
2.81400	168
2.81767	174
2.82133	184
2.82500	202
2.82867	235
2.83233	297
2.83600	412
2.83967	605
2.84333	897
2.84700	1298
2.85067	1809
2.85433	2407
2.85800	3055
2.86167	3703
2.86533	4297
2.86900	4790
2.87267	5147
2.87633	5349
2.88000	5396
2.88367	5305
2.88733	5097
2.89100	4805
2.89467	4458
2.89833	4085
2.90200	3702
2.90567	3328
2.90933	2976
2.91300	2650
2.91667	2352
2.92033	2082
2.92400	1839
2.92767	1623
2.93133	1431
2.93500	1264
2.93867	1119
2.94233	989
2.94600	878
2.94967	781
2.95333	696
2.95700	623
2.96067	561
2.96433	505
2.96800	456
2.97167	414
2.97533	378
2.97900	344
2.98267	317
2.98633	293
2.99000	271
2.99367	253
2.99733	238
3.00100	228
3.00467	218
3.00833	208
3.01200	200
3.01567	195
3.01933	189
3.02300	184
3.02667	178
3.03033	175
3.03400	174
3.03767	173
3.04133	171
3.04500	169
3.04867	166
3.05233	163
3.05600	159
3.05967	156
3.06333	154
3.06700	153
3.07067	151
3.07433	152
3.07800	153
3.08167	153
3.08533	152
3.08900	150
3.09267	148
3.09633	148
3.10000	149
3.10367	150
3.10733	152
3.11100	153
3.11467	151
3.11833	150
3.12200	151
3.12567	152
3.12933	154
3.13300	156
3.13667	157
3.14033	158
3.14400	156
3.14767	155
3.15133	154
3.15500	154
3.15867	155
3.16233	156
3.16600	158
3.16967	158
3.17333	159
3.17700	160
3.18067	164
3.18433	166
3.18800	170
3.19167	172
3.19533	173
3.19900	173
3.20267	172
3.20633	173
3.21000	176
3.21367	178
3.21733	181
3.22100	182
3.22467	183
3.22833	183
3.23200	183
3.23567	185
3.23933	188
3.24300	190
3.24667	191
3.25033	193
3.25400	198
3.25767	202
3.26133	204
3.26500	206
3.26867	206
3.27233	205
3.27600	205
3.27967	205
3.28333	206
3.28700	209
3.29067	210
3.29433	212
3.29800	214
3.30167	215
3.30533	218
3.30900	222
3.31267	226
3.31633	227
3.32000	229
3.32367	230
3.32733	230
3.33100	229
3.33467	232
3.33833	234
3.34200	235
3.34567	235
3.34933	235
3.35300	235
3.35667	235
3.36033	237
3.36400	240
3.36767	243
3.37133	247
3.37500	252
3.37867	252
3.38233	251
3.38600	251
3.38967	250
3.39333	249
3.39700	249
3.40067	250
3.40433	253
3.40800	256
3.41167	261
3.41533	263
3.41900	264
3.42267	264
3.42633	264
3.43000	264
3.43367	266
3.43733	265
3.44100	265
3.44467	265
3.44833	265
3.45200	266
3.45567	268
3.45933	271
3.46300	271
3.46667	271
3.47033	272
3.47400	272
3.47767	273
3.48133	276
3.48500	277
3.48867	278
3.49233	278
3.49600	276
3.49967	276
3.50333	277
3.50700	280
3.51067	280
3.51433	279
3.51800	278
3.52167	278
3.52533	275
3.52900	272
3.53267	272
3.53633	273
3.54000	272
3.54367	274
3.54733	274
3.55100	273
3.55467	275
3.55833	274
3.56200	272
3.56567	271
3.56933	270
3.57300	268
3.57667	268
3.58033	266
3.58400	267
3.58767	269
3.59133	270
3.59500	269
3.59867	267
3.60233	266
3.60600	265
3.60967	266
3.61333	270
3.61700	271
3.62067	271
3.62433	270
3.62800	269
3.63167	270
3.63533	269
3.63900	267
3.64267	265
3.64633	264
3.65000	266
3.65367	266
3.65733	266
3.66100	266
3.66467	265
3.66833	262
3.67200	260
3.67567	256
3.67933	247
3.68300	239
3.68667	237
3.69033	238
3.69400	242
3.69767	250
3.70133	261
3.70500	276
3.70867	291
3.71233	307
3.71600	322
3.71967	339
3.72333	354
3.72700	369
3.73067	385
3.73433	398
3.73800	412
3.74167	426
3.74533	441
3.74900	455
3.75267	468
3.75633	480
3.76000	489
3.76367	496
3.76733	503
3.77100	508
3.77467	513
3.77833	518
3.78200	524
3.78567	529
3.78933	535
3.79300	539
3.79667	539
3.80033	538
3.80400	540
3.80767	544
3.81133	547
3.81500	551
3.81867	552
3.82233	554
3.82600	558
3.82967	560
3.83333	561
3.83700	561
3.84067	560
3.84433	560
3.84800	562
3.85167	563
3.85533	565
3.85900	566
3.86267	567
3.86633	566
3.87000	568
3.87367	570
3.87733	571
3.88100	570
3.88467	570
3.88833	567
3.89200	565
3.89567	564
3.89933	564
3.90300	563
3.90667	563
3.91033	563
3.91400	563
3.91767	564
3.92133	566
3.92500	567
3.92867	567
3.93233	567
3.93600	569
3.93967	570
3.94333	570
3.94700	568
3.95067	563
3.95433	560
3.95800	559
3.96167	559
3.96533	559
3.96900	559
3.97267	557
3.97633	555
3.98000	554
3.98367	554
3.98733	551
3.99100	550
3.99467	548
3.99833	543

[Status Trace (Column Oven Temperature)]
Interval(msec)	1000
# of Points	240
Start Time(min)	0.016
End Time(min)	4.000
Intensity Units	
Intensity Multiplier	1
R.Time (min)	Intensity
0.01620	35.03
0.03287	35.03
0.04953	35.04
0.06620	35.02
0.08287	35.01
0.09953	35.01
0.11620	35.01
0.13287	35.03
0.14953	35.03
0.16620	35.04
0.18287	35.04
0.19953	35.04
0.21620	35.05
0.23287	35.04
0.24953	35.04
0.26620	35.03
0.28287	35.03
0.29953	35.03
0.31620	35.04
0.33287	35.03
0.34953	35.03
0.36620	35.02
0.38287	35.02
0.39953	35.03
0.41620	35.02
0.43287	35.02
0.44953	35.03
0.46620	35.03
0.48287	35.02
0.49953	35.02
0.51620	35.01
0.53287	35.00
0.54953	35.00
0.56620	34.99
0.58287	34.98
0.59953	34.99
0.61620	34.99
0.63287	35.00
0.64953	35.00
0.66620	35.01
0.68287	35.01
0.69953	35.01
0.71620	35.01
0.73287	35.00
0.74953	35.01
0.76620	35.01
0.78287	35.00
0.79953	35.00
0.81620	35.00
0.83287	35.00
0.84953	34.99
0.86620	34.99
0.88287	35.00
0.89953	35.00
0.91620	35.00
0.93287	35.01
0.94953	35.00
0.96620	35.00
0.98287	35.00
0.99953	35.00
1.01620	35.01
1.03287	35.02
1.04953	35.01
1.06620	35.01
1.08287	35.01
1.09953	34.99
1.11620	34.98
1.13287	34.98
1.14953	34.98
1.16620	34.97
1.18287	34.97
1.19953	34.98
1.21620	34.98
1.23287	34.99
1.24953	34.99
1.26620	34.99
1.28287	35.00
1.29953	35.00
1.31620	35.00
1.33287	35.00
1.34953	35.00
1.36620	35.00
1.38287	35.01
1.39953	35.00
1.41620	35.00
1.43287	34.99
1.44953	34.98
1.46620	34.99
1.48287	34.99
1.49953	35.00
1.51620	35.00
1.53287	35.00
1.54953	35.00
1.56620	35.00
1.58287	35.00
1.59953	35.03
1.61620	35.11
1.63287	35.27
1.64953	35.49
1.66620	35.77
1.68287	36.12
1.69953	36.48
1.71620	36.83
1.73287	37.18
1.74953	37.50
1.76620	37.83
1.78287	38.17
1.79953	38.51
1.81620	38.83
1.83287	39.16
1.84953	39.48
1.86620	39.81
1.88287	40.15
1.89953	40.48
1.91620	40.80
1.93287	41.14
1.94953	41.46
1.96620	41.80
1.98287	42.11
1.99953	42.43
2.01620	42.76
2.03287	43.09
2.04953	43.42
2.06620	43.74
2.08287	44.06
2.09953	44.38
2.11620	44.71
2.13287	45.05
2.14953	45.36
2.16620	45.70
2.18287	46.02
2.19953	46.34
2.21620	46.67
2.23287	46.95
2.24953	47.34
2.26620	47.67
2.28287	48.00
2.29953	48.33
2.31620	48.64
2.33287	48.99
2.34953	49.33
2.36620	49.56
2.38287	49.65
2.39953	49.64
2.41620	49.67
2.43287	49.68
2.44953	49.68
2.46620	49.69
2.48287	49.68
2.49953	49.70
2.51620	49.71
2.53287	49.71
2.54953	49.74
2.56620	49.75
2.58287	49.78
2.59953	49.79
2.61620	49.81
2.63287	49.81
2.64953	49.81
2.66620	49.82
2.68287	49.83
2.69953	49.84
2.71620	49.87
2.73287	49.89
2.74953	49.89
2.76620	49.88
2.78287	49.87
2.79953	49.85
2.81620	49.86
2.83287	49.87
2.84953	49.88
2.86620	49.89
2.88287	49.90
2.89953	49.91
2.91620	49.92
2.93287	49.93
2.94953	49.95
2.96620	49.95
2.98287	49.97
2.99953	49.98
3.01620	49.99
3.03287	50.00
3.04953	50.02
3.06620	50.01
3.08287	50.02
3.09953	50.04
3.11620	50.05
3.13287	50.05
3.14953	50.06
3.16620	50.07
3.18287	50.08
3.19953	50.10
3.21620	50.10
3.23287	50.10
3.24953	50.10
3.26620	50.09
3.28287	50.08
3.29953	50.06
3.31620	50.06
3.33287	50.06
3.34953	50.05
3.36620	50.04
3.38287	50.04
3.39953	50.05
3.41620	50.05
3.43287	50.06
3.44953	50.08
3.46620	50.08
3.48287	50.09
3.49953	50.09
3.51620	50.09
3.53287	50.09
3.54953	50.09
3.56620	50.10
3.58287	50.10
3.59953	50.11
3.61620	50.10
3.63287	50.08
3.64953	50.07
3.66620	50.07
3.68287	50.05
3.69953	50.04
3.71620	50.05
3.73287	50.05
3.74953	50.05
3.76620	50.04
3.78287	50.03
3.79953	50.02
3.81620	50.02
3.83287	50.01
3.84953	50.01
3.86620	50.00
3.88287	50.01
3.89953	50.01
3.91620	50.01
3.93287	50.01
3.94953	50.01
3.96620	50.02
3.98287	50.03
3.99953	50.04

[Status Trace (Injection Unit Temperature)]
Interval(msec)	1000
# of Points	240
Start Time(min)	0.016
End Time(min)	4.000
Intensity Units	
Intensity Multiplier	1
R.Time (min)	Intensity
0.01620	99.98
0.03287	99.98
0.04953	99.98
0.06620	99.98
0.08287	99.98
0.09953	99.98
0.11620	99.98
0.13287	99.98
0.14953	99.98
0.16620	99.97
0.18287	99.98
0.19953	99.98
0.21620	99.98
0.23287	99.98
0.24953	99.98
0.26620	99.98
0.28287	99.98
0.29953	99.98
0.31620	99.98
0.33287	99.98
0.34953	99.98
0.36620	99.98
0.38287	99.98
0.39953	99.98
0.41620	99.98
0.43287	99.98
0.44953	99.98
0.46620	99.98
0.48287	99.98
0.49953	99.98
0.51620	99.99
0.53287	99.98
0.54953	99.98
0.56620	99.98
0.58287	99.98
0.59953	99.98
0.61620	99.98
0.63287	99.98
0.64953	99.98
0.66620	99.98
0.68287	99.98
0.69953	99.98
0.71620	99.98
0.73287	99.98
0.74953	99.98
0.76620	99.98
0.78287	99.99
0.79953	99.98
0.81620	99.98
0.83287	99.98
0.84953	99.98
0.86620	99.98
0.88287	99.98
0.89953	99.98
0.91620	99.98
0.93287	99.98
0.94953	99.98
0.96620	99.98
0.98287	99.98
0.99953	99.99
1.01620	99.98
1.03287	99.99
1.04953	99.98
1.06620	99.98
1.08287	99.98
1.09953	99.98
1.11620	99.98
1.13287	99.98
1.14953	99.98
1.16620	99.98
1.18287	99.98
1.19953	99.98
1.21620	99.98
1.23287	99.98
1.24953	99.98
1.26620	99.98
1.28287	99.98
1.29953	99.98
1.31620	99.98
1.33287	99.98
1.34953	99.98
1.36620	99.98
1.38287	99.99
1.39953	99.98
1.41620	99.98
1.43287	99.98
1.44953	99.99
1.46620	99.99
1.48287	99.98
1.49953	99.99
1.51620	99.99
1.53287	99.99
1.54953	99.99
1.56620	99.99
1.58287	99.99
1.59953	99.98
1.61620	99.98
1.63287	99.99
1.64953	99.99
1.66620	99.99
1.68287	99.99
1.69953	99.99
1.71620	99.99
1.73287	99.98
1.74953	99.99
1.76620	99.99
1.78287	99.99
1.79953	99.98
1.81620	99.98
1.83287	99.98
1.84953	99.98
1.86620	99.98
1.88287	99.98
1.89953	99.97
1.91620	99.98
1.93287	99.98
1.94953	99.98
1.96620	99.98
1.98287	99.98
1.99953	99.98
2.01620	99.97
2.03287	99.97
2.04953	99.97
2.06620	99.97
2.08287	99.97
2.09953	99.97
2.11620	99.96
2.13287	99.97
2.14953	99.97
2.16620	99.97
2.18287	99.97
2.19953	99.97
2.21620	99.96
2.23287	99.96
2.24953	99.97
2.26620	99.96
2.28287	99.97
2.29953	99.96
2.31620	99.96
2.33287	99.96
2.34953	99.96
2.36620	99.96
2.38287	99.96
2.39953	99.96
2.41620	99.97
2.43287	99.96
2.44953	99.96
2.46620	99.96
2.48287	99.97
2.49953	99.97
2.51620	99.97
2.53287	99.97
2.54953	99.97
2.56620	99.97
2.58287	99.97
2.59953	99.97
2.61620	99.97
2.63287	99.98
2.64953	99.98
2.66620	99.98
2.68287	99.98
2.69953	99.98
2.71620	99.98
2.73287	99.98
2.74953	99.99
2.76620	99.99
2.78287	99.99
2.79953	99.99
2.81620	100.00
2.83287	100.00
2.84953	100.00
2.86620	100.00
2.88287	100.00
2.89953	100.00
2.91620	100.01
2.93287	100.00
2.94953	100.00
2.96620	100.01
2.98287	100.01
2.99953	100.01
3.01620	100.01
3.03287	100.01
3.04953	100.01
3.06620	100.01
3.08287	100.01
3.09953	100.01
3.11620	100.02
3.13287	100.02
3.14953	100.02
3.16620	100.02
3.18287	100.02
3.19953	100.02
3.21620	100.02
3.23287	100.02
3.24953	100.03
3.26620	100.02
3.28287	100.02
3.29953	100.02
3.31620	100.02
3.33287	100.02
3.34953	100.02
3.36620	100.02
3.38287	100.02
3.39953	100.03
3.41620	100.03
3.43287	100.03
3.44953	100.02
3.46620	100.02
3.48287	100.03
3.49953	100.03
3.51620	100.02
3.53287	100.02
3.54953	100.03
3.56620	100.03
3.58287	100.03
3.59953	100.03
3.61620	100.03
3.63287	100.03
3.64953	100.03
3.66620	100.03
3.68287	100.03
3.69953	100.03
3.71620	100.04
3.73287	100.03
3.74953	100.03
3.76620	100.04
3.78287	100.03
3.79953	100.04
3.81620	100.04
3.83287	100.04
3.84953	100.04
3.86620	100.04
3.88287	100.04
3.89953	100.04
3.91620	100.04
3.93287	100.04
3.94953	100.04
3.96620	100.04
3.98287	100.04
3.99953	100.04

[Status Trace (Carrier Gas Pressure)]
Interval(msec)	1000
# of Points	240
Start Time(min)	0.016
End Time(min)	4.000
Intensity Units	
Intensity Multiplier	1
R.Time (min)	Intensity
0.01620	56.80
0.03287	55.83
0.04953	58.23
0.06620	59.90
0.08287	58.50
0.09953	57.97
0.11620	58.00
0.13287	58.01
0.14953	58.01
0.16620	58.00
0.18287	58.00
0.19953	58.00
0.21620	58.00
0.23287	58.00
0.24953	58.00
0.26620	58.00
0.28287	58.00
0.29953	58.00
0.31620	58.00
0.33287	58.00
0.34953	58.00
0.36620	58.00
0.38287	58.00
0.39953	58.00
0.41620	58.00
0.43287	58.00
0.44953	58.00
0.46620	58.00
0.48287	58.00
0.49953	58.00
0.51620	58.00
0.53287	58.00
0.54953	58.00
0.56620	58.00
0.58287	58.00
0.59953	58.00
0.61620	58.00
0.63287	58.00
0.64953	58.00
0.66620	58.00
0.68287	58.00
0.69953	58.00
0.71620	58.00
0.73287	58.00
0.74953	58.00
0.76620	58.00
0.78287	58.00
0.79953	58.00
0.81620	58.00
0.83287	58.00
0.84953	58.00
0.86620	58.00
0.88287	58.00
0.89953	58.00
0.91620	58.00
0.93287	58.00
0.94953	58.00
0.96620	58.00
0.98287	58.00
0.99953	58.00
1.01620	58.00
1.03287	58.00
1.04953	58.00
1.06620	58.00
1.08287	58.00
1.09953	58.00
1.11620	58.00
1.13287	58.00
1.14953	58.00
1.16620	58.00
1.18287	58.00
1.19953	58.00
1.21620	58.00
1.23287	58.00
1.24953	58.00
1.26620	58.00
1.28287	58.00
1.29953	58.00
1.31620	58.00
1.33287	58.00
1.34953	58.00
1.36620	58.00
1.38287	58.00
1.39953	58.00
1.41620	58.00
1.43287	58.00
1.44953	58.00
1.46620	58.00
1.48287	58.00
1.49953	58.00
1.51620	58.00
1.53287	58.00
1.54953	58.00
1.56620	58.00
1.58287	58.00
1.59953	58.00
1.61620	58.00
1.63287	58.00
1.64953	58.00
1.66620	58.00
1.68287	58.01
1.69953	58.00
1.71620	58.00
1.73287	58.00
1.74953	58.00
1.76620	58.00
1.78287	58.00
1.79953	58.00
1.81620	58.00
1.83287	58.00
1.84953	58.00
1.86620	58.00
1.88287	58.00
1.89953	58.00
1.91620	58.00
1.93287	58.00
1.94953	58.00
1.96620	58.00
1.98287	58.00
1.99953	58.00
2.01620	58.00
2.03287	58.00
2.04953	58.00
2.06620	58.00
2.08287	58.00
2.09953	58.00
2.11620	58.00
2.13287	58.00
2.14953	58.00
2.16620	58.00
2.18287	58.00
2.19953	58.00
2.21620	58.00
2.23287	58.00
2.24953	58.00
2.26620	58.00
2.28287	58.00
2.29953	58.00
2.31620	58.00
2.33287	58.00
2.34953	58.00
2.36620	57.99
2.38287	57.99
2.39953	57.99
2.41620	58.00
2.43287	58.00
2.44953	58.00
2.46620	58.00
2.48287	58.00
2.49953	58.00
2.51620	57.99
2.53287	57.99
2.54953	58.00
2.56620	58.00
2.58287	58.00
2.59953	58.00
2.61620	58.00
2.63287	58.00
2.64953	58.00
2.66620	58.00
2.68287	58.00
2.69953	58.00
2.71620	58.00
2.73287	58.00
2.74953	58.00
2.76620	58.00
2.78287	58.00
2.79953	58.00
2.81620	58.00
2.83287	58.00
2.84953	58.00
2.86620	58.00
2.88287	58.00
2.89953	58.00
2.91620	58.00
2.93287	58.00
2.94953	58.00
2.96620	58.00
2.98287	58.00
2.99953	58.00
3.01620	58.00
3.03287	58.00
3.04953	58.00
3.06620	58.00
3.08287	58.00
3.09953	58.00
3.11620	58.00
3.13287	58.00
3.14953	58.00
3.16620	58.00
3.18287	58.00
3.19953	58.00
3.21620	58.00
3.23287	58.00
3.24953	58.00
3.26620	58.00
3.28287	58.00
3.29953	58.00
3.31620	58.00
3.33287	58.00
3.34953	58.00
3.36620	58.00
3.38287	58.00
3.39953	58.00
3.41620	58.00
3.43287	58.00
3.44953	58.00
3.46620	58.00
3.48287	58.00
3.49953	58.00
3.51620	58.00
3.53287	58.00
3.54953	58.00
3.56620	58.00
3.58287	58.00
3.59953	58.00
3.61620	58.00
3.63287	58.00
3.64953	58.00
3.66620	58.00
3.68287	58.00
3.69953	58.00
3.71620	58.00
3.73287	58.00
3.74953	58.00
3.76620	58.00
3.78287	58.00
3.79953	58.00
3.81620	58.00
3.83287	58.00
3.84953	58.00
3.86620	58.00
3.88287	58.00
3.89953	58.00
3.91620	58.00
3.93287	58.00
3.94953	58.00
3.96620	58.00
3.98287	58.00
3.99953	58.00

[Status Trace (Carrier Gas Flow)]
Interval(msec)	1000
# of Points	240
Start Time(min)	0.016
End Time(min)	4.000
Intensity Units	
Intensity Multiplier	1
R.Time (min)	Intensity
0.01620	33.76
0.03287	34.54
0.04953	34.55
0.06620	34.51
0.08287	34.51
0.09953	34.52
0.11620	34.52
0.13287	34.52
0.14953	34.52
0.16620	34.52
0.18287	34.52
0.19953	34.52
0.21620	34.52
0.23287	34.51
0.24953	34.51
0.26620	34.52
0.28287	34.52
0.29953	34.52
0.31620	34.52
0.33287	34.52
0.34953	34.52
0.36620	34.52
0.38287	34.52
0.39953	34.51
0.41620	34.52
0.43287	34.52
0.44953	34.51
0.46620	34.52
0.48287	34.52
0.49953	34.52
0.51620	34.52
0.53287	34.52
0.54953	34.52
0.56620	34.52
0.58287	34.52
0.59953	34.52
0.61620	34.52
0.63287	34.51
0.64953	34.52
0.66620	34.52
0.68287	34.53
0.69953	34.52
0.71620	34.52
0.73287	34.52
0.74953	34.51
0.76620	34.52
0.78287	34.52
0.79953	34.52
0.81620	34.52
0.83287	34.52
0.84953	34.52
0.86620	34.52
0.88287	34.52
0.89953	34.52
0.91620	34.52
0.93287	34.52
0.94953	34.52
0.96620	34.52
0.98287	34.52
0.99953	34.52
1.01620	34.52
1.03287	34.52
1.04953	34.52
1.06620	34.52
1.08287	34.52
1.09953	34.52
1.11620	34.52
1.13287	34.52
1.14953	34.51
1.16620	34.52
1.18287	34.52
1.19953	34.52
1.21620	34.52
1.23287	34.52
1.24953	34.52
1.26620	34.52
1.28287	34.52
1.29953	34.52
1.31620	34.52
1.33287	34.52
1.34953	34.51
1.36620	34.52
1.38287	34.52
1.39953	34.52
1.41620	34.52
1.43287	34.52
1.44953	34.52
1.46620	34.52
1.48287	34.52
1.49953	34.52
1.51620	34.52
1.53287	34.52
1.54953	34.52
1.56620	34.52
1.58287	34.52
1.59953	34.52
1.61620	34.52
1.63287	34.52
1.64953	34.52
1.66620	34.52
1.68287	34.52
1.69953	34.52
1.71620	34.51
1.73287	34.52
1.74953	34.52
1.76620	34.52
1.78287	34.52
1.79953	34.52
1.81620	34.52
1.83287	34.52
1.84953	34.51
1.86620	34.53
1.88287	34.52
1.89953	34.52
1.91620	34.52
1.93287	34.52
1.94953	34.52
1.96620	34.52
1.98287	34.51
1.99953	34.52
2.01620	34.52
2.03287	34.53
2.04953	34.51
2.06620	34.52
2.08287	34.52
2.09953	34.52
2.11620	34.53
2.13287	34.51
2.14953	34.52
2.16620	34.52
2.18287	34.52
2.19953	34.53
2.21620	34.52
2.23287	34.52
2.24953	34.52
2.26620	34.51
2.28287	34.52
2.29953	34.52
2.31620	34.52
2.33287	34.52
2.34953	34.52
2.36620	34.52
2.38287	34.52
2.39953	34.52
2.41620	34.52
2.43287	34.52
2.44953	34.52
2.46620	34.52
2.48287	34.52
2.49953	34.52
2.51620	34.52
2.53287	34.52
2.54953	34.51
2.56620	34.52
2.58287	34.52
2.59953	34.52
2.61620	34.51
2.63287	34.52
2.64953	34.52
2.66620	34.52
2.68287	34.52
2.69953	34.52
2.71620	34.52
2.73287	34.52
2.74953	34.52
2.76620	34.51
2.78287	34.52
2.79953	34.52
2.81620	34.52
2.83287	34.52
2.84953	34.52
2.86620	34.52
2.88287	34.52
2.89953	34.52
2.91620	34.52
2.93287	34.52
2.94953	34.53
2.96620	34.52
2.98287	34.52
2.99953	34.52
3.01620	34.51
3.03287	34.51
3.04953	34.51
3.06620	34.52
3.08287	34.51
3.09953	34.52
3.11620	34.52
3.13287	34.52
3.14953	34.52
3.16620	34.52
3.18287	34.52
3.19953	34.52
3.21620	34.52
3.23287	34.52
3.24953	34.51
3.26620	34.52
3.28287	34.52
3.29953	34.52
3.31620	34.52
3.33287	34.52
3.34953	34.52
3.36620	34.52
3.38287	34.52
3.39953	34.52
3.41620	34.52
3.43287	34.52
3.44953	34.52
3.46620	34.52
3.48287	34.52
3.49953	34.52
3.51620	34.52
3.53287	34.52
3.54953	34.52
3.56620	34.52
3.58287	34.52
3.59953	34.52
3.61620	34.52
3.63287	34.52
3.64953	34.52
3.66620	34.52
3.68287	34.52
3.69953	34.52
3.71620	34.52
3.73287	34.52
3.74953	34.52
3.76620	34.52
3.78287	34.52
3.79953	34.51
3.81620	34.52
3.83287	34.52
3.84953	34.52
3.86620	34.52
3.88287	34.52
3.89953	34.52
3.91620	34.52
3.93287	34.52
3.94953	34.52
3.96620	34.52
3.98287	34.52
3.99953	34.52

[Status Trace (Column Flow)]
Interval(msec)	1000
# of Points	240
Start Time(min)	0.016
End Time(min)	4.000
Intensity Units	
Intensity Multiplier	1
R.Time (min)	Intensity
0.01620	5.39
0.03287	5.28
0.04953	5.56
0.06620	5.75
0.08287	5.59
0.09953	5.53
0.11620	5.53
0.13287	5.53
0.14953	5.53
0.16620	5.53
0.18287	5.53
0.19953	5.53
0.21620	5.53
0.23287	5.53
0.24953	5.53
0.26620	5.53
0.28287	5.53
0.29953	5.53
0.31620	5.53
0.33287	5.53
0.34953	5.53
0.36620	5.53
0.38287	5.53
0.39953	5.53
0.41620	5.53
0.43287	5.53
0.44953	5.53
0.46620	5.53
0.48287	5.53
0.49953	5.53
0.51620	5.53
0.53287	5.53
0.54953	5.53
0.56620	5.53
0.58287	5.53
0.59953	5.53
0.61620	5.53
0.63287	5.53
0.64953	5.53
0.66620	5.53
0.68287	5.53
0.69953	5.53
0.71620	5.53
0.73287	5.53
0.74953	5.53
0.76620	5.53
0.78287	5.53
0.79953	5.53
0.81620	5.53
0.83287	5.53
0.84953	5.53
0.86620	5.53
0.88287	5.53
0.89953	5.53
0.91620	5.53
0.93287	5.53
0.94953	5.53
0.96620	5.53
0.98287	5.53
0.99953	5.53
1.01620	5.53
1.03287	5.53
1.04953	5.53
1.06620	5.53
1.08287	5.53
1.09953	5.53
1.11620	5.53
1.13287	5.53
1.14953	5.53
1.16620	5.53
1.18287	5.53
1.19953	5.53
1.21620	5.53
1.23287	5.53
1.24953	5.53
1.26620	5.53
1.28287	5.53
1.29953	5.53
1.31620	5.53
1.33287	5.53
1.34953	5.53
1.36620	5.53
1.38287	5.53
1.39953	5.53
1.41620	5.53
1.43287	5.53
1.44953	5.53
1.46620	5.53
1.48287	5.53
1.49953	5.53
1.51620	5.53
1.53287	5.53
1.54953	5.53
1.56620	5.53
1.58287	5.53
1.59953	5.53
1.61620	5.53
1.63287	5.52
1.64953	5.52
1.66620	5.51
1.68287	5.50
1.69953	5.48
1.71620	5.47
1.73287	5.46
1.74953	5.45
1.76620	5.44
1.78287	5.43
1.79953	5.42
1.81620	5.41
1.83287	5.40
1.84953	5.39
1.86620	5.38
1.88287	5.37
1.89953	5.36
1.91620	5.35
1.93287	5.34
1.94953	5.33
1.96620	5.32
1.98287	5.31
1.99953	5.30
2.01620	5.29
2.03287	5.28
2.04953	5.27
2.06620	5.26
2.08287	5.26
2.09953	5.25
2.11620	5.24
2.13287	5.23
2.14953	5.22
2.16620	5.21
2.18287	5.20
2.19953	5.19
2.21620	5.18
2.23287	5.17
2.24953	5.16
2.26620	5.15
2.28287	5.14
2.29953	5.13
2.31620	5.12
2.33287	5.11
2.34953	5.11
2.36620	5.10
2.38287	5.10
2.39953	5.10
2.41620	5.10
2.43287	5.10
2.44953	5.09
2.46620	5.09
2.48287	5.09
2.49953	5.09
2.51620	5.09
2.53287	5.09
2.54953	5.09
2.56620	5.09
2.58287	5.09
2.59953	5.09
2.61620	5.09
2.63287	5.09
2.64953	5.09
2.66620	5.09
2.68287	5.09
2.69953	5.09
2.71620	5.09
2.73287	5.09
2.74953	5.09
2.76620	5.09
2.78287	5.09
2.79953	5.09
2.81620	5.09
2.83287	5.09
2.84953	5.09
2.86620	5.09
2.88287	5.09
2.89953	5.09
2.91620	5.09
2.93287	5.09
2.94953	5.09
2.96620	5.09
2.98287	5.09
2.99953	5.09
3.01620	5.09
3.03287	5.09
3.04953	5.09
3.06620	5.09
3.08287	5.09
3.09953	5.09
3.11620	5.08
3.13287	5.08
3.14953	5.08
3.16620	5.08
3.18287	5.08
3.19953	5.08
3.21620	5.08
3.23287	5.08
3.24953	5.08
3.26620	5.08
3.28287	5.08
3.29953	5.08
3.31620	5.08
3.33287	5.08
3.34953	5.09
3.36620	5.09
3.38287	5.09
3.39953	5.09
3.41620	5.09
3.43287	5.08
3.44953	5.08
3.46620	5.08
3.48287	5.08
3.49953	5.08
3.51620	5.08
3.53287	5.08
3.54953	5.08
3.56620	5.08
3.58287	5.08
3.59953	5.08
3.61620	5.08
3.63287	5.08
3.64953	5.08
3.66620	5.08
3.68287	5.09
3.69953	5.09
3.71620	5.09
3.73287	5.08
3.74953	5.08
3.76620	5.09
3.78287	5.09
3.79953	5.09
3.81620	5.09
3.83287	5.09
3.84953	5.09
3.86620	5.09
3.88287	5.09
3.89953	5.09
3.91620	5.09
3.93287	5.09
3.94953	5.09
3.96620	5.09
3.98287	5.09
3.99953	5.09

[Status Trace (Linear Velocity)]
Interval(msec)	1000
# of Points	240
Start Time(min)	0.016
End Time(min)	4.000
Intensity Units	
Intensity Multiplier	1
R.Time (min)	Intensity
0.01620	38.23
0.03287	37.59
0.04953	39.16
0.06620	40.26
0.08287	39.34
0.09953	39.00
0.11620	39.02
0.13287	39.02
0.14953	39.02
0.16620	39.02
0.18287	39.02
0.19953	39.02
0.21620	39.01
0.23287	39.02
0.24953	39.02
0.26620	39.02
0.28287	39.02
0.29953	39.02
0.31620	39.02
0.33287	39.02
0.34953	39.02
0.36620	39.02
0.38287	39.02
0.39953	39.02
0.41620	39.02
0.43287	39.02
0.44953	39.02
0.46620	39.02
0.48287	39.02
0.49953	39.02
0.51620	39.02
0.53287	39.02
0.54953	39.02
0.56620	39.02
0.58287	39.02
0.59953	39.02
0.61620	39.02
0.63287	39.02
0.64953	39.02
0.66620	39.02
0.68287	39.02
0.69953	39.02
0.71620	39.02
0.73287	39.02
0.74953	39.02
0.76620	39.02
0.78287	39.02
0.79953	39.02
0.81620	39.02
0.83287	39.02
0.84953	39.02
0.86620	39.02
0.88287	39.02
0.89953	39.02
0.91620	39.02
0.93287	39.02
0.94953	39.02
0.96620	39.02
0.98287	39.02
0.99953	39.02
1.01620	39.02
1.03287	39.02
1.04953	39.02
1.06620	39.02
1.08287	39.02
1.09953	39.02
1.11620	39.02
1.13287	39.02
1.14953	39.02
1.16620	39.02
1.18287	39.02
1.19953	39.02
1.21620	39.02
1.23287	39.02
1.24953	39.02
1.26620	39.02
1.28287	39.02
1.29953	39.02
1.31620	39.02
1.33287	39.02
1.34953	39.02
1.36620	39.02
1.38287	39.02
1.39953	39.02
1.41620	39.02
1.43287	39.02
1.44953	39.02
1.46620	39.02
1.48287	39.02
1.49953	39.02
1.51620	39.02
1.53287	39.02
1.54953	39.02
1.56620	39.02
1.58287	39.02
1.59953	39.02
1.61620	39.01
1.63287	39.00
1.64953	38.97
1.66620	38.95
1.68287	38.91
1.69953	38.88
1.71620	38.84
1.73287	38.81
1.74953	38.78
1.76620	38.75
1.78287	38.72
1.79953	38.68
1.81620	38.65
1.83287	38.62
1.84953	38.59
1.86620	38.56
1.88287	38.53
1.89953	38.50
1.91620	38.47
1.93287	38.44
1.94953	38.41
1.96620	38.38
1.98287	38.35
1.99953	38.32
2.01620	38.29
2.03287	38.26
2.04953	38.23
2.06620	38.20
2.08287	38.17
2.09953	38.14
2.11620	38.11
2.13287	38.08
2.14953	38.05
2.16620	38.02
2.18287	37.99
2.19953	37.96
2.21620	37.93
2.23287	37.91
2.24953	37.87
2.26620	37.84
2.28287	37.81
2.29953	37.78
2.31620	37.75
2.33287	37.73
2.34953	37.69
2.36620	37.67
2.38287	37.66
2.39953	37.66
2.41620	37.66
2.43287	37.66
2.44953	37.66
2.46620	37.66
2.48287	37.66
2.49953	37.66
2.51620	37.65
2.53287	37.65
2.54953	37.66
2.56620	37.66
2.58287	37.65
2.59953	37.65
2.61620	37.65
2.63287	37.65
2.64953	37.65
2.66620	37.65
2.68287	37.65
2.69953	37.65
2.71620	37.65
2.73287	37.64
2.74953	37.64
2.76620	37.64
2.78287	37.65
2.79953	37.65
2.81620	37.65
2.83287	37.65
2.84953	37.65
2.86620	37.64
2.88287	37.64
2.89953	37.64
2.91620	37.64
2.93287	37.64
2.94953	37.64
2.96620	37.64
2.98287	37.64
2.99953	37.64
3.01620	37.64
3.03287	37.63
3.04953	37.63
3.06620	37.63
3.08287	37.63
3.09953	37.63
3.11620	37.63
3.13287	37.63
3.14953	37.63
3.16620	37.63
3.18287	37.63
3.19953	37.63
3.21620	37.63
3.23287	37.63
3.24953	37.63
3.26620	37.63
3.28287	37.63
3.29953	37.63
3.31620	37.63
3.33287	37.63
3.34953	37.63
3.36620	37.63
3.38287	37.63
3.39953	37.63
3.41620	37.63
3.43287	37.63
3.44953	37.63
3.46620	37.63
3.48287	37.63
3.49953	37.63
3.51620	37.63
3.53287	37.63
3.54953	37.63
3.56620	37.63
3.58287	37.63
3.59953	37.63
3.61620	37.63
3.63287	37.63
3.64953	37.63
3.66620	37.63
3.68287	37.63
3.69953	37.63
3.71620	37.63
3.73287	37.63
3.74953	37.63
3.76620	37.63
3.78287	37.63
3.79953	37.63
3.81620	37.63
3.83287	37.63
3.84953	37.63
3.86620	37.63
3.88287	37.63
3.89953	37.63
3.91620	37.63
3.93287	37.63
3.94953	37.63
3.96620	37.63
3.98287	37.63
3.99953	37.63

