[Header]
Application Name	LabSolutions
Version	5.110
Data File Name	C:\Users\User\Desktop\GC Analyses\Jack\Nachusa Grasslands Sampling\T3 Timepoint July 12th\T3_07122022_043.gcd
Output Date	3/14/2023
Output Time	3:43:32 PM

[File Information]
Type	Data File
Generated	3/13/2023 7:14:16 PM
Generated by	System Administrator
Modified	3/13/2023 7:20:51 PM
Modified by	System Administrator

[Sample Information]
Operator Name	System Administrator
Acquired	3/13/2023 7:16:50 PM
Sample Type	0:Unknown
Level	0
Sample Name	043
Sample ID	043
ISTD Amount1	1
ISTD Amount2	1
ISTD Amount3	1
ISTD Amount4	1
ISTD Amount5	1
ISTD Amount6	1
ISTD Amount7	1
ISTD Amount8	1
ISTD Amount9	1
ISTD Amount10	1
ISTD Amount11	1
ISTD Amount12	1
ISTD Amount13	1
ISTD Amount14	1
ISTD Amount15	1
ISTD Amount16	1
ISTD Amount17	1
ISTD Amount18	1
ISTD Amount19	1
ISTD Amount20	1
ISTD Amount21	1
ISTD Amount22	1
ISTD Amount23	1
ISTD Amount24	1
ISTD Amount25	1
ISTD Amount26	1
ISTD Amount27	1
ISTD Amount28	1
ISTD Amount29	1
ISTD Amount30	1
ISTD Amount31	1
ISTD Amount32	1
Sample Amount	1
Dilution Factor	1
Vial#	42
Injection Volume	1
Injection Count	1
Bar Code	

[Original Files]
Data File	C:\Users\User\Desktop\GC Analyses\Jack\Nachusa Grasslands Sampling\T3 Timepoint July 12th\T3_07122022_043.gcd
Method File	C:\LabSolutions\Data\GHG_4min_2022\ghg3_togas_w_acet_4 min_new_int.gcm
Batch File	C:\LabSolutions\Data\AutoSamplerTesting\T3_07122022.gcb
Report Format File	c:\LabSolutions\System\DEFAULT.lsr

[File Description]


[Configuration]
Instrument Name	C0B7VH3-Instrument1
Instrument #	1
Line #	1
# of Detectors	3
Detector ID	DET#1	DET#2	DET#3
Detector Name	FID	PTCD	ECD
# of Channels	1	1	1

[Peak Table(Ch1)]
# of Peaks	3
Peak#	R.Time	I.Time	F.Time	Area	Height	A/H	Conc.	Mark	ID#	Name	k'	Plate #	Plate Ht.	Tailing	Resolution	Sep.Factor	Area Ratio	Height Ratio	Conc. %	Norm Conc.
1	1.476	1.443	1.534	25330	12459	2.033	178.829	   	1	CO	0.000	9635	15.568	1.267	0.000	0.000	0	0	25.106	25.106
2	1.571	1.538	1.611	3695	1940	1.904	71.444	   	2	CH4	0.065	12020	12.479	1.118	1.623	0.000	0	0	10.030	10.030
3	2.000	1.952	2.268	1840954	889797	2.069	462.030	   	3	CO2	0.355	17582	8.532	1.194	7.293	5.500	0	0	64.864	64.864

[Peak Table(Ch2)]
# of Peaks	0

[Peak Table(Ch3)]
# of Peaks	5
Peak#	R.Time	I.Time	F.Time	Area	Height	A/H	Conc.	Mark	ID#	Name	k'	Plate #	Plate Ht.	Tailing	Resolution	Sep.Factor	Area Ratio	Height Ratio	Conc. %	Norm Conc.
1	2.462	2.235	2.510	2384	612	3.896	0.000	   			0.000	9429	15.908	0.000	0.000	0.000	0	0	0.000	0.000
2	2.528	2.510	2.590	1162	346	3.362	0.000	 V 			0.027	4329	34.647	0.000	0.517	0.000	0	0	0.000	0.000
3	2.605	2.590	2.686	538	156	3.439	0.000	 V 			0.058	1244	120.593	0.000	0.343	2.167	0	0	0.000	0.000
4	2.880	2.715	3.063	18243	4785	3.812	0.466	   	1	N2O	0.170	13258	11.314	1.524	1.391	2.923	0	0	100.000	100.000
5	3.404	3.250	3.995	15049	626	24.052	0.000	   	2	SF6	0.383	324	462.512	2.424	1.225	2.254	0	0	0.000	0.000

[Compound Results(Ch1)]
# of IDs	6
ID#	Name	R.Time	Area	Height	Conc.	Curve	3rd	2nd	1st	Constant	Area Ratio	Height Ratio	Conc. %	Norm Conc.
1	CO	1.476	25330	12459	178.829	Linear	0.000000e+00	0.000000e+00	1.416423e+002	0.000000e+00	0	0	25.106	25.106
2	CH4	1.571	3695	1940	71.444	Linear	0.000000e+00	0.000000e+00	5.171738e+001	0.000000e+00	0	0	10.030	10.030
3	CO2	2.000	1840954	889797	462.030	Linear	0.000000e+00	0.000000e+00	3.984494e+003	0.000000e+00	0	0	64.864	64.864
4	Ethylene	0.000	0	0	0.000	Linear	0.000000e+00	0.000000e+00	0.000000e+00	0.000000e+00	0	0	0.000	0.000
5	Acetylene	0.000	0	0	0.000	Linear	0.000000e+00	0.000000e+00	0.000000e+00	0.000000e+00	0	0	0.000	0.000
6	Ethane	0.000	0	0	0.000	Linear	0.000000e+00	0.000000e+00	0.000000e+00	0.000000e+00	0	0	0.000	0.000

[Compound Results(Ch2)]
# of IDs	5
ID#	Name	R.Time	Area	Height	Conc.	Curve	3rd	2nd	1st	Constant	Area Ratio	Height Ratio	Conc. %	Norm Conc.
1	Hydrogen	0.000	0	0	0.000	Linear	0.000000e+00	0.000000e+00	0.000000e+00	0.000000e+00	0	0	0.000	0.000
2	Oxygen	0.000	0	0	0.000	Linear	0.000000e+00	0.000000e+00	0.000000e+00	0.000000e+00	0	0	0.000	0.000
3	Nitrogen	0.000	0	0	0.000	Linear	0.000000e+00	0.000000e+00	0.000000e+00	0.000000e+00	0	0	0.000	0.000
4	Methane	0.000	0	0	0.000	Linear	0.000000e+00	0.000000e+00	0.000000e+00	0.000000e+00	0	0	0.000	0.000
5	Carbon Monoxide	0.000	0	0	0.000	Linear	0.000000e+00	0.000000e+00	0.000000e+00	0.000000e+00	0	0	0.000	0.000

[Compound Results(Ch3)]
# of IDs	2
ID#	Name	R.Time	Area	Height	Conc.	Curve	3rd	2nd	1st	Constant	Area Ratio	Height Ratio	Conc. %	Norm Conc.
1	N2O	2.880	18243	4785	0.466	Linear	0.000000e+00	0.000000e+00	3.915173e+004	0.000000e+00	0	0	100.000	100.000
2	SF6	3.404	15049	626	0.000	Linear	0.000000e+00	0.000000e+00	0.000000e+00	0.000000e+00	0	0	0.000	0.000

[Group Results(Ch1)]
# of Groups	0

[Group Results(Ch2)]
# of Groups	0

[Group Results(Ch3)]
# of Groups	0

[Chromatogram (Ch1)]
Interval(msec)	220
# of Points	1091
Start Time(min)	0.002
End Time(min)	3.998
R.Time (min)	Intensity
0.00167	23
0.00533	24
0.00900	22
0.01267	22
0.01633	26
0.02000	28
0.02367	24
0.02733	14
0.03100	3
0.03467	-2
0.03833	-5
0.04200	-6
0.04567	-7
0.04933	-9
0.05300	-10
0.05667	-10
0.06033	-10
0.06400	-7
0.06767	-2
0.07133	5
0.07500	13
0.07867	17
0.08233	17
0.08600	19
0.08967	27
0.09333	33
0.09700	34
0.10067	29
0.10433	22
0.10800	17
0.11167	15
0.11533	18
0.11900	18
0.12267	14
0.12633	12
0.13000	15
0.13367	18
0.13733	16
0.14100	12
0.14467	11
0.14833	9
0.15200	7
0.15567	5
0.15933	5
0.16300	8
0.16667	12
0.17033	12
0.17400	10
0.17767	6
0.18133	3
0.18500	-1
0.18867	-3
0.19233	-2
0.19600	1
0.19967	1
0.20333	-1
0.20700	-2
0.21067	1
0.21433	3
0.21800	4
0.22167	8
0.22533	13
0.22900	16
0.23267	15
0.23633	16
0.24000	19
0.24367	25
0.24733	32
0.25100	35
0.25467	37
0.25833	33
0.26200	20
0.26567	11
0.26933	6
0.27300	5
0.27667	7
0.28033	8
0.28400	9
0.28767	10
0.29133	13
0.29500	21
0.29867	28
0.30233	31
0.30600	35
0.30967	43
0.31333	49
0.31700	54
0.32067	61
0.32433	67
0.32800	71
0.33167	78
0.33533	86
0.33900	93
0.34267	94
0.34633	93
0.35000	95
0.35367	96
0.35733	97
0.36100	99
0.36467	108
0.36833	117
0.37200	122
0.37567	126
0.37933	130
0.38300	132
0.38667	135
0.39033	136
0.39400	134
0.39767	131
0.40133	131
0.40500	130
0.40867	127
0.41233	124
0.41600	117
0.41967	108
0.42333	99
0.42700	96
0.43067	94
0.43433	87
0.43800	80
0.44167	77
0.44533	76
0.44900	78
0.45267	81
0.45633	76
0.46000	68
0.46367	61
0.46733	56
0.47100	50
0.47467	44
0.47833	44
0.48200	49
0.48567	56
0.48933	53
0.49300	44
0.49667	30
0.50033	18
0.50400	12
0.50767	13
0.51133	14
0.51500	15
0.51867	14
0.52233	17
0.52600	26
0.52967	34
0.53333	37
0.53700	33
0.54067	27
0.54433	18
0.54800	11
0.55167	4
0.55533	-5
0.55900	-11
0.56267	-17
0.56633	-22
0.57000	-18
0.57367	-7
0.57733	2
0.58100	5
0.58467	9
0.58833	9
0.59200	1
0.59567	-10
0.59933	-16
0.60300	-17
0.60667	-17
0.61033	-14
0.61400	-7
0.61767	1
0.62133	8
0.62500	16
0.62867	21
0.63233	18
0.63600	14
0.63967	13
0.64333	11
0.64700	10
0.65067	6
0.65433	1
0.65800	-4
0.66167	-9
0.66533	-13
0.66900	-14
0.67267	-10
0.67633	-1
0.68000	7
0.68367	4
0.68733	-5
0.69100	-11
0.69467	-14
0.69833	-10
0.70200	-3
0.70567	-0
0.70933	-2
0.71300	-7
0.71667	-11
0.72033	-10
0.72400	-3
0.72767	6
0.73133	16
0.73500	19
0.73867	11
0.74233	-2
0.74600	-10
0.74967	-13
0.75333	-16
0.75700	-15
0.76067	-13
0.76433	-11
0.76800	-6
0.77167	3
0.77533	9
0.77900	6
0.78267	2
0.78633	1
0.79000	4
0.79367	7
0.79733	8
0.80100	6
0.80467	4
0.80833	0
0.81200	-7
0.81567	-10
0.81933	-9
0.82300	-7
0.82667	-6
0.83033	2
0.83400	14
0.83767	20
0.84133	20
0.84500	13
0.84867	6
0.85233	-1
0.85600	-7
0.85967	-12
0.86333	-16
0.86700	-18
0.87067	-20
0.87433	-20
0.87800	-16
0.88167	-11
0.88533	-11
0.88900	-12
0.89267	-14
0.89633	-14
0.90000	-9
0.90367	2
0.90733	15
0.91100	13
0.91467	-3
0.91833	-23
0.92200	-39
0.92567	-43
0.92933	-42
0.93300	-40
0.93667	-35
0.94033	-31
0.94400	-31
0.94767	-27
0.95133	-21
0.95500	-19
0.95867	-17
0.96233	-16
0.96600	-12
0.96967	-4
0.97333	1
0.97700	-1
0.98067	-7
0.98433	-13
0.98800	-18
0.99167	-22
0.99533	-25
0.99900	-25
1.00267	-20
1.00633	-14
1.01000	-8
1.01367	-3
1.01733	-5
1.02100	-10
1.02467	-12
1.02833	-10
1.03200	-13
1.03567	-15
1.03933	-15
1.04300	-18
1.04667	-25
1.05033	-36
1.05400	-45
1.05767	-49
1.06133	-47
1.06500	-41
1.06867	-32
1.07233	-24
1.07600	-18
1.07967	-18
1.08333	-23
1.08700	-29
1.09067	-36
1.09433	-40
1.09800	-37
1.10167	-34
1.10533	-33
1.10900	-28
1.11267	-22
1.11633	-21
1.12000	-27
1.12367	-32
1.12733	-37
1.13100	-38
1.13467	-37
1.13833	-35
1.14200	-30
1.14567	-27
1.14933	-25
1.15300	-23
1.15667	-23
1.16033	-27
1.16400	-31
1.16767	-34
1.17133	-34
1.17500	-36
1.17867	-35
1.18233	-31
1.18600	-26
1.18967	-27
1.19333	-26
1.19700	-21
1.20067	-24
1.20433	-30
1.20800	-35
1.21167	-35
1.21533	-29
1.21900	-23
1.22267	-24
1.22633	-28
1.23000	-31
1.23367	-31
1.23733	-30
1.24100	-27
1.24467	-24
1.24833	-18
1.25200	-16
1.25567	-22
1.25933	-30
1.26300	-34
1.26667	-32
1.27033	-23
1.27400	-14
1.27767	-6
1.28133	-1
1.28500	-1
1.28867	-2
1.29233	-8
1.29600	-19
1.29967	-31
1.30333	-38
1.30700	-41
1.31067	-46
1.31433	-50
1.31800	-51
1.32167	-53
1.32533	-57
1.32900	-62
1.33267	-63
1.33633	-61
1.34000	-60
1.34367	-61
1.34733	-62
1.35100	-59
1.35467	-58
1.35833	-58
1.36200	-56
1.36567	-54
1.36933	-52
1.37300	-47
1.37667	-39
1.38033	-30
1.38400	-21
1.38767	-12
1.39133	-11
1.39500	-17
1.39867	-25
1.40233	-36
1.40600	-48
1.40967	-55
1.41333	-53
1.41700	-47
1.42067	-41
1.42433	-40
1.42800	-42
1.43167	-47
1.43533	-51
1.43900	-48
1.44267	-17
1.44633	127
1.45000	570
1.45367	1609
1.45733	3462
1.46100	5860
1.46467	8255
1.46833	10253
1.47200	11664
1.47567	12387
1.47933	12319
1.48300	11412
1.48667	9818
1.49033	7869
1.49400	5928
1.49767	4241
1.50133	2904
1.50500	1911
1.50867	1204
1.51233	715
1.51600	385
1.51967	168
1.52333	22
1.52700	-77
1.53067	-141
1.53433	-172
1.53800	-178
1.54167	-146
1.54533	-33
1.54900	206
1.55267	559
1.55633	946
1.56000	1295
1.56367	1569
1.56733	1741
1.57100	1783
1.57467	1674
1.57833	1429
1.58200	1114
1.58567	796
1.58933	523
1.59300	311
1.59667	158
1.60033	49
1.60400	-31
1.60767	-90
1.61133	-132
1.61500	-163
1.61867	-181
1.62233	-189
1.62600	-189
1.62967	-186
1.63333	-178
1.63700	-165
1.64067	-152
1.64433	-144
1.64800	-140
1.65167	-139
1.65533	-142
1.65900	-145
1.66267	-147
1.66633	-145
1.67000	-140
1.67367	-140
1.67733	-144
1.68100	-146
1.68467	-140
1.68833	-128
1.69200	-122
1.69567	-121
1.69933	-120
1.70300	-119
1.70667	-114
1.71033	-107
1.71400	-102
1.71767	-94
1.72133	-92
1.72500	-91
1.72867	-88
1.73233	-88
1.73600	-94
1.73967	-104
1.74333	-113
1.74700	-120
1.75067	-120
1.75433	-119
1.75800	-121
1.76167	-120
1.76533	-118
1.76900	-116
1.77267	-116
1.77633	-112
1.78000	-106
1.78367	-99
1.78733	-96
1.79100	-93
1.79467	-88
1.79833	-82
1.80200	-79
1.80567	-81
1.80933	-88
1.81300	-92
1.81667	-98
1.82033	-105
1.82400	-109
1.82767	-109
1.83133	-109
1.83500	-107
1.83867	-102
1.84233	-99
1.84600	-91
1.84967	-83
1.85333	-75
1.85700	-72
1.86067	-73
1.86433	-77
1.86800	-83
1.87167	-86
1.87533	-90
1.87900	-91
1.88267	-87
1.88633	-80
1.89000	-73
1.89367	-70
1.89733	-67
1.90100	-63
1.90467	-59
1.90833	-56
1.91200	-57
1.91567	-59
1.91933	-59
1.92300	-59
1.92667	-58
1.93033	-61
1.93400	-62
1.93767	-57
1.94133	-52
1.94500	-53
1.94867	-59
1.95233	-56
1.95600	4
1.95967	392
1.96333	2408
1.96700	10412
1.97067	34542
1.97433	90574
1.97800	191915
1.98167	337238
1.98533	506351
1.98900	669362
1.99267	798930
1.99633	875731
2.00000	889790
2.00367	841921
2.00733	744240
2.01100	617509
2.01467	484380
2.01833	362600
2.02200	261797
2.02567	184243
2.02933	127634
2.03300	87794
2.03667	60434
2.04033	41917
2.04400	29477
2.04767	21131
2.05133	15502
2.05500	11664
2.05867	9010
2.06233	7143
2.06600	5800
2.06967	4810
2.07333	4065
2.07700	3493
2.08067	3050
2.08433	2704
2.08800	2422
2.09167	2181
2.09533	1966
2.09900	1781
2.10267	1623
2.10633	1487
2.11000	1373
2.11367	1274
2.11733	1189
2.12100	1121
2.12467	1062
2.12833	1005
2.13200	951
2.13567	899
2.13933	855
2.14300	812
2.14667	767
2.15033	726
2.15400	692
2.15767	666
2.16133	648
2.16500	628
2.16867	608
2.17233	587
2.17600	564
2.17967	537
2.18333	513
2.18700	495
2.19067	484
2.19433	473
2.19800	461
2.20167	444
2.20533	427
2.20900	415
2.21267	402
2.21633	388
2.22000	380
2.22367	375
2.22733	366
2.23100	352
2.23467	335
2.23833	318
2.24200	303
2.24567	298
2.24933	297
2.25300	295
2.25667	289
2.26033	281
2.26400	275
2.26767	270
2.27133	271
2.27500	272
2.27867	271
2.28233	273
2.28600	277
2.28967	276
2.29333	264
2.29700	246
2.30067	235
2.30433	228
2.30800	226
2.31167	229
2.31533	231
2.31900	224
2.32267	211
2.32633	201
2.33000	198
2.33367	201
2.33733	207
2.34100	213
2.34467	215
2.34833	215
2.35200	211
2.35567	207
2.35933	203
2.36300	198
2.36667	193
2.37033	192
2.37400	194
2.37767	192
2.38133	188
2.38500	187
2.38867	192
2.39233	200
2.39600	204
2.39967	205
2.40333	205
2.40700	207
2.41067	207
2.41433	205
2.41800	200
2.42167	195
2.42533	194
2.42900	197
2.43267	196
2.43633	192
2.44000	188
2.44367	184
2.44733	183
2.45100	180
2.45467	173
2.45833	165
2.46200	158
2.46567	153
2.46933	151
2.47300	149
2.47667	144
2.48033	143
2.48400	145
2.48767	148
2.49133	154
2.49500	159
2.49867	161
2.50233	163
2.50600	165
2.50967	164
2.51333	162
2.51700	161
2.52067	161
2.52433	161
2.52800	158
2.53167	155
2.53533	156
2.53900	164
2.54267	171
2.54633	172
2.55000	169
2.55367	165
2.55733	163
2.56100	165
2.56467	167
2.56833	170
2.57200	174
2.57567	180
2.57933	188
2.58300	194
2.58667	193
2.59033	185
2.59400	174
2.59767	165
2.60133	159
2.60500	152
2.60867	143
2.61233	134
2.61600	127
2.61967	123
2.62333	124
2.62700	128
2.63067	135
2.63433	146
2.63800	159
2.64167	173
2.64533	190
2.64900	206
2.65267	221
2.65633	228
2.66000	226
2.66367	220
2.66733	219
2.67100	221
2.67467	224
2.67833	225
2.68200	223
2.68567	223
2.68933	225
2.69300	227
2.69667	231
2.70033	233
2.70400	224
2.70767	212
2.71133	208
2.71500	210
2.71867	214
2.72233	219
2.72600	226
2.72967	231
2.73333	236
2.73700	240
2.74067	245
2.74433	249
2.74800	252
2.75167	256
2.75533	256
2.75900	251
2.76267	246
2.76633	243
2.77000	241
2.77367	241
2.77733	242
2.78100	246
2.78467	247
2.78833	251
2.79200	256
2.79567	259
2.79933	257
2.80300	257
2.80667	257
2.81033	254
2.81400	247
2.81767	241
2.82133	242
2.82500	243
2.82867	242
2.83233	242
2.83600	246
2.83967	252
2.84333	254
2.84700	255
2.85067	250
2.85433	247
2.85800	241
2.86167	232
2.86533	228
2.86900	229
2.87267	235
2.87633	242
2.88000	251
2.88367	257
2.88733	260
2.89100	264
2.89467	270
2.89833	275
2.90200	275
2.90567	269
2.90933	259
2.91300	252
2.91667	253
2.92033	258
2.92400	259
2.92767	255
2.93133	250
2.93500	248
2.93867	246
2.94233	243
2.94600	244
2.94967	243
2.95333	242
2.95700	241
2.96067	242
2.96433	248
2.96800	255
2.97167	258
2.97533	253
2.97900	251
2.98267	249
2.98633	242
2.99000	238
2.99367	241
2.99733	247
3.00100	255
3.00467	266
3.00833	275
3.01200	274
3.01567	268
3.01933	265
3.02300	263
3.02667	259
3.03033	253
3.03400	246
3.03767	238
3.04133	226
3.04500	219
3.04867	218
3.05233	221
3.05600	227
3.05967	230
3.06333	233
3.06700	234
3.07067	232
3.07433	230
3.07800	230
3.08167	234
3.08533	243
3.08900	253
3.09267	262
3.09633	265
3.10000	264
3.10367	262
3.10733	257
3.11100	247
3.11467	238
3.11833	230
3.12200	223
3.12567	220
3.12933	223
3.13300	229
3.13667	235
3.14033	238
3.14400	234
3.14767	229
3.15133	223
3.15500	215
3.15867	214
3.16233	218
3.16600	225
3.16967	235
3.17333	245
3.17700	254
3.18067	262
3.18433	264
3.18800	253
3.19167	237
3.19533	225
3.19900	217
3.20267	210
3.20633	209
3.21000	209
3.21367	208
3.21733	203
3.22100	203
3.22467	211
3.22833	223
3.23200	234
3.23567	242
3.23933	242
3.24300	238
3.24667	234
3.25033	233
3.25400	232
3.25767	233
3.26133	234
3.26500	234
3.26867	232
3.27233	229
3.27600	231
3.27967	240
3.28333	247
3.28700	247
3.29067	245
3.29433	245
3.29800	247
3.30167	243
3.30533	232
3.30900	221
3.31267	209
3.31633	205
3.32000	207
3.32367	212
3.32733	214
3.33100	207
3.33467	196
3.33833	186
3.34200	181
3.34567	183
3.34933	189
3.35300	198
3.35667	205
3.36033	210
3.36400	215
3.36767	221
3.37133	224
3.37500	229
3.37867	234
3.38233	234
3.38600	229
3.38967	221
3.39333	214
3.39700	206
3.40067	200
3.40433	196
3.40800	194
3.41167	198
3.41533	204
3.41900	204
3.42267	200
3.42633	193
3.43000	190
3.43367	191
3.43733	200
3.44100	210
3.44467	214
3.44833	215
3.45200	213
3.45567	207
3.45933	197
3.46300	192
3.46667	188
3.47033	186
3.47400	185
3.47767	187
3.48133	190
3.48500	193
3.48867	192
3.49233	184
3.49600	178
3.49967	175
3.50333	170
3.50700	167
3.51067	167
3.51433	160
3.51800	153
3.52167	152
3.52533	156
3.52900	164
3.53267	170
3.53633	173
3.54000	182
3.54367	193
3.54733	197
3.55100	195
3.55467	192
3.55833	190
3.56200	187
3.56567	183
3.56933	182
3.57300	187
3.57667	192
3.58033	194
3.58400	191
3.58767	186
3.59133	182
3.59500	177
3.59867	172
3.60233	169
3.60600	169
3.60967	170
3.61333	169
3.61700	172
3.62067	171
3.62433	168
3.62800	161
3.63167	154
3.63533	150
3.63900	151
3.64267	154
3.64633	157
3.65000	154
3.65367	152
3.65733	154
3.66100	163
3.66467	170
3.66833	177
3.67200	184
3.67567	190
3.67933	191
3.68300	187
3.68667	180
3.69033	170
3.69400	160
3.69767	151
3.70133	149
3.70500	149
3.70867	149
3.71233	148
3.71600	151
3.71967	158
3.72333	161
3.72700	162
3.73067	162
3.73433	157
3.73800	148
3.74167	143
3.74533	142
3.74900	143
3.75267	143
3.75633	146
3.76000	150
3.76367	151
3.76733	150
3.77100	152
3.77467	154
3.77833	154
3.78200	154
3.78567	156
3.78933	155
3.79300	150
3.79667	154
3.80033	166
3.80400	175
3.80767	177
3.81133	172
3.81500	163
3.81867	151
3.82233	139
3.82600	131
3.82967	128
3.83333	131
3.83700	139
3.84067	147
3.84433	152
3.84800	156
3.85167	158
3.85533	155
3.85900	153
3.86267	149
3.86633	145
3.87000	143
3.87367	142
3.87733	139
3.88100	137
3.88467	134
3.88833	128
3.89200	119
3.89567	115
3.89933	117
3.90300	118
3.90667	119
3.91033	121
3.91400	124
3.91767	132
3.92133	141
3.92500	141
3.92867	139
3.93233	136
3.93600	136
3.93967	140
3.94333	142
3.94700	140
3.95067	134
3.95433	125
3.95800	121
3.96167	122
3.96533	128
3.96900	134
3.97267	140
3.97633	142
3.98000	139
3.98367	134
3.98733	131
3.99100	134
3.99467	140
3.99833	141

[Chromatogram (Ch2)]
Interval(msec)	220
# of Points	1091
Start Time(min)	0.002
End Time(min)	3.998
R.Time (min)	Intensity
0.00167	-0
0.00533	-0
0.00900	-0
0.01267	-1
0.01633	-1
0.02000	-2
0.02367	-3
0.02733	-3
0.03100	-4
0.03467	-4
0.03833	-5
0.04200	-5
0.04567	-6
0.04933	-6
0.05300	-6
0.05667	-7
0.06033	-7
0.06400	-7
0.06767	-6
0.07133	-6
0.07500	-6
0.07867	-6
0.08233	-5
0.08600	-5
0.08967	-5
0.09333	-4
0.09700	-4
0.10067	-3
0.10433	-3
0.10800	-2
0.11167	-2
0.11533	-2
0.11900	-1
0.12267	-1
0.12633	-1
0.13000	-1
0.13367	-1
0.13733	-1
0.14100	-1
0.14467	-1
0.14833	-1
0.15200	-1
0.15567	-1
0.15933	-1
0.16300	-1
0.16667	-1
0.17033	-1
0.17400	-1
0.17767	-1
0.18133	-1
0.18500	-2
0.18867	-2
0.19233	-2
0.19600	-2
0.19967	-2
0.20333	-1
0.20700	-1
0.21067	-1
0.21433	-1
0.21800	-2
0.22167	-2
0.22533	-3
0.22900	-3
0.23267	-4
0.23633	-4
0.24000	-4
0.24367	-5
0.24733	-5
0.25100	-5
0.25467	-5
0.25833	-5
0.26200	-5
0.26567	-5
0.26933	-5
0.27300	-5
0.27667	-5
0.28033	-5
0.28400	-5
0.28767	-5
0.29133	-5
0.29500	-5
0.29867	-5
0.30233	-5
0.30600	-5
0.30967	-5
0.31333	-5
0.31700	-5
0.32067	-4
0.32433	-4
0.32800	-4
0.33167	-3
0.33533	-3
0.33900	-3
0.34267	-3
0.34633	-3
0.35000	-3
0.35367	-3
0.35733	-3
0.36100	-3
0.36467	-3
0.36833	-3
0.37200	-3
0.37567	-2
0.37933	-2
0.38300	-2
0.38667	-1
0.39033	-1
0.39400	-1
0.39767	-1
0.40133	-0
0.40500	-0
0.40867	0
0.41233	1
0.41600	1
0.41967	1
0.42333	1
0.42700	1
0.43067	1
0.43433	2
0.43800	2
0.44167	2
0.44533	2
0.44900	2
0.45267	1
0.45633	1
0.46000	0
0.46367	-0
0.46733	-1
0.47100	-1
0.47467	-2
0.47833	-2
0.48200	-2
0.48567	-3
0.48933	-3
0.49300	-3
0.49667	-4
0.50033	-4
0.50400	-4
0.50767	-4
0.51133	-4
0.51500	-4
0.51867	-4
0.52233	-3
0.52600	-3
0.52967	-3
0.53333	-3
0.53700	-2
0.54067	-2
0.54433	-2
0.54800	-2
0.55167	-1
0.55533	-1
0.55900	-1
0.56267	-2
0.56633	-2
0.57000	-3
0.57367	-3
0.57733	-3
0.58100	-3
0.58467	-3
0.58833	-3
0.59200	-3
0.59567	-4
0.59933	-4
0.60300	-4
0.60667	-5
0.61033	-5
0.61400	-5
0.61767	-6
0.62133	-6
0.62500	-6
0.62867	-6
0.63233	-5
0.63600	-5
0.63967	-5
0.64333	-5
0.64700	-5
0.65067	-5
0.65433	-5
0.65800	-5
0.66167	-5
0.66533	-6
0.66900	-6
0.67267	-6
0.67633	-6
0.68000	-6
0.68367	-5
0.68733	-5
0.69100	-4
0.69467	-4
0.69833	-4
0.70200	-4
0.70567	-3
0.70933	-3
0.71300	-2
0.71667	-2
0.72033	-1
0.72400	-1
0.72767	-1
0.73133	-0
0.73500	-0
0.73867	0
0.74233	0
0.74600	0
0.74967	1
0.75333	1
0.75700	1
0.76067	1
0.76433	0
0.76800	0
0.77167	-0
0.77533	-1
0.77900	-1
0.78267	-2
0.78633	-3
0.79000	-4
0.79367	-4
0.79733	-4
0.80100	-5
0.80467	-5
0.80833	-4
0.81200	-4
0.81567	-4
0.81933	-3
0.82300	-3
0.82667	-3
0.83033	-3
0.83400	-3
0.83767	-3
0.84133	-3
0.84500	-4
0.84867	-4
0.85233	-4
0.85600	-3
0.85967	-3
0.86333	-4
0.86700	-4
0.87067	-4
0.87433	-5
0.87800	-5
0.88167	-5
0.88533	-4
0.88900	-4
0.89267	-4
0.89633	-4
0.90000	-4
0.90367	-4
0.90733	-4
0.91100	-4
0.91467	-4
0.91833	-4
0.92200	-4
0.92567	-4
0.92933	-4
0.93300	-3
0.93667	-3
0.94033	-3
0.94400	-3
0.94767	-3
0.95133	-3
0.95500	-2
0.95867	-2
0.96233	-2
0.96600	-2
0.96967	-1
0.97333	-1
0.97700	-1
0.98067	-1
0.98433	-1
0.98800	-1
0.99167	-1
0.99533	-2
0.99900	-2
1.00267	-2
1.00633	-3
1.01000	-2
1.01367	-2
1.01733	-2
1.02100	-2
1.02467	-2
1.02833	-2
1.03200	-2
1.03567	-2
1.03933	-1
1.04300	-1
1.04667	-1
1.05033	-1
1.05400	-1
1.05767	-2
1.06133	-2
1.06500	-2
1.06867	-3
1.07233	-3
1.07600	-3
1.07967	-3
1.08333	-4
1.08700	-4
1.09067	-5
1.09433	-5
1.09800	-5
1.10167	-6
1.10533	-6
1.10900	-6
1.11267	-6
1.11633	-6
1.12000	-6
1.12367	-6
1.12733	-5
1.13100	-5
1.13467	-4
1.13833	-4
1.14200	-4
1.14567	-4
1.14933	-3
1.15300	-3
1.15667	-3
1.16033	-4
1.16400	-4
1.16767	-4
1.17133	-4
1.17500	-4
1.17867	-4
1.18233	-4
1.18600	-3
1.18967	-3
1.19333	-2
1.19700	-2
1.20067	-1
1.20433	-1
1.20800	-1
1.21167	-1
1.21533	-2
1.21900	-2
1.22267	-2
1.22633	-3
1.23000	-3
1.23367	-3
1.23733	-3
1.24100	-4
1.24467	-4
1.24833	-4
1.25200	-3
1.25567	-3
1.25933	-3
1.26300	-3
1.26667	-3
1.27033	-3
1.27400	-3
1.27767	-3
1.28133	-3
1.28500	-3
1.28867	-4
1.29233	-4
1.29600	-4
1.29967	-4
1.30333	-5
1.30700	-5
1.31067	-5
1.31433	-5
1.31800	-5
1.32167	-5
1.32533	-5
1.32900	-6
1.33267	-6
1.33633	-5
1.34000	-5
1.34367	-5
1.34733	-5
1.35100	-5
1.35467	-4
1.35833	-4
1.36200	-4
1.36567	-3
1.36933	-3
1.37300	-3
1.37667	-3
1.38033	-3
1.38400	-3
1.38767	-4
1.39133	-4
1.39500	-5
1.39867	-5
1.40233	-6
1.40600	-6
1.40967	-6
1.41333	-7
1.41700	-7
1.42067	-7
1.42433	-7
1.42800	-7
1.43167	-7
1.43533	-6
1.43900	-6
1.44267	-6
1.44633	-5
1.45000	-5
1.45367	-5
1.45733	-5
1.46100	-5
1.46467	-5
1.46833	-5
1.47200	-6
1.47567	-6
1.47933	-6
1.48300	-6
1.48667	-6
1.49033	-6
1.49400	-6
1.49767	-7
1.50133	-7
1.50500	-7
1.50867	-7
1.51233	-7
1.51600	-7
1.51967	-7
1.52333	-7
1.52700	-7
1.53067	-7
1.53433	-6
1.53800	-6
1.54167	-6
1.54533	-6
1.54900	-6
1.55267	-5
1.55633	-5
1.56000	-5
1.56367	-5
1.56733	-5
1.57100	-5
1.57467	-5
1.57833	-5
1.58200	-5
1.58567	-4
1.58933	-4
1.59300	-4
1.59667	-5
1.60033	-6
1.60400	-7
1.60767	-8
1.61133	-10
1.61500	-12
1.61867	-14
1.62233	-17
1.62600	-20
1.62967	-23
1.63333	-26
1.63700	-29
1.64067	-33
1.64433	-36
1.64800	-40
1.65167	-43
1.65533	-47
1.65900	-51
1.66267	-54
1.66633	-58
1.67000	-62
1.67367	-67
1.67733	-72
1.68100	-77
1.68467	-82
1.68833	-86
1.69200	-91
1.69567	-94
1.69933	-97
1.70300	-100
1.70667	-102
1.71033	-103
1.71400	-105
1.71767	-106
1.72133	-107
1.72500	-108
1.72867	-109
1.73233	-111
1.73600	-112
1.73967	-112
1.74333	-113
1.74700	-113
1.75067	-112
1.75433	-112
1.75800	-111
1.76167	-110
1.76533	-109
1.76900	-108
1.77267	-107
1.77633	-106
1.78000	-105
1.78367	-105
1.78733	-106
1.79100	-107
1.79467	-108
1.79833	-110
1.80200	-111
1.80567	-113
1.80933	-115
1.81300	-116
1.81667	-116
1.82033	-117
1.82400	-117
1.82767	-117
1.83133	-117
1.83500	-116
1.83867	-116
1.84233	-116
1.84600	-116
1.84967	-116
1.85333	-116
1.85700	-116
1.86067	-116
1.86433	-116
1.86800	-115
1.87167	-115
1.87533	-115
1.87900	-115
1.88267	-115
1.88633	-115
1.89000	-115
1.89367	-115
1.89733	-115
1.90100	-115
1.90467	-115
1.90833	-115
1.91200	-115
1.91567	-114
1.91933	-114
1.92300	-113
1.92667	-112
1.93033	-112
1.93400	-111
1.93767	-111
1.94133	-111
1.94500	-111
1.94867	-111
1.95233	-110
1.95600	-110
1.95967	-109
1.96333	-109
1.96700	-109
1.97067	-109
1.97433	-109
1.97800	-109
1.98167	-109
1.98533	-109
1.98900	-109
1.99267	-109
1.99633	-109
2.00000	-109
2.00367	-109
2.00733	-109
2.01100	-109
2.01467	-109
2.01833	-108
2.02200	-108
2.02567	-107
2.02933	-106
2.03300	-106
2.03667	-105
2.04033	-105
2.04400	-105
2.04767	-105
2.05133	-106
2.05500	-106
2.05867	-105
2.06233	-105
2.06600	-105
2.06967	-104
2.07333	-103
2.07700	-103
2.08067	-102
2.08433	-102
2.08800	-102
2.09167	-101
2.09533	-102
2.09900	-102
2.10267	-102
2.10633	-102
2.11000	-102
2.11367	-102
2.11733	-101
2.12100	-100
2.12467	-100
2.12833	-99
2.13200	-99
2.13567	-99
2.13933	-99
2.14300	-99
2.14667	-98
2.15033	-97
2.15400	-96
2.15767	-95
2.16133	-95
2.16500	-94
2.16867	-94
2.17233	-93
2.17600	-93
2.17967	-93
2.18333	-93
2.18700	-93
2.19067	-93
2.19433	-93
2.19800	-93
2.20167	-94
2.20533	-94
2.20900	-93
2.21267	-93
2.21633	-92
2.22000	-91
2.22367	-90
2.22733	-90
2.23100	-89
2.23467	-89
2.23833	-90
2.24200	-90
2.24567	-90
2.24933	-89
2.25300	-89
2.25667	-88
2.26033	-88
2.26400	-88
2.26767	-88
2.27133	-88
2.27500	-88
2.27867	-87
2.28233	-86
2.28600	-86
2.28967	-85
2.29333	-85
2.29700	-85
2.30067	-85
2.30433	-85
2.30800	-85
2.31167	-84
2.31533	-83
2.31900	-82
2.32267	-81
2.32633	-80
2.33000	-79
2.33367	-79
2.33733	-78
2.34100	-78
2.34467	-78
2.34833	-78
2.35200	-78
2.35567	-78
2.35933	-78
2.36300	-78
2.36667	-77
2.37033	-76
2.37400	-75
2.37767	-72
2.38133	-69
2.38500	-66
2.38867	-61
2.39233	-57
2.39600	-52
2.39967	-47
2.40333	-42
2.40700	-37
2.41067	-32
2.41433	-28
2.41800	-24
2.42167	-21
2.42533	-18
2.42900	-16
2.43267	-15
2.43633	-14
2.44000	-13
2.44367	-13
2.44733	-12
2.45100	-11
2.45467	-10
2.45833	-8
2.46200	-7
2.46567	-5
2.46933	-3
2.47300	-2
2.47667	-1
2.48033	-1
2.48400	-0
2.48767	-0
2.49133	0
2.49500	1
2.49867	2
2.50233	3
2.50600	4
2.50967	5
2.51333	7
2.51700	8
2.52067	10
2.52433	11
2.52800	12
2.53167	13
2.53533	13
2.53900	12
2.54267	12
2.54633	12
2.55000	12
2.55367	12
2.55733	12
2.56100	12
2.56467	13
2.56833	13
2.57200	14
2.57567	14
2.57933	15
2.58300	15
2.58667	15
2.59033	15
2.59400	15
2.59767	15
2.60133	15
2.60500	15
2.60867	15
2.61233	15
2.61600	16
2.61967	16
2.62333	17
2.62700	17
2.63067	17
2.63433	17
2.63800	17
2.64167	17
2.64533	17
2.64900	17
2.65267	17
2.65633	18
2.66000	18
2.66367	19
2.66733	20
2.67100	21
2.67467	21
2.67833	21
2.68200	21
2.68567	21
2.68933	21
2.69300	20
2.69667	20
2.70033	19
2.70400	19
2.70767	19
2.71133	18
2.71500	18
2.71867	18
2.72233	18
2.72600	18
2.72967	18
2.73333	19
2.73700	19
2.74067	19
2.74433	20
2.74800	20
2.75167	21
2.75533	21
2.75900	22
2.76267	22
2.76633	23
2.77000	23
2.77367	24
2.77733	24
2.78100	25
2.78467	25
2.78833	25
2.79200	26
2.79567	26
2.79933	26
2.80300	26
2.80667	25
2.81033	25
2.81400	25
2.81767	25
2.82133	25
2.82500	24
2.82867	24
2.83233	23
2.83600	22
2.83967	21
2.84333	19
2.84700	17
2.85067	13
2.85433	7
2.85800	-2
2.86167	-15
2.86533	-31
2.86900	-52
2.87267	-76
2.87633	-105
2.88000	-139
2.88367	-177
2.88733	-218
2.89100	-264
2.89467	-312
2.89833	-363
2.90200	-416
2.90567	-470
2.90933	-526
2.91300	-581
2.91667	-637
2.92033	-692
2.92400	-746
2.92767	-799
2.93133	-850
2.93500	-903
2.93867	-960
2.94233	-1018
2.94600	-1068
2.94967	-1100
2.95333	-1106
2.95700	-1087
2.96067	-1044
2.96433	-984
2.96800	-912
2.97167	-833
2.97533	-752
2.97900	-672
2.98267	-595
2.98633	-523
2.99000	-457
2.99367	-396
2.99733	-343
3.00100	-295
3.00467	-253
3.00833	-216
3.01200	-184
3.01567	-156
3.01933	-132
3.02300	-111
3.02667	-93
3.03033	-77
3.03400	-64
3.03767	-52
3.04133	-43
3.04500	-35
3.04867	-27
3.05233	-21
3.05600	-16
3.05967	-12
3.06333	-9
3.06700	-6
3.07067	-3
3.07433	-1
3.07800	1
3.08167	3
3.08533	4
3.08900	5
3.09267	6
3.09633	7
3.10000	7
3.10367	8
3.10733	8
3.11100	9
3.11467	10
3.11833	10
3.12200	11
3.12567	11
3.12933	12
3.13300	12
3.13667	13
3.14033	13
3.14400	14
3.14767	14
3.15133	15
3.15500	15
3.15867	16
3.16233	16
3.16600	16
3.16967	17
3.17333	17
3.17700	17
3.18067	18
3.18433	18
3.18800	18
3.19167	18
3.19533	18
3.19900	19
3.20267	19
3.20633	19
3.21000	19
3.21367	19
3.21733	19
3.22100	19
3.22467	19
3.22833	19
3.23200	19
3.23567	19
3.23933	19
3.24300	19
3.24667	19
3.25033	19
3.25400	19
3.25767	20
3.26133	20
3.26500	20
3.26867	20
3.27233	20
3.27600	20
3.27967	21
3.28333	21
3.28700	21
3.29067	22
3.29433	22
3.29800	22
3.30167	23
3.30533	23
3.30900	24
3.31267	24
3.31633	25
3.32000	25
3.32367	25
3.32733	25
3.33100	25
3.33467	25
3.33833	25
3.34200	25
3.34567	26
3.34933	26
3.35300	26
3.35667	26
3.36033	26
3.36400	25
3.36767	25
3.37133	25
3.37500	25
3.37867	25
3.38233	25
3.38600	25
3.38967	25
3.39333	25
3.39700	25
3.40067	25
3.40433	25
3.40800	25
3.41167	25
3.41533	25
3.41900	25
3.42267	25
3.42633	25
3.43000	25
3.43367	25
3.43733	25
3.44100	25
3.44467	24
3.44833	24
3.45200	24
3.45567	25
3.45933	25
3.46300	25
3.46667	25
3.47033	25
3.47400	25
3.47767	25
3.48133	25
3.48500	24
3.48867	24
3.49233	24
3.49600	24
3.49967	24
3.50333	24
3.50700	24
3.51067	24
3.51433	24
3.51800	24
3.52167	24
3.52533	24
3.52900	24
3.53267	24
3.53633	24
3.54000	24
3.54367	24
3.54733	24
3.55100	24
3.55467	25
3.55833	25
3.56200	25
3.56567	25
3.56933	25
3.57300	25
3.57667	25
3.58033	24
3.58400	24
3.58767	24
3.59133	24
3.59500	23
3.59867	23
3.60233	23
3.60600	23
3.60967	22
3.61333	22
3.61700	22
3.62067	22
3.62433	22
3.62800	22
3.63167	22
3.63533	22
3.63900	23
3.64267	23
3.64633	23
3.65000	23
3.65367	22
3.65733	22
3.66100	22
3.66467	22
3.66833	22
3.67200	22
3.67567	22
3.67933	22
3.68300	22
3.68667	22
3.69033	23
3.69400	23
3.69767	23
3.70133	23
3.70500	23
3.70867	23
3.71233	23
3.71600	23
3.71967	23
3.72333	23
3.72700	23
3.73067	23
3.73433	23
3.73800	23
3.74167	23
3.74533	23
3.74900	23
3.75267	23
3.75633	23
3.76000	23
3.76367	23
3.76733	23
3.77100	23
3.77467	23
3.77833	23
3.78200	23
3.78567	23
3.78933	23
3.79300	23
3.79667	23
3.80033	23
3.80400	23
3.80767	23
3.81133	23
3.81500	23
3.81867	23
3.82233	24
3.82600	24
3.82967	24
3.83333	24
3.83700	24
3.84067	25
3.84433	25
3.84800	25
3.85167	25
3.85533	25
3.85900	25
3.86267	25
3.86633	25
3.87000	25
3.87367	25
3.87733	25
3.88100	25
3.88467	25
3.88833	24
3.89200	24
3.89567	24
3.89933	24
3.90300	24
3.90667	24
3.91033	23
3.91400	23
3.91767	23
3.92133	23
3.92500	24
3.92867	23
3.93233	23
3.93600	23
3.93967	23
3.94333	23
3.94700	23
3.95067	23
3.95433	23
3.95800	23
3.96167	23
3.96533	23
3.96900	23
3.97267	23
3.97633	23
3.98000	23
3.98367	23
3.98733	23
3.99100	23
3.99467	23
3.99833	23

[Chromatogram (Ch3)]
Interval(msec)	220
# of Points	1091
Start Time(min)	0.002
End Time(min)	3.998
R.Time (min)	Intensity
0.00167	-1
0.00533	0
0.00900	2
0.01267	2
0.01633	2
0.02000	1
0.02367	0
0.02733	1
0.03100	2
0.03467	2
0.03833	2
0.04200	2
0.04567	3
0.04933	3
0.05300	3
0.05667	3
0.06033	2
0.06400	2
0.06767	2
0.07133	3
0.07500	4
0.07867	5
0.08233	7
0.08600	7
0.08967	6
0.09333	7
0.09700	8
0.10067	8
0.10433	9
0.10800	9
0.11167	10
0.11533	9
0.11900	8
0.12267	7
0.12633	6
0.13000	6
0.13367	7
0.13733	7
0.14100	8
0.14467	8
0.14833	8
0.15200	7
0.15567	7
0.15933	8
0.16300	7
0.16667	5
0.17033	4
0.17400	4
0.17767	5
0.18133	4
0.18500	3
0.18867	2
0.19233	2
0.19600	2
0.19967	2
0.20333	3
0.20700	6
0.21067	7
0.21433	7
0.21800	6
0.22167	6
0.22533	8
0.22900	7
0.23267	9
0.23633	11
0.24000	11
0.24367	10
0.24733	8
0.25100	8
0.25467	8
0.25833	6
0.26200	6
0.26567	4
0.26933	3
0.27300	4
0.27667	5
0.28033	3
0.28400	2
0.28767	3
0.29133	5
0.29500	8
0.29867	8
0.30233	8
0.30600	6
0.30967	6
0.31333	6
0.31700	5
0.32067	5
0.32433	5
0.32800	5
0.33167	5
0.33533	6
0.33900	7
0.34267	9
0.34633	8
0.35000	6
0.35367	7
0.35733	8
0.36100	8
0.36467	9
0.36833	10
0.37200	10
0.37567	8
0.37933	5
0.38300	3
0.38667	2
0.39033	1
0.39400	-0
0.39767	0
0.40133	-0
0.40500	0
0.40867	1
0.41233	3
0.41600	3
0.41967	3
0.42333	5
0.42700	5
0.43067	4
0.43433	2
0.43800	2
0.44167	1
0.44533	1
0.44900	2
0.45267	3
0.45633	5
0.46000	6
0.46367	6
0.46733	7
0.47100	6
0.47467	4
0.47833	3
0.48200	0
0.48567	-0
0.48933	1
0.49300	1
0.49667	1
0.50033	1
0.50400	1
0.50767	0
0.51133	-1
0.51500	-1
0.51867	-1
0.52233	-2
0.52600	-2
0.52967	-4
0.53333	-5
0.53700	-4
0.54067	-2
0.54433	-1
0.54800	1
0.55167	1
0.55533	1
0.55900	1
0.56267	2
0.56633	5
0.57000	6
0.57367	4
0.57733	4
0.58100	4
0.58467	3
0.58833	2
0.59200	2
0.59567	1
0.59933	1
0.60300	3
0.60667	2
0.61033	2
0.61400	2
0.61767	1
0.62133	-0
0.62500	-1
0.62867	1
0.63233	3
0.63600	3
0.63967	-0
0.64333	-1
0.64700	-2
0.65067	-1
0.65433	1
0.65800	2
0.66167	2
0.66533	3
0.66900	3
0.67267	4
0.67633	3
0.68000	2
0.68367	2
0.68733	1
0.69100	0
0.69467	-1
0.69833	0
0.70200	3
0.70567	5
0.70933	4
0.71300	5
0.71667	5
0.72033	5
0.72400	3
0.72767	3
0.73133	3
0.73500	2
0.73867	2
0.74233	3
0.74600	5
0.74967	6
0.75333	5
0.75700	5
0.76067	6
0.76433	6
0.76800	5
0.77167	4
0.77533	5
0.77900	5
0.78267	6
0.78633	6
0.79000	6
0.79367	8
0.79733	9
0.80100	11
0.80467	12
0.80833	12
0.81200	11
0.81567	9
0.81933	7
0.82300	7
0.82667	6
0.83033	6
0.83400	6
0.83767	8
0.84133	8
0.84500	8
0.84867	8
0.85233	9
0.85600	8
0.85967	8
0.86333	7
0.86700	6
0.87067	6
0.87433	7
0.87800	8
0.88167	9
0.88533	11
0.88900	12
0.89267	12
0.89633	12
0.90000	10
0.90367	10
0.90733	11
0.91100	10
0.91467	10
0.91833	12
0.92200	14
0.92567	13
0.92933	11
0.93300	9
0.93667	9
0.94033	9
0.94400	10
0.94767	12
0.95133	14
0.95500	15
0.95867	15
0.96233	15
0.96600	16
0.96967	16
0.97333	14
0.97700	12
0.98067	12
0.98433	12
0.98800	10
0.99167	8
0.99533	7
0.99900	10
1.00267	13
1.00633	13
1.01000	12
1.01367	10
1.01733	10
1.02100	9
1.02467	8
1.02833	9
1.03200	11
1.03567	12
1.03933	12
1.04300	9
1.04667	9
1.05033	9
1.05400	8
1.05767	9
1.06133	10
1.06500	10
1.06867	9
1.07233	9
1.07600	10
1.07967	9
1.08333	10
1.08700	10
1.09067	11
1.09433	12
1.09800	11
1.10167	12
1.10533	14
1.10900	14
1.11267	15
1.11633	16
1.12000	15
1.12367	12
1.12733	10
1.13100	9
1.13467	9
1.13833	10
1.14200	10
1.14567	10
1.14933	11
1.15300	13
1.15667	14
1.16033	12
1.16400	10
1.16767	9
1.17133	9
1.17500	11
1.17867	12
1.18233	11
1.18600	11
1.18967	10
1.19333	8
1.19700	7
1.20067	6
1.20433	5
1.20800	6
1.21167	6
1.21533	7
1.21900	8
1.22267	8
1.22633	10
1.23000	10
1.23367	12
1.23733	13
1.24100	13
1.24467	12
1.24833	12
1.25200	14
1.25567	15
1.25933	17
1.26300	18
1.26667	18
1.27033	17
1.27400	15
1.27767	14
1.28133	12
1.28500	11
1.28867	10
1.29233	9
1.29600	11
1.29967	11
1.30333	12
1.30700	13
1.31067	14
1.31433	15
1.31800	15
1.32167	15
1.32533	15
1.32900	15
1.33267	16
1.33633	16
1.34000	14
1.34367	12
1.34733	12
1.35100	13
1.35467	13
1.35833	14
1.36200	15
1.36567	15
1.36933	17
1.37300	17
1.37667	17
1.38033	18
1.38400	16
1.38767	16
1.39133	19
1.39500	20
1.39867	18
1.40233	17
1.40600	16
1.40967	14
1.41333	12
1.41700	13
1.42067	15
1.42433	16
1.42800	16
1.43167	16
1.43533	16
1.43900	16
1.44267	16
1.44633	16
1.45000	17
1.45367	17
1.45733	17
1.46100	17
1.46467	16
1.46833	16
1.47200	16
1.47567	16
1.47933	15
1.48300	17
1.48667	19
1.49033	20
1.49400	20
1.49767	20
1.50133	19
1.50500	18
1.50867	17
1.51233	16
1.51600	15
1.51967	14
1.52333	14
1.52700	14
1.53067	14
1.53433	14
1.53800	15
1.54167	17
1.54533	17
1.54900	19
1.55267	20
1.55633	19
1.56000	17
1.56367	16
1.56733	15
1.57100	16
1.57467	17
1.57833	18
1.58200	19
1.58567	22
1.58933	24
1.59300	24
1.59667	23
1.60033	23
1.60400	24
1.60767	23
1.61133	24
1.61500	24
1.61867	24
1.62233	24
1.62600	23
1.62967	23
1.63333	23
1.63700	24
1.64067	23
1.64433	24
1.64800	26
1.65167	27
1.65533	28
1.65900	30
1.66267	29
1.66633	28
1.67000	27
1.67367	28
1.67733	31
1.68100	32
1.68467	33
1.68833	34
1.69200	35
1.69567	36
1.69933	37
1.70300	38
1.70667	38
1.71033	38
1.71400	39
1.71767	40
1.72133	40
1.72500	39
1.72867	37
1.73233	36
1.73600	37
1.73967	38
1.74333	38
1.74700	38
1.75067	40
1.75433	41
1.75800	42
1.76167	43
1.76533	43
1.76900	44
1.77267	44
1.77633	42
1.78000	40
1.78367	41
1.78733	44
1.79100	46
1.79467	48
1.79833	48
1.80200	47
1.80567	46
1.80933	43
1.81300	40
1.81667	41
1.82033	43
1.82400	45
1.82767	47
1.83133	49
1.83500	50
1.83867	50
1.84233	49
1.84600	49
1.84967	50
1.85333	50
1.85700	50
1.86067	52
1.86433	53
1.86800	53
1.87167	55
1.87533	56
1.87900	57
1.88267	58
1.88633	57
1.89000	58
1.89367	60
1.89733	60
1.90100	60
1.90467	60
1.90833	59
1.91200	61
1.91567	63
1.91933	64
1.92300	67
1.92667	67
1.93033	68
1.93400	70
1.93767	73
1.94133	75
1.94500	76
1.94867	76
1.95233	78
1.95600	79
1.95967	80
1.96333	80
1.96700	81
1.97067	81
1.97433	78
1.97800	76
1.98167	77
1.98533	78
1.98900	81
1.99267	85
1.99633	90
2.00000	91
2.00367	90
2.00733	89
2.01100	89
2.01467	90
2.01833	90
2.02200	90
2.02567	92
2.02933	96
2.03300	97
2.03667	98
2.04033	100
2.04400	101
2.04767	103
2.05133	105
2.05500	106
2.05867	104
2.06233	105
2.06600	107
2.06967	107
2.07333	108
2.07700	109
2.08067	110
2.08433	110
2.08800	111
2.09167	111
2.09533	111
2.09900	113
2.10267	115
2.10633	117
2.11000	119
2.11367	120
2.11733	122
2.12100	125
2.12467	127
2.12833	128
2.13200	130
2.13567	130
2.13933	132
2.14300	133
2.14667	132
2.15033	133
2.15400	135
2.15767	136
2.16133	137
2.16500	139
2.16867	141
2.17233	141
2.17600	143
2.17967	145
2.18333	147
2.18700	152
2.19067	155
2.19433	158
2.19800	160
2.20167	161
2.20533	162
2.20900	162
2.21267	163
2.21633	164
2.22000	165
2.22367	165
2.22733	164
2.23100	165
2.23467	166
2.23833	167
2.24200	168
2.24567	172
2.24933	175
2.25300	176
2.25667	177
2.26033	177
2.26400	179
2.26767	182
2.27133	184
2.27500	186
2.27867	187
2.28233	189
2.28600	190
2.28967	191
2.29333	192
2.29700	194
2.30067	197
2.30433	197
2.30800	197
2.31167	199
2.31533	202
2.31900	204
2.32267	203
2.32633	203
2.33000	206
2.33367	210
2.33733	212
2.34100	213
2.34467	214
2.34833	215
2.35200	218
2.35567	222
2.35933	224
2.36300	225
2.36667	226
2.37033	225
2.37400	224
2.37767	224
2.38133	226
2.38500	229
2.38867	229
2.39233	230
2.39600	233
2.39967	237
2.40333	238
2.40700	240
2.41067	241
2.41433	244
2.41800	246
2.42167	248
2.42533	250
2.42900	252
2.43267	253
2.43633	254
2.44000	257
2.44367	306
2.44733	438
2.45100	582
2.45467	698
2.45833	763
2.46200	768
2.46567	741
2.46933	711
2.47300	689
2.47667	676
2.48033	660
2.48400	632
2.48767	592
2.49133	549
2.49500	508
2.49867	476
2.50233	453
2.50600	440
2.50967	437
2.51333	443
2.51700	456
2.52067	474
2.52433	490
2.52800	499
2.53167	498
2.53533	487
2.53900	466
2.54267	439
2.54633	413
2.55000	388
2.55367	366
2.55733	348
2.56100	334
2.56467	324
2.56833	318
2.57200	312
2.57567	307
2.57933	303
2.58300	301
2.58667	300
2.59033	299
2.59400	301
2.59767	304
2.60133	306
2.60500	306
2.60867	304
2.61233	299
2.61600	292
2.61967	285
2.62333	280
2.62700	274
2.63067	267
2.63433	262
2.63800	255
2.64167	246
2.64533	237
2.64900	228
2.65267	220
2.65633	210
2.66000	201
2.66367	190
2.66733	179
2.67100	169
2.67467	161
2.67833	155
2.68200	150
2.68567	146
2.68933	144
2.69300	142
2.69667	142
2.70033	142
2.70400	144
2.70767	146
2.71133	147
2.71500	147
2.71867	150
2.72233	152
2.72600	155
2.72967	158
2.73333	161
2.73700	164
2.74067	166
2.74433	168
2.74800	171
2.75167	174
2.75533	177
2.75900	180
2.76267	181
2.76633	182
2.77000	181
2.77367	182
2.77733	183
2.78100	185
2.78467	189
2.78833	193
2.79200	194
2.79567	197
2.79933	200
2.80300	202
2.80667	205
2.81033	209
2.81400	214
2.81767	221
2.82133	231
2.82500	248
2.82867	279
2.83233	336
2.83600	442
2.83967	618
2.84333	885
2.84700	1252
2.85067	1720
2.85433	2269
2.85800	2859
2.86167	3446
2.86533	3982
2.86900	4426
2.87267	4743
2.87633	4918
2.88000	4953
2.88367	4859
2.88733	4662
2.89100	4392
2.89467	4075
2.89833	3737
2.90200	3394
2.90567	3059
2.90933	2740
2.91300	2443
2.91667	2170
2.92033	1928
2.92400	1713
2.92767	1522
2.93133	1350
2.93500	1198
2.93867	1064
2.94233	949
2.94600	849
2.94967	761
2.95333	683
2.95700	615
2.96067	558
2.96433	509
2.96800	467
2.97167	429
2.97533	397
2.97900	366
2.98267	340
2.98633	318
2.99000	301
2.99367	286
2.99733	273
3.00100	261
3.00467	249
3.00833	239
3.01200	232
3.01567	227
3.01933	221
3.02300	216
3.02667	213
3.03033	210
3.03400	207
3.03767	202
3.04133	199
3.04500	197
3.04867	195
3.05233	193
3.05600	191
3.05967	189
3.06333	189
3.06700	190
3.07067	191
3.07433	191
3.07800	191
3.08167	189
3.08533	187
3.08900	186
3.09267	186
3.09633	183
3.10000	181
3.10367	181
3.10733	181
3.11100	183
3.11467	186
3.11833	187
3.12200	186
3.12567	186
3.12933	185
3.13300	185
3.13667	184
3.14033	182
3.14400	181
3.14767	181
3.15133	182
3.15500	183
3.15867	184
3.16233	186
3.16600	187
3.16967	189
3.17333	189
3.17700	190
3.18067	190
3.18433	187
3.18800	186
3.19167	188
3.19533	192
3.19900	195
3.20267	198
3.20633	199
3.21000	200
3.21367	201
3.21733	202
3.22100	201
3.22467	201
3.22833	201
3.23200	200
3.23567	202
3.23933	202
3.24300	199
3.24667	199
3.25033	203
3.25400	214
3.25767	232
3.26133	255
3.26500	286
3.26867	320
3.27233	360
3.27600	404
3.27967	448
3.28333	491
3.28700	531
3.29067	568
3.29433	601
3.29800	628
3.30167	652
3.30533	678
3.30900	699
3.31267	716
3.31633	730
3.32000	743
3.32367	756
3.32733	769
3.33100	781
3.33467	791
3.33833	799
3.34200	806
3.34567	815
3.34933	824
3.35300	831
3.35667	839
3.36033	849
3.36400	858
3.36767	862
3.37133	865
3.37500	870
3.37867	876
3.38233	880
3.38600	888
3.38967	897
3.39333	905
3.39700	909
3.40067	912
3.40433	916
3.40800	918
3.41167	919
3.41533	920
3.41900	919
3.42267	919
3.42633	918
3.43000	917
3.43367	917
3.43733	914
3.44100	911
3.44467	908
3.44833	904
3.45200	902
3.45567	900
3.45933	897
3.46300	893
3.46667	889
3.47033	881
3.47400	875
3.47767	869
3.48133	862
3.48500	857
3.48867	852
3.49233	847
3.49600	844
3.49967	841
3.50333	840
3.50700	837
3.51067	834
3.51433	831
3.51800	829
3.52167	826
3.52533	822
3.52900	818
3.53267	816
3.53633	815
3.54000	815
3.54367	816
3.54733	814
3.55100	810
3.55467	807
3.55833	808
3.56200	810
3.56567	810
3.56933	809
3.57300	806
3.57667	807
3.58033	808
3.58400	810
3.58767	809
3.59133	809
3.59500	808
3.59867	809
3.60233	810
3.60600	811
3.60967	810
3.61333	808
3.61700	806
3.62067	803
3.62433	802
3.62800	801
3.63167	799
3.63533	797
3.63900	795
3.64267	792
3.64633	790
3.65000	791
3.65367	792
3.65733	792
3.66100	790
3.66467	789
3.66833	788
3.67200	787
3.67567	786
3.67933	786
3.68300	785
3.68667	784
3.69033	784
3.69400	780
3.69767	777
3.70133	775
3.70500	774
3.70867	772
3.71233	769
3.71600	768
3.71967	769
3.72333	768
3.72700	765
3.73067	762
3.73433	761
3.73800	758
3.74167	758
3.74533	758
3.74900	756
3.75267	754
3.75633	753
3.76000	752
3.76367	749
3.76733	747
3.77100	745
3.77467	743
3.77833	741
3.78200	737
3.78567	735
3.78933	732
3.79300	729
3.79667	728
3.80033	728
3.80400	727
3.80767	725
3.81133	721
3.81500	720
3.81867	721
3.82233	721
3.82600	717
3.82967	712
3.83333	711
3.83700	710
3.84067	706
3.84433	700
3.84800	696
3.85167	692
3.85533	690
3.85900	688
3.86267	688
3.86633	688
3.87000	688
3.87367	686
3.87733	683
3.88100	679
3.88467	676
3.88833	674
3.89200	673
3.89567	671
3.89933	666
3.90300	664
3.90667	664
3.91033	664
3.91400	662
3.91767	659
3.92133	657
3.92500	655
3.92867	653
3.93233	652
3.93600	653
3.93967	653
3.94333	650
3.94700	648
3.95067	647
3.95433	644
3.95800	642
3.96167	637
3.96533	635
3.96900	632
3.97267	630
3.97633	628
3.98000	627
3.98367	629
3.98733	626
3.99100	625
3.99467	622
3.99833	616

[Status Trace (Column Oven Temperature)]
Interval(msec)	1000
# of Points	240
Start Time(min)	0.005
End Time(min)	3.988
Intensity Units	
Intensity Multiplier	1
R.Time (min)	Intensity
0.00463	34.98
0.02130	34.99
0.03797	35.00
0.05463	35.02
0.07130	35.02
0.08797	35.02
0.10463	35.02
0.12130	35.01
0.13797	35.02
0.15463	35.01
0.17130	35.00
0.18797	35.01
0.20463	35.00
0.22130	35.01
0.23797	35.03
0.25463	35.03
0.27130	35.04
0.28797	35.05
0.30463	35.05
0.32130	35.05
0.33797	35.06
0.35463	35.06
0.37130	35.05
0.38797	35.03
0.40463	35.01
0.42130	34.98
0.43797	34.97
0.45463	34.97
0.47130	34.99
0.48797	35.00
0.50463	35.00
0.52130	35.00
0.53797	34.99
0.55463	34.98
0.57130	34.99
0.58797	35.00
0.60463	35.00
0.62130	35.01
0.63797	35.01
0.65463	35.02
0.67130	35.03
0.68797	35.02
0.70463	35.01
0.72130	34.99
0.73797	34.98
0.75463	34.97
0.77130	34.97
0.78797	34.99
0.80463	34.98
0.82130	34.97
0.83797	34.97
0.85463	34.98
0.87130	34.98
0.88797	34.99
0.90463	34.99
0.92130	35.00
0.93797	35.00
0.95463	34.99
0.97130	34.98
0.98797	34.97
1.00463	34.97
1.02130	34.96
1.03797	34.96
1.05463	34.97
1.07130	34.98
1.08797	34.99
1.10463	35.00
1.12130	35.00
1.13797	34.99
1.15463	35.00
1.17130	35.00
1.18797	35.00
1.20463	34.99
1.22130	34.98
1.23797	34.98
1.25463	34.97
1.27130	34.98
1.28797	34.98
1.30463	34.98
1.32130	35.00
1.33797	35.01
1.35463	35.00
1.37130	35.00
1.38797	35.01
1.40463	35.02
1.42130	35.03
1.43797	35.02
1.45463	35.03
1.47130	35.03
1.48797	35.03
1.50463	35.04
1.52130	35.04
1.53797	35.04
1.55463	35.04
1.57130	35.04
1.58797	35.03
1.60463	35.07
1.62130	35.18
1.63797	35.35
1.65463	35.57
1.67130	35.88
1.68797	36.26
1.70463	36.61
1.72130	36.96
1.73797	37.31
1.75463	37.63
1.77130	37.91
1.78797	38.23
1.80463	38.59
1.82130	38.94
1.83797	39.26
1.85463	39.60
1.87130	39.92
1.88797	40.27
1.90463	40.59
1.92130	40.91
1.93797	41.25
1.95463	41.56
1.97130	41.89
1.98797	42.22
2.00463	42.55
2.02130	42.87
2.03797	43.18
2.05463	43.53
2.07130	43.85
2.08797	44.17
2.10463	44.51
2.12130	44.83
2.13797	45.18
2.15463	45.47
2.17130	45.81
2.18797	46.13
2.20463	46.49
2.22130	46.79
2.23797	47.13
2.25463	47.45
2.27130	47.79
2.28797	48.12
2.30463	48.46
2.32130	48.76
2.33797	49.07
2.35463	49.41
2.37130	49.68
2.38797	49.80
2.40463	49.79
2.42130	49.79
2.43797	49.81
2.45463	49.80
2.47130	49.78
2.48797	49.80
2.50463	49.81
2.52130	49.78
2.53797	49.82
2.55463	49.84
2.57130	49.82
2.58797	49.83
2.60463	49.85
2.62130	49.85
2.63797	49.85
2.65463	49.85
2.67130	49.82
2.68797	49.84
2.70463	49.86
2.72130	49.90
2.73797	49.89
2.75463	49.89
2.77130	49.87
2.78797	49.86
2.80463	49.85
2.82130	49.87
2.83797	49.90
2.85463	49.93
2.87130	49.95
2.88797	49.95
2.90463	49.97
2.92130	49.98
2.93797	49.99
2.95463	49.99
2.97130	49.99
2.98797	50.01
3.00463	50.01
3.02130	50.02
3.03797	50.01
3.05463	50.02
3.07130	50.03
3.08797	50.05
3.10463	50.06
3.12130	50.07
3.13797	50.07
3.15463	50.07
3.17130	50.07
3.18797	50.07
3.20463	50.08
3.22130	50.09
3.23797	50.10
3.25463	50.11
3.27130	50.11
3.28797	50.11
3.30463	50.09
3.32130	50.07
3.33797	50.06
3.35463	50.05
3.37130	50.05
3.38797	50.04
3.40463	50.03
3.42130	50.03
3.43797	50.03
3.45463	50.02
3.47130	50.02
3.48797	50.02
3.50463	50.02
3.52130	50.02
3.53797	50.02
3.55463	50.01
3.57130	50.01
3.58797	50.01
3.60463	50.03
3.62130	50.04
3.63797	50.05
3.65463	50.05
3.67130	50.06
3.68797	50.06
3.70463	50.06
3.72130	50.06
3.73797	50.07
3.75463	50.07
3.77130	50.08
3.78797	50.08
3.80463	50.08
3.82130	50.07
3.83797	50.06
3.85463	50.06
3.87130	50.05
3.88797	50.06
3.90463	50.05
3.92130	50.06
3.93797	50.06
3.95463	50.06
3.97130	50.07
3.98797	50.07

[Status Trace (Injection Unit Temperature)]
Interval(msec)	1000
# of Points	240
Start Time(min)	0.005
End Time(min)	3.988
Intensity Units	
Intensity Multiplier	1
R.Time (min)	Intensity
0.00463	99.97
0.02130	99.98
0.03797	99.98
0.05463	99.97
0.07130	99.98
0.08797	99.98
0.10463	99.98
0.12130	99.98
0.13797	99.98
0.15463	99.98
0.17130	99.98
0.18797	99.98
0.20463	99.98
0.22130	99.98
0.23797	99.98
0.25463	99.98
0.27130	99.98
0.28797	99.98
0.30463	99.98
0.32130	99.98
0.33797	99.98
0.35463	99.98
0.37130	99.98
0.38797	99.97
0.40463	99.99
0.42130	99.98
0.43797	99.98
0.45463	99.98
0.47130	99.98
0.48797	99.98
0.50463	99.98
0.52130	99.98
0.53797	99.98
0.55463	99.98
0.57130	99.99
0.58797	99.98
0.60463	99.98
0.62130	99.97
0.63797	99.98
0.65463	99.98
0.67130	99.98
0.68797	99.98
0.70463	99.99
0.72130	99.98
0.73797	99.98
0.75463	99.98
0.77130	99.98
0.78797	99.98
0.80463	99.98
0.82130	99.98
0.83797	99.98
0.85463	99.98
0.87130	99.98
0.88797	99.97
0.90463	99.98
0.92130	99.98
0.93797	99.98
0.95463	99.98
0.97130	99.98
0.98797	99.98
1.00463	99.99
1.02130	99.98
1.03797	99.98
1.05463	99.98
1.07130	99.98
1.08797	99.98
1.10463	99.99
1.12130	99.99
1.13797	99.99
1.15463	99.99
1.17130	99.98
1.18797	99.99
1.20463	99.98
1.22130	99.98
1.23797	99.98
1.25463	99.99
1.27130	99.99
1.28797	99.99
1.30463	99.98
1.32130	99.98
1.33797	99.98
1.35463	99.99
1.37130	99.99
1.38797	99.99
1.40463	99.99
1.42130	99.99
1.43797	99.98
1.45463	99.99
1.47130	99.98
1.48797	99.98
1.50463	99.99
1.52130	99.99
1.53797	99.99
1.55463	99.99
1.57130	99.98
1.58797	99.99
1.60463	99.99
1.62130	99.99
1.63797	99.99
1.65463	99.99
1.67130	99.99
1.68797	99.99
1.70463	99.99
1.72130	99.99
1.73797	99.99
1.75463	99.98
1.77130	99.99
1.78797	99.99
1.80463	99.98
1.82130	99.99
1.83797	99.98
1.85463	99.98
1.87130	99.98
1.88797	99.98
1.90463	99.98
1.92130	99.98
1.93797	99.98
1.95463	99.98
1.97130	99.97
1.98797	99.98
2.00463	99.97
2.02130	99.97
2.03797	99.98
2.05463	99.98
2.07130	99.97
2.08797	99.97
2.10463	99.97
2.12130	99.97
2.13797	99.97
2.15463	99.97
2.17130	99.97
2.18797	99.97
2.20463	99.97
2.22130	99.97
2.23797	99.97
2.25463	99.96
2.27130	99.97
2.28797	99.96
2.30463	99.97
2.32130	99.97
2.33797	99.97
2.35463	99.97
2.37130	99.97
2.38797	99.97
2.40463	99.97
2.42130	99.97
2.43797	99.97
2.45463	99.97
2.47130	99.97
2.48797	99.97
2.50463	99.97
2.52130	99.97
2.53797	99.97
2.55463	99.97
2.57130	99.97
2.58797	99.98
2.60463	99.98
2.62130	99.98
2.63797	99.98
2.65463	99.98
2.67130	99.98
2.68797	99.98
2.70463	99.99
2.72130	99.98
2.73797	99.99
2.75463	99.99
2.77130	99.99
2.78797	99.99
2.80463	99.99
2.82130	99.99
2.83797	99.99
2.85463	100.00
2.87130	100.00
2.88797	100.00
2.90463	100.00
2.92130	100.00
2.93797	100.01
2.95463	100.01
2.97130	100.00
2.98797	100.00
3.00463	100.01
3.02130	100.01
3.03797	100.01
3.05463	100.01
3.07130	100.01
3.08797	100.02
3.10463	100.01
3.12130	100.01
3.13797	100.01
3.15463	100.02
3.17130	100.02
3.18797	100.02
3.20463	100.02
3.22130	100.02
3.23797	100.02
3.25463	100.01
3.27130	100.03
3.28797	100.03
3.30463	100.03
3.32130	100.03
3.33797	100.03
3.35463	100.03
3.37130	100.03
3.38797	100.03
3.40463	100.03
3.42130	100.03
3.43797	100.04
3.45463	100.04
3.47130	100.03
3.48797	100.04
3.50463	100.04
3.52130	100.04
3.53797	100.04
3.55463	100.04
3.57130	100.04
3.58797	100.04
3.60463	100.04
3.62130	100.04
3.63797	100.04
3.65463	100.04
3.67130	100.04
3.68797	100.04
3.70463	100.05
3.72130	100.04
3.73797	100.05
3.75463	100.05
3.77130	100.04
3.78797	100.05
3.80463	100.04
3.82130	100.04
3.83797	100.05
3.85463	100.04
3.87130	100.04
3.88797	100.05
3.90463	100.05
3.92130	100.04
3.93797	100.04
3.95463	100.04
3.97130	100.04
3.98797	100.05

[Status Trace (Carrier Gas Pressure)]
Interval(msec)	1000
# of Points	240
Start Time(min)	0.005
End Time(min)	3.988
Intensity Units	
Intensity Multiplier	1
R.Time (min)	Intensity
0.00463	58.00
0.02130	55.87
0.03797	56.71
0.05463	58.83
0.07130	59.72
0.08797	58.16
0.10463	57.97
0.12130	58.01
0.13797	58.01
0.15463	58.01
0.17130	58.00
0.18797	58.00
0.20463	58.00
0.22130	58.00
0.23797	58.00
0.25463	58.00
0.27130	58.00
0.28797	58.00
0.30463	58.00
0.32130	58.00
0.33797	58.00
0.35463	58.00
0.37130	58.00
0.38797	58.00
0.40463	58.00
0.42130	58.00
0.43797	58.00
0.45463	58.00
0.47130	58.00
0.48797	58.00
0.50463	58.00
0.52130	58.00
0.53797	58.00
0.55463	58.00
0.57130	58.00
0.58797	58.00
0.60463	58.00
0.62130	58.00
0.63797	58.00
0.65463	58.00
0.67130	58.00
0.68797	58.00
0.70463	58.00
0.72130	58.00
0.73797	58.00
0.75463	58.00
0.77130	58.00
0.78797	58.00
0.80463	58.00
0.82130	58.00
0.83797	58.00
0.85463	58.00
0.87130	58.00
0.88797	58.00
0.90463	58.00
0.92130	58.00
0.93797	58.00
0.95463	58.00
0.97130	58.00
0.98797	58.00
1.00463	58.00
1.02130	58.00
1.03797	58.00
1.05463	58.00
1.07130	58.00
1.08797	58.00
1.10463	58.00
1.12130	58.00
1.13797	58.00
1.15463	58.00
1.17130	58.00
1.18797	58.00
1.20463	58.00
1.22130	58.00
1.23797	58.00
1.25463	58.00
1.27130	58.00
1.28797	58.00
1.30463	58.00
1.32130	58.00
1.33797	58.00
1.35463	58.00
1.37130	58.00
1.38797	58.00
1.40463	58.00
1.42130	58.00
1.43797	58.00
1.45463	58.00
1.47130	58.00
1.48797	58.00
1.50463	58.00
1.52130	58.00
1.53797	58.00
1.55463	58.00
1.57130	58.00
1.58797	58.00
1.60463	58.00
1.62130	58.00
1.63797	58.00
1.65463	58.00
1.67130	58.01
1.68797	58.01
1.70463	58.00
1.72130	58.00
1.73797	58.00
1.75463	58.00
1.77130	58.00
1.78797	58.00
1.80463	58.00
1.82130	58.00
1.83797	58.00
1.85463	58.00
1.87130	58.00
1.88797	58.00
1.90463	58.00
1.92130	58.00
1.93797	58.00
1.95463	58.00
1.97130	58.00
1.98797	58.00
2.00463	58.00
2.02130	58.00
2.03797	58.00
2.05463	58.00
2.07130	58.00
2.08797	58.00
2.10463	58.00
2.12130	58.00
2.13797	58.00
2.15463	58.00
2.17130	58.00
2.18797	58.00
2.20463	58.00
2.22130	58.00
2.23797	58.00
2.25463	58.00
2.27130	58.00
2.28797	58.00
2.30463	58.00
2.32130	58.00
2.33797	58.00
2.35463	58.00
2.37130	58.00
2.38797	57.99
2.40463	57.99
2.42130	58.00
2.43797	58.00
2.45463	58.00
2.47130	58.00
2.48797	58.00
2.50463	57.99
2.52130	57.99
2.53797	58.00
2.55463	58.00
2.57130	58.00
2.58797	58.00
2.60463	58.00
2.62130	58.00
2.63797	58.00
2.65463	58.00
2.67130	58.00
2.68797	58.00
2.70463	58.00
2.72130	58.00
2.73797	58.00
2.75463	58.00
2.77130	58.00
2.78797	58.00
2.80463	58.00
2.82130	58.00
2.83797	58.00
2.85463	58.00
2.87130	58.00
2.88797	58.00
2.90463	58.00
2.92130	58.00
2.93797	58.00
2.95463	58.00
2.97130	58.00
2.98797	58.00
3.00463	58.00
3.02130	58.00
3.03797	58.00
3.05463	58.00
3.07130	58.00
3.08797	58.00
3.10463	58.00
3.12130	58.00
3.13797	58.00
3.15463	58.00
3.17130	58.00
3.18797	58.00
3.20463	58.00
3.22130	58.00
3.23797	58.00
3.25463	58.00
3.27130	58.00
3.28797	58.00
3.30463	58.00
3.32130	58.00
3.33797	58.00
3.35463	58.00
3.37130	58.00
3.38797	58.00
3.40463	58.00
3.42130	58.00
3.43797	58.00
3.45463	58.00
3.47130	58.00
3.48797	58.00
3.50463	58.00
3.52130	58.00
3.53797	58.00
3.55463	58.00
3.57130	58.00
3.58797	58.00
3.60463	58.00
3.62130	58.00
3.63797	58.00
3.65463	58.00
3.67130	58.00
3.68797	58.00
3.70463	58.00
3.72130	58.00
3.73797	58.00
3.75463	58.00
3.77130	58.00
3.78797	58.00
3.80463	58.00
3.82130	58.00
3.83797	58.00
3.85463	58.00
3.87130	58.00
3.88797	58.00
3.90463	58.00
3.92130	58.00
3.93797	58.00
3.95463	58.00
3.97130	58.00
3.98797	58.00

[Status Trace (Carrier Gas Flow)]
Interval(msec)	1000
# of Points	240
Start Time(min)	0.005
End Time(min)	3.988
Intensity Units	
Intensity Multiplier	1
R.Time (min)	Intensity
0.00463	34.52
0.02130	34.56
0.03797	34.54
0.05463	34.55
0.07130	34.50
0.08797	34.52
0.10463	34.52
0.12130	34.52
0.13797	34.52
0.15463	34.52
0.17130	34.52
0.18797	34.52
0.20463	34.52
0.22130	34.52
0.23797	34.52
0.25463	34.52
0.27130	34.52
0.28797	34.52
0.30463	34.52
0.32130	34.52
0.33797	34.52
0.35463	34.52
0.37130	34.51
0.38797	34.52
0.40463	34.51
0.42130	34.52
0.43797	34.52
0.45463	34.52
0.47130	34.52
0.48797	34.52
0.50463	34.52
0.52130	34.52
0.53797	34.52
0.55463	34.52
0.57130	34.51
0.58797	34.52
0.60463	34.52
0.62130	34.52
0.63797	34.51
0.65463	34.53
0.67130	34.53
0.68797	34.51
0.70463	34.52
0.72130	34.52
0.73797	34.52
0.75463	34.52
0.77130	34.52
0.78797	34.52
0.80463	34.51
0.82130	34.52
0.83797	34.52
0.85463	34.52
0.87130	34.53
0.88797	34.52
0.90463	34.52
0.92130	34.52
0.93797	34.52
0.95463	34.52
0.97130	34.52
0.98797	34.52
1.00463	34.52
1.02130	34.52
1.03797	34.52
1.05463	34.52
1.07130	34.52
1.08797	34.52
1.10463	34.52
1.12130	34.52
1.13797	34.52
1.15463	34.52
1.17130	34.51
1.18797	34.52
1.20463	34.52
1.22130	34.52
1.23797	34.52
1.25463	34.52
1.27130	34.52
1.28797	34.52
1.30463	34.52
1.32130	34.52
1.33797	34.52
1.35463	34.52
1.37130	34.52
1.38797	34.52
1.40463	34.52
1.42130	34.52
1.43797	34.52
1.45463	34.52
1.47130	34.52
1.48797	34.52
1.50463	34.51
1.52130	34.51
1.53797	34.52
1.55463	34.52
1.57130	34.52
1.58797	34.52
1.60463	34.52
1.62130	34.52
1.63797	34.53
1.65463	34.52
1.67130	34.52
1.68797	34.51
1.70463	34.51
1.72130	34.51
1.73797	34.52
1.75463	34.53
1.77130	34.51
1.78797	34.51
1.80463	34.52
1.82130	34.52
1.83797	34.52
1.85463	34.52
1.87130	34.51
1.88797	34.52
1.90463	34.51
1.92130	34.52
1.93797	34.52
1.95463	34.52
1.97130	34.52
1.98797	34.51
2.00463	34.52
2.02130	34.52
2.03797	34.52
2.05463	34.52
2.07130	34.52
2.08797	34.52
2.10463	34.52
2.12130	34.52
2.13797	34.52
2.15463	34.52
2.17130	34.52
2.18797	34.52
2.20463	34.52
2.22130	34.51
2.23797	34.52
2.25463	34.52
2.27130	34.52
2.28797	34.51
2.30463	34.52
2.32130	34.53
2.33797	34.52
2.35463	34.51
2.37130	34.52
2.38797	34.53
2.40463	34.52
2.42130	34.51
2.43797	34.52
2.45463	34.52
2.47130	34.52
2.48797	34.52
2.50463	34.58
2.52130	34.52
2.53797	34.52
2.55463	34.52
2.57130	34.52
2.58797	34.52
2.60463	34.52
2.62130	34.52
2.63797	34.52
2.65463	34.52
2.67130	34.52
2.68797	34.52
2.70463	34.52
2.72130	34.52
2.73797	34.52
2.75463	34.52
2.77130	34.52
2.78797	34.52
2.80463	34.52
2.82130	34.52
2.83797	34.52
2.85463	34.52
2.87130	34.52
2.88797	34.52
2.90463	34.51
2.92130	34.52
2.93797	34.52
2.95463	34.52
2.97130	34.52
2.98797	34.52
3.00463	34.52
3.02130	34.52
3.03797	34.52
3.05463	34.51
3.07130	34.52
3.08797	34.52
3.10463	34.52
3.12130	34.52
3.13797	34.52
3.15463	34.51
3.17130	34.52
3.18797	34.52
3.20463	34.52
3.22130	34.52
3.23797	34.52
3.25463	34.52
3.27130	34.52
3.28797	34.52
3.30463	34.52
3.32130	34.52
3.33797	34.52
3.35463	34.52
3.37130	34.52
3.38797	34.52
3.40463	34.52
3.42130	34.52
3.43797	34.52
3.45463	34.52
3.47130	34.51
3.48797	34.52
3.50463	34.53
3.52130	34.52
3.53797	34.52
3.55463	34.52
3.57130	34.52
3.58797	34.52
3.60463	34.51
3.62130	34.52
3.63797	34.53
3.65463	34.52
3.67130	34.52
3.68797	34.52
3.70463	34.51
3.72130	34.52
3.73797	34.51
3.75463	34.52
3.77130	34.51
3.78797	34.52
3.80463	34.53
3.82130	34.53
3.83797	34.52
3.85463	34.52
3.87130	34.52
3.88797	34.52
3.90463	34.51
3.92130	34.52
3.93797	34.53
3.95463	34.52
3.97130	34.52
3.98797	34.51

[Status Trace (Column Flow)]
Interval(msec)	1000
# of Points	240
Start Time(min)	0.005
End Time(min)	3.988
Intensity Units	
Intensity Multiplier	1
R.Time (min)	Intensity
0.00463	5.53
0.02130	5.29
0.03797	5.38
0.05463	5.63
0.07130	5.73
0.08797	5.55
0.10463	5.53
0.12130	5.53
0.13797	5.53
0.15463	5.53
0.17130	5.53
0.18797	5.53
0.20463	5.53
0.22130	5.53
0.23797	5.53
0.25463	5.53
0.27130	5.53
0.28797	5.53
0.30463	5.53
0.32130	5.53
0.33797	5.53
0.35463	5.53
0.37130	5.53
0.38797	5.53
0.40463	5.53
0.42130	5.53
0.43797	5.53
0.45463	5.53
0.47130	5.53
0.48797	5.53
0.50463	5.53
0.52130	5.53
0.53797	5.53
0.55463	5.53
0.57130	5.53
0.58797	5.53
0.60463	5.53
0.62130	5.53
0.63797	5.53
0.65463	5.53
0.67130	5.53
0.68797	5.53
0.70463	5.53
0.72130	5.53
0.73797	5.53
0.75463	5.53
0.77130	5.53
0.78797	5.53
0.80463	5.53
0.82130	5.53
0.83797	5.53
0.85463	5.53
0.87130	5.53
0.88797	5.53
0.90463	5.53
0.92130	5.53
0.93797	5.53
0.95463	5.53
0.97130	5.53
0.98797	5.53
1.00463	5.53
1.02130	5.53
1.03797	5.53
1.05463	5.53
1.07130	5.53
1.08797	5.53
1.10463	5.53
1.12130	5.53
1.13797	5.53
1.15463	5.53
1.17130	5.53
1.18797	5.53
1.20463	5.53
1.22130	5.53
1.23797	5.53
1.25463	5.53
1.27130	5.53
1.28797	5.53
1.30463	5.53
1.32130	5.53
1.33797	5.53
1.35463	5.53
1.37130	5.53
1.38797	5.53
1.40463	5.53
1.42130	5.53
1.43797	5.53
1.45463	5.53
1.47130	5.53
1.48797	5.53
1.50463	5.53
1.52130	5.53
1.53797	5.53
1.55463	5.53
1.57130	5.53
1.58797	5.53
1.60463	5.53
1.62130	5.53
1.63797	5.52
1.65463	5.51
1.67130	5.50
1.68797	5.49
1.70463	5.48
1.72130	5.47
1.73797	5.46
1.75463	5.45
1.77130	5.44
1.78797	5.43
1.80463	5.42
1.82130	5.41
1.83797	5.40
1.85463	5.39
1.87130	5.38
1.88797	5.37
1.90463	5.36
1.92130	5.35
1.93797	5.34
1.95463	5.33
1.97130	5.32
1.98797	5.31
2.00463	5.30
2.02130	5.29
2.03797	5.28
2.05463	5.27
2.07130	5.26
2.08797	5.25
2.10463	5.24
2.12130	5.23
2.13797	5.22
2.15463	5.22
2.17130	5.21
2.18797	5.20
2.20463	5.19
2.22130	5.18
2.23797	5.17
2.25463	5.16
2.27130	5.15
2.28797	5.14
2.30463	5.13
2.32130	5.12
2.33797	5.11
2.35463	5.10
2.37130	5.10
2.38797	5.09
2.40463	5.09
2.42130	5.09
2.43797	5.09
2.45463	5.09
2.47130	5.09
2.48797	5.09
2.50463	5.09
2.52130	5.09
2.53797	5.09
2.55463	5.09
2.57130	5.09
2.58797	5.09
2.60463	5.09
2.62130	5.09
2.63797	5.09
2.65463	5.09
2.67130	5.09
2.68797	5.09
2.70463	5.09
2.72130	5.09
2.73797	5.09
2.75463	5.09
2.77130	5.09
2.78797	5.09
2.80463	5.09
2.82130	5.09
2.83797	5.09
2.85463	5.09
2.87130	5.09
2.88797	5.09
2.90463	5.09
2.92130	5.09
2.93797	5.09
2.95463	5.09
2.97130	5.09
2.98797	5.09
3.00463	5.09
3.02130	5.09
3.03797	5.09
3.05463	5.09
3.07130	5.09
3.08797	5.09
3.10463	5.09
3.12130	5.09
3.13797	5.09
3.15463	5.09
3.17130	5.09
3.18797	5.09
3.20463	5.09
3.22130	5.09
3.23797	5.08
3.25463	5.08
3.27130	5.08
3.28797	5.08
3.30463	5.09
3.32130	5.09
3.33797	5.09
3.35463	5.09
3.37130	5.09
3.38797	5.09
3.40463	5.09
3.42130	5.09
3.43797	5.09
3.45463	5.09
3.47130	5.09
3.48797	5.09
3.50463	5.09
3.52130	5.09
3.53797	5.09
3.55463	5.09
3.57130	5.09
3.58797	5.09
3.60463	5.09
3.62130	5.09
3.63797	5.09
3.65463	5.09
3.67130	5.09
3.68797	5.09
3.70463	5.09
3.72130	5.09
3.73797	5.09
3.75463	5.09
3.77130	5.09
3.78797	5.09
3.80463	5.09
3.82130	5.09
3.83797	5.09
3.85463	5.09
3.87130	5.09
3.88797	5.09
3.90463	5.09
3.92130	5.09
3.93797	5.09
3.95463	5.09
3.97130	5.09
3.98797	5.09

[Status Trace (Linear Velocity)]
Interval(msec)	1000
# of Points	240
Start Time(min)	0.005
End Time(min)	3.988
Intensity Units	
Intensity Multiplier	1
R.Time (min)	Intensity
0.00463	39.02
0.02130	37.62
0.03797	38.17
0.05463	39.56
0.07130	40.15
0.08797	39.12
0.10463	39.00
0.12130	39.02
0.13797	39.02
0.15463	39.02
0.17130	39.02
0.18797	39.02
0.20463	39.02
0.22130	39.02
0.23797	39.02
0.25463	39.02
0.27130	39.02
0.28797	39.01
0.30463	39.01
0.32130	39.02
0.33797	39.01
0.35463	39.01
0.37130	39.01
0.38797	39.02
0.40463	39.02
0.42130	39.02
0.43797	39.02
0.45463	39.02
0.47130	39.02
0.48797	39.02
0.50463	39.02
0.52130	39.02
0.53797	39.02
0.55463	39.02
0.57130	39.02
0.58797	39.02
0.60463	39.02
0.62130	39.02
0.63797	39.02
0.65463	39.02
0.67130	39.02
0.68797	39.02
0.70463	39.02
0.72130	39.02
0.73797	39.02
0.75463	39.02
0.77130	39.02
0.78797	39.02
0.80463	39.02
0.82130	39.02
0.83797	39.02
0.85463	39.02
0.87130	39.02
0.88797	39.02
0.90463	39.02
0.92130	39.02
0.93797	39.02
0.95463	39.02
0.97130	39.02
0.98797	39.02
1.00463	39.02
1.02130	39.02
1.03797	39.02
1.05463	39.02
1.07130	39.02
1.08797	39.02
1.10463	39.02
1.12130	39.02
1.13797	39.02
1.15463	39.02
1.17130	39.02
1.18797	39.02
1.20463	39.02
1.22130	39.02
1.23797	39.02
1.25463	39.02
1.27130	39.02
1.28797	39.02
1.30463	39.02
1.32130	39.02
1.33797	39.02
1.35463	39.02
1.37130	39.02
1.38797	39.02
1.40463	39.02
1.42130	39.02
1.43797	39.02
1.45463	39.02
1.47130	39.02
1.48797	39.02
1.50463	39.02
1.52130	39.01
1.53797	39.01
1.55463	39.02
1.57130	39.01
1.58797	39.02
1.60463	39.01
1.62130	39.00
1.63797	38.99
1.65463	38.97
1.67130	38.94
1.68797	38.90
1.70463	38.86
1.72130	38.83
1.73797	38.80
1.75463	38.77
1.77130	38.74
1.78797	38.71
1.80463	38.68
1.82130	38.64
1.83797	38.61
1.85463	38.58
1.87130	38.55
1.88797	38.52
1.90463	38.49
1.92130	38.46
1.93797	38.43
1.95463	38.40
1.97130	38.37
1.98797	38.34
2.00463	38.31
2.02130	38.28
2.03797	38.25
2.05463	38.22
2.07130	38.19
2.08797	38.16
2.10463	38.13
2.12130	38.10
2.13797	38.07
2.15463	38.04
2.17130	38.01
2.18797	37.98
2.20463	37.95
2.22130	37.92
2.23797	37.89
2.25463	37.86
2.27130	37.83
2.28797	37.80
2.30463	37.77
2.32130	37.74
2.33797	37.72
2.35463	37.69
2.37130	37.66
2.38797	37.65
2.40463	37.65
2.42130	37.65
2.43797	37.65
2.45463	37.65
2.47130	37.65
2.48797	37.65
2.50463	37.64
2.52130	37.65
2.53797	37.65
2.55463	37.65
2.57130	37.65
2.58797	37.65
2.60463	37.65
2.62130	37.65
2.63797	37.65
2.65463	37.65
2.67130	37.65
2.68797	37.65
2.70463	37.65
2.72130	37.64
2.73797	37.64
2.75463	37.64
2.77130	37.65
2.78797	37.65
2.80463	37.65
2.82130	37.65
2.83797	37.64
2.85463	37.64
2.87130	37.64
2.88797	37.64
2.90463	37.64
2.92130	37.64
2.93797	37.64
2.95463	37.64
2.97130	37.64
2.98797	37.63
3.00463	37.63
3.02130	37.63
3.03797	37.63
3.05463	37.63
3.07130	37.63
3.08797	37.63
3.10463	37.63
3.12130	37.63
3.13797	37.63
3.15463	37.63
3.17130	37.63
3.18797	37.63
3.20463	37.63
3.22130	37.63
3.23797	37.63
3.25463	37.63
3.27130	37.62
3.28797	37.62
3.30463	37.63
3.32130	37.63
3.33797	37.63
3.35463	37.63
3.37130	37.63
3.38797	37.63
3.40463	37.63
3.42130	37.63
3.43797	37.63
3.45463	37.63
3.47130	37.63
3.48797	37.63
3.50463	37.63
3.52130	37.63
3.53797	37.63
3.55463	37.63
3.57130	37.63
3.58797	37.63
3.60463	37.63
3.62130	37.63
3.63797	37.63
3.65463	37.63
3.67130	37.63
3.68797	37.63
3.70463	37.63
3.72130	37.63
3.73797	37.63
3.75463	37.63
3.77130	37.63
3.78797	37.63
3.80463	37.63
3.82130	37.63
3.83797	37.63
3.85463	37.63
3.87130	37.63
3.88797	37.63
3.90463	37.63
3.92130	37.63
3.93797	37.63
3.95463	37.63
3.97130	37.63
3.98797	37.63

