[Header]
Application Name	LabSolutions
Version	5.110
Data File Name	C:\Users\User\Desktop\GC Analyses\Jack\Nachusa Grasslands Sampling\T3 Timepoint July 12th\T3_07122022_004.gcd
Output Date	3/14/2023
Output Time	3:43:30 PM

[File Information]
Type	Data File
Generated	3/13/2023 2:49:05 PM
Generated by	System Administrator
Modified	3/13/2023 2:55:33 PM
Modified by	System Administrator

[Sample Information]
Operator Name	System Administrator
Acquired	3/13/2023 2:51:32 PM
Sample Type	0:Unknown
Level	0
Sample Name	004
Sample ID	004
ISTD Amount1	1
ISTD Amount2	1
ISTD Amount3	1
ISTD Amount4	1
ISTD Amount5	1
ISTD Amount6	1
ISTD Amount7	1
ISTD Amount8	1
ISTD Amount9	1
ISTD Amount10	1
ISTD Amount11	1
ISTD Amount12	1
ISTD Amount13	1
ISTD Amount14	1
ISTD Amount15	1
ISTD Amount16	1
ISTD Amount17	1
ISTD Amount18	1
ISTD Amount19	1
ISTD Amount20	1
ISTD Amount21	1
ISTD Amount22	1
ISTD Amount23	1
ISTD Amount24	1
ISTD Amount25	1
ISTD Amount26	1
ISTD Amount27	1
ISTD Amount28	1
ISTD Amount29	1
ISTD Amount30	1
ISTD Amount31	1
ISTD Amount32	1
Sample Amount	1
Dilution Factor	1
Vial#	3
Injection Volume	1
Injection Count	1
Bar Code	

[Original Files]
Data File	C:\Users\User\Desktop\GC Analyses\Jack\Nachusa Grasslands Sampling\T3 Timepoint July 12th\T3_07122022_004.gcd
Method File	C:\LabSolutions\Data\GHG_4min_2022\ghg3_togas_w_acet_4 min_new_int.gcm
Batch File	C:\LabSolutions\Data\AutoSamplerTesting\T3_07122022.gcb
Report Format File	c:\LabSolutions\System\DEFAULT.lsr

[File Description]


[Configuration]
Instrument Name	C0B7VH3-Instrument1
Instrument #	1
Line #	1
# of Detectors	3
Detector ID	DET#1	DET#2	DET#3
Detector Name	FID	PTCD	ECD
# of Channels	1	1	1

[Peak Table(Ch1)]
# of Peaks	3
Peak#	R.Time	I.Time	F.Time	Area	Height	A/H	Conc.	Mark	ID#	Name	k'	Plate #	Plate Ht.	Tailing	Resolution	Sep.Factor	Area Ratio	Height Ratio	Conc. %	Norm Conc.
1	1.461	1.439	1.505	2780	1694	1.641	19.625	   	1	CO	0.000	14080	10.653	1.538	0.000	0.000	0	0	2.094	2.094
2	1.571	1.538	1.626	20305	10346	1.963	392.615	   	2	CH4	0.075	11605	12.926	1.166	2.045	0.000	0	0	41.889	41.889
3	2.000	1.952	2.330	2091987	1010831	2.070	525.032	   	3	CO2	0.369	17495	8.574	1.201	7.221	4.900	0	0	56.017	56.017

[Peak Table(Ch2)]
# of Peaks	0

[Peak Table(Ch3)]
# of Peaks	5
Peak#	R.Time	I.Time	F.Time	Area	Height	A/H	Conc.	Mark	ID#	Name	k'	Plate #	Plate Ht.	Tailing	Resolution	Sep.Factor	Area Ratio	Height Ratio	Conc. %	Norm Conc.
1	2.462	2.337	2.510	1419	442	3.210	0.000	   			0.000	10769	13.929	0.000	0.000	0.000	0	0	0.000	0.000
2	2.524	2.510	2.576	716	254	2.822	0.000	 V 			0.025	4710	31.849	0.000	0.515	0.000	0	0	0.000	0.000
3	2.605	2.576	2.664	469	143	3.285	0.000	 V 			0.058	4029	37.233	0.000	0.518	2.294	0	0	0.000	0.000
4	2.880	2.777	3.115	56350	14785	3.811	1.439	   	1	N2O	0.170	12831	11.690	1.560	2.069	2.923	0	0	100.000	100.000
5	3.463	3.232	3.650	585	39	14.964	0.000	   	2	SF6	0.407	1546	97.018	0.902	2.568	2.395	0	0	0.000	0.000

[Compound Results(Ch1)]
# of IDs	6
ID#	Name	R.Time	Area	Height	Conc.	Curve	3rd	2nd	1st	Constant	Area Ratio	Height Ratio	Conc. %	Norm Conc.
1	CO	1.461	2780	1694	19.625	Linear	0.000000e+00	0.000000e+00	1.416423e+002	0.000000e+00	0	0	2.094	2.094
2	CH4	1.571	20305	10346	392.615	Linear	0.000000e+00	0.000000e+00	5.171738e+001	0.000000e+00	0	0	41.889	41.889
3	CO2	2.000	2091987	1010831	525.032	Linear	0.000000e+00	0.000000e+00	3.984494e+003	0.000000e+00	0	0	56.017	56.017
4	Ethylene	0.000	0	0	0.000	Linear	0.000000e+00	0.000000e+00	0.000000e+00	0.000000e+00	0	0	0.000	0.000
5	Acetylene	0.000	0	0	0.000	Linear	0.000000e+00	0.000000e+00	0.000000e+00	0.000000e+00	0	0	0.000	0.000
6	Ethane	0.000	0	0	0.000	Linear	0.000000e+00	0.000000e+00	0.000000e+00	0.000000e+00	0	0	0.000	0.000

[Compound Results(Ch2)]
# of IDs	5
ID#	Name	R.Time	Area	Height	Conc.	Curve	3rd	2nd	1st	Constant	Area Ratio	Height Ratio	Conc. %	Norm Conc.
1	Hydrogen	0.000	0	0	0.000	Linear	0.000000e+00	0.000000e+00	0.000000e+00	0.000000e+00	0	0	0.000	0.000
2	Oxygen	0.000	0	0	0.000	Linear	0.000000e+00	0.000000e+00	0.000000e+00	0.000000e+00	0	0	0.000	0.000
3	Nitrogen	0.000	0	0	0.000	Linear	0.000000e+00	0.000000e+00	0.000000e+00	0.000000e+00	0	0	0.000	0.000
4	Methane	0.000	0	0	0.000	Linear	0.000000e+00	0.000000e+00	0.000000e+00	0.000000e+00	0	0	0.000	0.000
5	Carbon Monoxide	0.000	0	0	0.000	Linear	0.000000e+00	0.000000e+00	0.000000e+00	0.000000e+00	0	0	0.000	0.000

[Compound Results(Ch3)]
# of IDs	2
ID#	Name	R.Time	Area	Height	Conc.	Curve	3rd	2nd	1st	Constant	Area Ratio	Height Ratio	Conc. %	Norm Conc.
1	N2O	2.880	56350	14785	1.439	Linear	0.000000e+00	0.000000e+00	3.915173e+004	0.000000e+00	0	0	100.000	100.000
2	SF6	3.463	585	39	0.000	Linear	0.000000e+00	0.000000e+00	0.000000e+00	0.000000e+00	0	0	0.000	0.000

[Group Results(Ch1)]
# of Groups	0

[Group Results(Ch2)]
# of Groups	0

[Group Results(Ch3)]
# of Groups	0

[Chromatogram (Ch1)]
Interval(msec)	220
# of Points	1091
Start Time(min)	0.002
End Time(min)	3.998
R.Time (min)	Intensity
0.00167	-26
0.00533	-32
0.00900	-28
0.01267	-23
0.01633	-18
0.02000	-19
0.02367	-21
0.02733	-23
0.03100	-26
0.03467	-34
0.03833	-44
0.04200	-46
0.04567	-41
0.04933	-34
0.05300	-34
0.05667	-34
0.06033	-34
0.06400	-30
0.06767	-20
0.07133	-10
0.07500	-10
0.07867	-9
0.08233	-25
0.08600	-30
0.08967	-23
0.09333	-14
0.09700	-12
0.10067	-16
0.10433	-26
0.10800	-29
0.11167	-33
0.11533	-39
0.11900	-43
0.12267	-48
0.12633	-44
0.13000	-37
0.13367	-43
0.13733	-45
0.14100	-45
0.14467	-44
0.14833	-34
0.15200	-26
0.15567	-20
0.15933	-19
0.16300	-24
0.16667	-26
0.17033	-23
0.17400	-24
0.17767	-25
0.18133	-25
0.18500	-31
0.18867	-32
0.19233	-30
0.19600	-28
0.19967	-26
0.20333	-20
0.20700	-15
0.21067	-16
0.21433	-23
0.21800	-29
0.22167	-33
0.22533	-33
0.22900	-34
0.23267	-34
0.23633	-36
0.24000	-30
0.24367	-27
0.24733	-26
0.25100	-26
0.25467	-26
0.25833	-24
0.26200	-20
0.26567	-25
0.26933	-31
0.27300	-37
0.27667	-36
0.28033	-35
0.28400	-37
0.28767	-40
0.29133	-39
0.29500	-34
0.29867	-34
0.30233	-33
0.30600	-20
0.30967	-11
0.31333	-12
0.31700	-23
0.32067	-31
0.32433	-37
0.32800	-36
0.33167	-30
0.33533	-27
0.33900	-18
0.34267	-10
0.34633	-5
0.35000	2
0.35367	0
0.35733	-12
0.36100	-27
0.36467	-44
0.36833	-59
0.37200	-64
0.37567	-61
0.37933	-51
0.38300	-44
0.38667	-37
0.39033	-33
0.39400	-29
0.39767	-18
0.40133	-13
0.40500	-7
0.40867	-9
0.41233	-22
0.41600	-44
0.41967	-61
0.42333	-66
0.42700	-71
0.43067	-73
0.43433	-72
0.43800	-73
0.44167	-78
0.44533	-74
0.44900	-62
0.45267	-49
0.45633	-43
0.46000	-40
0.46367	-42
0.46733	-44
0.47100	-42
0.47467	-40
0.47833	-39
0.48200	-38
0.48567	-34
0.48933	-29
0.49300	-26
0.49667	-27
0.50033	-28
0.50400	-31
0.50767	-44
0.51133	-49
0.51500	-45
0.51867	-42
0.52233	-39
0.52600	-23
0.52967	-16
0.53333	-20
0.53700	-26
0.54067	-34
0.54433	-38
0.54800	-43
0.55167	-53
0.55533	-61
0.55900	-65
0.56267	-63
0.56633	-57
0.57000	-52
0.57367	-49
0.57733	-48
0.58100	-49
0.58467	-54
0.58833	-55
0.59200	-53
0.59567	-49
0.59933	-44
0.60300	-39
0.60667	-40
0.61033	-39
0.61400	-41
0.61767	-41
0.62133	-36
0.62500	-34
0.62867	-42
0.63233	-53
0.63600	-63
0.63967	-56
0.64333	-48
0.64700	-38
0.65067	-37
0.65433	-48
0.65800	-56
0.66167	-63
0.66533	-70
0.66900	-71
0.67267	-70
0.67633	-67
0.68000	-63
0.68367	-65
0.68733	-67
0.69100	-66
0.69467	-58
0.69833	-49
0.70200	-39
0.70567	-39
0.70933	-41
0.71300	-42
0.71667	-45
0.72033	-49
0.72400	-51
0.72767	-49
0.73133	-46
0.73500	-47
0.73867	-49
0.74233	-46
0.74600	-39
0.74967	-39
0.75333	-45
0.75700	-52
0.76067	-57
0.76433	-55
0.76800	-51
0.77167	-43
0.77533	-38
0.77900	-41
0.78267	-54
0.78633	-66
0.79000	-71
0.79367	-76
0.79733	-77
0.80100	-81
0.80467	-87
0.80833	-89
0.81200	-79
0.81567	-67
0.81933	-56
0.82300	-46
0.82667	-42
0.83033	-45
0.83400	-47
0.83767	-47
0.84133	-53
0.84500	-55
0.84867	-53
0.85233	-48
0.85600	-47
0.85967	-50
0.86333	-56
0.86700	-59
0.87067	-55
0.87433	-57
0.87800	-65
0.88167	-68
0.88533	-70
0.88900	-70
0.89267	-66
0.89633	-65
0.90000	-63
0.90367	-58
0.90733	-53
0.91100	-51
0.91467	-52
0.91833	-58
0.92200	-65
0.92567	-70
0.92933	-75
0.93300	-78
0.93667	-73
0.94033	-71
0.94400	-73
0.94767	-78
0.95133	-80
0.95500	-78
0.95867	-78
0.96233	-79
0.96600	-82
0.96967	-81
0.97333	-78
0.97700	-72
0.98067	-63
0.98433	-59
0.98800	-60
0.99167	-65
0.99533	-65
0.99900	-60
1.00267	-55
1.00633	-54
1.01000	-54
1.01367	-61
1.01733	-69
1.02100	-73
1.02467	-75
1.02833	-74
1.03200	-76
1.03567	-78
1.03933	-85
1.04300	-91
1.04667	-90
1.05033	-83
1.05400	-79
1.05767	-77
1.06133	-75
1.06500	-72
1.06867	-68
1.07233	-66
1.07600	-63
1.07967	-58
1.08333	-54
1.08700	-60
1.09067	-74
1.09433	-80
1.09800	-76
1.10167	-74
1.10533	-75
1.10900	-85
1.11267	-90
1.11633	-94
1.12000	-94
1.12367	-92
1.12733	-87
1.13100	-84
1.13467	-82
1.13833	-76
1.14200	-73
1.14567	-72
1.14933	-72
1.15300	-70
1.15667	-71
1.16033	-80
1.16400	-91
1.16767	-100
1.17133	-105
1.17500	-102
1.17867	-98
1.18233	-94
1.18600	-89
1.18967	-87
1.19333	-84
1.19700	-82
1.20067	-83
1.20433	-79
1.20800	-74
1.21167	-71
1.21533	-70
1.21900	-71
1.22267	-75
1.22633	-78
1.23000	-77
1.23367	-76
1.23733	-77
1.24100	-82
1.24467	-89
1.24833	-93
1.25200	-92
1.25567	-95
1.25933	-93
1.26300	-91
1.26667	-93
1.27033	-91
1.27400	-86
1.27767	-88
1.28133	-87
1.28500	-84
1.28867	-80
1.29233	-77
1.29600	-79
1.29967	-72
1.30333	-62
1.30700	-58
1.31067	-63
1.31433	-70
1.31800	-74
1.32167	-71
1.32533	-65
1.32900	-62
1.33267	-64
1.33633	-72
1.34000	-86
1.34367	-103
1.34733	-110
1.35100	-108
1.35467	-111
1.35833	-112
1.36200	-111
1.36567	-109
1.36933	-106
1.37300	-98
1.37667	-88
1.38033	-83
1.38400	-75
1.38767	-74
1.39133	-74
1.39500	-72
1.39867	-77
1.40233	-85
1.40600	-99
1.40967	-103
1.41333	-98
1.41700	-93
1.42067	-88
1.42433	-88
1.42800	-96
1.43167	-99
1.43533	-96
1.43900	-94
1.44267	-66
1.44633	95
1.45000	554
1.45367	1066
1.45733	1351
1.46100	1372
1.46467	1197
1.46833	920
1.47200	631
1.47567	371
1.47933	150
1.48300	-45
1.48667	-213
1.49033	-359
1.49400	-490
1.49767	-606
1.50133	-702
1.50500	-778
1.50867	-850
1.51233	-898
1.51600	-925
1.51967	-934
1.52333	-929
1.52700	-916
1.53067	-891
1.53433	-861
1.53800	-795
1.54167	-583
1.54533	45
1.54900	1334
1.55267	3196
1.55633	5244
1.56000	7097
1.56367	8531
1.56733	9441
1.57100	9705
1.57467	9194
1.57833	7973
1.58200	6342
1.58567	4672
1.58933	3219
1.59300	2085
1.59667	1257
1.60033	681
1.60400	295
1.60767	36
1.61133	-129
1.61500	-238
1.61867	-306
1.62233	-350
1.62600	-384
1.62967	-407
1.63333	-418
1.63700	-413
1.64067	-406
1.64433	-405
1.64800	-410
1.65167	-412
1.65533	-414
1.65900	-413
1.66267	-411
1.66633	-412
1.67000	-404
1.67367	-393
1.67733	-383
1.68100	-376
1.68467	-372
1.68833	-377
1.69200	-381
1.69567	-386
1.69933	-389
1.70300	-389
1.70667	-388
1.71033	-385
1.71400	-380
1.71767	-375
1.72133	-368
1.72500	-359
1.72867	-354
1.73233	-355
1.73600	-361
1.73967	-368
1.74333	-373
1.74700	-374
1.75067	-369
1.75433	-356
1.75800	-339
1.76167	-331
1.76533	-330
1.76900	-325
1.77267	-322
1.77633	-323
1.78000	-328
1.78367	-332
1.78733	-339
1.79100	-337
1.79467	-334
1.79833	-330
1.80200	-318
1.80567	-308
1.80933	-301
1.81300	-296
1.81667	-300
1.82033	-304
1.82400	-313
1.82767	-326
1.83133	-337
1.83500	-344
1.83867	-344
1.84233	-342
1.84600	-340
1.84967	-342
1.85333	-341
1.85700	-337
1.86067	-335
1.86433	-331
1.86800	-327
1.87167	-323
1.87533	-315
1.87900	-306
1.88267	-298
1.88633	-289
1.89000	-285
1.89367	-285
1.89733	-282
1.90100	-279
1.90467	-276
1.90833	-278
1.91200	-280
1.91567	-281
1.91933	-281
1.92300	-288
1.92667	-299
1.93033	-310
1.93400	-317
1.93767	-325
1.94133	-322
1.94500	-319
1.94867	-315
1.95233	-305
1.95600	-241
1.95967	151
1.96333	2193
1.96700	10447
1.97067	35950
1.97433	96718
1.97800	209108
1.98167	372556
1.98533	564444
1.98900	750689
1.99267	899844
1.99633	990211
2.00000	1010568
2.00367	960846
2.00733	853751
2.01100	712037
2.01467	561109
2.01833	421531
2.02200	304986
2.02567	214717
2.02933	148505
2.03300	101767
2.03667	69621
2.04033	47870
2.04400	33275
2.04767	23509
2.05133	16950
2.05500	12518
2.05867	9485
2.06233	7376
2.06600	5876
2.06967	4788
2.07333	3982
2.07700	3371
2.08067	2900
2.08433	2524
2.08800	2223
2.09167	1984
2.09533	1786
2.09900	1608
2.10267	1446
2.10633	1307
2.11000	1192
2.11367	1086
2.11733	988
2.12100	902
2.12467	828
2.12833	767
2.13200	716
2.13567	668
2.13933	623
2.14300	584
2.14667	556
2.15033	532
2.15400	511
2.15767	490
2.16133	467
2.16500	441
2.16867	413
2.17233	385
2.17600	355
2.17967	329
2.18333	314
2.18700	302
2.19067	294
2.19433	284
2.19800	267
2.20167	243
2.20533	221
2.20900	218
2.21267	213
2.21633	206
2.22000	200
2.22367	192
2.22733	182
2.23100	173
2.23467	168
2.23833	162
2.24200	156
2.24567	152
2.24933	148
2.25300	138
2.25667	123
2.26033	106
2.26400	95
2.26767	90
2.27133	90
2.27500	94
2.27867	93
2.28233	86
2.28600	79
2.28967	71
2.29333	62
2.29700	53
2.30067	51
2.30433	53
2.30800	50
2.31167	46
2.31533	45
2.31900	41
2.32267	35
2.32633	28
2.33000	24
2.33367	20
2.33733	21
2.34100	25
2.34467	23
2.34833	19
2.35200	14
2.35567	8
2.35933	4
2.36300	0
2.36667	-1
2.37033	4
2.37400	14
2.37767	17
2.38133	9
2.38500	-5
2.38867	-16
2.39233	-25
2.39600	-30
2.39967	-27
2.40333	-19
2.40700	-13
2.41067	-13
2.41433	-11
2.41800	-5
2.42167	-1
2.42533	-1
2.42900	-3
2.43267	-9
2.43633	-19
2.44000	-25
2.44367	-27
2.44733	-27
2.45100	-29
2.45467	-33
2.45833	-35
2.46200	-34
2.46567	-31
2.46933	-28
2.47300	-26
2.47667	-20
2.48033	-19
2.48400	-20
2.48767	-21
2.49133	-25
2.49500	-29
2.49867	-35
2.50233	-42
2.50600	-46
2.50967	-45
2.51333	-45
2.51700	-42
2.52067	-39
2.52433	-49
2.52800	-60
2.53167	-70
2.53533	-76
2.53900	-76
2.54267	-71
2.54633	-69
2.55000	-65
2.55367	-59
2.55733	-53
2.56100	-46
2.56467	-39
2.56833	-33
2.57200	-28
2.57567	-27
2.57933	-30
2.58300	-39
2.58667	-48
2.59033	-56
2.59400	-70
2.59767	-77
2.60133	-75
2.60500	-73
2.60867	-65
2.61233	-53
2.61600	-46
2.61967	-48
2.62333	-41
2.62700	-36
2.63067	-38
2.63433	-47
2.63800	-55
2.64167	-61
2.64533	-68
2.64900	-69
2.65267	-67
2.65633	-64
2.66000	-59
2.66367	-55
2.66733	-52
2.67100	-50
2.67467	-52
2.67833	-54
2.68200	-53
2.68567	-52
2.68933	-59
2.69300	-72
2.69667	-83
2.70033	-88
2.70400	-89
2.70767	-83
2.71133	-78
2.71500	-73
2.71867	-75
2.72233	-73
2.72600	-71
2.72967	-67
2.73333	-61
2.73700	-49
2.74067	-35
2.74433	-33
2.74800	-29
2.75167	-29
2.75533	-27
2.75900	-26
2.76267	-29
2.76633	-30
2.77000	-34
2.77367	-38
2.77733	-39
2.78100	-41
2.78467	-44
2.78833	-47
2.79200	-49
2.79567	-45
2.79933	-40
2.80300	-39
2.80667	-39
2.81033	-42
2.81400	-42
2.81767	-42
2.82133	-42
2.82500	-38
2.82867	-26
2.83233	-12
2.83600	-4
2.83967	-0
2.84333	1
2.84700	-1
2.85067	0
2.85433	3
2.85800	6
2.86167	6
2.86533	7
2.86900	10
2.87267	18
2.87633	16
2.88000	9
2.88367	1
2.88733	-5
2.89100	-8
2.89467	-6
2.89833	-2
2.90200	7
2.90567	17
2.90933	24
2.91300	27
2.91667	27
2.92033	20
2.92400	12
2.92767	11
2.93133	15
2.93500	15
2.93867	16
2.94233	20
2.94600	22
2.94967	24
2.95333	21
2.95700	16
2.96067	12
2.96433	6
2.96800	-6
2.97167	-1
2.97533	14
2.97900	19
2.98267	15
2.98633	1
2.99000	-10
2.99367	-5
2.99733	3
3.00100	14
3.00467	25
3.00833	31
3.01200	34
3.01567	39
3.01933	45
3.02300	49
3.02667	50
3.03033	46
3.03400	36
3.03767	28
3.04133	18
3.04500	12
3.04867	5
3.05233	-5
3.05600	-14
3.05967	-18
3.06333	-12
3.06700	-4
3.07067	-3
3.07433	-7
3.07800	-5
3.08167	-2
3.08533	2
3.08900	5
3.09267	6
3.09633	4
3.10000	7
3.10367	13
3.10733	16
3.11100	10
3.11467	0
3.11833	-7
3.12200	-9
3.12567	-5
3.12933	-0
3.13300	2
3.13667	7
3.14033	8
3.14400	8
3.14767	5
3.15133	8
3.15500	16
3.15867	18
3.16233	10
3.16600	2
3.16967	-1
3.17333	-0
3.17700	-1
3.18067	-0
3.18433	-1
3.18800	-2
3.19167	0
3.19533	0
3.19900	-1
3.20267	1
3.20633	5
3.21000	14
3.21367	23
3.21733	26
3.22100	24
3.22467	19
3.22833	14
3.23200	6
3.23567	1
3.23933	-1
3.24300	2
3.24667	6
3.25033	6
3.25400	7
3.25767	5
3.26133	3
3.26500	2
3.26867	3
3.27233	-0
3.27600	-3
3.27967	-6
3.28333	-10
3.28700	-15
3.29067	-16
3.29433	-16
3.29800	-18
3.30167	-17
3.30533	-19
3.30900	-26
3.31267	-31
3.31633	-30
3.32000	-25
3.32367	-16
3.32733	-13
3.33100	-14
3.33467	-20
3.33833	-23
3.34200	-21
3.34567	-15
3.34933	-12
3.35300	-12
3.35667	-15
3.36033	-16
3.36400	-15
3.36767	-15
3.37133	-17
3.37500	-23
3.37867	-29
3.38233	-33
3.38600	-36
3.38967	-32
3.39333	-21
3.39700	-12
3.40067	-8
3.40433	-10
3.40800	-14
3.41167	-15
3.41533	-18
3.41900	-19
3.42267	-17
3.42633	-19
3.43000	-20
3.43367	-21
3.43733	-23
3.44100	-29
3.44467	-32
3.44833	-32
3.45200	-31
3.45567	-26
3.45933	-17
3.46300	-7
3.46667	-4
3.47033	-8
3.47400	-16
3.47767	-22
3.48133	-28
3.48500	-37
3.48867	-45
3.49233	-47
3.49600	-43
3.49967	-34
3.50333	-30
3.50700	-32
3.51067	-37
3.51433	-37
3.51800	-35
3.52167	-34
3.52533	-35
3.52900	-36
3.53267	-35
3.53633	-26
3.54000	-10
3.54367	-0
3.54733	-11
3.55100	-28
3.55467	-42
3.55833	-48
3.56200	-51
3.56567	-51
3.56933	-43
3.57300	-43
3.57667	-40
3.58033	-35
3.58400	-40
3.58767	-50
3.59133	-56
3.59500	-62
3.59867	-65
3.60233	-64
3.60600	-61
3.60967	-56
3.61333	-51
3.61700	-47
3.62067	-48
3.62433	-47
3.62800	-47
3.63167	-51
3.63533	-55
3.63900	-55
3.64267	-53
3.64633	-49
3.65000	-38
3.65367	-35
3.65733	-34
3.66100	-36
3.66467	-40
3.66833	-46
3.67200	-49
3.67567	-39
3.67933	-24
3.68300	-12
3.68667	-9
3.69033	-16
3.69400	-29
3.69767	-40
3.70133	-50
3.70500	-61
3.70867	-70
3.71233	-73
3.71600	-75
3.71967	-77
3.72333	-78
3.72700	-79
3.73067	-75
3.73433	-70
3.73800	-64
3.74167	-62
3.74533	-61
3.74900	-59
3.75267	-53
3.75633	-46
3.76000	-43
3.76367	-45
3.76733	-51
3.77100	-58
3.77467	-60
3.77833	-57
3.78200	-52
3.78567	-45
3.78933	-49
3.79300	-57
3.79667	-62
3.80033	-63
3.80400	-62
3.80767	-59
3.81133	-62
3.81500	-65
3.81867	-65
3.82233	-63
3.82600	-58
3.82967	-53
3.83333	-49
3.83700	-42
3.84067	-40
3.84433	-43
3.84800	-49
3.85167	-56
3.85533	-58
3.85900	-58
3.86267	-61
3.86633	-66
3.87000	-66
3.87367	-65
3.87733	-62
3.88100	-58
3.88467	-54
3.88833	-60
3.89200	-68
3.89567	-76
3.89933	-77
3.90300	-70
3.90667	-66
3.91033	-63
3.91400	-65
3.91767	-67
3.92133	-65
3.92500	-69
3.92867	-77
3.93233	-80
3.93600	-77
3.93967	-73
3.94333	-70
3.94700	-68
3.95067	-69
3.95433	-73
3.95800	-75
3.96167	-76
3.96533	-72
3.96900	-63
3.97267	-60
3.97633	-60
3.98000	-57
3.98367	-55
3.98733	-54
3.99100	-48
3.99467	-47
3.99833	-47

[Chromatogram (Ch2)]
Interval(msec)	220
# of Points	1091
Start Time(min)	0.002
End Time(min)	3.998
R.Time (min)	Intensity
0.00167	-1
0.00533	-1
0.00900	-1
0.01267	-2
0.01633	-2
0.02000	-2
0.02367	-3
0.02733	-3
0.03100	-3
0.03467	-3
0.03833	-4
0.04200	-4
0.04567	-3
0.04933	-3
0.05300	-3
0.05667	-3
0.06033	-3
0.06400	-2
0.06767	-2
0.07133	-1
0.07500	-1
0.07867	-0
0.08233	-0
0.08600	-0
0.08967	0
0.09333	0
0.09700	1
0.10067	1
0.10433	1
0.10800	1
0.11167	1
0.11533	1
0.11900	0
0.12267	-0
0.12633	-0
0.13000	-1
0.13367	-1
0.13733	-1
0.14100	-1
0.14467	-1
0.14833	-1
0.15200	-1
0.15567	-2
0.15933	-2
0.16300	-2
0.16667	-3
0.17033	-3
0.17400	-3
0.17767	-3
0.18133	-4
0.18500	-4
0.18867	-4
0.19233	-4
0.19600	-4
0.19967	-4
0.20333	-4
0.20700	-4
0.21067	-4
0.21433	-4
0.21800	-4
0.22167	-3
0.22533	-3
0.22900	-3
0.23267	-3
0.23633	-4
0.24000	-4
0.24367	-4
0.24733	-4
0.25100	-3
0.25467	-3
0.25833	-3
0.26200	-3
0.26567	-3
0.26933	-3
0.27300	-2
0.27667	-2
0.28033	-2
0.28400	-1
0.28767	-1
0.29133	-1
0.29500	-0
0.29867	0
0.30233	0
0.30600	0
0.30967	1
0.31333	1
0.31700	1
0.32067	1
0.32433	1
0.32800	1
0.33167	1
0.33533	1
0.33900	1
0.34267	1
0.34633	0
0.35000	0
0.35367	0
0.35733	0
0.36100	-0
0.36467	-0
0.36833	-1
0.37200	-1
0.37567	-1
0.37933	-1
0.38300	-1
0.38667	-2
0.39033	-2
0.39400	-3
0.39767	-4
0.40133	-4
0.40500	-4
0.40867	-4
0.41233	-4
0.41600	-4
0.41967	-4
0.42333	-4
0.42700	-3
0.43067	-3
0.43433	-3
0.43800	-2
0.44167	-2
0.44533	-2
0.44900	-2
0.45267	-2
0.45633	-2
0.46000	-2
0.46367	-3
0.46733	-3
0.47100	-4
0.47467	-4
0.47833	-4
0.48200	-5
0.48567	-5
0.48933	-4
0.49300	-4
0.49667	-4
0.50033	-4
0.50400	-3
0.50767	-3
0.51133	-3
0.51500	-3
0.51867	-3
0.52233	-3
0.52600	-3
0.52967	-3
0.53333	-3
0.53700	-3
0.54067	-3
0.54433	-2
0.54800	-2
0.55167	-2
0.55533	-2
0.55900	-2
0.56267	-2
0.56633	-2
0.57000	-2
0.57367	-2
0.57733	-2
0.58100	-2
0.58467	-2
0.58833	-2
0.59200	-2
0.59567	-2
0.59933	-2
0.60300	-2
0.60667	-2
0.61033	-2
0.61400	-2
0.61767	-2
0.62133	-2
0.62500	-3
0.62867	-3
0.63233	-3
0.63600	-3
0.63967	-3
0.64333	-3
0.64700	-4
0.65067	-4
0.65433	-4
0.65800	-4
0.66167	-4
0.66533	-4
0.66900	-3
0.67267	-3
0.67633	-3
0.68000	-3
0.68367	-2
0.68733	-2
0.69100	-2
0.69467	-2
0.69833	-2
0.70200	-2
0.70567	-2
0.70933	-2
0.71300	-2
0.71667	-3
0.72033	-3
0.72400	-3
0.72767	-3
0.73133	-4
0.73500	-4
0.73867	-4
0.74233	-5
0.74600	-5
0.74967	-5
0.75333	-5
0.75700	-5
0.76067	-5
0.76433	-5
0.76800	-5
0.77167	-5
0.77533	-5
0.77900	-5
0.78267	-5
0.78633	-4
0.79000	-4
0.79367	-3
0.79733	-3
0.80100	-3
0.80467	-3
0.80833	-2
0.81200	-2
0.81567	-2
0.81933	-3
0.82300	-3
0.82667	-3
0.83033	-3
0.83400	-3
0.83767	-3
0.84133	-3
0.84500	-4
0.84867	-4
0.85233	-5
0.85600	-5
0.85967	-5
0.86333	-5
0.86700	-5
0.87067	-5
0.87433	-5
0.87800	-5
0.88167	-5
0.88533	-4
0.88900	-4
0.89267	-3
0.89633	-3
0.90000	-2
0.90367	-2
0.90733	-1
0.91100	-1
0.91467	-1
0.91833	-1
0.92200	-1
0.92567	-1
0.92933	-0
0.93300	-0
0.93667	0
0.94033	1
0.94400	1
0.94767	0
0.95133	-0
0.95500	-0
0.95867	-0
0.96233	-1
0.96600	-1
0.96967	-1
0.97333	-1
0.97700	-1
0.98067	-2
0.98433	-2
0.98800	-2
0.99167	-2
0.99533	-2
0.99900	-2
1.00267	-1
1.00633	-1
1.01000	-2
1.01367	-2
1.01733	-2
1.02100	-2
1.02467	-2
1.02833	-2
1.03200	-2
1.03567	-2
1.03933	-2
1.04300	-2
1.04667	-2
1.05033	-2
1.05400	-2
1.05767	-2
1.06133	-2
1.06500	-3
1.06867	-3
1.07233	-3
1.07600	-3
1.07967	-3
1.08333	-3
1.08700	-3
1.09067	-3
1.09433	-3
1.09800	-3
1.10167	-3
1.10533	-3
1.10900	-3
1.11267	-3
1.11633	-3
1.12000	-4
1.12367	-4
1.12733	-4
1.13100	-4
1.13467	-4
1.13833	-4
1.14200	-4
1.14567	-5
1.14933	-5
1.15300	-6
1.15667	-6
1.16033	-7
1.16400	-7
1.16767	-8
1.17133	-8
1.17500	-8
1.17867	-8
1.18233	-8
1.18600	-8
1.18967	-8
1.19333	-8
1.19700	-7
1.20067	-7
1.20433	-6
1.20800	-6
1.21167	-5
1.21533	-5
1.21900	-5
1.22267	-4
1.22633	-4
1.23000	-4
1.23367	-4
1.23733	-4
1.24100	-4
1.24467	-4
1.24833	-4
1.25200	-4
1.25567	-4
1.25933	-4
1.26300	-4
1.26667	-4
1.27033	-4
1.27400	-4
1.27767	-4
1.28133	-4
1.28500	-5
1.28867	-5
1.29233	-5
1.29600	-5
1.29967	-4
1.30333	-4
1.30700	-4
1.31067	-3
1.31433	-3
1.31800	-3
1.32167	-3
1.32533	-3
1.32900	-3
1.33267	-3
1.33633	-3
1.34000	-3
1.34367	-3
1.34733	-3
1.35100	-3
1.35467	-3
1.35833	-3
1.36200	-3
1.36567	-4
1.36933	-4
1.37300	-5
1.37667	-5
1.38033	-5
1.38400	-6
1.38767	-6
1.39133	-7
1.39500	-7
1.39867	-7
1.40233	-7
1.40600	-6
1.40967	-6
1.41333	-6
1.41700	-6
1.42067	-6
1.42433	-6
1.42800	-6
1.43167	-6
1.43533	-6
1.43900	-6
1.44267	-7
1.44633	-7
1.45000	-7
1.45367	-8
1.45733	-8
1.46100	-7
1.46467	-7
1.46833	-7
1.47200	-6
1.47567	-6
1.47933	-6
1.48300	-5
1.48667	-5
1.49033	-5
1.49400	-5
1.49767	-5
1.50133	-5
1.50500	-5
1.50867	-4
1.51233	-4
1.51600	-4
1.51967	-4
1.52333	-3
1.52700	-4
1.53067	-4
1.53433	-4
1.53800	-4
1.54167	-4
1.54533	-4
1.54900	-5
1.55267	-5
1.55633	-5
1.56000	-5
1.56367	-5
1.56733	-5
1.57100	-5
1.57467	-5
1.57833	-5
1.58200	-5
1.58567	-5
1.58933	-6
1.59300	-6
1.59667	-7
1.60033	-8
1.60400	-9
1.60767	-10
1.61133	-12
1.61500	-14
1.61867	-16
1.62233	-18
1.62600	-21
1.62967	-24
1.63333	-27
1.63700	-31
1.64067	-35
1.64433	-38
1.64800	-42
1.65167	-45
1.65533	-49
1.65900	-53
1.66267	-58
1.66633	-62
1.67000	-67
1.67367	-72
1.67733	-77
1.68100	-82
1.68467	-87
1.68833	-92
1.69200	-95
1.69567	-99
1.69933	-102
1.70300	-104
1.70667	-106
1.71033	-107
1.71400	-108
1.71767	-109
1.72133	-109
1.72500	-110
1.72867	-110
1.73233	-109
1.73600	-109
1.73967	-109
1.74333	-109
1.74700	-109
1.75067	-110
1.75433	-111
1.75800	-112
1.76167	-114
1.76533	-114
1.76900	-115
1.77267	-115
1.77633	-116
1.78000	-116
1.78367	-115
1.78733	-115
1.79100	-114
1.79467	-113
1.79833	-113
1.80200	-113
1.80567	-113
1.80933	-114
1.81300	-115
1.81667	-116
1.82033	-116
1.82400	-116
1.82767	-116
1.83133	-116
1.83500	-116
1.83867	-116
1.84233	-116
1.84600	-116
1.84967	-117
1.85333	-117
1.85700	-117
1.86067	-117
1.86433	-117
1.86800	-117
1.87167	-117
1.87533	-117
1.87900	-117
1.88267	-117
1.88633	-117
1.89000	-117
1.89367	-117
1.89733	-117
1.90100	-117
1.90467	-117
1.90833	-117
1.91200	-117
1.91567	-117
1.91933	-118
1.92300	-118
1.92667	-118
1.93033	-118
1.93400	-118
1.93767	-117
1.94133	-116
1.94500	-116
1.94867	-115
1.95233	-114
1.95600	-114
1.95967	-114
1.96333	-113
1.96700	-113
1.97067	-112
1.97433	-112
1.97800	-111
1.98167	-111
1.98533	-110
1.98900	-110
1.99267	-110
1.99633	-111
2.00000	-111
2.00367	-111
2.00733	-111
2.01100	-111
2.01467	-110
2.01833	-110
2.02200	-110
2.02567	-109
2.02933	-108
2.03300	-108
2.03667	-108
2.04033	-107
2.04400	-107
2.04767	-107
2.05133	-106
2.05500	-106
2.05867	-105
2.06233	-104
2.06600	-104
2.06967	-103
2.07333	-102
2.07700	-102
2.08067	-102
2.08433	-101
2.08800	-101
2.09167	-101
2.09533	-102
2.09900	-102
2.10267	-102
2.10633	-102
2.11000	-102
2.11367	-102
2.11733	-102
2.12100	-101
2.12467	-101
2.12833	-100
2.13200	-100
2.13567	-99
2.13933	-99
2.14300	-99
2.14667	-98
2.15033	-98
2.15400	-98
2.15767	-98
2.16133	-98
2.16500	-99
2.16867	-98
2.17233	-98
2.17600	-98
2.17967	-97
2.18333	-96
2.18700	-95
2.19067	-95
2.19433	-94
2.19800	-94
2.20167	-94
2.20533	-94
2.20900	-94
2.21267	-94
2.21633	-94
2.22000	-94
2.22367	-93
2.22733	-93
2.23100	-92
2.23467	-91
2.23833	-91
2.24200	-90
2.24567	-89
2.24933	-88
2.25300	-88
2.25667	-87
2.26033	-87
2.26400	-87
2.26767	-87
2.27133	-86
2.27500	-86
2.27867	-86
2.28233	-86
2.28600	-86
2.28967	-87
2.29333	-87
2.29700	-87
2.30067	-86
2.30433	-86
2.30800	-85
2.31167	-84
2.31533	-83
2.31900	-83
2.32267	-83
2.32633	-83
2.33000	-83
2.33367	-83
2.33733	-83
2.34100	-83
2.34467	-83
2.34833	-82
2.35200	-80
2.35567	-79
2.35933	-77
2.36300	-76
2.36667	-74
2.37033	-72
2.37400	-70
2.37767	-67
2.38133	-63
2.38500	-59
2.38867	-55
2.39233	-51
2.39600	-46
2.39967	-41
2.40333	-37
2.40700	-32
2.41067	-28
2.41433	-25
2.41800	-22
2.42167	-20
2.42533	-18
2.42900	-17
2.43267	-15
2.43633	-14
2.44000	-13
2.44367	-13
2.44733	-12
2.45100	-12
2.45467	-12
2.45833	-12
2.46200	-11
2.46567	-10
2.46933	-9
2.47300	-8
2.47667	-7
2.48033	-5
2.48400	-4
2.48767	-3
2.49133	-2
2.49500	-1
2.49867	-0
2.50233	1
2.50600	1
2.50967	2
2.51333	3
2.51700	4
2.52067	5
2.52433	5
2.52800	6
2.53167	6
2.53533	7
2.53900	7
2.54267	7
2.54633	8
2.55000	9
2.55367	9
2.55733	10
2.56100	10
2.56467	11
2.56833	11
2.57200	12
2.57567	12
2.57933	12
2.58300	12
2.58667	12
2.59033	12
2.59400	12
2.59767	13
2.60133	13
2.60500	14
2.60867	14
2.61233	14
2.61600	14
2.61967	14
2.62333	14
2.62700	14
2.63067	15
2.63433	15
2.63800	15
2.64167	16
2.64533	16
2.64900	16
2.65267	16
2.65633	16
2.66000	15
2.66367	16
2.66733	16
2.67100	16
2.67467	16
2.67833	16
2.68200	16
2.68567	17
2.68933	17
2.69300	18
2.69667	18
2.70033	18
2.70400	18
2.70767	18
2.71133	18
2.71500	17
2.71867	17
2.72233	17
2.72600	16
2.72967	17
2.73333	17
2.73700	18
2.74067	18
2.74433	19
2.74800	19
2.75167	19
2.75533	20
2.75900	20
2.76267	20
2.76633	21
2.77000	21
2.77367	21
2.77733	21
2.78100	22
2.78467	22
2.78833	22
2.79200	22
2.79567	23
2.79933	23
2.80300	23
2.80667	23
2.81033	22
2.81400	22
2.81767	22
2.82133	22
2.82500	21
2.82867	21
2.83233	21
2.83600	21
2.83967	20
2.84333	18
2.84700	15
2.85067	10
2.85433	2
2.85800	-9
2.86167	-25
2.86533	-46
2.86900	-71
2.87267	-103
2.87633	-140
2.88000	-182
2.88367	-231
2.88733	-284
2.89100	-343
2.89467	-406
2.89833	-474
2.90200	-546
2.90567	-622
2.90933	-701
2.91300	-782
2.91667	-867
2.92033	-954
2.92400	-1043
2.92767	-1134
2.93133	-1227
2.93500	-1321
2.93867	-1414
2.94233	-1494
2.94600	-1549
2.94967	-1569
2.95333	-1551
2.95700	-1499
2.96067	-1421
2.96433	-1323
2.96800	-1215
2.97167	-1101
2.97533	-988
2.97900	-879
2.98267	-776
2.98633	-681
2.99000	-594
2.99367	-516
2.99733	-447
3.00100	-386
3.00467	-332
3.00833	-285
3.01200	-244
3.01567	-208
3.01933	-178
3.02300	-152
3.02667	-129
3.03033	-110
3.03400	-94
3.03767	-80
3.04133	-67
3.04500	-57
3.04867	-48
3.05233	-41
3.05600	-34
3.05967	-28
3.06333	-23
3.06700	-19
3.07067	-15
3.07433	-12
3.07800	-9
3.08167	-7
3.08533	-5
3.08900	-3
3.09267	-2
3.09633	-1
3.10000	0
3.10367	1
3.10733	2
3.11100	2
3.11467	3
3.11833	4
3.12200	5
3.12567	5
3.12933	6
3.13300	6
3.13667	7
3.14033	7
3.14400	8
3.14767	8
3.15133	9
3.15500	9
3.15867	10
3.16233	10
3.16600	11
3.16967	11
3.17333	11
3.17700	12
3.18067	12
3.18433	12
3.18800	13
3.19167	13
3.19533	13
3.19900	14
3.20267	14
3.20633	14
3.21000	14
3.21367	15
3.21733	15
3.22100	15
3.22467	16
3.22833	16
3.23200	16
3.23567	16
3.23933	16
3.24300	17
3.24667	17
3.25033	17
3.25400	17
3.25767	17
3.26133	16
3.26500	16
3.26867	16
3.27233	17
3.27600	17
3.27967	17
3.28333	17
3.28700	17
3.29067	18
3.29433	18
3.29800	19
3.30167	19
3.30533	20
3.30900	20
3.31267	21
3.31633	21
3.32000	21
3.32367	22
3.32733	22
3.33100	22
3.33467	22
3.33833	22
3.34200	22
3.34567	22
3.34933	22
3.35300	22
3.35667	22
3.36033	22
3.36400	22
3.36767	22
3.37133	22
3.37500	22
3.37867	21
3.38233	21
3.38600	21
3.38967	21
3.39333	21
3.39700	21
3.40067	21
3.40433	21
3.40800	21
3.41167	22
3.41533	22
3.41900	22
3.42267	22
3.42633	22
3.43000	22
3.43367	22
3.43733	23
3.44100	23
3.44467	23
3.44833	23
3.45200	23
3.45567	23
3.45933	23
3.46300	23
3.46667	23
3.47033	22
3.47400	22
3.47767	22
3.48133	22
3.48500	22
3.48867	22
3.49233	22
3.49600	22
3.49967	22
3.50333	22
3.50700	22
3.51067	22
3.51433	22
3.51800	22
3.52167	21
3.52533	21
3.52900	21
3.53267	21
3.53633	21
3.54000	21
3.54367	21
3.54733	21
3.55100	20
3.55467	20
3.55833	20
3.56200	20
3.56567	20
3.56933	20
3.57300	21
3.57667	21
3.58033	21
3.58400	21
3.58767	21
3.59133	21
3.59500	21
3.59867	21
3.60233	21
3.60600	21
3.60967	21
3.61333	21
3.61700	22
3.62067	22
3.62433	22
3.62800	22
3.63167	22
3.63533	22
3.63900	22
3.64267	22
3.64633	21
3.65000	21
3.65367	21
3.65733	20
3.66100	20
3.66467	20
3.66833	20
3.67200	21
3.67567	21
3.67933	21
3.68300	21
3.68667	22
3.69033	22
3.69400	23
3.69767	23
3.70133	23
3.70500	23
3.70867	23
3.71233	23
3.71600	23
3.71967	23
3.72333	23
3.72700	23
3.73067	23
3.73433	23
3.73800	23
3.74167	23
3.74533	23
3.74900	22
3.75267	22
3.75633	22
3.76000	22
3.76367	22
3.76733	22
3.77100	22
3.77467	22
3.77833	22
3.78200	22
3.78567	22
3.78933	22
3.79300	22
3.79667	21
3.80033	21
3.80400	21
3.80767	21
3.81133	21
3.81500	21
3.81867	21
3.82233	21
3.82600	21
3.82967	22
3.83333	22
3.83700	22
3.84067	22
3.84433	22
3.84800	22
3.85167	21
3.85533	21
3.85900	21
3.86267	21
3.86633	21
3.87000	21
3.87367	21
3.87733	21
3.88100	21
3.88467	22
3.88833	22
3.89200	22
3.89567	22
3.89933	22
3.90300	21
3.90667	21
3.91033	21
3.91400	21
3.91767	21
3.92133	21
3.92500	21
3.92867	21
3.93233	21
3.93600	21
3.93967	22
3.94333	22
3.94700	22
3.95067	22
3.95433	22
3.95800	22
3.96167	23
3.96533	23
3.96900	23
3.97267	23
3.97633	23
3.98000	23
3.98367	23
3.98733	23
3.99100	22
3.99467	22
3.99833	22

[Chromatogram (Ch3)]
Interval(msec)	220
# of Points	1091
Start Time(min)	0.002
End Time(min)	3.998
R.Time (min)	Intensity
0.00167	0
0.00533	3
0.00900	6
0.01267	5
0.01633	5
0.02000	5
0.02367	3
0.02733	3
0.03100	5
0.03467	7
0.03833	7
0.04200	7
0.04567	5
0.04933	3
0.05300	-0
0.05667	-1
0.06033	-1
0.06400	-1
0.06767	-2
0.07133	-0
0.07500	-1
0.07867	-2
0.08233	-3
0.08600	-3
0.08967	-0
0.09333	2
0.09700	2
0.10067	2
0.10433	2
0.10800	1
0.11167	0
0.11533	-0
0.11900	0
0.12267	1
0.12633	-0
0.13000	-1
0.13367	-2
0.13733	-3
0.14100	-2
0.14467	-3
0.14833	-3
0.15200	-3
0.15567	-3
0.15933	-2
0.16300	-2
0.16667	-1
0.17033	-0
0.17400	-1
0.17767	-1
0.18133	0
0.18500	1
0.18867	-1
0.19233	-4
0.19600	-3
0.19967	-2
0.20333	-1
0.20700	-1
0.21067	1
0.21433	2
0.21800	2
0.22167	2
0.22533	2
0.22900	0
0.23267	1
0.23633	2
0.24000	0
0.24367	-1
0.24733	-3
0.25100	-3
0.25467	-2
0.25833	-3
0.26200	-4
0.26567	-2
0.26933	-1
0.27300	1
0.27667	2
0.28033	2
0.28400	2
0.28767	1
0.29133	-1
0.29500	-1
0.29867	-1
0.30233	-1
0.30600	-2
0.30967	-3
0.31333	-5
0.31700	-8
0.32067	-9
0.32433	-10
0.32800	-9
0.33167	-6
0.33533	-2
0.33900	1
0.34267	3
0.34633	3
0.35000	2
0.35367	-1
0.35733	-4
0.36100	-1
0.36467	1
0.36833	2
0.37200	1
0.37567	-1
0.37933	-2
0.38300	-4
0.38667	-4
0.39033	-3
0.39400	-2
0.39767	1
0.40133	2
0.40500	2
0.40867	2
0.41233	3
0.41600	6
0.41967	6
0.42333	4
0.42700	3
0.43067	2
0.43433	2
0.43800	1
0.44167	-1
0.44533	-4
0.44900	-5
0.45267	-8
0.45633	-7
0.46000	-5
0.46367	-3
0.46733	-1
0.47100	1
0.47467	2
0.47833	0
0.48200	-1
0.48567	-3
0.48933	-5
0.49300	-5
0.49667	-5
0.50033	-6
0.50400	-6
0.50767	-5
0.51133	-4
0.51500	-3
0.51867	-1
0.52233	-2
0.52600	-3
0.52967	-4
0.53333	-4
0.53700	-3
0.54067	-5
0.54433	-6
0.54800	-7
0.55167	-6
0.55533	-3
0.55900	-1
0.56267	-1
0.56633	-2
0.57000	-4
0.57367	-5
0.57733	-6
0.58100	-7
0.58467	-7
0.58833	-8
0.59200	-7
0.59567	-6
0.59933	-5
0.60300	-3
0.60667	-2
0.61033	0
0.61400	2
0.61767	1
0.62133	0
0.62500	-1
0.62867	-1
0.63233	-1
0.63600	-0
0.63967	0
0.64333	0
0.64700	0
0.65067	0
0.65433	-1
0.65800	0
0.66167	1
0.66533	-1
0.66900	-1
0.67267	2
0.67633	2
0.68000	1
0.68367	-0
0.68733	-2
0.69100	-3
0.69467	-5
0.69833	-6
0.70200	-4
0.70567	1
0.70933	4
0.71300	3
0.71667	3
0.72033	2
0.72400	1
0.72767	1
0.73133	0
0.73500	-1
0.73867	-0
0.74233	0
0.74600	2
0.74967	4
0.75333	4
0.75700	3
0.76067	4
0.76433	3
0.76800	1
0.77167	1
0.77533	1
0.77900	-1
0.78267	-2
0.78633	-3
0.79000	-4
0.79367	-4
0.79733	-3
0.80100	-1
0.80467	1
0.80833	0
0.81200	-2
0.81567	-3
0.81933	-1
0.82300	0
0.82667	1
0.83033	2
0.83400	3
0.83767	4
0.84133	4
0.84500	2
0.84867	3
0.85233	4
0.85600	4
0.85967	3
0.86333	2
0.86700	-0
0.87067	-1
0.87433	2
0.87800	2
0.88167	1
0.88533	-0
0.88900	-2
0.89267	-2
0.89633	-3
0.90000	-2
0.90367	1
0.90733	3
0.91100	4
0.91467	4
0.91833	4
0.92200	5
0.92567	5
0.92933	4
0.93300	2
0.93667	2
0.94033	2
0.94400	3
0.94767	2
0.95133	3
0.95500	2
0.95867	1
0.96233	1
0.96600	1
0.96967	2
0.97333	1
0.97700	2
0.98067	4
0.98433	9
0.98800	11
0.99167	10
0.99533	9
0.99900	10
1.00267	10
1.00633	10
1.01000	8
1.01367	5
1.01733	2
1.02100	1
1.02467	3
1.02833	4
1.03200	4
1.03567	5
1.03933	6
1.04300	8
1.04667	8
1.05033	6
1.05400	4
1.05767	4
1.06133	5
1.06500	7
1.06867	9
1.07233	8
1.07600	5
1.07967	4
1.08333	5
1.08700	4
1.09067	4
1.09433	5
1.09800	4
1.10167	4
1.10533	3
1.10900	2
1.11267	0
1.11633	-1
1.12000	-0
1.12367	0
1.12733	2
1.13100	4
1.13467	5
1.13833	6
1.14200	6
1.14567	4
1.14933	2
1.15300	4
1.15667	7
1.16033	9
1.16400	7
1.16767	6
1.17133	6
1.17500	6
1.17867	6
1.18233	6
1.18600	7
1.18967	8
1.19333	5
1.19700	5
1.20067	5
1.20433	4
1.20800	4
1.21167	4
1.21533	5
1.21900	7
1.22267	8
1.22633	9
1.23000	10
1.23367	11
1.23733	11
1.24100	10
1.24467	9
1.24833	8
1.25200	8
1.25567	9
1.25933	10
1.26300	9
1.26667	9
1.27033	7
1.27400	6
1.27767	5
1.28133	5
1.28500	7
1.28867	10
1.29233	12
1.29600	11
1.29967	9
1.30333	8
1.30700	7
1.31067	7
1.31433	6
1.31800	5
1.32167	4
1.32533	4
1.32900	5
1.33267	6
1.33633	5
1.34000	8
1.34367	11
1.34733	11
1.35100	11
1.35467	10
1.35833	11
1.36200	12
1.36567	10
1.36933	8
1.37300	6
1.37667	5
1.38033	3
1.38400	0
1.38767	0
1.39133	1
1.39500	1
1.39867	4
1.40233	5
1.40600	7
1.40967	8
1.41333	9
1.41700	10
1.42067	10
1.42433	12
1.42800	11
1.43167	8
1.43533	6
1.43900	6
1.44267	7
1.44633	6
1.45000	6
1.45367	6
1.45733	6
1.46100	7
1.46467	7
1.46833	6
1.47200	5
1.47567	3
1.47933	3
1.48300	3
1.48667	5
1.49033	10
1.49400	12
1.49767	13
1.50133	12
1.50500	12
1.50867	11
1.51233	8
1.51600	10
1.51967	10
1.52333	9
1.52700	8
1.53067	8
1.53433	8
1.53800	8
1.54167	9
1.54533	9
1.54900	9
1.55267	8
1.55633	7
1.56000	5
1.56367	3
1.56733	2
1.57100	4
1.57467	6
1.57833	7
1.58200	10
1.58567	10
1.58933	9
1.59300	7
1.59667	5
1.60033	2
1.60400	3
1.60767	4
1.61133	5
1.61500	6
1.61867	6
1.62233	5
1.62600	4
1.62967	3
1.63333	4
1.63700	7
1.64067	9
1.64433	10
1.64800	11
1.65167	12
1.65533	12
1.65900	13
1.66267	13
1.66633	13
1.67000	14
1.67367	14
1.67733	13
1.68100	13
1.68467	13
1.68833	14
1.69200	16
1.69567	17
1.69933	18
1.70300	17
1.70667	18
1.71033	18
1.71400	18
1.71767	19
1.72133	20
1.72500	20
1.72867	22
1.73233	24
1.73600	26
1.73967	25
1.74333	24
1.74700	23
1.75067	21
1.75433	18
1.75800	17
1.76167	19
1.76533	21
1.76900	21
1.77267	22
1.77633	23
1.78000	24
1.78367	27
1.78733	30
1.79100	32
1.79467	32
1.79833	29
1.80200	28
1.80567	29
1.80933	31
1.81300	35
1.81667	37
1.82033	35
1.82400	35
1.82767	33
1.83133	34
1.83500	36
1.83867	36
1.84233	38
1.84600	38
1.84967	39
1.85333	40
1.85700	40
1.86067	42
1.86433	42
1.86800	41
1.87167	41
1.87533	43
1.87900	45
1.88267	46
1.88633	46
1.89000	47
1.89367	46
1.89733	46
1.90100	45
1.90467	44
1.90833	45
1.91200	47
1.91567	47
1.91933	49
1.92300	52
1.92667	54
1.93033	58
1.93400	60
1.93767	57
1.94133	55
1.94500	56
1.94867	58
1.95233	60
1.95600	62
1.95967	63
1.96333	65
1.96700	66
1.97067	68
1.97433	69
1.97800	70
1.98167	69
1.98533	69
1.98900	69
1.99267	69
1.99633	72
2.00000	74
2.00367	76
2.00733	76
2.01100	76
2.01467	77
2.01833	80
2.02200	82
2.02567	83
2.02933	84
2.03300	85
2.03667	87
2.04033	89
2.04400	88
2.04767	87
2.05133	87
2.05500	89
2.05867	90
2.06233	89
2.06600	88
2.06967	89
2.07333	92
2.07700	93
2.08067	94
2.08433	95
2.08800	98
2.09167	102
2.09533	104
2.09900	104
2.10267	104
2.10633	104
2.11000	105
2.11367	106
2.11733	106
2.12100	106
2.12467	107
2.12833	108
2.13200	109
2.13567	110
2.13933	114
2.14300	116
2.14667	119
2.15033	119
2.15400	119
2.15767	121
2.16133	122
2.16500	122
2.16867	122
2.17233	124
2.17600	124
2.17967	124
2.18333	122
2.18700	120
2.19067	121
2.19433	123
2.19800	125
2.20167	128
2.20533	131
2.20900	133
2.21267	135
2.21633	137
2.22000	138
2.22367	139
2.22733	140
2.23100	141
2.23467	143
2.23833	144
2.24200	144
2.24567	146
2.24933	147
2.25300	145
2.25667	145
2.26033	146
2.26400	148
2.26767	150
2.27133	153
2.27500	156
2.27867	159
2.28233	159
2.28600	158
2.28967	159
2.29333	159
2.29700	160
2.30067	159
2.30433	160
2.30800	162
2.31167	163
2.31533	163
2.31900	162
2.32267	165
2.32633	167
2.33000	170
2.33367	172
2.33733	173
2.34100	173
2.34467	175
2.34833	175
2.35200	174
2.35567	173
2.35933	174
2.36300	175
2.36667	178
2.37033	179
2.37400	179
2.37767	180
2.38133	181
2.38500	180
2.38867	178
2.39233	176
2.39600	176
2.39967	179
2.40333	182
2.40700	183
2.41067	183
2.41433	183
2.41800	184
2.42167	186
2.42533	190
2.42900	191
2.43267	191
2.43633	189
2.44000	191
2.44367	226
2.44733	324
2.45100	435
2.45467	528
2.45833	575
2.46200	578
2.46567	562
2.46933	549
2.47300	539
2.47667	526
2.48033	503
2.48400	472
2.48767	435
2.49133	402
2.49500	375
2.49867	356
2.50233	343
2.50600	336
2.50967	336
2.51333	343
2.51700	355
2.52067	365
2.52433	371
2.52800	368
2.53167	356
2.53533	338
2.53900	317
2.54267	295
2.54633	275
2.55000	259
2.55367	245
2.55733	233
2.56100	225
2.56467	220
2.56833	216
2.57200	214
2.57567	213
2.57933	213
2.58300	217
2.58667	220
2.59033	223
2.59400	226
2.59767	229
2.60133	233
2.60500	236
2.60867	234
2.61233	228
2.61600	218
2.61967	206
2.62333	193
2.62700	178
2.63067	164
2.63433	151
2.63800	139
2.64167	128
2.64533	118
2.64900	108
2.65267	97
2.65633	87
2.66000	81
2.66367	76
2.66733	74
2.67100	71
2.67467	70
2.67833	70
2.68200	71
2.68567	75
2.68933	81
2.69300	86
2.69667	90
2.70033	93
2.70400	96
2.70767	101
2.71133	105
2.71500	109
2.71867	115
2.72233	118
2.72600	121
2.72967	121
2.73333	123
2.73700	127
2.74067	129
2.74433	132
2.74800	135
2.75167	137
2.75533	141
2.75900	143
2.76267	142
2.76633	141
2.77000	141
2.77367	141
2.77733	142
2.78100	145
2.78467	149
2.78833	153
2.79200	158
2.79567	160
2.79933	161
2.80300	162
2.80667	166
2.81033	172
2.81400	176
2.81767	186
2.82133	206
2.82500	249
2.82867	341
2.83233	528
2.83600	873
2.83967	1445
2.84333	2295
2.84700	3449
2.85067	4894
2.85433	6569
2.85800	8368
2.86167	10159
2.86533	11805
2.86900	13178
2.87267	14182
2.87633	14768
2.88000	14929
2.88367	14701
2.88733	14157
2.89100	13378
2.89467	12444
2.89833	11425
2.90200	10378
2.90567	9348
2.90933	8363
2.91300	7442
2.91667	6595
2.92033	5824
2.92400	5128
2.92767	4504
2.93133	3950
2.93500	3460
2.93867	3028
2.94233	2649
2.94600	2318
2.94967	2030
2.95333	1778
2.95700	1554
2.96067	1360
2.96433	1196
2.96800	1054
2.97167	931
2.97533	822
2.97900	727
2.98267	644
2.98633	573
2.99000	513
2.99367	461
2.99733	416
3.00100	378
3.00467	349
3.00833	323
3.01200	299
3.01567	276
3.01933	257
3.02300	243
3.02667	232
3.03033	224
3.03400	215
3.03767	203
3.04133	194
3.04500	186
3.04867	179
3.05233	173
3.05600	167
3.05967	166
3.06333	167
3.06700	166
3.07067	162
3.07433	160
3.07800	160
3.08167	161
3.08533	161
3.08900	160
3.09267	158
3.09633	157
3.10000	156
3.10367	154
3.10733	153
3.11100	153
3.11467	151
3.11833	150
3.12200	152
3.12567	152
3.12933	150
3.13300	149
3.13667	151
3.14033	154
3.14400	155
3.14767	156
3.15133	157
3.15500	157
3.15867	157
3.16233	156
3.16600	158
3.16967	159
3.17333	159
3.17700	156
3.18067	155
3.18433	158
3.18800	159
3.19167	161
3.19533	164
3.19900	166
3.20267	165
3.20633	163
3.21000	162
3.21367	161
3.21733	160
3.22100	162
3.22467	163
3.22833	164
3.23200	166
3.23567	171
3.23933	174
3.24300	176
3.24667	176
3.25033	177
3.25400	178
3.25767	180
3.26133	185
3.26500	185
3.26867	184
3.27233	187
3.27600	190
3.27967	191
3.28333	191
3.28700	192
3.29067	191
3.29433	194
3.29800	198
3.30167	200
3.30533	199
3.30900	200
3.31267	202
3.31633	203
3.32000	203
3.32367	205
3.32733	209
3.33100	210
3.33467	209
3.33833	209
3.34200	208
3.34567	209
3.34933	211
3.35300	212
3.35667	212
3.36033	213
3.36400	215
3.36767	218
3.37133	220
3.37500	221
3.37867	222
3.38233	224
3.38600	227
3.38967	227
3.39333	228
3.39700	229
3.40067	229
3.40433	229
3.40800	229
3.41167	231
3.41533	231
3.41900	232
3.42267	234
3.42633	234
3.43000	232
3.43367	233
3.43733	234
3.44100	235
3.44467	238
3.44833	238
3.45200	239
3.45567	240
3.45933	242
3.46300	244
3.46667	244
3.47033	243
3.47400	241
3.47767	238
3.48133	235
3.48500	235
3.48867	237
3.49233	239
3.49600	244
3.49967	245
3.50333	242
3.50700	245
3.51067	248
3.51433	246
3.51800	243
3.52167	240
3.52533	239
3.52900	238
3.53267	238
3.53633	239
3.54000	239
3.54367	240
3.54733	242
3.55100	244
3.55467	243
3.55833	241
3.56200	243
3.56567	245
3.56933	246
3.57300	245
3.57667	244
3.58033	240
3.58400	239
3.58767	240
3.59133	241
3.59500	240
3.59867	239
3.60233	238
3.60600	239
3.60967	241
3.61333	241
3.61700	241
3.62067	240
3.62433	240
3.62800	243
3.63167	242
3.63533	241
3.63900	240
3.64267	239
3.64633	238
3.65000	236
3.65367	235
3.65733	235
3.66100	237
3.66467	238
3.66833	239
3.67200	240
3.67567	240
3.67933	241
3.68300	241
3.68667	241
3.69033	241
3.69400	241
3.69767	240
3.70133	239
3.70500	239
3.70867	241
3.71233	243
3.71600	245
3.71967	246
3.72333	246
3.72700	244
3.73067	239
3.73433	236
3.73800	236
3.74167	236
3.74533	237
3.74900	237
3.75267	239
3.75633	240
3.76000	241
3.76367	241
3.76733	240
3.77100	238
3.77467	236
3.77833	236
3.78200	238
3.78567	236
3.78933	232
3.79300	231
3.79667	231
3.80033	235
3.80400	242
3.80767	251
3.81133	265
3.81500	281
3.81867	299
3.82233	315
3.82600	331
3.82967	345
3.83333	359
3.83700	372
3.84067	384
3.84433	398
3.84800	410
3.85167	423
3.85533	436
3.85900	453
3.86267	468
3.86633	480
3.87000	492
3.87367	503
3.87733	516
3.88100	527
3.88467	536
3.88833	545
3.89200	551
3.89567	557
3.89933	561
3.90300	563
3.90667	566
3.91033	569
3.91400	574
3.91767	577
3.92133	578
3.92500	578
3.92867	580
3.93233	584
3.93600	587
3.93967	588
3.94333	588
3.94700	588
3.95067	590
3.95433	589
3.95800	590
3.96167	591
3.96533	590
3.96900	589
3.97267	590
3.97633	588
3.98000	587
3.98367	589
3.98733	591
3.99100	591
3.99467	589
3.99833	583

[Status Trace (Column Oven Temperature)]
Interval(msec)	1000
# of Points	240
Start Time(min)	0.008
End Time(min)	3.991
Intensity Units	
Intensity Multiplier	1
R.Time (min)	Intensity
0.00797	35.02
0.02463	35.02
0.04130	35.03
0.05797	35.04
0.07463	35.03
0.09130	35.03
0.10797	35.03
0.12463	35.03
0.14130	35.04
0.15797	35.05
0.17463	35.05
0.19130	35.05
0.20797	35.05
0.22463	35.05
0.24130	35.05
0.25797	35.05
0.27463	35.04
0.29130	35.04
0.30797	35.03
0.32463	35.01
0.34130	34.99
0.35797	34.99
0.37463	34.99
0.39130	35.01
0.40797	35.02
0.42463	35.02
0.44130	35.01
0.45797	35.02
0.47463	35.03
0.49130	35.04
0.50797	35.04
0.52463	35.04
0.54130	35.03
0.55797	35.03
0.57463	35.01
0.59130	35.01
0.60797	35.00
0.62463	35.01
0.64130	35.02
0.65797	35.03
0.67463	35.02
0.69130	35.02
0.70797	35.01
0.72463	35.02
0.74130	35.02
0.75797	35.02
0.77463	35.02
0.79130	35.02
0.80797	35.02
0.82463	35.02
0.84130	35.02
0.85797	35.02
0.87463	35.03
0.89130	35.02
0.90797	35.02
0.92463	35.00
0.94130	34.99
0.95797	34.97
0.97463	34.97
0.99130	34.97
1.00797	34.96
1.02463	34.96
1.04130	34.96
1.05797	34.97
1.07463	34.96
1.09130	34.96
1.10797	34.97
1.12463	34.97
1.14130	34.97
1.15797	35.00
1.17463	35.01
1.19130	35.01
1.20797	35.00
1.22463	34.99
1.24130	35.00
1.25797	35.00
1.27463	34.99
1.29130	34.99
1.30797	34.99
1.32463	34.98
1.34130	34.97
1.35797	34.97
1.37463	34.98
1.39130	34.99
1.40797	35.00
1.42463	35.00
1.44130	35.01
1.45797	35.02
1.47463	35.01
1.49130	35.00
1.50797	35.00
1.52463	35.00
1.54130	34.98
1.55797	34.99
1.57463	34.98
1.59130	34.99
1.60797	35.04
1.62463	35.17
1.64130	35.36
1.65797	35.61
1.67463	35.97
1.69130	36.34
1.70797	36.69
1.72463	37.02
1.74130	37.34
1.75797	37.70
1.77463	38.02
1.79130	38.32
1.80797	38.68
1.82463	39.00
1.84130	39.33
1.85797	39.67
1.87463	39.98
1.89130	40.31
1.90797	40.65
1.92463	40.99
1.94130	41.32
1.95797	41.66
1.97463	41.97
1.99130	42.31
2.00797	42.63
2.02463	42.95
2.04130	43.27
2.05797	43.60
2.07463	43.91
2.09130	44.25
2.10797	44.58
2.12463	44.90
2.14130	45.22
2.15797	45.57
2.17463	45.88
2.19130	46.21
2.20797	46.54
2.22463	46.88
2.24130	47.20
2.25797	47.52
2.27463	47.84
2.29130	48.20
2.30797	48.49
2.32463	48.84
2.34130	49.17
2.35797	49.45
2.37463	49.61
2.39130	49.65
2.40797	49.64
2.42463	49.65
2.44130	49.68
2.45797	49.70
2.47463	49.70
2.49130	49.72
2.50797	49.73
2.52463	49.75
2.54130	49.76
2.55797	49.78
2.57463	49.79
2.59130	49.80
2.60797	49.82
2.62463	49.83
2.64130	49.83
2.65797	49.85
2.67463	49.85
2.69130	49.85
2.70797	49.86
2.72463	49.88
2.74130	49.87
2.75797	49.87
2.77463	49.87
2.79130	49.87
2.80797	49.87
2.82463	49.88
2.84130	49.89
2.85797	49.91
2.87463	49.93
2.89130	49.95
2.90797	49.96
2.92463	49.97
2.94130	49.97
2.95797	49.98
2.97463	49.98
2.99130	49.99
3.00797	50.01
3.02463	50.01
3.04130	50.03
3.05797	50.03
3.07463	50.03
3.09130	50.06
3.10797	50.06
3.12463	50.07
3.14130	50.08
3.15797	50.08
3.17463	50.09
3.19130	50.08
3.20797	50.08
3.22463	50.09
3.24130	50.09
3.25797	50.10
3.27463	50.11
3.29130	50.11
3.30797	50.09
3.32463	50.08
3.34130	50.07
3.35797	50.07
3.37463	50.06
3.39130	50.06
3.40797	50.06
3.42463	50.05
3.44130	50.04
3.45797	50.04
3.47463	50.04
3.49130	50.04
3.50797	50.04
3.52463	50.03
3.54130	50.04
3.55797	50.05
3.57463	50.05
3.59130	50.05
3.60797	50.06
3.62463	50.05
3.64130	50.06
3.65797	50.07
3.67463	50.07
3.69130	50.07
3.70797	50.06
3.72463	50.06
3.74130	50.06
3.75797	50.07
3.77463	50.07
3.79130	50.08
3.80797	50.08
3.82463	50.08
3.84130	50.08
3.85797	50.08
3.87463	50.07
3.89130	50.07
3.90797	50.07
3.92463	50.07
3.94130	50.08
3.95797	50.07
3.97463	50.06
3.99130	50.06

[Status Trace (Injection Unit Temperature)]
Interval(msec)	1000
# of Points	240
Start Time(min)	0.008
End Time(min)	3.991
Intensity Units	
Intensity Multiplier	1
R.Time (min)	Intensity
0.00797	99.97
0.02463	99.97
0.04130	99.97
0.05797	99.98
0.07463	99.97
0.09130	99.98
0.10797	99.98
0.12463	99.97
0.14130	99.97
0.15797	99.97
0.17463	99.98
0.19130	99.97
0.20797	99.98
0.22463	99.97
0.24130	99.98
0.25797	99.97
0.27463	99.98
0.29130	99.97
0.30797	99.98
0.32463	99.98
0.34130	99.98
0.35797	99.98
0.37463	99.98
0.39130	99.98
0.40797	99.98
0.42463	99.98
0.44130	99.98
0.45797	99.98
0.47463	99.98
0.49130	99.98
0.50797	99.98
0.52463	99.98
0.54130	99.98
0.55797	99.97
0.57463	99.98
0.59130	99.98
0.60797	99.98
0.62463	99.98
0.64130	99.98
0.65797	99.98
0.67463	99.98
0.69130	99.97
0.70797	99.98
0.72463	99.98
0.74130	99.98
0.75797	99.98
0.77463	99.98
0.79130	99.98
0.80797	99.98
0.82463	99.98
0.84130	99.97
0.85797	99.98
0.87463	99.98
0.89130	99.98
0.90797	99.98
0.92463	99.98
0.94130	99.98
0.95797	99.98
0.97463	99.98
0.99130	99.98
1.00797	99.98
1.02463	99.98
1.04130	99.98
1.05797	99.98
1.07463	99.98
1.09130	99.98
1.10797	99.98
1.12463	99.98
1.14130	99.98
1.15797	99.98
1.17463	99.98
1.19130	99.98
1.20797	99.98
1.22463	99.98
1.24130	99.98
1.25797	99.98
1.27463	99.98
1.29130	99.98
1.30797	99.97
1.32463	99.98
1.34130	99.98
1.35797	99.98
1.37463	99.98
1.39130	99.98
1.40797	99.98
1.42463	99.98
1.44130	99.98
1.45797	99.98
1.47463	99.98
1.49130	99.98
1.50797	99.98
1.52463	99.98
1.54130	99.98
1.55797	99.98
1.57463	99.98
1.59130	99.98
1.60797	99.98
1.62463	99.98
1.64130	99.98
1.65797	99.98
1.67463	99.98
1.69130	99.98
1.70797	99.98
1.72463	99.99
1.74130	99.99
1.75797	99.99
1.77463	99.99
1.79130	99.99
1.80797	99.99
1.82463	99.99
1.84130	99.98
1.85797	99.99
1.87463	99.99
1.89130	99.99
1.90797	99.99
1.92463	99.98
1.94130	99.98
1.95797	99.99
1.97463	99.98
1.99130	99.98
2.00797	99.98
2.02463	99.98
2.04130	99.98
2.05797	99.98
2.07463	99.98
2.09130	99.97
2.10797	99.98
2.12463	99.97
2.14130	99.97
2.15797	99.97
2.17463	99.97
2.19130	99.96
2.20797	99.97
2.22463	99.97
2.24130	99.97
2.25797	99.97
2.27463	99.96
2.29130	99.97
2.30797	99.96
2.32463	99.97
2.34130	99.97
2.35797	99.97
2.37463	99.96
2.39130	99.96
2.40797	99.97
2.42463	99.96
2.44130	99.96
2.45797	99.97
2.47463	99.97
2.49130	99.96
2.50797	99.97
2.52463	99.96
2.54130	99.96
2.55797	99.96
2.57463	99.97
2.59130	99.96
2.60797	99.97
2.62463	99.97
2.64130	99.97
2.65797	99.97
2.67463	99.97
2.69130	99.98
2.70797	99.98
2.72463	99.98
2.74130	99.98
2.75797	99.98
2.77463	99.99
2.79130	99.99
2.80797	99.99
2.82463	99.99
2.84130	99.98
2.85797	99.99
2.87463	99.99
2.89130	99.99
2.90797	99.99
2.92463	99.99
2.94130	99.99
2.95797	100.00
2.97463	100.00
2.99130	100.00
3.00797	100.00
3.02463	100.00
3.04130	100.01
3.05797	100.01
3.07463	100.01
3.09130	100.01
3.10797	100.01
3.12463	100.01
3.14130	100.01
3.15797	100.01
3.17463	100.01
3.19130	100.01
3.20797	100.02
3.22463	100.02
3.24130	100.02
3.25797	100.02
3.27463	100.02
3.29130	100.02
3.30797	100.02
3.32463	100.02
3.34130	100.02
3.35797	100.03
3.37463	100.02
3.39130	100.02
3.40797	100.03
3.42463	100.03
3.44130	100.03
3.45797	100.03
3.47463	100.03
3.49130	100.03
3.50797	100.04
3.52463	100.04
3.54130	100.04
3.55797	100.04
3.57463	100.04
3.59130	100.04
3.60797	100.04
3.62463	100.04
3.64130	100.04
3.65797	100.04
3.67463	100.04
3.69130	100.04
3.70797	100.05
3.72463	100.05
3.74130	100.05
3.75797	100.05
3.77463	100.05
3.79130	100.05
3.80797	100.05
3.82463	100.05
3.84130	100.03
3.85797	100.05
3.87463	100.04
3.89130	100.05
3.90797	100.05
3.92463	100.05
3.94130	100.05
3.95797	100.05
3.97463	100.05
3.99130	100.04

[Status Trace (Carrier Gas Pressure)]
Interval(msec)	1000
# of Points	240
Start Time(min)	0.008
End Time(min)	3.991
Intensity Units	
Intensity Multiplier	1
R.Time (min)	Intensity
0.00797	58.00
0.02463	55.38
0.04130	57.18
0.05797	59.25
0.07463	59.36
0.09130	58.05
0.10797	57.99
0.12463	58.01
0.14130	58.01
0.15797	58.00
0.17463	58.00
0.19130	58.00
0.20797	58.00
0.22463	58.00
0.24130	58.00
0.25797	58.00
0.27463	58.00
0.29130	58.00
0.30797	58.00
0.32463	58.00
0.34130	58.00
0.35797	58.00
0.37463	58.00
0.39130	58.00
0.40797	58.00
0.42463	58.00
0.44130	58.00
0.45797	58.00
0.47463	58.00
0.49130	58.00
0.50797	58.00
0.52463	58.00
0.54130	58.00
0.55797	58.00
0.57463	58.00
0.59130	58.00
0.60797	58.00
0.62463	58.00
0.64130	58.00
0.65797	58.00
0.67463	58.00
0.69130	58.00
0.70797	58.00
0.72463	58.00
0.74130	58.00
0.75797	58.00
0.77463	58.00
0.79130	58.00
0.80797	58.00
0.82463	58.00
0.84130	58.00
0.85797	58.00
0.87463	58.00
0.89130	58.00
0.90797	58.00
0.92463	58.00
0.94130	58.00
0.95797	58.00
0.97463	58.00
0.99130	58.00
1.00797	58.00
1.02463	58.00
1.04130	58.00
1.05797	58.00
1.07463	58.00
1.09130	58.00
1.10797	58.00
1.12463	58.00
1.14130	58.00
1.15797	58.00
1.17463	58.00
1.19130	58.00
1.20797	58.00
1.22463	58.00
1.24130	58.00
1.25797	58.00
1.27463	58.00
1.29130	58.00
1.30797	58.00
1.32463	58.00
1.34130	58.00
1.35797	58.00
1.37463	58.00
1.39130	58.00
1.40797	58.00
1.42463	58.00
1.44130	58.00
1.45797	58.00
1.47463	58.00
1.49130	58.00
1.50797	58.00
1.52463	58.00
1.54130	58.00
1.55797	58.00
1.57463	58.00
1.59130	58.00
1.60797	58.00
1.62463	58.00
1.64130	58.01
1.65797	58.00
1.67463	58.01
1.69130	58.00
1.70797	58.00
1.72463	58.00
1.74130	58.00
1.75797	58.00
1.77463	58.00
1.79130	58.00
1.80797	58.00
1.82463	58.00
1.84130	58.00
1.85797	58.00
1.87463	58.00
1.89130	58.00
1.90797	58.00
1.92463	58.00
1.94130	58.00
1.95797	58.00
1.97463	58.00
1.99130	58.00
2.00797	58.00
2.02463	58.00
2.04130	58.00
2.05797	58.00
2.07463	58.00
2.09130	58.00
2.10797	58.00
2.12463	58.00
2.14130	58.00
2.15797	58.00
2.17463	58.00
2.19130	58.00
2.20797	58.00
2.22463	58.00
2.24130	58.00
2.25797	58.00
2.27463	58.00
2.29130	58.00
2.30797	58.00
2.32463	58.00
2.34130	58.00
2.35797	58.00
2.37463	58.00
2.39130	57.99
2.40797	57.99
2.42463	58.00
2.44130	58.00
2.45797	58.00
2.47463	58.00
2.49130	58.00
2.50797	57.99
2.52463	57.98
2.54130	58.00
2.55797	58.00
2.57463	58.00
2.59130	58.00
2.60797	58.00
2.62463	58.00
2.64130	58.00
2.65797	58.00
2.67463	58.00
2.69130	58.00
2.70797	58.00
2.72463	58.00
2.74130	58.00
2.75797	58.00
2.77463	58.00
2.79130	58.00
2.80797	58.00
2.82463	58.00
2.84130	58.00
2.85797	58.00
2.87463	58.00
2.89130	58.00
2.90797	58.00
2.92463	58.00
2.94130	58.00
2.95797	58.00
2.97463	58.00
2.99130	58.00
3.00797	58.00
3.02463	58.00
3.04130	58.00
3.05797	58.00
3.07463	58.00
3.09130	58.00
3.10797	58.00
3.12463	58.00
3.14130	58.00
3.15797	58.00
3.17463	58.00
3.19130	58.00
3.20797	58.00
3.22463	58.00
3.24130	58.00
3.25797	58.00
3.27463	58.00
3.29130	58.00
3.30797	58.00
3.32463	58.00
3.34130	58.00
3.35797	58.00
3.37463	58.00
3.39130	58.00
3.40797	58.00
3.42463	58.00
3.44130	58.00
3.45797	58.00
3.47463	58.00
3.49130	58.00
3.50797	58.00
3.52463	58.00
3.54130	58.00
3.55797	58.00
3.57463	58.00
3.59130	58.00
3.60797	58.00
3.62463	58.00
3.64130	58.00
3.65797	58.00
3.67463	58.00
3.69130	58.00
3.70797	58.00
3.72463	58.00
3.74130	58.00
3.75797	58.00
3.77463	58.00
3.79130	58.00
3.80797	58.00
3.82463	58.00
3.84130	58.00
3.85797	58.00
3.87463	58.00
3.89130	58.00
3.90797	58.00
3.92463	58.00
3.94130	58.00
3.95797	58.00
3.97463	58.00
3.99130	58.00

[Status Trace (Carrier Gas Flow)]
Interval(msec)	1000
# of Points	240
Start Time(min)	0.008
End Time(min)	3.991
Intensity Units	
Intensity Multiplier	1
R.Time (min)	Intensity
0.00797	34.52
0.02463	34.54
0.04130	34.55
0.05797	34.55
0.07463	34.50
0.09130	34.52
0.10797	34.52
0.12463	34.52
0.14130	34.52
0.15797	34.52
0.17463	34.52
0.19130	34.52
0.20797	34.52
0.22463	34.52
0.24130	34.52
0.25797	34.52
0.27463	34.52
0.29130	34.52
0.30797	34.52
0.32463	34.52
0.34130	34.52
0.35797	34.51
0.37463	34.52
0.39130	34.52
0.40797	34.52
0.42463	34.53
0.44130	34.52
0.45797	34.52
0.47463	34.52
0.49130	34.52
0.50797	34.51
0.52463	34.52
0.54130	34.52
0.55797	34.52
0.57463	34.53
0.59130	34.52
0.60797	34.52
0.62463	34.52
0.64130	34.52
0.65797	34.52
0.67463	34.52
0.69130	34.52
0.70797	34.52
0.72463	34.52
0.74130	34.52
0.75797	34.52
0.77463	34.52
0.79130	34.52
0.80797	34.52
0.82463	34.52
0.84130	34.52
0.85797	34.52
0.87463	34.52
0.89130	34.52
0.90797	34.52
0.92463	34.53
0.94130	34.51
0.95797	34.52
0.97463	34.52
0.99130	34.52
1.00797	34.52
1.02463	34.52
1.04130	34.52
1.05797	34.52
1.07463	34.52
1.09130	34.51
1.10797	34.51
1.12463	34.52
1.14130	34.51
1.15797	34.51
1.17463	34.51
1.19130	34.52
1.20797	34.51
1.22463	34.51
1.24130	34.52
1.25797	34.52
1.27463	34.52
1.29130	34.52
1.30797	34.52
1.32463	34.52
1.34130	34.52
1.35797	34.51
1.37463	34.51
1.39130	34.52
1.40797	34.52
1.42463	34.51
1.44130	34.52
1.45797	34.52
1.47463	34.52
1.49130	34.52
1.50797	34.52
1.52463	34.52
1.54130	34.52
1.55797	34.52
1.57463	34.52
1.59130	34.52
1.60797	34.52
1.62463	34.52
1.64130	34.52
1.65797	34.52
1.67463	34.52
1.69130	34.52
1.70797	34.52
1.72463	34.52
1.74130	34.52
1.75797	34.52
1.77463	34.52
1.79130	34.52
1.80797	34.52
1.82463	34.52
1.84130	34.51
1.85797	34.52
1.87463	34.52
1.89130	34.52
1.90797	34.52
1.92463	34.52
1.94130	34.52
1.95797	34.52
1.97463	34.51
1.99130	34.52
2.00797	34.52
2.02463	34.52
2.04130	34.52
2.05797	34.52
2.07463	34.51
2.09130	34.52
2.10797	34.52
2.12463	34.52
2.14130	34.52
2.15797	34.52
2.17463	34.52
2.19130	34.52
2.20797	34.52
2.22463	34.52
2.24130	34.52
2.25797	34.52
2.27463	34.52
2.29130	34.52
2.30797	34.53
2.32463	34.52
2.34130	34.52
2.35797	34.52
2.37463	34.52
2.39130	34.52
2.40797	34.52
2.42463	34.52
2.44130	34.51
2.45797	34.52
2.47463	34.51
2.49130	34.52
2.50797	34.37
2.52463	34.52
2.54130	34.52
2.55797	34.52
2.57463	34.52
2.59130	34.52
2.60797	34.52
2.62463	34.52
2.64130	34.52
2.65797	34.52
2.67463	34.52
2.69130	34.52
2.70797	34.52
2.72463	34.52
2.74130	34.52
2.75797	34.52
2.77463	34.52
2.79130	34.52
2.80797	34.52
2.82463	34.52
2.84130	34.52
2.85797	34.51
2.87463	34.51
2.89130	34.51
2.90797	34.52
2.92463	34.53
2.94130	34.51
2.95797	34.51
2.97463	34.51
2.99130	34.52
3.00797	34.52
3.02463	34.52
3.04130	34.52
3.05797	34.52
3.07463	34.52
3.09130	34.52
3.10797	34.52
3.12463	34.52
3.14130	34.52
3.15797	34.52
3.17463	34.52
3.19130	34.52
3.20797	34.52
3.22463	34.52
3.24130	34.52
3.25797	34.52
3.27463	34.52
3.29130	34.52
3.30797	34.52
3.32463	34.51
3.34130	34.52
3.35797	34.52
3.37463	34.52
3.39130	34.51
3.40797	34.52
3.42463	34.52
3.44130	34.52
3.45797	34.52
3.47463	34.52
3.49130	34.52
3.50797	34.52
3.52463	34.52
3.54130	34.52
3.55797	34.52
3.57463	34.52
3.59130	34.52
3.60797	34.52
3.62463	34.51
3.64130	34.51
3.65797	34.53
3.67463	34.51
3.69130	34.52
3.70797	34.53
3.72463	34.52
3.74130	34.52
3.75797	34.51
3.77463	34.52
3.79130	34.52
3.80797	34.52
3.82463	34.52
3.84130	34.52
3.85797	34.52
3.87463	34.52
3.89130	34.52
3.90797	34.52
3.92463	34.52
3.94130	34.52
3.95797	34.51
3.97463	34.52
3.99130	34.52

[Status Trace (Column Flow)]
Interval(msec)	1000
# of Points	240
Start Time(min)	0.008
End Time(min)	3.991
Intensity Units	
Intensity Multiplier	1
R.Time (min)	Intensity
0.00797	5.52
0.02463	5.22
0.04130	5.43
0.05797	5.67
0.07463	5.68
0.09130	5.53
0.10797	5.52
0.12463	5.52
0.14130	5.52
0.15797	5.52
0.17463	5.52
0.19130	5.52
0.20797	5.52
0.22463	5.52
0.24130	5.52
0.25797	5.52
0.27463	5.52
0.29130	5.52
0.30797	5.52
0.32463	5.52
0.34130	5.52
0.35797	5.52
0.37463	5.52
0.39130	5.52
0.40797	5.52
0.42463	5.52
0.44130	5.52
0.45797	5.52
0.47463	5.52
0.49130	5.52
0.50797	5.52
0.52463	5.52
0.54130	5.52
0.55797	5.52
0.57463	5.52
0.59130	5.52
0.60797	5.52
0.62463	5.52
0.64130	5.52
0.65797	5.52
0.67463	5.52
0.69130	5.52
0.70797	5.52
0.72463	5.52
0.74130	5.52
0.75797	5.52
0.77463	5.52
0.79130	5.52
0.80797	5.52
0.82463	5.52
0.84130	5.52
0.85797	5.52
0.87463	5.52
0.89130	5.52
0.90797	5.52
0.92463	5.52
0.94130	5.52
0.95797	5.52
0.97463	5.52
0.99130	5.52
1.00797	5.52
1.02463	5.52
1.04130	5.52
1.05797	5.52
1.07463	5.52
1.09130	5.52
1.10797	5.52
1.12463	5.52
1.14130	5.52
1.15797	5.52
1.17463	5.52
1.19130	5.52
1.20797	5.52
1.22463	5.52
1.24130	5.52
1.25797	5.52
1.27463	5.52
1.29130	5.52
1.30797	5.52
1.32463	5.52
1.34130	5.52
1.35797	5.52
1.37463	5.52
1.39130	5.52
1.40797	5.52
1.42463	5.52
1.44130	5.52
1.45797	5.52
1.47463	5.52
1.49130	5.52
1.50797	5.52
1.52463	5.52
1.54130	5.52
1.55797	5.52
1.57463	5.52
1.59130	5.52
1.60797	5.52
1.62463	5.52
1.64130	5.51
1.65797	5.50
1.67463	5.49
1.69130	5.48
1.70797	5.47
1.72463	5.46
1.74130	5.45
1.75797	5.44
1.77463	5.43
1.79130	5.42
1.80797	5.41
1.82463	5.40
1.84130	5.39
1.85797	5.38
1.87463	5.37
1.89130	5.36
1.90797	5.35
1.92463	5.34
1.94130	5.33
1.95797	5.32
1.97463	5.31
1.99130	5.30
2.00797	5.29
2.02463	5.28
2.04130	5.27
2.05797	5.26
2.07463	5.25
2.09130	5.24
2.10797	5.23
2.12463	5.22
2.14130	5.21
2.15797	5.20
2.17463	5.19
2.19130	5.18
2.20797	5.18
2.22463	5.17
2.24130	5.16
2.25797	5.15
2.27463	5.14
2.29130	5.13
2.30797	5.12
2.32463	5.11
2.34130	5.10
2.35797	5.09
2.37463	5.09
2.39130	5.09
2.40797	5.09
2.42463	5.09
2.44130	5.09
2.45797	5.09
2.47463	5.09
2.49130	5.09
2.50797	5.09
2.52463	5.08
2.54130	5.08
2.55797	5.08
2.57463	5.08
2.59130	5.08
2.60797	5.08
2.62463	5.08
2.64130	5.08
2.65797	5.08
2.67463	5.08
2.69130	5.08
2.70797	5.08
2.72463	5.08
2.74130	5.08
2.75797	5.08
2.77463	5.08
2.79130	5.08
2.80797	5.08
2.82463	5.08
2.84130	5.08
2.85797	5.08
2.87463	5.08
2.89130	5.08
2.90797	5.08
2.92463	5.08
2.94130	5.08
2.95797	5.08
2.97463	5.08
2.99130	5.08
3.00797	5.08
3.02463	5.08
3.04130	5.08
3.05797	5.08
3.07463	5.08
3.09130	5.08
3.10797	5.08
3.12463	5.08
3.14130	5.08
3.15797	5.08
3.17463	5.08
3.19130	5.08
3.20797	5.08
3.22463	5.08
3.24130	5.08
3.25797	5.08
3.27463	5.08
3.29130	5.08
3.30797	5.08
3.32463	5.08
3.34130	5.08
3.35797	5.08
3.37463	5.08
3.39130	5.08
3.40797	5.08
3.42463	5.08
3.44130	5.08
3.45797	5.08
3.47463	5.08
3.49130	5.08
3.50797	5.08
3.52463	5.08
3.54130	5.08
3.55797	5.08
3.57463	5.08
3.59130	5.08
3.60797	5.08
3.62463	5.08
3.64130	5.08
3.65797	5.08
3.67463	5.08
3.69130	5.08
3.70797	5.08
3.72463	5.08
3.74130	5.08
3.75797	5.08
3.77463	5.08
3.79130	5.08
3.80797	5.08
3.82463	5.08
3.84130	5.08
3.85797	5.08
3.87463	5.08
3.89130	5.08
3.90797	5.08
3.92463	5.08
3.94130	5.08
3.95797	5.08
3.97463	5.08
3.99130	5.08

[Status Trace (Linear Velocity)]
Interval(msec)	1000
# of Points	240
Start Time(min)	0.008
End Time(min)	3.991
Intensity Units	
Intensity Multiplier	1
R.Time (min)	Intensity
0.00797	39.01
0.02463	37.30
0.04130	38.48
0.05797	39.83
0.07463	39.90
0.09130	39.05
0.10797	39.00
0.12463	39.02
0.14130	39.02
0.15797	39.02
0.17463	39.01
0.19130	39.01
0.20797	39.01
0.22463	39.01
0.24130	39.01
0.25797	39.01
0.27463	39.01
0.29130	39.01
0.30797	39.02
0.32463	39.02
0.34130	39.02
0.35797	39.02
0.37463	39.02
0.39130	39.02
0.40797	39.01
0.42463	39.01
0.44130	39.02
0.45797	39.02
0.47463	39.01
0.49130	39.01
0.50797	39.01
0.52463	39.01
0.54130	39.01
0.55797	39.01
0.57463	39.02
0.59130	39.02
0.60797	39.02
0.62463	39.02
0.64130	39.01
0.65797	39.01
0.67463	39.01
0.69130	39.02
0.70797	39.02
0.72463	39.02
0.74130	39.01
0.75797	39.01
0.77463	39.01
0.79130	39.01
0.80797	39.02
0.82463	39.01
0.84130	39.02
0.85797	39.01
0.87463	39.01
0.89130	39.01
0.90797	39.02
0.92463	39.02
0.94130	39.02
0.95797	39.02
0.97463	39.02
0.99130	39.02
1.00797	39.02
1.02463	39.02
1.04130	39.02
1.05797	39.02
1.07463	39.02
1.09130	39.02
1.10797	39.02
1.12463	39.02
1.14130	39.02
1.15797	39.02
1.17463	39.02
1.19130	39.01
1.20797	39.02
1.22463	39.02
1.24130	39.02
1.25797	39.02
1.27463	39.02
1.29130	39.02
1.30797	39.02
1.32463	39.02
1.34130	39.02
1.35797	39.02
1.37463	39.02
1.39130	39.02
1.40797	39.02
1.42463	39.02
1.44130	39.02
1.45797	39.02
1.47463	39.02
1.49130	39.02
1.50797	39.02
1.52463	39.02
1.54130	39.02
1.55797	39.02
1.57463	39.02
1.59130	39.02
1.60797	39.01
1.62463	39.00
1.64130	38.99
1.65797	38.97
1.67463	38.93
1.69130	38.89
1.70797	38.85
1.72463	38.82
1.74130	38.79
1.75797	38.76
1.77463	38.73
1.79130	38.70
1.80797	38.67
1.82463	38.64
1.84130	38.61
1.85797	38.57
1.87463	38.54
1.89130	38.51
1.90797	38.48
1.92463	38.45
1.94130	38.42
1.95797	38.39
1.97463	38.36
1.99130	38.33
2.00797	38.30
2.02463	38.27
2.04130	38.24
2.05797	38.21
2.07463	38.18
2.09130	38.15
2.10797	38.12
2.12463	38.09
2.14130	38.06
2.15797	38.03
2.17463	38.00
2.19130	37.97
2.20797	37.94
2.22463	37.91
2.24130	37.88
2.25797	37.85
2.27463	37.82
2.29130	37.79
2.30797	37.77
2.32463	37.74
2.34130	37.71
2.35797	37.68
2.37463	37.66
2.39130	37.66
2.40797	37.66
2.42463	37.66
2.44130	37.66
2.45797	37.66
2.47463	37.66
2.49130	37.66
2.50797	37.65
2.52463	37.64
2.54130	37.65
2.55797	37.65
2.57463	37.65
2.59130	37.65
2.60797	37.65
2.62463	37.65
2.64130	37.65
2.65797	37.65
2.67463	37.64
2.69130	37.65
2.70797	37.65
2.72463	37.64
2.74130	37.64
2.75797	37.64
2.77463	37.64
2.79130	37.64
2.80797	37.64
2.82463	37.64
2.84130	37.64
2.85797	37.64
2.87463	37.64
2.89130	37.64
2.90797	37.64
2.92463	37.63
2.94130	37.63
2.95797	37.63
2.97463	37.63
2.99130	37.63
3.00797	37.63
3.02463	37.63
3.04130	37.63
3.05797	37.63
3.07463	37.63
3.09130	37.63
3.10797	37.63
3.12463	37.63
3.14130	37.63
3.15797	37.62
3.17463	37.62
3.19130	37.63
3.20797	37.63
3.22463	37.62
3.24130	37.62
3.25797	37.62
3.27463	37.62
3.29130	37.62
3.30797	37.62
3.32463	37.63
3.34130	37.63
3.35797	37.63
3.37463	37.63
3.39130	37.63
3.40797	37.63
3.42463	37.63
3.44130	37.63
3.45797	37.63
3.47463	37.63
3.49130	37.63
3.50797	37.63
3.52463	37.63
3.54130	37.63
3.55797	37.63
3.57463	37.63
3.59130	37.63
3.60797	37.63
3.62463	37.63
3.64130	37.63
3.65797	37.63
3.67463	37.63
3.69130	37.63
3.70797	37.63
3.72463	37.63
3.74130	37.63
3.75797	37.63
3.77463	37.63
3.79130	37.63
3.80797	37.63
3.82463	37.63
3.84130	37.63
3.85797	37.63
3.87463	37.63
3.89130	37.63
3.90797	37.63
3.92463	37.63
3.94130	37.63
3.95797	37.63
3.97463	37.63
3.99130	37.63

