[Header]
Application Name	LabSolutions
Version	5.110
Data File Name	C:\Users\User\Desktop\GC Analyses\Jack\Nachusa Grasslands Sampling\T3 Timepoint July 12th\T3_07122022_041.gcd
Output Date	3/14/2023
Output Time	3:43:32 PM

[File Information]
Type	Data File
Generated	3/13/2023 7:00:39 PM
Generated by	System Administrator
Modified	3/13/2023 7:07:30 PM
Modified by	System Administrator

[Sample Information]
Operator Name	System Administrator
Acquired	3/13/2023 7:03:29 PM
Sample Type	0:Unknown
Level	0
Sample Name	041
Sample ID	041
ISTD Amount1	1
ISTD Amount2	1
ISTD Amount3	1
ISTD Amount4	1
ISTD Amount5	1
ISTD Amount6	1
ISTD Amount7	1
ISTD Amount8	1
ISTD Amount9	1
ISTD Amount10	1
ISTD Amount11	1
ISTD Amount12	1
ISTD Amount13	1
ISTD Amount14	1
ISTD Amount15	1
ISTD Amount16	1
ISTD Amount17	1
ISTD Amount18	1
ISTD Amount19	1
ISTD Amount20	1
ISTD Amount21	1
ISTD Amount22	1
ISTD Amount23	1
ISTD Amount24	1
ISTD Amount25	1
ISTD Amount26	1
ISTD Amount27	1
ISTD Amount28	1
ISTD Amount29	1
ISTD Amount30	1
ISTD Amount31	1
ISTD Amount32	1
Sample Amount	1
Dilution Factor	1
Vial#	40
Injection Volume	1
Injection Count	1
Bar Code	

[Original Files]
Data File	C:\Users\User\Desktop\GC Analyses\Jack\Nachusa Grasslands Sampling\T3 Timepoint July 12th\T3_07122022_041.gcd
Method File	C:\LabSolutions\Data\GHG_4min_2022\ghg3_togas_w_acet_4 min_new_int.gcm
Batch File	C:\LabSolutions\Data\AutoSamplerTesting\T3_07122022.gcb
Report Format File	c:\LabSolutions\System\DEFAULT.lsr

[File Description]


[Configuration]
Instrument Name	C0B7VH3-Instrument1
Instrument #	1
Line #	1
# of Detectors	3
Detector ID	DET#1	DET#2	DET#3
Detector Name	FID	PTCD	ECD
# of Channels	1	1	1

[Peak Table(Ch1)]
# of Peaks	3
Peak#	R.Time	I.Time	F.Time	Area	Height	A/H	Conc.	Mark	ID#	Name	k'	Plate #	Plate Ht.	Tailing	Resolution	Sep.Factor	Area Ratio	Height Ratio	Conc. %	Norm Conc.
1	1.457	1.358	1.501	1500	758	1.979	10.590	   	1	CO	0.000	17186	8.728	0.729	0.000	0.000	0	0	1.144	1.144
2	1.571	1.534	1.630	20201	10232	1.974	390.602	   	2	CH4	0.078	11631	12.896	1.146	2.213	0.000	0	0	42.204	42.204
3	1.996	1.945	2.389	2089126	1002435	2.084	524.314	   	3	CO2	0.370	17479	8.582	1.336	7.169	4.742	0	0	56.652	56.652

[Peak Table(Ch2)]
# of Peaks	0

[Peak Table(Ch3)]
# of Peaks	5
Peak#	R.Time	I.Time	F.Time	Area	Height	A/H	Conc.	Mark	ID#	Name	k'	Plate #	Plate Ht.	Tailing	Resolution	Sep.Factor	Area Ratio	Height Ratio	Conc. %	Norm Conc.
1	2.462	2.440	2.510	1474	546	2.698	0.000	   			0.000	13287	11.289	0.000	0.000	0.000	0	0	0.000	0.000
2	2.528	2.510	2.576	772	290	2.660	0.000	 V 			0.027	8237	18.210	0.000	0.671	0.000	0	0	0.000	0.000
3	2.605	2.576	2.678	442	109	4.055	0.000	 V 			0.058	1974	75.981	0.000	0.445	2.167	0	0	0.000	0.000
4	2.880	2.704	3.067	58153	14925	3.896	1.485	   	1	N2O	0.170	12648	11.860	1.541	1.632	2.923	0	0	100.000	100.000
5	3.294	3.071	3.995	20469	633	32.321	0.000	   	2	SF6	0.338	258	581.133	2.027	0.898	1.991	0	0	0.000	0.000

[Compound Results(Ch1)]
# of IDs	6
ID#	Name	R.Time	Area	Height	Conc.	Curve	3rd	2nd	1st	Constant	Area Ratio	Height Ratio	Conc. %	Norm Conc.
1	CO	1.457	1500	758	10.590	Linear	0.000000e+00	0.000000e+00	1.416423e+002	0.000000e+00	0	0	1.144	1.144
2	CH4	1.571	20201	10232	390.602	Linear	0.000000e+00	0.000000e+00	5.171738e+001	0.000000e+00	0	0	42.204	42.204
3	CO2	1.996	2089126	1002435	524.314	Linear	0.000000e+00	0.000000e+00	3.984494e+003	0.000000e+00	0	0	56.652	56.652
4	Ethylene	0.000	0	0	0.000	Linear	0.000000e+00	0.000000e+00	0.000000e+00	0.000000e+00	0	0	0.000	0.000
5	Acetylene	0.000	0	0	0.000	Linear	0.000000e+00	0.000000e+00	0.000000e+00	0.000000e+00	0	0	0.000	0.000
6	Ethane	0.000	0	0	0.000	Linear	0.000000e+00	0.000000e+00	0.000000e+00	0.000000e+00	0	0	0.000	0.000

[Compound Results(Ch2)]
# of IDs	5
ID#	Name	R.Time	Area	Height	Conc.	Curve	3rd	2nd	1st	Constant	Area Ratio	Height Ratio	Conc. %	Norm Conc.
1	Hydrogen	0.000	0	0	0.000	Linear	0.000000e+00	0.000000e+00	0.000000e+00	0.000000e+00	0	0	0.000	0.000
2	Oxygen	0.000	0	0	0.000	Linear	0.000000e+00	0.000000e+00	0.000000e+00	0.000000e+00	0	0	0.000	0.000
3	Nitrogen	0.000	0	0	0.000	Linear	0.000000e+00	0.000000e+00	0.000000e+00	0.000000e+00	0	0	0.000	0.000
4	Methane	0.000	0	0	0.000	Linear	0.000000e+00	0.000000e+00	0.000000e+00	0.000000e+00	0	0	0.000	0.000
5	Carbon Monoxide	0.000	0	0	0.000	Linear	0.000000e+00	0.000000e+00	0.000000e+00	0.000000e+00	0	0	0.000	0.000

[Compound Results(Ch3)]
# of IDs	2
ID#	Name	R.Time	Area	Height	Conc.	Curve	3rd	2nd	1st	Constant	Area Ratio	Height Ratio	Conc. %	Norm Conc.
1	N2O	2.880	58153	14925	1.485	Linear	0.000000e+00	0.000000e+00	3.915173e+004	0.000000e+00	0	0	100.000	100.000
2	SF6	3.294	20469	633	0.000	Linear	0.000000e+00	0.000000e+00	0.000000e+00	0.000000e+00	0	0	0.000	0.000

[Group Results(Ch1)]
# of Groups	0

[Group Results(Ch2)]
# of Groups	0

[Group Results(Ch3)]
# of Groups	0

[Chromatogram (Ch1)]
Interval(msec)	220
# of Points	1091
Start Time(min)	0.002
End Time(min)	3.998
R.Time (min)	Intensity
0.00167	-40
0.00533	-35
0.00900	-30
0.01267	-27
0.01633	-26
0.02000	-22
0.02367	-18
0.02733	-15
0.03100	-13
0.03467	-12
0.03833	-12
0.04200	-12
0.04567	-14
0.04933	-13
0.05300	-12
0.05667	-9
0.06033	-3
0.06400	2
0.06767	3
0.07133	4
0.07500	8
0.07867	10
0.08233	6
0.08600	3
0.08967	3
0.09333	3
0.09700	3
0.10067	5
0.10433	5
0.10800	5
0.11167	6
0.11533	6
0.11900	12
0.12267	22
0.12633	31
0.13000	36
0.13367	39
0.13733	38
0.14100	35
0.14467	29
0.14833	23
0.15200	20
0.15567	22
0.15933	22
0.16300	20
0.16667	19
0.17033	19
0.17400	21
0.17767	25
0.18133	27
0.18500	24
0.18867	17
0.19233	8
0.19600	-1
0.19967	-9
0.20333	-17
0.20700	-23
0.21067	-25
0.21433	-24
0.21800	-25
0.22167	-27
0.22533	-28
0.22900	-26
0.23267	-27
0.23633	-33
0.24000	-36
0.24367	-32
0.24733	-24
0.25100	-17
0.25467	-12
0.25833	-9
0.26200	-10
0.26567	-15
0.26933	-18
0.27300	-21
0.27667	-29
0.28033	-35
0.28400	-37
0.28767	-39
0.29133	-39
0.29500	-37
0.29867	-32
0.30233	-26
0.30600	-22
0.30967	-20
0.31333	-18
0.31700	-19
0.32067	-26
0.32433	-30
0.32800	-27
0.33167	-25
0.33533	-28
0.33900	-27
0.34267	-26
0.34633	-25
0.35000	-27
0.35367	-33
0.35733	-42
0.36100	-46
0.36467	-43
0.36833	-35
0.37200	-33
0.37567	-36
0.37933	-40
0.38300	-46
0.38667	-53
0.39033	-56
0.39400	-55
0.39767	-50
0.40133	-47
0.40500	-46
0.40867	-47
0.41233	-49
0.41600	-48
0.41967	-46
0.42333	-44
0.42700	-43
0.43067	-43
0.43433	-43
0.43800	-34
0.44167	-24
0.44533	-19
0.44900	-18
0.45267	-22
0.45633	-31
0.46000	-41
0.46367	-44
0.46733	-43
0.47100	-39
0.47467	-33
0.47833	-28
0.48200	-25
0.48567	-24
0.48933	-27
0.49300	-31
0.49667	-34
0.50033	-39
0.50400	-39
0.50767	-33
0.51133	-27
0.51500	-26
0.51867	-29
0.52233	-34
0.52600	-36
0.52967	-37
0.53333	-35
0.53700	-33
0.54067	-36
0.54433	-39
0.54800	-40
0.55167	-39
0.55533	-39
0.55900	-42
0.56267	-44
0.56633	-43
0.57000	-39
0.57367	-34
0.57733	-30
0.58100	-30
0.58467	-33
0.58833	-37
0.59200	-39
0.59567	-44
0.59933	-44
0.60300	-41
0.60667	-42
0.61033	-43
0.61400	-41
0.61767	-36
0.62133	-24
0.62500	-19
0.62867	-21
0.63233	-22
0.63600	-23
0.63967	-29
0.64333	-35
0.64700	-40
0.65067	-38
0.65433	-36
0.65800	-37
0.66167	-41
0.66533	-44
0.66900	-46
0.67267	-46
0.67633	-43
0.68000	-41
0.68367	-39
0.68733	-39
0.69100	-39
0.69467	-40
0.69833	-38
0.70200	-33
0.70567	-28
0.70933	-26
0.71300	-28
0.71667	-31
0.72033	-34
0.72400	-38
0.72767	-44
0.73133	-47
0.73500	-45
0.73867	-43
0.74233	-43
0.74600	-46
0.74967	-43
0.75333	-37
0.75700	-29
0.76067	-22
0.76433	-22
0.76800	-24
0.77167	-25
0.77533	-26
0.77900	-28
0.78267	-29
0.78633	-31
0.79000	-35
0.79367	-40
0.79733	-41
0.80100	-39
0.80467	-35
0.80833	-33
0.81200	-31
0.81567	-31
0.81933	-37
0.82300	-47
0.82667	-56
0.83033	-60
0.83400	-61
0.83767	-59
0.84133	-51
0.84500	-43
0.84867	-36
0.85233	-31
0.85600	-32
0.85967	-40
0.86333	-49
0.86700	-55
0.87067	-56
0.87433	-55
0.87800	-52
0.88167	-52
0.88533	-48
0.88900	-43
0.89267	-40
0.89633	-36
0.90000	-33
0.90367	-34
0.90733	-38
0.91100	-40
0.91467	-37
0.91833	-36
0.92200	-38
0.92567	-39
0.92933	-42
0.93300	-41
0.93667	-36
0.94033	-30
0.94400	-28
0.94767	-28
0.95133	-27
0.95500	-27
0.95867	-26
0.96233	-26
0.96600	-26
0.96967	-28
0.97333	-29
0.97700	-26
0.98067	-18
0.98433	-6
0.98800	3
0.99167	4
0.99533	-5
0.99900	-15
1.00267	-22
1.00633	-28
1.01000	-31
1.01367	-31
1.01733	-38
1.02100	-44
1.02467	-42
1.02833	-34
1.03200	-27
1.03567	-21
1.03933	-19
1.04300	-19
1.04667	-19
1.05033	-11
1.05400	-2
1.05767	2
1.06133	3
1.06500	-3
1.06867	-12
1.07233	-18
1.07600	-22
1.07967	-23
1.08333	-26
1.08700	-26
1.09067	-23
1.09433	-18
1.09800	-11
1.10167	-6
1.10533	-3
1.10900	-4
1.11267	-3
1.11633	1
1.12000	-2
1.12367	-8
1.12733	-17
1.13100	-23
1.13467	-25
1.13833	-24
1.14200	-26
1.14567	-31
1.14933	-35
1.15300	-33
1.15667	-28
1.16033	-21
1.16400	-16
1.16767	-13
1.17133	-14
1.17500	-13
1.17867	-13
1.18233	-17
1.18600	-22
1.18967	-24
1.19333	-23
1.19700	-24
1.20067	-27
1.20433	-29
1.20800	-26
1.21167	-24
1.21533	-21
1.21900	-17
1.22267	-12
1.22633	-8
1.23000	-8
1.23367	-8
1.23733	-7
1.24100	-12
1.24467	-20
1.24833	-27
1.25200	-33
1.25567	-41
1.25933	-41
1.26300	-31
1.26667	-20
1.27033	-12
1.27400	-13
1.27767	-21
1.28133	-34
1.28500	-46
1.28867	-52
1.29233	-47
1.29600	-41
1.29967	-38
1.30333	-31
1.30700	-31
1.31067	-39
1.31433	-46
1.31800	-46
1.32167	-41
1.32533	-34
1.32900	-23
1.33267	-14
1.33633	-10
1.34000	-12
1.34367	-20
1.34733	-26
1.35100	-28
1.35467	-28
1.35833	-26
1.36200	-28
1.36567	-33
1.36933	-37
1.37300	-38
1.37667	-40
1.38033	-36
1.38400	-31
1.38767	-29
1.39133	-30
1.39500	-36
1.39867	-40
1.40233	-41
1.40600	-39
1.40967	-39
1.41333	-40
1.41700	-40
1.42067	-39
1.42433	-37
1.42800	-34
1.43167	-32
1.43533	-34
1.43900	-31
1.44267	9
1.44633	141
1.45000	351
1.45367	497
1.45733	511
1.46100	414
1.46467	253
1.46833	79
1.47200	-62
1.47567	-144
1.47933	-177
1.48300	-201
1.48667	-230
1.49033	-264
1.49400	-299
1.49767	-326
1.50133	-345
1.50500	-355
1.50867	-360
1.51233	-363
1.51600	-366
1.51967	-365
1.52333	-358
1.52700	-348
1.53067	-338
1.53433	-323
1.53800	-269
1.54167	-24
1.54533	699
1.54900	2102
1.55267	4022
1.55633	6047
1.56000	7817
1.56367	9142
1.56733	9908
1.57100	9979
1.57467	9275
1.57833	7926
1.58200	6259
1.58567	4623
1.58933	3235
1.59300	2170
1.59667	1410
1.60033	891
1.60400	544
1.60767	311
1.61133	152
1.61500	42
1.61867	-35
1.62233	-86
1.62600	-121
1.62967	-141
1.63333	-154
1.63700	-165
1.64067	-171
1.64433	-173
1.64800	-173
1.65167	-169
1.65533	-162
1.65900	-159
1.66267	-158
1.66633	-156
1.67000	-152
1.67367	-144
1.67733	-127
1.68100	-111
1.68467	-101
1.68833	-102
1.69200	-112
1.69567	-127
1.69933	-138
1.70300	-143
1.70667	-146
1.71033	-148
1.71400	-144
1.71767	-138
1.72133	-134
1.72500	-131
1.72867	-127
1.73233	-125
1.73600	-126
1.73967	-131
1.74333	-132
1.74700	-128
1.75067	-124
1.75433	-126
1.75800	-128
1.76167	-129
1.76533	-127
1.76900	-123
1.77267	-117
1.77633	-108
1.78000	-102
1.78367	-98
1.78733	-93
1.79100	-87
1.79467	-83
1.79833	-84
1.80200	-88
1.80567	-94
1.80933	-98
1.81300	-98
1.81667	-95
1.82033	-90
1.82400	-85
1.82767	-84
1.83133	-84
1.83500	-85
1.83867	-84
1.84233	-84
1.84600	-84
1.84967	-87
1.85333	-88
1.85700	-89
1.86067	-83
1.86433	-74
1.86800	-68
1.87167	-71
1.87533	-78
1.87900	-84
1.88267	-90
1.88633	-93
1.89000	-92
1.89367	-85
1.89733	-81
1.90100	-81
1.90467	-81
1.90833	-78
1.91200	-76
1.91567	-75
1.91933	-78
1.92300	-83
1.92667	-90
1.93033	-91
1.93400	-89
1.93767	-89
1.94133	-88
1.94500	-84
1.94867	-76
1.95233	-58
1.95600	45
1.95967	679
1.96333	3798
1.96700	15445
1.97067	48832
1.97433	122872
1.97800	250722
1.98167	425462
1.98533	619625
1.98900	798400
1.99267	932351
1.99633	1002382
2.00000	1000661
2.00367	931579
2.00733	811776
2.01100	665286
2.01467	516513
2.01833	383526
2.02200	275249
2.02567	192928
2.02933	133330
2.03300	91616
2.03667	63065
2.04033	43785
2.04400	30848
2.04767	22162
2.05133	16300
2.05500	12303
2.05867	9532
2.06233	7573
2.06600	6161
2.06967	5120
2.07333	4334
2.07700	3724
2.08067	3247
2.08433	2870
2.08800	2564
2.09167	2308
2.09533	2091
2.09900	1906
2.10267	1747
2.10633	1609
2.11000	1489
2.11367	1385
2.11733	1292
2.12100	1208
2.12467	1136
2.12833	1073
2.13200	1018
2.13567	965
2.13933	919
2.14300	878
2.14667	836
2.15033	796
2.15400	759
2.15767	725
2.16133	692
2.16500	665
2.16867	643
2.17233	623
2.17600	606
2.17967	589
2.18333	572
2.18700	553
2.19067	533
2.19433	518
2.19800	504
2.20167	484
2.20533	464
2.20900	451
2.21267	440
2.21633	427
2.22000	410
2.22367	390
2.22733	380
2.23100	374
2.23467	363
2.23833	350
2.24200	342
2.24567	335
2.24933	329
2.25300	322
2.25667	314
2.26033	305
2.26400	300
2.26767	296
2.27133	289
2.27500	282
2.27867	278
2.28233	271
2.28600	267
2.28967	268
2.29333	268
2.29700	267
2.30067	263
2.30433	261
2.30800	259
2.31167	255
2.31533	249
2.31900	245
2.32267	242
2.32633	237
2.33000	233
2.33367	227
2.33733	222
2.34100	219
2.34467	219
2.34833	218
2.35200	218
2.35567	213
2.35933	206
2.36300	199
2.36667	195
2.37033	195
2.37400	193
2.37767	188
2.38133	183
2.38500	180
2.38867	179
2.39233	178
2.39600	179
2.39967	180
2.40333	181
2.40700	182
2.41067	184
2.41433	185
2.41800	185
2.42167	183
2.42533	183
2.42900	186
2.43267	187
2.43633	187
2.44000	185
2.44367	185
2.44733	184
2.45100	179
2.45467	171
2.45833	169
2.46200	174
2.46567	185
2.46933	193
2.47300	192
2.47667	186
2.48033	181
2.48400	175
2.48767	165
2.49133	155
2.49500	157
2.49867	162
2.50233	162
2.50600	156
2.50967	150
2.51333	149
2.51700	153
2.52067	161
2.52433	171
2.52800	175
2.53167	168
2.53533	160
2.53900	156
2.54267	152
2.54633	147
2.55000	145
2.55367	150
2.55733	157
2.56100	165
2.56467	168
2.56833	163
2.57200	156
2.57567	150
2.57933	144
2.58300	143
2.58667	145
2.59033	146
2.59400	147
2.59767	150
2.60133	156
2.60500	157
2.60867	151
2.61233	145
2.61600	141
2.61967	140
2.62333	141
2.62700	145
2.63067	151
2.63433	154
2.63800	153
2.64167	156
2.64533	162
2.64900	166
2.65267	166
2.65633	167
2.66000	170
2.66367	173
2.66733	177
2.67100	181
2.67467	185
2.67833	184
2.68200	179
2.68567	169
2.68933	164
2.69300	170
2.69667	175
2.70033	174
2.70400	171
2.70767	168
2.71133	163
2.71500	160
2.71867	160
2.72233	162
2.72600	161
2.72967	160
2.73333	163
2.73700	166
2.74067	165
2.74433	160
2.74800	157
2.75167	159
2.75533	166
2.75900	172
2.76267	178
2.76633	180
2.77000	182
2.77367	179
2.77733	172
2.78100	166
2.78467	162
2.78833	162
2.79200	168
2.79567	170
2.79933	168
2.80300	168
2.80667	170
2.81033	172
2.81400	174
2.81767	178
2.82133	181
2.82500	184
2.82867	182
2.83233	179
2.83600	182
2.83967	189
2.84333	196
2.84700	197
2.85067	191
2.85433	182
2.85800	177
2.86167	175
2.86533	174
2.86900	175
2.87267	178
2.87633	182
2.88000	183
2.88367	180
2.88733	179
2.89100	182
2.89467	185
2.89833	186
2.90200	183
2.90567	178
2.90933	179
2.91300	184
2.91667	188
2.92033	190
2.92400	189
2.92767	190
2.93133	189
2.93500	189
2.93867	187
2.94233	186
2.94600	187
2.94967	188
2.95333	189
2.95700	189
2.96067	188
2.96433	183
2.96800	176
2.97167	173
2.97533	176
2.97900	185
2.98267	194
2.98633	204
2.99000	210
2.99367	214
2.99733	213
3.00100	205
3.00467	198
3.00833	193
3.01200	188
3.01567	185
3.01933	184
3.02300	181
3.02667	175
3.03033	170
3.03400	169
3.03767	172
3.04133	173
3.04500	174
3.04867	176
3.05233	180
3.05600	184
3.05967	189
3.06333	193
3.06700	199
3.07067	204
3.07433	207
3.07800	209
3.08167	209
3.08533	204
3.08900	193
3.09267	180
3.09633	170
3.10000	165
3.10367	168
3.10733	175
3.11100	180
3.11467	182
3.11833	178
3.12200	176
3.12567	180
3.12933	180
3.13300	176
3.13667	173
3.14033	170
3.14400	165
3.14767	165
3.15133	168
3.15500	175
3.15867	179
3.16233	182
3.16600	182
3.16967	181
3.17333	180
3.17700	177
3.18067	176
3.18433	174
3.18800	175
3.19167	179
3.19533	181
3.19900	183
3.20267	183
3.20633	180
3.21000	179
3.21367	186
3.21733	193
3.22100	193
3.22467	190
3.22833	187
3.23200	185
3.23567	188
3.23933	191
3.24300	187
3.24667	181
3.25033	178
3.25400	174
3.25767	171
3.26133	167
3.26500	164
3.26867	162
3.27233	163
3.27600	166
3.27967	173
3.28333	177
3.28700	179
3.29067	180
3.29433	180
3.29800	178
3.30167	174
3.30533	172
3.30900	172
3.31267	174
3.31633	174
3.32000	171
3.32367	167
3.32733	164
3.33100	163
3.33467	160
3.33833	153
3.34200	147
3.34567	145
3.34933	146
3.35300	149
3.35667	153
3.36033	157
3.36400	157
3.36767	155
3.37133	156
3.37500	163
3.37867	172
3.38233	173
3.38600	170
3.38967	162
3.39333	155
3.39700	154
3.40067	156
3.40433	158
3.40800	160
3.41167	162
3.41533	161
3.41900	155
3.42267	145
3.42633	139
3.43000	142
3.43367	147
3.43733	148
3.44100	148
3.44467	150
3.44833	154
3.45200	156
3.45567	155
3.45933	147
3.46300	141
3.46667	137
3.47033	140
3.47400	148
3.47767	155
3.48133	160
3.48500	161
3.48867	160
3.49233	159
3.49600	157
3.49967	156
3.50333	151
3.50700	145
3.51067	143
3.51433	149
3.51800	155
3.52167	159
3.52533	161
3.52900	161
3.53267	159
3.53633	152
3.54000	140
3.54367	132
3.54733	130
3.55100	129
3.55467	130
3.55833	128
3.56200	122
3.56567	121
3.56933	124
3.57300	124
3.57667	126
3.58033	127
3.58400	127
3.58767	128
3.59133	129
3.59500	132
3.59867	139
3.60233	148
3.60600	155
3.60967	159
3.61333	160
3.61700	161
3.62067	155
3.62433	139
3.62800	123
3.63167	113
3.63533	108
3.63900	108
3.64267	116
3.64633	122
3.65000	126
3.65367	130
3.65733	132
3.66100	130
3.66467	123
3.66833	118
3.67200	118
3.67567	123
3.67933	131
3.68300	139
3.68667	143
3.69033	143
3.69400	142
3.69767	143
3.70133	147
3.70500	153
3.70867	160
3.71233	159
3.71600	154
3.71967	147
3.72333	142
3.72700	141
3.73067	140
3.73433	138
3.73800	130
3.74167	120
3.74533	114
3.74900	116
3.75267	117
3.75633	116
3.76000	119
3.76367	121
3.76733	122
3.77100	120
3.77467	119
3.77833	121
3.78200	121
3.78567	117
3.78933	113
3.79300	109
3.79667	102
3.80033	97
3.80400	99
3.80767	100
3.81133	96
3.81500	96
3.81867	99
3.82233	102
3.82600	103
3.82967	103
3.83333	105
3.83700	106
3.84067	105
3.84433	104
3.84800	99
3.85167	97
3.85533	98
3.85900	98
3.86267	99
3.86633	104
3.87000	113
3.87367	119
3.87733	119
3.88100	116
3.88467	110
3.88833	105
3.89200	102
3.89567	106
3.89933	115
3.90300	125
3.90667	132
3.91033	132
3.91400	125
3.91767	117
3.92133	109
3.92500	101
3.92867	94
3.93233	89
3.93600	88
3.93967	88
3.94333	89
3.94700	92
3.95067	96
3.95433	96
3.95800	95
3.96167	91
3.96533	89
3.96900	90
3.97267	95
3.97633	100
3.98000	100
3.98367	93
3.98733	86
3.99100	83
3.99467	84
3.99833	88

[Chromatogram (Ch2)]
Interval(msec)	220
# of Points	1091
Start Time(min)	0.002
End Time(min)	3.998
R.Time (min)	Intensity
0.00167	-1
0.00533	-1
0.00900	-1
0.01267	-1
0.01633	-1
0.02000	-1
0.02367	-1
0.02733	-1
0.03100	-1
0.03467	-1
0.03833	-1
0.04200	-1
0.04567	-2
0.04933	-2
0.05300	-2
0.05667	-2
0.06033	-2
0.06400	-2
0.06767	-2
0.07133	-2
0.07500	-3
0.07867	-3
0.08233	-3
0.08600	-4
0.08967	-4
0.09333	-4
0.09700	-3
0.10067	-3
0.10433	-3
0.10800	-3
0.11167	-3
0.11533	-2
0.11900	-2
0.12267	-2
0.12633	-1
0.13000	-1
0.13367	-1
0.13733	-1
0.14100	-0
0.14467	-0
0.14833	-0
0.15200	-0
0.15567	-0
0.15933	-0
0.16300	-0
0.16667	-0
0.17033	-1
0.17400	-1
0.17767	-1
0.18133	-1
0.18500	-1
0.18867	-0
0.19233	-0
0.19600	-0
0.19967	-0
0.20333	-0
0.20700	-0
0.21067	-0
0.21433	-1
0.21800	-1
0.22167	-1
0.22533	-1
0.22900	-1
0.23267	-1
0.23633	-1
0.24000	-1
0.24367	-1
0.24733	-1
0.25100	-1
0.25467	-0
0.25833	-0
0.26200	-0
0.26567	-0
0.26933	-0
0.27300	0
0.27667	0
0.28033	1
0.28400	1
0.28767	1
0.29133	1
0.29500	1
0.29867	1
0.30233	1
0.30600	1
0.30967	1
0.31333	1
0.31700	1
0.32067	1
0.32433	0
0.32800	0
0.33167	0
0.33533	-0
0.33900	-0
0.34267	-1
0.34633	-1
0.35000	-1
0.35367	-2
0.35733	-2
0.36100	-2
0.36467	-3
0.36833	-3
0.37200	-3
0.37567	-4
0.37933	-4
0.38300	-4
0.38667	-4
0.39033	-4
0.39400	-4
0.39767	-4
0.40133	-4
0.40500	-4
0.40867	-4
0.41233	-4
0.41600	-4
0.41967	-4
0.42333	-3
0.42700	-3
0.43067	-3
0.43433	-3
0.43800	-2
0.44167	-2
0.44533	-2
0.44900	-2
0.45267	-2
0.45633	-2
0.46000	-2
0.46367	-3
0.46733	-3
0.47100	-3
0.47467	-3
0.47833	-3
0.48200	-3
0.48567	-3
0.48933	-2
0.49300	-2
0.49667	-2
0.50033	-2
0.50400	-1
0.50767	-1
0.51133	-1
0.51500	-1
0.51867	-0
0.52233	-0
0.52600	-0
0.52967	-0
0.53333	-0
0.53700	-1
0.54067	-1
0.54433	-2
0.54800	-2
0.55167	-2
0.55533	-2
0.55900	-1
0.56267	-1
0.56633	-1
0.57000	-1
0.57367	-1
0.57733	-1
0.58100	-1
0.58467	-1
0.58833	-1
0.59200	-1
0.59567	-1
0.59933	-1
0.60300	-0
0.60667	-0
0.61033	-0
0.61400	0
0.61767	-0
0.62133	-0
0.62500	-1
0.62867	-1
0.63233	-1
0.63600	-1
0.63967	-1
0.64333	-1
0.64700	-1
0.65067	-1
0.65433	-2
0.65800	-2
0.66167	-2
0.66533	-3
0.66900	-3
0.67267	-3
0.67633	-3
0.68000	-2
0.68367	-2
0.68733	-2
0.69100	-2
0.69467	-1
0.69833	-2
0.70200	-2
0.70567	-2
0.70933	-2
0.71300	-2
0.71667	-2
0.72033	-2
0.72400	-3
0.72767	-3
0.73133	-3
0.73500	-3
0.73867	-3
0.74233	-3
0.74600	-3
0.74967	-3
0.75333	-3
0.75700	-3
0.76067	-3
0.76433	-3
0.76800	-3
0.77167	-3
0.77533	-3
0.77900	-2
0.78267	-2
0.78633	-2
0.79000	-2
0.79367	-2
0.79733	-3
0.80100	-3
0.80467	-3
0.80833	-3
0.81200	-2
0.81567	-2
0.81933	-2
0.82300	-2
0.82667	-2
0.83033	-2
0.83400	-1
0.83767	-1
0.84133	-1
0.84500	-0
0.84867	1
0.85233	1
0.85600	2
0.85967	2
0.86333	3
0.86700	3
0.87067	3
0.87433	4
0.87800	4
0.88167	4
0.88533	4
0.88900	3
0.89267	3
0.89633	3
0.90000	2
0.90367	1
0.90733	1
0.91100	-0
0.91467	-1
0.91833	-2
0.92200	-2
0.92567	-2
0.92933	-3
0.93300	-3
0.93667	-3
0.94033	-3
0.94400	-3
0.94767	-3
0.95133	-3
0.95500	-3
0.95867	-4
0.96233	-4
0.96600	-5
0.96967	-5
0.97333	-5
0.97700	-5
0.98067	-5
0.98433	-5
0.98800	-5
0.99167	-5
0.99533	-5
0.99900	-5
1.00267	-5
1.00633	-5
1.01000	-5
1.01367	-5
1.01733	-5
1.02100	-5
1.02467	-5
1.02833	-5
1.03200	-5
1.03567	-4
1.03933	-4
1.04300	-4
1.04667	-4
1.05033	-4
1.05400	-4
1.05767	-4
1.06133	-4
1.06500	-4
1.06867	-4
1.07233	-4
1.07600	-4
1.07967	-3
1.08333	-3
1.08700	-3
1.09067	-2
1.09433	-2
1.09800	-2
1.10167	-1
1.10533	-1
1.10900	-1
1.11267	-1
1.11633	-1
1.12000	-1
1.12367	-1
1.12733	-1
1.13100	-1
1.13467	-2
1.13833	-2
1.14200	-2
1.14567	-3
1.14933	-3
1.15300	-3
1.15667	-4
1.16033	-4
1.16400	-4
1.16767	-4
1.17133	-4
1.17500	-3
1.17867	-3
1.18233	-2
1.18600	-2
1.18967	-2
1.19333	-2
1.19700	-1
1.20067	-1
1.20433	-2
1.20800	-2
1.21167	-2
1.21533	-2
1.21900	-2
1.22267	-2
1.22633	-2
1.23000	-2
1.23367	-2
1.23733	-3
1.24100	-3
1.24467	-3
1.24833	-3
1.25200	-3
1.25567	-3
1.25933	-3
1.26300	-3
1.26667	-4
1.27033	-4
1.27400	-3
1.27767	-3
1.28133	-3
1.28500	-3
1.28867	-3
1.29233	-3
1.29600	-3
1.29967	-3
1.30333	-3
1.30700	-3
1.31067	-3
1.31433	-3
1.31800	-4
1.32167	-4
1.32533	-4
1.32900	-4
1.33267	-4
1.33633	-4
1.34000	-3
1.34367	-3
1.34733	-3
1.35100	-3
1.35467	-3
1.35833	-3
1.36200	-3
1.36567	-3
1.36933	-3
1.37300	-3
1.37667	-3
1.38033	-3
1.38400	-2
1.38767	-2
1.39133	-2
1.39500	-2
1.39867	-1
1.40233	-2
1.40600	-2
1.40967	-2
1.41333	-3
1.41700	-3
1.42067	-4
1.42433	-4
1.42800	-5
1.43167	-5
1.43533	-5
1.43900	-5
1.44267	-5
1.44633	-5
1.45000	-5
1.45367	-5
1.45733	-5
1.46100	-6
1.46467	-5
1.46833	-5
1.47200	-5
1.47567	-6
1.47933	-6
1.48300	-6
1.48667	-7
1.49033	-7
1.49400	-7
1.49767	-7
1.50133	-8
1.50500	-8
1.50867	-8
1.51233	-8
1.51600	-8
1.51967	-7
1.52333	-7
1.52700	-6
1.53067	-6
1.53433	-6
1.53800	-5
1.54167	-5
1.54533	-4
1.54900	-4
1.55267	-4
1.55633	-4
1.56000	-4
1.56367	-4
1.56733	-4
1.57100	-3
1.57467	-3
1.57833	-4
1.58200	-4
1.58567	-4
1.58933	-4
1.59300	-4
1.59667	-5
1.60033	-6
1.60400	-7
1.60767	-9
1.61133	-10
1.61500	-12
1.61867	-15
1.62233	-17
1.62600	-19
1.62967	-22
1.63333	-25
1.63700	-29
1.64067	-32
1.64433	-35
1.64800	-39
1.65167	-42
1.65533	-46
1.65900	-49
1.66267	-52
1.66633	-55
1.67000	-59
1.67367	-63
1.67733	-67
1.68100	-71
1.68467	-76
1.68833	-81
1.69200	-86
1.69567	-90
1.69933	-94
1.70300	-98
1.70667	-100
1.71033	-103
1.71400	-105
1.71767	-106
1.72133	-108
1.72500	-109
1.72867	-109
1.73233	-110
1.73600	-109
1.73967	-109
1.74333	-109
1.74700	-109
1.75067	-108
1.75433	-108
1.75800	-107
1.76167	-107
1.76533	-108
1.76900	-108
1.77267	-109
1.77633	-110
1.78000	-110
1.78367	-111
1.78733	-112
1.79100	-112
1.79467	-113
1.79833	-113
1.80200	-113
1.80567	-112
1.80933	-112
1.81300	-112
1.81667	-112
1.82033	-113
1.82400	-113
1.82767	-114
1.83133	-115
1.83500	-116
1.83867	-116
1.84233	-116
1.84600	-116
1.84967	-116
1.85333	-115
1.85700	-115
1.86067	-115
1.86433	-115
1.86800	-115
1.87167	-115
1.87533	-114
1.87900	-114
1.88267	-114
1.88633	-114
1.89000	-113
1.89367	-113
1.89733	-113
1.90100	-112
1.90467	-112
1.90833	-112
1.91200	-113
1.91567	-113
1.91933	-113
1.92300	-114
1.92667	-114
1.93033	-114
1.93400	-114
1.93767	-114
1.94133	-114
1.94500	-113
1.94867	-112
1.95233	-112
1.95600	-111
1.95967	-110
1.96333	-110
1.96700	-110
1.97067	-110
1.97433	-110
1.97800	-109
1.98167	-108
1.98533	-108
1.98900	-107
1.99267	-107
1.99633	-107
2.00000	-107
2.00367	-106
2.00733	-106
2.01100	-106
2.01467	-106
2.01833	-106
2.02200	-106
2.02567	-106
2.02933	-106
2.03300	-106
2.03667	-105
2.04033	-105
2.04400	-105
2.04767	-105
2.05133	-105
2.05500	-105
2.05867	-105
2.06233	-106
2.06600	-106
2.06967	-105
2.07333	-105
2.07700	-103
2.08067	-102
2.08433	-101
2.08800	-101
2.09167	-101
2.09533	-100
2.09900	-100
2.10267	-100
2.10633	-100
2.11000	-100
2.11367	-100
2.11733	-100
2.12100	-99
2.12467	-98
2.12833	-98
2.13200	-97
2.13567	-96
2.13933	-96
2.14300	-95
2.14667	-95
2.15033	-94
2.15400	-93
2.15767	-93
2.16133	-92
2.16500	-91
2.16867	-90
2.17233	-89
2.17600	-89
2.17967	-89
2.18333	-89
2.18700	-89
2.19067	-89
2.19433	-90
2.19800	-89
2.20167	-89
2.20533	-89
2.20900	-89
2.21267	-88
2.21633	-88
2.22000	-88
2.22367	-88
2.22733	-88
2.23100	-88
2.23467	-88
2.23833	-88
2.24200	-88
2.24567	-88
2.24933	-88
2.25300	-88
2.25667	-88
2.26033	-88
2.26400	-89
2.26767	-89
2.27133	-88
2.27500	-88
2.27867	-87
2.28233	-86
2.28600	-85
2.28967	-84
2.29333	-83
2.29700	-83
2.30067	-82
2.30433	-82
2.30800	-82
2.31167	-82
2.31533	-82
2.31900	-82
2.32267	-81
2.32633	-80
2.33000	-79
2.33367	-78
2.33733	-76
2.34100	-76
2.34467	-76
2.34833	-76
2.35200	-76
2.35567	-76
2.35933	-76
2.36300	-75
2.36667	-74
2.37033	-72
2.37400	-69
2.37767	-66
2.38133	-62
2.38500	-58
2.38867	-54
2.39233	-49
2.39600	-44
2.39967	-40
2.40333	-35
2.40700	-30
2.41067	-26
2.41433	-22
2.41800	-19
2.42167	-16
2.42533	-14
2.42900	-13
2.43267	-11
2.43633	-9
2.44000	-8
2.44367	-7
2.44733	-7
2.45100	-6
2.45467	-6
2.45833	-6
2.46200	-6
2.46567	-5
2.46933	-4
2.47300	-3
2.47667	-1
2.48033	-0
2.48400	1
2.48767	2
2.49133	3
2.49500	3
2.49867	4
2.50233	5
2.50600	6
2.50967	7
2.51333	8
2.51700	8
2.52067	9
2.52433	9
2.52800	10
2.53167	10
2.53533	11
2.53900	12
2.54267	13
2.54633	14
2.55000	14
2.55367	15
2.55733	15
2.56100	15
2.56467	15
2.56833	15
2.57200	15
2.57567	14
2.57933	14
2.58300	14
2.58667	15
2.59033	15
2.59400	15
2.59767	15
2.60133	15
2.60500	16
2.60867	16
2.61233	16
2.61600	17
2.61967	18
2.62333	18
2.62700	19
2.63067	18
2.63433	18
2.63800	18
2.64167	18
2.64533	18
2.64900	18
2.65267	18
2.65633	18
2.66000	18
2.66367	19
2.66733	19
2.67100	19
2.67467	20
2.67833	21
2.68200	21
2.68567	22
2.68933	22
2.69300	22
2.69667	23
2.70033	23
2.70400	23
2.70767	23
2.71133	23
2.71500	23
2.71867	23
2.72233	23
2.72600	23
2.72967	22
2.73333	22
2.73700	22
2.74067	22
2.74433	22
2.74800	23
2.75167	23
2.75533	24
2.75900	24
2.76267	25
2.76633	25
2.77000	26
2.77367	27
2.77733	27
2.78100	27
2.78467	27
2.78833	26
2.79200	26
2.79567	25
2.79933	25
2.80300	25
2.80667	25
2.81033	25
2.81400	25
2.81767	25
2.82133	25
2.82500	25
2.82867	26
2.83233	26
2.83600	26
2.83967	25
2.84333	24
2.84700	21
2.85067	17
2.85433	9
2.85800	-1
2.86167	-16
2.86533	-36
2.86900	-61
2.87267	-91
2.87633	-126
2.88000	-168
2.88367	-215
2.88733	-268
2.89100	-325
2.89467	-388
2.89833	-454
2.90200	-525
2.90567	-600
2.90933	-678
2.91300	-758
2.91667	-842
2.92033	-928
2.92400	-1017
2.92767	-1108
2.93133	-1200
2.93500	-1295
2.93867	-1389
2.94233	-1473
2.94600	-1535
2.94967	-1564
2.95333	-1556
2.95700	-1512
2.96067	-1440
2.96433	-1346
2.96800	-1240
2.97167	-1128
2.97533	-1014
2.97900	-904
2.98267	-799
2.98633	-702
2.99000	-613
2.99367	-533
2.99733	-462
3.00100	-398
3.00467	-343
3.00833	-294
3.01200	-252
3.01567	-215
3.01933	-183
3.02300	-156
3.02667	-133
3.03033	-113
3.03400	-96
3.03767	-81
3.04133	-68
3.04500	-57
3.04867	-48
3.05233	-40
3.05600	-33
3.05967	-27
3.06333	-22
3.06700	-17
3.07067	-14
3.07433	-10
3.07800	-8
3.08167	-5
3.08533	-3
3.08900	-1
3.09267	0
3.09633	1
3.10000	3
3.10367	4
3.10733	6
3.11100	7
3.11467	8
3.11833	9
3.12200	9
3.12567	10
3.12933	11
3.13300	12
3.13667	12
3.14033	13
3.14400	13
3.14767	14
3.15133	14
3.15500	14
3.15867	14
3.16233	14
3.16600	15
3.16967	15
3.17333	16
3.17700	16
3.18067	17
3.18433	17
3.18800	17
3.19167	18
3.19533	18
3.19900	18
3.20267	18
3.20633	18
3.21000	18
3.21367	18
3.21733	18
3.22100	18
3.22467	18
3.22833	19
3.23200	19
3.23567	19
3.23933	19
3.24300	19
3.24667	19
3.25033	20
3.25400	20
3.25767	20
3.26133	21
3.26500	21
3.26867	21
3.27233	21
3.27600	21
3.27967	22
3.28333	22
3.28700	22
3.29067	22
3.29433	23
3.29800	23
3.30167	24
3.30533	24
3.30900	25
3.31267	25
3.31633	25
3.32000	26
3.32367	26
3.32733	26
3.33100	26
3.33467	26
3.33833	26
3.34200	26
3.34567	26
3.34933	26
3.35300	26
3.35667	26
3.36033	25
3.36400	25
3.36767	25
3.37133	25
3.37500	24
3.37867	24
3.38233	24
3.38600	24
3.38967	24
3.39333	24
3.39700	24
3.40067	25
3.40433	25
3.40800	25
3.41167	25
3.41533	25
3.41900	25
3.42267	25
3.42633	25
3.43000	25
3.43367	26
3.43733	26
3.44100	26
3.44467	26
3.44833	26
3.45200	26
3.45567	26
3.45933	26
3.46300	26
3.46667	26
3.47033	26
3.47400	26
3.47767	27
3.48133	27
3.48500	27
3.48867	27
3.49233	26
3.49600	26
3.49967	26
3.50333	26
3.50700	25
3.51067	25
3.51433	25
3.51800	25
3.52167	25
3.52533	25
3.52900	24
3.53267	24
3.53633	24
3.54000	24
3.54367	25
3.54733	25
3.55100	25
3.55467	25
3.55833	25
3.56200	25
3.56567	25
3.56933	25
3.57300	26
3.57667	26
3.58033	26
3.58400	27
3.58767	27
3.59133	27
3.59500	27
3.59867	26
3.60233	26
3.60600	26
3.60967	25
3.61333	25
3.61700	25
3.62067	25
3.62433	25
3.62800	25
3.63167	25
3.63533	25
3.63900	25
3.64267	25
3.64633	25
3.65000	25
3.65367	25
3.65733	25
3.66100	25
3.66467	25
3.66833	26
3.67200	26
3.67567	26
3.67933	26
3.68300	26
3.68667	26
3.69033	26
3.69400	26
3.69767	27
3.70133	27
3.70500	27
3.70867	27
3.71233	27
3.71600	27
3.71967	27
3.72333	27
3.72700	27
3.73067	27
3.73433	27
3.73800	27
3.74167	27
3.74533	27
3.74900	27
3.75267	26
3.75633	26
3.76000	26
3.76367	25
3.76733	25
3.77100	25
3.77467	24
3.77833	24
3.78200	24
3.78567	24
3.78933	23
3.79300	24
3.79667	24
3.80033	24
3.80400	24
3.80767	24
3.81133	24
3.81500	24
3.81867	24
3.82233	24
3.82600	24
3.82967	24
3.83333	24
3.83700	24
3.84067	24
3.84433	25
3.84800	25
3.85167	25
3.85533	26
3.85900	26
3.86267	26
3.86633	26
3.87000	26
3.87367	26
3.87733	26
3.88100	26
3.88467	26
3.88833	26
3.89200	27
3.89567	27
3.89933	27
3.90300	27
3.90667	27
3.91033	27
3.91400	27
3.91767	27
3.92133	27
3.92500	27
3.92867	27
3.93233	27
3.93600	27
3.93967	27
3.94333	27
3.94700	26
3.95067	26
3.95433	26
3.95800	27
3.96167	27
3.96533	27
3.96900	27
3.97267	27
3.97633	27
3.98000	27
3.98367	27
3.98733	27
3.99100	27
3.99467	27
3.99833	27

[Chromatogram (Ch3)]
Interval(msec)	220
# of Points	1091
Start Time(min)	0.002
End Time(min)	3.998
R.Time (min)	Intensity
0.00167	-1
0.00533	-3
0.00900	-4
0.01267	-4
0.01633	-3
0.02000	-2
0.02367	-3
0.02733	-2
0.03100	-3
0.03467	-4
0.03833	-3
0.04200	-3
0.04567	-2
0.04933	-3
0.05300	-3
0.05667	-0
0.06033	2
0.06400	1
0.06767	-1
0.07133	-2
0.07500	-2
0.07867	-1
0.08233	-0
0.08600	0
0.08967	-1
0.09333	-3
0.09700	-6
0.10067	-8
0.10433	-7
0.10800	-4
0.11167	-3
0.11533	-1
0.11900	-1
0.12267	-1
0.12633	-1
0.13000	-0
0.13367	-0
0.13733	-2
0.14100	-3
0.14467	-1
0.14833	1
0.15200	2
0.15567	4
0.15933	8
0.16300	8
0.16667	8
0.17033	5
0.17400	3
0.17767	3
0.18133	2
0.18500	3
0.18867	4
0.19233	5
0.19600	3
0.19967	-1
0.20333	-1
0.20700	1
0.21067	3
0.21433	1
0.21800	-1
0.22167	-2
0.22533	-2
0.22900	-2
0.23267	-1
0.23633	2
0.24000	3
0.24367	2
0.24733	2
0.25100	4
0.25467	4
0.25833	5
0.26200	4
0.26567	3
0.26933	4
0.27300	5
0.27667	5
0.28033	4
0.28400	3
0.28767	3
0.29133	5
0.29500	6
0.29867	6
0.30233	5
0.30600	4
0.30967	5
0.31333	5
0.31700	4
0.32067	3
0.32433	4
0.32800	6
0.33167	8
0.33533	8
0.33900	6
0.34267	3
0.34633	1
0.35000	-1
0.35367	-1
0.35733	-0
0.36100	0
0.36467	3
0.36833	3
0.37200	1
0.37567	-0
0.37933	-0
0.38300	3
0.38667	4
0.39033	5
0.39400	6
0.39767	6
0.40133	6
0.40500	5
0.40867	3
0.41233	2
0.41600	4
0.41967	6
0.42333	5
0.42700	6
0.43067	9
0.43433	10
0.43800	9
0.44167	8
0.44533	6
0.44900	4
0.45267	4
0.45633	3
0.46000	4
0.46367	4
0.46733	7
0.47100	6
0.47467	5
0.47833	2
0.48200	2
0.48567	3
0.48933	2
0.49300	2
0.49667	0
0.50033	0
0.50400	1
0.50767	3
0.51133	7
0.51500	9
0.51867	8
0.52233	8
0.52600	7
0.52967	4
0.53333	2
0.53700	0
0.54067	0
0.54433	-1
0.54800	-1
0.55167	1
0.55533	3
0.55900	4
0.56267	3
0.56633	1
0.57000	1
0.57367	2
0.57733	2
0.58100	0
0.58467	-0
0.58833	0
0.59200	0
0.59567	-0
0.59933	2
0.60300	6
0.60667	8
0.61033	7
0.61400	7
0.61767	5
0.62133	3
0.62500	4
0.62867	4
0.63233	6
0.63600	9
0.63967	11
0.64333	10
0.64700	8
0.65067	6
0.65433	4
0.65800	5
0.66167	5
0.66533	6
0.66900	6
0.67267	7
0.67633	8
0.68000	9
0.68367	9
0.68733	9
0.69100	10
0.69467	12
0.69833	13
0.70200	12
0.70567	10
0.70933	9
0.71300	7
0.71667	6
0.72033	4
0.72400	4
0.72767	5
0.73133	7
0.73500	8
0.73867	10
0.74233	11
0.74600	12
0.74967	9
0.75333	7
0.75700	7
0.76067	7
0.76433	7
0.76800	6
0.77167	5
0.77533	6
0.77900	6
0.78267	5
0.78633	8
0.79000	9
0.79367	9
0.79733	8
0.80100	6
0.80467	5
0.80833	6
0.81200	8
0.81567	10
0.81933	10
0.82300	11
0.82667	10
0.83033	7
0.83400	8
0.83767	9
0.84133	10
0.84500	13
0.84867	15
0.85233	15
0.85600	16
0.85967	16
0.86333	16
0.86700	13
0.87067	11
0.87433	8
0.87800	7
0.88167	6
0.88533	6
0.88900	8
0.89267	8
0.89633	8
0.90000	8
0.90367	8
0.90733	9
0.91100	8
0.91467	8
0.91833	8
0.92200	9
0.92567	11
0.92933	11
0.93300	11
0.93667	11
0.94033	11
0.94400	10
0.94767	10
0.95133	11
0.95500	11
0.95867	11
0.96233	11
0.96600	12
0.96967	13
0.97333	13
0.97700	13
0.98067	13
0.98433	14
0.98800	15
0.99167	14
0.99533	14
0.99900	14
1.00267	14
1.00633	17
1.01000	20
1.01367	20
1.01733	19
1.02100	17
1.02467	17
1.02833	19
1.03200	19
1.03567	20
1.03933	20
1.04300	19
1.04667	18
1.05033	17
1.05400	16
1.05767	17
1.06133	15
1.06500	15
1.06867	13
1.07233	11
1.07600	11
1.07967	13
1.08333	17
1.08700	21
1.09067	22
1.09433	24
1.09800	26
1.10167	28
1.10533	29
1.10900	29
1.11267	29
1.11633	28
1.12000	27
1.12367	25
1.12733	23
1.13100	22
1.13467	22
1.13833	21
1.14200	19
1.14567	18
1.14933	18
1.15300	19
1.15667	19
1.16033	18
1.16400	17
1.16767	17
1.17133	17
1.17500	17
1.17867	17
1.18233	18
1.18600	17
1.18967	18
1.19333	20
1.19700	20
1.20067	21
1.20433	22
1.20800	23
1.21167	24
1.21533	23
1.21900	22
1.22267	21
1.22633	21
1.23000	22
1.23367	20
1.23733	20
1.24100	21
1.24467	22
1.24833	22
1.25200	22
1.25567	21
1.25933	19
1.26300	18
1.26667	19
1.27033	20
1.27400	21
1.27767	21
1.28133	20
1.28500	22
1.28867	23
1.29233	22
1.29600	21
1.29967	22
1.30333	23
1.30700	23
1.31067	21
1.31433	19
1.31800	19
1.32167	23
1.32533	24
1.32900	24
1.33267	25
1.33633	26
1.34000	26
1.34367	25
1.34733	24
1.35100	21
1.35467	18
1.35833	20
1.36200	21
1.36567	23
1.36933	24
1.37300	23
1.37667	25
1.38033	26
1.38400	24
1.38767	22
1.39133	21
1.39500	23
1.39867	25
1.40233	28
1.40600	28
1.40967	25
1.41333	25
1.41700	27
1.42067	27
1.42433	26
1.42800	25
1.43167	23
1.43533	23
1.43900	24
1.44267	24
1.44633	28
1.45000	31
1.45367	33
1.45733	32
1.46100	29
1.46467	29
1.46833	30
1.47200	30
1.47567	31
1.47933	30
1.48300	29
1.48667	30
1.49033	32
1.49400	33
1.49767	34
1.50133	34
1.50500	34
1.50867	31
1.51233	29
1.51600	29
1.51967	30
1.52333	30
1.52700	29
1.53067	29
1.53433	28
1.53800	27
1.54167	28
1.54533	30
1.54900	28
1.55267	26
1.55633	26
1.56000	26
1.56367	25
1.56733	25
1.57100	28
1.57467	30
1.57833	33
1.58200	33
1.58567	30
1.58933	29
1.59300	28
1.59667	28
1.60033	29
1.60400	31
1.60767	31
1.61133	32
1.61500	34
1.61867	34
1.62233	36
1.62600	36
1.62967	36
1.63333	36
1.63700	38
1.64067	38
1.64433	40
1.64800	40
1.65167	40
1.65533	38
1.65900	37
1.66267	37
1.66633	38
1.67000	39
1.67367	41
1.67733	43
1.68100	43
1.68467	43
1.68833	43
1.69200	43
1.69567	43
1.69933	43
1.70300	42
1.70667	44
1.71033	46
1.71400	47
1.71767	46
1.72133	45
1.72500	45
1.72867	47
1.73233	47
1.73600	47
1.73967	48
1.74333	49
1.74700	51
1.75067	50
1.75433	49
1.75800	50
1.76167	51
1.76533	52
1.76900	53
1.77267	55
1.77633	56
1.78000	58
1.78367	61
1.78733	61
1.79100	60
1.79467	58
1.79833	57
1.80200	56
1.80567	56
1.80933	56
1.81300	55
1.81667	57
1.82033	60
1.82400	62
1.82767	63
1.83133	65
1.83500	66
1.83867	67
1.84233	67
1.84600	67
1.84967	66
1.85333	65
1.85700	67
1.86067	69
1.86433	70
1.86800	72
1.87167	72
1.87533	72
1.87900	74
1.88267	77
1.88633	76
1.89000	73
1.89367	74
1.89733	75
1.90100	77
1.90467	78
1.90833	79
1.91200	80
1.91567	81
1.91933	80
1.92300	80
1.92667	83
1.93033	86
1.93400	86
1.93767	88
1.94133	89
1.94500	89
1.94867	89
1.95233	89
1.95600	89
1.95967	91
1.96333	91
1.96700	91
1.97067	92
1.97433	92
1.97800	93
1.98167	95
1.98533	96
1.98900	96
1.99267	95
1.99633	95
2.00000	96
2.00367	99
2.00733	102
2.01100	104
2.01467	104
2.01833	105
2.02200	107
2.02567	109
2.02933	111
2.03300	113
2.03667	113
2.04033	114
2.04400	114
2.04767	114
2.05133	116
2.05500	117
2.05867	118
2.06233	118
2.06600	120
2.06967	120
2.07333	119
2.07700	120
2.08067	121
2.08433	123
2.08800	125
2.09167	129
2.09533	130
2.09900	131
2.10267	133
2.10633	136
2.11000	138
2.11367	141
2.11733	141
2.12100	141
2.12467	143
2.12833	146
2.13200	147
2.13567	148
2.13933	150
2.14300	150
2.14667	151
2.15033	152
2.15400	154
2.15767	153
2.16133	154
2.16500	157
2.16867	159
2.17233	160
2.17600	161
2.17967	164
2.18333	168
2.18700	171
2.19067	172
2.19433	173
2.19800	175
2.20167	174
2.20533	175
2.20900	175
2.21267	176
2.21633	177
2.22000	176
2.22367	176
2.22733	178
2.23100	179
2.23467	181
2.23833	183
2.24200	184
2.24567	187
2.24933	187
2.25300	188
2.25667	189
2.26033	191
2.26400	194
2.26767	196
2.27133	198
2.27500	198
2.27867	197
2.28233	198
2.28600	202
2.28967	204
2.29333	205
2.29700	206
2.30067	209
2.30433	210
2.30800	210
2.31167	211
2.31533	212
2.31900	213
2.32267	212
2.32633	212
2.33000	213
2.33367	216
2.33733	218
2.34100	217
2.34467	216
2.34833	217
2.35200	219
2.35567	223
2.35933	224
2.36300	224
2.36667	225
2.37033	226
2.37400	226
2.37767	225
2.38133	226
2.38500	226
2.38867	222
2.39233	221
2.39600	222
2.39967	225
2.40333	229
2.40700	233
2.41067	234
2.41433	234
2.41800	235
2.42167	235
2.42533	234
2.42900	235
2.43267	235
2.43633	235
2.44000	238
2.44367	289
2.44733	426
2.45100	575
2.45467	701
2.45833	769
2.46200	774
2.46567	748
2.46933	717
2.47300	692
2.47667	677
2.48033	659
2.48400	627
2.48767	584
2.49133	538
2.49500	496
2.49867	461
2.50233	438
2.50600	426
2.50967	421
2.51333	427
2.51700	441
2.52067	461
2.52433	479
2.52800	489
2.53167	485
2.53533	469
2.53900	445
2.54267	416
2.54633	382
2.55000	354
2.55367	329
2.55733	311
2.56100	297
2.56467	287
2.56833	278
2.57200	272
2.57567	269
2.57933	269
2.58300	271
2.58667	273
2.59033	273
2.59400	273
2.59767	275
2.60133	275
2.60500	273
2.60867	270
2.61233	264
2.61600	256
2.61967	250
2.62333	244
2.62700	238
2.63067	232
2.63433	225
2.63800	217
2.64167	211
2.64533	206
2.64900	200
2.65267	190
2.65633	180
2.66000	171
2.66367	162
2.66733	154
2.67100	146
2.67467	139
2.67833	132
2.68200	127
2.68567	124
2.68933	120
2.69300	119
2.69667	119
2.70033	119
2.70400	121
2.70767	124
2.71133	126
2.71500	130
2.71867	132
2.72233	135
2.72600	138
2.72967	141
2.73333	144
2.73700	147
2.74067	149
2.74433	150
2.74800	152
2.75167	153
2.75533	155
2.75900	158
2.76267	160
2.76633	163
2.77000	164
2.77367	168
2.77733	171
2.78100	172
2.78467	173
2.78833	177
2.79200	180
2.79567	183
2.79933	186
2.80300	190
2.80667	196
2.81033	203
2.81400	211
2.81767	222
2.82133	248
2.82500	302
2.82867	420
2.83233	651
2.83600	1061
2.83967	1714
2.84333	2660
2.84700	3909
2.85067	5431
2.85433	7155
2.85800	8971
2.86167	10748
2.86533	12340
2.86900	13629
2.87267	14530
2.87633	15003
2.88000	15061
2.88367	14749
2.88733	14140
2.89100	13313
2.89467	12352
2.89833	11326
2.90200	10286
2.90567	9267
2.90933	8298
2.91300	7393
2.91667	6560
2.92033	5803
2.92400	5122
2.92767	4515
2.93133	3976
2.93500	3497
2.93867	3072
2.94233	2698
2.94600	2371
2.94967	2084
2.95333	1836
2.95700	1618
2.96067	1427
2.96433	1262
2.96800	1117
2.97167	991
2.97533	882
2.97900	789
2.98267	709
2.98633	639
2.99000	578
2.99367	527
2.99733	482
3.00100	443
3.00467	410
3.00833	382
3.01200	356
3.01567	335
3.01933	314
3.02300	300
3.02667	288
3.03033	275
3.03400	264
3.03767	254
3.04133	244
3.04500	237
3.04867	233
3.05233	229
3.05600	220
3.05967	203
3.06333	173
3.06700	152
3.07067	152
3.07433	171
3.07800	200
3.08167	233
3.08533	271
3.08900	312
3.09267	355
3.09633	400
3.10000	441
3.10367	480
3.10733	516
3.11100	550
3.11467	581
3.11833	608
3.12200	630
3.12567	647
3.12933	661
3.13300	673
3.13667	684
3.14033	695
3.14400	704
3.14767	709
3.15133	716
3.15500	723
3.15867	730
3.16233	739
3.16600	747
3.16967	754
3.17333	759
3.17700	764
3.18067	769
3.18433	772
3.18800	776
3.19167	779
3.19533	781
3.19900	786
3.20267	792
3.20633	799
3.21000	807
3.21367	811
3.21733	815
3.22100	820
3.22467	824
3.22833	828
3.23200	834
3.23567	840
3.23933	844
3.24300	849
3.24667	854
3.25033	858
3.25400	860
3.25767	862
3.26133	865
3.26500	867
3.26867	870
3.27233	873
3.27600	875
3.27967	878
3.28333	881
3.28700	884
3.29067	887
3.29433	890
3.29800	891
3.30167	890
3.30533	889
3.30900	889
3.31267	890
3.31633	889
3.32000	887
3.32367	885
3.32733	884
3.33100	885
3.33467	885
3.33833	886
3.34200	886
3.34567	886
3.34933	883
3.35300	881
3.35667	880
3.36033	878
3.36400	877
3.36767	876
3.37133	874
3.37500	872
3.37867	871
3.38233	870
3.38600	867
3.38967	862
3.39333	860
3.39700	858
3.40067	856
3.40433	854
3.40800	854
3.41167	852
3.41533	848
3.41900	845
3.42267	842
3.42633	839
3.43000	836
3.43367	835
3.43733	834
3.44100	836
3.44467	836
3.44833	836
3.45200	834
3.45567	834
3.45933	834
3.46300	831
3.46667	828
3.47033	827
3.47400	825
3.47767	822
3.48133	820
3.48500	818
3.48867	817
3.49233	816
3.49600	817
3.49967	817
3.50333	816
3.50700	815
3.51067	816
3.51433	814
3.51800	812
3.52167	810
3.52533	808
3.52900	808
3.53267	808
3.53633	806
3.54000	804
3.54367	801
3.54733	802
3.55100	803
3.55467	804
3.55833	803
3.56200	802
3.56567	800
3.56933	797
3.57300	792
3.57667	788
3.58033	785
3.58400	783
3.58767	782
3.59133	781
3.59500	781
3.59867	779
3.60233	779
3.60600	781
3.60967	781
3.61333	779
3.61700	778
3.62067	777
3.62433	774
3.62800	771
3.63167	768
3.63533	767
3.63900	766
3.64267	764
3.64633	762
3.65000	761
3.65367	759
3.65733	757
3.66100	755
3.66467	753
3.66833	750
3.67200	748
3.67567	744
3.67933	742
3.68300	741
3.68667	740
3.69033	736
3.69400	731
3.69767	726
3.70133	723
3.70500	722
3.70867	722
3.71233	720
3.71600	718
3.71967	716
3.72333	710
3.72700	707
3.73067	706
3.73433	706
3.73800	705
3.74167	704
3.74533	703
3.74900	701
3.75267	698
3.75633	695
3.76000	691
3.76367	689
3.76733	688
3.77100	684
3.77467	683
3.77833	680
3.78200	678
3.78567	676
3.78933	675
3.79300	674
3.79667	672
3.80033	671
3.80400	670
3.80767	668
3.81133	664
3.81500	660
3.81867	659
3.82233	658
3.82600	658
3.82967	656
3.83333	654
3.83700	651
3.84067	650
3.84433	649
3.84800	647
3.85167	645
3.85533	642
3.85900	638
3.86267	635
3.86633	633
3.87000	632
3.87367	631
3.87733	628
3.88100	627
3.88467	627
3.88833	627
3.89200	626
3.89567	622
3.89933	617
3.90300	616
3.90667	614
3.91033	611
3.91400	610
3.91767	609
3.92133	609
3.92500	608
3.92867	605
3.93233	603
3.93600	603
3.93967	602
3.94333	601
3.94700	601
3.95067	601
3.95433	600
3.95800	598
3.96167	596
3.96533	595
3.96900	594
3.97267	590
3.97633	587
3.98000	583
3.98367	584
3.98733	584
3.99100	584
3.99467	581
3.99833	577

[Status Trace (Column Oven Temperature)]
Interval(msec)	1000
# of Points	240
Start Time(min)	0.006
End Time(min)	3.989
Intensity Units	
Intensity Multiplier	1
R.Time (min)	Intensity
0.00613	35.04
0.02280	35.04
0.03947	35.05
0.05613	35.05
0.07280	35.06
0.08947	35.07
0.10613	35.07
0.12280	35.07
0.13947	35.06
0.15613	35.05
0.17280	35.05
0.18947	35.04
0.20613	35.03
0.22280	35.03
0.23947	35.02
0.25613	35.02
0.27280	35.01
0.28947	35.00
0.30613	34.99
0.32280	34.99
0.33947	34.99
0.35613	35.00
0.37280	35.02
0.38947	35.03
0.40613	35.03
0.42280	35.02
0.43947	35.02
0.45613	35.03
0.47280	35.04
0.48947	35.04
0.50613	35.03
0.52280	35.04
0.53947	35.03
0.55613	35.02
0.57280	35.01
0.58947	35.01
0.60613	35.00
0.62280	34.99
0.63947	34.99
0.65613	35.00
0.67280	35.00
0.68947	34.99
0.70613	34.98
0.72280	34.99
0.73947	35.00
0.75613	35.02
0.77280	35.01
0.78947	35.01
0.80613	35.01
0.82280	35.00
0.83947	34.99
0.85613	34.98
0.87280	34.96
0.88947	34.95
0.90613	34.94
0.92280	34.95
0.93947	34.95
0.95613	34.95
0.97280	34.97
0.98947	34.98
1.00613	34.99
1.02280	35.00
1.03947	35.00
1.05613	35.00
1.07280	34.99
1.08947	34.98
1.10613	34.97
1.12280	34.98
1.13947	34.99
1.15613	35.00
1.17280	34.99
1.18947	34.98
1.20613	34.98
1.22280	34.98
1.23947	34.99
1.25613	34.99
1.27280	34.99
1.28947	34.98
1.30613	34.98
1.32280	34.97
1.33947	34.98
1.35613	34.98
1.37280	34.97
1.38947	34.96
1.40613	34.97
1.42280	34.97
1.43947	34.98
1.45613	34.98
1.47280	35.00
1.48947	35.02
1.50613	35.03
1.52280	35.03
1.53947	35.02
1.55613	35.02
1.57280	35.02
1.58947	35.03
1.60613	35.08
1.62280	35.19
1.63947	35.38
1.65613	35.59
1.67280	35.89
1.68947	36.27
1.70613	36.64
1.72280	36.99
1.73947	37.31
1.75613	37.62
1.77280	37.96
1.78947	38.30
1.80613	38.61
1.82280	38.97
1.83947	39.30
1.85613	39.62
1.87280	39.96
1.88947	40.28
1.90613	40.60
1.92280	40.94
1.93947	41.27
1.95613	41.60
1.97280	41.92
1.98947	42.24
2.00613	42.57
2.02280	42.90
2.03947	43.22
2.05613	43.56
2.07280	43.87
2.08947	44.20
2.10613	44.54
2.12280	44.86
2.13947	45.19
2.15613	45.51
2.17280	45.82
2.18947	46.14
2.20613	46.47
2.22280	46.80
2.23947	47.12
2.25613	47.48
2.27280	47.80
2.28947	48.11
2.30613	48.46
2.32280	48.78
2.33947	49.10
2.35613	49.43
2.37280	49.62
2.38947	49.67
2.40613	49.65
2.42280	49.66
2.43947	49.65
2.45613	49.68
2.47280	49.68
2.48947	49.70
2.50613	49.71
2.52280	49.72
2.53947	49.72
2.55613	49.74
2.57280	49.77
2.58947	49.78
2.60613	49.80
2.62280	49.81
2.63947	49.83
2.65613	49.85
2.67280	49.85
2.68947	49.84
2.70613	49.85
2.72280	49.86
2.73947	49.86
2.75613	49.85
2.77280	49.84
2.78947	49.86
2.80613	49.86
2.82280	49.87
2.83947	49.88
2.85613	49.88
2.87280	49.88
2.88947	49.89
2.90613	49.90
2.92280	49.91
2.93947	49.92
2.95613	49.94
2.97280	49.95
2.98947	49.95
3.00613	49.97
3.02280	49.99
3.03947	50.00
3.05613	50.01
3.07280	50.02
3.08947	50.04
3.10613	50.05
3.12280	50.05
3.13947	50.05
3.15613	50.06
3.17280	50.07
3.18947	50.07
3.20613	50.08
3.22280	50.09
3.23947	50.10
3.25613	50.10
3.27280	50.09
3.28947	50.09
3.30613	50.08
3.32280	50.08
3.33947	50.08
3.35613	50.07
3.37280	50.08
3.38947	50.08
3.40613	50.09
3.42280	50.08
3.43947	50.07
3.45613	50.07
3.47280	50.07
3.48947	50.07
3.50613	50.08
3.52280	50.09
3.53947	50.09
3.55613	50.10
3.57280	50.09
3.58947	50.09
3.60613	50.09
3.62280	50.09
3.63947	50.09
3.65613	50.10
3.67280	50.08
3.68947	50.08
3.70613	50.07
3.72280	50.06
3.73947	50.07
3.75613	50.08
3.77280	50.10
3.78947	50.10
3.80613	50.10
3.82280	50.10
3.83947	50.09
3.85613	50.09
3.87280	50.08
3.88947	50.08
3.90613	50.07
3.92280	50.07
3.93947	50.08
3.95613	50.06
3.97280	50.05
3.98947	50.04

[Status Trace (Injection Unit Temperature)]
Interval(msec)	1000
# of Points	240
Start Time(min)	0.006
End Time(min)	3.989
Intensity Units	
Intensity Multiplier	1
R.Time (min)	Intensity
0.00613	99.98
0.02280	99.98
0.03947	99.98
0.05613	99.98
0.07280	99.98
0.08947	99.98
0.10613	99.98
0.12280	99.98
0.13947	99.98
0.15613	99.98
0.17280	99.98
0.18947	99.98
0.20613	99.98
0.22280	99.98
0.23947	99.98
0.25613	99.98
0.27280	99.98
0.28947	99.98
0.30613	99.98
0.32280	99.98
0.33947	99.98
0.35613	99.98
0.37280	99.98
0.38947	99.98
0.40613	99.98
0.42280	99.98
0.43947	99.97
0.45613	99.97
0.47280	99.97
0.48947	99.97
0.50613	99.97
0.52280	99.98
0.53947	99.97
0.55613	99.98
0.57280	99.98
0.58947	99.97
0.60613	99.98
0.62280	99.98
0.63947	99.98
0.65613	99.98
0.67280	99.98
0.68947	99.98
0.70613	99.98
0.72280	99.98
0.73947	99.97
0.75613	99.98
0.77280	99.97
0.78947	99.98
0.80613	99.98
0.82280	99.98
0.83947	99.98
0.85613	99.98
0.87280	99.98
0.88947	99.98
0.90613	99.98
0.92280	99.98
0.93947	99.98
0.95613	99.98
0.97280	99.98
0.98947	99.98
1.00613	99.98
1.02280	99.98
1.03947	99.98
1.05613	99.97
1.07280	99.98
1.08947	99.98
1.10613	99.98
1.12280	99.98
1.13947	99.98
1.15613	99.98
1.17280	99.98
1.18947	99.98
1.20613	99.98
1.22280	99.98
1.23947	99.98
1.25613	99.98
1.27280	99.98
1.28947	99.98
1.30613	99.98
1.32280	99.98
1.33947	99.98
1.35613	99.98
1.37280	99.98
1.38947	99.99
1.40613	99.98
1.42280	99.98
1.43947	99.98
1.45613	99.98
1.47280	99.98
1.48947	99.98
1.50613	99.98
1.52280	99.98
1.53947	99.98
1.55613	99.98
1.57280	99.98
1.58947	99.98
1.60613	99.98
1.62280	99.98
1.63947	99.98
1.65613	99.99
1.67280	99.99
1.68947	99.98
1.70613	99.98
1.72280	99.98
1.73947	99.99
1.75613	99.98
1.77280	99.98
1.78947	99.98
1.80613	99.98
1.82280	99.98
1.83947	99.98
1.85613	99.98
1.87280	99.98
1.88947	99.98
1.90613	99.98
1.92280	99.98
1.93947	99.98
1.95613	99.98
1.97280	99.98
1.98947	99.97
2.00613	99.97
2.02280	99.97
2.03947	99.97
2.05613	99.97
2.07280	99.97
2.08947	99.97
2.10613	99.97
2.12280	99.97
2.13947	99.97
2.15613	99.96
2.17280	99.97
2.18947	99.97
2.20613	99.96
2.22280	99.97
2.23947	99.97
2.25613	99.96
2.27280	99.97
2.28947	99.97
2.30613	99.96
2.32280	99.96
2.33947	99.96
2.35613	99.96
2.37280	99.97
2.38947	99.97
2.40613	99.96
2.42280	99.97
2.43947	99.97
2.45613	99.97
2.47280	99.96
2.48947	99.97
2.50613	99.97
2.52280	99.97
2.53947	99.97
2.55613	99.95
2.57280	99.97
2.58947	99.97
2.60613	99.98
2.62280	99.97
2.63947	99.98
2.65613	99.98
2.67280	99.98
2.68947	99.99
2.70613	99.98
2.72280	99.99
2.73947	99.99
2.75613	99.98
2.77280	99.99
2.78947	99.99
2.80613	100.00
2.82280	100.00
2.83947	100.00
2.85613	100.00
2.87280	100.00
2.88947	100.01
2.90613	100.00
2.92280	100.00
2.93947	100.00
2.95613	100.01
2.97280	100.01
2.98947	100.01
3.00613	100.00
3.02280	100.01
3.03947	100.02
3.05613	100.01
3.07280	100.02
3.08947	100.02
3.10613	100.02
3.12280	100.02
3.13947	100.02
3.15613	100.02
3.17280	100.01
3.18947	100.02
3.20613	100.02
3.22280	100.02
3.23947	100.02
3.25613	100.02
3.27280	100.02
3.28947	100.03
3.30613	100.03
3.32280	100.03
3.33947	100.03
3.35613	100.03
3.37280	100.03
3.38947	100.03
3.40613	100.03
3.42280	100.03
3.43947	100.03
3.45613	100.04
3.47280	100.03
3.48947	100.03
3.50613	100.03
3.52280	100.03
3.53947	100.04
3.55613	100.04
3.57280	100.04
3.58947	100.04
3.60613	100.04
3.62280	100.03
3.63947	100.04
3.65613	100.04
3.67280	100.04
3.68947	100.04
3.70613	100.04
3.72280	100.04
3.73947	100.03
3.75613	100.04
3.77280	100.03
3.78947	100.04
3.80613	100.04
3.82280	100.04
3.83947	100.04
3.85613	100.04
3.87280	100.04
3.88947	100.04
3.90613	100.03
3.92280	100.04
3.93947	100.04
3.95613	100.04
3.97280	100.04
3.98947	100.04

[Status Trace (Carrier Gas Pressure)]
Interval(msec)	1000
# of Points	240
Start Time(min)	0.006
End Time(min)	3.989
Intensity Units	
Intensity Multiplier	1
R.Time (min)	Intensity
0.00613	58.00
0.02280	55.64
0.03947	56.92
0.05613	59.01
0.07280	59.59
0.08947	58.10
0.10613	57.98
0.12280	58.01
0.13947	58.01
0.15613	58.01
0.17280	58.00
0.18947	58.00
0.20613	58.00
0.22280	58.00
0.23947	58.00
0.25613	58.00
0.27280	58.00
0.28947	58.00
0.30613	58.00
0.32280	58.00
0.33947	58.00
0.35613	58.00
0.37280	58.00
0.38947	58.00
0.40613	58.00
0.42280	58.00
0.43947	58.00
0.45613	58.00
0.47280	58.00
0.48947	58.00
0.50613	58.00
0.52280	58.00
0.53947	58.00
0.55613	58.00
0.57280	58.00
0.58947	58.00
0.60613	58.00
0.62280	58.00
0.63947	58.00
0.65613	58.00
0.67280	58.00
0.68947	58.00
0.70613	58.00
0.72280	58.00
0.73947	58.00
0.75613	58.00
0.77280	58.00
0.78947	58.00
0.80613	58.00
0.82280	58.00
0.83947	58.00
0.85613	58.00
0.87280	58.00
0.88947	58.00
0.90613	58.00
0.92280	58.00
0.93947	58.00
0.95613	58.00
0.97280	58.00
0.98947	58.00
1.00613	58.00
1.02280	58.00
1.03947	58.00
1.05613	58.00
1.07280	58.00
1.08947	58.00
1.10613	58.00
1.12280	58.00
1.13947	58.00
1.15613	58.00
1.17280	58.00
1.18947	58.00
1.20613	58.00
1.22280	58.00
1.23947	58.00
1.25613	58.00
1.27280	58.00
1.28947	58.00
1.30613	58.00
1.32280	58.00
1.33947	58.00
1.35613	58.00
1.37280	58.00
1.38947	58.00
1.40613	58.00
1.42280	58.00
1.43947	58.00
1.45613	58.00
1.47280	58.00
1.48947	58.00
1.50613	58.00
1.52280	58.00
1.53947	58.00
1.55613	58.00
1.57280	58.00
1.58947	58.00
1.60613	58.00
1.62280	58.00
1.63947	58.00
1.65613	58.00
1.67280	58.01
1.68947	58.01
1.70613	58.00
1.72280	58.00
1.73947	58.00
1.75613	58.00
1.77280	58.00
1.78947	58.00
1.80613	58.00
1.82280	58.00
1.83947	58.00
1.85613	58.00
1.87280	58.00
1.88947	58.00
1.90613	58.00
1.92280	58.00
1.93947	58.00
1.95613	58.00
1.97280	58.00
1.98947	58.00
2.00613	58.00
2.02280	58.00
2.03947	58.00
2.05613	58.00
2.07280	58.00
2.08947	58.00
2.10613	58.00
2.12280	58.00
2.13947	58.00
2.15613	58.00
2.17280	58.00
2.18947	58.00
2.20613	58.00
2.22280	58.00
2.23947	58.00
2.25613	58.00
2.27280	58.00
2.28947	58.00
2.30613	58.00
2.32280	58.00
2.33947	58.00
2.35613	58.00
2.37280	57.99
2.38947	57.99
2.40613	57.99
2.42280	58.00
2.43947	58.00
2.45613	58.00
2.47280	58.00
2.48947	58.00
2.50613	57.99
2.52280	57.98
2.53947	58.00
2.55613	58.00
2.57280	58.00
2.58947	58.00
2.60613	58.00
2.62280	58.00
2.63947	58.00
2.65613	58.00
2.67280	58.00
2.68947	58.00
2.70613	58.00
2.72280	58.00
2.73947	58.00
2.75613	58.00
2.77280	58.00
2.78947	58.00
2.80613	58.00
2.82280	58.00
2.83947	58.00
2.85613	58.00
2.87280	58.00
2.88947	58.00
2.90613	58.00
2.92280	58.00
2.93947	58.00
2.95613	58.00
2.97280	58.00
2.98947	58.00
3.00613	58.00
3.02280	58.00
3.03947	58.00
3.05613	58.00
3.07280	58.00
3.08947	58.00
3.10613	58.00
3.12280	58.00
3.13947	58.00
3.15613	58.00
3.17280	58.00
3.18947	58.00
3.20613	58.00
3.22280	58.00
3.23947	58.00
3.25613	58.00
3.27280	58.00
3.28947	58.00
3.30613	58.00
3.32280	58.00
3.33947	58.00
3.35613	58.00
3.37280	58.00
3.38947	58.00
3.40613	58.00
3.42280	58.00
3.43947	58.00
3.45613	58.00
3.47280	58.00
3.48947	58.00
3.50613	58.00
3.52280	58.00
3.53947	58.00
3.55613	58.00
3.57280	58.00
3.58947	58.00
3.60613	58.00
3.62280	58.00
3.63947	58.00
3.65613	58.00
3.67280	58.00
3.68947	58.00
3.70613	58.00
3.72280	58.00
3.73947	58.00
3.75613	58.00
3.77280	58.00
3.78947	58.00
3.80613	58.00
3.82280	58.00
3.83947	58.00
3.85613	58.00
3.87280	58.00
3.88947	58.00
3.90613	58.00
3.92280	58.00
3.93947	58.00
3.95613	58.00
3.97280	58.00
3.98947	58.00

[Status Trace (Carrier Gas Flow)]
Interval(msec)	1000
# of Points	240
Start Time(min)	0.006
End Time(min)	3.989
Intensity Units	
Intensity Multiplier	1
R.Time (min)	Intensity
0.00613	34.52
0.02280	34.54
0.03947	34.55
0.05613	34.54
0.07280	34.50
0.08947	34.51
0.10613	34.52
0.12280	34.52
0.13947	34.52
0.15613	34.52
0.17280	34.52
0.18947	34.52
0.20613	34.52
0.22280	34.52
0.23947	34.52
0.25613	34.52
0.27280	34.51
0.28947	34.52
0.30613	34.52
0.32280	34.52
0.33947	34.52
0.35613	34.52
0.37280	34.52
0.38947	34.52
0.40613	34.51
0.42280	34.52
0.43947	34.52
0.45613	34.52
0.47280	34.52
0.48947	34.52
0.50613	34.52
0.52280	34.51
0.53947	34.51
0.55613	34.52
0.57280	34.52
0.58947	34.52
0.60613	34.51
0.62280	34.52
0.63947	34.52
0.65613	34.52
0.67280	34.51
0.68947	34.52
0.70613	34.52
0.72280	34.52
0.73947	34.52
0.75613	34.52
0.77280	34.52
0.78947	34.52
0.80613	34.52
0.82280	34.52
0.83947	34.52
0.85613	34.52
0.87280	34.52
0.88947	34.52
0.90613	34.52
0.92280	34.52
0.93947	34.52
0.95613	34.51
0.97280	34.52
0.98947	34.52
1.00613	34.52
1.02280	34.52
1.03947	34.51
1.05613	34.52
1.07280	34.52
1.08947	34.52
1.10613	34.52
1.12280	34.52
1.13947	34.52
1.15613	34.52
1.17280	34.52
1.18947	34.52
1.20613	34.52
1.22280	34.52
1.23947	34.52
1.25613	34.52
1.27280	34.52
1.28947	34.52
1.30613	34.51
1.32280	34.52
1.33947	34.52
1.35613	34.52
1.37280	34.52
1.38947	34.52
1.40613	34.52
1.42280	34.52
1.43947	34.52
1.45613	34.52
1.47280	34.52
1.48947	34.52
1.50613	34.52
1.52280	34.51
1.53947	34.52
1.55613	34.52
1.57280	34.52
1.58947	34.52
1.60613	34.52
1.62280	34.52
1.63947	34.52
1.65613	34.52
1.67280	34.52
1.68947	34.52
1.70613	34.52
1.72280	34.52
1.73947	34.52
1.75613	34.52
1.77280	34.52
1.78947	34.52
1.80613	34.52
1.82280	34.52
1.83947	34.52
1.85613	34.52
1.87280	34.52
1.88947	34.52
1.90613	34.52
1.92280	34.52
1.93947	34.52
1.95613	34.52
1.97280	34.52
1.98947	34.52
2.00613	34.52
2.02280	34.52
2.03947	34.52
2.05613	34.52
2.07280	34.52
2.08947	34.52
2.10613	34.52
2.12280	34.52
2.13947	34.51
2.15613	34.52
2.17280	34.52
2.18947	34.52
2.20613	34.52
2.22280	34.52
2.23947	34.52
2.25613	34.52
2.27280	34.52
2.28947	34.51
2.30613	34.52
2.32280	34.52
2.33947	34.53
2.35613	34.52
2.37280	34.52
2.38947	34.52
2.40613	34.52
2.42280	34.52
2.43947	34.52
2.45613	34.52
2.47280	34.52
2.48947	34.52
2.50613	34.50
2.52280	34.53
2.53947	34.51
2.55613	34.52
2.57280	34.52
2.58947	34.52
2.60613	34.52
2.62280	34.52
2.63947	34.52
2.65613	34.52
2.67280	34.52
2.68947	34.52
2.70613	34.52
2.72280	34.52
2.73947	34.52
2.75613	34.52
2.77280	34.52
2.78947	34.52
2.80613	34.52
2.82280	34.52
2.83947	34.52
2.85613	34.52
2.87280	34.52
2.88947	34.52
2.90613	34.51
2.92280	34.52
2.93947	34.52
2.95613	34.52
2.97280	34.52
2.98947	34.52
3.00613	34.52
3.02280	34.52
3.03947	34.52
3.05613	34.52
3.07280	34.52
3.08947	34.52
3.10613	34.52
3.12280	34.52
3.13947	34.52
3.15613	34.52
3.17280	34.52
3.18947	34.52
3.20613	34.52
3.22280	34.52
3.23947	34.52
3.25613	34.52
3.27280	34.52
3.28947	34.52
3.30613	34.52
3.32280	34.52
3.33947	34.52
3.35613	34.52
3.37280	34.52
3.38947	34.51
3.40613	34.52
3.42280	34.52
3.43947	34.52
3.45613	34.52
3.47280	34.52
3.48947	34.52
3.50613	34.52
3.52280	34.51
3.53947	34.51
3.55613	34.52
3.57280	34.52
3.58947	34.52
3.60613	34.52
3.62280	34.52
3.63947	34.52
3.65613	34.52
3.67280	34.52
3.68947	34.52
3.70613	34.52
3.72280	34.52
3.73947	34.52
3.75613	34.52
3.77280	34.52
3.78947	34.52
3.80613	34.52
3.82280	34.52
3.83947	34.52
3.85613	34.52
3.87280	34.52
3.88947	34.52
3.90613	34.52
3.92280	34.52
3.93947	34.52
3.95613	34.52
3.97280	34.52
3.98947	34.52

[Status Trace (Column Flow)]
Interval(msec)	1000
# of Points	240
Start Time(min)	0.006
End Time(min)	3.989
Intensity Units	
Intensity Multiplier	1
R.Time (min)	Intensity
0.00613	5.53
0.02280	5.26
0.03947	5.40
0.05613	5.65
0.07280	5.72
0.08947	5.54
0.10613	5.53
0.12280	5.53
0.13947	5.53
0.15613	5.53
0.17280	5.53
0.18947	5.53
0.20613	5.53
0.22280	5.53
0.23947	5.53
0.25613	5.53
0.27280	5.53
0.28947	5.53
0.30613	5.53
0.32280	5.53
0.33947	5.53
0.35613	5.53
0.37280	5.53
0.38947	5.53
0.40613	5.53
0.42280	5.53
0.43947	5.53
0.45613	5.53
0.47280	5.53
0.48947	5.53
0.50613	5.53
0.52280	5.53
0.53947	5.53
0.55613	5.53
0.57280	5.53
0.58947	5.53
0.60613	5.53
0.62280	5.53
0.63947	5.53
0.65613	5.53
0.67280	5.53
0.68947	5.53
0.70613	5.53
0.72280	5.53
0.73947	5.53
0.75613	5.53
0.77280	5.53
0.78947	5.53
0.80613	5.53
0.82280	5.53
0.83947	5.53
0.85613	5.53
0.87280	5.53
0.88947	5.53
0.90613	5.53
0.92280	5.53
0.93947	5.53
0.95613	5.53
0.97280	5.53
0.98947	5.53
1.00613	5.53
1.02280	5.53
1.03947	5.53
1.05613	5.53
1.07280	5.53
1.08947	5.53
1.10613	5.53
1.12280	5.53
1.13947	5.53
1.15613	5.53
1.17280	5.53
1.18947	5.53
1.20613	5.53
1.22280	5.53
1.23947	5.53
1.25613	5.53
1.27280	5.53
1.28947	5.53
1.30613	5.53
1.32280	5.53
1.33947	5.53
1.35613	5.53
1.37280	5.53
1.38947	5.53
1.40613	5.53
1.42280	5.53
1.43947	5.53
1.45613	5.53
1.47280	5.53
1.48947	5.53
1.50613	5.53
1.52280	5.53
1.53947	5.53
1.55613	5.53
1.57280	5.53
1.58947	5.53
1.60613	5.53
1.62280	5.53
1.63947	5.52
1.65613	5.51
1.67280	5.50
1.68947	5.49
1.70613	5.48
1.72280	5.47
1.73947	5.46
1.75613	5.45
1.77280	5.44
1.78947	5.43
1.80613	5.42
1.82280	5.41
1.83947	5.40
1.85613	5.39
1.87280	5.38
1.88947	5.37
1.90613	5.36
1.92280	5.35
1.93947	5.34
1.95613	5.33
1.97280	5.32
1.98947	5.31
2.00613	5.30
2.02280	5.29
2.03947	5.28
2.05613	5.27
2.07280	5.26
2.08947	5.25
2.10613	5.24
2.12280	5.23
2.13947	5.22
2.15613	5.21
2.17280	5.21
2.18947	5.20
2.20613	5.19
2.22280	5.18
2.23947	5.17
2.25613	5.16
2.27280	5.15
2.28947	5.14
2.30613	5.13
2.32280	5.12
2.33947	5.11
2.35613	5.10
2.37280	5.10
2.38947	5.10
2.40613	5.10
2.42280	5.10
2.43947	5.10
2.45613	5.10
2.47280	5.10
2.48947	5.10
2.50613	5.09
2.52280	5.09
2.53947	5.09
2.55613	5.09
2.57280	5.09
2.58947	5.09
2.60613	5.09
2.62280	5.09
2.63947	5.09
2.65613	5.09
2.67280	5.09
2.68947	5.09
2.70613	5.09
2.72280	5.09
2.73947	5.09
2.75613	5.09
2.77280	5.09
2.78947	5.09
2.80613	5.09
2.82280	5.09
2.83947	5.09
2.85613	5.09
2.87280	5.09
2.88947	5.09
2.90613	5.09
2.92280	5.09
2.93947	5.09
2.95613	5.09
2.97280	5.09
2.98947	5.09
3.00613	5.09
3.02280	5.09
3.03947	5.09
3.05613	5.09
3.07280	5.09
3.08947	5.09
3.10613	5.09
3.12280	5.09
3.13947	5.09
3.15613	5.09
3.17280	5.09
3.18947	5.09
3.20613	5.09
3.22280	5.08
3.23947	5.08
3.25613	5.08
3.27280	5.08
3.28947	5.08
3.30613	5.09
3.32280	5.09
3.33947	5.09
3.35613	5.09
3.37280	5.09
3.38947	5.08
3.40613	5.08
3.42280	5.08
3.43947	5.09
3.45613	5.09
3.47280	5.09
3.48947	5.09
3.50613	5.09
3.52280	5.08
3.53947	5.08
3.55613	5.08
3.57280	5.08
3.58947	5.08
3.60613	5.09
3.62280	5.08
3.63947	5.08
3.65613	5.08
3.67280	5.09
3.68947	5.09
3.70613	5.09
3.72280	5.09
3.73947	5.09
3.75613	5.09
3.77280	5.08
3.78947	5.08
3.80613	5.08
3.82280	5.08
3.83947	5.08
3.85613	5.08
3.87280	5.09
3.88947	5.09
3.90613	5.09
3.92280	5.09
3.93947	5.09
3.95613	5.09
3.97280	5.09
3.98947	5.09

[Status Trace (Linear Velocity)]
Interval(msec)	1000
# of Points	240
Start Time(min)	0.006
End Time(min)	3.989
Intensity Units	
Intensity Multiplier	1
R.Time (min)	Intensity
0.00613	39.02
0.02280	37.47
0.03947	38.31
0.05613	39.68
0.07280	40.06
0.08947	39.08
0.10613	39.00
0.12280	39.02
0.13947	39.02
0.15613	39.02
0.17280	39.02
0.18947	39.02
0.20613	39.02
0.22280	39.02
0.23947	39.02
0.25613	39.02
0.27280	39.02
0.28947	39.02
0.30613	39.02
0.32280	39.02
0.33947	39.02
0.35613	39.02
0.37280	39.02
0.38947	39.02
0.40613	39.02
0.42280	39.02
0.43947	39.02
0.45613	39.02
0.47280	39.02
0.48947	39.02
0.50613	39.02
0.52280	39.02
0.53947	39.02
0.55613	39.02
0.57280	39.02
0.58947	39.02
0.60613	39.02
0.62280	39.02
0.63947	39.02
0.65613	39.02
0.67280	39.02
0.68947	39.02
0.70613	39.02
0.72280	39.02
0.73947	39.02
0.75613	39.02
0.77280	39.02
0.78947	39.02
0.80613	39.02
0.82280	39.02
0.83947	39.02
0.85613	39.02
0.87280	39.02
0.88947	39.02
0.90613	39.02
0.92280	39.02
0.93947	39.02
0.95613	39.02
0.97280	39.02
0.98947	39.02
1.00613	39.02
1.02280	39.02
1.03947	39.02
1.05613	39.02
1.07280	39.02
1.08947	39.02
1.10613	39.02
1.12280	39.02
1.13947	39.02
1.15613	39.02
1.17280	39.02
1.18947	39.02
1.20613	39.02
1.22280	39.02
1.23947	39.02
1.25613	39.02
1.27280	39.02
1.28947	39.02
1.30613	39.02
1.32280	39.02
1.33947	39.02
1.35613	39.02
1.37280	39.02
1.38947	39.02
1.40613	39.02
1.42280	39.02
1.43947	39.02
1.45613	39.02
1.47280	39.02
1.48947	39.02
1.50613	39.02
1.52280	39.02
1.53947	39.02
1.55613	39.02
1.57280	39.02
1.58947	39.02
1.60613	39.01
1.62280	39.00
1.63947	38.99
1.65613	38.96
1.67280	38.94
1.68947	38.90
1.70613	38.86
1.72280	38.83
1.73947	38.80
1.75613	38.77
1.77280	38.74
1.78947	38.70
1.80613	38.67
1.82280	38.64
1.83947	38.61
1.85613	38.58
1.87280	38.55
1.88947	38.52
1.90613	38.49
1.92280	38.46
1.93947	38.43
1.95613	38.39
1.97280	38.37
1.98947	38.34
2.00613	38.31
2.02280	38.28
2.03947	38.25
2.05613	38.22
2.07280	38.18
2.08947	38.16
2.10613	38.12
2.12280	38.10
2.13947	38.07
2.15613	38.04
2.17280	38.01
2.18947	37.98
2.20613	37.95
2.22280	37.92
2.23947	37.89
2.25613	37.86
2.27280	37.83
2.28947	37.80
2.30613	37.77
2.32280	37.74
2.33947	37.71
2.35613	37.69
2.37280	37.67
2.38947	37.66
2.40613	37.66
2.42280	37.66
2.43947	37.66
2.45613	37.66
2.47280	37.66
2.48947	37.66
2.50613	37.66
2.52280	37.65
2.53947	37.66
2.55613	37.66
2.57280	37.66
2.58947	37.65
2.60613	37.65
2.62280	37.65
2.63947	37.65
2.65613	37.65
2.67280	37.65
2.68947	37.65
2.70613	37.65
2.72280	37.65
2.73947	37.65
2.75613	37.65
2.77280	37.65
2.78947	37.65
2.80613	37.65
2.82280	37.65
2.83947	37.65
2.85613	37.65
2.87280	37.65
2.88947	37.64
2.90613	37.64
2.92280	37.64
2.93947	37.64
2.95613	37.64
2.97280	37.64
2.98947	37.64
3.00613	37.64
3.02280	37.64
3.03947	37.63
3.05613	37.63
3.07280	37.63
3.08947	37.63
3.10613	37.63
3.12280	37.63
3.13947	37.63
3.15613	37.63
3.17280	37.63
3.18947	37.63
3.20613	37.63
3.22280	37.63
3.23947	37.63
3.25613	37.63
3.27280	37.63
3.28947	37.63
3.30613	37.63
3.32280	37.63
3.33947	37.63
3.35613	37.63
3.37280	37.63
3.38947	37.63
3.40613	37.63
3.42280	37.63
3.43947	37.63
3.45613	37.63
3.47280	37.63
3.48947	37.63
3.50613	37.63
3.52280	37.63
3.53947	37.63
3.55613	37.63
3.57280	37.63
3.58947	37.63
3.60613	37.63
3.62280	37.63
3.63947	37.63
3.65613	37.63
3.67280	37.63
3.68947	37.63
3.70613	37.63
3.72280	37.63
3.73947	37.63
3.75613	37.63
3.77280	37.63
3.78947	37.63
3.80613	37.63
3.82280	37.63
3.83947	37.63
3.85613	37.63
3.87280	37.63
3.88947	37.63
3.90613	37.63
3.92280	37.63
3.93947	37.63
3.95613	37.63
3.97280	37.63
3.98947	37.63

