[Header]
Application Name	LabSolutions
Version	5.110
Data File Name	C:\Users\User\Desktop\GC Analyses\Jack\Nachusa Grasslands Sampling\T3 Timepoint July 12th\T3_07122022_011.gcd
Output Date	3/14/2023
Output Time	3:43:30 PM

[File Information]
Type	Data File
Generated	3/13/2023 3:35:59 PM
Generated by	System Administrator
Modified	3/13/2023 3:42:50 PM
Modified by	System Administrator

[Sample Information]
Operator Name	System Administrator
Acquired	3/13/2023 3:38:49 PM
Sample Type	0:Unknown
Level	0
Sample Name	011
Sample ID	011
ISTD Amount1	1
ISTD Amount2	1
ISTD Amount3	1
ISTD Amount4	1
ISTD Amount5	1
ISTD Amount6	1
ISTD Amount7	1
ISTD Amount8	1
ISTD Amount9	1
ISTD Amount10	1
ISTD Amount11	1
ISTD Amount12	1
ISTD Amount13	1
ISTD Amount14	1
ISTD Amount15	1
ISTD Amount16	1
ISTD Amount17	1
ISTD Amount18	1
ISTD Amount19	1
ISTD Amount20	1
ISTD Amount21	1
ISTD Amount22	1
ISTD Amount23	1
ISTD Amount24	1
ISTD Amount25	1
ISTD Amount26	1
ISTD Amount27	1
ISTD Amount28	1
ISTD Amount29	1
ISTD Amount30	1
ISTD Amount31	1
ISTD Amount32	1
Sample Amount	1
Dilution Factor	1
Vial#	10
Injection Volume	1
Injection Count	1
Bar Code	

[Original Files]
Data File	C:\Users\User\Desktop\GC Analyses\Jack\Nachusa Grasslands Sampling\T3 Timepoint July 12th\T3_07122022_011.gcd
Method File	C:\LabSolutions\Data\GHG_4min_2022\ghg3_togas_w_acet_4 min_new_int.gcm
Batch File	C:\LabSolutions\Data\AutoSamplerTesting\T3_07122022.gcb
Report Format File	c:\LabSolutions\System\DEFAULT.lsr

[File Description]


[Configuration]
Instrument Name	C0B7VH3-Instrument1
Instrument #	1
Line #	1
# of Detectors	3
Detector ID	DET#1	DET#2	DET#3
Detector Name	FID	PTCD	ECD
# of Channels	1	1	1

[Peak Table(Ch1)]
# of Peaks	3
Peak#	R.Time	I.Time	F.Time	Area	Height	A/H	Conc.	Mark	ID#	Name	k'	Plate #	Plate Ht.	Tailing	Resolution	Sep.Factor	Area Ratio	Height Ratio	Conc. %	Norm Conc.
1	1.457	1.443	1.490	1323	995	1.330	9.341	   	1	CO	0.000	21345	7.027	1.598	0.000	0.000	0	0	1.064	1.064
2	1.571	1.538	1.622	18864	9633	1.958	364.755	   	2	CH4	0.078	11678	12.845	1.134	2.319	0.000	0	0	41.532	41.532
3	2.000	1.945	2.315	2008817	966293	2.079	504.159	   	3	CO2	0.372	17582	8.532	1.171	7.242	4.774	0	0	57.405	57.405

[Peak Table(Ch2)]
# of Peaks	0

[Peak Table(Ch3)]
# of Peaks	5
Peak#	R.Time	I.Time	F.Time	Area	Height	A/H	Conc.	Mark	ID#	Name	k'	Plate #	Plate Ht.	Tailing	Resolution	Sep.Factor	Area Ratio	Height Ratio	Conc. %	Norm Conc.
1	2.462	2.414	2.506	1301	470	2.767	0.000	   			0.000	11400	13.157	0.000	0.000	0.000	0	0	0.000	0.000
2	2.524	2.506	2.576	813	274	2.964	0.000	 V 			0.025	4602	32.597	0.000	0.517	0.000	0	0	0.000	0.000
3	2.609	2.576	2.671	480	139	3.457	0.000	 V 			0.060	3042	49.306	0.000	0.499	2.353	0	0	0.000	0.000
4	2.880	2.689	3.096	54791	14185	3.863	1.399	   	1	N2O	0.170	12806	11.713	1.529	1.865	2.850	0	0	100.000	100.000
5	3.258	3.100	3.874	16500	634	26.021	0.000	   	2	SF6	0.323	350	428.795	2.479	0.946	1.904	0	0	0.000	0.000

[Compound Results(Ch1)]
# of IDs	6
ID#	Name	R.Time	Area	Height	Conc.	Curve	3rd	2nd	1st	Constant	Area Ratio	Height Ratio	Conc. %	Norm Conc.
1	CO	1.457	1323	995	9.341	Linear	0.000000e+00	0.000000e+00	1.416423e+002	0.000000e+00	0	0	1.064	1.064
2	CH4	1.571	18864	9633	364.755	Linear	0.000000e+00	0.000000e+00	5.171738e+001	0.000000e+00	0	0	41.532	41.532
3	CO2	2.000	2008817	966293	504.159	Linear	0.000000e+00	0.000000e+00	3.984494e+003	0.000000e+00	0	0	57.405	57.405
4	Ethylene	0.000	0	0	0.000	Linear	0.000000e+00	0.000000e+00	0.000000e+00	0.000000e+00	0	0	0.000	0.000
5	Acetylene	0.000	0	0	0.000	Linear	0.000000e+00	0.000000e+00	0.000000e+00	0.000000e+00	0	0	0.000	0.000
6	Ethane	0.000	0	0	0.000	Linear	0.000000e+00	0.000000e+00	0.000000e+00	0.000000e+00	0	0	0.000	0.000

[Compound Results(Ch2)]
# of IDs	5
ID#	Name	R.Time	Area	Height	Conc.	Curve	3rd	2nd	1st	Constant	Area Ratio	Height Ratio	Conc. %	Norm Conc.
1	Hydrogen	0.000	0	0	0.000	Linear	0.000000e+00	0.000000e+00	0.000000e+00	0.000000e+00	0	0	0.000	0.000
2	Oxygen	0.000	0	0	0.000	Linear	0.000000e+00	0.000000e+00	0.000000e+00	0.000000e+00	0	0	0.000	0.000
3	Nitrogen	0.000	0	0	0.000	Linear	0.000000e+00	0.000000e+00	0.000000e+00	0.000000e+00	0	0	0.000	0.000
4	Methane	0.000	0	0	0.000	Linear	0.000000e+00	0.000000e+00	0.000000e+00	0.000000e+00	0	0	0.000	0.000
5	Carbon Monoxide	0.000	0	0	0.000	Linear	0.000000e+00	0.000000e+00	0.000000e+00	0.000000e+00	0	0	0.000	0.000

[Compound Results(Ch3)]
# of IDs	2
ID#	Name	R.Time	Area	Height	Conc.	Curve	3rd	2nd	1st	Constant	Area Ratio	Height Ratio	Conc. %	Norm Conc.
1	N2O	2.880	54791	14185	1.399	Linear	0.000000e+00	0.000000e+00	3.915173e+004	0.000000e+00	0	0	100.000	100.000
2	SF6	3.258	16500	634	0.000	Linear	0.000000e+00	0.000000e+00	0.000000e+00	0.000000e+00	0	0	0.000	0.000

[Group Results(Ch1)]
# of Groups	0

[Group Results(Ch2)]
# of Groups	0

[Group Results(Ch3)]
# of Groups	0

[Chromatogram (Ch1)]
Interval(msec)	220
# of Points	1091
Start Time(min)	0.002
End Time(min)	3.998
R.Time (min)	Intensity
0.00167	28
0.00533	24
0.00900	20
0.01267	21
0.01633	23
0.02000	24
0.02367	23
0.02733	22
0.03100	24
0.03467	25
0.03833	24
0.04200	18
0.04567	20
0.04933	27
0.05300	38
0.05667	49
0.06033	61
0.06400	71
0.06767	76
0.07133	78
0.07500	77
0.07867	72
0.08233	71
0.08600	71
0.08967	73
0.09333	78
0.09700	81
0.10067	79
0.10433	77
0.10800	77
0.11167	78
0.11533	78
0.11900	78
0.12267	79
0.12633	82
0.13000	85
0.13367	85
0.13733	82
0.14100	76
0.14467	69
0.14833	64
0.15200	64
0.15567	70
0.15933	78
0.16300	84
0.16667	86
0.17033	82
0.17400	70
0.17767	63
0.18133	59
0.18500	54
0.18867	50
0.19233	45
0.19600	40
0.19967	34
0.20333	24
0.20700	17
0.21067	14
0.21433	17
0.21800	24
0.22167	29
0.22533	32
0.22900	31
0.23267	29
0.23633	25
0.24000	23
0.24367	25
0.24733	29
0.25100	34
0.25467	35
0.25833	28
0.26200	20
0.26567	13
0.26933	6
0.27300	1
0.27667	-8
0.28033	-16
0.28400	-19
0.28767	-15
0.29133	-6
0.29500	2
0.29867	5
0.30233	8
0.30600	10
0.30967	8
0.31333	1
0.31700	-1
0.32067	6
0.32433	16
0.32800	22
0.33167	25
0.33533	28
0.33900	27
0.34267	25
0.34633	24
0.35000	20
0.35367	16
0.35733	7
0.36100	-12
0.36467	-30
0.36833	-38
0.37200	-40
0.37567	-38
0.37933	-36
0.38300	-38
0.38667	-41
0.39033	-43
0.39400	-37
0.39767	-26
0.40133	-14
0.40500	-5
0.40867	-2
0.41233	-3
0.41600	-5
0.41967	-3
0.42333	2
0.42700	2
0.43067	0
0.43433	-3
0.43800	-12
0.44167	-13
0.44533	-8
0.44900	-7
0.45267	-8
0.45633	-12
0.46000	-12
0.46367	-10
0.46733	-11
0.47100	-12
0.47467	-9
0.47833	-2
0.48200	8
0.48567	10
0.48933	9
0.49300	10
0.49667	8
0.50033	3
0.50400	-1
0.50767	-3
0.51133	-2
0.51500	-3
0.51867	-4
0.52233	-6
0.52600	-7
0.52967	-3
0.53333	4
0.53700	4
0.54067	-3
0.54433	-16
0.54800	-29
0.55167	-39
0.55533	-46
0.55900	-49
0.56267	-48
0.56633	-44
0.57000	-39
0.57367	-34
0.57733	-31
0.58100	-27
0.58467	-24
0.58833	-22
0.59200	-18
0.59567	-10
0.59933	-7
0.60300	-12
0.60667	-22
0.61033	-29
0.61400	-27
0.61767	-24
0.62133	-23
0.62500	-23
0.62867	-21
0.63233	-20
0.63600	-19
0.63967	-21
0.64333	-24
0.64700	-23
0.65067	-21
0.65433	-20
0.65800	-22
0.66167	-24
0.66533	-21
0.66900	-18
0.67267	-18
0.67633	-17
0.68000	-15
0.68367	-11
0.68733	-12
0.69100	-16
0.69467	-17
0.69833	-19
0.70200	-19
0.70567	-17
0.70933	-18
0.71300	-22
0.71667	-23
0.72033	-22
0.72400	-25
0.72767	-30
0.73133	-34
0.73500	-34
0.73867	-32
0.74233	-32
0.74600	-32
0.74967	-30
0.75333	-28
0.75700	-24
0.76067	-19
0.76433	-19
0.76800	-21
0.77167	-15
0.77533	-2
0.77900	3
0.78267	1
0.78633	-2
0.79000	-5
0.79367	-14
0.79733	-28
0.80100	-40
0.80467	-44
0.80833	-38
0.81200	-35
0.81567	-38
0.81933	-41
0.82300	-41
0.82667	-39
0.83033	-39
0.83400	-40
0.83767	-44
0.84133	-51
0.84500	-56
0.84867	-55
0.85233	-49
0.85600	-40
0.85967	-32
0.86333	-25
0.86700	-19
0.87067	-11
0.87433	-2
0.87800	5
0.88167	7
0.88533	6
0.88900	2
0.89267	-2
0.89633	-7
0.90000	-11
0.90367	-14
0.90733	-18
0.91100	-16
0.91467	-10
0.91833	-7
0.92200	-6
0.92567	-5
0.92933	-6
0.93300	-9
0.93667	-7
0.94033	2
0.94400	13
0.94767	21
0.95133	23
0.95500	22
0.95867	19
0.96233	14
0.96600	9
0.96967	10
0.97333	12
0.97700	12
0.98067	9
0.98433	8
0.98800	7
0.99167	6
0.99533	0
0.99900	-7
1.00267	-15
1.00633	-22
1.01000	-26
1.01367	-27
1.01733	-29
1.02100	-32
1.02467	-33
1.02833	-31
1.03200	-29
1.03567	-27
1.03933	-24
1.04300	-22
1.04667	-15
1.05033	-9
1.05400	-5
1.05767	2
1.06133	14
1.06500	21
1.06867	26
1.07233	29
1.07600	28
1.07967	22
1.08333	13
1.08700	1
1.09067	-7
1.09433	-12
1.09800	-17
1.10167	-19
1.10533	-19
1.10900	-19
1.11267	-18
1.11633	-20
1.12000	-22
1.12367	-23
1.12733	-27
1.13100	-32
1.13467	-29
1.13833	-22
1.14200	-17
1.14567	-14
1.14933	-10
1.15300	-9
1.15667	-14
1.16033	-24
1.16400	-39
1.16767	-48
1.17133	-48
1.17500	-47
1.17867	-42
1.18233	-33
1.18600	-27
1.18967	-21
1.19333	-12
1.19700	-4
1.20067	-4
1.20433	-7
1.20800	-12
1.21167	-18
1.21533	-23
1.21900	-26
1.22267	-29
1.22633	-28
1.23000	-19
1.23367	-8
1.23733	1
1.24100	3
1.24467	-1
1.24833	-11
1.25200	-20
1.25567	-28
1.25933	-33
1.26300	-35
1.26667	-36
1.27033	-40
1.27400	-44
1.27767	-48
1.28133	-50
1.28500	-51
1.28867	-52
1.29233	-51
1.29600	-51
1.29967	-51
1.30333	-52
1.30700	-54
1.31067	-51
1.31433	-46
1.31800	-41
1.32167	-32
1.32533	-24
1.32900	-21
1.33267	-26
1.33633	-27
1.34000	-28
1.34367	-28
1.34733	-24
1.35100	-19
1.35467	-13
1.35833	-9
1.36200	-11
1.36567	-14
1.36933	-17
1.37300	-20
1.37667	-26
1.38033	-35
1.38400	-45
1.38767	-52
1.39133	-54
1.39500	-53
1.39867	-56
1.40233	-58
1.40600	-57
1.40967	-55
1.41333	-51
1.41700	-47
1.42067	-40
1.42433	-33
1.42800	-27
1.43167	-23
1.43533	-21
1.43900	-15
1.44267	24
1.44633	190
1.45000	527
1.45367	819
1.45733	922
1.46100	852
1.46467	674
1.46833	452
1.47200	242
1.47567	85
1.47933	-24
1.48300	-115
1.48667	-203
1.49033	-289
1.49400	-365
1.49767	-431
1.50133	-486
1.50500	-527
1.50867	-557
1.51233	-576
1.51600	-589
1.51967	-599
1.52333	-601
1.52700	-594
1.53067	-586
1.53433	-576
1.53800	-516
1.54167	-274
1.54533	416
1.54900	1739
1.55267	3548
1.55633	5459
1.56000	7137
1.56367	8402
1.56733	9147
1.57100	9244
1.57467	8608
1.57833	7354
1.58200	5791
1.58567	4255
1.58933	2954
1.59300	1950
1.59667	1223
1.60033	720
1.60400	379
1.60767	152
1.61133	0
1.61500	-99
1.61867	-159
1.62233	-193
1.62600	-213
1.62967	-224
1.63333	-229
1.63700	-233
1.64067	-234
1.64433	-234
1.64800	-232
1.65167	-225
1.65533	-219
1.65900	-210
1.66267	-202
1.66633	-200
1.67000	-204
1.67367	-212
1.67733	-217
1.68100	-216
1.68467	-214
1.68833	-215
1.69200	-219
1.69567	-227
1.69933	-236
1.70300	-239
1.70667	-235
1.71033	-225
1.71400	-215
1.71767	-209
1.72133	-203
1.72500	-195
1.72867	-186
1.73233	-182
1.73600	-184
1.73967	-189
1.74333	-196
1.74700	-204
1.75067	-209
1.75433	-210
1.75800	-209
1.76167	-206
1.76533	-200
1.76900	-193
1.77267	-184
1.77633	-177
1.78000	-172
1.78367	-166
1.78733	-163
1.79100	-168
1.79467	-173
1.79833	-174
1.80200	-171
1.80567	-165
1.80933	-164
1.81300	-166
1.81667	-167
1.82033	-172
1.82400	-185
1.82767	-199
1.83133	-208
1.83500	-213
1.83867	-214
1.84233	-208
1.84600	-198
1.84967	-186
1.85333	-179
1.85700	-179
1.86067	-184
1.86433	-185
1.86800	-181
1.87167	-177
1.87533	-178
1.87900	-178
1.88267	-176
1.88633	-178
1.89000	-182
1.89367	-184
1.89733	-186
1.90100	-186
1.90467	-186
1.90833	-181
1.91200	-173
1.91567	-165
1.91933	-160
1.92300	-160
1.92667	-162
1.93033	-161
1.93400	-161
1.93767	-161
1.94133	-159
1.94500	-155
1.94867	-142
1.95233	-116
1.95600	-22
1.95967	545
1.96333	3361
1.96700	14007
1.97067	44852
1.97433	113979
1.97800	234526
1.98167	401036
1.98533	587795
1.98900	761433
1.99267	893460
1.99633	964531
2.00000	966178
2.00367	902394
2.00733	788624
2.01100	647847
2.01467	503836
2.01833	374465
2.02200	268768
2.02567	188213
2.02933	129808
2.03300	88907
2.03667	60926
2.04033	42052
2.04400	29408
2.04767	20945
2.05133	15252
2.05500	11383
2.05867	8719
2.06233	6855
2.06600	5528
2.06967	4555
2.07333	3821
2.07700	3259
2.08067	2823
2.08433	2474
2.08800	2188
2.09167	1950
2.09533	1750
2.09900	1582
2.10267	1441
2.10633	1321
2.11000	1222
2.11367	1133
2.11733	1044
2.12100	965
2.12467	900
2.12833	844
2.13200	785
2.13567	730
2.13933	683
2.14300	650
2.14667	627
2.15033	605
2.15400	579
2.15767	547
2.16133	515
2.16500	486
2.16867	463
2.17233	447
2.17600	432
2.17967	418
2.18333	405
2.18700	389
2.19067	371
2.19433	351
2.19800	332
2.20167	311
2.20533	295
2.20900	285
2.21267	275
2.21633	263
2.22000	249
2.22367	235
2.22733	227
2.23100	224
2.23467	220
2.23833	218
2.24200	216
2.24567	215
2.24933	212
2.25300	206
2.25667	207
2.26033	202
2.26400	193
2.26767	182
2.27133	171
2.27500	163
2.27867	156
2.28233	153
2.28600	153
2.28967	155
2.29333	155
2.29700	155
2.30067	154
2.30433	151
2.30800	140
2.31167	124
2.31533	109
2.31900	101
2.32267	96
2.32633	91
2.33000	88
2.33367	93
2.33733	102
2.34100	106
2.34467	103
2.34833	105
2.35200	109
2.35567	110
2.35933	105
2.36300	86
2.36667	84
2.37033	83
2.37400	80
2.37767	75
2.38133	68
2.38500	69
2.38867	72
2.39233	75
2.39600	76
2.39967	79
2.40333	82
2.40700	84
2.41067	84
2.41433	87
2.41800	94
2.42167	103
2.42533	109
2.42900	101
2.43267	86
2.43633	77
2.44000	71
2.44367	66
2.44733	66
2.45100	64
2.45467	64
2.45833	64
2.46200	61
2.46567	55
2.46933	55
2.47300	56
2.47667	52
2.48033	47
2.48400	44
2.48767	47
2.49133	55
2.49500	62
2.49867	60
2.50233	53
2.50600	47
2.50967	41
2.51333	37
2.51700	38
2.52067	40
2.52433	44
2.52800	44
2.53167	44
2.53533	39
2.53900	37
2.54267	41
2.54633	40
2.55000	35
2.55367	31
2.55733	32
2.56100	30
2.56467	26
2.56833	24
2.57200	23
2.57567	26
2.57933	32
2.58300	36
2.58667	37
2.59033	41
2.59400	46
2.59767	48
2.60133	50
2.60500	50
2.60867	45
2.61233	34
2.61600	25
2.61967	18
2.62333	16
2.62700	20
2.63067	25
2.63433	34
2.63800	46
2.64167	53
2.64533	49
2.64900	41
2.65267	36
2.65633	36
2.66000	42
2.66367	48
2.66733	50
2.67100	47
2.67467	43
2.67833	39
2.68200	36
2.68567	35
2.68933	38
2.69300	44
2.69667	50
2.70033	48
2.70400	48
2.70767	47
2.71133	43
2.71500	46
2.71867	45
2.72233	41
2.72600	36
2.72967	30
2.73333	30
2.73700	36
2.74067	37
2.74433	37
2.74800	41
2.75167	46
2.75533	50
2.75900	53
2.76267	57
2.76633	62
2.77000	66
2.77367	65
2.77733	56
2.78100	47
2.78467	44
2.78833	50
2.79200	55
2.79567	56
2.79933	49
2.80300	37
2.80667	30
2.81033	37
2.81400	51
2.81767	66
2.82133	74
2.82500	67
2.82867	52
2.83233	35
2.83600	23
2.83967	15
2.84333	13
2.84700	14
2.85067	12
2.85433	14
2.85800	18
2.86167	22
2.86533	20
2.86900	13
2.87267	7
2.87633	6
2.88000	9
2.88367	20
2.88733	28
2.89100	30
2.89467	28
2.89833	29
2.90200	33
2.90567	38
2.90933	48
2.91300	56
2.91667	62
2.92033	64
2.92400	63
2.92767	59
2.93133	53
2.93500	48
2.93867	45
2.94233	43
2.94600	40
2.94967	36
2.95333	33
2.95700	32
2.96067	34
2.96433	35
2.96800	34
2.97167	29
2.97533	27
2.97900	28
2.98267	28
2.98633	31
2.99000	40
2.99367	51
2.99733	63
3.00100	73
3.00467	72
3.00833	68
3.01200	67
3.01567	66
3.01933	60
3.02300	53
3.02667	49
3.03033	48
3.03400	45
3.03767	41
3.04133	38
3.04500	37
3.04867	38
3.05233	41
3.05600	45
3.05967	48
3.06333	52
3.06700	52
3.07067	47
3.07433	42
3.07800	37
3.08167	38
3.08533	39
3.08900	39
3.09267	38
3.09633	41
3.10000	45
3.10367	51
3.10733	53
3.11100	53
3.11467	48
3.11833	42
3.12200	36
3.12567	31
3.12933	33
3.13300	36
3.13667	35
3.14033	35
3.14400	40
3.14767	46
3.15133	51
3.15500	52
3.15867	48
3.16233	45
3.16600	42
3.16967	44
3.17333	44
3.17700	43
3.18067	44
3.18433	46
3.18800	48
3.19167	51
3.19533	52
3.19900	54
3.20267	56
3.20633	56
3.21000	53
3.21367	53
3.21733	57
3.22100	59
3.22467	58
3.22833	57
3.23200	54
3.23567	47
3.23933	40
3.24300	32
3.24667	20
3.25033	8
3.25400	1
3.25767	2
3.26133	7
3.26500	10
3.26867	12
3.27233	21
3.27600	33
3.27967	38
3.28333	39
3.28700	38
3.29067	36
3.29433	40
3.29800	47
3.30167	51
3.30533	56
3.30900	63
3.31267	63
3.31633	59
3.32000	52
3.32367	45
3.32733	34
3.33100	20
3.33467	14
3.33833	19
3.34200	26
3.34567	30
3.34933	29
3.35300	29
3.35667	30
3.36033	29
3.36400	27
3.36767	23
3.37133	18
3.37500	18
3.37867	21
3.38233	20
3.38600	13
3.38967	5
3.39333	4
3.39700	3
3.40067	1
3.40433	-0
3.40800	2
3.41167	2
3.41533	-1
3.41900	-5
3.42267	-7
3.42633	-8
3.43000	-7
3.43367	-1
3.43733	9
3.44100	13
3.44467	13
3.44833	17
3.45200	21
3.45567	28
3.45933	37
3.46300	42
3.46667	36
3.47033	26
3.47400	18
3.47767	16
3.48133	17
3.48500	19
3.48867	21
3.49233	21
3.49600	24
3.49967	27
3.50333	31
3.50700	31
3.51067	28
3.51433	25
3.51800	19
3.52167	15
3.52533	14
3.52900	10
3.53267	6
3.53633	7
3.54000	7
3.54367	2
3.54733	-6
3.55100	-8
3.55467	-8
3.55833	-2
3.56200	2
3.56567	7
3.56933	16
3.57300	26
3.57667	35
3.58033	31
3.58400	24
3.58767	16
3.59133	8
3.59500	5
3.59867	1
3.60233	-1
3.60600	2
3.60967	9
3.61333	11
3.61700	6
3.62067	-3
3.62433	-11
3.62800	-17
3.63167	-22
3.63533	-26
3.63900	-27
3.64267	-26
3.64633	-25
3.65000	-19
3.65367	-9
3.65733	2
3.66100	6
3.66467	4
3.66833	2
3.67200	1
3.67567	-1
3.67933	-7
3.68300	-14
3.68667	-19
3.69033	-25
3.69400	-29
3.69767	-28
3.70133	-24
3.70500	-19
3.70867	-18
3.71233	-17
3.71600	-12
3.71967	-6
3.72333	1
3.72700	4
3.73067	2
3.73433	-5
3.73800	-14
3.74167	-20
3.74533	-21
3.74900	-13
3.75267	-0
3.75633	9
3.76000	13
3.76367	13
3.76733	6
3.77100	-12
3.77467	-29
3.77833	-41
3.78200	-46
3.78567	-45
3.78933	-45
3.79300	-43
3.79667	-39
3.80033	-32
3.80400	-25
3.80767	-18
3.81133	-11
3.81500	-8
3.81867	-12
3.82233	-20
3.82600	-28
3.82967	-39
3.83333	-43
3.83700	-45
3.84067	-42
3.84433	-39
3.84800	-40
3.85167	-42
3.85533	-40
3.85900	-42
3.86267	-49
3.86633	-51
3.87000	-43
3.87367	-33
3.87733	-28
3.88100	-26
3.88467	-26
3.88833	-27
3.89200	-26
3.89567	-27
3.89933	-24
3.90300	-16
3.90667	-9
3.91033	-5
3.91400	-3
3.91767	-7
3.92133	-16
3.92500	-23
3.92867	-30
3.93233	-36
3.93600	-43
3.93967	-49
3.94333	-48
3.94700	-41
3.95067	-35
3.95433	-33
3.95800	-34
3.96167	-37
3.96533	-41
3.96900	-42
3.97267	-42
3.97633	-45
3.98000	-49
3.98367	-48
3.98733	-43
3.99100	-35
3.99467	-25
3.99833	-16

[Chromatogram (Ch2)]
Interval(msec)	220
# of Points	1091
Start Time(min)	0.002
End Time(min)	3.998
R.Time (min)	Intensity
0.00167	-0
0.00533	-1
0.00900	-1
0.01267	-1
0.01633	-0
0.02000	-0
0.02367	-1
0.02733	-1
0.03100	-1
0.03467	-1
0.03833	-1
0.04200	-1
0.04567	-1
0.04933	-1
0.05300	-0
0.05667	-0
0.06033	-0
0.06400	0
0.06767	0
0.07133	0
0.07500	0
0.07867	1
0.08233	1
0.08600	1
0.08967	1
0.09333	1
0.09700	1
0.10067	1
0.10433	1
0.10800	2
0.11167	2
0.11533	2
0.11900	2
0.12267	2
0.12633	2
0.13000	2
0.13367	2
0.13733	2
0.14100	2
0.14467	2
0.14833	2
0.15200	2
0.15567	1
0.15933	1
0.16300	1
0.16667	1
0.17033	1
0.17400	1
0.17767	1
0.18133	2
0.18500	2
0.18867	2
0.19233	2
0.19600	2
0.19967	3
0.20333	2
0.20700	2
0.21067	2
0.21433	2
0.21800	2
0.22167	1
0.22533	1
0.22900	0
0.23267	0
0.23633	-0
0.24000	-1
0.24367	-1
0.24733	-1
0.25100	-1
0.25467	-1
0.25833	-0
0.26200	-0
0.26567	-0
0.26933	-0
0.27300	-0
0.27667	-1
0.28033	-1
0.28400	-1
0.28767	-1
0.29133	-1
0.29500	-1
0.29867	-1
0.30233	-0
0.30600	-0
0.30967	0
0.31333	0
0.31700	0
0.32067	0
0.32433	0
0.32800	-0
0.33167	-1
0.33533	-1
0.33900	-1
0.34267	-2
0.34633	-2
0.35000	-2
0.35367	-2
0.35733	-2
0.36100	-2
0.36467	-2
0.36833	-2
0.37200	-1
0.37567	-1
0.37933	-1
0.38300	-0
0.38667	0
0.39033	1
0.39400	2
0.39767	2
0.40133	3
0.40500	3
0.40867	3
0.41233	3
0.41600	3
0.41967	3
0.42333	3
0.42700	3
0.43067	2
0.43433	2
0.43800	1
0.44167	1
0.44533	1
0.44900	0
0.45267	0
0.45633	-0
0.46000	-0
0.46367	-1
0.46733	-1
0.47100	-1
0.47467	-1
0.47833	-1
0.48200	-1
0.48567	-1
0.48933	-1
0.49300	-1
0.49667	-1
0.50033	-1
0.50400	-1
0.50767	-1
0.51133	-1
0.51500	-1
0.51867	-1
0.52233	-1
0.52600	-1
0.52967	-1
0.53333	-0
0.53700	-0
0.54067	-0
0.54433	0
0.54800	0
0.55167	1
0.55533	1
0.55900	1
0.56267	1
0.56633	1
0.57000	2
0.57367	2
0.57733	2
0.58100	2
0.58467	2
0.58833	2
0.59200	2
0.59567	2
0.59933	2
0.60300	2
0.60667	2
0.61033	2
0.61400	2
0.61767	1
0.62133	1
0.62500	1
0.62867	1
0.63233	1
0.63600	1
0.63967	1
0.64333	1
0.64700	1
0.65067	0
0.65433	0
0.65800	0
0.66167	0
0.66533	0
0.66900	-0
0.67267	-0
0.67633	-1
0.68000	-1
0.68367	-1
0.68733	-1
0.69100	-1
0.69467	-1
0.69833	-1
0.70200	-0
0.70567	-0
0.70933	0
0.71300	0
0.71667	1
0.72033	1
0.72400	1
0.72767	1
0.73133	1
0.73500	1
0.73867	1
0.74233	2
0.74600	2
0.74967	2
0.75333	2
0.75700	2
0.76067	2
0.76433	2
0.76800	2
0.77167	2
0.77533	2
0.77900	2
0.78267	1
0.78633	1
0.79000	1
0.79367	1
0.79733	0
0.80100	-0
0.80467	-1
0.80833	-1
0.81200	-1
0.81567	-2
0.81933	-2
0.82300	-2
0.82667	-3
0.83033	-3
0.83400	-3
0.83767	-3
0.84133	-3
0.84500	-3
0.84867	-3
0.85233	-3
0.85600	-3
0.85967	-3
0.86333	-3
0.86700	-3
0.87067	-3
0.87433	-2
0.87800	-2
0.88167	-1
0.88533	-1
0.88900	-0
0.89267	-0
0.89633	0
0.90000	0
0.90367	1
0.90733	1
0.91100	1
0.91467	1
0.91833	1
0.92200	1
0.92567	2
0.92933	2
0.93300	2
0.93667	2
0.94033	2
0.94400	2
0.94767	2
0.95133	1
0.95500	1
0.95867	0
0.96233	0
0.96600	-0
0.96967	-0
0.97333	-0
0.97700	0
0.98067	0
0.98433	0
0.98800	0
0.99167	0
0.99533	-0
0.99900	-0
1.00267	-1
1.00633	-1
1.01000	-1
1.01367	-1
1.01733	-1
1.02100	-1
1.02467	-2
1.02833	-2
1.03200	-2
1.03567	-2
1.03933	-2
1.04300	-2
1.04667	-2
1.05033	-2
1.05400	-1
1.05767	-1
1.06133	-1
1.06500	-1
1.06867	-1
1.07233	-1
1.07600	-1
1.07967	-1
1.08333	-1
1.08700	-1
1.09067	-1
1.09433	-1
1.09800	-1
1.10167	-1
1.10533	-1
1.10900	-0
1.11267	-0
1.11633	-0
1.12000	-0
1.12367	-0
1.12733	-0
1.13100	-0
1.13467	-1
1.13833	-1
1.14200	-1
1.14567	-1
1.14933	-1
1.15300	-2
1.15667	-2
1.16033	-2
1.16400	-2
1.16767	-2
1.17133	-2
1.17500	-2
1.17867	-2
1.18233	-2
1.18600	-2
1.18967	-2
1.19333	-2
1.19700	-2
1.20067	-2
1.20433	-1
1.20800	-1
1.21167	-1
1.21533	-0
1.21900	-0
1.22267	-0
1.22633	-0
1.23000	-0
1.23367	-0
1.23733	-1
1.24100	-1
1.24467	-1
1.24833	-1
1.25200	-1
1.25567	-1
1.25933	-1
1.26300	-0
1.26667	-0
1.27033	0
1.27400	0
1.27767	1
1.28133	1
1.28500	0
1.28867	0
1.29233	0
1.29600	-0
1.29967	-1
1.30333	-1
1.30700	-1
1.31067	-2
1.31433	-2
1.31800	-2
1.32167	-1
1.32533	-1
1.32900	-1
1.33267	-0
1.33633	-0
1.34000	0
1.34367	0
1.34733	0
1.35100	0
1.35467	0
1.35833	0
1.36200	0
1.36567	0
1.36933	0
1.37300	0
1.37667	0
1.38033	0
1.38400	-0
1.38767	-1
1.39133	-1
1.39500	-1
1.39867	-2
1.40233	-2
1.40600	-2
1.40967	-1
1.41333	-1
1.41700	-1
1.42067	-1
1.42433	-1
1.42800	-1
1.43167	-1
1.43533	-0
1.43900	-0
1.44267	-1
1.44633	-1
1.45000	-2
1.45367	-2
1.45733	-2
1.46100	-3
1.46467	-3
1.46833	-3
1.47200	-3
1.47567	-3
1.47933	-3
1.48300	-3
1.48667	-4
1.49033	-4
1.49400	-4
1.49767	-4
1.50133	-4
1.50500	-4
1.50867	-4
1.51233	-4
1.51600	-4
1.51967	-4
1.52333	-4
1.52700	-3
1.53067	-3
1.53433	-3
1.53800	-3
1.54167	-2
1.54533	-2
1.54900	-2
1.55267	-1
1.55633	-1
1.56000	-1
1.56367	-1
1.56733	-0
1.57100	-0
1.57467	0
1.57833	0
1.58200	0
1.58567	1
1.58933	1
1.59300	0
1.59667	-1
1.60033	-2
1.60400	-3
1.60767	-4
1.61133	-6
1.61500	-8
1.61867	-10
1.62233	-13
1.62600	-15
1.62967	-18
1.63333	-22
1.63700	-25
1.64067	-29
1.64433	-33
1.64800	-36
1.65167	-40
1.65533	-44
1.65900	-47
1.66267	-51
1.66633	-56
1.67000	-60
1.67367	-65
1.67733	-70
1.68100	-75
1.68467	-80
1.68833	-84
1.69200	-88
1.69567	-91
1.69933	-94
1.70300	-97
1.70667	-99
1.71033	-100
1.71400	-101
1.71767	-102
1.72133	-103
1.72500	-103
1.72867	-104
1.73233	-105
1.73600	-106
1.73967	-106
1.74333	-106
1.74700	-106
1.75067	-106
1.75433	-106
1.75800	-106
1.76167	-107
1.76533	-107
1.76900	-107
1.77267	-107
1.77633	-108
1.78000	-108
1.78367	-109
1.78733	-109
1.79100	-109
1.79467	-109
1.79833	-110
1.80200	-110
1.80567	-110
1.80933	-111
1.81300	-112
1.81667	-112
1.82033	-112
1.82400	-113
1.82767	-113
1.83133	-113
1.83500	-112
1.83867	-112
1.84233	-112
1.84600	-112
1.84967	-112
1.85333	-112
1.85700	-112
1.86067	-113
1.86433	-113
1.86800	-113
1.87167	-113
1.87533	-112
1.87900	-112
1.88267	-112
1.88633	-112
1.89000	-112
1.89367	-112
1.89733	-112
1.90100	-112
1.90467	-111
1.90833	-111
1.91200	-111
1.91567	-112
1.91933	-112
1.92300	-111
1.92667	-111
1.93033	-110
1.93400	-110
1.93767	-109
1.94133	-109
1.94500	-108
1.94867	-108
1.95233	-108
1.95600	-107
1.95967	-107
1.96333	-106
1.96700	-106
1.97067	-106
1.97433	-105
1.97800	-106
1.98167	-106
1.98533	-106
1.98900	-106
1.99267	-106
1.99633	-106
2.00000	-107
2.00367	-107
2.00733	-107
2.01100	-107
2.01467	-107
2.01833	-106
2.02200	-106
2.02567	-105
2.02933	-104
2.03300	-104
2.03667	-103
2.04033	-103
2.04400	-103
2.04767	-103
2.05133	-102
2.05500	-102
2.05867	-101
2.06233	-101
2.06600	-100
2.06967	-99
2.07333	-98
2.07700	-98
2.08067	-97
2.08433	-97
2.08800	-97
2.09167	-96
2.09533	-96
2.09900	-96
2.10267	-96
2.10633	-96
2.11000	-96
2.11367	-96
2.11733	-96
2.12100	-96
2.12467	-96
2.12833	-95
2.13200	-95
2.13567	-95
2.13933	-95
2.14300	-95
2.14667	-95
2.15033	-95
2.15400	-94
2.15767	-94
2.16133	-94
2.16500	-94
2.16867	-94
2.17233	-93
2.17600	-92
2.17967	-92
2.18333	-91
2.18700	-90
2.19067	-89
2.19433	-88
2.19800	-87
2.20167	-87
2.20533	-87
2.20900	-86
2.21267	-87
2.21633	-87
2.22000	-87
2.22367	-86
2.22733	-86
2.23100	-86
2.23467	-85
2.23833	-84
2.24200	-83
2.24567	-83
2.24933	-83
2.25300	-83
2.25667	-83
2.26033	-84
2.26400	-85
2.26767	-86
2.27133	-86
2.27500	-86
2.27867	-85
2.28233	-84
2.28600	-84
2.28967	-83
2.29333	-83
2.29700	-83
2.30067	-83
2.30433	-84
2.30800	-84
2.31167	-84
2.31533	-84
2.31900	-83
2.32267	-82
2.32633	-81
2.33000	-79
2.33367	-78
2.33733	-77
2.34100	-76
2.34467	-76
2.34833	-75
2.35200	-75
2.35567	-75
2.35933	-74
2.36300	-73
2.36667	-72
2.37033	-71
2.37400	-69
2.37767	-66
2.38133	-62
2.38500	-59
2.38867	-55
2.39233	-50
2.39600	-46
2.39967	-42
2.40333	-37
2.40700	-32
2.41067	-28
2.41433	-24
2.41800	-20
2.42167	-17
2.42533	-14
2.42900	-12
2.43267	-11
2.43633	-9
2.44000	-8
2.44367	-7
2.44733	-6
2.45100	-5
2.45467	-5
2.45833	-5
2.46200	-4
2.46567	-4
2.46933	-3
2.47300	-2
2.47667	-1
2.48033	-1
2.48400	0
2.48767	1
2.49133	2
2.49500	4
2.49867	5
2.50233	6
2.50600	7
2.50967	9
2.51333	10
2.51700	11
2.52067	12
2.52433	13
2.52800	13
2.53167	13
2.53533	13
2.53900	13
2.54267	13
2.54633	13
2.55000	13
2.55367	14
2.55733	14
2.56100	15
2.56467	15
2.56833	15
2.57200	15
2.57567	15
2.57933	16
2.58300	17
2.58667	17
2.59033	17
2.59400	18
2.59767	18
2.60133	18
2.60500	18
2.60867	18
2.61233	19
2.61600	20
2.61967	21
2.62333	21
2.62700	22
2.63067	22
2.63433	23
2.63800	23
2.64167	23
2.64533	23
2.64900	22
2.65267	22
2.65633	23
2.66000	23
2.66367	23
2.66733	23
2.67100	23
2.67467	23
2.67833	23
2.68200	24
2.68567	24
2.68933	25
2.69300	25
2.69667	25
2.70033	25
2.70400	25
2.70767	25
2.71133	26
2.71500	26
2.71867	26
2.72233	26
2.72600	26
2.72967	27
2.73333	27
2.73700	27
2.74067	28
2.74433	28
2.74800	28
2.75167	28
2.75533	27
2.75900	27
2.76267	26
2.76633	26
2.77000	26
2.77367	25
2.77733	25
2.78100	25
2.78467	25
2.78833	25
2.79200	26
2.79567	26
2.79933	26
2.80300	26
2.80667	26
2.81033	27
2.81400	27
2.81767	27
2.82133	27
2.82500	28
2.82867	28
2.83233	28
2.83600	28
2.83967	27
2.84333	26
2.84700	23
2.85067	19
2.85433	11
2.85800	1
2.86167	-14
2.86533	-33
2.86900	-57
2.87267	-87
2.87633	-123
2.88000	-164
2.88367	-210
2.88733	-262
2.89100	-319
2.89467	-380
2.89833	-446
2.90200	-516
2.90567	-589
2.90933	-666
2.91300	-745
2.91667	-827
2.92033	-911
2.92400	-998
2.92767	-1085
2.93133	-1175
2.93500	-1267
2.93867	-1358
2.94233	-1441
2.94600	-1501
2.94967	-1529
2.95333	-1521
2.95700	-1478
2.96067	-1407
2.96433	-1315
2.96800	-1211
2.97167	-1101
2.97533	-990
2.97900	-882
2.98267	-780
2.98633	-685
2.99000	-598
2.99367	-520
2.99733	-450
3.00100	-387
3.00467	-332
3.00833	-285
3.01200	-243
3.01567	-207
3.01933	-175
3.02300	-149
3.02667	-126
3.03033	-106
3.03400	-89
3.03767	-75
3.04133	-62
3.04500	-52
3.04867	-42
3.05233	-34
3.05600	-28
3.05967	-22
3.06333	-18
3.06700	-14
3.07067	-10
3.07433	-8
3.07800	-5
3.08167	-3
3.08533	-1
3.08900	1
3.09267	3
3.09633	4
3.10000	5
3.10367	6
3.10733	7
3.11100	8
3.11467	9
3.11833	10
3.12200	10
3.12567	11
3.12933	11
3.13300	12
3.13667	13
3.14033	13
3.14400	14
3.14767	15
3.15133	15
3.15500	16
3.15867	16
3.16233	17
3.16600	17
3.16967	17
3.17333	18
3.17700	18
3.18067	18
3.18433	18
3.18800	18
3.19167	18
3.19533	18
3.19900	18
3.20267	18
3.20633	18
3.21000	18
3.21367	19
3.21733	19
3.22100	19
3.22467	19
3.22833	20
3.23200	20
3.23567	20
3.23933	21
3.24300	21
3.24667	22
3.25033	22
3.25400	22
3.25767	23
3.26133	23
3.26500	23
3.26867	23
3.27233	23
3.27600	23
3.27967	23
3.28333	23
3.28700	23
3.29067	23
3.29433	23
3.29800	23
3.30167	23
3.30533	23
3.30900	23
3.31267	23
3.31633	23
3.32000	23
3.32367	23
3.32733	23
3.33100	23
3.33467	23
3.33833	23
3.34200	22
3.34567	22
3.34933	22
3.35300	22
3.35667	22
3.36033	22
3.36400	23
3.36767	23
3.37133	24
3.37500	24
3.37867	25
3.38233	25
3.38600	26
3.38967	26
3.39333	26
3.39700	27
3.40067	27
3.40433	27
3.40800	27
3.41167	28
3.41533	28
3.41900	28
3.42267	29
3.42633	29
3.43000	29
3.43367	29
3.43733	30
3.44100	30
3.44467	30
3.44833	30
3.45200	30
3.45567	30
3.45933	30
3.46300	30
3.46667	30
3.47033	29
3.47400	29
3.47767	29
3.48133	29
3.48500	28
3.48867	28
3.49233	28
3.49600	28
3.49967	28
3.50333	28
3.50700	28
3.51067	28
3.51433	27
3.51800	27
3.52167	27
3.52533	27
3.52900	27
3.53267	27
3.53633	27
3.54000	27
3.54367	27
3.54733	27
3.55100	27
3.55467	27
3.55833	27
3.56200	28
3.56567	28
3.56933	28
3.57300	28
3.57667	28
3.58033	28
3.58400	27
3.58767	27
3.59133	27
3.59500	27
3.59867	27
3.60233	27
3.60600	27
3.60967	27
3.61333	27
3.61700	27
3.62067	27
3.62433	27
3.62800	27
3.63167	27
3.63533	27
3.63900	26
3.64267	26
3.64633	26
3.65000	26
3.65367	26
3.65733	26
3.66100	26
3.66467	26
3.66833	26
3.67200	26
3.67567	27
3.67933	27
3.68300	27
3.68667	27
3.69033	26
3.69400	26
3.69767	26
3.70133	27
3.70500	27
3.70867	27
3.71233	27
3.71600	27
3.71967	27
3.72333	27
3.72700	27
3.73067	26
3.73433	26
3.73800	26
3.74167	27
3.74533	27
3.74900	27
3.75267	27
3.75633	27
3.76000	27
3.76367	27
3.76733	27
3.77100	27
3.77467	27
3.77833	27
3.78200	27
3.78567	27
3.78933	27
3.79300	26
3.79667	26
3.80033	26
3.80400	26
3.80767	26
3.81133	26
3.81500	26
3.81867	26
3.82233	26
3.82600	25
3.82967	25
3.83333	25
3.83700	25
3.84067	25
3.84433	25
3.84800	25
3.85167	25
3.85533	25
3.85900	25
3.86267	25
3.86633	25
3.87000	25
3.87367	25
3.87733	25
3.88100	25
3.88467	26
3.88833	26
3.89200	26
3.89567	26
3.89933	26
3.90300	26
3.90667	26
3.91033	26
3.91400	26
3.91767	26
3.92133	26
3.92500	26
3.92867	26
3.93233	26
3.93600	26
3.93967	26
3.94333	26
3.94700	26
3.95067	26
3.95433	26
3.95800	26
3.96167	26
3.96533	26
3.96900	26
3.97267	26
3.97633	26
3.98000	26
3.98367	26
3.98733	26
3.99100	26
3.99467	26
3.99833	27

[Chromatogram (Ch3)]
Interval(msec)	220
# of Points	1091
Start Time(min)	0.002
End Time(min)	3.998
R.Time (min)	Intensity
0.00167	-2
0.00533	-6
0.00900	-7
0.01267	-5
0.01633	-2
0.02000	-0
0.02367	2
0.02733	5
0.03100	7
0.03467	8
0.03833	8
0.04200	6
0.04567	3
0.04933	4
0.05300	3
0.05667	3
0.06033	3
0.06400	1
0.06767	-3
0.07133	-2
0.07500	-0
0.07867	1
0.08233	3
0.08600	2
0.08967	1
0.09333	-1
0.09700	-1
0.10067	1
0.10433	3
0.10800	4
0.11167	1
0.11533	-2
0.11900	-3
0.12267	-3
0.12633	-1
0.13000	-0
0.13367	2
0.13733	2
0.14100	2
0.14467	2
0.14833	2
0.15200	1
0.15567	1
0.15933	3
0.16300	3
0.16667	2
0.17033	0
0.17400	-0
0.17767	1
0.18133	2
0.18500	2
0.18867	2
0.19233	4
0.19600	3
0.19967	4
0.20333	4
0.20700	2
0.21067	2
0.21433	5
0.21800	6
0.22167	4
0.22533	3
0.22900	3
0.23267	1
0.23633	1
0.24000	1
0.24367	1
0.24733	2
0.25100	2
0.25467	2
0.25833	1
0.26200	0
0.26567	0
0.26933	1
0.27300	1
0.27667	1
0.28033	2
0.28400	3
0.28767	4
0.29133	5
0.29500	4
0.29867	4
0.30233	3
0.30600	3
0.30967	1
0.31333	-2
0.31700	-3
0.32067	-2
0.32433	1
0.32800	2
0.33167	2
0.33533	3
0.33900	4
0.34267	5
0.34633	5
0.35000	4
0.35367	4
0.35733	4
0.36100	4
0.36467	5
0.36833	5
0.37200	5
0.37567	2
0.37933	-0
0.38300	1
0.38667	4
0.39033	7
0.39400	7
0.39767	7
0.40133	8
0.40500	8
0.40867	6
0.41233	4
0.41600	1
0.41967	-1
0.42333	0
0.42700	3
0.43067	4
0.43433	4
0.43800	2
0.44167	1
0.44533	1
0.44900	2
0.45267	4
0.45633	6
0.46000	5
0.46367	5
0.46733	7
0.47100	6
0.47467	5
0.47833	4
0.48200	5
0.48567	7
0.48933	8
0.49300	8
0.49667	7
0.50033	9
0.50400	11
0.50767	12
0.51133	11
0.51500	11
0.51867	10
0.52233	10
0.52600	9
0.52967	9
0.53333	8
0.53700	8
0.54067	10
0.54433	13
0.54800	15
0.55167	16
0.55533	16
0.55900	16
0.56267	16
0.56633	16
0.57000	14
0.57367	13
0.57733	12
0.58100	12
0.58467	11
0.58833	10
0.59200	10
0.59567	11
0.59933	12
0.60300	13
0.60667	13
0.61033	12
0.61400	11
0.61767	11
0.62133	10
0.62500	9
0.62867	7
0.63233	5
0.63600	6
0.63967	10
0.64333	10
0.64700	11
0.65067	11
0.65433	10
0.65800	10
0.66167	12
0.66533	16
0.66900	17
0.67267	16
0.67633	17
0.68000	17
0.68367	17
0.68733	14
0.69100	12
0.69467	11
0.69833	11
0.70200	13
0.70567	13
0.70933	12
0.71300	10
0.71667	8
0.72033	9
0.72400	10
0.72767	10
0.73133	8
0.73500	7
0.73867	9
0.74233	10
0.74600	9
0.74967	12
0.75333	13
0.75700	12
0.76067	11
0.76433	10
0.76800	8
0.77167	8
0.77533	7
0.77900	6
0.78267	4
0.78633	5
0.79000	5
0.79367	6
0.79733	7
0.80100	11
0.80467	15
0.80833	17
0.81200	17
0.81567	16
0.81933	15
0.82300	14
0.82667	15
0.83033	15
0.83400	13
0.83767	13
0.84133	14
0.84500	15
0.84867	18
0.85233	19
0.85600	19
0.85967	19
0.86333	19
0.86700	20
0.87067	20
0.87433	18
0.87800	17
0.88167	16
0.88533	15
0.88900	17
0.89267	17
0.89633	17
0.90000	15
0.90367	13
0.90733	12
0.91100	12
0.91467	12
0.91833	13
0.92200	14
0.92567	15
0.92933	16
0.93300	17
0.93667	17
0.94033	18
0.94400	18
0.94767	18
0.95133	17
0.95500	16
0.95867	14
0.96233	15
0.96600	15
0.96967	16
0.97333	18
0.97700	18
0.98067	17
0.98433	15
0.98800	16
0.99167	16
0.99533	16
0.99900	16
1.00267	17
1.00633	20
1.01000	20
1.01367	18
1.01733	17
1.02100	19
1.02467	19
1.02833	18
1.03200	19
1.03567	21
1.03933	22
1.04300	22
1.04667	22
1.05033	22
1.05400	21
1.05767	20
1.06133	20
1.06500	20
1.06867	22
1.07233	23
1.07600	21
1.07967	20
1.08333	20
1.08700	18
1.09067	15
1.09433	14
1.09800	17
1.10167	19
1.10533	20
1.10900	22
1.11267	21
1.11633	20
1.12000	19
1.12367	21
1.12733	24
1.13100	26
1.13467	28
1.13833	26
1.14200	25
1.14567	23
1.14933	22
1.15300	23
1.15667	25
1.16033	25
1.16400	25
1.16767	23
1.17133	22
1.17500	24
1.17867	24
1.18233	25
1.18600	26
1.18967	26
1.19333	25
1.19700	22
1.20067	22
1.20433	24
1.20800	24
1.21167	25
1.21533	26
1.21900	27
1.22267	28
1.22633	29
1.23000	28
1.23367	27
1.23733	27
1.24100	27
1.24467	26
1.24833	26
1.25200	26
1.25567	25
1.25933	23
1.26300	23
1.26667	24
1.27033	24
1.27400	25
1.27767	27
1.28133	27
1.28500	26
1.28867	27
1.29233	28
1.29600	29
1.29967	29
1.30333	30
1.30700	30
1.31067	29
1.31433	27
1.31800	23
1.32167	22
1.32533	21
1.32900	22
1.33267	22
1.33633	24
1.34000	25
1.34367	26
1.34733	28
1.35100	30
1.35467	32
1.35833	31
1.36200	30
1.36567	30
1.36933	31
1.37300	31
1.37667	32
1.38033	32
1.38400	32
1.38767	30
1.39133	29
1.39500	30
1.39867	30
1.40233	29
1.40600	28
1.40967	26
1.41333	24
1.41700	24
1.42067	24
1.42433	24
1.42800	24
1.43167	23
1.43533	25
1.43900	27
1.44267	28
1.44633	30
1.45000	29
1.45367	28
1.45733	30
1.46100	34
1.46467	36
1.46833	35
1.47200	34
1.47567	31
1.47933	27
1.48300	25
1.48667	25
1.49033	25
1.49400	26
1.49767	27
1.50133	28
1.50500	27
1.50867	28
1.51233	27
1.51600	27
1.51967	27
1.52333	27
1.52700	28
1.53067	28
1.53433	29
1.53800	30
1.54167	30
1.54533	28
1.54900	28
1.55267	27
1.55633	28
1.56000	26
1.56367	27
1.56733	27
1.57100	27
1.57467	27
1.57833	26
1.58200	26
1.58567	27
1.58933	28
1.59300	28
1.59667	29
1.60033	30
1.60400	32
1.60767	34
1.61133	32
1.61500	31
1.61867	32
1.62233	35
1.62600	36
1.62967	36
1.63333	36
1.63700	37
1.64067	37
1.64433	34
1.64800	33
1.65167	33
1.65533	32
1.65900	31
1.66267	31
1.66633	31
1.67000	32
1.67367	34
1.67733	36
1.68100	38
1.68467	39
1.68833	41
1.69200	41
1.69567	42
1.69933	42
1.70300	40
1.70667	40
1.71033	41
1.71400	42
1.71767	44
1.72133	45
1.72500	45
1.72867	46
1.73233	48
1.73600	48
1.73967	47
1.74333	47
1.74700	46
1.75067	45
1.75433	46
1.75800	45
1.76167	44
1.76533	45
1.76900	47
1.77267	49
1.77633	51
1.78000	50
1.78367	50
1.78733	51
1.79100	50
1.79467	51
1.79833	51
1.80200	52
1.80567	53
1.80933	51
1.81300	51
1.81667	50
1.82033	51
1.82400	51
1.82767	51
1.83133	52
1.83500	52
1.83867	53
1.84233	53
1.84600	55
1.84967	55
1.85333	54
1.85700	55
1.86067	56
1.86433	57
1.86800	58
1.87167	60
1.87533	63
1.87900	64
1.88267	64
1.88633	65
1.89000	64
1.89367	64
1.89733	64
1.90100	65
1.90467	68
1.90833	71
1.91200	72
1.91567	72
1.91933	73
1.92300	73
1.92667	72
1.93033	69
1.93400	69
1.93767	71
1.94133	74
1.94500	75
1.94867	75
1.95233	76
1.95600	77
1.95967	78
1.96333	79
1.96700	79
1.97067	81
1.97433	81
1.97800	81
1.98167	81
1.98533	85
1.98900	90
1.99267	92
1.99633	90
2.00000	90
2.00367	91
2.00733	90
2.01100	90
2.01467	92
2.01833	95
2.02200	95
2.02567	95
2.02933	94
2.03300	98
2.03667	100
2.04033	102
2.04400	103
2.04767	105
2.05133	109
2.05500	110
2.05867	110
2.06233	110
2.06600	110
2.06967	112
2.07333	111
2.07700	111
2.08067	111
2.08433	111
2.08800	111
2.09167	111
2.09533	112
2.09900	113
2.10267	115
2.10633	117
2.11000	120
2.11367	123
2.11733	124
2.12100	123
2.12467	122
2.12833	123
2.13200	124
2.13567	125
2.13933	126
2.14300	127
2.14667	130
2.15033	129
2.15400	130
2.15767	131
2.16133	132
2.16500	132
2.16867	133
2.17233	134
2.17600	134
2.17967	135
2.18333	138
2.18700	140
2.19067	143
2.19433	146
2.19800	146
2.20167	144
2.20533	143
2.20900	144
2.21267	145
2.21633	145
2.22000	147
2.22367	148
2.22733	150
2.23100	154
2.23467	155
2.23833	155
2.24200	154
2.24567	154
2.24933	153
2.25300	151
2.25667	152
2.26033	154
2.26400	155
2.26767	156
2.27133	158
2.27500	158
2.27867	157
2.28233	157
2.28600	158
2.28967	157
2.29333	157
2.29700	158
2.30067	158
2.30433	160
2.30800	162
2.31167	162
2.31533	161
2.31900	162
2.32267	165
2.32633	168
2.33000	169
2.33367	168
2.33733	169
2.34100	170
2.34467	169
2.34833	169
2.35200	168
2.35567	170
2.35933	172
2.36300	174
2.36667	176
2.37033	177
2.37400	177
2.37767	176
2.38133	175
2.38500	174
2.38867	173
2.39233	173
2.39600	176
2.39967	178
2.40333	182
2.40700	186
2.41067	188
2.41433	189
2.41800	189
2.42167	189
2.42533	189
2.42900	191
2.43267	193
2.43633	192
2.44000	193
2.44367	239
2.44733	357
2.45100	485
2.45467	591
2.45833	648
2.46200	652
2.46567	637
2.46933	623
2.47300	615
2.47667	606
2.48033	582
2.48400	546
2.48767	508
2.49133	472
2.49500	444
2.49867	423
2.50233	409
2.50600	401
2.50967	402
2.51333	412
2.51700	427
2.52067	441
2.52433	447
2.52800	443
2.53167	429
2.53533	410
2.53900	388
2.54267	366
2.54633	345
2.55000	329
2.55367	313
2.55733	302
2.56100	292
2.56467	285
2.56833	280
2.57200	278
2.57567	278
2.57933	278
2.58300	278
2.58667	279
2.59033	280
2.59400	284
2.59767	290
2.60133	295
2.60500	298
2.60867	299
2.61233	294
2.61600	287
2.61967	278
2.62333	267
2.62700	254
2.63067	242
2.63433	229
2.63800	217
2.64167	206
2.64533	197
2.64900	188
2.65267	179
2.65633	171
2.66000	164
2.66367	158
2.66733	154
2.67100	151
2.67467	146
2.67833	145
2.68200	146
2.68567	147
2.68933	149
2.69300	154
2.69667	159
2.70033	164
2.70400	166
2.70767	168
2.71133	171
2.71500	175
2.71867	180
2.72233	186
2.72600	189
2.72967	191
2.73333	192
2.73700	193
2.74067	197
2.74433	202
2.74800	204
2.75167	206
2.75533	208
2.75900	210
2.76267	213
2.76633	220
2.77000	226
2.77367	231
2.77733	232
2.78100	232
2.78467	233
2.78833	234
2.79200	236
2.79567	238
2.79933	240
2.80300	245
2.80667	251
2.81033	257
2.81400	264
2.81767	275
2.82133	296
2.82500	342
2.82867	447
2.83233	655
2.83600	1029
2.83967	1633
2.84333	2512
2.84700	3687
2.85067	5131
2.85433	6771
2.85800	8503
2.86167	10203
2.86533	11736
2.86900	12981
2.87267	13853
2.87633	14315
2.88000	14379
2.88367	14084
2.88733	13504
2.89100	12718
2.89467	11799
2.89833	10816
2.90200	9818
2.90567	8844
2.90933	7914
2.91300	7048
2.91667	6256
2.92033	5541
2.92400	4894
2.92767	4313
2.93133	3793
2.93500	3333
2.93867	2931
2.94233	2578
2.94600	2267
2.94967	1995
2.95333	1759
2.95700	1553
2.96067	1374
2.96433	1219
2.96800	1084
2.97167	969
2.97533	870
2.97900	784
2.98267	708
2.98633	642
2.99000	585
2.99367	537
2.99733	495
3.00100	459
3.00467	430
3.00833	403
3.01200	377
3.01567	357
3.01933	343
3.02300	330
3.02667	319
3.03033	309
3.03400	298
3.03767	290
3.04133	282
3.04500	276
3.04867	274
3.05233	273
3.05600	270
3.05967	267
3.06333	263
3.06700	261
3.07067	258
3.07433	254
3.07800	251
3.08167	250
3.08533	250
3.08900	250
3.09267	248
3.09633	244
3.10000	242
3.10367	247
3.10733	262
3.11100	285
3.11467	311
3.11833	340
3.12200	372
3.12567	408
3.12933	446
3.13300	487
3.13667	530
3.14033	570
3.14400	605
3.14767	636
3.15133	667
3.15500	693
3.15867	716
3.16233	737
3.16600	755
3.16967	770
3.17333	786
3.17700	802
3.18067	813
3.18433	822
3.18800	833
3.19167	843
3.19533	853
3.19900	863
3.20267	870
3.20633	876
3.21000	881
3.21367	886
3.21733	893
3.22100	902
3.22467	909
3.22833	914
3.23200	918
3.23567	922
3.23933	928
3.24300	933
3.24667	938
3.25033	942
3.25400	948
3.25767	952
3.26133	953
3.26500	953
3.26867	955
3.27233	957
3.27600	957
3.27967	957
3.28333	960
3.28700	962
3.29067	962
3.29433	962
3.29800	960
3.30167	958
3.30533	957
3.30900	954
3.31267	952
3.31633	954
3.32000	955
3.32367	954
3.32733	950
3.33100	947
3.33467	946
3.33833	945
3.34200	944
3.34567	943
3.34933	939
3.35300	935
3.35667	933
3.36033	932
3.36400	931
3.36767	929
3.37133	926
3.37500	921
3.37867	918
3.38233	916
3.38600	915
3.38967	912
3.39333	909
3.39700	906
3.40067	903
3.40433	903
3.40800	901
3.41167	896
3.41533	891
3.41900	888
3.42267	885
3.42633	882
3.43000	879
3.43367	878
3.43733	878
3.44100	877
3.44467	876
3.44833	872
3.45200	869
3.45567	867
3.45933	864
3.46300	863
3.46667	865
3.47033	864
3.47400	862
3.47767	860
3.48133	856
3.48500	854
3.48867	852
3.49233	850
3.49600	848
3.49967	848
3.50333	847
3.50700	845
3.51067	844
3.51433	842
3.51800	841
3.52167	841
3.52533	838
3.52900	836
3.53267	834
3.53633	831
3.54000	827
3.54367	822
3.54733	818
3.55100	814
3.55467	813
3.55833	813
3.56200	811
3.56567	809
3.56933	808
3.57300	806
3.57667	803
3.58033	800
3.58400	800
3.58767	799
3.59133	797
3.59500	795
3.59867	792
3.60233	787
3.60600	785
3.60967	783
3.61333	780
3.61700	776
3.62067	773
3.62433	772
3.62800	769
3.63167	767
3.63533	766
3.63900	764
3.64267	762
3.64633	759
3.65000	754
3.65367	750
3.65733	747
3.66100	743
3.66467	741
3.66833	740
3.67200	739
3.67567	738
3.67933	736
3.68300	733
3.68667	728
3.69033	723
3.69400	720
3.69767	717
3.70133	716
3.70500	713
3.70867	710
3.71233	708
3.71600	706
3.71967	704
3.72333	700
3.72700	697
3.73067	693
3.73433	689
3.73800	684
3.74167	682
3.74533	681
3.74900	682
3.75267	681
3.75633	680
3.76000	679
3.76367	677
3.76733	673
3.77100	669
3.77467	666
3.77833	664
3.78200	663
3.78567	661
3.78933	659
3.79300	656
3.79667	654
3.80033	651
3.80400	646
3.80767	642
3.81133	641
3.81500	641
3.81867	639
3.82233	639
3.82600	639
3.82967	637
3.83333	635
3.83700	634
3.84067	632
3.84433	630
3.84800	627
3.85167	624
3.85533	623
3.85900	622
3.86267	620
3.86633	620
3.87000	618
3.87367	615
3.87733	612
3.88100	611
3.88467	611
3.88833	613
3.89200	611
3.89567	608
3.89933	606
3.90300	605
3.90667	603
3.91033	599
3.91400	597
3.91767	595
3.92133	592
3.92500	592
3.92867	593
3.93233	594
3.93600	593
3.93967	592
3.94333	591
3.94700	587
3.95067	586
3.95433	584
3.95800	584
3.96167	584
3.96533	582
3.96900	581
3.97267	581
3.97633	579
3.98000	575
3.98367	574
3.98733	571
3.99100	569
3.99467	569
3.99833	565

[Status Trace (Column Oven Temperature)]
Interval(msec)	1000
# of Points	240
Start Time(min)	0.007
End Time(min)	3.990
Intensity Units	
Intensity Multiplier	1
R.Time (min)	Intensity
0.00653	35.03
0.02320	35.04
0.03987	35.04
0.05653	35.05
0.07320	35.05
0.08987	35.05
0.10653	35.05
0.12320	35.05
0.13987	35.05
0.15653	35.04
0.17320	35.02
0.18987	35.02
0.20653	35.02
0.22320	35.01
0.23987	35.02
0.25653	35.02
0.27320	35.02
0.28987	35.03
0.30653	35.01
0.32320	35.02
0.33987	35.03
0.35653	35.03
0.37320	35.02
0.38987	35.01
0.40653	34.99
0.42320	34.99
0.43987	34.99
0.45653	35.01
0.47320	35.02
0.48987	35.02
0.50653	35.02
0.52320	35.02
0.53987	35.01
0.55653	35.01
0.57320	35.00
0.58987	35.00
0.60653	34.99
0.62320	35.00
0.63987	35.00
0.65653	35.01
0.67320	35.01
0.68987	35.01
0.70653	34.99
0.72320	34.99
0.73987	34.98
0.75653	34.97
0.77320	34.97
0.78987	34.97
0.80653	34.99
0.82320	35.00
0.83987	35.01
0.85653	35.02
0.87320	35.01
0.88987	35.00
0.90653	34.99
0.92320	34.98
0.93987	34.99
0.95653	34.99
0.97320	34.99
0.98987	34.99
1.00653	34.99
1.02320	35.01
1.03987	35.01
1.05653	35.00
1.07320	35.01
1.08987	35.01
1.10653	35.00
1.12320	35.00
1.13987	35.00
1.15653	35.01
1.17320	35.00
1.18987	35.00
1.20653	35.00
1.22320	35.01
1.23987	35.00
1.25653	35.00
1.27320	34.99
1.28987	35.00
1.30653	35.00
1.32320	35.00
1.33987	34.99
1.35653	34.98
1.37320	34.99
1.38987	34.99
1.40653	34.99
1.42320	34.98
1.43987	34.99
1.45653	35.00
1.47320	35.01
1.48987	35.02
1.50653	35.02
1.52320	35.02
1.53987	35.02
1.55653	35.01
1.57320	35.00
1.58987	35.01
1.60653	35.06
1.62320	35.17
1.63987	35.34
1.65653	35.58
1.67320	35.92
1.68987	36.29
1.70653	36.65
1.72320	36.98
1.73987	37.32
1.75653	37.64
1.77320	37.98
1.78987	38.30
1.80653	38.64
1.82320	38.98
1.83987	39.30
1.85653	39.64
1.87320	39.96
1.88987	40.29
1.90653	40.62
1.92320	40.95
1.93987	41.28
1.95653	41.59
1.97320	41.93
1.98987	42.25
2.00653	42.58
2.02320	42.90
2.03987	43.22
2.05653	43.55
2.07320	43.87
2.08987	44.20
2.10653	44.51
2.12320	44.84
2.13987	45.16
2.15653	45.50
2.17320	45.83
2.18987	46.15
2.20653	46.47
2.22320	46.81
2.23987	47.12
2.25653	47.46
2.27320	47.79
2.28987	48.12
2.30653	48.50
2.32320	48.81
2.33987	49.12
2.35653	49.43
2.37320	49.65
2.38987	49.73
2.40653	49.72
2.42320	49.71
2.43987	49.71
2.45653	49.72
2.47320	49.73
2.48987	49.74
2.50653	49.74
2.52320	49.74
2.53987	49.78
2.55653	49.79
2.57320	49.80
2.58987	49.82
2.60653	49.83
2.62320	49.84
2.63987	49.84
2.65653	49.85
2.67320	49.85
2.68987	49.84
2.70653	49.86
2.72320	49.86
2.73987	49.85
2.75653	49.86
2.77320	49.88
2.78987	49.88
2.80653	49.88
2.82320	49.87
2.83987	49.87
2.85653	49.87
2.87320	49.87
2.88987	49.89
2.90653	49.91
2.92320	49.93
2.93987	49.95
2.95653	49.97
2.97320	49.98
2.98987	49.99
3.00653	49.98
3.02320	49.99
3.03987	49.98
3.05653	49.99
3.07320	50.00
3.08987	50.01
3.10653	50.01
3.12320	50.01
3.13987	50.02
3.15653	50.02
3.17320	50.03
3.18987	50.04
3.20653	50.06
3.22320	50.07
3.23987	50.06
3.25653	50.06
3.27320	50.07
3.28987	50.08
3.30653	50.09
3.32320	50.09
3.33987	50.10
3.35653	50.12
3.37320	50.11
3.38987	50.11
3.40653	50.09
3.42320	50.07
3.43987	50.06
3.45653	50.04
3.47320	50.04
3.48987	50.03
3.50653	50.02
3.52320	50.02
3.53987	50.02
3.55653	50.02
3.57320	50.01
3.58987	50.01
3.60653	50.00
3.62320	50.01
3.63987	50.01
3.65653	50.01
3.67320	50.02
3.68987	50.01
3.70653	50.01
3.72320	50.01
3.73987	50.01
3.75653	50.01
3.77320	50.02
3.78987	50.02
3.80653	50.03
3.82320	50.04
3.83987	50.04
3.85653	50.04
3.87320	50.04
3.88987	50.04
3.90653	50.05
3.92320	50.05
3.93987	50.04
3.95653	50.04
3.97320	50.04
3.98987	50.04

[Status Trace (Injection Unit Temperature)]
Interval(msec)	1000
# of Points	240
Start Time(min)	0.007
End Time(min)	3.990
Intensity Units	
Intensity Multiplier	1
R.Time (min)	Intensity
0.00653	99.98
0.02320	99.98
0.03987	99.98
0.05653	99.98
0.07320	99.98
0.08987	99.98
0.10653	99.97
0.12320	99.98
0.13987	99.98
0.15653	99.98
0.17320	99.98
0.18987	99.98
0.20653	99.98
0.22320	99.98
0.23987	99.98
0.25653	99.98
0.27320	99.98
0.28987	99.98
0.30653	99.98
0.32320	99.98
0.33987	99.98
0.35653	99.98
0.37320	99.98
0.38987	99.98
0.40653	99.98
0.42320	99.98
0.43987	99.98
0.45653	99.98
0.47320	99.98
0.48987	99.98
0.50653	99.98
0.52320	99.98
0.53987	99.98
0.55653	99.98
0.57320	99.98
0.58987	99.98
0.60653	99.98
0.62320	99.98
0.63987	99.97
0.65653	99.97
0.67320	99.98
0.68987	99.98
0.70653	99.98
0.72320	99.98
0.73987	99.98
0.75653	99.98
0.77320	99.98
0.78987	99.98
0.80653	99.97
0.82320	99.98
0.83987	99.98
0.85653	99.98
0.87320	99.98
0.88987	99.98
0.90653	99.97
0.92320	99.97
0.93987	99.97
0.95653	99.98
0.97320	99.98
0.98987	99.98
1.00653	99.98
1.02320	99.98
1.03987	99.98
1.05653	99.98
1.07320	99.98
1.08987	99.98
1.10653	99.98
1.12320	99.98
1.13987	99.98
1.15653	99.98
1.17320	99.98
1.18987	99.98
1.20653	99.98
1.22320	99.98
1.23987	99.98
1.25653	99.99
1.27320	99.98
1.28987	99.98
1.30653	99.98
1.32320	99.99
1.33987	99.99
1.35653	99.98
1.37320	99.99
1.38987	99.99
1.40653	99.99
1.42320	99.99
1.43987	99.98
1.45653	99.98
1.47320	99.99
1.48987	99.98
1.50653	99.98
1.52320	99.98
1.53987	99.98
1.55653	99.98
1.57320	99.98
1.58987	99.98
1.60653	99.98
1.62320	99.98
1.63987	99.99
1.65653	99.98
1.67320	99.98
1.68987	99.98
1.70653	99.98
1.72320	99.98
1.73987	99.98
1.75653	99.98
1.77320	99.98
1.78987	99.98
1.80653	99.98
1.82320	99.98
1.83987	99.98
1.85653	99.98
1.87320	99.98
1.88987	99.98
1.90653	99.97
1.92320	99.98
1.93987	99.97
1.95653	99.98
1.97320	99.98
1.98987	99.97
2.00653	99.98
2.02320	99.98
2.03987	99.97
2.05653	99.98
2.07320	99.97
2.08987	99.97
2.10653	99.97
2.12320	99.97
2.13987	99.97
2.15653	99.97
2.17320	99.97
2.18987	99.97
2.20653	99.97
2.22320	99.97
2.23987	99.97
2.25653	99.97
2.27320	99.97
2.28987	99.97
2.30653	99.97
2.32320	99.97
2.33987	99.97
2.35653	99.97
2.37320	99.97
2.38987	99.97
2.40653	99.97
2.42320	99.97
2.43987	99.97
2.45653	99.96
2.47320	99.97
2.48987	99.97
2.50653	99.97
2.52320	99.97
2.53987	99.97
2.55653	99.97
2.57320	99.97
2.58987	99.97
2.60653	99.97
2.62320	99.97
2.63987	99.97
2.65653	99.98
2.67320	99.98
2.68987	99.97
2.70653	99.98
2.72320	99.98
2.73987	99.98
2.75653	99.99
2.77320	99.98
2.78987	99.98
2.80653	99.99
2.82320	99.99
2.83987	99.99
2.85653	99.99
2.87320	99.99
2.88987	100.00
2.90653	99.99
2.92320	100.00
2.93987	100.00
2.95653	100.00
2.97320	100.00
2.98987	100.00
3.00653	100.00
3.02320	100.01
3.03987	100.01
3.05653	100.01
3.07320	100.01
3.08987	100.01
3.10653	100.02
3.12320	100.02
3.13987	100.02
3.15653	100.02
3.17320	100.02
3.18987	100.02
3.20653	100.02
3.22320	100.02
3.23987	100.02
3.25653	100.03
3.27320	100.03
3.28987	100.03
3.30653	100.03
3.32320	100.03
3.33987	100.03
3.35653	100.03
3.37320	100.03
3.38987	100.03
3.40653	100.04
3.42320	100.04
3.43987	100.04
3.45653	100.04
3.47320	100.04
3.48987	100.04
3.50653	100.04
3.52320	100.04
3.53987	100.04
3.55653	100.04
3.57320	100.04
3.58987	100.05
3.60653	100.05
3.62320	100.04
3.63987	100.04
3.65653	100.05
3.67320	100.05
3.68987	100.05
3.70653	100.05
3.72320	100.05
3.73987	100.05
3.75653	100.05
3.77320	100.04
3.78987	100.05
3.80653	100.04
3.82320	100.04
3.83987	100.05
3.85653	100.04
3.87320	100.05
3.88987	100.04
3.90653	100.05
3.92320	100.04
3.93987	100.04
3.95653	100.05
3.97320	100.04
3.98987	100.04

[Status Trace (Carrier Gas Pressure)]
Interval(msec)	1000
# of Points	240
Start Time(min)	0.007
End Time(min)	3.990
Intensity Units	
Intensity Multiplier	1
R.Time (min)	Intensity
0.00653	58.00
0.02320	55.63
0.03987	56.93
0.05653	59.15
0.07320	59.57
0.08987	58.10
0.10653	57.98
0.12320	58.01
0.13987	58.01
0.15653	58.00
0.17320	58.00
0.18987	58.00
0.20653	58.00
0.22320	58.00
0.23987	58.00
0.25653	58.00
0.27320	58.00
0.28987	58.00
0.30653	58.00
0.32320	58.00
0.33987	58.00
0.35653	58.00
0.37320	58.00
0.38987	58.00
0.40653	58.00
0.42320	58.00
0.43987	58.00
0.45653	58.00
0.47320	58.00
0.48987	58.00
0.50653	58.00
0.52320	58.00
0.53987	58.00
0.55653	58.00
0.57320	58.00
0.58987	58.00
0.60653	58.00
0.62320	58.00
0.63987	58.00
0.65653	58.00
0.67320	58.00
0.68987	58.00
0.70653	58.00
0.72320	58.00
0.73987	58.00
0.75653	58.00
0.77320	58.00
0.78987	58.00
0.80653	58.00
0.82320	58.00
0.83987	58.00
0.85653	58.00
0.87320	58.00
0.88987	58.00
0.90653	58.00
0.92320	58.00
0.93987	58.00
0.95653	58.00
0.97320	58.00
0.98987	58.00
1.00653	58.00
1.02320	58.00
1.03987	58.00
1.05653	58.00
1.07320	58.00
1.08987	58.00
1.10653	58.00
1.12320	58.00
1.13987	58.00
1.15653	58.00
1.17320	58.00
1.18987	58.00
1.20653	58.00
1.22320	58.00
1.23987	58.00
1.25653	58.00
1.27320	58.00
1.28987	58.00
1.30653	58.00
1.32320	58.00
1.33987	58.00
1.35653	58.00
1.37320	58.00
1.38987	58.00
1.40653	58.00
1.42320	58.00
1.43987	58.00
1.45653	58.00
1.47320	58.00
1.48987	58.00
1.50653	58.00
1.52320	58.00
1.53987	58.00
1.55653	58.00
1.57320	58.00
1.58987	58.00
1.60653	58.00
1.62320	58.00
1.63987	58.00
1.65653	58.00
1.67320	58.01
1.68987	58.00
1.70653	58.00
1.72320	58.00
1.73987	58.00
1.75653	58.00
1.77320	58.00
1.78987	58.00
1.80653	58.00
1.82320	58.00
1.83987	58.00
1.85653	58.00
1.87320	58.00
1.88987	58.00
1.90653	58.00
1.92320	58.00
1.93987	58.00
1.95653	58.00
1.97320	58.00
1.98987	58.00
2.00653	58.00
2.02320	58.00
2.03987	58.00
2.05653	58.00
2.07320	58.00
2.08987	58.00
2.10653	58.00
2.12320	58.00
2.13987	58.00
2.15653	58.00
2.17320	58.00
2.18987	58.00
2.20653	58.00
2.22320	58.00
2.23987	58.00
2.25653	58.00
2.27320	58.00
2.28987	58.00
2.30653	58.00
2.32320	58.00
2.33987	58.00
2.35653	58.00
2.37320	58.00
2.38987	57.99
2.40653	57.99
2.42320	58.00
2.43987	58.00
2.45653	58.00
2.47320	58.00
2.48987	58.00
2.50653	57.99
2.52320	57.98
2.53987	58.00
2.55653	58.00
2.57320	58.00
2.58987	58.00
2.60653	58.00
2.62320	58.00
2.63987	58.00
2.65653	58.00
2.67320	58.00
2.68987	58.00
2.70653	58.00
2.72320	58.00
2.73987	58.00
2.75653	58.00
2.77320	58.00
2.78987	58.00
2.80653	58.00
2.82320	58.00
2.83987	58.00
2.85653	58.00
2.87320	58.00
2.88987	58.00
2.90653	58.00
2.92320	58.00
2.93987	58.00
2.95653	58.00
2.97320	58.00
2.98987	58.00
3.00653	58.00
3.02320	58.00
3.03987	58.00
3.05653	58.00
3.07320	58.00
3.08987	58.00
3.10653	58.00
3.12320	58.00
3.13987	58.00
3.15653	58.00
3.17320	58.00
3.18987	58.00
3.20653	58.00
3.22320	58.00
3.23987	58.00
3.25653	58.00
3.27320	58.00
3.28987	58.00
3.30653	58.00
3.32320	58.00
3.33987	58.00
3.35653	58.00
3.37320	58.00
3.38987	58.00
3.40653	58.00
3.42320	58.00
3.43987	58.00
3.45653	58.00
3.47320	58.00
3.48987	58.00
3.50653	58.00
3.52320	58.00
3.53987	58.00
3.55653	58.00
3.57320	58.00
3.58987	58.00
3.60653	58.00
3.62320	58.00
3.63987	58.00
3.65653	58.00
3.67320	58.00
3.68987	58.00
3.70653	58.00
3.72320	58.00
3.73987	58.00
3.75653	58.00
3.77320	58.00
3.78987	58.00
3.80653	58.00
3.82320	58.00
3.83987	58.00
3.85653	58.00
3.87320	58.00
3.88987	58.00
3.90653	58.00
3.92320	58.00
3.93987	58.00
3.95653	58.00
3.97320	58.00
3.98987	58.00

[Status Trace (Carrier Gas Flow)]
Interval(msec)	1000
# of Points	240
Start Time(min)	0.007
End Time(min)	3.990
Intensity Units	
Intensity Multiplier	1
R.Time (min)	Intensity
0.00653	34.52
0.02320	34.53
0.03987	34.54
0.05653	34.55
0.07320	34.49
0.08987	34.52
0.10653	34.52
0.12320	34.52
0.13987	34.52
0.15653	34.52
0.17320	34.52
0.18987	34.52
0.20653	34.52
0.22320	34.52
0.23987	34.52
0.25653	34.52
0.27320	34.52
0.28987	34.52
0.30653	34.52
0.32320	34.52
0.33987	34.52
0.35653	34.52
0.37320	34.51
0.38987	34.52
0.40653	34.52
0.42320	34.52
0.43987	34.52
0.45653	34.52
0.47320	34.52
0.48987	34.52
0.50653	34.52
0.52320	34.52
0.53987	34.52
0.55653	34.52
0.57320	34.52
0.58987	34.52
0.60653	34.52
0.62320	34.52
0.63987	34.52
0.65653	34.52
0.67320	34.52
0.68987	34.52
0.70653	34.52
0.72320	34.52
0.73987	34.52
0.75653	34.52
0.77320	34.52
0.78987	34.52
0.80653	34.51
0.82320	34.52
0.83987	34.52
0.85653	34.52
0.87320	34.52
0.88987	34.52
0.90653	34.52
0.92320	34.52
0.93987	34.52
0.95653	34.52
0.97320	34.52
0.98987	34.52
1.00653	34.51
1.02320	34.52
1.03987	34.52
1.05653	34.51
1.07320	34.51
1.08987	34.52
1.10653	34.51
1.12320	34.52
1.13987	34.51
1.15653	34.51
1.17320	34.51
1.18987	34.52
1.20653	34.52
1.22320	34.52
1.23987	34.51
1.25653	34.51
1.27320	34.51
1.28987	34.51
1.30653	34.52
1.32320	34.51
1.33987	34.52
1.35653	34.51
1.37320	34.51
1.38987	34.52
1.40653	34.53
1.42320	34.52
1.43987	34.52
1.45653	34.51
1.47320	34.52
1.48987	34.52
1.50653	34.52
1.52320	34.52
1.53987	34.52
1.55653	34.52
1.57320	34.51
1.58987	34.52
1.60653	34.52
1.62320	34.52
1.63987	34.51
1.65653	34.53
1.67320	34.52
1.68987	34.52
1.70653	34.52
1.72320	34.52
1.73987	34.52
1.75653	34.52
1.77320	34.52
1.78987	34.52
1.80653	34.51
1.82320	34.52
1.83987	34.52
1.85653	34.52
1.87320	34.52
1.88987	34.52
1.90653	34.52
1.92320	34.52
1.93987	34.52
1.95653	34.52
1.97320	34.52
1.98987	34.52
2.00653	34.52
2.02320	34.52
2.03987	34.51
2.05653	34.52
2.07320	34.51
2.08987	34.52
2.10653	34.51
2.12320	34.52
2.13987	34.52
2.15653	34.52
2.17320	34.53
2.18987	34.53
2.20653	34.52
2.22320	34.52
2.23987	34.52
2.25653	34.52
2.27320	34.52
2.28987	34.51
2.30653	34.51
2.32320	34.52
2.33987	34.53
2.35653	34.52
2.37320	34.52
2.38987	34.51
2.40653	34.52
2.42320	34.52
2.43987	34.51
2.45653	34.52
2.47320	34.52
2.48987	34.52
2.50653	34.36
2.52320	34.52
2.53987	34.52
2.55653	34.52
2.57320	34.51
2.58987	34.52
2.60653	34.51
2.62320	34.52
2.63987	34.52
2.65653	34.52
2.67320	34.52
2.68987	34.53
2.70653	34.53
2.72320	34.52
2.73987	34.52
2.75653	34.52
2.77320	34.52
2.78987	34.52
2.80653	34.52
2.82320	34.52
2.83987	34.52
2.85653	34.53
2.87320	34.51
2.88987	34.52
2.90653	34.52
2.92320	34.52
2.93987	34.52
2.95653	34.52
2.97320	34.52
2.98987	34.52
3.00653	34.51
3.02320	34.52
3.03987	34.52
3.05653	34.52
3.07320	34.52
3.08987	34.52
3.10653	34.52
3.12320	34.52
3.13987	34.52
3.15653	34.52
3.17320	34.52
3.18987	34.52
3.20653	34.52
3.22320	34.52
3.23987	34.52
3.25653	34.52
3.27320	34.52
3.28987	34.52
3.30653	34.52
3.32320	34.52
3.33987	34.51
3.35653	34.52
3.37320	34.52
3.38987	34.52
3.40653	34.52
3.42320	34.52
3.43987	34.51
3.45653	34.52
3.47320	34.52
3.48987	34.52
3.50653	34.52
3.52320	34.52
3.53987	34.52
3.55653	34.52
3.57320	34.52
3.58987	34.52
3.60653	34.52
3.62320	34.52
3.63987	34.51
3.65653	34.52
3.67320	34.52
3.68987	34.52
3.70653	34.52
3.72320	34.52
3.73987	34.52
3.75653	34.52
3.77320	34.51
3.78987	34.52
3.80653	34.52
3.82320	34.52
3.83987	34.52
3.85653	34.52
3.87320	34.52
3.88987	34.52
3.90653	34.52
3.92320	34.51
3.93987	34.52
3.95653	34.52
3.97320	34.52
3.98987	34.51

[Status Trace (Column Flow)]
Interval(msec)	1000
# of Points	240
Start Time(min)	0.007
End Time(min)	3.990
Intensity Units	
Intensity Multiplier	1
R.Time (min)	Intensity
0.00653	5.52
0.02320	5.25
0.03987	5.40
0.05653	5.66
0.07320	5.70
0.08987	5.53
0.10653	5.52
0.12320	5.52
0.13987	5.52
0.15653	5.52
0.17320	5.52
0.18987	5.52
0.20653	5.52
0.22320	5.52
0.23987	5.52
0.25653	5.52
0.27320	5.52
0.28987	5.52
0.30653	5.52
0.32320	5.52
0.33987	5.52
0.35653	5.52
0.37320	5.52
0.38987	5.52
0.40653	5.52
0.42320	5.52
0.43987	5.52
0.45653	5.52
0.47320	5.52
0.48987	5.52
0.50653	5.52
0.52320	5.52
0.53987	5.52
0.55653	5.52
0.57320	5.52
0.58987	5.52
0.60653	5.52
0.62320	5.52
0.63987	5.52
0.65653	5.52
0.67320	5.52
0.68987	5.52
0.70653	5.52
0.72320	5.52
0.73987	5.52
0.75653	5.52
0.77320	5.52
0.78987	5.52
0.80653	5.52
0.82320	5.52
0.83987	5.52
0.85653	5.52
0.87320	5.52
0.88987	5.52
0.90653	5.52
0.92320	5.52
0.93987	5.52
0.95653	5.52
0.97320	5.52
0.98987	5.52
1.00653	5.52
1.02320	5.52
1.03987	5.52
1.05653	5.52
1.07320	5.52
1.08987	5.52
1.10653	5.52
1.12320	5.52
1.13987	5.52
1.15653	5.52
1.17320	5.52
1.18987	5.52
1.20653	5.52
1.22320	5.52
1.23987	5.52
1.25653	5.52
1.27320	5.52
1.28987	5.52
1.30653	5.52
1.32320	5.52
1.33987	5.52
1.35653	5.52
1.37320	5.52
1.38987	5.52
1.40653	5.52
1.42320	5.52
1.43987	5.52
1.45653	5.52
1.47320	5.52
1.48987	5.52
1.50653	5.52
1.52320	5.52
1.53987	5.52
1.55653	5.52
1.57320	5.52
1.58987	5.52
1.60653	5.52
1.62320	5.52
1.63987	5.51
1.65653	5.51
1.67320	5.49
1.68987	5.48
1.70653	5.47
1.72320	5.46
1.73987	5.45
1.75653	5.44
1.77320	5.43
1.78987	5.42
1.80653	5.41
1.82320	5.40
1.83987	5.39
1.85653	5.38
1.87320	5.37
1.88987	5.36
1.90653	5.35
1.92320	5.34
1.93987	5.33
1.95653	5.32
1.97320	5.31
1.98987	5.30
2.00653	5.29
2.02320	5.28
2.03987	5.27
2.05653	5.26
2.07320	5.25
2.08987	5.24
2.10653	5.24
2.12320	5.23
2.13987	5.22
2.15653	5.21
2.17320	5.20
2.18987	5.19
2.20653	5.18
2.22320	5.17
2.23987	5.16
2.25653	5.15
2.27320	5.14
2.28987	5.13
2.30653	5.12
2.32320	5.11
2.33987	5.10
2.35653	5.10
2.37320	5.09
2.38987	5.09
2.40653	5.09
2.42320	5.09
2.43987	5.09
2.45653	5.09
2.47320	5.09
2.48987	5.09
2.50653	5.09
2.52320	5.09
2.53987	5.09
2.55653	5.09
2.57320	5.09
2.58987	5.08
2.60653	5.08
2.62320	5.08
2.63987	5.08
2.65653	5.08
2.67320	5.08
2.68987	5.08
2.70653	5.08
2.72320	5.08
2.73987	5.08
2.75653	5.08
2.77320	5.08
2.78987	5.08
2.80653	5.08
2.82320	5.08
2.83987	5.08
2.85653	5.08
2.87320	5.08
2.88987	5.08
2.90653	5.08
2.92320	5.08
2.93987	5.08
2.95653	5.08
2.97320	5.08
2.98987	5.08
3.00653	5.08
3.02320	5.08
3.03987	5.08
3.05653	5.08
3.07320	5.08
3.08987	5.08
3.10653	5.08
3.12320	5.08
3.13987	5.08
3.15653	5.08
3.17320	5.08
3.18987	5.08
3.20653	5.08
3.22320	5.08
3.23987	5.08
3.25653	5.08
3.27320	5.08
3.28987	5.08
3.30653	5.08
3.32320	5.08
3.33987	5.08
3.35653	5.08
3.37320	5.08
3.38987	5.08
3.40653	5.08
3.42320	5.08
3.43987	5.08
3.45653	5.08
3.47320	5.08
3.48987	5.08
3.50653	5.08
3.52320	5.08
3.53987	5.08
3.55653	5.08
3.57320	5.08
3.58987	5.08
3.60653	5.08
3.62320	5.08
3.63987	5.08
3.65653	5.08
3.67320	5.08
3.68987	5.08
3.70653	5.08
3.72320	5.08
3.73987	5.08
3.75653	5.08
3.77320	5.08
3.78987	5.08
3.80653	5.08
3.82320	5.08
3.83987	5.08
3.85653	5.08
3.87320	5.08
3.88987	5.08
3.90653	5.08
3.92320	5.08
3.93987	5.08
3.95653	5.08
3.97320	5.08
3.98987	5.08

[Status Trace (Linear Velocity)]
Interval(msec)	1000
# of Points	240
Start Time(min)	0.007
End Time(min)	3.990
Intensity Units	
Intensity Multiplier	1
R.Time (min)	Intensity
0.00653	39.01
0.02320	37.46
0.03987	38.31
0.05653	39.76
0.07320	40.04
0.08987	39.07
0.10653	39.00
0.12320	39.02
0.13987	39.02
0.15653	39.02
0.17320	39.02
0.18987	39.02
0.20653	39.02
0.22320	39.02
0.23987	39.02
0.25653	39.02
0.27320	39.02
0.28987	39.02
0.30653	39.02
0.32320	39.02
0.33987	39.02
0.35653	39.01
0.37320	39.01
0.38987	39.02
0.40653	39.02
0.42320	39.02
0.43987	39.02
0.45653	39.02
0.47320	39.02
0.48987	39.02
0.50653	39.02
0.52320	39.02
0.53987	39.02
0.55653	39.02
0.57320	39.02
0.58987	39.02
0.60653	39.02
0.62320	39.02
0.63987	39.02
0.65653	39.02
0.67320	39.02
0.68987	39.02
0.70653	39.02
0.72320	39.02
0.73987	39.02
0.75653	39.02
0.77320	39.02
0.78987	39.02
0.80653	39.02
0.82320	39.02
0.83987	39.02
0.85653	39.02
0.87320	39.02
0.88987	39.02
0.90653	39.02
0.92320	39.02
0.93987	39.02
0.95653	39.02
0.97320	39.02
0.98987	39.02
1.00653	39.02
1.02320	39.02
1.03987	39.02
1.05653	39.02
1.07320	39.02
1.08987	39.02
1.10653	39.02
1.12320	39.02
1.13987	39.02
1.15653	39.02
1.17320	39.02
1.18987	39.02
1.20653	39.02
1.22320	39.02
1.23987	39.02
1.25653	39.02
1.27320	39.02
1.28987	39.02
1.30653	39.02
1.32320	39.02
1.33987	39.02
1.35653	39.02
1.37320	39.02
1.38987	39.02
1.40653	39.02
1.42320	39.02
1.43987	39.02
1.45653	39.02
1.47320	39.02
1.48987	39.02
1.50653	39.02
1.52320	39.01
1.53987	39.02
1.55653	39.02
1.57320	39.02
1.58987	39.02
1.60653	39.01
1.62320	39.00
1.63987	38.99
1.65653	38.96
1.67320	38.93
1.68987	38.90
1.70653	38.86
1.72320	38.83
1.73987	38.80
1.75653	38.76
1.77320	38.73
1.78987	38.71
1.80653	38.67
1.82320	38.64
1.83987	38.61
1.85653	38.58
1.87320	38.55
1.88987	38.51
1.90653	38.48
1.92320	38.45
1.93987	38.42
1.95653	38.39
1.97320	38.36
1.98987	38.33
2.00653	38.30
2.02320	38.27
2.03987	38.24
2.05653	38.21
2.07320	38.18
2.08987	38.15
2.10653	38.13
2.12320	38.10
2.13987	38.07
2.15653	38.04
2.17320	38.00
2.18987	37.98
2.20653	37.95
2.22320	37.92
2.23987	37.89
2.25653	37.86
2.27320	37.83
2.28987	37.80
2.30653	37.77
2.32320	37.74
2.33987	37.71
2.35653	37.68
2.37320	37.66
2.38987	37.65
2.40653	37.65
2.42320	37.66
2.43987	37.66
2.45653	37.66
2.47320	37.66
2.48987	37.66
2.50653	37.65
2.52320	37.64
2.53987	37.65
2.55653	37.65
2.57320	37.65
2.58987	37.65
2.60653	37.65
2.62320	37.65
2.63987	37.65
2.65653	37.65
2.67320	37.65
2.68987	37.65
2.70653	37.65
2.72320	37.65
2.73987	37.65
2.75653	37.65
2.77320	37.64
2.78987	37.64
2.80653	37.64
2.82320	37.64
2.83987	37.64
2.85653	37.64
2.87320	37.64
2.88987	37.64
2.90653	37.64
2.92320	37.64
2.93987	37.64
2.95653	37.64
2.97320	37.63
2.98987	37.63
3.00653	37.63
3.02320	37.63
3.03987	37.63
3.05653	37.63
3.07320	37.63
3.08987	37.63
3.10653	37.63
3.12320	37.63
3.13987	37.63
3.15653	37.63
3.17320	37.63
3.18987	37.63
3.20653	37.63
3.22320	37.63
3.23987	37.63
3.25653	37.63
3.27320	37.63
3.28987	37.63
3.30653	37.63
3.32320	37.63
3.33987	37.62
3.35653	37.62
3.37320	37.62
3.38987	37.62
3.40653	37.62
3.42320	37.63
3.43987	37.63
3.45653	37.63
3.47320	37.63
3.48987	37.63
3.50653	37.63
3.52320	37.63
3.53987	37.63
3.55653	37.63
3.57320	37.63
3.58987	37.63
3.60653	37.63
3.62320	37.63
3.63987	37.63
3.65653	37.63
3.67320	37.63
3.68987	37.63
3.70653	37.63
3.72320	37.63
3.73987	37.63
3.75653	37.63
3.77320	37.63
3.78987	37.63
3.80653	37.63
3.82320	37.63
3.83987	37.63
3.85653	37.63
3.87320	37.63
3.88987	37.63
3.90653	37.63
3.92320	37.63
3.93987	37.63
3.95653	37.63
3.97320	37.63
3.98987	37.63

