[Header]
Application Name	LabSolutions
Version	5.110
Data File Name	C:\Users\User\Desktop\GC Analyses\Jack\Nachusa Grasslands Sampling\T3 Timepoint July 12th\T3_07122022_069.gcd
Output Date	3/14/2023
Output Time	3:43:35 PM

[File Information]
Type	Data File
Generated	3/13/2023 10:11:33 PM
Generated by	System Administrator
Modified	3/13/2023 10:18:23 PM
Modified by	System Administrator

[Sample Information]
Operator Name	System Administrator
Acquired	3/13/2023 10:14:23 PM
Sample Type	0:Unknown
Level	0
Sample Name	069
Sample ID	069
ISTD Amount1	1
ISTD Amount2	1
ISTD Amount3	1
ISTD Amount4	1
ISTD Amount5	1
ISTD Amount6	1
ISTD Amount7	1
ISTD Amount8	1
ISTD Amount9	1
ISTD Amount10	1
ISTD Amount11	1
ISTD Amount12	1
ISTD Amount13	1
ISTD Amount14	1
ISTD Amount15	1
ISTD Amount16	1
ISTD Amount17	1
ISTD Amount18	1
ISTD Amount19	1
ISTD Amount20	1
ISTD Amount21	1
ISTD Amount22	1
ISTD Amount23	1
ISTD Amount24	1
ISTD Amount25	1
ISTD Amount26	1
ISTD Amount27	1
ISTD Amount28	1
ISTD Amount29	1
ISTD Amount30	1
ISTD Amount31	1
ISTD Amount32	1
Sample Amount	1
Dilution Factor	1
Vial#	68
Injection Volume	1
Injection Count	1
Bar Code	

[Original Files]
Data File	C:\Users\User\Desktop\GC Analyses\Jack\Nachusa Grasslands Sampling\T3 Timepoint July 12th\T3_07122022_069.gcd
Method File	C:\LabSolutions\Data\GHG_4min_2022\ghg3_togas_w_acet_4 min_new_int.gcm
Batch File	C:\LabSolutions\Data\AutoSamplerTesting\T3_07122022.gcb
Report Format File	c:\LabSolutions\System\DEFAULT.lsr

[File Description]


[Configuration]
Instrument Name	C0B7VH3-Instrument1
Instrument #	1
Line #	1
# of Detectors	3
Detector ID	DET#1	DET#2	DET#3
Detector Name	FID	PTCD	ECD
# of Channels	1	1	1

[Peak Table(Ch1)]
# of Peaks	3
Peak#	R.Time	I.Time	F.Time	Area	Height	A/H	Conc.	Mark	ID#	Name	k'	Plate #	Plate Ht.	Tailing	Resolution	Sep.Factor	Area Ratio	Height Ratio	Conc. %	Norm Conc.
1	1.476	1.435	1.534	23909	11761	2.033	168.797	   	1	CO	0.000	9582	15.654	1.245	0.000	0.000	0	0	14.432	14.432
2	1.571	1.538	1.630	4120	2112	1.950	79.665	   	2	CH4	0.065	11861	12.647	1.143	1.616	0.000	0	0	6.811	6.811
3	1.996	1.949	2.385	3670372	1766413	2.078	921.164	   	3	CO2	0.353	17306	8.667	1.314	7.185	5.462	0	0	78.757	78.757

[Peak Table(Ch2)]
# of Peaks	0

[Peak Table(Ch3)]
# of Peaks	5
Peak#	R.Time	I.Time	F.Time	Area	Height	A/H	Conc.	Mark	ID#	Name	k'	Plate #	Plate Ht.	Tailing	Resolution	Sep.Factor	Area Ratio	Height Ratio	Conc. %	Norm Conc.
1	2.458	2.242	2.510	2842	735	3.865	0.000	   			0.000	10580	14.178	0.000	0.000	0.000	0	0	0.000	0.000
2	2.528	2.510	2.583	1125	377	2.985	0.000	 V 			0.028	5903	25.412	0.000	0.613	0.000	0	0	0.000	0.000
3	2.601	2.583	2.678	522	164	3.171	0.000	 V 			0.058	2406	62.354	0.000	0.427	2.053	0	0	0.000	0.000
4	2.880	2.693	3.078	20068	4853	4.135	0.513	   	1	N2O	0.172	12739	11.775	1.573	1.774	2.949	0	0	100.000	100.000
5	3.287	3.082	3.995	22005	694	31.703	0.000	   	2	SF6	0.337	228	658.654	2.181	0.836	1.965	0	0	0.000	0.000

[Compound Results(Ch1)]
# of IDs	6
ID#	Name	R.Time	Area	Height	Conc.	Curve	3rd	2nd	1st	Constant	Area Ratio	Height Ratio	Conc. %	Norm Conc.
1	CO	1.476	23909	11761	168.797	Linear	0.000000e+00	0.000000e+00	1.416423e+002	0.000000e+00	0	0	14.432	14.432
2	CH4	1.571	4120	2112	79.665	Linear	0.000000e+00	0.000000e+00	5.171738e+001	0.000000e+00	0	0	6.811	6.811
3	CO2	1.996	3670372	1766413	921.164	Linear	0.000000e+00	0.000000e+00	3.984494e+003	0.000000e+00	0	0	78.757	78.757
4	Ethylene	0.000	0	0	0.000	Linear	0.000000e+00	0.000000e+00	0.000000e+00	0.000000e+00	0	0	0.000	0.000
5	Acetylene	0.000	0	0	0.000	Linear	0.000000e+00	0.000000e+00	0.000000e+00	0.000000e+00	0	0	0.000	0.000
6	Ethane	0.000	0	0	0.000	Linear	0.000000e+00	0.000000e+00	0.000000e+00	0.000000e+00	0	0	0.000	0.000

[Compound Results(Ch2)]
# of IDs	5
ID#	Name	R.Time	Area	Height	Conc.	Curve	3rd	2nd	1st	Constant	Area Ratio	Height Ratio	Conc. %	Norm Conc.
1	Hydrogen	0.000	0	0	0.000	Linear	0.000000e+00	0.000000e+00	0.000000e+00	0.000000e+00	0	0	0.000	0.000
2	Oxygen	0.000	0	0	0.000	Linear	0.000000e+00	0.000000e+00	0.000000e+00	0.000000e+00	0	0	0.000	0.000
3	Nitrogen	0.000	0	0	0.000	Linear	0.000000e+00	0.000000e+00	0.000000e+00	0.000000e+00	0	0	0.000	0.000
4	Methane	0.000	0	0	0.000	Linear	0.000000e+00	0.000000e+00	0.000000e+00	0.000000e+00	0	0	0.000	0.000
5	Carbon Monoxide	0.000	0	0	0.000	Linear	0.000000e+00	0.000000e+00	0.000000e+00	0.000000e+00	0	0	0.000	0.000

[Compound Results(Ch3)]
# of IDs	2
ID#	Name	R.Time	Area	Height	Conc.	Curve	3rd	2nd	1st	Constant	Area Ratio	Height Ratio	Conc. %	Norm Conc.
1	N2O	2.880	20068	4853	0.513	Linear	0.000000e+00	0.000000e+00	3.915173e+004	0.000000e+00	0	0	100.000	100.000
2	SF6	3.287	22005	694	0.000	Linear	0.000000e+00	0.000000e+00	0.000000e+00	0.000000e+00	0	0	0.000	0.000

[Group Results(Ch1)]
# of Groups	0

[Group Results(Ch2)]
# of Groups	0

[Group Results(Ch3)]
# of Groups	0

[Chromatogram (Ch1)]
Interval(msec)	220
# of Points	1091
Start Time(min)	0.002
End Time(min)	3.998
R.Time (min)	Intensity
0.00167	-30
0.00533	-29
0.00900	-26
0.01267	-18
0.01633	-13
0.02000	-15
0.02367	-22
0.02733	-31
0.03100	-37
0.03467	-35
0.03833	-29
0.04200	-19
0.04567	-6
0.04933	5
0.05300	11
0.05667	11
0.06033	8
0.06400	5
0.06767	1
0.07133	-2
0.07500	-3
0.07867	0
0.08233	7
0.08600	18
0.08967	29
0.09333	34
0.09700	35
0.10067	39
0.10433	43
0.10800	45
0.11167	45
0.11533	44
0.11900	41
0.12267	37
0.12633	39
0.13000	46
0.13367	55
0.13733	65
0.14100	68
0.14467	62
0.14833	53
0.15200	46
0.15567	42
0.15933	36
0.16300	31
0.16667	30
0.17033	36
0.17400	38
0.17767	34
0.18133	27
0.18500	18
0.18867	15
0.19233	19
0.19600	24
0.19967	23
0.20333	18
0.20700	13
0.21067	11
0.21433	10
0.21800	9
0.22167	11
0.22533	10
0.22900	8
0.23267	6
0.23633	7
0.24000	10
0.24367	14
0.24733	14
0.25100	9
0.25467	2
0.25833	-3
0.26200	-2
0.26567	2
0.26933	11
0.27300	22
0.27667	28
0.28033	31
0.28400	31
0.28767	25
0.29133	11
0.29500	-6
0.29867	-19
0.30233	-29
0.30600	-34
0.30967	-30
0.31333	-20
0.31700	-12
0.32067	-11
0.32433	-17
0.32800	-27
0.33167	-36
0.33533	-40
0.33900	-35
0.34267	-25
0.34633	-16
0.35000	-9
0.35367	-7
0.35733	-10
0.36100	-12
0.36467	-12
0.36833	-13
0.37200	-14
0.37567	-14
0.37933	-11
0.38300	-4
0.38667	8
0.39033	18
0.39400	24
0.39767	26
0.40133	24
0.40500	13
0.40867	-1
0.41233	-10
0.41600	-16
0.41967	-18
0.42333	-13
0.42700	-4
0.43067	2
0.43433	0
0.43800	-7
0.44167	-12
0.44533	-10
0.44900	-2
0.45267	7
0.45633	19
0.46000	28
0.46367	27
0.46733	17
0.47100	2
0.47467	-11
0.47833	-17
0.48200	-18
0.48567	-16
0.48933	-14
0.49300	-14
0.49667	-12
0.50033	-3
0.50400	8
0.50767	12
0.51133	9
0.51500	5
0.51867	3
0.52233	2
0.52600	3
0.52967	3
0.53333	2
0.53700	0
0.54067	-1
0.54433	-2
0.54800	-0
0.55167	1
0.55533	4
0.55900	8
0.56267	11
0.56633	12
0.57000	14
0.57367	15
0.57733	15
0.58100	15
0.58467	16
0.58833	12
0.59200	11
0.59567	13
0.59933	16
0.60300	15
0.60667	13
0.61033	12
0.61400	12
0.61767	12
0.62133	11
0.62500	16
0.62867	22
0.63233	23
0.63600	20
0.63967	17
0.64333	12
0.64700	7
0.65067	4
0.65433	7
0.65800	15
0.66167	22
0.66533	28
0.66900	34
0.67267	37
0.67633	37
0.68000	36
0.68367	32
0.68733	28
0.69100	22
0.69467	17
0.69833	15
0.70200	19
0.70567	21
0.70933	20
0.71300	18
0.71667	15
0.72033	11
0.72400	9
0.72767	8
0.73133	13
0.73500	19
0.73867	20
0.74233	14
0.74600	7
0.74967	3
0.75333	-3
0.75700	-10
0.76067	-12
0.76433	-10
0.76800	-7
0.77167	-1
0.77533	4
0.77900	4
0.78267	5
0.78633	11
0.79000	18
0.79367	21
0.79733	24
0.80100	26
0.80467	28
0.80833	28
0.81200	22
0.81567	14
0.81933	4
0.82300	-5
0.82667	-11
0.83033	-13
0.83400	-10
0.83767	-5
0.84133	2
0.84500	7
0.84867	11
0.85233	13
0.85600	11
0.85967	12
0.86333	15
0.86700	13
0.87067	6
0.87433	-2
0.87800	-9
0.88167	-7
0.88533	-1
0.88900	4
0.89267	5
0.89633	4
0.90000	5
0.90367	12
0.90733	17
0.91100	15
0.91467	10
0.91833	3
0.92200	-1
0.92567	-4
0.92933	-8
0.93300	-15
0.93667	-22
0.94033	-25
0.94400	-27
0.94767	-26
0.95133	-24
0.95500	-23
0.95867	-20
0.96233	-19
0.96600	-21
0.96967	-22
0.97333	-15
0.97700	1
0.98067	19
0.98433	31
0.98800	37
0.99167	36
0.99533	32
0.99900	26
1.00267	21
1.00633	19
1.01000	24
1.01367	31
1.01733	39
1.02100	47
1.02467	51
1.02833	51
1.03200	47
1.03567	41
1.03933	33
1.04300	28
1.04667	25
1.05033	24
1.05400	24
1.05767	24
1.06133	27
1.06500	30
1.06867	30
1.07233	26
1.07600	19
1.07967	14
1.08333	10
1.08700	7
1.09067	5
1.09433	5
1.09800	2
1.10167	2
1.10533	5
1.10900	9
1.11267	12
1.11633	15
1.12000	21
1.12367	23
1.12733	23
1.13100	21
1.13467	18
1.13833	14
1.14200	14
1.14567	17
1.14933	21
1.15300	25
1.15667	26
1.16033	32
1.16400	36
1.16767	31
1.17133	19
1.17500	6
1.17867	-1
1.18233	-1
1.18600	2
1.18967	6
1.19333	10
1.19700	15
1.20067	16
1.20433	14
1.20800	9
1.21167	2
1.21533	-3
1.21900	-10
1.22267	-17
1.22633	-23
1.23000	-26
1.23367	-23
1.23733	-15
1.24100	-4
1.24467	6
1.24833	16
1.25200	20
1.25567	17
1.25933	13
1.26300	5
1.26667	1
1.27033	2
1.27400	3
1.27767	7
1.28133	10
1.28500	12
1.28867	11
1.29233	8
1.29600	4
1.29967	-0
1.30333	-1
1.30700	-1
1.31067	-2
1.31433	-5
1.31800	-9
1.32167	-11
1.32533	-8
1.32900	-7
1.33267	-5
1.33633	-2
1.34000	-1
1.34367	1
1.34733	1
1.35100	2
1.35467	3
1.35833	2
1.36200	-1
1.36567	-2
1.36933	-2
1.37300	1
1.37667	4
1.38033	7
1.38400	11
1.38767	15
1.39133	15
1.39500	10
1.39867	3
1.40233	-5
1.40600	-13
1.40967	-21
1.41333	-25
1.41700	-32
1.42067	-44
1.42433	-55
1.42800	-60
1.43167	-60
1.43533	-54
1.43900	-41
1.44267	5
1.44633	164
1.45000	605
1.45367	1629
1.45733	3423
1.46100	5700
1.46467	7939
1.46833	9780
1.47200	11060
1.47567	11681
1.47933	11536
1.48300	10603
1.48667	9055
1.49033	7216
1.49400	5416
1.49767	3868
1.50133	2651
1.50500	1756
1.50867	1125
1.51233	689
1.51600	395
1.51967	201
1.52333	74
1.52700	-14
1.53067	-77
1.53433	-118
1.53800	-133
1.54167	-95
1.54533	49
1.54900	339
1.55267	743
1.55633	1170
1.56000	1539
1.56367	1815
1.56733	1974
1.57100	1990
1.57467	1846
1.57833	1568
1.58200	1221
1.58567	874
1.58933	580
1.59300	359
1.59667	207
1.60033	102
1.60400	27
1.60767	-24
1.61133	-56
1.61500	-75
1.61867	-88
1.62233	-94
1.62600	-98
1.62967	-105
1.63333	-112
1.63700	-112
1.64067	-108
1.64433	-102
1.64800	-98
1.65167	-96
1.65533	-97
1.65900	-97
1.66267	-96
1.66633	-100
1.67000	-108
1.67367	-115
1.67733	-114
1.68100	-109
1.68467	-103
1.68833	-100
1.69200	-99
1.69567	-97
1.69933	-92
1.70300	-89
1.70667	-87
1.71033	-84
1.71400	-79
1.71767	-79
1.72133	-79
1.72500	-76
1.72867	-78
1.73233	-82
1.73600	-84
1.73967	-85
1.74333	-82
1.74700	-82
1.75067	-87
1.75433	-94
1.75800	-102
1.76167	-110
1.76533	-111
1.76900	-105
1.77267	-98
1.77633	-91
1.78000	-84
1.78367	-79
1.78733	-75
1.79100	-72
1.79467	-70
1.79833	-74
1.80200	-80
1.80567	-76
1.80933	-66
1.81300	-60
1.81667	-65
1.82033	-76
1.82400	-82
1.82767	-87
1.83133	-91
1.83500	-94
1.83867	-93
1.84233	-89
1.84600	-79
1.84967	-73
1.85333	-71
1.85700	-71
1.86067	-67
1.86433	-61
1.86800	-62
1.87167	-66
1.87533	-68
1.87900	-72
1.88267	-75
1.88633	-76
1.89000	-74
1.89367	-73
1.89733	-73
1.90100	-73
1.90467	-72
1.90833	-69
1.91200	-69
1.91567	-67
1.91933	-60
1.92300	-51
1.92667	-44
1.93033	-44
1.93400	-49
1.93767	-53
1.94133	-52
1.94500	-49
1.94867	-46
1.95233	-25
1.95600	147
1.95967	1288
1.96333	7085
1.96700	29321
1.97067	94320
1.97433	238631
1.97800	484079
1.98167	809350
1.98533	1155976
1.98900	1459696
1.99267	1672247
1.99633	1766410
2.00000	1736269
2.00367	1595988
2.00733	1377377
2.01100	1121467
2.01467	867327
2.01833	642753
2.02200	460957
2.02567	323132
2.02933	223483
2.03300	153776
2.03667	106065
2.04033	73827
2.04400	52174
2.04767	37624
2.05133	27789
2.05500	21067
2.05867	16396
2.06233	13083
2.06600	10684
2.06967	8910
2.07333	7567
2.07700	6534
2.08067	5724
2.08433	5073
2.08800	4541
2.09167	4100
2.09533	3728
2.09900	3412
2.10267	3138
2.10633	2896
2.11000	2680
2.11367	2492
2.11733	2329
2.12100	2188
2.12467	2066
2.12833	1960
2.13200	1865
2.13567	1777
2.13933	1690
2.14300	1604
2.14667	1526
2.15033	1458
2.15400	1392
2.15767	1332
2.16133	1279
2.16500	1232
2.16867	1189
2.17233	1146
2.17600	1102
2.17967	1060
2.18333	1021
2.18700	986
2.19067	955
2.19433	929
2.19800	905
2.20167	882
2.20533	856
2.20900	829
2.21267	807
2.21633	792
2.22000	776
2.22367	752
2.22733	728
2.23100	705
2.23467	685
2.23833	673
2.24200	665
2.24567	658
2.24933	653
2.25300	644
2.25667	632
2.26033	617
2.26400	604
2.26767	594
2.27133	580
2.27500	560
2.27867	540
2.28233	526
2.28600	514
2.28967	506
2.29333	501
2.29700	495
2.30067	488
2.30433	483
2.30800	477
2.31167	473
2.31533	472
2.31900	470
2.32267	467
2.32633	459
2.33000	447
2.33367	433
2.33733	424
2.34100	419
2.34467	413
2.34833	407
2.35200	402
2.35567	398
2.35933	394
2.36300	389
2.36667	384
2.37033	376
2.37400	367
2.37767	357
2.38133	348
2.38500	343
2.38867	343
2.39233	348
2.39600	351
2.39967	351
2.40333	352
2.40700	355
2.41067	360
2.41433	363
2.41800	366
2.42167	369
2.42533	372
2.42900	370
2.43267	363
2.43633	358
2.44000	358
2.44367	359
2.44733	355
2.45100	349
2.45467	345
2.45833	341
2.46200	342
2.46567	343
2.46933	338
2.47300	329
2.47667	320
2.48033	315
2.48400	312
2.48767	310
2.49133	310
2.49500	312
2.49867	317
2.50233	324
2.50600	332
2.50967	332
2.51333	327
2.51700	322
2.52067	315
2.52433	308
2.52800	305
2.53167	303
2.53533	305
2.53900	309
2.54267	312
2.54633	317
2.55000	321
2.55367	320
2.55733	309
2.56100	291
2.56467	279
2.56833	274
2.57200	274
2.57567	280
2.57933	287
2.58300	294
2.58667	299
2.59033	304
2.59400	306
2.59767	305
2.60133	300
2.60500	294
2.60867	291
2.61233	296
2.61600	306
2.61967	311
2.62333	311
2.62700	307
2.63067	300
2.63433	295
2.63800	295
2.64167	298
2.64533	302
2.64900	300
2.65267	294
2.65633	288
2.66000	281
2.66367	272
2.66733	268
2.67100	267
2.67467	267
2.67833	266
2.68200	265
2.68567	265
2.68933	264
2.69300	260
2.69667	259
2.70033	265
2.70400	274
2.70767	279
2.71133	281
2.71500	280
2.71867	279
2.72233	279
2.72600	281
2.72967	283
2.73333	285
2.73700	286
2.74067	288
2.74433	285
2.74800	279
2.75167	272
2.75533	266
2.75900	263
2.76267	267
2.76633	270
2.77000	270
2.77367	274
2.77733	282
2.78100	291
2.78467	299
2.78833	302
2.79200	304
2.79567	305
2.79933	299
2.80300	287
2.80667	279
2.81033	277
2.81400	277
2.81767	275
2.82133	274
2.82500	273
2.82867	274
2.83233	280
2.83600	288
2.83967	294
2.84333	303
2.84700	307
2.85067	306
2.85433	303
2.85800	301
2.86167	298
2.86533	295
2.86900	295
2.87267	299
2.87633	302
2.88000	305
2.88367	309
2.88733	308
2.89100	299
2.89467	285
2.89833	273
2.90200	267
2.90567	266
2.90933	268
2.91300	269
2.91667	271
2.92033	273
2.92400	276
2.92767	279
2.93133	280
2.93500	281
2.93867	285
2.94233	296
2.94600	311
2.94967	321
2.95333	320
2.95700	311
2.96067	299
2.96433	295
2.96800	292
2.97167	289
2.97533	294
2.97900	303
2.98267	311
2.98633	316
2.99000	314
2.99367	313
2.99733	314
3.00100	315
3.00467	315
3.00833	310
3.01200	301
3.01567	291
3.01933	280
3.02300	273
3.02667	267
3.03033	268
3.03400	271
3.03767	269
3.04133	268
3.04500	266
3.04867	266
3.05233	267
3.05600	268
3.05967	266
3.06333	262
3.06700	259
3.07067	260
3.07433	265
3.07800	270
3.08167	275
3.08533	282
3.08900	291
3.09267	300
3.09633	301
3.10000	300
3.10367	296
3.10733	287
3.11100	279
3.11467	271
3.11833	264
3.12200	259
3.12567	259
3.12933	264
3.13300	269
3.13667	271
3.14033	272
3.14400	269
3.14767	267
3.15133	271
3.15500	278
3.15867	288
3.16233	291
3.16600	292
3.16967	292
3.17333	286
3.17700	279
3.18067	277
3.18433	277
3.18800	276
3.19167	273
3.19533	273
3.19900	272
3.20267	270
3.20633	267
3.21000	270
3.21367	272
3.21733	267
3.22100	259
3.22467	252
3.22833	250
3.23200	256
3.23567	263
3.23933	270
3.24300	272
3.24667	269
3.25033	269
3.25400	268
3.25767	267
3.26133	265
3.26500	263
3.26867	261
3.27233	258
3.27600	255
3.27967	253
3.28333	257
3.28700	259
3.29067	257
3.29433	255
3.29800	256
3.30167	255
3.30533	257
3.30900	267
3.31267	273
3.31633	274
3.32000	274
3.32367	275
3.32733	278
3.33100	276
3.33467	272
3.33833	271
3.34200	270
3.34567	265
3.34933	259
3.35300	252
3.35667	250
3.36033	251
3.36400	255
3.36767	259
3.37133	260
3.37500	258
3.37867	248
3.38233	238
3.38600	229
3.38967	221
3.39333	217
3.39700	217
3.40067	224
3.40433	234
3.40800	247
3.41167	254
3.41533	252
3.41900	249
3.42267	247
3.42633	241
3.43000	234
3.43367	227
3.43733	222
3.44100	219
3.44467	220
3.44833	222
3.45200	224
3.45567	223
3.45933	220
3.46300	219
3.46667	219
3.47033	219
3.47400	219
3.47767	216
3.48133	212
3.48500	210
3.48867	211
3.49233	215
3.49600	216
3.49967	217
3.50333	216
3.50700	215
3.51067	216
3.51433	213
3.51800	210
3.52167	209
3.52533	212
3.52900	217
3.53267	220
3.53633	219
3.54000	215
3.54367	210
3.54733	206
3.55100	203
3.55467	204
3.55833	209
3.56200	215
3.56567	221
3.56933	225
3.57300	221
3.57667	215
3.58033	214
3.58400	216
3.58767	217
3.59133	218
3.59500	213
3.59867	213
3.60233	212
3.60600	212
3.60967	212
3.61333	215
3.61700	217
3.62067	213
3.62433	205
3.62800	197
3.63167	191
3.63533	187
3.63900	187
3.64267	196
3.64633	207
3.65000	215
3.65367	220
3.65733	220
3.66100	218
3.66467	217
3.66833	217
3.67200	215
3.67567	205
3.67933	191
3.68300	184
3.68667	182
3.69033	179
3.69400	174
3.69767	168
3.70133	164
3.70500	162
3.70867	162
3.71233	165
3.71600	173
3.71967	183
3.72333	191
3.72700	192
3.73067	190
3.73433	185
3.73800	178
3.74167	174
3.74533	174
3.74900	178
3.75267	182
3.75633	187
3.76000	187
3.76367	180
3.76733	171
3.77100	165
3.77467	161
3.77833	156
3.78200	153
3.78567	151
3.78933	149
3.79300	149
3.79667	150
3.80033	153
3.80400	154
3.80767	153
3.81133	155
3.81500	156
3.81867	160
3.82233	166
3.82600	173
3.82967	180
3.83333	184
3.83700	184
3.84067	180
3.84433	176
3.84800	173
3.85167	171
3.85533	171
3.85900	170
3.86267	170
3.86633	170
3.87000	164
3.87367	156
3.87733	150
3.88100	148
3.88467	152
3.88833	160
3.89200	164
3.89567	161
3.89933	161
3.90300	160
3.90667	157
3.91033	154
3.91400	155
3.91767	156
3.92133	157
3.92500	158
3.92867	158
3.93233	156
3.93600	154
3.93967	155
3.94333	158
3.94700	159
3.95067	161
3.95433	165
3.95800	167
3.96167	166
3.96533	159
3.96900	148
3.97267	138
3.97633	133
3.98000	132
3.98367	130
3.98733	123
3.99100	118
3.99467	118
3.99833	121

[Chromatogram (Ch2)]
Interval(msec)	220
# of Points	1091
Start Time(min)	0.002
End Time(min)	3.998
R.Time (min)	Intensity
0.00167	-0
0.00533	-0
0.00900	-0
0.01267	-1
0.01633	-1
0.02000	-1
0.02367	-2
0.02733	-2
0.03100	-2
0.03467	-2
0.03833	-2
0.04200	-2
0.04567	-1
0.04933	-1
0.05300	-1
0.05667	-1
0.06033	-1
0.06400	-0
0.06767	0
0.07133	1
0.07500	1
0.07867	2
0.08233	2
0.08600	2
0.08967	2
0.09333	2
0.09700	2
0.10067	2
0.10433	2
0.10800	2
0.11167	2
0.11533	2
0.11900	2
0.12267	1
0.12633	1
0.13000	2
0.13367	2
0.13733	2
0.14100	2
0.14467	2
0.14833	2
0.15200	2
0.15567	2
0.15933	2
0.16300	2
0.16667	2
0.17033	2
0.17400	2
0.17767	2
0.18133	1
0.18500	1
0.18867	1
0.19233	1
0.19600	1
0.19967	1
0.20333	0
0.20700	0
0.21067	0
0.21433	-0
0.21800	-1
0.22167	-1
0.22533	-1
0.22900	-1
0.23267	-1
0.23633	-1
0.24000	-1
0.24367	-1
0.24733	-0
0.25100	-0
0.25467	-0
0.25833	0
0.26200	0
0.26567	1
0.26933	1
0.27300	1
0.27667	1
0.28033	1
0.28400	1
0.28767	1
0.29133	1
0.29500	1
0.29867	1
0.30233	1
0.30600	1
0.30967	0
0.31333	0
0.31700	0
0.32067	0
0.32433	0
0.32800	0
0.33167	0
0.33533	0
0.33900	0
0.34267	1
0.34633	1
0.35000	1
0.35367	1
0.35733	2
0.36100	2
0.36467	2
0.36833	2
0.37200	3
0.37567	3
0.37933	3
0.38300	3
0.38667	3
0.39033	3
0.39400	3
0.39767	4
0.40133	4
0.40500	4
0.40867	4
0.41233	4
0.41600	3
0.41967	3
0.42333	2
0.42700	2
0.43067	1
0.43433	1
0.43800	0
0.44167	-0
0.44533	-0
0.44900	-1
0.45267	-1
0.45633	-1
0.46000	-1
0.46367	-1
0.46733	-1
0.47100	-1
0.47467	-1
0.47833	-1
0.48200	-1
0.48567	-1
0.48933	-1
0.49300	-1
0.49667	-1
0.50033	-1
0.50400	-1
0.50767	-0
0.51133	-0
0.51500	0
0.51867	0
0.52233	0
0.52600	0
0.52967	0
0.53333	1
0.53700	1
0.54067	1
0.54433	1
0.54800	0
0.55167	0
0.55533	0
0.55900	0
0.56267	0
0.56633	0
0.57000	-0
0.57367	-0
0.57733	-0
0.58100	-0
0.58467	-0
0.58833	-0
0.59200	-0
0.59567	-0
0.59933	-0
0.60300	-0
0.60667	-0
0.61033	-0
0.61400	0
0.61767	1
0.62133	1
0.62500	1
0.62867	1
0.63233	1
0.63600	1
0.63967	1
0.64333	1
0.64700	1
0.65067	1
0.65433	1
0.65800	1
0.66167	1
0.66533	1
0.66900	1
0.67267	1
0.67633	2
0.68000	2
0.68367	2
0.68733	2
0.69100	2
0.69467	2
0.69833	2
0.70200	1
0.70567	1
0.70933	1
0.71300	2
0.71667	2
0.72033	2
0.72400	1
0.72767	1
0.73133	1
0.73500	1
0.73867	1
0.74233	1
0.74600	0
0.74967	0
0.75333	-0
0.75700	-1
0.76067	-2
0.76433	-2
0.76800	-3
0.77167	-3
0.77533	-3
0.77900	-3
0.78267	-3
0.78633	-3
0.79000	-3
0.79367	-3
0.79733	-3
0.80100	-3
0.80467	-3
0.80833	-3
0.81200	-3
0.81567	-3
0.81933	-3
0.82300	-3
0.82667	-3
0.83033	-3
0.83400	-2
0.83767	-2
0.84133	-2
0.84500	-2
0.84867	-3
0.85233	-3
0.85600	-3
0.85967	-3
0.86333	-3
0.86700	-3
0.87067	-3
0.87433	-3
0.87800	-3
0.88167	-3
0.88533	-3
0.88900	-3
0.89267	-2
0.89633	-2
0.90000	-2
0.90367	-2
0.90733	-2
0.91100	-2
0.91467	-2
0.91833	-2
0.92200	-2
0.92567	-2
0.92933	-2
0.93300	-2
0.93667	-2
0.94033	-2
0.94400	-2
0.94767	-2
0.95133	-2
0.95500	-2
0.95867	-2
0.96233	-2
0.96600	-2
0.96967	-2
0.97333	-2
0.97700	-2
0.98067	-2
0.98433	-2
0.98800	-2
0.99167	-2
0.99533	-2
0.99900	-2
1.00267	-2
1.00633	-2
1.01000	-2
1.01367	-2
1.01733	-2
1.02100	-2
1.02467	-2
1.02833	-2
1.03200	-2
1.03567	-2
1.03933	-2
1.04300	-2
1.04667	-2
1.05033	-2
1.05400	-2
1.05767	-2
1.06133	-1
1.06500	-1
1.06867	-1
1.07233	-1
1.07600	-1
1.07967	-1
1.08333	-1
1.08700	-2
1.09067	-2
1.09433	-2
1.09800	-2
1.10167	-2
1.10533	-2
1.10900	-2
1.11267	-2
1.11633	-3
1.12000	-3
1.12367	-3
1.12733	-3
1.13100	-3
1.13467	-3
1.13833	-3
1.14200	-2
1.14567	-2
1.14933	-2
1.15300	-2
1.15667	-2
1.16033	-2
1.16400	-2
1.16767	-2
1.17133	-2
1.17500	-2
1.17867	-2
1.18233	-2
1.18600	-2
1.18967	-2
1.19333	-2
1.19700	-2
1.20067	-2
1.20433	-2
1.20800	-2
1.21167	-2
1.21533	-3
1.21900	-3
1.22267	-3
1.22633	-3
1.23000	-3
1.23367	-2
1.23733	-2
1.24100	-2
1.24467	-2
1.24833	-1
1.25200	-1
1.25567	-1
1.25933	-1
1.26300	-0
1.26667	-0
1.27033	-0
1.27400	-0
1.27767	-0
1.28133	-0
1.28500	-1
1.28867	-1
1.29233	-1
1.29600	-1
1.29967	-1
1.30333	-1
1.30700	-1
1.31067	-2
1.31433	-2
1.31800	-2
1.32167	-3
1.32533	-3
1.32900	-3
1.33267	-2
1.33633	-2
1.34000	-2
1.34367	-2
1.34733	-2
1.35100	-2
1.35467	-2
1.35833	-2
1.36200	-2
1.36567	-2
1.36933	-2
1.37300	-2
1.37667	-2
1.38033	-2
1.38400	-2
1.38767	-3
1.39133	-3
1.39500	-3
1.39867	-3
1.40233	-3
1.40600	-4
1.40967	-4
1.41333	-4
1.41700	-4
1.42067	-4
1.42433	-4
1.42800	-4
1.43167	-4
1.43533	-4
1.43900	-3
1.44267	-3
1.44633	-3
1.45000	-3
1.45367	-3
1.45733	-3
1.46100	-3
1.46467	-3
1.46833	-3
1.47200	-3
1.47567	-3
1.47933	-3
1.48300	-2
1.48667	-2
1.49033	-2
1.49400	-1
1.49767	-1
1.50133	-1
1.50500	-1
1.50867	-1
1.51233	-1
1.51600	-1
1.51967	-1
1.52333	-2
1.52700	-2
1.53067	-2
1.53433	-2
1.53800	-2
1.54167	-2
1.54533	-2
1.54900	-3
1.55267	-3
1.55633	-3
1.56000	-3
1.56367	-3
1.56733	-3
1.57100	-3
1.57467	-3
1.57833	-3
1.58200	-4
1.58567	-4
1.58933	-4
1.59300	-5
1.59667	-5
1.60033	-6
1.60400	-7
1.60767	-8
1.61133	-10
1.61500	-12
1.61867	-14
1.62233	-17
1.62600	-19
1.62967	-23
1.63333	-26
1.63700	-29
1.64067	-33
1.64433	-36
1.64800	-40
1.65167	-44
1.65533	-48
1.65900	-52
1.66267	-56
1.66633	-60
1.67000	-64
1.67367	-69
1.67733	-73
1.68100	-78
1.68467	-83
1.68833	-87
1.69200	-90
1.69567	-93
1.69933	-96
1.70300	-99
1.70667	-101
1.71033	-103
1.71400	-104
1.71767	-105
1.72133	-106
1.72500	-107
1.72867	-107
1.73233	-108
1.73600	-108
1.73967	-108
1.74333	-107
1.74700	-107
1.75067	-106
1.75433	-105
1.75800	-105
1.76167	-104
1.76533	-104
1.76900	-105
1.77267	-106
1.77633	-107
1.78000	-108
1.78367	-110
1.78733	-111
1.79100	-112
1.79467	-112
1.79833	-113
1.80200	-113
1.80567	-114
1.80933	-114
1.81300	-114
1.81667	-115
1.82033	-115
1.82400	-115
1.82767	-115
1.83133	-116
1.83500	-116
1.83867	-117
1.84233	-117
1.84600	-117
1.84967	-117
1.85333	-116
1.85700	-116
1.86067	-115
1.86433	-115
1.86800	-114
1.87167	-114
1.87533	-114
1.87900	-114
1.88267	-115
1.88633	-115
1.89000	-115
1.89367	-115
1.89733	-115
1.90100	-115
1.90467	-115
1.90833	-114
1.91200	-114
1.91567	-114
1.91933	-114
1.92300	-113
1.92667	-113
1.93033	-113
1.93400	-112
1.93767	-112
1.94133	-111
1.94500	-111
1.94867	-110
1.95233	-110
1.95600	-110
1.95967	-110
1.96333	-110
1.96700	-110
1.97067	-110
1.97433	-110
1.97800	-109
1.98167	-109
1.98533	-108
1.98900	-108
1.99267	-107
1.99633	-107
2.00000	-106
2.00367	-105
2.00733	-105
2.01100	-104
2.01467	-105
2.01833	-105
2.02200	-105
2.02567	-105
2.02933	-105
2.03300	-105
2.03667	-105
2.04033	-105
2.04400	-105
2.04767	-104
2.05133	-104
2.05500	-103
2.05867	-103
2.06233	-102
2.06600	-101
2.06967	-101
2.07333	-100
2.07700	-100
2.08067	-100
2.08433	-100
2.08800	-100
2.09167	-100
2.09533	-100
2.09900	-100
2.10267	-100
2.10633	-100
2.11000	-100
2.11367	-100
2.11733	-100
2.12100	-99
2.12467	-99
2.12833	-98
2.13200	-97
2.13567	-96
2.13933	-96
2.14300	-95
2.14667	-95
2.15033	-95
2.15400	-95
2.15767	-95
2.16133	-94
2.16500	-94
2.16867	-94
2.17233	-93
2.17600	-93
2.17967	-93
2.18333	-93
2.18700	-93
2.19067	-92
2.19433	-93
2.19800	-93
2.20167	-93
2.20533	-92
2.20900	-92
2.21267	-91
2.21633	-90
2.22000	-90
2.22367	-89
2.22733	-88
2.23100	-87
2.23467	-86
2.23833	-85
2.24200	-85
2.24567	-85
2.24933	-85
2.25300	-85
2.25667	-85
2.26033	-85
2.26400	-85
2.26767	-85
2.27133	-84
2.27500	-84
2.27867	-84
2.28233	-84
2.28600	-84
2.28967	-84
2.29333	-83
2.29700	-83
2.30067	-83
2.30433	-83
2.30800	-83
2.31167	-83
2.31533	-83
2.31900	-82
2.32267	-82
2.32633	-81
2.33000	-80
2.33367	-80
2.33733	-79
2.34100	-79
2.34467	-78
2.34833	-78
2.35200	-77
2.35567	-77
2.35933	-76
2.36300	-75
2.36667	-74
2.37033	-72
2.37400	-70
2.37767	-67
2.38133	-64
2.38500	-60
2.38867	-56
2.39233	-51
2.39600	-47
2.39967	-42
2.40333	-38
2.40700	-33
2.41067	-29
2.41433	-25
2.41800	-22
2.42167	-19
2.42533	-16
2.42900	-14
2.43267	-12
2.43633	-11
2.44000	-10
2.44367	-9
2.44733	-8
2.45100	-8
2.45467	-7
2.45833	-7
2.46200	-6
2.46567	-6
2.46933	-5
2.47300	-4
2.47667	-3
2.48033	-2
2.48400	-1
2.48767	-0
2.49133	1
2.49500	3
2.49867	4
2.50233	5
2.50600	6
2.50967	7
2.51333	8
2.51700	9
2.52067	9
2.52433	10
2.52800	11
2.53167	11
2.53533	12
2.53900	13
2.54267	13
2.54633	13
2.55000	14
2.55367	14
2.55733	14
2.56100	14
2.56467	15
2.56833	15
2.57200	15
2.57567	15
2.57933	15
2.58300	15
2.58667	14
2.59033	14
2.59400	14
2.59767	14
2.60133	14
2.60500	14
2.60867	15
2.61233	15
2.61600	16
2.61967	16
2.62333	16
2.62700	16
2.63067	16
2.63433	16
2.63800	16
2.64167	16
2.64533	15
2.64900	16
2.65267	16
2.65633	17
2.66000	18
2.66367	18
2.66733	19
2.67100	20
2.67467	20
2.67833	21
2.68200	22
2.68567	22
2.68933	22
2.69300	22
2.69667	23
2.70033	23
2.70400	23
2.70767	23
2.71133	23
2.71500	23
2.71867	23
2.72233	23
2.72600	24
2.72967	24
2.73333	24
2.73700	24
2.74067	24
2.74433	24
2.74800	24
2.75167	24
2.75533	24
2.75900	24
2.76267	24
2.76633	24
2.77000	25
2.77367	25
2.77733	25
2.78100	25
2.78467	25
2.78833	25
2.79200	25
2.79567	25
2.79933	24
2.80300	24
2.80667	24
2.81033	24
2.81400	24
2.81767	24
2.82133	24
2.82500	25
2.82867	25
2.83233	25
2.83600	25
2.83967	24
2.84333	24
2.84700	22
2.85067	18
2.85433	13
2.85800	4
2.86167	-8
2.86533	-24
2.86900	-44
2.87267	-68
2.87633	-97
2.88000	-130
2.88367	-167
2.88733	-208
2.89100	-253
2.89467	-301
2.89833	-351
2.90200	-403
2.90567	-457
2.90933	-512
2.91300	-568
2.91667	-623
2.92033	-678
2.92400	-733
2.92767	-786
2.93133	-837
2.93500	-889
2.93867	-946
2.94233	-1005
2.94600	-1056
2.94967	-1091
2.95333	-1101
2.95700	-1085
2.96067	-1046
2.96433	-989
2.96800	-918
2.97167	-841
2.97533	-760
2.97900	-680
2.98267	-603
2.98633	-531
2.99000	-464
2.99367	-404
2.99733	-349
3.00100	-300
3.00467	-257
3.00833	-220
3.01200	-187
3.01567	-159
3.01933	-134
3.02300	-113
3.02667	-95
3.03033	-80
3.03400	-67
3.03767	-55
3.04133	-45
3.04500	-37
3.04867	-30
3.05233	-24
3.05600	-19
3.05967	-14
3.06333	-10
3.06700	-7
3.07067	-4
3.07433	-2
3.07800	1
3.08167	3
3.08533	4
3.08900	6
3.09267	7
3.09633	8
3.10000	9
3.10367	10
3.10733	11
3.11100	12
3.11467	12
3.11833	13
3.12200	13
3.12567	14
3.12933	14
3.13300	14
3.13667	14
3.14033	14
3.14400	15
3.14767	15
3.15133	15
3.15500	15
3.15867	16
3.16233	16
3.16600	16
3.16967	16
3.17333	16
3.17700	16
3.18067	17
3.18433	17
3.18800	17
3.19167	18
3.19533	18
3.19900	18
3.20267	19
3.20633	19
3.21000	19
3.21367	19
3.21733	20
3.22100	20
3.22467	20
3.22833	21
3.23200	21
3.23567	21
3.23933	21
3.24300	21
3.24667	21
3.25033	21
3.25400	22
3.25767	22
3.26133	22
3.26500	21
3.26867	21
3.27233	22
3.27600	22
3.27967	22
3.28333	22
3.28700	22
3.29067	23
3.29433	23
3.29800	23
3.30167	23
3.30533	23
3.30900	23
3.31267	24
3.31633	24
3.32000	24
3.32367	24
3.32733	25
3.33100	25
3.33467	25
3.33833	25
3.34200	25
3.34567	25
3.34933	25
3.35300	25
3.35667	25
3.36033	25
3.36400	25
3.36767	24
3.37133	24
3.37500	24
3.37867	24
3.38233	24
3.38600	25
3.38967	25
3.39333	25
3.39700	25
3.40067	26
3.40433	26
3.40800	26
3.41167	26
3.41533	26
3.41900	26
3.42267	26
3.42633	26
3.43000	26
3.43367	26
3.43733	26
3.44100	26
3.44467	26
3.44833	26
3.45200	26
3.45567	26
3.45933	25
3.46300	25
3.46667	25
3.47033	25
3.47400	25
3.47767	25
3.48133	24
3.48500	24
3.48867	24
3.49233	24
3.49600	24
3.49967	24
3.50333	24
3.50700	25
3.51067	25
3.51433	25
3.51800	25
3.52167	25
3.52533	25
3.52900	25
3.53267	25
3.53633	25
3.54000	25
3.54367	25
3.54733	25
3.55100	25
3.55467	25
3.55833	25
3.56200	25
3.56567	25
3.56933	25
3.57300	26
3.57667	26
3.58033	26
3.58400	26
3.58767	26
3.59133	26
3.59500	26
3.59867	26
3.60233	25
3.60600	25
3.60967	25
3.61333	25
3.61700	25
3.62067	25
3.62433	25
3.62800	25
3.63167	25
3.63533	25
3.63900	25
3.64267	25
3.64633	25
3.65000	25
3.65367	25
3.65733	24
3.66100	24
3.66467	24
3.66833	24
3.67200	24
3.67567	24
3.67933	24
3.68300	24
3.68667	24
3.69033	24
3.69400	24
3.69767	25
3.70133	25
3.70500	25
3.70867	25
3.71233	26
3.71600	26
3.71967	26
3.72333	26
3.72700	26
3.73067	26
3.73433	26
3.73800	26
3.74167	26
3.74533	26
3.74900	26
3.75267	26
3.75633	26
3.76000	26
3.76367	26
3.76733	26
3.77100	26
3.77467	26
3.77833	26
3.78200	26
3.78567	26
3.78933	26
3.79300	25
3.79667	25
3.80033	25
3.80400	25
3.80767	25
3.81133	24
3.81500	24
3.81867	24
3.82233	24
3.82600	24
3.82967	24
3.83333	24
3.83700	24
3.84067	25
3.84433	25
3.84800	25
3.85167	25
3.85533	25
3.85900	25
3.86267	25
3.86633	25
3.87000	26
3.87367	26
3.87733	26
3.88100	26
3.88467	26
3.88833	26
3.89200	26
3.89567	26
3.89933	26
3.90300	26
3.90667	26
3.91033	26
3.91400	26
3.91767	26
3.92133	25
3.92500	25
3.92867	24
3.93233	24
3.93600	24
3.93967	24
3.94333	23
3.94700	23
3.95067	23
3.95433	23
3.95800	24
3.96167	24
3.96533	24
3.96900	24
3.97267	24
3.97633	25
3.98000	25
3.98367	25
3.98733	25
3.99100	25
3.99467	25
3.99833	25

[Chromatogram (Ch3)]
Interval(msec)	220
# of Points	1091
Start Time(min)	0.002
End Time(min)	3.998
R.Time (min)	Intensity
0.00167	0
0.00533	1
0.00900	3
0.01267	4
0.01633	5
0.02000	4
0.02367	3
0.02733	2
0.03100	2
0.03467	4
0.03833	2
0.04200	1
0.04567	1
0.04933	2
0.05300	4
0.05667	5
0.06033	7
0.06400	6
0.06767	5
0.07133	3
0.07500	2
0.07867	2
0.08233	4
0.08600	6
0.08967	9
0.09333	8
0.09700	7
0.10067	6
0.10433	6
0.10800	6
0.11167	7
0.11533	7
0.11900	6
0.12267	5
0.12633	6
0.13000	8
0.13367	9
0.13733	11
0.14100	12
0.14467	11
0.14833	11
0.15200	10
0.15567	9
0.15933	7
0.16300	5
0.16667	3
0.17033	3
0.17400	5
0.17767	6
0.18133	8
0.18500	9
0.18867	9
0.19233	8
0.19600	7
0.19967	5
0.20333	5
0.20700	6
0.21067	7
0.21433	6
0.21800	6
0.22167	4
0.22533	3
0.22900	2
0.23267	3
0.23633	5
0.24000	10
0.24367	10
0.24733	7
0.25100	5
0.25467	5
0.25833	5
0.26200	6
0.26567	6
0.26933	5
0.27300	5
0.27667	6
0.28033	6
0.28400	5
0.28767	6
0.29133	6
0.29500	7
0.29867	7
0.30233	7
0.30600	7
0.30967	3
0.31333	2
0.31700	4
0.32067	5
0.32433	5
0.32800	5
0.33167	6
0.33533	5
0.33900	3
0.34267	3
0.34633	3
0.35000	3
0.35367	5
0.35733	7
0.36100	7
0.36467	7
0.36833	7
0.37200	7
0.37567	8
0.37933	6
0.38300	6
0.38667	6
0.39033	6
0.39400	6
0.39767	7
0.40133	6
0.40500	6
0.40867	8
0.41233	8
0.41600	10
0.41967	11
0.42333	11
0.42700	11
0.43067	11
0.43433	11
0.43800	12
0.44167	12
0.44533	13
0.44900	14
0.45267	14
0.45633	12
0.46000	11
0.46367	11
0.46733	11
0.47100	9
0.47467	8
0.47833	9
0.48200	9
0.48567	10
0.48933	10
0.49300	12
0.49667	12
0.50033	11
0.50400	10
0.50767	11
0.51133	11
0.51500	10
0.51867	9
0.52233	11
0.52600	13
0.52967	12
0.53333	11
0.53700	12
0.54067	12
0.54433	12
0.54800	12
0.55167	11
0.55533	10
0.55900	11
0.56267	13
0.56633	14
0.57000	12
0.57367	11
0.57733	10
0.58100	11
0.58467	11
0.58833	11
0.59200	9
0.59567	7
0.59933	6
0.60300	7
0.60667	8
0.61033	11
0.61400	13
0.61767	13
0.62133	11
0.62500	8
0.62867	7
0.63233	8
0.63600	9
0.63967	11
0.64333	10
0.64700	8
0.65067	6
0.65433	6
0.65800	6
0.66167	6
0.66533	5
0.66900	5
0.67267	4
0.67633	4
0.68000	5
0.68367	4
0.68733	3
0.69100	1
0.69467	4
0.69833	6
0.70200	2
0.70567	-0
0.70933	-1
0.71300	-0
0.71667	2
0.72033	2
0.72400	3
0.72767	4
0.73133	5
0.73500	4
0.73867	4
0.74233	1
0.74600	1
0.74967	1
0.75333	1
0.75700	2
0.76067	1
0.76433	1
0.76800	1
0.77167	1
0.77533	2
0.77900	3
0.78267	2
0.78633	2
0.79000	4
0.79367	6
0.79733	7
0.80100	6
0.80467	5
0.80833	4
0.81200	3
0.81567	3
0.81933	2
0.82300	1
0.82667	0
0.83033	1
0.83400	0
0.83767	-0
0.84133	-1
0.84500	-2
0.84867	-2
0.85233	-1
0.85600	-1
0.85967	-2
0.86333	-2
0.86700	-2
0.87067	-1
0.87433	-1
0.87800	-0
0.88167	-1
0.88533	-1
0.88900	-1
0.89267	-2
0.89633	-3
0.90000	-3
0.90367	-3
0.90733	-4
0.91100	-5
0.91467	-5
0.91833	-6
0.92200	-6
0.92567	-3
0.92933	-2
0.93300	-1
0.93667	-2
0.94033	-2
0.94400	-1
0.94767	2
0.95133	3
0.95500	5
0.95867	8
0.96233	10
0.96600	10
0.96967	8
0.97333	5
0.97700	2
0.98067	2
0.98433	3
0.98800	3
0.99167	3
0.99533	2
0.99900	2
1.00267	2
1.00633	3
1.01000	3
1.01367	4
1.01733	6
1.02100	6
1.02467	5
1.02833	4
1.03200	1
1.03567	0
1.03933	3
1.04300	5
1.04667	4
1.05033	5
1.05400	5
1.05767	6
1.06133	7
1.06500	7
1.06867	5
1.07233	5
1.07600	5
1.07967	4
1.08333	4
1.08700	3
1.09067	2
1.09433	1
1.09800	0
1.10167	2
1.10533	4
1.10900	5
1.11267	6
1.11633	6
1.12000	5
1.12367	5
1.12733	5
1.13100	5
1.13467	6
1.13833	7
1.14200	9
1.14567	9
1.14933	10
1.15300	13
1.15667	13
1.16033	12
1.16400	10
1.16767	10
1.17133	11
1.17500	10
1.17867	11
1.18233	14
1.18600	15
1.18967	15
1.19333	17
1.19700	19
1.20067	20
1.20433	20
1.20800	18
1.21167	17
1.21533	17
1.21900	19
1.22267	20
1.22633	19
1.23000	17
1.23367	17
1.23733	18
1.24100	17
1.24467	16
1.24833	14
1.25200	12
1.25567	11
1.25933	10
1.26300	12
1.26667	15
1.27033	17
1.27400	20
1.27767	22
1.28133	24
1.28500	24
1.28867	23
1.29233	24
1.29600	23
1.29967	23
1.30333	21
1.30700	20
1.31067	20
1.31433	19
1.31800	18
1.32167	17
1.32533	17
1.32900	18
1.33267	18
1.33633	20
1.34000	22
1.34367	23
1.34733	23
1.35100	21
1.35467	20
1.35833	19
1.36200	19
1.36567	19
1.36933	20
1.37300	21
1.37667	20
1.38033	17
1.38400	15
1.38767	13
1.39133	13
1.39500	13
1.39867	15
1.40233	18
1.40600	19
1.40967	20
1.41333	21
1.41700	21
1.42067	20
1.42433	20
1.42800	20
1.43167	21
1.43533	22
1.43900	22
1.44267	22
1.44633	24
1.45000	24
1.45367	23
1.45733	22
1.46100	21
1.46467	21
1.46833	23
1.47200	25
1.47567	27
1.47933	26
1.48300	23
1.48667	20
1.49033	17
1.49400	16
1.49767	18
1.50133	21
1.50500	23
1.50867	24
1.51233	27
1.51600	28
1.51967	28
1.52333	28
1.52700	27
1.53067	28
1.53433	28
1.53800	28
1.54167	28
1.54533	27
1.54900	26
1.55267	25
1.55633	25
1.56000	24
1.56367	23
1.56733	23
1.57100	22
1.57467	20
1.57833	17
1.58200	16
1.58567	18
1.58933	20
1.59300	20
1.59667	19
1.60033	18
1.60400	17
1.60767	17
1.61133	19
1.61500	22
1.61867	23
1.62233	25
1.62600	26
1.62967	24
1.63333	21
1.63700	20
1.64067	20
1.64433	22
1.64800	23
1.65167	24
1.65533	24
1.65900	24
1.66267	23
1.66633	23
1.67000	23
1.67367	26
1.67733	27
1.68100	28
1.68467	27
1.68833	27
1.69200	29
1.69567	30
1.69933	30
1.70300	30
1.70667	29
1.71033	30
1.71400	32
1.71767	32
1.72133	33
1.72500	32
1.72867	32
1.73233	33
1.73600	35
1.73967	36
1.74333	36
1.74700	36
1.75067	34
1.75433	31
1.75800	33
1.76167	37
1.76533	38
1.76900	37
1.77267	37
1.77633	37
1.78000	38
1.78367	40
1.78733	40
1.79100	41
1.79467	42
1.79833	45
1.80200	47
1.80567	48
1.80933	47
1.81300	45
1.81667	44
1.82033	46
1.82400	46
1.82767	49
1.83133	51
1.83500	50
1.83867	49
1.84233	48
1.84600	48
1.84967	48
1.85333	48
1.85700	50
1.86067	52
1.86433	52
1.86800	51
1.87167	51
1.87533	53
1.87900	55
1.88267	56
1.88633	56
1.89000	58
1.89367	59
1.89733	59
1.90100	60
1.90467	62
1.90833	62
1.91200	61
1.91567	60
1.91933	59
1.92300	59
1.92667	60
1.93033	61
1.93400	63
1.93767	66
1.94133	67
1.94500	68
1.94867	69
1.95233	70
1.95600	69
1.95967	68
1.96333	69
1.96700	70
1.97067	71
1.97433	72
1.97800	73
1.98167	76
1.98533	78
1.98900	79
1.99267	82
1.99633	83
2.00000	81
2.00367	81
2.00733	82
2.01100	84
2.01467	84
2.01833	87
2.02200	90
2.02567	93
2.02933	96
2.03300	98
2.03667	98
2.04033	98
2.04400	98
2.04767	98
2.05133	98
2.05500	98
2.05867	99
2.06233	100
2.06600	102
2.06967	106
2.07333	109
2.07700	111
2.08067	111
2.08433	113
2.08800	117
2.09167	119
2.09533	117
2.09900	117
2.10267	118
2.10633	120
2.11000	122
2.11367	124
2.11733	125
2.12100	125
2.12467	126
2.12833	126
2.13200	126
2.13567	127
2.13933	131
2.14300	135
2.14667	140
2.15033	143
2.15400	145
2.15767	148
2.16133	151
2.16500	150
2.16867	148
2.17233	149
2.17600	150
2.17967	152
2.18333	154
2.18700	156
2.19067	158
2.19433	159
2.19800	161
2.20167	163
2.20533	164
2.20900	164
2.21267	165
2.21633	165
2.22000	165
2.22367	166
2.22733	167
2.23100	167
2.23467	167
2.23833	169
2.24200	171
2.24567	172
2.24933	173
2.25300	174
2.25667	175
2.26033	176
2.26400	178
2.26767	179
2.27133	180
2.27500	180
2.27867	182
2.28233	183
2.28600	184
2.28967	185
2.29333	187
2.29700	187
2.30067	189
2.30433	189
2.30800	188
2.31167	189
2.31533	189
2.31900	191
2.32267	192
2.32633	192
2.33000	194
2.33367	197
2.33733	200
2.34100	204
2.34467	206
2.34833	207
2.35200	208
2.35567	208
2.35933	209
2.36300	210
2.36667	210
2.37033	211
2.37400	211
2.37767	210
2.38133	208
2.38500	206
2.38867	204
2.39233	203
2.39600	204
2.39967	209
2.40333	214
2.40700	218
2.41067	224
2.41433	230
2.41800	232
2.42167	232
2.42533	232
2.42900	230
2.43267	230
2.43633	231
2.44000	234
2.44367	291
2.44733	442
2.45100	607
2.45467	746
2.45833	820
2.46200	817
2.46567	772
2.46933	721
2.47300	680
2.47667	653
2.48033	628
2.48400	589
2.48767	539
2.49133	488
2.49500	443
2.49867	406
2.50233	378
2.50600	363
2.50967	359
2.51333	369
2.51700	384
2.52067	404
2.52433	423
2.52800	434
2.53167	429
2.53533	409
2.53900	380
2.54267	345
2.54633	310
2.55000	280
2.55367	254
2.55733	233
2.56100	216
2.56467	203
2.56833	195
2.57200	189
2.57567	188
2.57933	184
2.58300	182
2.58667	183
2.59033	187
2.59400	190
2.59767	192
2.60133	192
2.60500	188
2.60867	180
2.61233	168
2.61600	155
2.61967	143
2.62333	132
2.62700	120
2.63067	109
2.63433	100
2.63800	91
2.64167	83
2.64533	71
2.64900	59
2.65267	47
2.65633	36
2.66000	24
2.66367	16
2.66733	11
2.67100	5
2.67467	1
2.67833	-4
2.68200	-7
2.68567	-8
2.68933	-6
2.69300	-4
2.69667	-2
2.70033	0
2.70400	2
2.70767	5
2.71133	9
2.71500	11
2.71867	16
2.72233	21
2.72600	26
2.72967	30
2.73333	34
2.73700	39
2.74067	43
2.74433	48
2.74800	54
2.75167	62
2.75533	64
2.75900	66
2.76267	70
2.76633	73
2.77000	76
2.77367	80
2.77733	87
2.78100	93
2.78467	97
2.78833	100
2.79200	103
2.79567	108
2.79933	113
2.80300	117
2.80667	124
2.81033	129
2.81400	134
2.81767	142
2.82133	156
2.82500	177
2.82867	213
2.83233	282
2.83600	403
2.83967	595
2.84333	879
2.84700	1262
2.85067	1744
2.85433	2299
2.85800	2887
2.86167	3464
2.86533	3985
2.86900	4406
2.87267	4698
2.87633	4849
2.88000	4859
2.88367	4748
2.88733	4540
2.89100	4262
2.89467	3941
2.89833	3604
2.90200	3264
2.90567	2932
2.90933	2620
2.91300	2328
2.91667	2065
2.92033	1827
2.92400	1615
2.92767	1424
2.93133	1255
2.93500	1107
2.93867	979
2.94233	868
2.94600	772
2.94967	688
2.95333	615
2.95700	551
2.96067	495
2.96433	446
2.96800	405
2.97167	367
2.97533	333
2.97900	303
2.98267	277
2.98633	255
2.99000	237
2.99367	220
2.99733	206
3.00100	196
3.00467	189
3.00833	183
3.01200	176
3.01567	168
3.01933	163
3.02300	158
3.02667	155
3.03033	151
3.03400	147
3.03767	143
3.04133	140
3.04500	138
3.04867	137
3.05233	138
3.05600	139
3.05967	140
3.06333	136
3.06700	111
3.07067	71
3.07433	34
3.07800	17
3.08167	24
3.08533	49
3.08900	82
3.09267	122
3.09633	169
3.10000	220
3.10367	269
3.10733	316
3.11100	361
3.11467	404
3.11833	442
3.12200	476
3.12567	507
3.12933	534
3.13300	558
3.13667	578
3.14033	596
3.14400	611
3.14767	625
3.15133	637
3.15500	647
3.15867	656
3.16233	664
3.16600	669
3.16967	675
3.17333	680
3.17700	686
3.18067	691
3.18433	697
3.18800	705
3.19167	713
3.19533	719
3.19900	722
3.20267	727
3.20633	731
3.21000	737
3.21367	745
3.21733	751
3.22100	757
3.22467	764
3.22833	772
3.23200	776
3.23567	779
3.23933	783
3.24300	787
3.24667	793
3.25033	798
3.25400	803
3.25767	806
3.26133	810
3.26500	815
3.26867	819
3.27233	823
3.27600	827
3.27967	832
3.28333	836
3.28700	839
3.29067	841
3.29433	842
3.29800	842
3.30167	842
3.30533	843
3.30900	846
3.31267	846
3.31633	846
3.32000	848
3.32367	849
3.32733	850
3.33100	850
3.33467	848
3.33833	846
3.34200	842
3.34567	840
3.34933	836
3.35300	833
3.35667	831
3.36033	831
3.36400	830
3.36767	828
3.37133	826
3.37500	827
3.37867	826
3.38233	824
3.38600	821
3.38967	818
3.39333	817
3.39700	815
3.40067	814
3.40433	814
3.40800	812
3.41167	808
3.41533	805
3.41900	801
3.42267	799
3.42633	795
3.43000	792
3.43367	790
3.43733	788
3.44100	788
3.44467	788
3.44833	788
3.45200	786
3.45567	787
3.45933	786
3.46300	785
3.46667	784
3.47033	781
3.47400	780
3.47767	779
3.48133	777
3.48500	776
3.48867	774
3.49233	773
3.49600	772
3.49967	771
3.50333	770
3.50700	771
3.51067	770
3.51433	768
3.51800	766
3.52167	765
3.52533	764
3.52900	763
3.53267	763
3.53633	763
3.54000	763
3.54367	762
3.54733	762
3.55100	762
3.55467	759
3.55833	757
3.56200	756
3.56567	755
3.56933	754
3.57300	752
3.57667	749
3.58033	749
3.58400	749
3.58767	749
3.59133	749
3.59500	747
3.59867	748
3.60233	749
3.60600	747
3.60967	743
3.61333	740
3.61700	738
3.62067	735
3.62433	734
3.62800	734
3.63167	734
3.63533	732
3.63900	729
3.64267	727
3.64633	725
3.65000	724
3.65367	723
3.65733	721
3.66100	718
3.66467	715
3.66833	713
3.67200	712
3.67567	711
3.67933	709
3.68300	705
3.68667	706
3.69033	707
3.69400	706
3.69767	703
3.70133	698
3.70500	695
3.70867	692
3.71233	690
3.71600	690
3.71967	689
3.72333	687
3.72700	684
3.73067	682
3.73433	681
3.73800	678
3.74167	674
3.74533	672
3.74900	670
3.75267	667
3.75633	665
3.76000	662
3.76367	661
3.76733	660
3.77100	657
3.77467	652
3.77833	649
3.78200	647
3.78567	645
3.78933	642
3.79300	640
3.79667	640
3.80033	641
3.80400	641
3.80767	638
3.81133	634
3.81500	632
3.81867	629
3.82233	629
3.82600	626
3.82967	626
3.83333	625
3.83700	625
3.84067	622
3.84433	619
3.84800	616
3.85167	614
3.85533	614
3.85900	613
3.86267	610
3.86633	608
3.87000	607
3.87367	605
3.87733	602
3.88100	600
3.88467	599
3.88833	597
3.89200	596
3.89567	597
3.89933	598
3.90300	598
3.90667	597
3.91033	595
3.91400	593
3.91767	591
3.92133	588
3.92500	586
3.92867	583
3.93233	583
3.93600	583
3.93967	583
3.94333	581
3.94700	580
3.95067	580
3.95433	578
3.95800	575
3.96167	573
3.96533	569
3.96900	567
3.97267	565
3.97633	564
3.98000	565
3.98367	566
3.98733	565
3.99100	563
3.99467	559
3.99833	555

[Status Trace (Column Oven Temperature)]
Interval(msec)	1000
# of Points	240
Start Time(min)	0.016
End Time(min)	3.999
Intensity Units	
Intensity Multiplier	1
R.Time (min)	Intensity
0.01613	35.06
0.03280	35.06
0.04947	35.06
0.06613	35.06
0.08280	35.04
0.09947	35.03
0.11613	35.04
0.13280	35.03
0.14947	35.02
0.16613	35.03
0.18280	35.03
0.19947	35.03
0.21613	35.04
0.23280	35.04
0.24947	35.03
0.26613	35.04
0.28280	35.03
0.29947	35.04
0.31613	35.04
0.33280	35.03
0.34947	35.02
0.36613	35.01
0.38280	35.00
0.39947	35.00
0.41613	35.00
0.43280	35.01
0.44947	35.02
0.46613	35.02
0.48280	35.02
0.49947	35.02
0.51613	35.02
0.53280	35.03
0.54947	35.02
0.56613	35.02
0.58280	35.02
0.59947	35.02
0.61613	35.00
0.63280	34.98
0.64947	34.98
0.66613	34.98
0.68280	34.98
0.69947	34.97
0.71613	34.96
0.73280	34.97
0.74947	34.97
0.76613	34.99
0.78280	35.00
0.79947	35.00
0.81613	35.00
0.83280	34.99
0.84947	35.00
0.86613	35.00
0.88280	35.00
0.89947	35.00
0.91613	34.99
0.93280	35.00
0.94947	35.00
0.96613	35.00
0.98280	35.00
0.99947	35.00
1.01613	35.01
1.03280	35.01
1.04947	35.01
1.06613	35.01
1.08280	35.01
1.09947	35.01
1.11613	35.01
1.13280	35.01
1.14947	35.00
1.16613	34.99
1.18280	34.99
1.19947	34.99
1.21613	34.99
1.23280	35.00
1.24947	35.00
1.26613	34.99
1.28280	34.99
1.29947	34.99
1.31613	35.00
1.33280	35.00
1.34947	35.00
1.36613	35.00
1.38280	35.00
1.39947	35.01
1.41613	35.00
1.43280	35.00
1.44947	35.00
1.46613	35.00
1.48280	34.99
1.49947	34.99
1.51613	34.99
1.53280	34.99
1.54947	35.00
1.56613	35.00
1.58280	35.00
1.59947	35.03
1.61613	35.13
1.63280	35.28
1.64947	35.50
1.66613	35.80
1.68280	36.16
1.69947	36.51
1.71613	36.86
1.73280	37.19
1.74947	37.49
1.76613	37.81
1.78280	38.16
1.79947	38.50
1.81613	38.83
1.83280	39.17
1.84947	39.51
1.86613	39.81
1.88280	40.17
1.89947	40.50
1.91613	40.83
1.93280	41.15
1.94947	41.48
1.96613	41.80
1.98280	42.13
1.99947	42.45
2.01613	42.77
2.03280	43.10
2.04947	43.44
2.06613	43.74
2.08280	44.05
2.09947	44.40
2.11613	44.73
2.13280	45.03
2.14947	45.36
2.16613	45.70
2.18280	46.02
2.19947	46.37
2.21613	46.68
2.23280	46.98
2.24947	47.31
2.26613	47.65
2.28280	47.99
2.29947	48.32
2.31613	48.65
2.33280	48.97
2.34947	49.29
2.36613	49.58
2.38280	49.71
2.39947	49.74
2.41613	49.73
2.43280	49.73
2.44947	49.74
2.46613	49.75
2.48280	49.77
2.49947	49.77
2.51613	49.78
2.53280	49.79
2.54947	49.82
2.56613	49.80
2.58280	49.83
2.59947	49.84
2.61613	49.83
2.63280	49.85
2.64947	49.86
2.66613	49.84
2.68280	49.83
2.69947	49.86
2.71613	49.85
2.73280	49.85
2.74947	49.86
2.76613	49.86
2.78280	49.86
2.79947	49.86
2.81613	49.87
2.83280	49.88
2.84947	49.89
2.86613	49.90
2.88280	49.91
2.89947	49.91
2.91613	49.92
2.93280	49.94
2.94947	49.96
2.96613	49.97
2.98280	49.98
2.99947	49.97
3.01613	49.99
3.03280	50.01
3.04947	50.02
3.06613	50.04
3.08280	50.05
3.09947	50.05
3.11613	50.05
3.13280	50.06
3.14947	50.07
3.16613	50.09
3.18280	50.09
3.19947	50.09
3.21613	50.10
3.23280	50.10
3.24947	50.09
3.26613	50.11
3.28280	50.10
3.29947	50.10
3.31613	50.09
3.33280	50.09
3.34947	50.09
3.36613	50.09
3.38280	50.09
3.39947	50.08
3.41613	50.07
3.43280	50.07
3.44947	50.08
3.46613	50.08
3.48280	50.09
3.49947	50.09
3.51613	50.10
3.53280	50.09
3.54947	50.08
3.56613	50.08
3.58280	50.07
3.59947	50.08
3.61613	50.08
3.63280	50.08
3.64947	50.08
3.66613	50.08
3.68280	50.08
3.69947	50.08
3.71613	50.08
3.73280	50.07
3.74947	50.07
3.76613	50.07
3.78280	50.07
3.79947	50.07
3.81613	50.08
3.83280	50.08
3.84947	50.08
3.86613	50.07
3.88280	50.06
3.89947	50.05
3.91613	50.05
3.93280	50.06
3.94947	50.06
3.96613	50.07
3.98280	50.06
3.99947	50.06

[Status Trace (Injection Unit Temperature)]
Interval(msec)	1000
# of Points	240
Start Time(min)	0.016
End Time(min)	3.999
Intensity Units	
Intensity Multiplier	1
R.Time (min)	Intensity
0.01613	99.98
0.03280	99.97
0.04947	99.98
0.06613	99.98
0.08280	99.98
0.09947	99.98
0.11613	99.98
0.13280	99.98
0.14947	99.98
0.16613	99.98
0.18280	99.98
0.19947	99.98
0.21613	99.98
0.23280	99.98
0.24947	99.98
0.26613	99.98
0.28280	99.98
0.29947	99.98
0.31613	99.98
0.33280	99.98
0.34947	99.98
0.36613	99.98
0.38280	99.98
0.39947	99.98
0.41613	99.98
0.43280	99.98
0.44947	99.98
0.46613	99.98
0.48280	99.98
0.49947	99.98
0.51613	99.98
0.53280	99.98
0.54947	99.98
0.56613	99.98
0.58280	99.98
0.59947	99.98
0.61613	99.98
0.63280	99.98
0.64947	99.98
0.66613	99.98
0.68280	99.98
0.69947	99.98
0.71613	99.98
0.73280	99.98
0.74947	99.98
0.76613	99.98
0.78280	99.98
0.79947	99.98
0.81613	99.98
0.83280	99.98
0.84947	99.98
0.86613	99.98
0.88280	99.98
0.89947	99.98
0.91613	99.98
0.93280	99.98
0.94947	99.98
0.96613	99.98
0.98280	99.98
0.99947	99.98
1.01613	99.98
1.03280	99.98
1.04947	99.98
1.06613	99.98
1.08280	99.98
1.09947	99.98
1.11613	99.98
1.13280	99.98
1.14947	99.98
1.16613	99.98
1.18280	99.98
1.19947	99.98
1.21613	99.98
1.23280	99.98
1.24947	99.98
1.26613	99.98
1.28280	99.98
1.29947	99.98
1.31613	99.98
1.33280	99.98
1.34947	99.98
1.36613	99.98
1.38280	99.98
1.39947	99.98
1.41613	99.98
1.43280	99.99
1.44947	99.98
1.46613	99.98
1.48280	99.98
1.49947	99.98
1.51613	99.98
1.53280	99.98
1.54947	99.98
1.56613	99.98
1.58280	99.98
1.59947	99.98
1.61613	99.98
1.63280	99.98
1.64947	99.98
1.66613	99.98
1.68280	99.98
1.69947	99.98
1.71613	99.99
1.73280	99.98
1.74947	99.98
1.76613	99.98
1.78280	99.98
1.79947	99.98
1.81613	99.97
1.83280	99.98
1.84947	99.98
1.86613	99.98
1.88280	99.98
1.89947	99.97
1.91613	99.98
1.93280	99.97
1.94947	99.97
1.96613	99.97
1.98280	99.97
1.99947	99.97
2.01613	99.98
2.03280	99.97
2.04947	99.98
2.06613	99.97
2.08280	99.97
2.09947	99.97
2.11613	99.97
2.13280	99.98
2.14947	99.97
2.16613	99.98
2.18280	99.97
2.19947	99.97
2.21613	99.97
2.23280	99.97
2.24947	99.97
2.26613	99.97
2.28280	99.97
2.29947	99.97
2.31613	99.97
2.33280	99.97
2.34947	99.97
2.36613	99.97
2.38280	99.97
2.39947	99.97
2.41613	99.98
2.43280	99.97
2.44947	99.98
2.46613	99.97
2.48280	99.97
2.49947	99.98
2.51613	99.98
2.53280	99.98
2.54947	99.98
2.56613	99.98
2.58280	99.98
2.59947	99.98
2.61613	99.98
2.63280	99.98
2.64947	99.98
2.66613	99.98
2.68280	99.99
2.69947	99.99
2.71613	99.98
2.73280	99.99
2.74947	99.99
2.76613	99.99
2.78280	99.99
2.79947	99.99
2.81613	100.00
2.83280	100.00
2.84947	100.00
2.86613	99.99
2.88280	100.00
2.89947	100.00
2.91613	100.00
2.93280	100.00
2.94947	100.00
2.96613	100.00
2.98280	100.00
2.99947	100.01
3.01613	100.01
3.03280	100.01
3.04947	100.01
3.06613	100.01
3.08280	100.01
3.09947	100.01
3.11613	100.01
3.13280	100.02
3.14947	100.02
3.16613	100.02
3.18280	100.02
3.19947	100.02
3.21613	100.02
3.23280	100.02
3.24947	100.02
3.26613	100.02
3.28280	100.03
3.29947	100.03
3.31613	100.03
3.33280	100.03
3.34947	100.03
3.36613	100.03
3.38280	100.03
3.39947	100.03
3.41613	100.03
3.43280	100.03
3.44947	100.03
3.46613	100.03
3.48280	100.03
3.49947	100.04
3.51613	100.04
3.53280	100.03
3.54947	100.04
3.56613	100.04
3.58280	100.04
3.59947	100.04
3.61613	100.04
3.63280	100.04
3.64947	100.04
3.66613	100.04
3.68280	100.04
3.69947	100.04
3.71613	100.04
3.73280	100.04
3.74947	100.05
3.76613	100.05
3.78280	100.05
3.79947	100.04
3.81613	100.04
3.83280	100.05
3.84947	100.04
3.86613	100.05
3.88280	100.05
3.89947	100.04
3.91613	100.04
3.93280	100.05
3.94947	100.05
3.96613	100.05
3.98280	100.05
3.99947	100.05

[Status Trace (Carrier Gas Pressure)]
Interval(msec)	1000
# of Points	240
Start Time(min)	0.016
End Time(min)	3.999
Intensity Units	
Intensity Multiplier	1
R.Time (min)	Intensity
0.01613	56.98
0.03280	55.88
0.04947	58.27
0.06613	59.89
0.08280	58.48
0.09947	57.97
0.11613	58.00
0.13280	58.01
0.14947	58.01
0.16613	58.00
0.18280	58.00
0.19947	58.00
0.21613	58.00
0.23280	58.00
0.24947	58.00
0.26613	58.00
0.28280	58.00
0.29947	58.00
0.31613	58.00
0.33280	58.00
0.34947	58.00
0.36613	58.00
0.38280	58.00
0.39947	58.00
0.41613	58.00
0.43280	58.00
0.44947	58.00
0.46613	58.00
0.48280	58.00
0.49947	58.00
0.51613	58.00
0.53280	58.00
0.54947	58.00
0.56613	58.00
0.58280	58.00
0.59947	58.00
0.61613	58.00
0.63280	58.00
0.64947	58.00
0.66613	58.00
0.68280	58.00
0.69947	58.00
0.71613	58.00
0.73280	58.00
0.74947	58.00
0.76613	58.00
0.78280	58.00
0.79947	58.00
0.81613	58.00
0.83280	58.00
0.84947	58.00
0.86613	58.00
0.88280	58.00
0.89947	58.00
0.91613	58.00
0.93280	58.00
0.94947	58.00
0.96613	58.00
0.98280	58.00
0.99947	58.00
1.01613	58.00
1.03280	58.00
1.04947	58.00
1.06613	58.00
1.08280	58.00
1.09947	58.00
1.11613	58.00
1.13280	58.00
1.14947	58.00
1.16613	58.00
1.18280	58.00
1.19947	58.00
1.21613	58.00
1.23280	58.00
1.24947	58.00
1.26613	58.00
1.28280	58.00
1.29947	58.00
1.31613	58.00
1.33280	58.00
1.34947	58.00
1.36613	58.00
1.38280	58.00
1.39947	58.00
1.41613	58.00
1.43280	58.00
1.44947	58.00
1.46613	58.00
1.48280	58.00
1.49947	58.00
1.51613	58.00
1.53280	58.00
1.54947	58.00
1.56613	58.00
1.58280	58.00
1.59947	58.00
1.61613	58.00
1.63280	58.00
1.64947	58.00
1.66613	58.01
1.68280	58.01
1.69947	58.00
1.71613	58.00
1.73280	58.00
1.74947	58.00
1.76613	58.00
1.78280	58.00
1.79947	58.00
1.81613	58.00
1.83280	58.00
1.84947	58.00
1.86613	58.00
1.88280	58.00
1.89947	58.00
1.91613	58.00
1.93280	58.00
1.94947	58.00
1.96613	58.00
1.98280	58.00
1.99947	58.00
2.01613	58.00
2.03280	58.00
2.04947	58.00
2.06613	58.00
2.08280	58.00
2.09947	58.00
2.11613	58.00
2.13280	58.00
2.14947	58.00
2.16613	58.00
2.18280	58.00
2.19947	58.00
2.21613	58.00
2.23280	58.00
2.24947	58.00
2.26613	58.00
2.28280	58.00
2.29947	58.00
2.31613	58.00
2.33280	58.00
2.34947	58.00
2.36613	58.00
2.38280	57.99
2.39947	57.99
2.41613	58.00
2.43280	58.00
2.44947	58.00
2.46613	58.00
2.48280	58.00
2.49947	58.00
2.51613	57.99
2.53280	57.99
2.54947	58.00
2.56613	58.00
2.58280	58.00
2.59947	58.00
2.61613	58.00
2.63280	58.00
2.64947	58.00
2.66613	58.00
2.68280	58.00
2.69947	58.00
2.71613	58.00
2.73280	58.00
2.74947	58.00
2.76613	58.00
2.78280	58.00
2.79947	58.00
2.81613	58.00
2.83280	58.00
2.84947	58.00
2.86613	58.00
2.88280	58.00
2.89947	58.00
2.91613	58.00
2.93280	58.00
2.94947	58.00
2.96613	58.00
2.98280	58.00
2.99947	58.00
3.01613	58.00
3.03280	58.00
3.04947	58.00
3.06613	58.00
3.08280	58.00
3.09947	58.00
3.11613	58.00
3.13280	58.00
3.14947	58.00
3.16613	58.00
3.18280	58.00
3.19947	58.00
3.21613	58.00
3.23280	58.00
3.24947	58.00
3.26613	58.00
3.28280	58.00
3.29947	58.00
3.31613	58.00
3.33280	58.00
3.34947	58.00
3.36613	58.00
3.38280	58.00
3.39947	58.00
3.41613	58.00
3.43280	58.00
3.44947	58.00
3.46613	58.00
3.48280	58.00
3.49947	58.00
3.51613	58.00
3.53280	58.00
3.54947	58.00
3.56613	58.00
3.58280	58.00
3.59947	58.00
3.61613	58.00
3.63280	58.00
3.64947	58.00
3.66613	58.00
3.68280	58.00
3.69947	58.00
3.71613	58.00
3.73280	58.00
3.74947	58.00
3.76613	58.00
3.78280	58.00
3.79947	58.00
3.81613	58.00
3.83280	58.00
3.84947	58.00
3.86613	58.00
3.88280	58.00
3.89947	58.00
3.91613	58.00
3.93280	58.00
3.94947	58.00
3.96613	58.00
3.98280	58.00
3.99947	58.00

[Status Trace (Carrier Gas Flow)]
Interval(msec)	1000
# of Points	240
Start Time(min)	0.016
End Time(min)	3.999
Intensity Units	
Intensity Multiplier	1
R.Time (min)	Intensity
0.01613	33.89
0.03280	34.54
0.04947	34.55
0.06613	34.51
0.08280	34.51
0.09947	34.52
0.11613	34.52
0.13280	34.52
0.14947	34.52
0.16613	34.52
0.18280	34.52
0.19947	34.52
0.21613	34.52
0.23280	34.52
0.24947	34.52
0.26613	34.51
0.28280	34.52
0.29947	34.52
0.31613	34.52
0.33280	34.52
0.34947	34.52
0.36613	34.52
0.38280	34.52
0.39947	34.52
0.41613	34.52
0.43280	34.52
0.44947	34.52
0.46613	34.51
0.48280	34.52
0.49947	34.52
0.51613	34.52
0.53280	34.52
0.54947	34.52
0.56613	34.52
0.58280	34.52
0.59947	34.52
0.61613	34.52
0.63280	34.52
0.64947	34.52
0.66613	34.52
0.68280	34.52
0.69947	34.52
0.71613	34.51
0.73280	34.52
0.74947	34.52
0.76613	34.52
0.78280	34.52
0.79947	34.51
0.81613	34.53
0.83280	34.51
0.84947	34.53
0.86613	34.52
0.88280	34.52
0.89947	34.52
0.91613	34.51
0.93280	34.53
0.94947	34.52
0.96613	34.53
0.98280	34.52
0.99947	34.52
1.01613	34.52
1.03280	34.52
1.04947	34.52
1.06613	34.52
1.08280	34.52
1.09947	34.52
1.11613	34.52
1.13280	34.52
1.14947	34.52
1.16613	34.52
1.18280	34.52
1.19947	34.52
1.21613	34.52
1.23280	34.51
1.24947	34.52
1.26613	34.52
1.28280	34.53
1.29947	34.52
1.31613	34.52
1.33280	34.52
1.34947	34.52
1.36613	34.52
1.38280	34.52
1.39947	34.52
1.41613	34.52
1.43280	34.52
1.44947	34.52
1.46613	34.52
1.48280	34.52
1.49947	34.52
1.51613	34.52
1.53280	34.51
1.54947	34.52
1.56613	34.52
1.58280	34.52
1.59947	34.52
1.61613	34.52
1.63280	34.52
1.64947	34.52
1.66613	34.52
1.68280	34.52
1.69947	34.52
1.71613	34.51
1.73280	34.52
1.74947	34.52
1.76613	34.52
1.78280	34.52
1.79947	34.52
1.81613	34.52
1.83280	34.52
1.84947	34.52
1.86613	34.52
1.88280	34.51
1.89947	34.52
1.91613	34.52
1.93280	34.52
1.94947	34.52
1.96613	34.52
1.98280	34.51
1.99947	34.51
2.01613	34.53
2.03280	34.52
2.04947	34.53
2.06613	34.52
2.08280	34.52
2.09947	34.52
2.11613	34.52
2.13280	34.52
2.14947	34.52
2.16613	34.52
2.18280	34.52
2.19947	34.52
2.21613	34.51
2.23280	34.52
2.24947	34.52
2.26613	34.52
2.28280	34.52
2.29947	34.52
2.31613	34.52
2.33280	34.52
2.34947	34.53
2.36613	34.52
2.38280	34.51
2.39947	34.52
2.41613	34.52
2.43280	34.52
2.44947	34.52
2.46613	34.52
2.48280	34.52
2.49947	34.52
2.51613	34.51
2.53280	34.52
2.54947	34.52
2.56613	34.52
2.58280	34.52
2.59947	34.52
2.61613	34.52
2.63280	34.52
2.64947	34.52
2.66613	34.52
2.68280	34.51
2.69947	34.53
2.71613	34.51
2.73280	34.52
2.74947	34.52
2.76613	34.52
2.78280	34.52
2.79947	34.52
2.81613	34.52
2.83280	34.52
2.84947	34.52
2.86613	34.52
2.88280	34.52
2.89947	34.52
2.91613	34.52
2.93280	34.53
2.94947	34.53
2.96613	34.52
2.98280	34.52
2.99947	34.52
3.01613	34.52
3.03280	34.52
3.04947	34.52
3.06613	34.51
3.08280	34.52
3.09947	34.52
3.11613	34.51
3.13280	34.52
3.14947	34.52
3.16613	34.52
3.18280	34.52
3.19947	34.52
3.21613	34.52
3.23280	34.52
3.24947	34.52
3.26613	34.52
3.28280	34.52
3.29947	34.52
3.31613	34.52
3.33280	34.52
3.34947	34.52
3.36613	34.52
3.38280	34.52
3.39947	34.52
3.41613	34.52
3.43280	34.52
3.44947	34.52
3.46613	34.52
3.48280	34.52
3.49947	34.52
3.51613	34.52
3.53280	34.52
3.54947	34.51
3.56613	34.52
3.58280	34.52
3.59947	34.52
3.61613	34.52
3.63280	34.52
3.64947	34.52
3.66613	34.52
3.68280	34.52
3.69947	34.52
3.71613	34.52
3.73280	34.52
3.74947	34.52
3.76613	34.52
3.78280	34.52
3.79947	34.52
3.81613	34.52
3.83280	34.52
3.84947	34.52
3.86613	34.51
3.88280	34.51
3.89947	34.52
3.91613	34.52
3.93280	34.52
3.94947	34.52
3.96613	34.52
3.98280	34.52
3.99947	34.52

[Status Trace (Column Flow)]
Interval(msec)	1000
# of Points	240
Start Time(min)	0.016
End Time(min)	3.999
Intensity Units	
Intensity Multiplier	1
R.Time (min)	Intensity
0.01613	5.42
0.03280	5.29
0.04947	5.57
0.06613	5.76
0.08280	5.59
0.09947	5.53
0.11613	5.54
0.13280	5.54
0.14947	5.54
0.16613	5.54
0.18280	5.54
0.19947	5.54
0.21613	5.54
0.23280	5.54
0.24947	5.54
0.26613	5.54
0.28280	5.54
0.29947	5.54
0.31613	5.54
0.33280	5.54
0.34947	5.54
0.36613	5.54
0.38280	5.54
0.39947	5.54
0.41613	5.54
0.43280	5.54
0.44947	5.54
0.46613	5.54
0.48280	5.54
0.49947	5.54
0.51613	5.54
0.53280	5.54
0.54947	5.54
0.56613	5.54
0.58280	5.54
0.59947	5.54
0.61613	5.54
0.63280	5.54
0.64947	5.54
0.66613	5.54
0.68280	5.54
0.69947	5.54
0.71613	5.54
0.73280	5.54
0.74947	5.54
0.76613	5.54
0.78280	5.54
0.79947	5.54
0.81613	5.54
0.83280	5.54
0.84947	5.54
0.86613	5.54
0.88280	5.54
0.89947	5.54
0.91613	5.54
0.93280	5.54
0.94947	5.54
0.96613	5.54
0.98280	5.54
0.99947	5.54
1.01613	5.54
1.03280	5.54
1.04947	5.54
1.06613	5.54
1.08280	5.54
1.09947	5.54
1.11613	5.54
1.13280	5.54
1.14947	5.54
1.16613	5.54
1.18280	5.54
1.19947	5.54
1.21613	5.54
1.23280	5.54
1.24947	5.54
1.26613	5.54
1.28280	5.54
1.29947	5.54
1.31613	5.54
1.33280	5.54
1.34947	5.54
1.36613	5.54
1.38280	5.54
1.39947	5.54
1.41613	5.54
1.43280	5.54
1.44947	5.54
1.46613	5.54
1.48280	5.54
1.49947	5.54
1.51613	5.54
1.53280	5.54
1.54947	5.54
1.56613	5.54
1.58280	5.54
1.59947	5.54
1.61613	5.53
1.63280	5.53
1.64947	5.52
1.66613	5.51
1.68280	5.50
1.69947	5.49
1.71613	5.48
1.73280	5.47
1.74947	5.46
1.76613	5.45
1.78280	5.44
1.79947	5.43
1.81613	5.42
1.83280	5.41
1.84947	5.40
1.86613	5.39
1.88280	5.38
1.89947	5.37
1.91613	5.36
1.93280	5.35
1.94947	5.34
1.96613	5.33
1.98280	5.32
1.99947	5.31
2.01613	5.30
2.03280	5.29
2.04947	5.28
2.06613	5.27
2.08280	5.26
2.09947	5.25
2.11613	5.24
2.13280	5.23
2.14947	5.22
2.16613	5.21
2.18280	5.20
2.19947	5.20
2.21613	5.19
2.23280	5.18
2.24947	5.17
2.26613	5.16
2.28280	5.15
2.29947	5.14
2.31613	5.13
2.33280	5.12
2.34947	5.11
2.36613	5.10
2.38280	5.10
2.39947	5.10
2.41613	5.10
2.43280	5.10
2.44947	5.10
2.46613	5.10
2.48280	5.10
2.49947	5.10
2.51613	5.10
2.53280	5.10
2.54947	5.10
2.56613	5.10
2.58280	5.10
2.59947	5.10
2.61613	5.10
2.63280	5.10
2.64947	5.10
2.66613	5.10
2.68280	5.10
2.69947	5.10
2.71613	5.10
2.73280	5.10
2.74947	5.10
2.76613	5.10
2.78280	5.10
2.79947	5.10
2.81613	5.10
2.83280	5.10
2.84947	5.10
2.86613	5.10
2.88280	5.10
2.89947	5.10
2.91613	5.09
2.93280	5.09
2.94947	5.09
2.96613	5.09
2.98280	5.09
2.99947	5.09
3.01613	5.09
3.03280	5.09
3.04947	5.09
3.06613	5.09
3.08280	5.09
3.09947	5.09
3.11613	5.09
3.13280	5.09
3.14947	5.09
3.16613	5.09
3.18280	5.09
3.19947	5.09
3.21613	5.09
3.23280	5.09
3.24947	5.09
3.26613	5.09
3.28280	5.09
3.29947	5.09
3.31613	5.09
3.33280	5.09
3.34947	5.09
3.36613	5.09
3.38280	5.09
3.39947	5.09
3.41613	5.09
3.43280	5.09
3.44947	5.09
3.46613	5.09
3.48280	5.09
3.49947	5.09
3.51613	5.09
3.53280	5.09
3.54947	5.09
3.56613	5.09
3.58280	5.09
3.59947	5.09
3.61613	5.09
3.63280	5.09
3.64947	5.09
3.66613	5.09
3.68280	5.09
3.69947	5.09
3.71613	5.09
3.73280	5.09
3.74947	5.09
3.76613	5.09
3.78280	5.09
3.79947	5.09
3.81613	5.09
3.83280	5.09
3.84947	5.09
3.86613	5.09
3.88280	5.09
3.89947	5.09
3.91613	5.09
3.93280	5.09
3.94947	5.09
3.96613	5.09
3.98280	5.09
3.99947	5.09

[Status Trace (Linear Velocity)]
Interval(msec)	1000
# of Points	240
Start Time(min)	0.016
End Time(min)	3.999
Intensity Units	
Intensity Multiplier	1
R.Time (min)	Intensity
0.01613	38.34
0.03280	37.62
0.04947	39.19
0.06613	40.25
0.08280	39.33
0.09947	39.00
0.11613	39.02
0.13280	39.03
0.14947	39.02
0.16613	39.02
0.18280	39.02
0.19947	39.02
0.21613	39.02
0.23280	39.02
0.24947	39.02
0.26613	39.02
0.28280	39.02
0.29947	39.02
0.31613	39.02
0.33280	39.02
0.34947	39.02
0.36613	39.02
0.38280	39.02
0.39947	39.02
0.41613	39.02
0.43280	39.02
0.44947	39.02
0.46613	39.02
0.48280	39.02
0.49947	39.02
0.51613	39.02
0.53280	39.02
0.54947	39.02
0.56613	39.02
0.58280	39.02
0.59947	39.02
0.61613	39.02
0.63280	39.02
0.64947	39.02
0.66613	39.02
0.68280	39.02
0.69947	39.02
0.71613	39.02
0.73280	39.02
0.74947	39.02
0.76613	39.02
0.78280	39.02
0.79947	39.02
0.81613	39.02
0.83280	39.02
0.84947	39.02
0.86613	39.02
0.88280	39.02
0.89947	39.02
0.91613	39.02
0.93280	39.02
0.94947	39.02
0.96613	39.02
0.98280	39.02
0.99947	39.02
1.01613	39.02
1.03280	39.02
1.04947	39.02
1.06613	39.02
1.08280	39.02
1.09947	39.02
1.11613	39.02
1.13280	39.02
1.14947	39.02
1.16613	39.02
1.18280	39.02
1.19947	39.02
1.21613	39.02
1.23280	39.02
1.24947	39.02
1.26613	39.02
1.28280	39.02
1.29947	39.02
1.31613	39.02
1.33280	39.02
1.34947	39.02
1.36613	39.02
1.38280	39.02
1.39947	39.02
1.41613	39.02
1.43280	39.02
1.44947	39.02
1.46613	39.02
1.48280	39.02
1.49947	39.02
1.51613	39.02
1.53280	39.02
1.54947	39.02
1.56613	39.02
1.58280	39.02
1.59947	39.02
1.61613	39.01
1.63280	39.00
1.64947	38.98
1.66613	38.95
1.68280	38.91
1.69947	38.88
1.71613	38.84
1.73280	38.81
1.74947	38.78
1.76613	38.75
1.78280	38.72
1.79947	38.69
1.81613	38.66
1.83280	38.62
1.84947	38.59
1.86613	38.56
1.88280	38.53
1.89947	38.50
1.91613	38.47
1.93280	38.44
1.94947	38.41
1.96613	38.38
1.98280	38.35
1.99947	38.32
2.01613	38.29
2.03280	38.26
2.04947	38.23
2.06613	38.20
2.08280	38.17
2.09947	38.14
2.11613	38.11
2.13280	38.08
2.14947	38.05
2.16613	38.02
2.18280	37.99
2.19947	37.96
2.21613	37.93
2.23280	37.90
2.24947	37.88
2.26613	37.85
2.28280	37.82
2.29947	37.79
2.31613	37.76
2.33280	37.73
2.34947	37.70
2.36613	37.67
2.38280	37.66
2.39947	37.65
2.41613	37.66
2.43280	37.66
2.44947	37.66
2.46613	37.66
2.48280	37.66
2.49947	37.66
2.51613	37.65
2.53280	37.65
2.54947	37.65
2.56613	37.65
2.58280	37.65
2.59947	37.65
2.61613	37.65
2.63280	37.65
2.64947	37.65
2.66613	37.65
2.68280	37.65
2.69947	37.65
2.71613	37.65
2.73280	37.65
2.74947	37.65
2.76613	37.65
2.78280	37.65
2.79947	37.65
2.81613	37.65
2.83280	37.65
2.84947	37.65
2.86613	37.64
2.88280	37.64
2.89947	37.64
2.91613	37.64
2.93280	37.64
2.94947	37.64
2.96613	37.64
2.98280	37.64
2.99947	37.64
3.01613	37.64
3.03280	37.64
3.04947	37.63
3.06613	37.63
3.08280	37.63
3.09947	37.63
3.11613	37.63
3.13280	37.63
3.14947	37.63
3.16613	37.63
3.18280	37.63
3.19947	37.63
3.21613	37.63
3.23280	37.63
3.24947	37.63
3.26613	37.63
3.28280	37.63
3.29947	37.63
3.31613	37.63
3.33280	37.63
3.34947	37.63
3.36613	37.63
3.38280	37.63
3.39947	37.63
3.41613	37.63
3.43280	37.63
3.44947	37.63
3.46613	37.63
3.48280	37.63
3.49947	37.63
3.51613	37.63
3.53280	37.63
3.54947	37.63
3.56613	37.63
3.58280	37.63
3.59947	37.63
3.61613	37.63
3.63280	37.63
3.64947	37.63
3.66613	37.63
3.68280	37.63
3.69947	37.63
3.71613	37.63
3.73280	37.63
3.74947	37.63
3.76613	37.63
3.78280	37.63
3.79947	37.63
3.81613	37.63
3.83280	37.63
3.84947	37.63
3.86613	37.63
3.88280	37.63
3.89947	37.63
3.91613	37.63
3.93280	37.63
3.94947	37.63
3.96613	37.63
3.98280	37.63
3.99947	37.63

