[Header]
Application Name	LabSolutions
Version	5.110
Data File Name	C:\Users\User\Desktop\GC Analyses\Jack\Nachusa Grasslands Sampling\T3 Timepoint July 12th\T3_07122022_075.gcd
Output Date	3/14/2023
Output Time	3:43:35 PM

[File Information]
Type	Data File
Generated	3/13/2023 10:52:24 PM
Generated by	System Administrator
Modified	3/13/2023 10:59:10 PM
Modified by	System Administrator

[Sample Information]
Operator Name	System Administrator
Acquired	3/13/2023 10:55:08 PM
Sample Type	0:Unknown
Level	0
Sample Name	075
Sample ID	075
ISTD Amount1	1
ISTD Amount2	1
ISTD Amount3	1
ISTD Amount4	1
ISTD Amount5	1
ISTD Amount6	1
ISTD Amount7	1
ISTD Amount8	1
ISTD Amount9	1
ISTD Amount10	1
ISTD Amount11	1
ISTD Amount12	1
ISTD Amount13	1
ISTD Amount14	1
ISTD Amount15	1
ISTD Amount16	1
ISTD Amount17	1
ISTD Amount18	1
ISTD Amount19	1
ISTD Amount20	1
ISTD Amount21	1
ISTD Amount22	1
ISTD Amount23	1
ISTD Amount24	1
ISTD Amount25	1
ISTD Amount26	1
ISTD Amount27	1
ISTD Amount28	1
ISTD Amount29	1
ISTD Amount30	1
ISTD Amount31	1
ISTD Amount32	1
Sample Amount	1
Dilution Factor	1
Vial#	74
Injection Volume	1
Injection Count	1
Bar Code	

[Original Files]
Data File	C:\Users\User\Desktop\GC Analyses\Jack\Nachusa Grasslands Sampling\T3 Timepoint July 12th\T3_07122022_075.gcd
Method File	C:\LabSolutions\Data\GHG_4min_2022\ghg3_togas_w_acet_4 min_new_int.gcm
Batch File	C:\LabSolutions\Data\AutoSamplerTesting\T3_07122022.gcb
Report Format File	c:\LabSolutions\System\DEFAULT.lsr

[File Description]


[Configuration]
Instrument Name	C0B7VH3-Instrument1
Instrument #	1
Line #	1
# of Detectors	3
Detector ID	DET#1	DET#2	DET#3
Detector Name	FID	PTCD	ECD
# of Channels	1	1	1

[Peak Table(Ch1)]
# of Peaks	3
Peak#	R.Time	I.Time	F.Time	Area	Height	A/H	Conc.	Mark	ID#	Name	k'	Plate #	Plate Ht.	Tailing	Resolution	Sep.Factor	Area Ratio	Height Ratio	Conc. %	Norm Conc.
1	1.476	1.439	1.538	28215	13929	2.026	199.197	   	1	CO	0.000	9673	15.507	1.271	0.000	0.000	0	0	19.136	19.136
2	1.571	1.538	1.619	3961	2075	1.908	76.582	   	2	CH4	0.065	12090	12.407	1.105	1.627	0.000	0	0	7.357	7.357
3	1.996	1.952	2.418	3048883	1466385	2.079	765.187	   	3	CO2	0.353	17392	8.624	1.320	7.227	5.462	0	0	73.507	73.507

[Peak Table(Ch2)]
# of Peaks	0

[Peak Table(Ch3)]
# of Peaks	5
Peak#	R.Time	I.Time	F.Time	Area	Height	A/H	Conc.	Mark	ID#	Name	k'	Plate #	Plate Ht.	Tailing	Resolution	Sep.Factor	Area Ratio	Height Ratio	Conc. %	Norm Conc.
1	2.462	2.326	2.510	2118	688	3.077	0.000	   			0.000	11450	13.100	0.000	0.000	0.000	0	0	0.000	0.000
2	2.528	2.510	2.572	868	330	2.633	0.000	 V 			0.027	7700	19.479	0.000	0.637	0.000	0	0	0.000	0.000
3	2.601	2.572	2.675	554	141	3.920	0.000	 V 			0.057	857	175.007	0.000	0.312	2.111	0	0	0.000	0.000
4	2.880	2.704	3.063	19828	4847	4.091	0.506	   	1	N2O	0.170	12785	11.733	1.567	1.219	3.000	0	0	100.000	100.000
5	3.305	3.067	3.995	23043	728	31.642	0.000	   	2	SF6	0.343	145	1036.138	1.890	0.708	2.018	0	0	0.000	0.000

[Compound Results(Ch1)]
# of IDs	6
ID#	Name	R.Time	Area	Height	Conc.	Curve	3rd	2nd	1st	Constant	Area Ratio	Height Ratio	Conc. %	Norm Conc.
1	CO	1.476	28215	13929	199.197	Linear	0.000000e+00	0.000000e+00	1.416423e+002	0.000000e+00	0	0	19.136	19.136
2	CH4	1.571	3961	2075	76.582	Linear	0.000000e+00	0.000000e+00	5.171738e+001	0.000000e+00	0	0	7.357	7.357
3	CO2	1.996	3048883	1466385	765.187	Linear	0.000000e+00	0.000000e+00	3.984494e+003	0.000000e+00	0	0	73.507	73.507
4	Ethylene	0.000	0	0	0.000	Linear	0.000000e+00	0.000000e+00	0.000000e+00	0.000000e+00	0	0	0.000	0.000
5	Acetylene	0.000	0	0	0.000	Linear	0.000000e+00	0.000000e+00	0.000000e+00	0.000000e+00	0	0	0.000	0.000
6	Ethane	0.000	0	0	0.000	Linear	0.000000e+00	0.000000e+00	0.000000e+00	0.000000e+00	0	0	0.000	0.000

[Compound Results(Ch2)]
# of IDs	5
ID#	Name	R.Time	Area	Height	Conc.	Curve	3rd	2nd	1st	Constant	Area Ratio	Height Ratio	Conc. %	Norm Conc.
1	Hydrogen	0.000	0	0	0.000	Linear	0.000000e+00	0.000000e+00	0.000000e+00	0.000000e+00	0	0	0.000	0.000
2	Oxygen	0.000	0	0	0.000	Linear	0.000000e+00	0.000000e+00	0.000000e+00	0.000000e+00	0	0	0.000	0.000
3	Nitrogen	0.000	0	0	0.000	Linear	0.000000e+00	0.000000e+00	0.000000e+00	0.000000e+00	0	0	0.000	0.000
4	Methane	0.000	0	0	0.000	Linear	0.000000e+00	0.000000e+00	0.000000e+00	0.000000e+00	0	0	0.000	0.000
5	Carbon Monoxide	0.000	0	0	0.000	Linear	0.000000e+00	0.000000e+00	0.000000e+00	0.000000e+00	0	0	0.000	0.000

[Compound Results(Ch3)]
# of IDs	2
ID#	Name	R.Time	Area	Height	Conc.	Curve	3rd	2nd	1st	Constant	Area Ratio	Height Ratio	Conc. %	Norm Conc.
1	N2O	2.880	19828	4847	0.506	Linear	0.000000e+00	0.000000e+00	3.915173e+004	0.000000e+00	0	0	100.000	100.000
2	SF6	3.305	23043	728	0.000	Linear	0.000000e+00	0.000000e+00	0.000000e+00	0.000000e+00	0	0	0.000	0.000

[Group Results(Ch1)]
# of Groups	0

[Group Results(Ch2)]
# of Groups	0

[Group Results(Ch3)]
# of Groups	0

[Chromatogram (Ch1)]
Interval(msec)	220
# of Points	1091
Start Time(min)	0.002
End Time(min)	3.998
R.Time (min)	Intensity
0.00167	31
0.00533	48
0.00900	61
0.01267	66
0.01633	64
0.02000	56
0.02367	49
0.02733	39
0.03100	30
0.03467	27
0.03833	25
0.04200	21
0.04567	20
0.04933	20
0.05300	21
0.05667	23
0.06033	23
0.06400	22
0.06767	22
0.07133	23
0.07500	26
0.07867	31
0.08233	35
0.08600	39
0.08967	46
0.09333	55
0.09700	60
0.10067	58
0.10433	55
0.10800	50
0.11167	47
0.11533	49
0.11900	50
0.12267	57
0.12633	63
0.13000	65
0.13367	67
0.13733	70
0.14100	69
0.14467	67
0.14833	73
0.15200	80
0.15567	84
0.15933	85
0.16300	91
0.16667	96
0.17033	98
0.17400	102
0.17767	108
0.18133	112
0.18500	112
0.18867	109
0.19233	103
0.19600	100
0.19967	104
0.20333	113
0.20700	127
0.21067	137
0.21433	141
0.21800	144
0.22167	145
0.22533	140
0.22900	129
0.23267	121
0.23633	120
0.24000	121
0.24367	115
0.24733	105
0.25100	92
0.25467	81
0.25833	81
0.26200	86
0.26567	88
0.26933	87
0.27300	83
0.27667	77
0.28033	69
0.28400	65
0.28767	61
0.29133	58
0.29500	63
0.29867	71
0.30233	74
0.30600	71
0.30967	65
0.31333	59
0.31700	54
0.32067	55
0.32433	62
0.32800	65
0.33167	63
0.33533	61
0.33900	61
0.34267	62
0.34633	62
0.35000	63
0.35367	63
0.35733	61
0.36100	60
0.36467	59
0.36833	56
0.37200	53
0.37567	51
0.37933	51
0.38300	51
0.38667	54
0.39033	56
0.39400	57
0.39767	57
0.40133	58
0.40500	60
0.40867	61
0.41233	61
0.41600	60
0.41967	59
0.42333	65
0.42700	69
0.43067	71
0.43433	73
0.43800	70
0.44167	65
0.44533	59
0.44900	56
0.45267	55
0.45633	53
0.46000	50
0.46367	47
0.46733	48
0.47100	50
0.47467	50
0.47833	52
0.48200	58
0.48567	65
0.48933	73
0.49300	77
0.49667	73
0.50033	62
0.50400	54
0.50767	52
0.51133	53
0.51500	55
0.51867	59
0.52233	65
0.52600	71
0.52967	77
0.53333	75
0.53700	68
0.54067	65
0.54433	60
0.54800	56
0.55167	61
0.55533	64
0.55900	62
0.56267	57
0.56633	51
0.57000	45
0.57367	40
0.57733	31
0.58100	27
0.58467	33
0.58833	42
0.59200	48
0.59567	49
0.59933	47
0.60300	43
0.60667	43
0.61033	46
0.61400	48
0.61767	50
0.62133	50
0.62500	51
0.62867	50
0.63233	50
0.63600	54
0.63967	59
0.64333	63
0.64700	65
0.65067	66
0.65433	61
0.65800	52
0.66167	47
0.66533	48
0.66900	49
0.67267	49
0.67633	52
0.68000	59
0.68367	65
0.68733	64
0.69100	60
0.69467	59
0.69833	60
0.70200	60
0.70567	59
0.70933	54
0.71300	53
0.71667	52
0.72033	48
0.72400	45
0.72767	46
0.73133	52
0.73500	54
0.73867	51
0.74233	47
0.74600	45
0.74967	49
0.75333	57
0.75700	62
0.76067	61
0.76433	52
0.76800	46
0.77167	46
0.77533	48
0.77900	50
0.78267	49
0.78633	43
0.79000	38
0.79367	38
0.79733	41
0.80100	42
0.80467	42
0.80833	44
0.81200	43
0.81567	41
0.81933	39
0.82300	40
0.82667	41
0.83033	47
0.83400	51
0.83767	61
0.84133	77
0.84500	86
0.84867	88
0.85233	88
0.85600	90
0.85967	96
0.86333	101
0.86700	105
0.87067	106
0.87433	107
0.87800	104
0.88167	98
0.88533	92
0.88900	88
0.89267	91
0.89633	93
0.90000	93
0.90367	93
0.90733	94
0.91100	97
0.91467	98
0.91833	94
0.92200	92
0.92567	95
0.92933	96
0.93300	92
0.93667	90
0.94033	93
0.94400	98
0.94767	99
0.95133	97
0.95500	92
0.95867	88
0.96233	89
0.96600	92
0.96967	96
0.97333	100
0.97700	99
0.98067	94
0.98433	95
0.98800	99
0.99167	98
0.99533	88
0.99900	77
1.00267	74
1.00633	77
1.01000	79
1.01367	80
1.01733	78
1.02100	76
1.02467	77
1.02833	78
1.03200	80
1.03567	82
1.03933	83
1.04300	84
1.04667	83
1.05033	80
1.05400	78
1.05767	78
1.06133	77
1.06500	75
1.06867	76
1.07233	78
1.07600	80
1.07967	78
1.08333	73
1.08700	70
1.09067	64
1.09433	59
1.09800	57
1.10167	54
1.10533	50
1.10900	47
1.11267	46
1.11633	49
1.12000	53
1.12367	61
1.12733	71
1.13100	79
1.13467	81
1.13833	80
1.14200	77
1.14567	77
1.14933	86
1.15300	100
1.15667	112
1.16033	116
1.16400	106
1.16767	89
1.17133	71
1.17500	55
1.17867	45
1.18233	36
1.18600	28
1.18967	22
1.19333	18
1.19700	17
1.20067	18
1.20433	24
1.20800	30
1.21167	38
1.21533	49
1.21900	58
1.22267	63
1.22633	63
1.23000	62
1.23367	62
1.23733	66
1.24100	66
1.24467	60
1.24833	56
1.25200	57
1.25567	62
1.25933	69
1.26300	73
1.26667	72
1.27033	68
1.27400	64
1.27767	63
1.28133	63
1.28500	58
1.28867	54
1.29233	50
1.29600	49
1.29967	53
1.30333	53
1.30700	49
1.31067	49
1.31433	53
1.31800	56
1.32167	56
1.32533	51
1.32900	45
1.33267	39
1.33633	33
1.34000	32
1.34367	34
1.34733	37
1.35100	41
1.35467	45
1.35833	45
1.36200	46
1.36567	49
1.36933	45
1.37300	37
1.37667	33
1.38033	38
1.38400	51
1.38767	57
1.39133	55
1.39500	56
1.39867	58
1.40233	58
1.40600	56
1.40967	48
1.41333	38
1.41700	31
1.42067	27
1.42433	29
1.42800	34
1.43167	33
1.43533	30
1.43900	43
1.44267	90
1.44633	250
1.45000	719
1.45367	1879
1.45733	3983
1.46100	6689
1.46467	9370
1.46833	11590
1.47200	13155
1.47567	13936
1.47933	13796
1.48300	12704
1.48667	10868
1.49033	8686
1.49400	6550
1.49767	4715
1.50133	3278
1.50500	2218
1.50867	1466
1.51233	942
1.51600	588
1.51967	355
1.52333	201
1.52700	92
1.53067	16
1.53433	-36
1.53800	-54
1.54167	-20
1.54533	114
1.54900	388
1.55267	772
1.55633	1185
1.56000	1552
1.56367	1832
1.56733	2003
1.57100	2034
1.57467	1901
1.57833	1628
1.58200	1281
1.58567	938
1.58933	648
1.59300	425
1.59667	263
1.60033	151
1.60400	77
1.60767	34
1.61133	6
1.61500	-10
1.61867	-22
1.62233	-27
1.62600	-26
1.62967	-23
1.63333	-22
1.63700	-23
1.64067	-28
1.64433	-32
1.64800	-32
1.65167	-31
1.65533	-33
1.65900	-36
1.66267	-39
1.66633	-41
1.67000	-40
1.67367	-34
1.67733	-28
1.68100	-24
1.68467	-23
1.68833	-22
1.69200	-19
1.69567	-19
1.69933	-20
1.70300	-21
1.70667	-19
1.71033	-15
1.71400	-16
1.71767	-19
1.72133	-18
1.72500	-12
1.72867	-0
1.73233	11
1.73600	16
1.73967	15
1.74333	10
1.74700	2
1.75067	-8
1.75433	-19
1.75800	-26
1.76167	-26
1.76533	-23
1.76900	-20
1.77267	-20
1.77633	-22
1.78000	-24
1.78367	-24
1.78733	-22
1.79100	-19
1.79467	-14
1.79833	-10
1.80200	-4
1.80567	2
1.80933	5
1.81300	8
1.81667	9
1.82033	10
1.82400	10
1.82767	6
1.83133	3
1.83500	1
1.83867	-7
1.84233	-13
1.84600	-12
1.84967	-8
1.85333	-8
1.85700	-12
1.86067	-11
1.86433	-8
1.86800	-7
1.87167	-10
1.87533	-10
1.87900	-3
1.88267	2
1.88633	5
1.89000	9
1.89367	14
1.89733	20
1.90100	26
1.90467	28
1.90833	24
1.91200	21
1.91567	22
1.91933	30
1.92300	37
1.92667	39
1.93033	40
1.93400	42
1.93767	43
1.94133	42
1.94500	42
1.94867	41
1.95233	59
1.95600	210
1.95967	1173
1.96333	5988
1.96700	24214
1.97067	76886
1.97433	193378
1.97800	391522
1.98167	656050
1.98533	941286
1.98900	1195837
1.99267	1379266
1.99633	1466480
2.00000	1449506
2.00367	1337856
2.00733	1157394
2.01100	943323
2.01467	729661
2.01833	540608
2.02200	387612
2.02567	271705
2.02933	187970
2.03300	129427
2.03667	89372
2.04033	62308
2.04400	44128
2.04767	31911
2.05133	23648
2.05500	17990
2.05867	14052
2.06233	11255
2.06600	9223
2.06967	7716
2.07333	6579
2.07700	5705
2.08067	5019
2.08433	4464
2.08800	4007
2.09167	3629
2.09533	3307
2.09900	3034
2.10267	2800
2.10633	2597
2.11000	2417
2.11367	2260
2.11733	2122
2.12100	1997
2.12467	1886
2.12833	1789
2.13200	1703
2.13567	1628
2.13933	1558
2.14300	1492
2.14667	1428
2.15033	1367
2.15400	1312
2.15767	1259
2.16133	1210
2.16500	1166
2.16867	1126
2.17233	1088
2.17600	1052
2.17967	1020
2.18333	991
2.18700	964
2.19067	936
2.19433	912
2.19800	893
2.20167	873
2.20533	853
2.20900	830
2.21267	805
2.21633	783
2.22000	764
2.22367	748
2.22733	734
2.23100	720
2.23467	707
2.23833	695
2.24200	684
2.24567	673
2.24933	662
2.25300	654
2.25667	649
2.26033	639
2.26400	626
2.26767	614
2.27133	605
2.27500	591
2.27867	578
2.28233	573
2.28600	572
2.28967	571
2.29333	567
2.29700	561
2.30067	556
2.30433	551
2.30800	546
2.31167	535
2.31533	520
2.31900	510
2.32267	505
2.32633	504
2.33000	501
2.33367	497
2.33733	493
2.34100	490
2.34467	487
2.34833	483
2.35200	478
2.35567	476
2.35933	467
2.36300	457
2.36667	456
2.37033	459
2.37400	465
2.37767	471
2.38133	471
2.38500	466
2.38867	462
2.39233	457
2.39600	451
2.39967	450
2.40333	449
2.40700	446
2.41067	440
2.41433	434
2.41800	431
2.42167	431
2.42533	432
2.42900	432
2.43267	435
2.43633	441
2.44000	444
2.44367	440
2.44733	436
2.45100	432
2.45467	427
2.45833	422
2.46200	417
2.46567	412
2.46933	405
2.47300	398
2.47667	393
2.48033	390
2.48400	388
2.48767	388
2.49133	386
2.49500	381
2.49867	378
2.50233	381
2.50600	391
2.50967	397
2.51333	395
2.51700	391
2.52067	389
2.52433	391
2.52800	395
2.53167	400
2.53533	405
2.53900	405
2.54267	403
2.54633	400
2.55000	398
2.55367	398
2.55733	399
2.56100	402
2.56467	404
2.56833	406
2.57200	406
2.57567	410
2.57933	412
2.58300	412
2.58667	410
2.59033	407
2.59400	400
2.59767	390
2.60133	388
2.60500	392
2.60867	398
2.61233	404
2.61600	403
2.61967	399
2.62333	397
2.62700	394
2.63067	391
2.63433	389
2.63800	390
2.64167	391
2.64533	391
2.64900	395
2.65267	398
2.65633	394
2.66000	391
2.66367	391
2.66733	390
2.67100	388
2.67467	384
2.67833	381
2.68200	380
2.68567	382
2.68933	388
2.69300	392
2.69667	393
2.70033	395
2.70400	399
2.70767	402
2.71133	405
2.71500	409
2.71867	412
2.72233	411
2.72600	410
2.72967	410
2.73333	408
2.73700	406
2.74067	402
2.74433	397
2.74800	396
2.75167	393
2.75533	389
2.75900	388
2.76267	394
2.76633	402
2.77000	406
2.77367	406
2.77733	407
2.78100	410
2.78467	413
2.78833	414
2.79200	414
2.79567	413
2.79933	412
2.80300	410
2.80667	406
2.81033	403
2.81400	404
2.81767	405
2.82133	404
2.82500	399
2.82867	395
2.83233	393
2.83600	391
2.83967	389
2.84333	392
2.84700	398
2.85067	400
2.85433	401
2.85800	403
2.86167	410
2.86533	421
2.86900	428
2.87267	428
2.87633	424
2.88000	418
2.88367	412
2.88733	407
2.89100	410
2.89467	416
2.89833	418
2.90200	417
2.90567	414
2.90933	411
2.91300	408
2.91667	404
2.92033	400
2.92400	399
2.92767	402
2.93133	403
2.93500	405
2.93867	410
2.94233	414
2.94600	414
2.94967	413
2.95333	407
2.95700	403
2.96067	402
2.96433	397
2.96800	395
2.97167	393
2.97533	392
2.97900	394
2.98267	398
2.98633	404
2.99000	407
2.99367	407
2.99733	408
3.00100	410
3.00467	416
3.00833	424
3.01200	427
3.01567	428
3.01933	427
3.02300	417
3.02667	400
3.03033	386
3.03400	377
3.03767	376
3.04133	376
3.04500	373
3.04867	374
3.05233	380
3.05600	380
3.05967	378
3.06333	377
3.06700	375
3.07067	379
3.07433	386
3.07800	393
3.08167	402
3.08533	413
3.08900	417
3.09267	411
3.09633	399
3.10000	388
3.10367	382
3.10733	379
3.11100	375
3.11467	373
3.11833	374
3.12200	378
3.12567	381
3.12933	383
3.13300	387
3.13667	386
3.14033	385
3.14400	387
3.14767	391
3.15133	392
3.15500	390
3.15867	391
3.16233	391
3.16600	390
3.16967	387
3.17333	382
3.17700	377
3.18067	375
3.18433	379
3.18800	382
3.19167	382
3.19533	382
3.19900	385
3.20267	390
3.20633	391
3.21000	388
3.21367	382
3.21733	374
3.22100	368
3.22467	370
3.22833	372
3.23200	378
3.23567	386
3.23933	392
3.24300	390
3.24667	384
3.25033	378
3.25400	372
3.25767	365
3.26133	355
3.26500	345
3.26867	342
3.27233	346
3.27600	354
3.27967	365
3.28333	374
3.28700	377
3.29067	380
3.29433	377
3.29800	372
3.30167	369
3.30533	368
3.30900	366
3.31267	359
3.31633	352
3.32000	350
3.32367	350
3.32733	351
3.33100	349
3.33467	348
3.33833	350
3.34200	350
3.34567	351
3.34933	356
3.35300	356
3.35667	354
3.36033	355
3.36400	363
3.36767	367
3.37133	362
3.37500	354
3.37867	346
3.38233	341
3.38600	341
3.38967	344
3.39333	345
3.39700	345
3.40067	344
3.40433	342
3.40800	340
3.41167	337
3.41533	336
3.41900	338
3.42267	339
3.42633	338
3.43000	332
3.43367	326
3.43733	321
3.44100	319
3.44467	317
3.44833	315
3.45200	314
3.45567	316
3.45933	320
3.46300	326
3.46667	332
3.47033	336
3.47400	336
3.47767	332
3.48133	327
3.48500	322
3.48867	314
3.49233	308
3.49600	309
3.49967	318
3.50333	323
3.50700	321
3.51067	317
3.51433	314
3.51800	312
3.52167	310
3.52533	311
3.52900	312
3.53267	313
3.53633	313
3.54000	312
3.54367	312
3.54733	313
3.55100	316
3.55467	320
3.55833	324
3.56200	325
3.56567	325
3.56933	327
3.57300	327
3.57667	325
3.58033	322
3.58400	321
3.58767	323
3.59133	326
3.59500	325
3.59867	321
3.60233	317
3.60600	321
3.60967	326
3.61333	324
3.61700	319
3.62067	309
3.62433	294
3.62800	283
3.63167	277
3.63533	274
3.63900	276
3.64267	275
3.64633	276
3.65000	278
3.65367	279
3.65733	279
3.66100	281
3.66467	281
3.66833	277
3.67200	272
3.67567	270
3.67933	273
3.68300	277
3.68667	282
3.69033	291
3.69400	298
3.69767	305
3.70133	311
3.70500	313
3.70867	309
3.71233	300
3.71600	286
3.71967	274
3.72333	266
3.72700	263
3.73067	263
3.73433	266
3.73800	272
3.74167	277
3.74533	278
3.74900	274
3.75267	267
3.75633	263
3.76000	265
3.76367	270
3.76733	274
3.77100	275
3.77467	275
3.77833	277
3.78200	281
3.78567	286
3.78933	292
3.79300	296
3.79667	295
3.80033	290
3.80400	280
3.80767	271
3.81133	267
3.81500	266
3.81867	269
3.82233	268
3.82600	260
3.82967	252
3.83333	249
3.83700	243
3.84067	236
3.84433	231
3.84800	230
3.85167	234
3.85533	245
3.85900	262
3.86267	275
3.86633	281
3.87000	283
3.87367	278
3.87733	268
3.88100	263
3.88467	261
3.88833	256
3.89200	248
3.89567	241
3.89933	241
3.90300	247
3.90667	254
3.91033	257
3.91400	256
3.91767	255
3.92133	254
3.92500	252
3.92867	254
3.93233	259
3.93600	260
3.93967	260
3.94333	259
3.94700	256
3.95067	257
3.95433	263
3.95800	268
3.96167	267
3.96533	266
3.96900	267
3.97267	271
3.97633	271
3.98000	265
3.98367	260
3.98733	256
3.99100	251
3.99467	245
3.99833	240

[Chromatogram (Ch2)]
Interval(msec)	220
# of Points	1091
Start Time(min)	0.002
End Time(min)	3.998
R.Time (min)	Intensity
0.00167	1
0.00533	1
0.00900	1
0.01267	1
0.01633	0
0.02000	0
0.02367	0
0.02733	0
0.03100	0
0.03467	1
0.03833	1
0.04200	1
0.04567	1
0.04933	1
0.05300	1
0.05667	1
0.06033	1
0.06400	0
0.06767	0
0.07133	0
0.07500	0
0.07867	0
0.08233	1
0.08600	1
0.08967	1
0.09333	1
0.09700	1
0.10067	1
0.10433	1
0.10800	1
0.11167	1
0.11533	1
0.11900	1
0.12267	1
0.12633	1
0.13000	0
0.13367	0
0.13733	0
0.14100	-0
0.14467	-0
0.14833	-0
0.15200	-0
0.15567	-0
0.15933	-0
0.16300	-0
0.16667	-0
0.17033	-0
0.17400	-0
0.17767	-0
0.18133	-0
0.18500	-0
0.18867	-0
0.19233	-0
0.19600	-0
0.19967	0
0.20333	0
0.20700	1
0.21067	1
0.21433	1
0.21800	1
0.22167	1
0.22533	1
0.22900	1
0.23267	1
0.23633	1
0.24000	1
0.24367	1
0.24733	1
0.25100	1
0.25467	1
0.25833	1
0.26200	1
0.26567	0
0.26933	0
0.27300	-0
0.27667	-1
0.28033	-1
0.28400	-1
0.28767	-1
0.29133	-1
0.29500	-1
0.29867	-1
0.30233	-1
0.30600	-1
0.30967	-1
0.31333	-0
0.31700	-0
0.32067	-0
0.32433	-0
0.32800	-0
0.33167	-0
0.33533	-1
0.33900	-1
0.34267	-1
0.34633	-1
0.35000	-1
0.35367	-0
0.35733	-0
0.36100	-0
0.36467	-0
0.36833	-0
0.37200	0
0.37567	0
0.37933	0
0.38300	1
0.38667	1
0.39033	1
0.39400	1
0.39767	2
0.40133	2
0.40500	2
0.40867	2
0.41233	1
0.41600	1
0.41967	1
0.42333	1
0.42700	1
0.43067	0
0.43433	0
0.43800	0
0.44167	-0
0.44533	-0
0.44900	-0
0.45267	-0
0.45633	-0
0.46000	0
0.46367	1
0.46733	1
0.47100	1
0.47467	1
0.47833	1
0.48200	1
0.48567	1
0.48933	1
0.49300	1
0.49667	1
0.50033	1
0.50400	0
0.50767	0
0.51133	0
0.51500	0
0.51867	0
0.52233	0
0.52600	-0
0.52967	-0
0.53333	-1
0.53700	-1
0.54067	-1
0.54433	-2
0.54800	-2
0.55167	-2
0.55533	-2
0.55900	-2
0.56267	-1
0.56633	-1
0.57000	-0
0.57367	-0
0.57733	0
0.58100	0
0.58467	0
0.58833	1
0.59200	1
0.59567	1
0.59933	0
0.60300	0
0.60667	0
0.61033	-0
0.61400	-1
0.61767	-1
0.62133	-1
0.62500	-1
0.62867	-1
0.63233	-1
0.63600	-1
0.63967	-1
0.64333	-1
0.64700	-2
0.65067	-2
0.65433	-2
0.65800	-2
0.66167	-2
0.66533	-2
0.66900	-2
0.67267	-2
0.67633	-2
0.68000	-1
0.68367	-1
0.68733	-1
0.69100	-0
0.69467	-0
0.69833	-0
0.70200	-0
0.70567	-0
0.70933	-0
0.71300	-0
0.71667	-0
0.72033	-0
0.72400	0
0.72767	1
0.73133	1
0.73500	1
0.73867	2
0.74233	2
0.74600	2
0.74967	3
0.75333	3
0.75700	3
0.76067	3
0.76433	3
0.76800	3
0.77167	2
0.77533	2
0.77900	2
0.78267	2
0.78633	2
0.79000	2
0.79367	2
0.79733	2
0.80100	2
0.80467	2
0.80833	2
0.81200	2
0.81567	2
0.81933	3
0.82300	3
0.82667	3
0.83033	3
0.83400	2
0.83767	2
0.84133	2
0.84500	2
0.84867	2
0.85233	2
0.85600	2
0.85967	1
0.86333	1
0.86700	1
0.87067	0
0.87433	0
0.87800	-0
0.88167	-0
0.88533	-0
0.88900	-0
0.89267	-0
0.89633	-0
0.90000	0
0.90367	0
0.90733	0
0.91100	0
0.91467	-0
0.91833	-0
0.92200	-0
0.92567	-0
0.92933	-0
0.93300	-0
0.93667	-0
0.94033	-0
0.94400	-1
0.94767	-1
0.95133	-1
0.95500	-1
0.95867	-1
0.96233	-1
0.96600	-1
0.96967	-1
0.97333	-1
0.97700	-1
0.98067	-1
0.98433	-1
0.98800	-1
0.99167	-0
0.99533	-0
0.99900	-0
1.00267	0
1.00633	0
1.01000	0
1.01367	1
1.01733	1
1.02100	1
1.02467	1
1.02833	1
1.03200	1
1.03567	1
1.03933	1
1.04300	1
1.04667	1
1.05033	1
1.05400	1
1.05767	1
1.06133	1
1.06500	1
1.06867	1
1.07233	0
1.07600	0
1.07967	-0
1.08333	-1
1.08700	-1
1.09067	-1
1.09433	-2
1.09800	-2
1.10167	-2
1.10533	-2
1.10900	-2
1.11267	-2
1.11633	-2
1.12000	-2
1.12367	-2
1.12733	-2
1.13100	-2
1.13467	-2
1.13833	-2
1.14200	-2
1.14567	-2
1.14933	-2
1.15300	-2
1.15667	-2
1.16033	-3
1.16400	-3
1.16767	-3
1.17133	-3
1.17500	-3
1.17867	-3
1.18233	-2
1.18600	-2
1.18967	-1
1.19333	-1
1.19700	-1
1.20067	-0
1.20433	-1
1.20800	-1
1.21167	-1
1.21533	-1
1.21900	-0
1.22267	-1
1.22633	-1
1.23000	-1
1.23367	-1
1.23733	-1
1.24100	-1
1.24467	-2
1.24833	-2
1.25200	-2
1.25567	-2
1.25933	-2
1.26300	-2
1.26667	-1
1.27033	-1
1.27400	-1
1.27767	-1
1.28133	-1
1.28500	-1
1.28867	-1
1.29233	-0
1.29600	0
1.29967	0
1.30333	0
1.30700	0
1.31067	0
1.31433	-0
1.31800	-0
1.32167	-0
1.32533	-0
1.32900	-0
1.33267	-0
1.33633	-0
1.34000	0
1.34367	0
1.34733	1
1.35100	1
1.35467	1
1.35833	1
1.36200	0
1.36567	0
1.36933	1
1.37300	1
1.37667	1
1.38033	1
1.38400	1
1.38767	0
1.39133	0
1.39500	-0
1.39867	-0
1.40233	-1
1.40600	-1
1.40967	-1
1.41333	-2
1.41700	-2
1.42067	-2
1.42433	-2
1.42800	-2
1.43167	-2
1.43533	-2
1.43900	-2
1.44267	-2
1.44633	-2
1.45000	-2
1.45367	-2
1.45733	-1
1.46100	-1
1.46467	-1
1.46833	-1
1.47200	-1
1.47567	-1
1.47933	-1
1.48300	-2
1.48667	-2
1.49033	-2
1.49400	-2
1.49767	-3
1.50133	-3
1.50500	-3
1.50867	-3
1.51233	-3
1.51600	-3
1.51967	-3
1.52333	-3
1.52700	-4
1.53067	-4
1.53433	-4
1.53800	-4
1.54167	-4
1.54533	-4
1.54900	-4
1.55267	-4
1.55633	-3
1.56000	-3
1.56367	-3
1.56733	-2
1.57100	-2
1.57467	-2
1.57833	-1
1.58200	-1
1.58567	-1
1.58933	-1
1.59300	-2
1.59667	-2
1.60033	-3
1.60400	-3
1.60767	-4
1.61133	-6
1.61500	-7
1.61867	-9
1.62233	-12
1.62600	-14
1.62967	-18
1.63333	-21
1.63700	-25
1.64067	-29
1.64433	-33
1.64800	-37
1.65167	-41
1.65533	-44
1.65900	-48
1.66267	-53
1.66633	-57
1.67000	-62
1.67367	-67
1.67733	-72
1.68100	-77
1.68467	-81
1.68833	-86
1.69200	-89
1.69567	-92
1.69933	-95
1.70300	-97
1.70667	-99
1.71033	-101
1.71400	-102
1.71767	-103
1.72133	-104
1.72500	-105
1.72867	-106
1.73233	-106
1.73600	-106
1.73967	-106
1.74333	-106
1.74700	-105
1.75067	-105
1.75433	-105
1.75800	-105
1.76167	-106
1.76533	-107
1.76900	-108
1.77267	-109
1.77633	-110
1.78000	-110
1.78367	-111
1.78733	-111
1.79100	-112
1.79467	-112
1.79833	-112
1.80200	-112
1.80567	-112
1.80933	-112
1.81300	-112
1.81667	-112
1.82033	-113
1.82400	-113
1.82767	-114
1.83133	-114
1.83500	-114
1.83867	-114
1.84233	-114
1.84600	-114
1.84967	-114
1.85333	-114
1.85700	-113
1.86067	-113
1.86433	-112
1.86800	-111
1.87167	-110
1.87533	-110
1.87900	-110
1.88267	-110
1.88633	-110
1.89000	-111
1.89367	-112
1.89733	-112
1.90100	-112
1.90467	-111
1.90833	-111
1.91200	-110
1.91567	-110
1.91933	-109
1.92300	-109
1.92667	-108
1.93033	-108
1.93400	-108
1.93767	-108
1.94133	-107
1.94500	-107
1.94867	-108
1.95233	-108
1.95600	-108
1.95967	-109
1.96333	-109
1.96700	-108
1.97067	-108
1.97433	-108
1.97800	-107
1.98167	-107
1.98533	-107
1.98900	-106
1.99267	-106
1.99633	-105
2.00000	-105
2.00367	-104
2.00733	-104
2.01100	-104
2.01467	-104
2.01833	-104
2.02200	-104
2.02567	-104
2.02933	-104
2.03300	-104
2.03667	-103
2.04033	-103
2.04400	-103
2.04767	-102
2.05133	-102
2.05500	-102
2.05867	-102
2.06233	-102
2.06600	-102
2.06967	-101
2.07333	-101
2.07700	-101
2.08067	-101
2.08433	-101
2.08800	-100
2.09167	-100
2.09533	-99
2.09900	-99
2.10267	-99
2.10633	-99
2.11000	-98
2.11367	-98
2.11733	-97
2.12100	-97
2.12467	-96
2.12833	-96
2.13200	-95
2.13567	-95
2.13933	-95
2.14300	-95
2.14667	-95
2.15033	-95
2.15400	-95
2.15767	-95
2.16133	-95
2.16500	-95
2.16867	-94
2.17233	-93
2.17600	-93
2.17967	-93
2.18333	-92
2.18700	-92
2.19067	-92
2.19433	-91
2.19800	-91
2.20167	-90
2.20533	-90
2.20900	-89
2.21267	-88
2.21633	-88
2.22000	-88
2.22367	-87
2.22733	-87
2.23100	-87
2.23467	-87
2.23833	-87
2.24200	-88
2.24567	-88
2.24933	-88
2.25300	-88
2.25667	-87
2.26033	-87
2.26400	-86
2.26767	-85
2.27133	-85
2.27500	-84
2.27867	-84
2.28233	-84
2.28600	-84
2.28967	-83
2.29333	-83
2.29700	-83
2.30067	-83
2.30433	-83
2.30800	-82
2.31167	-81
2.31533	-81
2.31900	-80
2.32267	-80
2.32633	-80
2.33000	-80
2.33367	-80
2.33733	-79
2.34100	-79
2.34467	-78
2.34833	-77
2.35200	-75
2.35567	-74
2.35933	-73
2.36300	-71
2.36667	-68
2.37033	-66
2.37400	-63
2.37767	-59
2.38133	-56
2.38500	-52
2.38867	-48
2.39233	-44
2.39600	-40
2.39967	-35
2.40333	-31
2.40700	-27
2.41067	-23
2.41433	-20
2.41800	-17
2.42167	-15
2.42533	-14
2.42900	-12
2.43267	-10
2.43633	-9
2.44000	-7
2.44367	-6
2.44733	-5
2.45100	-5
2.45467	-4
2.45833	-4
2.46200	-4
2.46567	-4
2.46933	-4
2.47300	-3
2.47667	-2
2.48033	-1
2.48400	0
2.48767	2
2.49133	3
2.49500	4
2.49867	5
2.50233	6
2.50600	7
2.50967	8
2.51333	9
2.51700	10
2.52067	10
2.52433	11
2.52800	12
2.53167	12
2.53533	13
2.53900	13
2.54267	14
2.54633	15
2.55000	15
2.55367	16
2.55733	16
2.56100	16
2.56467	16
2.56833	16
2.57200	16
2.57567	16
2.57933	16
2.58300	16
2.58667	16
2.59033	16
2.59400	17
2.59767	17
2.60133	17
2.60500	17
2.60867	17
2.61233	17
2.61600	16
2.61967	16
2.62333	16
2.62700	16
2.63067	16
2.63433	16
2.63800	16
2.64167	16
2.64533	16
2.64900	16
2.65267	17
2.65633	17
2.66000	17
2.66367	17
2.66733	18
2.67100	18
2.67467	18
2.67833	19
2.68200	19
2.68567	20
2.68933	20
2.69300	21
2.69667	21
2.70033	21
2.70400	22
2.70767	23
2.71133	23
2.71500	24
2.71867	24
2.72233	24
2.72600	24
2.72967	24
2.73333	24
2.73700	24
2.74067	24
2.74433	24
2.74800	24
2.75167	24
2.75533	23
2.75900	23
2.76267	23
2.76633	23
2.77000	23
2.77367	23
2.77733	23
2.78100	24
2.78467	24
2.78833	24
2.79200	24
2.79567	24
2.79933	24
2.80300	24
2.80667	25
2.81033	25
2.81400	25
2.81767	25
2.82133	25
2.82500	26
2.82867	26
2.83233	26
2.83600	26
2.83967	26
2.84333	25
2.84700	23
2.85067	20
2.85433	14
2.85800	5
2.86167	-7
2.86533	-23
2.86900	-43
2.87267	-67
2.87633	-96
2.88000	-129
2.88367	-167
2.88733	-208
2.89100	-253
2.89467	-301
2.89833	-351
2.90200	-404
2.90567	-458
2.90933	-513
2.91300	-568
2.91667	-624
2.92033	-679
2.92400	-733
2.92767	-785
2.93133	-836
2.93500	-889
2.93867	-945
2.94233	-1003
2.94600	-1055
2.94967	-1089
2.95333	-1099
2.95700	-1083
2.96067	-1044
2.96433	-987
2.96800	-916
2.97167	-839
2.97533	-758
2.97900	-679
2.98267	-602
2.98633	-530
2.99000	-463
2.99367	-403
2.99733	-349
3.00100	-301
3.00467	-258
3.00833	-221
3.01200	-188
3.01567	-159
3.01933	-134
3.02300	-113
3.02667	-94
3.03033	-79
3.03400	-65
3.03767	-53
3.04133	-44
3.04500	-35
3.04867	-28
3.05233	-22
3.05600	-17
3.05967	-12
3.06333	-9
3.06700	-6
3.07067	-3
3.07433	-1
3.07800	2
3.08167	4
3.08533	5
3.08900	7
3.09267	8
3.09633	9
3.10000	10
3.10367	11
3.10733	11
3.11100	12
3.11467	13
3.11833	13
3.12200	14
3.12567	14
3.12933	14
3.13300	15
3.13667	15
3.14033	15
3.14400	16
3.14767	16
3.15133	17
3.15500	17
3.15867	17
3.16233	17
3.16600	18
3.16967	18
3.17333	19
3.17700	19
3.18067	19
3.18433	19
3.18800	20
3.19167	20
3.19533	21
3.19900	21
3.20267	21
3.20633	21
3.21000	21
3.21367	21
3.21733	22
3.22100	22
3.22467	23
3.22833	23
3.23200	23
3.23567	23
3.23933	23
3.24300	23
3.24667	24
3.25033	24
3.25400	24
3.25767	23
3.26133	23
3.26500	23
3.26867	22
3.27233	22
3.27600	22
3.27967	22
3.28333	22
3.28700	22
3.29067	22
3.29433	22
3.29800	22
3.30167	22
3.30533	22
3.30900	23
3.31267	23
3.31633	23
3.32000	24
3.32367	24
3.32733	25
3.33100	25
3.33467	26
3.33833	26
3.34200	27
3.34567	27
3.34933	27
3.35300	27
3.35667	28
3.36033	28
3.36400	28
3.36767	28
3.37133	28
3.37500	28
3.37867	28
3.38233	28
3.38600	28
3.38967	28
3.39333	28
3.39700	29
3.40067	28
3.40433	28
3.40800	28
3.41167	28
3.41533	28
3.41900	27
3.42267	27
3.42633	27
3.43000	27
3.43367	27
3.43733	27
3.44100	27
3.44467	27
3.44833	27
3.45200	27
3.45567	27
3.45933	27
3.46300	27
3.46667	27
3.47033	27
3.47400	27
3.47767	27
3.48133	27
3.48500	27
3.48867	26
3.49233	26
3.49600	26
3.49967	26
3.50333	26
3.50700	26
3.51067	26
3.51433	26
3.51800	26
3.52167	26
3.52533	26
3.52900	26
3.53267	26
3.53633	26
3.54000	26
3.54367	26
3.54733	25
3.55100	25
3.55467	26
3.55833	26
3.56200	26
3.56567	26
3.56933	26
3.57300	26
3.57667	26
3.58033	26
3.58400	26
3.58767	26
3.59133	26
3.59500	25
3.59867	25
3.60233	25
3.60600	25
3.60967	25
3.61333	25
3.61700	25
3.62067	26
3.62433	26
3.62800	26
3.63167	26
3.63533	26
3.63900	25
3.64267	25
3.64633	25
3.65000	25
3.65367	25
3.65733	24
3.66100	24
3.66467	24
3.66833	24
3.67200	24
3.67567	24
3.67933	24
3.68300	24
3.68667	24
3.69033	24
3.69400	25
3.69767	25
3.70133	26
3.70500	26
3.70867	26
3.71233	26
3.71600	26
3.71967	26
3.72333	26
3.72700	26
3.73067	26
3.73433	25
3.73800	25
3.74167	25
3.74533	25
3.74900	25
3.75267	25
3.75633	25
3.76000	25
3.76367	25
3.76733	25
3.77100	25
3.77467	25
3.77833	25
3.78200	25
3.78567	25
3.78933	26
3.79300	26
3.79667	26
3.80033	26
3.80400	25
3.80767	25
3.81133	25
3.81500	25
3.81867	25
3.82233	25
3.82600	24
3.82967	24
3.83333	23
3.83700	23
3.84067	23
3.84433	23
3.84800	23
3.85167	23
3.85533	23
3.85900	23
3.86267	23
3.86633	23
3.87000	23
3.87367	23
3.87733	23
3.88100	24
3.88467	24
3.88833	24
3.89200	24
3.89567	24
3.89933	24
3.90300	25
3.90667	25
3.91033	25
3.91400	25
3.91767	25
3.92133	25
3.92500	26
3.92867	26
3.93233	26
3.93600	26
3.93967	26
3.94333	26
3.94700	26
3.95067	26
3.95433	27
3.95800	27
3.96167	26
3.96533	26
3.96900	26
3.97267	26
3.97633	26
3.98000	26
3.98367	25
3.98733	25
3.99100	25
3.99467	25
3.99833	25

[Chromatogram (Ch3)]
Interval(msec)	220
# of Points	1091
Start Time(min)	0.002
End Time(min)	3.998
R.Time (min)	Intensity
0.00167	-0
0.00533	-1
0.00900	-1
0.01267	-2
0.01633	-0
0.02000	1
0.02367	0
0.02733	0
0.03100	0
0.03467	0
0.03833	-0
0.04200	-0
0.04567	0
0.04933	1
0.05300	3
0.05667	3
0.06033	1
0.06400	-0
0.06767	-2
0.07133	-2
0.07500	-2
0.07867	-1
0.08233	0
0.08600	-0
0.08967	-0
0.09333	1
0.09700	1
0.10067	-0
0.10433	-1
0.10800	-2
0.11167	-0
0.11533	1
0.11900	2
0.12267	4
0.12633	3
0.13000	-1
0.13367	-4
0.13733	-4
0.14100	-2
0.14467	1
0.14833	1
0.15200	0
0.15567	-1
0.15933	-1
0.16300	-1
0.16667	-2
0.17033	-0
0.17400	1
0.17767	2
0.18133	2
0.18500	1
0.18867	1
0.19233	-1
0.19600	-1
0.19967	-3
0.20333	-4
0.20700	-5
0.21067	-5
0.21433	-5
0.21800	-5
0.22167	-5
0.22533	-8
0.22900	-8
0.23267	-8
0.23633	-7
0.24000	-4
0.24367	-3
0.24733	-3
0.25100	-4
0.25467	-4
0.25833	-5
0.26200	-7
0.26567	-7
0.26933	-7
0.27300	-6
0.27667	-4
0.28033	-3
0.28400	-2
0.28767	-1
0.29133	-1
0.29500	-1
0.29867	0
0.30233	-2
0.30600	-4
0.30967	-2
0.31333	0
0.31700	3
0.32067	4
0.32433	3
0.32800	4
0.33167	4
0.33533	3
0.33900	1
0.34267	-0
0.34633	-1
0.35000	-3
0.35367	-3
0.35733	-2
0.36100	-1
0.36467	-1
0.36833	0
0.37200	2
0.37567	2
0.37933	2
0.38300	4
0.38667	3
0.39033	1
0.39400	-1
0.39767	-2
0.40133	-5
0.40500	-6
0.40867	-5
0.41233	-4
0.41600	-3
0.41967	-1
0.42333	1
0.42700	3
0.43067	4
0.43433	6
0.43800	5
0.44167	5
0.44533	5
0.44900	4
0.45267	5
0.45633	5
0.46000	5
0.46367	5
0.46733	5
0.47100	4
0.47467	1
0.47833	0
0.48200	-0
0.48567	-2
0.48933	-3
0.49300	-3
0.49667	-4
0.50033	-4
0.50400	-4
0.50767	-4
0.51133	-2
0.51500	-0
0.51867	1
0.52233	1
0.52600	1
0.52967	2
0.53333	4
0.53700	4
0.54067	4
0.54433	5
0.54800	7
0.55167	6
0.55533	5
0.55900	3
0.56267	1
0.56633	1
0.57000	2
0.57367	4
0.57733	3
0.58100	3
0.58467	3
0.58833	4
0.59200	4
0.59567	2
0.59933	2
0.60300	2
0.60667	2
0.61033	1
0.61400	2
0.61767	2
0.62133	1
0.62500	0
0.62867	0
0.63233	-0
0.63600	2
0.63967	2
0.64333	4
0.64700	5
0.65067	5
0.65433	6
0.65800	7
0.66167	7
0.66533	4
0.66900	3
0.67267	2
0.67633	1
0.68000	-1
0.68367	-0
0.68733	1
0.69100	3
0.69467	2
0.69833	-0
0.70200	-2
0.70567	-1
0.70933	1
0.71300	2
0.71667	3
0.72033	5
0.72400	6
0.72767	4
0.73133	4
0.73500	5
0.73867	5
0.74233	3
0.74600	3
0.74967	3
0.75333	3
0.75700	3
0.76067	4
0.76433	6
0.76800	7
0.77167	5
0.77533	5
0.77900	5
0.78267	6
0.78633	6
0.79000	5
0.79367	6
0.79733	7
0.80100	8
0.80467	9
0.80833	9
0.81200	9
0.81567	9
0.81933	8
0.82300	8
0.82667	7
0.83033	7
0.83400	7
0.83767	7
0.84133	6
0.84500	9
0.84867	13
0.85233	15
0.85600	12
0.85967	11
0.86333	10
0.86700	8
0.87067	7
0.87433	7
0.87800	8
0.88167	10
0.88533	11
0.88900	10
0.89267	7
0.89633	5
0.90000	4
0.90367	5
0.90733	8
0.91100	10
0.91467	11
0.91833	12
0.92200	11
0.92567	10
0.92933	10
0.93300	10
0.93667	11
0.94033	11
0.94400	9
0.94767	8
0.95133	8
0.95500	8
0.95867	9
0.96233	11
0.96600	11
0.96967	12
0.97333	13
0.97700	12
0.98067	13
0.98433	12
0.98800	11
0.99167	12
0.99533	13
0.99900	14
1.00267	14
1.00633	15
1.01000	14
1.01367	14
1.01733	13
1.02100	10
1.02467	10
1.02833	10
1.03200	10
1.03567	10
1.03933	9
1.04300	9
1.04667	11
1.05033	13
1.05400	15
1.05767	16
1.06133	14
1.06500	12
1.06867	11
1.07233	10
1.07600	12
1.07967	13
1.08333	16
1.08700	18
1.09067	18
1.09433	17
1.09800	16
1.10167	15
1.10533	14
1.10900	14
1.11267	14
1.11633	14
1.12000	13
1.12367	12
1.12733	12
1.13100	13
1.13467	14
1.13833	15
1.14200	17
1.14567	16
1.14933	15
1.15300	15
1.15667	15
1.16033	16
1.16400	17
1.16767	19
1.17133	19
1.17500	20
1.17867	20
1.18233	19
1.18600	18
1.18967	19
1.19333	20
1.19700	21
1.20067	21
1.20433	20
1.20800	19
1.21167	18
1.21533	17
1.21900	17
1.22267	20
1.22633	22
1.23000	22
1.23367	19
1.23733	17
1.24100	18
1.24467	17
1.24833	18
1.25200	19
1.25567	21
1.25933	21
1.26300	21
1.26667	21
1.27033	21
1.27400	21
1.27767	23
1.28133	25
1.28500	24
1.28867	23
1.29233	23
1.29600	21
1.29967	21
1.30333	21
1.30700	22
1.31067	23
1.31433	22
1.31800	24
1.32167	24
1.32533	23
1.32900	23
1.33267	22
1.33633	23
1.34000	25
1.34367	26
1.34733	26
1.35100	25
1.35467	25
1.35833	25
1.36200	21
1.36567	18
1.36933	18
1.37300	19
1.37667	20
1.38033	20
1.38400	19
1.38767	20
1.39133	20
1.39500	19
1.39867	20
1.40233	20
1.40600	19
1.40967	18
1.41333	18
1.41700	20
1.42067	22
1.42433	23
1.42800	24
1.43167	24
1.43533	25
1.43900	26
1.44267	26
1.44633	27
1.45000	29
1.45367	28
1.45733	28
1.46100	28
1.46467	27
1.46833	26
1.47200	27
1.47567	28
1.47933	28
1.48300	28
1.48667	25
1.49033	23
1.49400	22
1.49767	21
1.50133	21
1.50500	21
1.50867	21
1.51233	24
1.51600	26
1.51967	28
1.52333	31
1.52700	32
1.53067	33
1.53433	33
1.53800	31
1.54167	28
1.54533	28
1.54900	28
1.55267	27
1.55633	26
1.56000	25
1.56367	25
1.56733	26
1.57100	27
1.57467	29
1.57833	30
1.58200	29
1.58567	29
1.58933	28
1.59300	28
1.59667	27
1.60033	28
1.60400	28
1.60767	30
1.61133	31
1.61500	30
1.61867	30
1.62233	30
1.62600	30
1.62967	30
1.63333	28
1.63700	26
1.64067	26
1.64433	31
1.64800	36
1.65167	39
1.65533	40
1.65900	40
1.66267	38
1.66633	38
1.67000	39
1.67367	38
1.67733	40
1.68100	41
1.68467	43
1.68833	43
1.69200	45
1.69567	46
1.69933	47
1.70300	46
1.70667	45
1.71033	46
1.71400	47
1.71767	46
1.72133	47
1.72500	48
1.72867	48
1.73233	47
1.73600	47
1.73967	46
1.74333	47
1.74700	49
1.75067	51
1.75433	54
1.75800	54
1.76167	54
1.76533	56
1.76900	58
1.77267	59
1.77633	58
1.78000	59
1.78367	59
1.78733	59
1.79100	58
1.79467	58
1.79833	60
1.80200	61
1.80567	62
1.80933	62
1.81300	60
1.81667	58
1.82033	56
1.82400	55
1.82767	56
1.83133	60
1.83500	61
1.83867	62
1.84233	61
1.84600	63
1.84967	66
1.85333	67
1.85700	68
1.86067	68
1.86433	68
1.86800	67
1.87167	68
1.87533	68
1.87900	69
1.88267	71
1.88633	75
1.89000	76
1.89367	75
1.89733	77
1.90100	77
1.90467	78
1.90833	81
1.91200	82
1.91567	82
1.91933	82
1.92300	83
1.92667	83
1.93033	84
1.93400	85
1.93767	87
1.94133	91
1.94500	92
1.94867	91
1.95233	93
1.95600	93
1.95967	95
1.96333	96
1.96700	97
1.97067	99
1.97433	100
1.97800	100
1.98167	101
1.98533	100
1.98900	99
1.99267	98
1.99633	99
2.00000	102
2.00367	105
2.00733	108
2.01100	111
2.01467	113
2.01833	113
2.02200	115
2.02567	117
2.02933	117
2.03300	118
2.03667	118
2.04033	118
2.04400	120
2.04767	123
2.05133	125
2.05500	127
2.05867	131
2.06233	131
2.06600	129
2.06967	129
2.07333	130
2.07700	131
2.08067	132
2.08433	135
2.08800	136
2.09167	136
2.09533	137
2.09900	142
2.10267	144
2.10633	145
2.11000	147
2.11367	148
2.11733	150
2.12100	152
2.12467	153
2.12833	155
2.13200	155
2.13567	154
2.13933	155
2.14300	157
2.14667	158
2.15033	160
2.15400	162
2.15767	163
2.16133	165
2.16500	169
2.16867	171
2.17233	171
2.17600	169
2.17967	170
2.18333	172
2.18700	174
2.19067	176
2.19433	178
2.19800	182
2.20167	184
2.20533	186
2.20900	188
2.21267	190
2.21633	191
2.22000	191
2.22367	191
2.22733	193
2.23100	195
2.23467	196
2.23833	198
2.24200	198
2.24567	199
2.24933	199
2.25300	200
2.25667	201
2.26033	205
2.26400	208
2.26767	208
2.27133	210
2.27500	211
2.27867	213
2.28233	216
2.28600	215
2.28967	214
2.29333	215
2.29700	216
2.30067	217
2.30433	218
2.30800	220
2.31167	222
2.31533	224
2.31900	225
2.32267	228
2.32633	232
2.33000	233
2.33367	230
2.33733	230
2.34100	232
2.34467	235
2.34833	237
2.35200	237
2.35567	237
2.35933	236
2.36300	236
2.36667	239
2.37033	243
2.37400	245
2.37767	248
2.38133	248
2.38500	245
2.38867	242
2.39233	241
2.39600	243
2.39967	246
2.40333	248
2.40700	250
2.41067	253
2.41433	255
2.41800	258
2.42167	259
2.42533	260
2.42900	258
2.43267	257
2.43633	256
2.44000	258
2.44367	314
2.44733	465
2.45100	632
2.45467	770
2.45833	846
2.46200	848
2.46567	804
2.46933	750
2.47300	706
2.47667	680
2.48033	655
2.48400	620
2.48767	573
2.49133	522
2.49500	472
2.49867	432
2.50233	404
2.50600	386
2.50967	379
2.51333	385
2.51700	403
2.52067	423
2.52433	442
2.52800	454
2.53167	450
2.53533	431
2.53900	403
2.54267	370
2.54633	336
2.55000	306
2.55367	281
2.55733	259
2.56100	241
2.56467	229
2.56833	221
2.57200	219
2.57567	218
2.57933	218
2.58300	217
2.58667	217
2.59033	220
2.59400	223
2.59767	226
2.60133	226
2.60500	222
2.60867	216
2.61233	206
2.61600	195
2.61967	184
2.62333	176
2.62700	168
2.63067	158
2.63433	148
2.63800	141
2.64167	134
2.64533	125
2.64900	116
2.65267	108
2.65633	96
2.66000	83
2.66367	70
2.66733	58
2.67100	49
2.67467	45
2.67833	42
2.68200	40
2.68567	37
2.68933	33
2.69300	33
2.69667	34
2.70033	34
2.70400	36
2.70767	41
2.71133	46
2.71500	51
2.71867	57
2.72233	64
2.72600	69
2.72967	73
2.73333	76
2.73700	80
2.74067	84
2.74433	86
2.74800	90
2.75167	93
2.75533	97
2.75900	101
2.76267	105
2.76633	108
2.77000	109
2.77367	112
2.77733	116
2.78100	119
2.78467	125
2.78833	132
2.79200	137
2.79567	143
2.79933	147
2.80300	147
2.80667	150
2.81033	158
2.81400	165
2.81767	176
2.82133	189
2.82500	208
2.82867	245
2.83233	312
2.83600	429
2.83967	616
2.84333	897
2.84700	1281
2.85067	1759
2.85433	2311
2.85800	2898
2.86167	3476
2.86533	4001
2.86900	4425
2.87267	4721
2.87633	4874
2.88000	4887
2.88367	4779
2.88733	4573
2.89100	4298
2.89467	3981
2.89833	3642
2.90200	3300
2.90567	2967
2.90933	2653
2.91300	2360
2.91667	2092
2.92033	1853
2.92400	1639
2.92767	1449
2.93133	1281
2.93500	1133
2.93867	1002
2.94233	891
2.94600	794
2.94967	710
2.95333	633
2.95700	567
2.96067	512
2.96433	466
2.96800	423
2.97167	386
2.97533	355
2.97900	326
2.98267	300
2.98633	278
2.99000	258
2.99367	242
2.99733	230
3.00100	219
3.00467	207
3.00833	197
3.01200	191
3.01567	186
3.01933	180
3.02300	174
3.02667	173
3.03033	173
3.03400	171
3.03767	169
3.04133	168
3.04500	164
3.04867	160
3.05233	140
3.05600	100
3.05967	61
3.06333	43
3.06700	51
3.07067	76
3.07433	113
3.07800	157
3.08167	208
3.08533	261
3.08900	315
3.09267	367
3.09633	417
3.10000	462
3.10367	502
3.10733	535
3.11100	564
3.11467	591
3.11833	615
3.12200	634
3.12567	650
3.12933	663
3.13300	675
3.13667	687
3.14033	697
3.14400	705
3.14767	712
3.15133	716
3.15500	721
3.15867	724
3.16233	728
3.16600	732
3.16967	737
3.17333	743
3.17700	748
3.18067	752
3.18433	757
3.18800	763
3.19167	768
3.19533	772
3.19900	778
3.20267	785
3.20633	791
3.21000	794
3.21367	797
3.21733	800
3.22100	806
3.22467	812
3.22833	818
3.23200	824
3.23567	828
3.23933	831
3.24300	836
3.24667	842
3.25033	850
3.25400	857
3.25767	863
3.26133	868
3.26500	872
3.26867	878
3.27233	885
3.27600	889
3.27967	892
3.28333	897
3.28700	903
3.29067	908
3.29433	911
3.29800	913
3.30167	916
3.30533	920
3.30900	919
3.31267	918
3.31633	918
3.32000	919
3.32367	918
3.32733	916
3.33100	915
3.33467	913
3.33833	909
3.34200	905
3.34567	902
3.34933	901
3.35300	899
3.35667	896
3.36033	892
3.36400	888
3.36767	884
3.37133	881
3.37500	879
3.37867	878
3.38233	875
3.38600	868
3.38967	863
3.39333	859
3.39700	856
3.40067	855
3.40433	853
3.40800	851
3.41167	849
3.41533	845
3.41900	843
3.42267	841
3.42633	837
3.43000	833
3.43367	832
3.43733	830
3.44100	828
3.44467	827
3.44833	825
3.45200	824
3.45567	823
3.45933	824
3.46300	823
3.46667	820
3.47033	817
3.47400	816
3.47767	817
3.48133	817
3.48500	818
3.48867	817
3.49233	813
3.49600	812
3.49967	813
3.50333	813
3.50700	811
3.51067	808
3.51433	806
3.51800	804
3.52167	804
3.52533	804
3.52900	803
3.53267	803
3.53633	804
3.54000	802
3.54367	800
3.54733	798
3.55100	797
3.55467	794
3.55833	790
3.56200	789
3.56567	789
3.56933	790
3.57300	789
3.57667	789
3.58033	786
3.58400	785
3.58767	785
3.59133	786
3.59500	787
3.59867	786
3.60233	782
3.60600	781
3.60967	781
3.61333	781
3.61700	779
3.62067	778
3.62433	778
3.62800	778
3.63167	777
3.63533	774
3.63900	774
3.64267	772
3.64633	769
3.65000	767
3.65367	766
3.65733	764
3.66100	762
3.66467	761
3.66833	760
3.67200	758
3.67567	756
3.67933	752
3.68300	749
3.68667	746
3.69033	744
3.69400	742
3.69767	740
3.70133	737
3.70500	733
3.70867	728
3.71233	723
3.71600	720
3.71967	717
3.72333	717
3.72700	715
3.73067	713
3.73433	710
3.73800	705
3.74167	703
3.74533	702
3.74900	704
3.75267	705
3.75633	702
3.76000	699
3.76367	698
3.76733	696
3.77100	693
3.77467	691
3.77833	689
3.78200	689
3.78567	685
3.78933	683
3.79300	683
3.79667	682
3.80033	681
3.80400	681
3.80767	681
3.81133	680
3.81500	678
3.81867	675
3.82233	671
3.82600	668
3.82967	667
3.83333	664
3.83700	662
3.84067	660
3.84433	660
3.84800	660
3.85167	657
3.85533	656
3.85900	657
3.86267	657
3.86633	655
3.87000	650
3.87367	646
3.87733	644
3.88100	644
3.88467	643
3.88833	639
3.89200	635
3.89567	633
3.89933	631
3.90300	629
3.90667	628
3.91033	626
3.91400	625
3.91767	624
3.92133	623
3.92500	623
3.92867	622
3.93233	621
3.93600	619
3.93967	616
3.94333	613
3.94700	611
3.95067	610
3.95433	609
3.95800	607
3.96167	607
3.96533	605
3.96900	603
3.97267	601
3.97633	601
3.98000	600
3.98367	598
3.98733	596
3.99100	596
3.99467	596
3.99833	595

[Status Trace (Column Oven Temperature)]
Interval(msec)	1000
# of Points	240
Start Time(min)	0.009
End Time(min)	3.993
Intensity Units	
Intensity Multiplier	1
R.Time (min)	Intensity
0.00947	35.05
0.02613	35.04
0.04280	35.04
0.05947	35.04
0.07613	35.03
0.09280	35.03
0.10947	35.04
0.12613	35.04
0.14280	35.04
0.15947	35.05
0.17613	35.05
0.19280	35.05
0.20947	35.04
0.22613	35.03
0.24280	35.03
0.25947	35.03
0.27613	35.04
0.29280	35.04
0.30947	35.04
0.32613	35.04
0.34280	35.05
0.35947	35.03
0.37613	35.03
0.39280	35.02
0.40947	35.02
0.42613	35.02
0.44280	35.01
0.45947	35.00
0.47613	34.99
0.49280	35.00
0.50947	35.01
0.52613	35.02
0.54280	35.04
0.55947	35.03
0.57613	35.03
0.59280	35.02
0.60947	35.03
0.62613	35.03
0.64280	35.04
0.65947	35.04
0.67613	35.04
0.69280	35.04
0.70947	35.03
0.72613	35.02
0.74280	35.02
0.75947	35.01
0.77613	35.00
0.79280	35.00
0.80947	35.00
0.82613	34.98
0.84280	34.99
0.85947	34.98
0.87613	34.99
0.89280	34.99
0.90947	34.99
0.92613	34.99
0.94280	35.00
0.95947	34.99
0.97613	35.00
0.99280	35.00
1.00947	34.99
1.02613	34.99
1.04280	34.98
1.05947	34.98
1.07613	34.99
1.09280	35.00
1.10947	35.01
1.12613	35.01
1.14280	35.02
1.15947	35.02
1.17613	35.01
1.19280	35.01
1.20947	35.02
1.22613	35.01
1.24280	35.02
1.25947	35.01
1.27613	35.01
1.29280	35.00
1.30947	35.00
1.32613	35.00
1.34280	34.98
1.35947	34.98
1.37613	34.97
1.39280	34.98
1.40947	34.98
1.42613	34.98
1.44280	34.97
1.45947	34.97
1.47613	34.98
1.49280	34.99
1.50947	35.00
1.52613	35.02
1.54280	35.02
1.55947	35.02
1.57613	35.01
1.59280	35.02
1.60947	35.07
1.62613	35.19
1.64280	35.39
1.65947	35.65
1.67613	36.00
1.69280	36.37
1.70947	36.72
1.72613	37.05
1.74280	37.36
1.75947	37.69
1.77613	38.04
1.79280	38.37
1.80947	38.70
1.82613	39.04
1.84280	39.38
1.85947	39.69
1.87613	40.00
1.89280	40.35
1.90947	40.67
1.92613	40.99
1.94280	41.32
1.95947	41.66
1.97613	41.99
1.99280	42.30
2.00947	42.64
2.02613	42.96
2.04280	43.29
2.05947	43.63
2.07613	43.95
2.09280	44.27
2.10947	44.60
2.12613	44.91
2.14280	45.24
2.15947	45.58
2.17613	45.92
2.19280	46.25
2.20947	46.58
2.22613	46.91
2.24280	47.25
2.25947	47.56
2.27613	47.89
2.29280	48.23
2.30947	48.54
2.32613	48.87
2.34280	49.21
2.35947	49.45
2.37613	49.60
2.39280	49.65
2.40947	49.63
2.42613	49.65
2.44280	49.65
2.45947	49.67
2.47613	49.70
2.49280	49.70
2.50947	49.71
2.52613	49.72
2.54280	49.72
2.55947	49.73
2.57613	49.75
2.59280	49.76
2.60947	49.78
2.62613	49.79
2.64280	49.79
2.65947	49.81
2.67613	49.82
2.69280	49.83
2.70947	49.84
2.72613	49.85
2.74280	49.84
2.75947	49.87
2.77613	49.88
2.79280	49.87
2.80947	49.88
2.82613	49.87
2.84280	49.87
2.85947	49.88
2.87613	49.88
2.89280	49.90
2.90947	49.91
2.92613	49.90
2.94280	49.91
2.95947	49.93
2.97613	49.96
2.99280	49.98
3.00947	49.99
3.02613	50.00
3.04280	50.01
3.05947	50.01
3.07613	50.03
3.09280	50.04
3.10947	50.05
3.12613	50.06
3.14280	50.07
3.15947	50.07
3.17613	50.08
3.19280	50.08
3.20947	50.08
3.22613	50.07
3.24280	50.07
3.25947	50.08
3.27613	50.10
3.29280	50.11
3.30947	50.11
3.32613	50.09
3.34280	50.08
3.35947	50.07
3.37613	50.05
3.39280	50.04
3.40947	50.03
3.42613	50.03
3.44280	50.02
3.45947	50.02
3.47613	50.01
3.49280	50.00
3.50947	50.00
3.52613	50.01
3.54280	50.01
3.55947	50.01
3.57613	50.01
3.59280	50.02
3.60947	50.04
3.62613	50.04
3.64280	50.06
3.65947	50.06
3.67613	50.07
3.69280	50.06
3.70947	50.06
3.72613	50.06
3.74280	50.06
3.75947	50.06
3.77613	50.06
3.79280	50.06
3.80947	50.06
3.82613	50.07
3.84280	50.07
3.85947	50.07
3.87613	50.08
3.89280	50.08
3.90947	50.08
3.92613	50.07
3.94280	50.06
3.95947	50.05
3.97613	50.06
3.99280	50.07

[Status Trace (Injection Unit Temperature)]
Interval(msec)	1000
# of Points	240
Start Time(min)	0.009
End Time(min)	3.993
Intensity Units	
Intensity Multiplier	1
R.Time (min)	Intensity
0.00947	99.98
0.02613	99.98
0.04280	99.98
0.05947	99.98
0.07613	99.98
0.09280	99.98
0.10947	99.98
0.12613	99.98
0.14280	99.98
0.15947	99.98
0.17613	99.98
0.19280	99.98
0.20947	99.98
0.22613	99.98
0.24280	99.98
0.25947	99.98
0.27613	99.98
0.29280	99.98
0.30947	99.98
0.32613	99.98
0.34280	99.98
0.35947	99.98
0.37613	99.98
0.39280	99.98
0.40947	99.98
0.42613	99.98
0.44280	99.99
0.45947	99.98
0.47613	99.99
0.49280	99.98
0.50947	99.98
0.52613	99.98
0.54280	99.98
0.55947	99.99
0.57613	99.98
0.59280	99.98
0.60947	99.99
0.62613	99.99
0.64280	99.98
0.65947	99.99
0.67613	99.98
0.69280	99.98
0.70947	99.99
0.72613	99.98
0.74280	99.99
0.75947	99.99
0.77613	99.99
0.79280	99.99
0.80947	99.99
0.82613	99.99
0.84280	99.99
0.85947	99.98
0.87613	99.98
0.89280	99.99
0.90947	99.98
0.92613	99.98
0.94280	99.98
0.95947	99.98
0.97613	99.99
0.99280	99.98
1.00947	99.98
1.02613	99.98
1.04280	99.98
1.05947	99.98
1.07613	99.98
1.09280	99.98
1.10947	99.98
1.12613	99.98
1.14280	99.98
1.15947	99.99
1.17613	99.99
1.19280	99.98
1.20947	99.99
1.22613	99.98
1.24280	99.99
1.25947	99.99
1.27613	99.98
1.29280	99.99
1.30947	99.99
1.32613	99.98
1.34280	99.98
1.35947	99.98
1.37613	99.99
1.39280	99.99
1.40947	99.99
1.42613	99.99
1.44280	99.99
1.45947	99.99
1.47613	99.99
1.49280	99.99
1.50947	99.99
1.52613	99.99
1.54280	99.99
1.55947	99.99
1.57613	99.99
1.59280	99.99
1.60947	99.99
1.62613	99.99
1.64280	99.99
1.65947	99.99
1.67613	99.99
1.69280	99.99
1.70947	99.99
1.72613	99.99
1.74280	99.99
1.75947	99.99
1.77613	99.99
1.79280	99.98
1.80947	99.99
1.82613	99.99
1.84280	99.99
1.85947	99.99
1.87613	99.98
1.89280	99.98
1.90947	99.99
1.92613	99.98
1.94280	99.98
1.95947	99.98
1.97613	99.98
1.99280	99.98
2.00947	99.98
2.02613	99.98
2.04280	99.98
2.05947	99.97
2.07613	99.97
2.09280	99.97
2.10947	99.97
2.12613	99.97
2.14280	99.97
2.15947	99.97
2.17613	99.97
2.19280	99.97
2.20947	99.97
2.22613	99.97
2.24280	99.97
2.25947	99.97
2.27613	99.97
2.29280	99.96
2.30947	99.97
2.32613	99.97
2.34280	99.97
2.35947	99.97
2.37613	99.97
2.39280	99.97
2.40947	99.96
2.42613	99.97
2.44280	99.98
2.45947	99.97
2.47613	99.97
2.49280	99.97
2.50947	99.97
2.52613	99.97
2.54280	99.98
2.55947	99.98
2.57613	99.98
2.59280	99.97
2.60947	99.98
2.62613	99.98
2.64280	99.98
2.65947	99.98
2.67613	99.99
2.69280	99.99
2.70947	99.99
2.72613	99.99
2.74280	99.99
2.75947	99.99
2.77613	99.99
2.79280	99.99
2.80947	100.00
2.82613	100.00
2.84280	100.00
2.85947	100.00
2.87613	100.00
2.89280	100.00
2.90947	100.00
2.92613	100.01
2.94280	100.01
2.95947	100.01
2.97613	100.01
2.99280	100.01
3.00947	100.02
3.02613	100.01
3.04280	100.01
3.05947	100.02
3.07613	100.02
3.09280	100.02
3.10947	100.02
3.12613	100.02
3.14280	100.02
3.15947	100.01
3.17613	100.02
3.19280	100.03
3.20947	100.03
3.22613	100.02
3.24280	100.02
3.25947	100.03
3.27613	100.03
3.29280	100.03
3.30947	100.03
3.32613	100.03
3.34280	100.03
3.35947	100.03
3.37613	100.02
3.39280	100.03
3.40947	100.03
3.42613	100.03
3.44280	100.03
3.45947	100.03
3.47613	100.03
3.49280	100.03
3.50947	100.03
3.52613	100.03
3.54280	100.03
3.55947	100.04
3.57613	100.04
3.59280	100.04
3.60947	100.04
3.62613	100.04
3.64280	100.04
3.65947	100.04
3.67613	100.04
3.69280	100.04
3.70947	100.04
3.72613	100.04
3.74280	100.04
3.75947	100.04
3.77613	100.05
3.79280	100.04
3.80947	100.05
3.82613	100.05
3.84280	100.05
3.85947	100.04
3.87613	100.05
3.89280	100.05
3.90947	100.04
3.92613	100.05
3.94280	100.04
3.95947	100.04
3.97613	100.05
3.99280	100.05

[Status Trace (Carrier Gas Pressure)]
Interval(msec)	1000
# of Points	240
Start Time(min)	0.009
End Time(min)	3.993
Intensity Units	
Intensity Multiplier	1
R.Time (min)	Intensity
0.00947	58.00
0.02613	55.16
0.04280	57.30
0.05947	59.46
0.07613	59.16
0.09280	58.03
0.10947	57.99
0.12613	58.01
0.14280	58.01
0.15947	58.01
0.17613	58.00
0.19280	58.00
0.20947	58.00
0.22613	58.00
0.24280	58.00
0.25947	58.00
0.27613	58.00
0.29280	58.00
0.30947	58.00
0.32613	58.00
0.34280	58.00
0.35947	58.00
0.37613	58.00
0.39280	58.00
0.40947	58.00
0.42613	58.00
0.44280	58.00
0.45947	58.00
0.47613	58.00
0.49280	58.00
0.50947	58.00
0.52613	58.00
0.54280	58.00
0.55947	58.00
0.57613	58.00
0.59280	58.00
0.60947	58.00
0.62613	58.00
0.64280	58.00
0.65947	58.00
0.67613	58.00
0.69280	58.00
0.70947	58.00
0.72613	58.00
0.74280	58.00
0.75947	58.00
0.77613	58.00
0.79280	58.00
0.80947	58.00
0.82613	58.00
0.84280	58.00
0.85947	58.00
0.87613	58.00
0.89280	58.00
0.90947	58.00
0.92613	58.00
0.94280	58.00
0.95947	58.00
0.97613	58.00
0.99280	58.00
1.00947	58.00
1.02613	58.00
1.04280	58.00
1.05947	58.00
1.07613	58.00
1.09280	58.00
1.10947	58.00
1.12613	58.00
1.14280	58.00
1.15947	58.00
1.17613	58.00
1.19280	58.00
1.20947	58.00
1.22613	58.00
1.24280	58.00
1.25947	58.00
1.27613	58.00
1.29280	58.00
1.30947	58.00
1.32613	58.00
1.34280	58.00
1.35947	58.00
1.37613	58.00
1.39280	58.00
1.40947	58.00
1.42613	58.00
1.44280	58.00
1.45947	58.00
1.47613	58.00
1.49280	58.00
1.50947	58.00
1.52613	58.00
1.54280	58.00
1.55947	58.00
1.57613	58.00
1.59280	58.00
1.60947	58.00
1.62613	58.01
1.64280	58.00
1.65947	58.00
1.67613	58.01
1.69280	58.00
1.70947	58.00
1.72613	58.00
1.74280	58.00
1.75947	58.00
1.77613	58.00
1.79280	58.00
1.80947	58.00
1.82613	58.00
1.84280	58.00
1.85947	58.00
1.87613	58.00
1.89280	58.00
1.90947	58.00
1.92613	58.00
1.94280	58.00
1.95947	58.00
1.97613	58.00
1.99280	58.00
2.00947	58.00
2.02613	58.00
2.04280	58.00
2.05947	58.00
2.07613	58.00
2.09280	58.00
2.10947	58.00
2.12613	58.00
2.14280	58.00
2.15947	58.00
2.17613	58.00
2.19280	58.00
2.20947	58.00
2.22613	58.00
2.24280	58.00
2.25947	58.00
2.27613	58.00
2.29280	58.00
2.30947	58.00
2.32613	58.00
2.34280	58.00
2.35947	58.00
2.37613	57.99
2.39280	57.99
2.40947	57.99
2.42613	58.00
2.44280	58.00
2.45947	58.00
2.47613	58.00
2.49280	58.00
2.50947	57.99
2.52613	57.98
2.54280	58.00
2.55947	58.00
2.57613	58.00
2.59280	58.00
2.60947	58.00
2.62613	58.00
2.64280	58.00
2.65947	58.00
2.67613	58.00
2.69280	58.00
2.70947	58.00
2.72613	58.00
2.74280	58.00
2.75947	58.00
2.77613	58.00
2.79280	58.00
2.80947	58.00
2.82613	58.00
2.84280	58.00
2.85947	58.00
2.87613	58.00
2.89280	58.00
2.90947	58.00
2.92613	58.00
2.94280	58.00
2.95947	58.00
2.97613	58.00
2.99280	58.00
3.00947	58.00
3.02613	58.00
3.04280	58.00
3.05947	58.00
3.07613	58.00
3.09280	58.00
3.10947	58.00
3.12613	58.00
3.14280	58.00
3.15947	58.00
3.17613	58.00
3.19280	58.00
3.20947	58.00
3.22613	58.00
3.24280	58.00
3.25947	58.00
3.27613	58.00
3.29280	58.00
3.30947	58.00
3.32613	58.00
3.34280	58.00
3.35947	58.00
3.37613	58.00
3.39280	58.00
3.40947	58.00
3.42613	58.00
3.44280	58.00
3.45947	58.00
3.47613	58.00
3.49280	58.00
3.50947	58.00
3.52613	58.00
3.54280	58.00
3.55947	58.00
3.57613	58.00
3.59280	58.00
3.60947	58.00
3.62613	58.00
3.64280	58.00
3.65947	58.00
3.67613	58.00
3.69280	58.00
3.70947	58.00
3.72613	58.00
3.74280	58.00
3.75947	58.00
3.77613	58.00
3.79280	58.00
3.80947	58.00
3.82613	58.00
3.84280	58.00
3.85947	58.00
3.87613	58.00
3.89280	58.00
3.90947	58.00
3.92613	58.00
3.94280	58.00
3.95947	58.00
3.97613	58.00
3.99280	58.00

[Status Trace (Carrier Gas Flow)]
Interval(msec)	1000
# of Points	240
Start Time(min)	0.009
End Time(min)	3.993
Intensity Units	
Intensity Multiplier	1
R.Time (min)	Intensity
0.00947	34.52
0.02613	34.53
0.04280	34.55
0.05947	34.55
0.07613	34.50
0.09280	34.52
0.10947	34.52
0.12613	34.52
0.14280	34.52
0.15947	34.52
0.17613	34.52
0.19280	34.52
0.20947	34.52
0.22613	34.52
0.24280	34.52
0.25947	34.52
0.27613	34.52
0.29280	34.52
0.30947	34.52
0.32613	34.52
0.34280	34.52
0.35947	34.52
0.37613	34.52
0.39280	34.52
0.40947	34.52
0.42613	34.52
0.44280	34.52
0.45947	34.52
0.47613	34.53
0.49280	34.52
0.50947	34.53
0.52613	34.52
0.54280	34.53
0.55947	34.53
0.57613	34.52
0.59280	34.52
0.60947	34.52
0.62613	34.52
0.64280	34.52
0.65947	34.52
0.67613	34.52
0.69280	34.52
0.70947	34.52
0.72613	34.52
0.74280	34.52
0.75947	34.52
0.77613	34.52
0.79280	34.52
0.80947	34.52
0.82613	34.52
0.84280	34.51
0.85947	34.52
0.87613	34.52
0.89280	34.52
0.90947	34.52
0.92613	34.52
0.94280	34.52
0.95947	34.52
0.97613	34.52
0.99280	34.52
1.00947	34.52
1.02613	34.52
1.04280	34.52
1.05947	34.52
1.07613	34.52
1.09280	34.52
1.10947	34.52
1.12613	34.52
1.14280	34.52
1.15947	34.52
1.17613	34.52
1.19280	34.52
1.20947	34.52
1.22613	34.52
1.24280	34.52
1.25947	34.52
1.27613	34.52
1.29280	34.52
1.30947	34.52
1.32613	34.52
1.34280	34.51
1.35947	34.52
1.37613	34.51
1.39280	34.53
1.40947	34.51
1.42613	34.52
1.44280	34.52
1.45947	34.52
1.47613	34.52
1.49280	34.52
1.50947	34.52
1.52613	34.52
1.54280	34.52
1.55947	34.52
1.57613	34.52
1.59280	34.52
1.60947	34.52
1.62613	34.52
1.64280	34.52
1.65947	34.52
1.67613	34.52
1.69280	34.52
1.70947	34.52
1.72613	34.52
1.74280	34.52
1.75947	34.52
1.77613	34.52
1.79280	34.52
1.80947	34.52
1.82613	34.51
1.84280	34.52
1.85947	34.52
1.87613	34.52
1.89280	34.52
1.90947	34.51
1.92613	34.52
1.94280	34.51
1.95947	34.52
1.97613	34.52
1.99280	34.52
2.00947	34.52
2.02613	34.52
2.04280	34.52
2.05947	34.52
2.07613	34.52
2.09280	34.52
2.10947	34.51
2.12613	34.52
2.14280	34.52
2.15947	34.52
2.17613	34.52
2.19280	34.52
2.20947	34.52
2.22613	34.52
2.24280	34.52
2.25947	34.52
2.27613	34.52
2.29280	34.51
2.30947	34.52
2.32613	34.52
2.34280	34.52
2.35947	34.52
2.37613	34.52
2.39280	34.52
2.40947	34.52
2.42613	34.52
2.44280	34.52
2.45947	34.52
2.47613	34.52
2.49280	34.52
2.50947	34.51
2.52613	34.53
2.54280	34.52
2.55947	34.52
2.57613	34.52
2.59280	34.52
2.60947	34.52
2.62613	34.52
2.64280	34.52
2.65947	34.52
2.67613	34.52
2.69280	34.52
2.70947	34.52
2.72613	34.52
2.74280	34.52
2.75947	34.52
2.77613	34.52
2.79280	34.52
2.80947	34.52
2.82613	34.52
2.84280	34.52
2.85947	34.52
2.87613	34.52
2.89280	34.51
2.90947	34.52
2.92613	34.52
2.94280	34.52
2.95947	34.52
2.97613	34.52
2.99280	34.52
3.00947	34.52
3.02613	34.52
3.04280	34.52
3.05947	34.52
3.07613	34.52
3.09280	34.52
3.10947	34.52
3.12613	34.52
3.14280	34.52
3.15947	34.52
3.17613	34.52
3.19280	34.52
3.20947	34.51
3.22613	34.52
3.24280	34.52
3.25947	34.52
3.27613	34.51
3.29280	34.52
3.30947	34.52
3.32613	34.52
3.34280	34.52
3.35947	34.52
3.37613	34.52
3.39280	34.52
3.40947	34.52
3.42613	34.52
3.44280	34.52
3.45947	34.52
3.47613	34.52
3.49280	34.52
3.50947	34.52
3.52613	34.52
3.54280	34.52
3.55947	34.52
3.57613	34.52
3.59280	34.52
3.60947	34.52
3.62613	34.52
3.64280	34.52
3.65947	34.52
3.67613	34.51
3.69280	34.52
3.70947	34.52
3.72613	34.52
3.74280	34.52
3.75947	34.52
3.77613	34.52
3.79280	34.52
3.80947	34.52
3.82613	34.52
3.84280	34.52
3.85947	34.52
3.87613	34.52
3.89280	34.52
3.90947	34.52
3.92613	34.52
3.94280	34.52
3.95947	34.52
3.97613	34.52
3.99280	34.52

[Status Trace (Column Flow)]
Interval(msec)	1000
# of Points	240
Start Time(min)	0.009
End Time(min)	3.993
Intensity Units	
Intensity Multiplier	1
R.Time (min)	Intensity
0.00947	5.54
0.02613	5.21
0.04280	5.45
0.05947	5.71
0.07613	5.67
0.09280	5.54
0.10947	5.53
0.12613	5.54
0.14280	5.54
0.15947	5.54
0.17613	5.54
0.19280	5.54
0.20947	5.54
0.22613	5.54
0.24280	5.54
0.25947	5.54
0.27613	5.54
0.29280	5.54
0.30947	5.54
0.32613	5.54
0.34280	5.54
0.35947	5.54
0.37613	5.54
0.39280	5.54
0.40947	5.54
0.42613	5.54
0.44280	5.54
0.45947	5.54
0.47613	5.54
0.49280	5.54
0.50947	5.54
0.52613	5.54
0.54280	5.54
0.55947	5.54
0.57613	5.54
0.59280	5.54
0.60947	5.54
0.62613	5.54
0.64280	5.54
0.65947	5.54
0.67613	5.54
0.69280	5.54
0.70947	5.54
0.72613	5.54
0.74280	5.54
0.75947	5.54
0.77613	5.54
0.79280	5.54
0.80947	5.54
0.82613	5.54
0.84280	5.54
0.85947	5.54
0.87613	5.54
0.89280	5.54
0.90947	5.54
0.92613	5.54
0.94280	5.54
0.95947	5.54
0.97613	5.54
0.99280	5.54
1.00947	5.54
1.02613	5.54
1.04280	5.54
1.05947	5.54
1.07613	5.54
1.09280	5.54
1.10947	5.54
1.12613	5.54
1.14280	5.54
1.15947	5.54
1.17613	5.54
1.19280	5.54
1.20947	5.54
1.22613	5.54
1.24280	5.54
1.25947	5.54
1.27613	5.54
1.29280	5.54
1.30947	5.54
1.32613	5.54
1.34280	5.54
1.35947	5.54
1.37613	5.54
1.39280	5.54
1.40947	5.54
1.42613	5.54
1.44280	5.54
1.45947	5.54
1.47613	5.54
1.49280	5.54
1.50947	5.54
1.52613	5.54
1.54280	5.54
1.55947	5.54
1.57613	5.54
1.59280	5.54
1.60947	5.54
1.62613	5.53
1.64280	5.53
1.65947	5.52
1.67613	5.51
1.69280	5.49
1.70947	5.48
1.72613	5.47
1.74280	5.46
1.75947	5.45
1.77613	5.44
1.79280	5.43
1.80947	5.42
1.82613	5.41
1.84280	5.40
1.85947	5.39
1.87613	5.38
1.89280	5.37
1.90947	5.36
1.92613	5.35
1.94280	5.34
1.95947	5.33
1.97613	5.32
1.99280	5.31
2.00947	5.30
2.02613	5.29
2.04280	5.28
2.05947	5.27
2.07613	5.27
2.09280	5.26
2.10947	5.25
2.12613	5.24
2.14280	5.23
2.15947	5.22
2.17613	5.21
2.19280	5.20
2.20947	5.19
2.22613	5.18
2.24280	5.17
2.25947	5.16
2.27613	5.15
2.29280	5.14
2.30947	5.13
2.32613	5.12
2.34280	5.11
2.35947	5.11
2.37613	5.10
2.39280	5.10
2.40947	5.10
2.42613	5.10
2.44280	5.10
2.45947	5.10
2.47613	5.10
2.49280	5.10
2.50947	5.10
2.52613	5.10
2.54280	5.10
2.55947	5.10
2.57613	5.10
2.59280	5.10
2.60947	5.10
2.62613	5.10
2.64280	5.10
2.65947	5.10
2.67613	5.10
2.69280	5.10
2.70947	5.10
2.72613	5.10
2.74280	5.10
2.75947	5.10
2.77613	5.10
2.79280	5.10
2.80947	5.10
2.82613	5.10
2.84280	5.10
2.85947	5.10
2.87613	5.10
2.89280	5.10
2.90947	5.10
2.92613	5.10
2.94280	5.10
2.95947	5.09
2.97613	5.09
2.99280	5.09
3.00947	5.09
3.02613	5.09
3.04280	5.09
3.05947	5.09
3.07613	5.09
3.09280	5.09
3.10947	5.09
3.12613	5.09
3.14280	5.09
3.15947	5.09
3.17613	5.09
3.19280	5.09
3.20947	5.09
3.22613	5.09
3.24280	5.09
3.25947	5.09
3.27613	5.09
3.29280	5.09
3.30947	5.09
3.32613	5.09
3.34280	5.09
3.35947	5.09
3.37613	5.09
3.39280	5.09
3.40947	5.09
3.42613	5.09
3.44280	5.09
3.45947	5.09
3.47613	5.09
3.49280	5.09
3.50947	5.09
3.52613	5.09
3.54280	5.09
3.55947	5.09
3.57613	5.09
3.59280	5.09
3.60947	5.09
3.62613	5.09
3.64280	5.09
3.65947	5.09
3.67613	5.09
3.69280	5.09
3.70947	5.09
3.72613	5.09
3.74280	5.09
3.75947	5.09
3.77613	5.09
3.79280	5.09
3.80947	5.09
3.82613	5.09
3.84280	5.09
3.85947	5.09
3.87613	5.09
3.89280	5.09
3.90947	5.09
3.92613	5.09
3.94280	5.09
3.95947	5.09
3.97613	5.09
3.99280	5.09

[Status Trace (Linear Velocity)]
Interval(msec)	1000
# of Points	240
Start Time(min)	0.009
End Time(min)	3.993
Intensity Units	
Intensity Multiplier	1
R.Time (min)	Intensity
0.00947	39.02
0.02613	37.15
0.04280	38.56
0.05947	39.97
0.07613	39.78
0.09280	39.04
0.10947	39.01
0.12613	39.02
0.14280	39.02
0.15947	39.02
0.17613	39.02
0.19280	39.02
0.20947	39.02
0.22613	39.02
0.24280	39.02
0.25947	39.02
0.27613	39.02
0.29280	39.02
0.30947	39.02
0.32613	39.02
0.34280	39.02
0.35947	39.02
0.37613	39.02
0.39280	39.02
0.40947	39.02
0.42613	39.02
0.44280	39.02
0.45947	39.02
0.47613	39.02
0.49280	39.02
0.50947	39.02
0.52613	39.02
0.54280	39.02
0.55947	39.02
0.57613	39.02
0.59280	39.02
0.60947	39.02
0.62613	39.02
0.64280	39.02
0.65947	39.02
0.67613	39.02
0.69280	39.02
0.70947	39.02
0.72613	39.02
0.74280	39.02
0.75947	39.02
0.77613	39.02
0.79280	39.02
0.80947	39.02
0.82613	39.02
0.84280	39.02
0.85947	39.02
0.87613	39.02
0.89280	39.02
0.90947	39.02
0.92613	39.02
0.94280	39.02
0.95947	39.02
0.97613	39.02
0.99280	39.02
1.00947	39.02
1.02613	39.02
1.04280	39.02
1.05947	39.02
1.07613	39.02
1.09280	39.02
1.10947	39.02
1.12613	39.02
1.14280	39.02
1.15947	39.02
1.17613	39.02
1.19280	39.02
1.20947	39.02
1.22613	39.02
1.24280	39.02
1.25947	39.02
1.27613	39.02
1.29280	39.02
1.30947	39.02
1.32613	39.02
1.34280	39.02
1.35947	39.02
1.37613	39.02
1.39280	39.02
1.40947	39.02
1.42613	39.02
1.44280	39.02
1.45947	39.02
1.47613	39.02
1.49280	39.02
1.50947	39.02
1.52613	39.02
1.54280	39.02
1.55947	39.02
1.57613	39.02
1.59280	39.02
1.60947	39.01
1.62613	39.00
1.64280	38.99
1.65947	38.96
1.67613	38.93
1.69280	38.89
1.70947	38.86
1.72613	38.82
1.74280	38.79
1.75947	38.76
1.77613	38.73
1.79280	38.70
1.80947	38.67
1.82613	38.64
1.84280	38.60
1.85947	38.57
1.87613	38.55
1.89280	38.51
1.90947	38.48
1.92613	38.45
1.94280	38.42
1.95947	38.39
1.97613	38.36
1.99280	38.33
2.00947	38.30
2.02613	38.27
2.04280	38.24
2.05947	38.21
2.07613	38.18
2.09280	38.15
2.10947	38.12
2.12613	38.09
2.14280	38.06
2.15947	38.03
2.17613	38.00
2.19280	37.97
2.20947	37.94
2.22613	37.91
2.24280	37.88
2.25947	37.85
2.27613	37.82
2.29280	37.79
2.30947	37.77
2.32613	37.74
2.34280	37.71
2.35947	37.68
2.37613	37.67
2.39280	37.66
2.40947	37.66
2.42613	37.67
2.44280	37.67
2.45947	37.67
2.47613	37.66
2.49280	37.66
2.50947	37.66
2.52613	37.65
2.54280	37.66
2.55947	37.66
2.57613	37.66
2.59280	37.66
2.60947	37.66
2.62613	37.65
2.64280	37.65
2.65947	37.65
2.67613	37.65
2.69280	37.65
2.70947	37.65
2.72613	37.65
2.74280	37.65
2.75947	37.65
2.77613	37.65
2.79280	37.65
2.80947	37.65
2.82613	37.65
2.84280	37.65
2.85947	37.65
2.87613	37.65
2.89280	37.65
2.90947	37.64
2.92613	37.64
2.94280	37.64
2.95947	37.64
2.97613	37.64
2.99280	37.64
3.00947	37.64
3.02613	37.64
3.04280	37.64
3.05947	37.64
3.07613	37.63
3.09280	37.63
3.10947	37.63
3.12613	37.63
3.14280	37.63
3.15947	37.63
3.17613	37.63
3.19280	37.63
3.20947	37.63
3.22613	37.63
3.24280	37.63
3.25947	37.63
3.27613	37.63
3.29280	37.63
3.30947	37.63
3.32613	37.63
3.34280	37.63
3.35947	37.63
3.37613	37.63
3.39280	37.63
3.40947	37.63
3.42613	37.63
3.44280	37.63
3.45947	37.63
3.47613	37.64
3.49280	37.64
3.50947	37.64
3.52613	37.64
3.54280	37.64
3.55947	37.64
3.57613	37.64
3.59280	37.63
3.60947	37.63
3.62613	37.63
3.64280	37.63
3.65947	37.63
3.67613	37.63
3.69280	37.63
3.70947	37.63
3.72613	37.63
3.74280	37.63
3.75947	37.63
3.77613	37.63
3.79280	37.63
3.80947	37.63
3.82613	37.63
3.84280	37.63
3.85947	37.63
3.87613	37.63
3.89280	37.63
3.90947	37.63
3.92613	37.63
3.94280	37.63
3.95947	37.63
3.97613	37.63
3.99280	37.63

