[Header]
Application Name	LabSolutions
Version	5.110
Data File Name	C:\Users\User\Desktop\GC Analyses\Jack\Nachusa Grasslands Sampling\T3 Timepoint July 12th\T3_07122022_060.gcd
Output Date	3/14/2023
Output Time	3:43:34 PM

[File Information]
Type	Data File
Generated	3/13/2023 9:10:05 PM
Generated by	System Administrator
Modified	3/13/2023 9:16:46 PM
Modified by	System Administrator

[Sample Information]
Operator Name	System Administrator
Acquired	3/13/2023 9:12:46 PM
Sample Type	0:Unknown
Level	0
Sample Name	060
Sample ID	060
ISTD Amount1	1
ISTD Amount2	1
ISTD Amount3	1
ISTD Amount4	1
ISTD Amount5	1
ISTD Amount6	1
ISTD Amount7	1
ISTD Amount8	1
ISTD Amount9	1
ISTD Amount10	1
ISTD Amount11	1
ISTD Amount12	1
ISTD Amount13	1
ISTD Amount14	1
ISTD Amount15	1
ISTD Amount16	1
ISTD Amount17	1
ISTD Amount18	1
ISTD Amount19	1
ISTD Amount20	1
ISTD Amount21	1
ISTD Amount22	1
ISTD Amount23	1
ISTD Amount24	1
ISTD Amount25	1
ISTD Amount26	1
ISTD Amount27	1
ISTD Amount28	1
ISTD Amount29	1
ISTD Amount30	1
ISTD Amount31	1
ISTD Amount32	1
Sample Amount	1
Dilution Factor	1
Vial#	59
Injection Volume	1
Injection Count	1
Bar Code	

[Original Files]
Data File	C:\Users\User\Desktop\GC Analyses\Jack\Nachusa Grasslands Sampling\T3 Timepoint July 12th\T3_07122022_060.gcd
Method File	C:\LabSolutions\Data\GHG_4min_2022\ghg3_togas_w_acet_4 min_new_int.gcm
Batch File	C:\LabSolutions\Data\AutoSamplerTesting\T3_07122022.gcb
Report Format File	c:\LabSolutions\System\DEFAULT.lsr

[File Description]


[Configuration]
Instrument Name	C0B7VH3-Instrument1
Instrument #	1
Line #	1
# of Detectors	3
Detector ID	DET#1	DET#2	DET#3
Detector Name	FID	PTCD	ECD
# of Channels	1	1	1

[Peak Table(Ch1)]
# of Peaks	3
Peak#	R.Time	I.Time	F.Time	Area	Height	A/H	Conc.	Mark	ID#	Name	k'	Plate #	Plate Ht.	Tailing	Resolution	Sep.Factor	Area Ratio	Height Ratio	Conc. %	Norm Conc.
1	1.476	1.443	1.531	21910	10856	2.018	154.686	   	1	CO	0.000	9678	15.499	1.249	0.000	0.000	0	0	13.973	13.973
2	1.571	1.542	1.608	3882	2081	1.865	75.054	   	2	CH4	0.065	12905	11.623	1.089	1.653	0.000	0	0	6.780	6.780
3	1.996	1.949	2.495	3495505	1680278	2.080	877.277	   	3	CO2	0.353	17411	8.615	1.332	7.344	5.462	0	0	79.247	79.247

[Peak Table(Ch2)]
# of Peaks	0

[Peak Table(Ch3)]
# of Peaks	4
Peak#	R.Time	I.Time	F.Time	Area	Height	A/H	Conc.	Mark	ID#	Name	k'	Plate #	Plate Ht.	Tailing	Resolution	Sep.Factor	Area Ratio	Height Ratio	Conc. %	Norm Conc.
1	2.462	2.334	2.510	1994	642	3.104	0.000	   			0.000	9966	15.052	0.000	0.000	0.000	0	0	0.000	0.000
2	2.532	2.510	2.678	1680	366	4.590	0.000	 V 			0.028	5276	28.431	0.000	0.585	0.000	0	0	0.000	0.000
3	2.880	2.700	3.122	18338	4674	3.923	0.468	   	1	N2O	0.170	13070	11.477	1.511	2.901	6.000	0	0	100.000	100.000
4	3.474	3.203	3.661	876	59	14.791	0.000	   			0.411	775	193.451	0.871	1.981	2.421	0	0	0.000	0.000

[Compound Results(Ch1)]
# of IDs	6
ID#	Name	R.Time	Area	Height	Conc.	Curve	3rd	2nd	1st	Constant	Area Ratio	Height Ratio	Conc. %	Norm Conc.
1	CO	1.476	21910	10856	154.686	Linear	0.000000e+00	0.000000e+00	1.416423e+002	0.000000e+00	0	0	13.973	13.973
2	CH4	1.571	3882	2081	75.054	Linear	0.000000e+00	0.000000e+00	5.171738e+001	0.000000e+00	0	0	6.780	6.780
3	CO2	1.996	3495505	1680278	877.277	Linear	0.000000e+00	0.000000e+00	3.984494e+003	0.000000e+00	0	0	79.247	79.247
4	Ethylene	0.000	0	0	0.000	Linear	0.000000e+00	0.000000e+00	0.000000e+00	0.000000e+00	0	0	0.000	0.000
5	Acetylene	0.000	0	0	0.000	Linear	0.000000e+00	0.000000e+00	0.000000e+00	0.000000e+00	0	0	0.000	0.000
6	Ethane	0.000	0	0	0.000	Linear	0.000000e+00	0.000000e+00	0.000000e+00	0.000000e+00	0	0	0.000	0.000

[Compound Results(Ch2)]
# of IDs	5
ID#	Name	R.Time	Area	Height	Conc.	Curve	3rd	2nd	1st	Constant	Area Ratio	Height Ratio	Conc. %	Norm Conc.
1	Hydrogen	0.000	0	0	0.000	Linear	0.000000e+00	0.000000e+00	0.000000e+00	0.000000e+00	0	0	0.000	0.000
2	Oxygen	0.000	0	0	0.000	Linear	0.000000e+00	0.000000e+00	0.000000e+00	0.000000e+00	0	0	0.000	0.000
3	Nitrogen	0.000	0	0	0.000	Linear	0.000000e+00	0.000000e+00	0.000000e+00	0.000000e+00	0	0	0.000	0.000
4	Methane	0.000	0	0	0.000	Linear	0.000000e+00	0.000000e+00	0.000000e+00	0.000000e+00	0	0	0.000	0.000
5	Carbon Monoxide	0.000	0	0	0.000	Linear	0.000000e+00	0.000000e+00	0.000000e+00	0.000000e+00	0	0	0.000	0.000

[Compound Results(Ch3)]
# of IDs	2
ID#	Name	R.Time	Area	Height	Conc.	Curve	3rd	2nd	1st	Constant	Area Ratio	Height Ratio	Conc. %	Norm Conc.
1	N2O	2.880	18338	4674	0.468	Linear	0.000000e+00	0.000000e+00	3.915173e+004	0.000000e+00	0	0	100.000	100.000
2	SF6	0.000	0	0	0.000	Linear	0.000000e+00	0.000000e+00	0.000000e+00	0.000000e+00	0	0	0.000	0.000

[Group Results(Ch1)]
# of Groups	0

[Group Results(Ch2)]
# of Groups	0

[Group Results(Ch3)]
# of Groups	0

[Chromatogram (Ch1)]
Interval(msec)	220
# of Points	1091
Start Time(min)	0.002
End Time(min)	3.998
R.Time (min)	Intensity
0.00167	-67
0.00533	-70
0.00900	-67
0.01267	-61
0.01633	-54
0.02000	-50
0.02367	-44
0.02733	-37
0.03100	-33
0.03467	-32
0.03833	-34
0.04200	-36
0.04567	-38
0.04933	-41
0.05300	-40
0.05667	-39
0.06033	-41
0.06400	-47
0.06767	-53
0.07133	-54
0.07500	-53
0.07867	-49
0.08233	-41
0.08600	-28
0.08967	-15
0.09333	-4
0.09700	1
0.10067	2
0.10433	1
0.10800	-2
0.11167	-6
0.11533	-8
0.11900	-6
0.12267	-6
0.12633	-6
0.13000	-7
0.13367	-10
0.13733	-12
0.14100	-14
0.14467	-17
0.14833	-18
0.15200	-19
0.15567	-28
0.15933	-37
0.16300	-42
0.16667	-36
0.17033	-27
0.17400	-22
0.17767	-20
0.18133	-20
0.18500	-17
0.18867	-11
0.19233	-4
0.19600	0
0.19967	-2
0.20333	-7
0.20700	-9
0.21067	-14
0.21433	-21
0.21800	-22
0.22167	-20
0.22533	-17
0.22900	-14
0.23267	-13
0.23633	-14
0.24000	-12
0.24367	-12
0.24733	-9
0.25100	-6
0.25467	-5
0.25833	-6
0.26200	-7
0.26567	-8
0.26933	-10
0.27300	-13
0.27667	-14
0.28033	-14
0.28400	-13
0.28767	-11
0.29133	-7
0.29500	1
0.29867	8
0.30233	11
0.30600	12
0.30967	8
0.31333	3
0.31700	-3
0.32067	-8
0.32433	-7
0.32800	-6
0.33167	-6
0.33533	-3
0.33900	2
0.34267	2
0.34633	-4
0.35000	-9
0.35367	-11
0.35733	-9
0.36100	-8
0.36467	-10
0.36833	-15
0.37200	-22
0.37567	-26
0.37933	-25
0.38300	-21
0.38667	-19
0.39033	-13
0.39400	-6
0.39767	-3
0.40133	-4
0.40500	-4
0.40867	-1
0.41233	2
0.41600	9
0.41967	11
0.42333	13
0.42700	15
0.43067	13
0.43433	7
0.43800	4
0.44167	1
0.44533	-5
0.44900	-15
0.45267	-22
0.45633	-22
0.46000	-14
0.46367	-5
0.46733	2
0.47100	7
0.47467	11
0.47833	9
0.48200	1
0.48567	-6
0.48933	-9
0.49300	-4
0.49667	4
0.50033	13
0.50400	22
0.50767	23
0.51133	14
0.51500	2
0.51867	-12
0.52233	-26
0.52600	-31
0.52967	-31
0.53333	-32
0.53700	-34
0.54067	-30
0.54433	-25
0.54800	-25
0.55167	-24
0.55533	-22
0.55900	-20
0.56267	-16
0.56633	-12
0.57000	-4
0.57367	3
0.57733	5
0.58100	4
0.58467	3
0.58833	7
0.59200	12
0.59567	14
0.59933	11
0.60300	10
0.60667	10
0.61033	13
0.61400	14
0.61767	7
0.62133	-5
0.62500	-14
0.62867	-18
0.63233	-21
0.63600	-24
0.63967	-21
0.64333	-12
0.64700	-8
0.65067	-8
0.65433	-6
0.65800	-9
0.66167	-17
0.66533	-24
0.66900	-28
0.67267	-27
0.67633	-24
0.68000	-21
0.68367	-20
0.68733	-24
0.69100	-27
0.69467	-26
0.69833	-18
0.70200	-7
0.70567	-1
0.70933	-4
0.71300	-4
0.71667	0
0.72033	4
0.72400	7
0.72767	7
0.73133	1
0.73500	-4
0.73867	-4
0.74233	-3
0.74600	-5
0.74967	-4
0.75333	-2
0.75700	-2
0.76067	3
0.76433	8
0.76800	3
0.77167	-8
0.77533	-14
0.77900	-15
0.78267	-12
0.78633	-10
0.79000	-7
0.79367	-6
0.79733	-2
0.80100	2
0.80467	5
0.80833	2
0.81200	-3
0.81567	-8
0.81933	-12
0.82300	-13
0.82667	-14
0.83033	-10
0.83400	-2
0.83767	5
0.84133	7
0.84500	-0
0.84867	-13
0.85233	-28
0.85600	-42
0.85967	-44
0.86333	-41
0.86700	-36
0.87067	-33
0.87433	-28
0.87800	-24
0.88167	-24
0.88533	-26
0.88900	-27
0.89267	-25
0.89633	-27
0.90000	-35
0.90367	-43
0.90733	-44
0.91100	-36
0.91467	-26
0.91833	-16
0.92200	-5
0.92567	3
0.92933	4
0.93300	-2
0.93667	-9
0.94033	-15
0.94400	-22
0.94767	-25
0.95133	-23
0.95500	-17
0.95867	-11
0.96233	-10
0.96600	-16
0.96967	-23
0.97333	-31
0.97700	-39
0.98067	-37
0.98433	-29
0.98800	-26
0.99167	-29
0.99533	-37
0.99900	-46
1.00267	-49
1.00633	-49
1.01000	-44
1.01367	-38
1.01733	-33
1.02100	-30
1.02467	-29
1.02833	-26
1.03200	-25
1.03567	-26
1.03933	-28
1.04300	-28
1.04667	-24
1.05033	-17
1.05400	-14
1.05767	-18
1.06133	-22
1.06500	-23
1.06867	-26
1.07233	-33
1.07600	-39
1.07967	-48
1.08333	-54
1.08700	-49
1.09067	-40
1.09433	-30
1.09800	-20
1.10167	-14
1.10533	-12
1.10900	-14
1.11267	-22
1.11633	-31
1.12000	-37
1.12367	-37
1.12733	-35
1.13100	-38
1.13467	-44
1.13833	-46
1.14200	-43
1.14567	-43
1.14933	-46
1.15300	-49
1.15667	-50
1.16033	-50
1.16400	-48
1.16767	-45
1.17133	-43
1.17500	-42
1.17867	-41
1.18233	-40
1.18600	-31
1.18967	-20
1.19333	-20
1.19700	-27
1.20067	-34
1.20433	-41
1.20800	-43
1.21167	-40
1.21533	-36
1.21900	-32
1.22267	-30
1.22633	-31
1.23000	-34
1.23367	-36
1.23733	-38
1.24100	-43
1.24467	-48
1.24833	-54
1.25200	-58
1.25567	-56
1.25933	-52
1.26300	-45
1.26667	-37
1.27033	-36
1.27400	-37
1.27767	-37
1.28133	-34
1.28500	-29
1.28867	-30
1.29233	-36
1.29600	-39
1.29967	-44
1.30333	-51
1.30700	-55
1.31067	-56
1.31433	-53
1.31800	-52
1.32167	-51
1.32533	-47
1.32900	-39
1.33267	-29
1.33633	-27
1.34000	-31
1.34367	-33
1.34733	-32
1.35100	-29
1.35467	-28
1.35833	-30
1.36200	-33
1.36567	-36
1.36933	-39
1.37300	-43
1.37667	-45
1.38033	-48
1.38400	-52
1.38767	-53
1.39133	-47
1.39500	-43
1.39867	-40
1.40233	-40
1.40600	-45
1.40967	-53
1.41333	-59
1.41700	-57
1.42067	-57
1.42433	-56
1.42800	-56
1.43167	-55
1.43533	-57
1.43900	-55
1.44267	-22
1.44633	118
1.45000	524
1.45367	1463
1.45733	3117
1.46100	5221
1.46467	7291
1.46833	8995
1.47200	10191
1.47567	10790
1.47933	10685
1.48300	9840
1.48667	8408
1.49033	6693
1.49400	5008
1.49767	3556
1.50133	2416
1.50500	1573
1.50867	978
1.51233	572
1.51600	297
1.51967	112
1.52333	-11
1.52700	-89
1.53067	-138
1.53433	-171
1.53800	-189
1.54167	-163
1.54533	-32
1.54900	245
1.55267	638
1.55633	1064
1.56000	1442
1.56367	1733
1.56733	1918
1.57100	1965
1.57467	1845
1.57833	1580
1.58200	1239
1.58567	896
1.58933	600
1.59300	368
1.59667	195
1.60033	72
1.60400	-10
1.60767	-59
1.61133	-87
1.61500	-100
1.61867	-108
1.62233	-116
1.62600	-120
1.62967	-119
1.63333	-112
1.63700	-104
1.64067	-97
1.64433	-92
1.64800	-91
1.65167	-94
1.65533	-99
1.65900	-107
1.66267	-113
1.66633	-115
1.67000	-109
1.67367	-104
1.67733	-107
1.68100	-109
1.68467	-103
1.68833	-92
1.69200	-83
1.69567	-78
1.69933	-76
1.70300	-70
1.70667	-65
1.71033	-57
1.71400	-52
1.71767	-54
1.72133	-54
1.72500	-54
1.72867	-59
1.73233	-63
1.73600	-62
1.73967	-58
1.74333	-59
1.74700	-67
1.75067	-75
1.75433	-80
1.75800	-83
1.76167	-83
1.76533	-80
1.76900	-76
1.77267	-70
1.77633	-62
1.78000	-57
1.78367	-55
1.78733	-55
1.79100	-57
1.79467	-57
1.79833	-55
1.80200	-50
1.80567	-44
1.80933	-38
1.81300	-38
1.81667	-42
1.82033	-45
1.82400	-49
1.82767	-53
1.83133	-57
1.83500	-60
1.83867	-61
1.84233	-56
1.84600	-53
1.84967	-55
1.85333	-58
1.85700	-59
1.86067	-61
1.86433	-64
1.86800	-66
1.87167	-69
1.87533	-66
1.87900	-57
1.88267	-50
1.88633	-48
1.89000	-45
1.89367	-35
1.89733	-21
1.90100	-11
1.90467	-12
1.90833	-20
1.91200	-30
1.91567	-39
1.91933	-48
1.92300	-55
1.92667	-59
1.93033	-61
1.93400	-64
1.93767	-66
1.94133	-68
1.94500	-67
1.94867	-60
1.95233	-35
1.95600	116
1.95967	1076
1.96333	5998
1.96700	25180
1.97067	82237
1.97433	211736
1.97800	436416
1.98167	740198
1.98533	1070436
1.98900	1365805
1.99267	1578501
1.99633	1680252
2.00000	1662962
2.00367	1537755
2.00733	1333476
2.01100	1089700
2.01467	845033
2.01833	627434
2.02200	450566
2.02567	316105
2.02933	218706
2.03300	150486
2.03667	103758
2.04033	72177
2.04400	50956
2.04767	36688
2.05133	27037
2.05500	20442
2.05867	15868
2.06233	12640
2.06600	10317
2.06967	8605
2.07333	7312
2.07700	6312
2.08067	5523
2.08433	4887
2.08800	4365
2.09167	3934
2.09533	3569
2.09900	3257
2.10267	2991
2.10633	2762
2.11000	2561
2.11367	2390
2.11733	2244
2.12100	2113
2.12467	1992
2.12833	1885
2.13200	1792
2.13567	1713
2.13933	1644
2.14300	1573
2.14667	1494
2.15033	1415
2.15400	1346
2.15767	1284
2.16133	1232
2.16500	1184
2.16867	1136
2.17233	1092
2.17600	1055
2.17967	1023
2.18333	992
2.18700	962
2.19067	931
2.19433	903
2.19800	875
2.20167	848
2.20533	831
2.20900	812
2.21267	791
2.21633	774
2.22000	759
2.22367	742
2.22733	718
2.23100	693
2.23467	676
2.23833	665
2.24200	650
2.24567	636
2.24933	630
2.25300	629
2.25667	623
2.26033	609
2.26400	595
2.26767	586
2.27133	579
2.27500	569
2.27867	553
2.28233	535
2.28600	520
2.28967	504
2.29333	489
2.29700	479
2.30067	473
2.30433	464
2.30800	458
2.31167	455
2.31533	452
2.31900	449
2.32267	444
2.32633	440
2.33000	437
2.33367	436
2.33733	433
2.34100	430
2.34467	429
2.34833	429
2.35200	425
2.35567	416
2.35933	404
2.36300	395
2.36667	391
2.37033	395
2.37400	399
2.37767	395
2.38133	386
2.38500	379
2.38867	375
2.39233	376
2.39600	375
2.39967	368
2.40333	358
2.40700	352
2.41067	358
2.41433	366
2.41800	367
2.42167	360
2.42533	355
2.42900	356
2.43267	357
2.43633	354
2.44000	349
2.44367	344
2.44733	342
2.45100	341
2.45467	336
2.45833	330
2.46200	325
2.46567	323
2.46933	321
2.47300	324
2.47667	327
2.48033	327
2.48400	328
2.48767	329
2.49133	327
2.49500	323
2.49867	319
2.50233	314
2.50600	309
2.50967	303
2.51333	298
2.51700	295
2.52067	297
2.52433	302
2.52800	310
2.53167	316
2.53533	320
2.53900	323
2.54267	324
2.54633	325
2.55000	324
2.55367	321
2.55733	316
2.56100	310
2.56467	306
2.56833	306
2.57200	305
2.57567	298
2.57933	289
2.58300	282
2.58667	278
2.59033	279
2.59400	284
2.59767	288
2.60133	294
2.60500	301
2.60867	303
2.61233	304
2.61600	306
2.61967	307
2.62333	305
2.62700	298
2.63067	288
2.63433	278
2.63800	272
2.64167	272
2.64533	275
2.64900	278
2.65267	277
2.65633	271
2.66000	275
2.66367	288
2.66733	301
2.67100	310
2.67467	309
2.67833	295
2.68200	278
2.68567	269
2.68933	268
2.69300	272
2.69667	281
2.70033	292
2.70400	301
2.70767	306
2.71133	309
2.71500	312
2.71867	316
2.72233	320
2.72600	324
2.72967	326
2.73333	324
2.73700	319
2.74067	315
2.74433	314
2.74800	311
2.75167	306
2.75533	303
2.75900	302
2.76267	303
2.76633	304
2.77000	304
2.77367	306
2.77733	307
2.78100	307
2.78467	310
2.78833	315
2.79200	318
2.79567	319
2.79933	319
2.80300	318
2.80667	316
2.81033	314
2.81400	313
2.81767	313
2.82133	314
2.82500	315
2.82867	313
2.83233	312
2.83600	318
2.83967	326
2.84333	332
2.84700	335
2.85067	335
2.85433	335
2.85800	334
2.86167	332
2.86533	330
2.86900	328
2.87267	330
2.87633	333
2.88000	332
2.88367	332
2.88733	329
2.89100	324
2.89467	318
2.89833	318
2.90200	326
2.90567	341
2.90933	355
2.91300	357
2.91667	347
2.92033	335
2.92400	324
2.92767	315
2.93133	306
2.93500	305
2.93867	310
2.94233	314
2.94600	316
2.94967	320
2.95333	324
2.95700	329
2.96067	333
2.96433	336
2.96800	337
2.97167	339
2.97533	341
2.97900	343
2.98267	349
2.98633	356
2.99000	356
2.99367	350
2.99733	346
3.00100	346
3.00467	352
3.00833	364
3.01200	373
3.01567	372
3.01933	365
3.02300	356
3.02667	347
3.03033	340
3.03400	341
3.03767	347
3.04133	353
3.04500	354
3.04867	351
3.05233	349
3.05600	349
3.05967	349
3.06333	350
3.06700	347
3.07067	343
3.07433	339
3.07800	337
3.08167	340
3.08533	343
3.08900	347
3.09267	352
3.09633	352
3.10000	348
3.10367	341
3.10733	335
3.11100	331
3.11467	332
3.11833	342
3.12200	356
3.12567	371
3.12933	380
3.13300	382
3.13667	378
3.14033	369
3.14400	358
3.14767	344
3.15133	326
3.15500	310
3.15867	296
3.16233	283
3.16600	275
3.16967	276
3.17333	282
3.17700	291
3.18067	303
3.18433	314
3.18800	324
3.19167	330
3.19533	331
3.19900	332
3.20267	335
3.20633	335
3.21000	333
3.21367	329
3.21733	323
3.22100	316
3.22467	311
3.22833	310
3.23200	314
3.23567	317
3.23933	318
3.24300	319
3.24667	325
3.25033	329
3.25400	333
3.25767	332
3.26133	326
3.26500	319
3.26867	312
3.27233	305
3.27600	302
3.27967	305
3.28333	308
3.28700	312
3.29067	321
3.29433	328
3.29800	332
3.30167	332
3.30533	326
3.30900	317
3.31267	308
3.31633	305
3.32000	308
3.32367	310
3.32733	313
3.33100	321
3.33467	328
3.33833	325
3.34200	320
3.34567	320
3.34933	318
3.35300	317
3.35667	320
3.36033	327
3.36400	331
3.36767	330
3.37133	325
3.37500	319
3.37867	318
3.38233	318
3.38600	316
3.38967	316
3.39333	322
3.39700	327
3.40067	328
3.40433	327
3.40800	323
3.41167	317
3.41533	318
3.41900	323
3.42267	325
3.42633	323
3.43000	312
3.43367	301
3.43733	292
3.44100	287
3.44467	284
3.44833	281
3.45200	277
3.45567	273
3.45933	273
3.46300	277
3.46667	281
3.47033	284
3.47400	286
3.47767	288
3.48133	289
3.48500	294
3.48867	301
3.49233	308
3.49600	314
3.49967	315
3.50333	314
3.50700	314
3.51067	313
3.51433	312
3.51800	309
3.52167	305
3.52533	301
3.52900	300
3.53267	302
3.53633	304
3.54000	303
3.54367	295
3.54733	285
3.55100	278
3.55467	277
3.55833	277
3.56200	277
3.56567	274
3.56933	271
3.57300	266
3.57667	266
3.58033	269
3.58400	269
3.58767	263
3.59133	258
3.59500	261
3.59867	269
3.60233	273
3.60600	279
3.60967	288
3.61333	300
3.61700	308
3.62067	309
3.62433	305
3.62800	295
3.63167	282
3.63533	269
3.63900	260
3.64267	256
3.64633	254
3.65000	254
3.65367	252
3.65733	250
3.66100	251
3.66467	259
3.66833	268
3.67200	275
3.67567	280
3.67933	280
3.68300	276
3.68667	274
3.69033	273
3.69400	275
3.69767	279
3.70133	282
3.70500	281
3.70867	276
3.71233	268
3.71600	258
3.71967	252
3.72333	252
3.72700	252
3.73067	249
3.73433	247
3.73800	247
3.74167	251
3.74533	257
3.74900	263
3.75267	271
3.75633	276
3.76000	276
3.76367	271
3.76733	260
3.77100	249
3.77467	241
3.77833	237
3.78200	240
3.78567	251
3.78933	264
3.79300	269
3.79667	269
3.80033	268
3.80400	267
3.80767	266
3.81133	259
3.81500	244
3.81867	235
3.82233	234
3.82600	231
3.82967	229
3.83333	227
3.83700	228
3.84067	227
3.84433	225
3.84800	228
3.85167	235
3.85533	244
3.85900	252
3.86267	259
3.86633	259
3.87000	256
3.87367	255
3.87733	256
3.88100	257
3.88467	257
3.88833	254
3.89200	252
3.89567	249
3.89933	242
3.90300	234
3.90667	225
3.91033	217
3.91400	210
3.91767	206
3.92133	205
3.92500	211
3.92867	220
3.93233	224
3.93600	223
3.93967	220
3.94333	218
3.94700	221
3.95067	224
3.95433	222
3.95800	216
3.96167	216
3.96533	224
3.96900	228
3.97267	226
3.97633	222
3.98000	219
3.98367	216
3.98733	215
3.99100	217
3.99467	221
3.99833	224

[Chromatogram (Ch2)]
Interval(msec)	220
# of Points	1091
Start Time(min)	0.002
End Time(min)	3.998
R.Time (min)	Intensity
0.00167	-0
0.00533	-0
0.00900	-1
0.01267	-1
0.01633	-1
0.02000	-2
0.02367	-2
0.02733	-2
0.03100	-2
0.03467	-2
0.03833	-2
0.04200	-2
0.04567	-1
0.04933	-1
0.05300	-1
0.05667	-2
0.06033	-2
0.06400	-2
0.06767	-1
0.07133	-1
0.07500	-1
0.07867	-1
0.08233	-0
0.08600	-0
0.08967	-0
0.09333	-0
0.09700	-0
0.10067	-0
0.10433	-0
0.10800	-0
0.11167	0
0.11533	0
0.11900	-0
0.12267	-0
0.12633	-1
0.13000	-1
0.13367	-1
0.13733	-1
0.14100	-1
0.14467	-1
0.14833	-1
0.15200	-1
0.15567	-1
0.15933	-0
0.16300	-0
0.16667	-0
0.17033	0
0.17400	0
0.17767	0
0.18133	0
0.18500	0
0.18867	-0
0.19233	-0
0.19600	-0
0.19967	-0
0.20333	-0
0.20700	-1
0.21067	-1
0.21433	-1
0.21800	-1
0.22167	-1
0.22533	-2
0.22900	-2
0.23267	-2
0.23633	-2
0.24000	-2
0.24367	-2
0.24733	-2
0.25100	-1
0.25467	-1
0.25833	-1
0.26200	-1
0.26567	-1
0.26933	-0
0.27300	-0
0.27667	-0
0.28033	-1
0.28400	-1
0.28767	-1
0.29133	-1
0.29500	-1
0.29867	-1
0.30233	-1
0.30600	-1
0.30967	-1
0.31333	-0
0.31700	-0
0.32067	-0
0.32433	-1
0.32800	-1
0.33167	-1
0.33533	-1
0.33900	-1
0.34267	-1
0.34633	-1
0.35000	-1
0.35367	-1
0.35733	-1
0.36100	-2
0.36467	-2
0.36833	-1
0.37200	-1
0.37567	-1
0.37933	-1
0.38300	-1
0.38667	-0
0.39033	-0
0.39400	-0
0.39767	-0
0.40133	-0
0.40500	-1
0.40867	-1
0.41233	-1
0.41600	-1
0.41967	-1
0.42333	-1
0.42700	-1
0.43067	-1
0.43433	-1
0.43800	-1
0.44167	-1
0.44533	-0
0.44900	-1
0.45267	-1
0.45633	-1
0.46000	-1
0.46367	-1
0.46733	-1
0.47100	-0
0.47467	-0
0.47833	-0
0.48200	-0
0.48567	-0
0.48933	-1
0.49300	-1
0.49667	-1
0.50033	-1
0.50400	-1
0.50767	-1
0.51133	-2
0.51500	-2
0.51867	-2
0.52233	-2
0.52600	-3
0.52967	-3
0.53333	-3
0.53700	-3
0.54067	-3
0.54433	-3
0.54800	-4
0.55167	-3
0.55533	-3
0.55900	-3
0.56267	-3
0.56633	-3
0.57000	-3
0.57367	-3
0.57733	-3
0.58100	-3
0.58467	-3
0.58833	-3
0.59200	-3
0.59567	-3
0.59933	-3
0.60300	-3
0.60667	-3
0.61033	-3
0.61400	-2
0.61767	-2
0.62133	-2
0.62500	-2
0.62867	-1
0.63233	-1
0.63600	-1
0.63967	-1
0.64333	-1
0.64700	-1
0.65067	-1
0.65433	-1
0.65800	-2
0.66167	-2
0.66533	-2
0.66900	-2
0.67267	-2
0.67633	-2
0.68000	-3
0.68367	-3
0.68733	-3
0.69100	-3
0.69467	-4
0.69833	-4
0.70200	-3
0.70567	-3
0.70933	-3
0.71300	-3
0.71667	-3
0.72033	-3
0.72400	-3
0.72767	-3
0.73133	-3
0.73500	-2
0.73867	-2
0.74233	-2
0.74600	-2
0.74967	-1
0.75333	-1
0.75700	-1
0.76067	-1
0.76433	-1
0.76800	-1
0.77167	-1
0.77533	-1
0.77900	-1
0.78267	-1
0.78633	-1
0.79000	-0
0.79367	-0
0.79733	0
0.80100	0
0.80467	0
0.80833	0
0.81200	0
0.81567	0
0.81933	0
0.82300	1
0.82667	1
0.83033	1
0.83400	1
0.83767	1
0.84133	0
0.84500	0
0.84867	-0
0.85233	-1
0.85600	-1
0.85967	-2
0.86333	-2
0.86700	-3
0.87067	-3
0.87433	-4
0.87800	-4
0.88167	-5
0.88533	-5
0.88900	-6
0.89267	-6
0.89633	-6
0.90000	-6
0.90367	-6
0.90733	-6
0.91100	-5
0.91467	-5
0.91833	-5
0.92200	-5
0.92567	-5
0.92933	-5
0.93300	-5
0.93667	-5
0.94033	-4
0.94400	-4
0.94767	-4
0.95133	-3
0.95500	-3
0.95867	-3
0.96233	-3
0.96600	-3
0.96967	-3
0.97333	-3
0.97700	-3
0.98067	-2
0.98433	-2
0.98800	-2
0.99167	-2
0.99533	-2
0.99900	-2
1.00267	-2
1.00633	-2
1.01000	-2
1.01367	-1
1.01733	-1
1.02100	-1
1.02467	-1
1.02833	-0
1.03200	-0
1.03567	0
1.03933	0
1.04300	1
1.04667	1
1.05033	1
1.05400	1
1.05767	1
1.06133	1
1.06500	1
1.06867	1
1.07233	0
1.07600	0
1.07967	0
1.08333	0
1.08700	-0
1.09067	-0
1.09433	-0
1.09800	-1
1.10167	-1
1.10533	-1
1.10900	-2
1.11267	-2
1.11633	-3
1.12000	-3
1.12367	-3
1.12733	-3
1.13100	-3
1.13467	-4
1.13833	-4
1.14200	-4
1.14567	-4
1.14933	-4
1.15300	-4
1.15667	-4
1.16033	-4
1.16400	-4
1.16767	-4
1.17133	-4
1.17500	-4
1.17867	-4
1.18233	-4
1.18600	-4
1.18967	-3
1.19333	-3
1.19700	-3
1.20067	-3
1.20433	-3
1.20800	-3
1.21167	-3
1.21533	-3
1.21900	-3
1.22267	-3
1.22633	-3
1.23000	-3
1.23367	-3
1.23733	-3
1.24100	-3
1.24467	-3
1.24833	-3
1.25200	-3
1.25567	-3
1.25933	-3
1.26300	-3
1.26667	-3
1.27033	-3
1.27400	-4
1.27767	-4
1.28133	-4
1.28500	-4
1.28867	-5
1.29233	-5
1.29600	-5
1.29967	-5
1.30333	-5
1.30700	-5
1.31067	-5
1.31433	-5
1.31800	-5
1.32167	-5
1.32533	-4
1.32900	-4
1.33267	-4
1.33633	-3
1.34000	-3
1.34367	-2
1.34733	-2
1.35100	-2
1.35467	-2
1.35833	-2
1.36200	-2
1.36567	-2
1.36933	-2
1.37300	-2
1.37667	-2
1.38033	-2
1.38400	-2
1.38767	-2
1.39133	-2
1.39500	-2
1.39867	-3
1.40233	-3
1.40600	-4
1.40967	-4
1.41333	-4
1.41700	-4
1.42067	-4
1.42433	-4
1.42800	-5
1.43167	-5
1.43533	-5
1.43900	-5
1.44267	-5
1.44633	-5
1.45000	-5
1.45367	-5
1.45733	-5
1.46100	-5
1.46467	-5
1.46833	-5
1.47200	-5
1.47567	-5
1.47933	-5
1.48300	-4
1.48667	-4
1.49033	-4
1.49400	-4
1.49767	-3
1.50133	-3
1.50500	-3
1.50867	-3
1.51233	-3
1.51600	-2
1.51967	-2
1.52333	-2
1.52700	-2
1.53067	-2
1.53433	-2
1.53800	-2
1.54167	-2
1.54533	-2
1.54900	-3
1.55267	-3
1.55633	-3
1.56000	-3
1.56367	-3
1.56733	-3
1.57100	-3
1.57467	-3
1.57833	-3
1.58200	-3
1.58567	-4
1.58933	-4
1.59300	-4
1.59667	-4
1.60033	-5
1.60400	-6
1.60767	-8
1.61133	-10
1.61500	-12
1.61867	-15
1.62233	-18
1.62600	-21
1.62967	-25
1.63333	-28
1.63700	-32
1.64067	-35
1.64433	-39
1.64800	-43
1.65167	-46
1.65533	-50
1.65900	-53
1.66267	-57
1.66633	-60
1.67000	-64
1.67367	-69
1.67733	-73
1.68100	-77
1.68467	-82
1.68833	-86
1.69200	-90
1.69567	-94
1.69933	-97
1.70300	-100
1.70667	-102
1.71033	-104
1.71400	-105
1.71767	-106
1.72133	-107
1.72500	-107
1.72867	-108
1.73233	-108
1.73600	-108
1.73967	-108
1.74333	-108
1.74700	-108
1.75067	-108
1.75433	-108
1.75800	-109
1.76167	-110
1.76533	-111
1.76900	-112
1.77267	-113
1.77633	-114
1.78000	-114
1.78367	-115
1.78733	-115
1.79100	-116
1.79467	-116
1.79833	-116
1.80200	-115
1.80567	-115
1.80933	-115
1.81300	-115
1.81667	-115
1.82033	-115
1.82400	-115
1.82767	-116
1.83133	-116
1.83500	-116
1.83867	-116
1.84233	-116
1.84600	-116
1.84967	-115
1.85333	-115
1.85700	-115
1.86067	-115
1.86433	-115
1.86800	-115
1.87167	-115
1.87533	-115
1.87900	-115
1.88267	-115
1.88633	-114
1.89000	-114
1.89367	-114
1.89733	-113
1.90100	-113
1.90467	-114
1.90833	-114
1.91200	-114
1.91567	-114
1.91933	-114
1.92300	-114
1.92667	-113
1.93033	-113
1.93400	-112
1.93767	-112
1.94133	-112
1.94500	-112
1.94867	-112
1.95233	-112
1.95600	-112
1.95967	-113
1.96333	-113
1.96700	-113
1.97067	-113
1.97433	-112
1.97800	-112
1.98167	-111
1.98533	-111
1.98900	-111
1.99267	-111
1.99633	-111
2.00000	-111
2.00367	-111
2.00733	-110
2.01100	-109
2.01467	-108
2.01833	-107
2.02200	-106
2.02567	-106
2.02933	-105
2.03300	-105
2.03667	-105
2.04033	-105
2.04400	-104
2.04767	-104
2.05133	-103
2.05500	-102
2.05867	-102
2.06233	-101
2.06600	-101
2.06967	-101
2.07333	-101
2.07700	-101
2.08067	-101
2.08433	-101
2.08800	-101
2.09167	-101
2.09533	-101
2.09900	-101
2.10267	-101
2.10633	-100
2.11000	-99
2.11367	-99
2.11733	-98
2.12100	-98
2.12467	-97
2.12833	-97
2.13200	-96
2.13567	-96
2.13933	-96
2.14300	-96
2.14667	-96
2.15033	-96
2.15400	-96
2.15767	-95
2.16133	-95
2.16500	-94
2.16867	-94
2.17233	-94
2.17600	-94
2.17967	-94
2.18333	-95
2.18700	-95
2.19067	-95
2.19433	-94
2.19800	-94
2.20167	-93
2.20533	-93
2.20900	-93
2.21267	-93
2.21633	-93
2.22000	-93
2.22367	-93
2.22733	-92
2.23100	-92
2.23467	-91
2.23833	-91
2.24200	-90
2.24567	-89
2.24933	-88
2.25300	-88
2.25667	-87
2.26033	-87
2.26400	-86
2.26767	-86
2.27133	-85
2.27500	-85
2.27867	-85
2.28233	-85
2.28600	-85
2.28967	-85
2.29333	-85
2.29700	-84
2.30067	-84
2.30433	-84
2.30800	-84
2.31167	-83
2.31533	-83
2.31900	-82
2.32267	-81
2.32633	-80
2.33000	-79
2.33367	-78
2.33733	-78
2.34100	-77
2.34467	-77
2.34833	-76
2.35200	-75
2.35567	-73
2.35933	-72
2.36300	-70
2.36667	-68
2.37033	-66
2.37400	-63
2.37767	-60
2.38133	-56
2.38500	-52
2.38867	-48
2.39233	-44
2.39600	-40
2.39967	-36
2.40333	-32
2.40700	-28
2.41067	-24
2.41433	-21
2.41800	-18
2.42167	-16
2.42533	-14
2.42900	-13
2.43267	-12
2.43633	-11
2.44000	-11
2.44367	-10
2.44733	-10
2.45100	-9
2.45467	-8
2.45833	-8
2.46200	-7
2.46567	-6
2.46933	-5
2.47300	-5
2.47667	-4
2.48033	-4
2.48400	-3
2.48767	-3
2.49133	-2
2.49500	-1
2.49867	0
2.50233	2
2.50600	3
2.50967	4
2.51333	5
2.51700	6
2.52067	7
2.52433	7
2.52800	8
2.53167	8
2.53533	9
2.53900	9
2.54267	10
2.54633	10
2.55000	10
2.55367	10
2.55733	10
2.56100	10
2.56467	10
2.56833	10
2.57200	10
2.57567	10
2.57933	11
2.58300	11
2.58667	11
2.59033	12
2.59400	12
2.59767	12
2.60133	12
2.60500	12
2.60867	12
2.61233	12
2.61600	12
2.61967	12
2.62333	13
2.62700	13
2.63067	14
2.63433	14
2.63800	14
2.64167	15
2.64533	15
2.64900	15
2.65267	16
2.65633	16
2.66000	17
2.66367	17
2.66733	17
2.67100	17
2.67467	17
2.67833	18
2.68200	18
2.68567	18
2.68933	19
2.69300	19
2.69667	20
2.70033	20
2.70400	20
2.70767	20
2.71133	20
2.71500	20
2.71867	20
2.72233	20
2.72600	20
2.72967	20
2.73333	21
2.73700	21
2.74067	22
2.74433	22
2.74800	23
2.75167	24
2.75533	24
2.75900	24
2.76267	25
2.76633	25
2.77000	25
2.77367	25
2.77733	24
2.78100	24
2.78467	23
2.78833	22
2.79200	22
2.79567	21
2.79933	21
2.80300	21
2.80667	21
2.81033	22
2.81400	22
2.81767	23
2.82133	23
2.82500	24
2.82867	24
2.83233	24
2.83600	24
2.83967	23
2.84333	22
2.84700	20
2.85067	17
2.85433	11
2.85800	2
2.86167	-10
2.86533	-26
2.86900	-47
2.87267	-72
2.87633	-102
2.88000	-135
2.88367	-173
2.88733	-215
2.89100	-261
2.89467	-309
2.89833	-359
2.90200	-412
2.90567	-466
2.90933	-521
2.91300	-576
2.91667	-631
2.92033	-686
2.92400	-740
2.92767	-792
2.93133	-843
2.93500	-896
2.93867	-953
2.94233	-1011
2.94600	-1060
2.94967	-1091
2.95333	-1097
2.95700	-1078
2.96067	-1035
2.96433	-975
2.96800	-904
2.97167	-826
2.97533	-745
2.97900	-666
2.98267	-590
2.98633	-519
2.99000	-453
2.99367	-393
2.99733	-340
3.00100	-292
3.00467	-251
3.00833	-214
3.01200	-182
3.01567	-155
3.01933	-131
3.02300	-110
3.02667	-93
3.03033	-78
3.03400	-65
3.03767	-53
3.04133	-44
3.04500	-36
3.04867	-29
3.05233	-23
3.05600	-17
3.05967	-13
3.06333	-9
3.06700	-6
3.07067	-4
3.07433	-1
3.07800	0
3.08167	2
3.08533	4
3.08900	5
3.09267	6
3.09633	7
3.10000	8
3.10367	8
3.10733	9
3.11100	9
3.11467	10
3.11833	11
3.12200	11
3.12567	11
3.12933	12
3.13300	12
3.13667	12
3.14033	13
3.14400	13
3.14767	13
3.15133	14
3.15500	14
3.15867	14
3.16233	14
3.16600	15
3.16967	15
3.17333	16
3.17700	16
3.18067	17
3.18433	17
3.18800	17
3.19167	18
3.19533	18
3.19900	18
3.20267	18
3.20633	19
3.21000	19
3.21367	19
3.21733	19
3.22100	20
3.22467	20
3.22833	20
3.23200	20
3.23567	21
3.23933	21
3.24300	21
3.24667	21
3.25033	21
3.25400	21
3.25767	20
3.26133	20
3.26500	20
3.26867	20
3.27233	20
3.27600	20
3.27967	20
3.28333	20
3.28700	20
3.29067	20
3.29433	21
3.29800	21
3.30167	21
3.30533	21
3.30900	21
3.31267	22
3.31633	22
3.32000	22
3.32367	23
3.32733	23
3.33100	23
3.33467	23
3.33833	23
3.34200	24
3.34567	24
3.34933	24
3.35300	24
3.35667	25
3.36033	25
3.36400	25
3.36767	26
3.37133	26
3.37500	26
3.37867	26
3.38233	26
3.38600	27
3.38967	27
3.39333	27
3.39700	27
3.40067	27
3.40433	26
3.40800	26
3.41167	26
3.41533	26
3.41900	26
3.42267	26
3.42633	26
3.43000	26
3.43367	26
3.43733	26
3.44100	25
3.44467	25
3.44833	25
3.45200	25
3.45567	25
3.45933	25
3.46300	25
3.46667	25
3.47033	25
3.47400	25
3.47767	25
3.48133	24
3.48500	24
3.48867	24
3.49233	24
3.49600	24
3.49967	24
3.50333	24
3.50700	24
3.51067	24
3.51433	24
3.51800	24
3.52167	24
3.52533	24
3.52900	24
3.53267	24
3.53633	24
3.54000	24
3.54367	24
3.54733	24
3.55100	24
3.55467	23
3.55833	23
3.56200	23
3.56567	23
3.56933	23
3.57300	23
3.57667	23
3.58033	23
3.58400	23
3.58767	23
3.59133	23
3.59500	23
3.59867	23
3.60233	23
3.60600	23
3.60967	23
3.61333	23
3.61700	24
3.62067	24
3.62433	24
3.62800	24
3.63167	24
3.63533	24
3.63900	24
3.64267	24
3.64633	24
3.65000	24
3.65367	25
3.65733	25
3.66100	25
3.66467	25
3.66833	25
3.67200	25
3.67567	24
3.67933	24
3.68300	24
3.68667	24
3.69033	24
3.69400	24
3.69767	24
3.70133	23
3.70500	23
3.70867	23
3.71233	23
3.71600	23
3.71967	23
3.72333	23
3.72700	23
3.73067	23
3.73433	23
3.73800	24
3.74167	24
3.74533	24
3.74900	24
3.75267	24
3.75633	24
3.76000	24
3.76367	24
3.76733	24
3.77100	24
3.77467	24
3.77833	24
3.78200	24
3.78567	24
3.78933	24
3.79300	25
3.79667	25
3.80033	25
3.80400	25
3.80767	25
3.81133	25
3.81500	25
3.81867	25
3.82233	25
3.82600	25
3.82967	25
3.83333	24
3.83700	25
3.84067	25
3.84433	24
3.84800	24
3.85167	24
3.85533	24
3.85900	24
3.86267	24
3.86633	24
3.87000	24
3.87367	24
3.87733	24
3.88100	24
3.88467	24
3.88833	24
3.89200	24
3.89567	23
3.89933	23
3.90300	23
3.90667	23
3.91033	23
3.91400	22
3.91767	22
3.92133	22
3.92500	22
3.92867	22
3.93233	23
3.93600	23
3.93967	23
3.94333	23
3.94700	23
3.95067	24
3.95433	24
3.95800	24
3.96167	24
3.96533	24
3.96900	24
3.97267	24
3.97633	24
3.98000	24
3.98367	24
3.98733	24
3.99100	24
3.99467	24
3.99833	24

[Chromatogram (Ch3)]
Interval(msec)	220
# of Points	1091
Start Time(min)	0.002
End Time(min)	3.998
R.Time (min)	Intensity
0.00167	-0
0.00533	-2
0.00900	-4
0.01267	-6
0.01633	-5
0.02000	-3
0.02367	-1
0.02733	0
0.03100	1
0.03467	-1
0.03833	-1
0.04200	0
0.04567	-4
0.04933	-6
0.05300	-5
0.05667	-4
0.06033	-4
0.06400	-4
0.06767	-3
0.07133	-3
0.07500	-3
0.07867	-3
0.08233	-3
0.08600	-2
0.08967	-3
0.09333	-5
0.09700	-7
0.10067	-7
0.10433	-7
0.10800	-4
0.11167	-3
0.11533	-3
0.11900	-1
0.12267	-1
0.12633	-2
0.13000	-2
0.13367	-2
0.13733	-1
0.14100	-1
0.14467	0
0.14833	-0
0.15200	3
0.15567	5
0.15933	5
0.16300	5
0.16667	4
0.17033	2
0.17400	1
0.17767	-0
0.18133	-2
0.18500	-2
0.18867	-3
0.19233	-5
0.19600	-4
0.19967	-3
0.20333	-3
0.20700	-2
0.21067	-2
0.21433	-2
0.21800	-1
0.22167	-1
0.22533	-0
0.22900	0
0.23267	0
0.23633	-0
0.24000	-1
0.24367	-1
0.24733	-2
0.25100	-2
0.25467	-4
0.25833	-5
0.26200	-5
0.26567	-5
0.26933	-4
0.27300	-4
0.27667	-3
0.28033	-2
0.28400	-0
0.28767	-2
0.29133	-4
0.29500	-4
0.29867	-3
0.30233	-2
0.30600	1
0.30967	3
0.31333	3
0.31700	3
0.32067	3
0.32433	2
0.32800	-0
0.33167	-2
0.33533	-3
0.33900	-1
0.34267	2
0.34633	2
0.35000	2
0.35367	2
0.35733	2
0.36100	1
0.36467	1
0.36833	1
0.37200	0
0.37567	1
0.37933	3
0.38300	2
0.38667	-1
0.39033	-2
0.39400	-1
0.39767	0
0.40133	1
0.40500	1
0.40867	-0
0.41233	0
0.41600	-0
0.41967	1
0.42333	4
0.42700	6
0.43067	6
0.43433	5
0.43800	2
0.44167	1
0.44533	2
0.44900	4
0.45267	6
0.45633	7
0.46000	8
0.46367	8
0.46733	5
0.47100	2
0.47467	4
0.47833	5
0.48200	5
0.48567	5
0.48933	5
0.49300	3
0.49667	2
0.50033	2
0.50400	1
0.50767	-1
0.51133	-1
0.51500	2
0.51867	4
0.52233	3
0.52600	2
0.52967	2
0.53333	1
0.53700	1
0.54067	1
0.54433	1
0.54800	1
0.55167	3
0.55533	4
0.55900	6
0.56267	3
0.56633	-0
0.57000	-2
0.57367	-2
0.57733	-2
0.58100	-1
0.58467	1
0.58833	1
0.59200	2
0.59567	2
0.59933	1
0.60300	0
0.60667	-0
0.61033	-2
0.61400	-2
0.61767	-2
0.62133	-2
0.62500	2
0.62867	5
0.63233	6
0.63600	7
0.63967	6
0.64333	5
0.64700	4
0.65067	3
0.65433	1
0.65800	-1
0.66167	-2
0.66533	-2
0.66900	-3
0.67267	-3
0.67633	-3
0.68000	-1
0.68367	1
0.68733	2
0.69100	1
0.69467	0
0.69833	3
0.70200	3
0.70567	3
0.70933	0
0.71300	-0
0.71667	1
0.72033	0
0.72400	0
0.72767	0
0.73133	-0
0.73500	-2
0.73867	-3
0.74233	-1
0.74600	1
0.74967	2
0.75333	3
0.75700	5
0.76067	5
0.76433	4
0.76800	4
0.77167	3
0.77533	4
0.77900	4
0.78267	4
0.78633	5
0.79000	5
0.79367	6
0.79733	6
0.80100	8
0.80467	8
0.80833	5
0.81200	5
0.81567	5
0.81933	6
0.82300	5
0.82667	2
0.83033	2
0.83400	3
0.83767	4
0.84133	5
0.84500	5
0.84867	6
0.85233	8
0.85600	8
0.85967	6
0.86333	3
0.86700	2
0.87067	2
0.87433	2
0.87800	3
0.88167	3
0.88533	4
0.88900	8
0.89267	10
0.89633	10
0.90000	9
0.90367	8
0.90733	9
0.91100	12
0.91467	13
0.91833	13
0.92200	10
0.92567	8
0.92933	6
0.93300	6
0.93667	4
0.94033	3
0.94400	3
0.94767	4
0.95133	4
0.95500	6
0.95867	8
0.96233	8
0.96600	8
0.96967	6
0.97333	4
0.97700	3
0.98067	5
0.98433	6
0.98800	5
0.99167	6
0.99533	6
0.99900	8
1.00267	8
1.00633	7
1.01000	9
1.01367	9
1.01733	8
1.02100	9
1.02467	9
1.02833	9
1.03200	10
1.03567	12
1.03933	12
1.04300	11
1.04667	11
1.05033	11
1.05400	12
1.05767	14
1.06133	14
1.06500	12
1.06867	11
1.07233	11
1.07600	12
1.07967	13
1.08333	12
1.08700	12
1.09067	12
1.09433	13
1.09800	15
1.10167	14
1.10533	11
1.10900	7
1.11267	5
1.11633	6
1.12000	6
1.12367	7
1.12733	9
1.13100	11
1.13467	12
1.13833	11
1.14200	11
1.14567	9
1.14933	7
1.15300	6
1.15667	7
1.16033	6
1.16400	5
1.16767	5
1.17133	7
1.17500	10
1.17867	12
1.18233	13
1.18600	15
1.18967	17
1.19333	19
1.19700	18
1.20067	18
1.20433	18
1.20800	18
1.21167	17
1.21533	16
1.21900	14
1.22267	11
1.22633	10
1.23000	11
1.23367	9
1.23733	8
1.24100	9
1.24467	13
1.24833	15
1.25200	16
1.25567	16
1.25933	15
1.26300	13
1.26667	13
1.27033	13
1.27400	11
1.27767	10
1.28133	10
1.28500	10
1.28867	13
1.29233	15
1.29600	15
1.29967	13
1.30333	12
1.30700	12
1.31067	13
1.31433	16
1.31800	18
1.32167	19
1.32533	19
1.32900	18
1.33267	16
1.33633	14
1.34000	14
1.34367	15
1.34733	17
1.35100	19
1.35467	18
1.35833	16
1.36200	15
1.36567	17
1.36933	18
1.37300	19
1.37667	19
1.38033	20
1.38400	18
1.38767	20
1.39133	20
1.39500	18
1.39867	17
1.40233	16
1.40600	17
1.40967	17
1.41333	17
1.41700	17
1.42067	19
1.42433	23
1.42800	26
1.43167	28
1.43533	27
1.43900	25
1.44267	23
1.44633	19
1.45000	16
1.45367	16
1.45733	18
1.46100	19
1.46467	20
1.46833	21
1.47200	22
1.47567	23
1.47933	22
1.48300	21
1.48667	20
1.49033	21
1.49400	22
1.49767	21
1.50133	20
1.50500	21
1.50867	22
1.51233	23
1.51600	23
1.51967	23
1.52333	22
1.52700	21
1.53067	20
1.53433	20
1.53800	21
1.54167	21
1.54533	21
1.54900	22
1.55267	24
1.55633	26
1.56000	26
1.56367	24
1.56733	23
1.57100	24
1.57467	24
1.57833	26
1.58200	28
1.58567	29
1.58933	27
1.59300	26
1.59667	25
1.60033	25
1.60400	26
1.60767	29
1.61133	29
1.61500	28
1.61867	27
1.62233	25
1.62600	24
1.62967	24
1.63333	26
1.63700	28
1.64067	31
1.64433	31
1.64800	30
1.65167	31
1.65533	32
1.65900	34
1.66267	32
1.66633	31
1.67000	30
1.67367	30
1.67733	32
1.68100	33
1.68467	34
1.68833	35
1.69200	39
1.69567	42
1.69933	44
1.70300	42
1.70667	41
1.71033	41
1.71400	43
1.71767	42
1.72133	41
1.72500	40
1.72867	41
1.73233	42
1.73600	45
1.73967	46
1.74333	48
1.74700	49
1.75067	50
1.75433	49
1.75800	48
1.76167	46
1.76533	47
1.76900	48
1.77267	49
1.77633	49
1.78000	50
1.78367	50
1.78733	52
1.79100	52
1.79467	52
1.79833	52
1.80200	51
1.80567	50
1.80933	52
1.81300	53
1.81667	56
1.82033	58
1.82400	58
1.82767	58
1.83133	59
1.83500	61
1.83867	62
1.84233	61
1.84600	58
1.84967	57
1.85333	59
1.85700	61
1.86067	60
1.86433	57
1.86800	56
1.87167	57
1.87533	58
1.87900	60
1.88267	61
1.88633	61
1.89000	63
1.89367	65
1.89733	67
1.90100	68
1.90467	69
1.90833	69
1.91200	69
1.91567	70
1.91933	71
1.92300	71
1.92667	73
1.93033	76
1.93400	78
1.93767	79
1.94133	81
1.94500	82
1.94867	81
1.95233	81
1.95600	82
1.95967	84
1.96333	86
1.96700	87
1.97067	89
1.97433	93
1.97800	94
1.98167	94
1.98533	95
1.98900	98
1.99267	100
1.99633	102
2.00000	101
2.00367	102
2.00733	104
2.01100	106
2.01467	109
2.01833	109
2.02200	107
2.02567	105
2.02933	105
2.03300	108
2.03667	110
2.04033	112
2.04400	114
2.04767	113
2.05133	112
2.05500	113
2.05867	114
2.06233	114
2.06600	116
2.06967	119
2.07333	119
2.07700	119
2.08067	120
2.08433	124
2.08800	127
2.09167	129
2.09533	132
2.09900	134
2.10267	137
2.10633	139
2.11000	141
2.11367	139
2.11733	138
2.12100	138
2.12467	142
2.12833	147
2.13200	148
2.13567	149
2.13933	149
2.14300	150
2.14667	151
2.15033	151
2.15400	152
2.15767	153
2.16133	154
2.16500	156
2.16867	158
2.17233	160
2.17600	162
2.17967	164
2.18333	166
2.18700	168
2.19067	169
2.19433	169
2.19800	169
2.20167	170
2.20533	172
2.20900	173
2.21267	175
2.21633	178
2.22000	182
2.22367	184
2.22733	184
2.23100	185
2.23467	187
2.23833	186
2.24200	186
2.24567	186
2.24933	185
2.25300	186
2.25667	190
2.26033	193
2.26400	195
2.26767	196
2.27133	197
2.27500	198
2.27867	198
2.28233	198
2.28600	200
2.28967	202
2.29333	203
2.29700	205
2.30067	207
2.30433	209
2.30800	209
2.31167	208
2.31533	207
2.31900	209
2.32267	211
2.32633	213
2.33000	217
2.33367	220
2.33733	222
2.34100	222
2.34467	222
2.34833	224
2.35200	225
2.35567	224
2.35933	225
2.36300	226
2.36667	227
2.37033	229
2.37400	231
2.37767	229
2.38133	227
2.38500	225
2.38867	225
2.39233	227
2.39600	231
2.39967	234
2.40333	237
2.40700	238
2.41067	238
2.41433	238
2.41800	239
2.42167	241
2.42533	241
2.42900	243
2.43267	247
2.43633	249
2.44000	253
2.44367	307
2.44733	450
2.45100	608
2.45467	739
2.45833	815
2.46200	822
2.46567	789
2.46933	752
2.47300	726
2.47667	710
2.48033	693
2.48400	665
2.48767	624
2.49133	577
2.49500	532
2.49867	496
2.50233	471
2.50600	456
2.50967	450
2.51333	456
2.51700	470
2.52067	491
2.52433	510
2.52800	523
2.53167	525
2.53533	513
2.53900	490
2.54267	462
2.54633	431
2.55000	400
2.55367	373
2.55733	352
2.56100	336
2.56467	325
2.56833	319
2.57200	315
2.57567	310
2.57933	307
2.58300	307
2.58667	307
2.59033	305
2.59400	305
2.59767	305
2.60133	302
2.60500	296
2.60867	288
2.61233	277
2.61600	265
2.61967	252
2.62333	239
2.62700	228
2.63067	218
2.63433	209
2.63800	200
2.64167	194
2.64533	186
2.64900	177
2.65267	168
2.65633	158
2.66000	149
2.66367	142
2.66733	135
2.67100	125
2.67467	118
2.67833	113
2.68200	110
2.68567	108
2.68933	108
2.69300	105
2.69667	107
2.70033	110
2.70400	113
2.70767	117
2.71133	123
2.71500	126
2.71867	127
2.72233	130
2.72600	133
2.72967	136
2.73333	139
2.73700	145
2.74067	151
2.74433	155
2.74800	155
2.75167	156
2.75533	158
2.75900	160
2.76267	164
2.76633	170
2.77000	174
2.77367	179
2.77733	182
2.78100	182
2.78467	183
2.78833	187
2.79200	191
2.79567	194
2.79933	199
2.80300	203
2.80667	208
2.81033	214
2.81400	220
2.81767	228
2.82133	239
2.82500	255
2.82867	288
2.83233	349
2.83600	461
2.83967	640
2.84333	905
2.84700	1270
2.85067	1731
2.85433	2267
2.85800	2841
2.86167	3407
2.86533	3921
2.86900	4341
2.87267	4638
2.87633	4795
2.88000	4817
2.88367	4718
2.88733	4522
2.89100	4256
2.89467	3945
2.89833	3615
2.90200	3282
2.90567	2957
2.90933	2651
2.91300	2367
2.91667	2108
2.92033	1873
2.92400	1662
2.92767	1475
2.93133	1309
2.93500	1165
2.93867	1038
2.94233	929
2.94600	833
2.94967	749
2.95333	674
2.95700	608
2.96067	552
2.96433	504
2.96800	463
2.97167	425
2.97533	392
2.97900	365
2.98267	343
2.98633	324
2.99000	307
2.99367	291
2.99733	281
3.00100	271
3.00467	260
3.00833	250
3.01200	241
3.01567	232
3.01933	225
3.02300	218
3.02667	212
3.03033	207
3.03400	205
3.03767	204
3.04133	201
3.04500	200
3.04867	201
3.05233	200
3.05600	199
3.05967	199
3.06333	200
3.06700	199
3.07067	199
3.07433	198
3.07800	197
3.08167	196
3.08533	194
3.08900	192
3.09267	191
3.09633	191
3.10000	190
3.10367	190
3.10733	190
3.11100	191
3.11467	190
3.11833	189
3.12200	187
3.12567	187
3.12933	187
3.13300	186
3.13667	187
3.14033	188
3.14400	190
3.14767	191
3.15133	192
3.15500	194
3.15867	193
3.16233	193
3.16600	194
3.16967	196
3.17333	198
3.17700	200
3.18067	200
3.18433	201
3.18800	200
3.19167	198
3.19533	199
3.19900	201
3.20267	204
3.20633	208
3.21000	210
3.21367	213
3.21733	214
3.22100	212
3.22467	212
3.22833	213
3.23200	214
3.23567	218
3.23933	222
3.24300	225
3.24667	228
3.25033	230
3.25400	231
3.25767	231
3.26133	232
3.26500	234
3.26867	236
3.27233	239
3.27600	241
3.27967	241
3.28333	242
3.28700	244
3.29067	246
3.29433	248
3.29800	250
3.30167	253
3.30533	255
3.30900	256
3.31267	257
3.31633	258
3.32000	259
3.32367	261
3.32733	263
3.33100	265
3.33467	267
3.33833	267
3.34200	267
3.34567	268
3.34933	272
3.35300	273
3.35667	275
3.36033	276
3.36400	276
3.36767	279
3.37133	283
3.37500	287
3.37867	289
3.38233	290
3.38600	289
3.38967	289
3.39333	291
3.39700	293
3.40067	295
3.40433	299
3.40800	300
3.41167	302
3.41533	303
3.41900	302
3.42267	302
3.42633	303
3.43000	302
3.43367	303
3.43733	304
3.44100	305
3.44467	307
3.44833	309
3.45200	309
3.45567	310
3.45933	311
3.46300	313
3.46667	316
3.47033	319
3.47400	320
3.47767	319
3.48133	318
3.48500	317
3.48867	317
3.49233	317
3.49600	317
3.49967	316
3.50333	315
3.50700	315
3.51067	316
3.51433	315
3.51800	314
3.52167	314
3.52533	314
3.52900	313
3.53267	312
3.53633	312
3.54000	311
3.54367	311
3.54733	311
3.55100	311
3.55467	311
3.55833	311
3.56200	312
3.56567	313
3.56933	312
3.57300	312
3.57667	313
3.58033	312
3.58400	310
3.58767	309
3.59133	309
3.59500	309
3.59867	310
3.60233	312
3.60600	314
3.60967	312
3.61333	310
3.61700	311
3.62067	312
3.62433	310
3.62800	307
3.63167	304
3.63533	301
3.63900	299
3.64267	301
3.64633	301
3.65000	302
3.65367	303
3.65733	302
3.66100	300
3.66467	302
3.66833	303
3.67200	303
3.67567	304
3.67933	304
3.68300	303
3.68667	303
3.69033	305
3.69400	306
3.69767	306
3.70133	304
3.70500	300
3.70867	294
3.71233	284
3.71600	268
3.71967	254
3.72333	243
3.72700	237
3.73067	238
3.73433	245
3.73800	257
3.74167	272
3.74533	286
3.74900	300
3.75267	316
3.75633	333
3.76000	350
3.76367	367
3.76733	386
3.77100	405
3.77467	422
3.77833	438
3.78200	454
3.78567	469
3.78933	485
3.79300	500
3.79667	512
3.80033	522
3.80400	531
3.80767	540
3.81133	546
3.81500	551
3.81867	556
3.82233	561
3.82600	565
3.82967	568
3.83333	570
3.83700	572
3.84067	577
3.84433	581
3.84800	583
3.85167	588
3.85533	593
3.85900	596
3.86267	597
3.86633	597
3.87000	597
3.87367	597
3.87733	596
3.88100	596
3.88467	596
3.88833	594
3.89200	594
3.89567	594
3.89933	594
3.90300	594
3.90667	592
3.91033	591
3.91400	590
3.91767	588
3.92133	586
3.92500	584
3.92867	587
3.93233	589
3.93600	590
3.93967	591
3.94333	592
3.94700	592
3.95067	590
3.95433	587
3.95800	584
3.96167	584
3.96533	585
3.96900	586
3.97267	586
3.97633	586
3.98000	587
3.98367	587
3.98733	587
3.99100	584
3.99467	583
3.99833	579

[Status Trace (Column Oven Temperature)]
Interval(msec)	1000
# of Points	240
Start Time(min)	0.001
End Time(min)	3.985
Intensity Units	
Intensity Multiplier	1
R.Time (min)	Intensity
0.00137	35.06
0.01803	35.06
0.03470	35.06
0.05137	35.05
0.06803	35.06
0.08470	35.06
0.10137	35.07
0.11803	35.06
0.13470	35.06
0.15137	35.06
0.16803	35.06
0.18470	35.06
0.20137	35.06
0.21803	35.06
0.23470	35.06
0.25137	35.05
0.26803	35.05
0.28470	35.04
0.30137	35.03
0.31803	35.03
0.33470	35.02
0.35137	35.03
0.36803	35.02
0.38470	35.01
0.40137	35.01
0.41803	35.01
0.43470	35.01
0.45137	35.00
0.46803	34.99
0.48470	34.99
0.50137	35.00
0.51803	35.01
0.53470	35.02
0.55137	35.02
0.56803	35.02
0.58470	35.02
0.60137	35.02
0.61803	35.02
0.63470	35.02
0.65137	35.02
0.66803	35.01
0.68470	35.01
0.70137	35.01
0.71803	35.01
0.73470	35.01
0.75137	35.01
0.76803	35.01
0.78470	35.00
0.80137	34.99
0.81803	34.98
0.83470	34.97
0.85137	34.98
0.86803	35.00
0.88470	35.01
0.90137	35.01
0.91803	35.02
0.93470	35.02
0.95137	35.03
0.96803	35.02
0.98470	35.02
1.00137	35.00
1.01803	34.99
1.03470	34.98
1.05137	34.97
1.06803	34.97
1.08470	34.97
1.10137	34.97
1.11803	34.97
1.13470	34.98
1.15137	34.98
1.16803	34.98
1.18470	34.98
1.20137	34.98
1.21803	34.98
1.23470	34.98
1.25137	34.98
1.26803	34.98
1.28470	34.99
1.30137	34.99
1.31803	35.00
1.33470	35.00
1.35137	34.98
1.36803	34.98
1.38470	34.98
1.40137	34.99
1.41803	35.00
1.43470	35.01
1.45137	35.01
1.46803	35.01
1.48470	35.00
1.50137	35.00
1.51803	34.99
1.53470	34.98
1.55137	34.97
1.56803	34.98
1.58470	34.99
1.60137	35.02
1.61803	35.13
1.63470	35.31
1.65137	35.53
1.66803	35.83
1.68470	36.19
1.70137	36.55
1.71803	36.90
1.73470	37.22
1.75137	37.54
1.76803	37.88
1.78470	38.22
1.80137	38.54
1.81803	38.87
1.83470	39.20
1.85137	39.51
1.86803	39.86
1.88470	40.19
1.90137	40.54
1.91803	40.86
1.93470	41.18
1.95137	41.51
1.96803	41.84
1.98470	42.17
2.00137	42.51
2.01803	42.83
2.03470	43.17
2.05137	43.46
2.06803	43.81
2.08470	44.12
2.10137	44.45
2.11803	44.76
2.13470	45.09
2.15137	45.43
2.16803	45.75
2.18470	46.08
2.20137	46.41
2.21803	46.75
2.23470	47.07
2.25137	47.40
2.26803	47.73
2.28470	48.05
2.30137	48.38
2.31803	48.70
2.33470	49.05
2.35137	49.33
2.36803	49.54
2.38470	49.61
2.40137	49.60
2.41803	49.60
2.43470	49.62
2.45137	49.62
2.46803	49.66
2.48470	49.69
2.50137	49.69
2.51803	49.71
2.53470	49.72
2.55137	49.75
2.56803	49.77
2.58470	49.79
2.60137	49.81
2.61803	49.81
2.63470	49.82
2.65137	49.82
2.66803	49.84
2.68470	49.84
2.70137	49.85
2.71803	49.87
2.73470	49.86
2.75137	49.85
2.76803	49.85
2.78470	49.88
2.80137	49.89
2.81803	49.89
2.83470	49.89
2.85137	49.88
2.86803	49.88
2.88470	49.89
2.90137	49.91
2.91803	49.92
2.93470	49.93
2.95137	49.95
2.96803	49.97
2.98470	49.98
3.00137	49.98
3.01803	49.99
3.03470	49.98
3.05137	49.99
3.06803	49.99
3.08470	50.00
3.10137	50.01
3.11803	50.02
3.13470	50.04
3.15137	50.06
3.16803	50.07
3.18470	50.08
3.20137	50.08
3.21803	50.09
3.23470	50.09
3.25137	50.10
3.26803	50.10
3.28470	50.11
3.30137	50.11
3.31803	50.10
3.33470	50.09
3.35137	50.08
3.36803	50.06
3.38470	50.05
3.40137	50.04
3.41803	50.04
3.43470	50.03
3.45137	50.03
3.46803	50.02
3.48470	50.02
3.50137	50.02
3.51803	50.02
3.53470	50.02
3.55137	50.02
3.56803	50.03
3.58470	50.03
3.60137	50.04
3.61803	50.04
3.63470	50.04
3.65137	50.02
3.66803	50.02
3.68470	50.02
3.70137	50.03
3.71803	50.04
3.73470	50.04
3.75137	50.04
3.76803	50.05
3.78470	50.05
3.80137	50.05
3.81803	50.05
3.83470	50.05
3.85137	50.05
3.86803	50.05
3.88470	50.06
3.90137	50.06
3.91803	50.07
3.93470	50.07
3.95137	50.07
3.96803	50.07
3.98470	50.07

[Status Trace (Injection Unit Temperature)]
Interval(msec)	1000
# of Points	240
Start Time(min)	0.001
End Time(min)	3.985
Intensity Units	
Intensity Multiplier	1
R.Time (min)	Intensity
0.00137	99.98
0.01803	99.98
0.03470	99.98
0.05137	99.98
0.06803	99.98
0.08470	99.99
0.10137	99.98
0.11803	99.99
0.13470	99.98
0.15137	99.99
0.16803	99.98
0.18470	99.99
0.20137	99.98
0.21803	99.99
0.23470	99.98
0.25137	99.98
0.26803	99.99
0.28470	99.99
0.30137	99.99
0.31803	99.98
0.33470	99.99
0.35137	99.99
0.36803	99.99
0.38470	99.98
0.40137	99.99
0.41803	99.99
0.43470	99.99
0.45137	99.99
0.46803	99.98
0.48470	99.99
0.50137	99.99
0.51803	99.98
0.53470	99.99
0.55137	99.99
0.56803	99.99
0.58470	99.98
0.60137	99.98
0.61803	99.98
0.63470	99.99
0.65137	99.99
0.66803	99.98
0.68470	99.98
0.70137	99.98
0.71803	99.98
0.73470	99.98
0.75137	99.98
0.76803	99.98
0.78470	99.98
0.80137	99.99
0.81803	99.98
0.83470	99.98
0.85137	99.99
0.86803	99.98
0.88470	99.98
0.90137	99.98
0.91803	99.98
0.93470	99.98
0.95137	99.98
0.96803	99.98
0.98470	99.98
1.00137	99.98
1.01803	99.98
1.03470	99.98
1.05137	99.98
1.06803	99.98
1.08470	99.98
1.10137	99.98
1.11803	99.98
1.13470	99.98
1.15137	99.99
1.16803	99.98
1.18470	99.98
1.20137	99.98
1.21803	99.98
1.23470	99.98
1.25137	99.98
1.26803	99.98
1.28470	99.98
1.30137	99.98
1.31803	99.99
1.33470	99.99
1.35137	99.99
1.36803	99.98
1.38470	99.99
1.40137	99.98
1.41803	99.99
1.43470	99.99
1.45137	99.99
1.46803	99.98
1.48470	99.98
1.50137	99.99
1.51803	99.99
1.53470	99.98
1.55137	99.99
1.56803	99.99
1.58470	99.99
1.60137	99.99
1.61803	99.99
1.63470	99.99
1.65137	99.99
1.66803	99.99
1.68470	99.99
1.70137	99.99
1.71803	99.99
1.73470	99.99
1.75137	99.99
1.76803	99.99
1.78470	99.99
1.80137	99.99
1.81803	99.99
1.83470	99.99
1.85137	99.99
1.86803	99.99
1.88470	99.99
1.90137	99.98
1.91803	99.99
1.93470	99.99
1.95137	99.99
1.96803	99.99
1.98470	99.98
2.00137	99.98
2.01803	99.98
2.03470	99.99
2.05137	99.98
2.06803	99.98
2.08470	99.98
2.10137	99.98
2.11803	99.98
2.13470	99.98
2.15137	99.98
2.16803	99.97
2.18470	99.97
2.20137	99.97
2.21803	99.97
2.23470	99.97
2.25137	99.97
2.26803	99.97
2.28470	99.97
2.30137	99.97
2.31803	99.97
2.33470	99.97
2.35137	99.97
2.36803	99.97
2.38470	99.97
2.40137	99.97
2.41803	99.97
2.43470	99.97
2.45137	99.97
2.46803	99.98
2.48470	99.97
2.50137	99.98
2.51803	99.97
2.53470	99.98
2.55137	99.98
2.56803	99.98
2.58470	99.98
2.60137	99.98
2.61803	99.98
2.63470	99.98
2.65137	99.99
2.66803	99.98
2.68470	99.98
2.70137	99.99
2.71803	99.99
2.73470	99.99
2.75137	99.99
2.76803	100.00
2.78470	99.99
2.80137	100.00
2.81803	100.00
2.83470	100.00
2.85137	100.00
2.86803	100.00
2.88470	100.01
2.90137	100.01
2.91803	100.01
2.93470	100.01
2.95137	100.01
2.96803	100.01
2.98470	100.01
3.00137	100.01
3.01803	100.01
3.03470	100.01
3.05137	100.02
3.06803	100.02
3.08470	100.02
3.10137	100.02
3.11803	100.02
3.13470	100.02
3.15137	100.02
3.16803	100.02
3.18470	100.02
3.20137	100.03
3.21803	100.03
3.23470	100.03
3.25137	100.02
3.26803	100.03
3.28470	100.03
3.30137	100.03
3.31803	100.03
3.33470	100.03
3.35137	100.04
3.36803	100.03
3.38470	100.04
3.40137	100.04
3.41803	100.04
3.43470	100.04
3.45137	100.04
3.46803	100.04
3.48470	100.04
3.50137	100.04
3.51803	100.04
3.53470	100.04
3.55137	100.05
3.56803	100.04
3.58470	100.05
3.60137	100.04
3.61803	100.05
3.63470	100.05
3.65137	100.05
3.66803	100.04
3.68470	100.05
3.70137	100.05
3.71803	100.05
3.73470	100.04
3.75137	100.05
3.76803	100.05
3.78470	100.05
3.80137	100.05
3.81803	100.05
3.83470	100.05
3.85137	100.05
3.86803	100.05
3.88470	100.04
3.90137	100.04
3.91803	100.04
3.93470	100.05
3.95137	100.04
3.96803	100.04
3.98470	100.04

[Status Trace (Carrier Gas Pressure)]
Interval(msec)	1000
# of Points	240
Start Time(min)	0.001
End Time(min)	3.985
Intensity Units	
Intensity Multiplier	1
R.Time (min)	Intensity
0.00137	58.00
0.01803	56.56
0.03470	56.17
0.05137	58.50
0.06803	59.88
0.08470	58.34
0.10137	57.97
0.11803	58.00
0.13470	58.01
0.15137	58.01
0.16803	58.00
0.18470	58.00
0.20137	58.00
0.21803	58.00
0.23470	58.00
0.25137	58.00
0.26803	58.00
0.28470	58.00
0.30137	58.00
0.31803	58.00
0.33470	58.00
0.35137	58.00
0.36803	58.00
0.38470	58.00
0.40137	58.00
0.41803	58.00
0.43470	58.00
0.45137	58.00
0.46803	58.00
0.48470	58.00
0.50137	58.00
0.51803	58.00
0.53470	58.00
0.55137	58.00
0.56803	58.00
0.58470	58.00
0.60137	58.00
0.61803	58.00
0.63470	58.00
0.65137	58.00
0.66803	58.00
0.68470	58.00
0.70137	58.00
0.71803	58.00
0.73470	58.00
0.75137	58.00
0.76803	58.00
0.78470	58.00
0.80137	58.00
0.81803	58.00
0.83470	58.00
0.85137	58.00
0.86803	58.00
0.88470	58.00
0.90137	58.00
0.91803	58.00
0.93470	58.00
0.95137	58.00
0.96803	58.00
0.98470	58.00
1.00137	58.00
1.01803	58.00
1.03470	58.00
1.05137	58.00
1.06803	58.00
1.08470	58.00
1.10137	58.00
1.11803	58.00
1.13470	58.00
1.15137	58.00
1.16803	58.00
1.18470	58.00
1.20137	58.00
1.21803	58.00
1.23470	58.00
1.25137	58.00
1.26803	58.00
1.28470	58.00
1.30137	58.00
1.31803	58.00
1.33470	58.00
1.35137	58.00
1.36803	58.00
1.38470	58.00
1.40137	58.00
1.41803	58.00
1.43470	58.00
1.45137	58.00
1.46803	58.00
1.48470	58.00
1.50137	58.00
1.51803	58.00
1.53470	58.00
1.55137	58.00
1.56803	58.00
1.58470	58.00
1.60137	58.00
1.61803	58.00
1.63470	58.00
1.65137	58.00
1.66803	58.00
1.68470	58.01
1.70137	58.00
1.71803	58.00
1.73470	58.00
1.75137	58.00
1.76803	58.00
1.78470	58.00
1.80137	58.00
1.81803	58.00
1.83470	58.00
1.85137	58.00
1.86803	58.00
1.88470	58.00
1.90137	58.00
1.91803	58.00
1.93470	58.00
1.95137	58.00
1.96803	58.00
1.98470	58.00
2.00137	58.00
2.01803	58.00
2.03470	58.00
2.05137	58.00
2.06803	58.00
2.08470	58.00
2.10137	58.00
2.11803	58.00
2.13470	58.00
2.15137	58.00
2.16803	58.00
2.18470	58.00
2.20137	58.00
2.21803	58.00
2.23470	58.00
2.25137	58.00
2.26803	58.00
2.28470	58.00
2.30137	58.00
2.31803	58.00
2.33470	58.00
2.35137	58.00
2.36803	58.00
2.38470	57.99
2.40137	57.99
2.41803	58.00
2.43470	58.00
2.45137	58.00
2.46803	58.00
2.48470	58.00
2.50137	58.00
2.51803	57.99
2.53470	57.99
2.55137	58.00
2.56803	58.00
2.58470	58.00
2.60137	58.00
2.61803	58.00
2.63470	58.00
2.65137	58.00
2.66803	58.00
2.68470	58.00
2.70137	58.00
2.71803	58.00
2.73470	58.00
2.75137	58.00
2.76803	58.00
2.78470	58.00
2.80137	58.00
2.81803	58.00
2.83470	58.00
2.85137	58.00
2.86803	58.00
2.88470	58.00
2.90137	58.00
2.91803	58.00
2.93470	58.00
2.95137	58.00
2.96803	58.00
2.98470	58.00
3.00137	58.00
3.01803	58.00
3.03470	58.00
3.05137	58.00
3.06803	58.00
3.08470	58.00
3.10137	58.00
3.11803	58.00
3.13470	58.00
3.15137	58.00
3.16803	58.00
3.18470	58.00
3.20137	58.00
3.21803	58.00
3.23470	58.00
3.25137	58.00
3.26803	58.00
3.28470	58.00
3.30137	58.00
3.31803	58.00
3.33470	58.00
3.35137	58.00
3.36803	58.00
3.38470	58.00
3.40137	58.00
3.41803	58.00
3.43470	58.00
3.45137	58.00
3.46803	58.00
3.48470	58.00
3.50137	58.00
3.51803	58.00
3.53470	58.00
3.55137	58.00
3.56803	58.00
3.58470	58.00
3.60137	58.00
3.61803	58.00
3.63470	58.00
3.65137	58.00
3.66803	58.00
3.68470	58.00
3.70137	58.00
3.71803	58.00
3.73470	58.00
3.75137	58.00
3.76803	58.00
3.78470	58.00
3.80137	58.00
3.81803	58.00
3.83470	58.00
3.85137	58.00
3.86803	58.00
3.88470	58.00
3.90137	58.00
3.91803	58.00
3.93470	58.00
3.95137	58.00
3.96803	58.00
3.98470	58.00

[Status Trace (Carrier Gas Flow)]
Interval(msec)	1000
# of Points	240
Start Time(min)	0.001
End Time(min)	3.985
Intensity Units	
Intensity Multiplier	1
R.Time (min)	Intensity
0.00137	34.51
0.01803	34.02
0.03470	34.54
0.05137	34.55
0.06803	34.49
0.08470	34.52
0.10137	34.52
0.11803	34.52
0.13470	34.52
0.15137	34.52
0.16803	34.52
0.18470	34.52
0.20137	34.52
0.21803	34.51
0.23470	34.51
0.25137	34.52
0.26803	34.52
0.28470	34.52
0.30137	34.52
0.31803	34.51
0.33470	34.52
0.35137	34.52
0.36803	34.52
0.38470	34.52
0.40137	34.51
0.41803	34.52
0.43470	34.52
0.45137	34.51
0.46803	34.52
0.48470	34.52
0.50137	34.51
0.51803	34.52
0.53470	34.52
0.55137	34.52
0.56803	34.52
0.58470	34.52
0.60137	34.52
0.61803	34.52
0.63470	34.52
0.65137	34.52
0.66803	34.52
0.68470	34.52
0.70137	34.52
0.71803	34.52
0.73470	34.52
0.75137	34.51
0.76803	34.52
0.78470	34.52
0.80137	34.52
0.81803	34.52
0.83470	34.52
0.85137	34.52
0.86803	34.51
0.88470	34.52
0.90137	34.53
0.91803	34.52
0.93470	34.52
0.95137	34.52
0.96803	34.52
0.98470	34.52
1.00137	34.52
1.01803	34.52
1.03470	34.52
1.05137	34.52
1.06803	34.52
1.08470	34.52
1.10137	34.52
1.11803	34.52
1.13470	34.52
1.15137	34.51
1.16803	34.52
1.18470	34.52
1.20137	34.52
1.21803	34.52
1.23470	34.52
1.25137	34.52
1.26803	34.52
1.28470	34.51
1.30137	34.52
1.31803	34.52
1.33470	34.52
1.35137	34.52
1.36803	34.52
1.38470	34.52
1.40137	34.52
1.41803	34.52
1.43470	34.52
1.45137	34.52
1.46803	34.52
1.48470	34.52
1.50137	34.52
1.51803	34.52
1.53470	34.52
1.55137	34.52
1.56803	34.52
1.58470	34.52
1.60137	34.52
1.61803	34.52
1.63470	34.52
1.65137	34.52
1.66803	34.52
1.68470	34.52
1.70137	34.52
1.71803	34.52
1.73470	34.52
1.75137	34.52
1.76803	34.51
1.78470	34.52
1.80137	34.52
1.81803	34.52
1.83470	34.52
1.85137	34.52
1.86803	34.52
1.88470	34.52
1.90137	34.52
1.91803	34.51
1.93470	34.52
1.95137	34.53
1.96803	34.52
1.98470	34.52
2.00137	34.52
2.01803	34.53
2.03470	34.52
2.05137	34.51
2.06803	34.52
2.08470	34.52
2.10137	34.52
2.11803	34.52
2.13470	34.52
2.15137	34.52
2.16803	34.52
2.18470	34.52
2.20137	34.52
2.21803	34.52
2.23470	34.52
2.25137	34.52
2.26803	34.52
2.28470	34.52
2.30137	34.52
2.31803	34.52
2.33470	34.52
2.35137	34.52
2.36803	34.52
2.38470	34.52
2.40137	34.52
2.41803	34.52
2.43470	34.51
2.45137	34.52
2.46803	34.52
2.48470	34.52
2.50137	34.52
2.51803	34.52
2.53470	34.51
2.55137	34.52
2.56803	34.52
2.58470	34.52
2.60137	34.52
2.61803	34.52
2.63470	34.52
2.65137	34.52
2.66803	34.52
2.68470	34.51
2.70137	34.52
2.71803	34.52
2.73470	34.52
2.75137	34.52
2.76803	34.52
2.78470	34.52
2.80137	34.51
2.81803	34.52
2.83470	34.52
2.85137	34.52
2.86803	34.52
2.88470	34.52
2.90137	34.52
2.91803	34.51
2.93470	34.52
2.95137	34.52
2.96803	34.52
2.98470	34.52
3.00137	34.52
3.01803	34.53
3.03470	34.52
3.05137	34.52
3.06803	34.52
3.08470	34.51
3.10137	34.51
3.11803	34.52
3.13470	34.52
3.15137	34.52
3.16803	34.52
3.18470	34.51
3.20137	34.52
3.21803	34.53
3.23470	34.52
3.25137	34.52
3.26803	34.52
3.28470	34.51
3.30137	34.51
3.31803	34.52
3.33470	34.52
3.35137	34.52
3.36803	34.52
3.38470	34.52
3.40137	34.52
3.41803	34.52
3.43470	34.52
3.45137	34.52
3.46803	34.51
3.48470	34.51
3.50137	34.52
3.51803	34.52
3.53470	34.52
3.55137	34.52
3.56803	34.52
3.58470	34.52
3.60137	34.52
3.61803	34.52
3.63470	34.51
3.65137	34.52
3.66803	34.52
3.68470	34.52
3.70137	34.52
3.71803	34.52
3.73470	34.52
3.75137	34.51
3.76803	34.52
3.78470	34.52
3.80137	34.52
3.81803	34.52
3.83470	34.52
3.85137	34.52
3.86803	34.52
3.88470	34.52
3.90137	34.52
3.91803	34.52
3.93470	34.52
3.95137	34.51
3.96803	34.52
3.98470	34.52

[Status Trace (Column Flow)]
Interval(msec)	1000
# of Points	240
Start Time(min)	0.001
End Time(min)	3.985
Intensity Units	
Intensity Multiplier	1
R.Time (min)	Intensity
0.00137	5.53
0.01803	5.37
0.03470	5.32
0.05137	5.59
0.06803	5.76
0.08470	5.57
0.10137	5.53
0.11803	5.53
0.13470	5.54
0.15137	5.54
0.16803	5.53
0.18470	5.54
0.20137	5.53
0.21803	5.53
0.23470	5.53
0.25137	5.54
0.26803	5.54
0.28470	5.54
0.30137	5.54
0.31803	5.54
0.33470	5.54
0.35137	5.54
0.36803	5.54
0.38470	5.54
0.40137	5.54
0.41803	5.54
0.43470	5.54
0.45137	5.54
0.46803	5.54
0.48470	5.54
0.50137	5.54
0.51803	5.54
0.53470	5.54
0.55137	5.54
0.56803	5.54
0.58470	5.54
0.60137	5.54
0.61803	5.54
0.63470	5.54
0.65137	5.54
0.66803	5.54
0.68470	5.54
0.70137	5.54
0.71803	5.54
0.73470	5.54
0.75137	5.54
0.76803	5.54
0.78470	5.54
0.80137	5.54
0.81803	5.54
0.83470	5.54
0.85137	5.54
0.86803	5.54
0.88470	5.54
0.90137	5.54
0.91803	5.54
0.93470	5.54
0.95137	5.54
0.96803	5.54
0.98470	5.54
1.00137	5.54
1.01803	5.54
1.03470	5.54
1.05137	5.54
1.06803	5.54
1.08470	5.54
1.10137	5.54
1.11803	5.54
1.13470	5.54
1.15137	5.54
1.16803	5.54
1.18470	5.54
1.20137	5.54
1.21803	5.54
1.23470	5.54
1.25137	5.54
1.26803	5.54
1.28470	5.54
1.30137	5.54
1.31803	5.54
1.33470	5.54
1.35137	5.54
1.36803	5.54
1.38470	5.54
1.40137	5.54
1.41803	5.54
1.43470	5.54
1.45137	5.54
1.46803	5.54
1.48470	5.54
1.50137	5.54
1.51803	5.54
1.53470	5.54
1.55137	5.54
1.56803	5.54
1.58470	5.54
1.60137	5.54
1.61803	5.53
1.63470	5.53
1.65137	5.52
1.66803	5.51
1.68470	5.50
1.70137	5.49
1.71803	5.48
1.73470	5.47
1.75137	5.46
1.76803	5.45
1.78470	5.44
1.80137	5.43
1.81803	5.42
1.83470	5.41
1.85137	5.40
1.86803	5.39
1.88470	5.38
1.90137	5.37
1.91803	5.36
1.93470	5.35
1.95137	5.34
1.96803	5.33
1.98470	5.32
2.00137	5.31
2.01803	5.30
2.03470	5.29
2.05137	5.28
2.06803	5.27
2.08470	5.26
2.10137	5.25
2.11803	5.24
2.13470	5.23
2.15137	5.22
2.16803	5.21
2.18470	5.20
2.20137	5.19
2.21803	5.18
2.23470	5.17
2.25137	5.17
2.26803	5.16
2.28470	5.15
2.30137	5.14
2.31803	5.13
2.33470	5.12
2.35137	5.11
2.36803	5.10
2.38470	5.10
2.40137	5.10
2.41803	5.10
2.43470	5.10
2.45137	5.10
2.46803	5.10
2.48470	5.10
2.50137	5.10
2.51803	5.10
2.53470	5.10
2.55137	5.10
2.56803	5.10
2.58470	5.10
2.60137	5.10
2.61803	5.10
2.63470	5.10
2.65137	5.10
2.66803	5.10
2.68470	5.10
2.70137	5.10
2.71803	5.10
2.73470	5.10
2.75137	5.10
2.76803	5.10
2.78470	5.10
2.80137	5.10
2.81803	5.10
2.83470	5.10
2.85137	5.10
2.86803	5.10
2.88470	5.10
2.90137	5.09
2.91803	5.09
2.93470	5.09
2.95137	5.09
2.96803	5.09
2.98470	5.09
3.00137	5.09
3.01803	5.09
3.03470	5.09
3.05137	5.09
3.06803	5.09
3.08470	5.09
3.10137	5.09
3.11803	5.09
3.13470	5.09
3.15137	5.09
3.16803	5.09
3.18470	5.09
3.20137	5.09
3.21803	5.09
3.23470	5.09
3.25137	5.09
3.26803	5.09
3.28470	5.09
3.30137	5.09
3.31803	5.09
3.33470	5.09
3.35137	5.09
3.36803	5.09
3.38470	5.09
3.40137	5.09
3.41803	5.09
3.43470	5.09
3.45137	5.09
3.46803	5.09
3.48470	5.09
3.50137	5.09
3.51803	5.09
3.53470	5.09
3.55137	5.09
3.56803	5.09
3.58470	5.09
3.60137	5.09
3.61803	5.09
3.63470	5.09
3.65137	5.09
3.66803	5.09
3.68470	5.09
3.70137	5.09
3.71803	5.09
3.73470	5.09
3.75137	5.09
3.76803	5.09
3.78470	5.09
3.80137	5.09
3.81803	5.09
3.83470	5.09
3.85137	5.09
3.86803	5.09
3.88470	5.09
3.90137	5.09
3.91803	5.09
3.93470	5.09
3.95137	5.09
3.96803	5.09
3.98470	5.09

[Status Trace (Linear Velocity)]
Interval(msec)	1000
# of Points	240
Start Time(min)	0.001
End Time(min)	3.985
Intensity Units	
Intensity Multiplier	1
R.Time (min)	Intensity
0.00137	39.01
0.01803	38.07
0.03470	37.82
0.05137	39.34
0.06803	40.25
0.08470	39.24
0.10137	38.99
0.11803	39.02
0.13470	39.02
0.15137	39.02
0.16803	39.02
0.18470	39.02
0.20137	39.02
0.21803	39.02
0.23470	39.02
0.25137	39.02
0.26803	39.02
0.28470	39.02
0.30137	39.02
0.31803	39.02
0.33470	39.02
0.35137	39.02
0.36803	39.02
0.38470	39.02
0.40137	39.02
0.41803	39.02
0.43470	39.02
0.45137	39.02
0.46803	39.02
0.48470	39.02
0.50137	39.02
0.51803	39.02
0.53470	39.02
0.55137	39.02
0.56803	39.02
0.58470	39.02
0.60137	39.02
0.61803	39.02
0.63470	39.02
0.65137	39.02
0.66803	39.02
0.68470	39.02
0.70137	39.02
0.71803	39.02
0.73470	39.02
0.75137	39.02
0.76803	39.02
0.78470	39.02
0.80137	39.02
0.81803	39.02
0.83470	39.02
0.85137	39.02
0.86803	39.02
0.88470	39.02
0.90137	39.02
0.91803	39.02
0.93470	39.02
0.95137	39.02
0.96803	39.02
0.98470	39.02
1.00137	39.02
1.01803	39.02
1.03470	39.02
1.05137	39.02
1.06803	39.02
1.08470	39.02
1.10137	39.02
1.11803	39.02
1.13470	39.02
1.15137	39.02
1.16803	39.02
1.18470	39.02
1.20137	39.02
1.21803	39.02
1.23470	39.02
1.25137	39.02
1.26803	39.02
1.28470	39.02
1.30137	39.02
1.31803	39.02
1.33470	39.02
1.35137	39.02
1.36803	39.02
1.38470	39.02
1.40137	39.02
1.41803	39.02
1.43470	39.02
1.45137	39.02
1.46803	39.02
1.48470	39.02
1.50137	39.02
1.51803	39.02
1.53470	39.02
1.55137	39.02
1.56803	39.02
1.58470	39.02
1.60137	39.02
1.61803	39.01
1.63470	38.99
1.65137	38.97
1.66803	38.94
1.68470	38.91
1.70137	38.87
1.71803	38.84
1.73470	38.81
1.75137	38.78
1.76803	38.75
1.78470	38.71
1.80137	38.68
1.81803	38.65
1.83470	38.62
1.85137	38.59
1.86803	38.56
1.88470	38.53
1.90137	38.50
1.91803	38.47
1.93470	38.44
1.95137	38.41
1.96803	38.37
1.98470	38.34
2.00137	38.31
2.01803	38.28
2.03470	38.25
2.05137	38.22
2.06803	38.19
2.08470	38.16
2.10137	38.13
2.11803	38.11
2.13470	38.08
2.15137	38.05
2.16803	38.02
2.18470	37.99
2.20137	37.96
2.21803	37.93
2.23470	37.90
2.25137	37.87
2.26803	37.84
2.28470	37.81
2.30137	37.78
2.31803	37.75
2.33470	37.72
2.35137	37.69
2.36803	37.67
2.38470	37.67
2.40137	37.67
2.41803	37.67
2.43470	37.67
2.45137	37.67
2.46803	37.67
2.48470	37.66
2.50137	37.66
2.51803	37.65
2.53470	37.66
2.55137	37.66
2.56803	37.66
2.58470	37.65
2.60137	37.65
2.61803	37.65
2.63470	37.65
2.65137	37.65
2.66803	37.65
2.68470	37.65
2.70137	37.65
2.71803	37.65
2.73470	37.65
2.75137	37.65
2.76803	37.65
2.78470	37.65
2.80137	37.65
2.81803	37.65
2.83470	37.65
2.85137	37.65
2.86803	37.65
2.88470	37.65
2.90137	37.64
2.91803	37.64
2.93470	37.64
2.95137	37.64
2.96803	37.64
2.98470	37.64
3.00137	37.64
3.01803	37.64
3.03470	37.64
3.05137	37.64
3.06803	37.64
3.08470	37.64
3.10137	37.63
3.11803	37.63
3.13470	37.63
3.15137	37.63
3.16803	37.63
3.18470	37.63
3.20137	37.63
3.21803	37.63
3.23470	37.63
3.25137	37.63
3.26803	37.63
3.28470	37.63
3.30137	37.63
3.31803	37.63
3.33470	37.63
3.35137	37.63
3.36803	37.63
3.38470	37.63
3.40137	37.63
3.41803	37.63
3.43470	37.63
3.45137	37.63
3.46803	37.63
3.48470	37.63
3.50137	37.63
3.51803	37.63
3.53470	37.63
3.55137	37.63
3.56803	37.63
3.58470	37.63
3.60137	37.63
3.61803	37.63
3.63470	37.63
3.65137	37.63
3.66803	37.63
3.68470	37.63
3.70137	37.63
3.71803	37.63
3.73470	37.63
3.75137	37.63
3.76803	37.63
3.78470	37.63
3.80137	37.63
3.81803	37.63
3.83470	37.63
3.85137	37.63
3.86803	37.63
3.88470	37.63
3.90137	37.63
3.91803	37.63
3.93470	37.63
3.95137	37.63
3.96803	37.63
3.98470	37.63

