[Header]
Application Name	LabSolutions
Version	5.110
Data File Name	C:\Users\User\Desktop\GC Analyses\Jack\Nachusa Grasslands Sampling\T3 Timepoint July 12th\T3_07122022_064.gcd
Output Date	3/14/2023
Output Time	3:43:34 PM

[File Information]
Type	Data File
Generated	3/13/2023 9:37:42 PM
Generated by	System Administrator
Modified	3/13/2023 9:44:29 PM
Modified by	System Administrator

[Sample Information]
Operator Name	System Administrator
Acquired	3/13/2023 9:40:28 PM
Sample Type	0:Unknown
Level	0
Sample Name	064
Sample ID	064
ISTD Amount1	1
ISTD Amount2	1
ISTD Amount3	1
ISTD Amount4	1
ISTD Amount5	1
ISTD Amount6	1
ISTD Amount7	1
ISTD Amount8	1
ISTD Amount9	1
ISTD Amount10	1
ISTD Amount11	1
ISTD Amount12	1
ISTD Amount13	1
ISTD Amount14	1
ISTD Amount15	1
ISTD Amount16	1
ISTD Amount17	1
ISTD Amount18	1
ISTD Amount19	1
ISTD Amount20	1
ISTD Amount21	1
ISTD Amount22	1
ISTD Amount23	1
ISTD Amount24	1
ISTD Amount25	1
ISTD Amount26	1
ISTD Amount27	1
ISTD Amount28	1
ISTD Amount29	1
ISTD Amount30	1
ISTD Amount31	1
ISTD Amount32	1
Sample Amount	1
Dilution Factor	1
Vial#	63
Injection Volume	1
Injection Count	1
Bar Code	

[Original Files]
Data File	C:\Users\User\Desktop\GC Analyses\Jack\Nachusa Grasslands Sampling\T3 Timepoint July 12th\T3_07122022_064.gcd
Method File	C:\LabSolutions\Data\GHG_4min_2022\ghg3_togas_w_acet_4 min_new_int.gcm
Batch File	C:\LabSolutions\Data\AutoSamplerTesting\T3_07122022.gcb
Report Format File	c:\LabSolutions\System\DEFAULT.lsr

[File Description]


[Configuration]
Instrument Name	C0B7VH3-Instrument1
Instrument #	1
Line #	1
# of Detectors	3
Detector ID	DET#1	DET#2	DET#3
Detector Name	FID	PTCD	ECD
# of Channels	1	1	1

[Peak Table(Ch1)]
# of Peaks	3
Peak#	R.Time	I.Time	F.Time	Area	Height	A/H	Conc.	Mark	ID#	Name	k'	Plate #	Plate Ht.	Tailing	Resolution	Sep.Factor	Area Ratio	Height Ratio	Conc. %	Norm Conc.
1	1.476	1.435	1.534	24327	11955	2.035	171.748	   	1	CO	0.000	9593	15.637	1.259	0.000	0.000	0	0	16.934	16.934
2	1.571	1.538	1.626	4396	2207	1.992	85.004	   	2	CH4	0.065	11454	13.096	1.218	1.602	0.000	0	0	8.381	8.381
3	1.996	1.952	2.458	3018213	1448065	2.084	757.490	   	3	CO2	0.353	17469	8.587	1.344	7.140	5.462	0	0	74.685	74.685

[Peak Table(Ch2)]
# of Peaks	0

[Peak Table(Ch3)]
# of Peaks	6
Peak#	R.Time	I.Time	F.Time	Area	Height	A/H	Conc.	Mark	ID#	Name	k'	Plate #	Plate Ht.	Tailing	Resolution	Sep.Factor	Area Ratio	Height Ratio	Conc. %	Norm Conc.
1	2.462	2.326	2.510	2072	658	3.149	0.000	   			0.000	10375	14.458	0.000	0.000	0.000	0	0	0.000	0.000
2	2.528	2.510	2.583	1144	373	3.067	0.000	 V 			0.027	6020	24.919	0.000	0.581	0.000	0	0	0.000	0.000
3	2.601	2.583	2.682	599	172	3.478	0.000	 V 			0.057	1475	101.721	0.000	0.365	2.111	0	0	0.000	0.000
4	2.880	2.810	3.126	18529	4815	3.848	0.473	S  	1	N2O	0.170	13236	11.333	1.559	1.502	3.000	0	0	100.000	100.000
5	3.115	3.074	3.126	84	53	1.599	0.000	T  	2	SF6	0.265	58485	2.565	0.638	3.095	1.561	0	0	0.000	0.000
6	3.320	3.133	3.995	19543	660	29.618	0.000	   	2	SF6	0.348	195	768.529	2.239	0.410	1.315	0	0	0.000	0.000

[Compound Results(Ch1)]
# of IDs	6
ID#	Name	R.Time	Area	Height	Conc.	Curve	3rd	2nd	1st	Constant	Area Ratio	Height Ratio	Conc. %	Norm Conc.
1	CO	1.476	24327	11955	171.748	Linear	0.000000e+00	0.000000e+00	1.416423e+002	0.000000e+00	0	0	16.934	16.934
2	CH4	1.571	4396	2207	85.004	Linear	0.000000e+00	0.000000e+00	5.171738e+001	0.000000e+00	0	0	8.381	8.381
3	CO2	1.996	3018213	1448065	757.490	Linear	0.000000e+00	0.000000e+00	3.984494e+003	0.000000e+00	0	0	74.685	74.685
4	Ethylene	0.000	0	0	0.000	Linear	0.000000e+00	0.000000e+00	0.000000e+00	0.000000e+00	0	0	0.000	0.000
5	Acetylene	0.000	0	0	0.000	Linear	0.000000e+00	0.000000e+00	0.000000e+00	0.000000e+00	0	0	0.000	0.000
6	Ethane	0.000	0	0	0.000	Linear	0.000000e+00	0.000000e+00	0.000000e+00	0.000000e+00	0	0	0.000	0.000

[Compound Results(Ch2)]
# of IDs	5
ID#	Name	R.Time	Area	Height	Conc.	Curve	3rd	2nd	1st	Constant	Area Ratio	Height Ratio	Conc. %	Norm Conc.
1	Hydrogen	0.000	0	0	0.000	Linear	0.000000e+00	0.000000e+00	0.000000e+00	0.000000e+00	0	0	0.000	0.000
2	Oxygen	0.000	0	0	0.000	Linear	0.000000e+00	0.000000e+00	0.000000e+00	0.000000e+00	0	0	0.000	0.000
3	Nitrogen	0.000	0	0	0.000	Linear	0.000000e+00	0.000000e+00	0.000000e+00	0.000000e+00	0	0	0.000	0.000
4	Methane	0.000	0	0	0.000	Linear	0.000000e+00	0.000000e+00	0.000000e+00	0.000000e+00	0	0	0.000	0.000
5	Carbon Monoxide	0.000	0	0	0.000	Linear	0.000000e+00	0.000000e+00	0.000000e+00	0.000000e+00	0	0	0.000	0.000

[Compound Results(Ch3)]
# of IDs	2
ID#	Name	R.Time	Area	Height	Conc.	Curve	3rd	2nd	1st	Constant	Area Ratio	Height Ratio	Conc. %	Norm Conc.
1	N2O	2.880	18529	4815	0.473	Linear	0.000000e+00	0.000000e+00	3.915173e+004	0.000000e+00	0	0	100.000	100.000
2	SF6	3.320	19627	712	0.000	Linear	0.000000e+00	0.000000e+00	0.000000e+00	0.000000e+00	0	0	0.000	0.000

[Group Results(Ch1)]
# of Groups	0

[Group Results(Ch2)]
# of Groups	0

[Group Results(Ch3)]
# of Groups	0

[Chromatogram (Ch1)]
Interval(msec)	220
# of Points	1091
Start Time(min)	0.002
End Time(min)	3.998
R.Time (min)	Intensity
0.00167	-9
0.00533	-2
0.00900	2
0.01267	5
0.01633	7
0.02000	5
0.02367	6
0.02733	7
0.03100	7
0.03467	7
0.03833	1
0.04200	-9
0.04567	-16
0.04933	-19
0.05300	-19
0.05667	-19
0.06033	-18
0.06400	-18
0.06767	-15
0.07133	-15
0.07500	-12
0.07867	-4
0.08233	9
0.08600	18
0.08967	22
0.09333	22
0.09700	22
0.10067	20
0.10433	18
0.10800	18
0.11167	20
0.11533	19
0.11900	19
0.12267	21
0.12633	24
0.13000	28
0.13367	31
0.13733	36
0.14100	37
0.14467	35
0.14833	31
0.15200	30
0.15567	30
0.15933	27
0.16300	27
0.16667	32
0.17033	35
0.17400	38
0.17767	42
0.18133	47
0.18500	46
0.18867	42
0.19233	39
0.19600	39
0.19967	40
0.20333	39
0.20700	35
0.21067	29
0.21433	23
0.21800	21
0.22167	25
0.22533	34
0.22900	42
0.23267	45
0.23633	38
0.24000	28
0.24367	26
0.24733	30
0.25100	30
0.25467	27
0.25833	24
0.26200	24
0.26567	22
0.26933	17
0.27300	9
0.27667	1
0.28033	-4
0.28400	-9
0.28767	-11
0.29133	-8
0.29500	-6
0.29867	-4
0.30233	-2
0.30600	2
0.30967	7
0.31333	9
0.31700	8
0.32067	3
0.32433	0
0.32800	3
0.33167	5
0.33533	7
0.33900	7
0.34267	3
0.34633	-6
0.35000	-17
0.35367	-26
0.35733	-32
0.36100	-32
0.36467	-29
0.36833	-23
0.37200	-16
0.37567	-7
0.37933	2
0.38300	10
0.38667	14
0.39033	11
0.39400	4
0.39767	-2
0.40133	-8
0.40500	-15
0.40867	-23
0.41233	-26
0.41600	-27
0.41967	-27
0.42333	-25
0.42700	-23
0.43067	-16
0.43433	-4
0.43800	7
0.44167	11
0.44533	9
0.44900	8
0.45267	7
0.45633	5
0.46000	5
0.46367	4
0.46733	4
0.47100	6
0.47467	5
0.47833	4
0.48200	1
0.48567	-4
0.48933	-12
0.49300	-19
0.49667	-22
0.50033	-23
0.50400	-20
0.50767	-14
0.51133	-6
0.51500	-3
0.51867	-10
0.52233	-20
0.52600	-27
0.52967	-29
0.53333	-27
0.53700	-18
0.54067	-15
0.54433	-13
0.54800	-7
0.55167	2
0.55533	10
0.55900	17
0.56267	15
0.56633	3
0.57000	-13
0.57367	-20
0.57733	-23
0.58100	-22
0.58467	-21
0.58833	-22
0.59200	-21
0.59567	-18
0.59933	-18
0.60300	-22
0.60667	-27
0.61033	-27
0.61400	-24
0.61767	-22
0.62133	-19
0.62500	-15
0.62867	-12
0.63233	-11
0.63600	-10
0.63967	-4
0.64333	2
0.64700	-1
0.65067	-8
0.65433	-16
0.65800	-22
0.66167	-27
0.66533	-27
0.66900	-24
0.67267	-22
0.67633	-23
0.68000	-30
0.68367	-36
0.68733	-36
0.69100	-33
0.69467	-31
0.69833	-31
0.70200	-28
0.70567	-26
0.70933	-24
0.71300	-25
0.71667	-22
0.72033	-14
0.72400	-2
0.72767	7
0.73133	11
0.73500	12
0.73867	11
0.74233	15
0.74600	21
0.74967	28
0.75333	31
0.75700	24
0.76067	13
0.76433	5
0.76800	4
0.77167	7
0.77533	7
0.77900	2
0.78267	-0
0.78633	-1
0.79000	-3
0.79367	-4
0.79733	-3
0.80100	-2
0.80467	2
0.80833	6
0.81200	11
0.81567	14
0.81933	13
0.82300	12
0.82667	10
0.83033	7
0.83400	4
0.83767	5
0.84133	8
0.84500	9
0.84867	6
0.85233	3
0.85600	1
0.85967	-0
0.86333	2
0.86700	6
0.87067	14
0.87433	22
0.87800	25
0.88167	24
0.88533	23
0.88900	23
0.89267	25
0.89633	25
0.90000	22
0.90367	13
0.90733	6
0.91100	2
0.91467	1
0.91833	-4
0.92200	-15
0.92567	-25
0.92933	-29
0.93300	-30
0.93667	-32
0.94033	-35
0.94400	-37
0.94767	-37
0.95133	-32
0.95500	-23
0.95867	-19
0.96233	-19
0.96600	-16
0.96967	-7
0.97333	1
0.97700	8
0.98067	11
0.98433	7
0.98800	-3
0.99167	-9
0.99533	-11
0.99900	-14
1.00267	-20
1.00633	-26
1.01000	-29
1.01367	-29
1.01733	-27
1.02100	-24
1.02467	-21
1.02833	-25
1.03200	-28
1.03567	-24
1.03933	-23
1.04300	-22
1.04667	-20
1.05033	-16
1.05400	-11
1.05767	-7
1.06133	-6
1.06500	-6
1.06867	-4
1.07233	-4
1.07600	-1
1.07967	4
1.08333	4
1.08700	-4
1.09067	-13
1.09433	-27
1.09800	-38
1.10167	-46
1.10533	-50
1.10900	-51
1.11267	-51
1.11633	-46
1.12000	-39
1.12367	-36
1.12733	-36
1.13100	-33
1.13467	-30
1.13833	-33
1.14200	-35
1.14567	-36
1.14933	-33
1.15300	-26
1.15667	-18
1.16033	-16
1.16400	-21
1.16767	-27
1.17133	-32
1.17500	-36
1.17867	-39
1.18233	-41
1.18600	-45
1.18967	-53
1.19333	-58
1.19700	-57
1.20067	-55
1.20433	-51
1.20800	-47
1.21167	-43
1.21533	-39
1.21900	-37
1.22267	-34
1.22633	-33
1.23000	-35
1.23367	-44
1.23733	-52
1.24100	-55
1.24467	-52
1.24833	-48
1.25200	-47
1.25567	-51
1.25933	-58
1.26300	-64
1.26667	-66
1.27033	-66
1.27400	-63
1.27767	-59
1.28133	-56
1.28500	-53
1.28867	-51
1.29233	-48
1.29600	-45
1.29967	-45
1.30333	-52
1.30700	-60
1.31067	-66
1.31433	-68
1.31800	-66
1.32167	-60
1.32533	-52
1.32900	-47
1.33267	-46
1.33633	-47
1.34000	-48
1.34367	-47
1.34733	-48
1.35100	-51
1.35467	-51
1.35833	-53
1.36200	-56
1.36567	-56
1.36933	-56
1.37300	-58
1.37667	-59
1.38033	-61
1.38400	-62
1.38767	-62
1.39133	-61
1.39500	-55
1.39867	-43
1.40233	-34
1.40600	-31
1.40967	-33
1.41333	-36
1.41700	-42
1.42067	-52
1.42433	-62
1.42800	-69
1.43167	-71
1.43533	-71
1.43900	-64
1.44267	-28
1.44633	120
1.45000	546
1.45367	1545
1.45733	3325
1.46100	5624
1.46467	7912
1.46833	9814
1.47200	11158
1.47567	11836
1.47933	11736
1.48300	10823
1.48667	9273
1.49033	7415
1.49400	5580
1.49767	3988
1.50133	2731
1.50500	1797
1.50867	1130
1.51233	669
1.51600	357
1.51967	149
1.52333	7
1.52700	-92
1.53067	-155
1.53433	-189
1.53800	-197
1.54167	-161
1.54533	-24
1.54900	265
1.55267	672
1.55633	1110
1.56000	1497
1.56367	1794
1.56733	1976
1.57100	2015
1.57467	1892
1.57833	1618
1.58200	1265
1.58567	914
1.58933	615
1.59300	384
1.59667	219
1.60033	103
1.60400	18
1.60767	-44
1.61133	-88
1.61500	-118
1.61867	-144
1.62233	-168
1.62600	-183
1.62967	-190
1.63333	-192
1.63700	-191
1.64067	-189
1.64433	-187
1.64800	-181
1.65167	-169
1.65533	-156
1.65900	-148
1.66267	-146
1.66633	-148
1.67000	-149
1.67367	-154
1.67733	-163
1.68100	-175
1.68467	-186
1.68833	-195
1.69200	-196
1.69567	-191
1.69933	-187
1.70300	-181
1.70667	-176
1.71033	-174
1.71400	-173
1.71767	-174
1.72133	-174
1.72500	-173
1.72867	-172
1.73233	-168
1.73600	-160
1.73967	-151
1.74333	-149
1.74700	-145
1.75067	-144
1.75433	-144
1.75800	-140
1.76167	-133
1.76533	-128
1.76900	-126
1.77267	-129
1.77633	-131
1.78000	-130
1.78367	-128
1.78733	-125
1.79100	-127
1.79467	-133
1.79833	-139
1.80200	-138
1.80567	-131
1.80933	-122
1.81300	-118
1.81667	-115
1.82033	-111
1.82400	-108
1.82767	-106
1.83133	-104
1.83500	-101
1.83867	-103
1.84233	-111
1.84600	-122
1.84967	-129
1.85333	-131
1.85700	-132
1.86067	-134
1.86433	-138
1.86800	-146
1.87167	-148
1.87533	-142
1.87900	-134
1.88267	-129
1.88633	-130
1.89000	-131
1.89367	-129
1.89733	-132
1.90100	-138
1.90467	-142
1.90833	-143
1.91200	-138
1.91567	-130
1.91933	-121
1.92300	-110
1.92667	-98
1.93033	-91
1.93400	-86
1.93767	-84
1.94133	-86
1.94500	-93
1.94867	-102
1.95233	-96
1.95600	7
1.95967	742
1.96333	4601
1.96700	19797
1.97067	65460
1.97433	170345
1.97800	355350
1.98167	610883
1.98533	895103
1.98900	1155641
1.99267	1348944
1.99633	1447995
2.00000	1443750
2.00367	1343755
2.00733	1171912
2.01100	962330
2.01467	749139
2.01833	557798
2.02200	401324
2.02567	281875
2.02933	195111
2.03300	134234
2.03667	92493
2.04033	64267
2.04400	45295
2.04767	32545
2.05133	23930
2.05500	18048
2.05867	13974
2.06233	11103
2.06600	9039
2.06967	7520
2.07333	6374
2.07700	5486
2.08067	4784
2.08433	4220
2.08800	3762
2.09167	3383
2.09533	3064
2.09900	2794
2.10267	2558
2.10633	2351
2.11000	2171
2.11367	2017
2.11733	1883
2.12100	1761
2.12467	1654
2.12833	1559
2.13200	1468
2.13567	1381
2.13933	1303
2.14300	1242
2.14667	1189
2.15033	1136
2.15400	1089
2.15767	1047
2.16133	1005
2.16500	964
2.16867	927
2.17233	898
2.17600	869
2.17967	838
2.18333	804
2.18700	769
2.19067	734
2.19433	694
2.19800	658
2.20167	634
2.20533	613
2.20900	595
2.21267	581
2.21633	566
2.22000	552
2.22367	539
2.22733	526
2.23100	506
2.23467	488
2.23833	475
2.24200	462
2.24567	451
2.24933	441
2.25300	433
2.25667	426
2.26033	420
2.26400	413
2.26767	405
2.27133	394
2.27500	383
2.27867	376
2.28233	369
2.28600	360
2.28967	352
2.29333	346
2.29700	341
2.30067	337
2.30433	334
2.30800	332
2.31167	328
2.31533	323
2.31900	316
2.32267	309
2.32633	303
2.33000	296
2.33367	288
2.33733	284
2.34100	283
2.34467	280
2.34833	277
2.35200	265
2.35567	255
2.35933	250
2.36300	252
2.36667	254
2.37033	253
2.37400	256
2.37767	259
2.38133	257
2.38500	253
2.38867	248
2.39233	242
2.39600	235
2.39967	227
2.40333	219
2.40700	213
2.41067	212
2.41433	216
2.41800	219
2.42167	222
2.42533	221
2.42900	216
2.43267	209
2.43633	202
2.44000	199
2.44367	200
2.44733	204
2.45100	206
2.45467	206
2.45833	204
2.46200	199
2.46567	194
2.46933	196
2.47300	200
2.47667	197
2.48033	191
2.48400	189
2.48767	188
2.49133	188
2.49500	191
2.49867	196
2.50233	195
2.50600	194
2.50967	198
2.51333	207
2.51700	209
2.52067	206
2.52433	204
2.52800	206
2.53167	209
2.53533	212
2.53900	211
2.54267	204
2.54633	194
2.55000	188
2.55367	187
2.55733	189
2.56100	189
2.56467	189
2.56833	192
2.57200	194
2.57567	194
2.57933	195
2.58300	197
2.58667	195
2.59033	186
2.59400	180
2.59767	174
2.60133	169
2.60500	171
2.60867	177
2.61233	180
2.61600	182
2.61967	186
2.62333	183
2.62700	176
2.63067	170
2.63433	168
2.63800	168
2.64167	174
2.64533	185
2.64900	192
2.65267	193
2.65633	193
2.66000	193
2.66367	196
2.66733	201
2.67100	202
2.67467	202
2.67833	202
2.68200	203
2.68567	206
2.68933	204
2.69300	199
2.69667	195
2.70033	191
2.70400	190
2.70767	195
2.71133	203
2.71500	207
2.71867	208
2.72233	208
2.72600	210
2.72967	214
2.73333	221
2.73700	225
2.74067	225
2.74433	221
2.74800	218
2.75167	217
2.75533	215
2.75900	213
2.76267	208
2.76633	205
2.77000	204
2.77367	209
2.77733	218
2.78100	225
2.78467	228
2.78833	226
2.79200	222
2.79567	219
2.79933	212
2.80300	202
2.80667	194
2.81033	188
2.81400	187
2.81767	195
2.82133	206
2.82500	214
2.82867	222
2.83233	230
2.83600	233
2.83967	233
2.84333	230
2.84700	224
2.85067	218
2.85433	214
2.85800	213
2.86167	218
2.86533	229
2.86900	243
2.87267	250
2.87633	252
2.88000	254
2.88367	252
2.88733	249
2.89100	247
2.89467	241
2.89833	232
2.90200	226
2.90567	225
2.90933	229
2.91300	235
2.91667	241
2.92033	248
2.92400	252
2.92767	247
2.93133	239
2.93500	231
2.93867	226
2.94233	226
2.94600	233
2.94967	244
2.95333	251
2.95700	247
2.96067	238
2.96433	232
2.96800	233
2.97167	238
2.97533	243
2.97900	247
2.98267	248
2.98633	247
2.99000	247
2.99367	250
2.99733	258
3.00100	261
3.00467	255
3.00833	249
3.01200	243
3.01567	240
3.01933	240
3.02300	240
3.02667	242
3.03033	245
3.03400	245
3.03767	247
3.04133	250
3.04500	254
3.04867	258
3.05233	261
3.05600	263
3.05967	265
3.06333	260
3.06700	253
3.07067	247
3.07433	243
3.07800	243
3.08167	244
3.08533	248
3.08900	250
3.09267	248
3.09633	246
3.10000	249
3.10367	256
3.10733	264
3.11100	272
3.11467	279
3.11833	279
3.12200	276
3.12567	272
3.12933	268
3.13300	263
3.13667	257
3.14033	249
3.14400	244
3.14767	236
3.15133	226
3.15500	218
3.15867	211
3.16233	210
3.16600	214
3.16967	223
3.17333	232
3.17700	238
3.18067	241
3.18433	247
3.18800	253
3.19167	260
3.19533	270
3.19900	275
3.20267	269
3.20633	256
3.21000	242
3.21367	227
3.21733	217
3.22100	214
3.22467	216
3.22833	222
3.23200	228
3.23567	235
3.23933	239
3.24300	240
3.24667	243
3.25033	251
3.25400	256
3.25767	254
3.26133	245
3.26500	235
3.26867	227
3.27233	221
3.27600	219
3.27967	218
3.28333	219
3.28700	220
3.29067	224
3.29433	229
3.29800	235
3.30167	242
3.30533	250
3.30900	258
3.31267	258
3.31633	256
3.32000	253
3.32367	251
3.32733	245
3.33100	241
3.33467	237
3.33833	229
3.34200	223
3.34567	220
3.34933	220
3.35300	220
3.35667	221
3.36033	221
3.36400	220
3.36767	222
3.37133	225
3.37500	225
3.37867	222
3.38233	219
3.38600	220
3.38967	224
3.39333	228
3.39700	229
3.40067	233
3.40433	236
3.40800	235
3.41167	229
3.41533	226
3.41900	225
3.42267	228
3.42633	223
3.43000	211
3.43367	203
3.43733	198
3.44100	197
3.44467	199
3.44833	205
3.45200	211
3.45567	214
3.45933	216
3.46300	217
3.46667	216
3.47033	213
3.47400	209
3.47767	206
3.48133	210
3.48500	217
3.48867	225
3.49233	229
3.49600	228
3.49967	227
3.50333	227
3.50700	229
3.51067	233
3.51433	237
3.51800	234
3.52167	229
3.52533	225
3.52900	220
3.53267	220
3.53633	222
3.54000	222
3.54367	221
3.54733	219
3.55100	221
3.55467	222
3.55833	224
3.56200	225
3.56567	225
3.56933	225
3.57300	224
3.57667	220
3.58033	216
3.58400	211
3.58767	205
3.59133	201
3.59500	204
3.59867	207
3.60233	205
3.60600	200
3.60967	195
3.61333	189
3.61700	186
3.62067	189
3.62433	196
3.62800	198
3.63167	199
3.63533	201
3.63900	206
3.64267	210
3.64633	211
3.65000	210
3.65367	209
3.65733	208
3.66100	208
3.66467	208
3.66833	207
3.67200	203
3.67567	199
3.67933	194
3.68300	190
3.68667	190
3.69033	191
3.69400	192
3.69767	192
3.70133	189
3.70500	183
3.70867	182
3.71233	182
3.71600	186
3.71967	191
3.72333	194
3.72700	192
3.73067	187
3.73433	180
3.73800	173
3.74167	172
3.74533	174
3.74900	172
3.75267	171
3.75633	171
3.76000	175
3.76367	181
3.76733	185
3.77100	183
3.77467	180
3.77833	177
3.78200	178
3.78567	180
3.78933	179
3.79300	179
3.79667	176
3.80033	172
3.80400	172
3.80767	179
3.81133	191
3.81500	204
3.81867	211
3.82233	214
3.82600	216
3.82967	213
3.83333	200
3.83700	184
3.84067	173
3.84433	164
3.84800	155
3.85167	151
3.85533	154
3.85900	157
3.86267	160
3.86633	161
3.87000	158
3.87367	153
3.87733	148
3.88100	146
3.88467	147
3.88833	151
3.89200	159
3.89567	169
3.89933	178
3.90300	186
3.90667	190
3.91033	186
3.91400	178
3.91767	170
3.92133	165
3.92500	166
3.92867	166
3.93233	160
3.93600	147
3.93967	135
3.94333	130
3.94700	132
3.95067	135
3.95433	143
3.95800	153
3.96167	157
3.96533	153
3.96900	147
3.97267	146
3.97633	147
3.98000	151
3.98367	157
3.98733	163
3.99100	171
3.99467	176
3.99833	171

[Chromatogram (Ch2)]
Interval(msec)	220
# of Points	1091
Start Time(min)	0.002
End Time(min)	3.998
R.Time (min)	Intensity
0.00167	1
0.00533	1
0.00900	1
0.01267	1
0.01633	2
0.02000	2
0.02367	2
0.02733	2
0.03100	3
0.03467	3
0.03833	3
0.04200	3
0.04567	3
0.04933	3
0.05300	3
0.05667	3
0.06033	3
0.06400	3
0.06767	3
0.07133	3
0.07500	2
0.07867	2
0.08233	1
0.08600	1
0.08967	1
0.09333	1
0.09700	1
0.10067	1
0.10433	1
0.10800	1
0.11167	1
0.11533	1
0.11900	1
0.12267	1
0.12633	0
0.13000	0
0.13367	-0
0.13733	-0
0.14100	-0
0.14467	-0
0.14833	-0
0.15200	-0
0.15567	-0
0.15933	-0
0.16300	-1
0.16667	-1
0.17033	-1
0.17400	-1
0.17767	-1
0.18133	-1
0.18500	-1
0.18867	-1
0.19233	-0
0.19600	-0
0.19967	0
0.20333	0
0.20700	0
0.21067	0
0.21433	0
0.21800	0
0.22167	0
0.22533	0
0.22900	0
0.23267	1
0.23633	1
0.24000	1
0.24367	1
0.24733	1
0.25100	1
0.25467	1
0.25833	1
0.26200	1
0.26567	1
0.26933	1
0.27300	1
0.27667	1
0.28033	2
0.28400	2
0.28767	2
0.29133	2
0.29500	2
0.29867	2
0.30233	1
0.30600	1
0.30967	1
0.31333	0
0.31700	0
0.32067	-0
0.32433	-0
0.32800	-0
0.33167	-0
0.33533	-0
0.33900	-0
0.34267	-0
0.34633	-0
0.35000	-0
0.35367	-0
0.35733	-0
0.36100	0
0.36467	0
0.36833	0
0.37200	0
0.37567	0
0.37933	0
0.38300	0
0.38667	0
0.39033	-0
0.39400	-0
0.39767	-1
0.40133	-1
0.40500	-1
0.40867	-1
0.41233	-0
0.41600	-0
0.41967	-0
0.42333	-0
0.42700	-0
0.43067	0
0.43433	0
0.43800	1
0.44167	1
0.44533	1
0.44900	1
0.45267	1
0.45633	0
0.46000	-0
0.46367	-1
0.46733	-2
0.47100	-3
0.47467	-3
0.47833	-4
0.48200	-4
0.48567	-5
0.48933	-5
0.49300	-5
0.49667	-5
0.50033	-5
0.50400	-5
0.50767	-5
0.51133	-5
0.51500	-4
0.51867	-4
0.52233	-4
0.52600	-4
0.52967	-5
0.53333	-4
0.53700	-4
0.54067	-4
0.54433	-4
0.54800	-3
0.55167	-3
0.55533	-2
0.55900	-2
0.56267	-2
0.56633	-2
0.57000	-1
0.57367	-1
0.57733	-1
0.58100	-0
0.58467	0
0.58833	0
0.59200	1
0.59567	1
0.59933	1
0.60300	1
0.60667	1
0.61033	1
0.61400	1
0.61767	1
0.62133	1
0.62500	0
0.62867	0
0.63233	0
0.63600	0
0.63967	0
0.64333	-0
0.64700	-0
0.65067	-0
0.65433	-0
0.65800	-1
0.66167	-1
0.66533	-1
0.66900	-1
0.67267	-1
0.67633	-1
0.68000	-0
0.68367	-0
0.68733	-0
0.69100	-0
0.69467	-0
0.69833	0
0.70200	0
0.70567	0
0.70933	0
0.71300	0
0.71667	0
0.72033	0
0.72400	0
0.72767	1
0.73133	1
0.73500	1
0.73867	1
0.74233	1
0.74600	1
0.74967	1
0.75333	1
0.75700	0
0.76067	0
0.76433	0
0.76800	-0
0.77167	-0
0.77533	-0
0.77900	-0
0.78267	-0
0.78633	-0
0.79000	-0
0.79367	0
0.79733	0
0.80100	0
0.80467	0
0.80833	0
0.81200	0
0.81567	0
0.81933	0
0.82300	-0
0.82667	-0
0.83033	-0
0.83400	-0
0.83767	-0
0.84133	-0
0.84500	-0
0.84867	-0
0.85233	-0
0.85600	-1
0.85967	-1
0.86333	-1
0.86700	-1
0.87067	-1
0.87433	-1
0.87800	-0
0.88167	-0
0.88533	-0
0.88900	-1
0.89267	-1
0.89633	-1
0.90000	-1
0.90367	-1
0.90733	-2
0.91100	-2
0.91467	-2
0.91833	-2
0.92200	-1
0.92567	-1
0.92933	-1
0.93300	-1
0.93667	-1
0.94033	-1
0.94400	-2
0.94767	-2
0.95133	-2
0.95500	-3
0.95867	-3
0.96233	-3
0.96600	-3
0.96967	-3
0.97333	-3
0.97700	-3
0.98067	-3
0.98433	-3
0.98800	-3
0.99167	-3
0.99533	-3
0.99900	-2
1.00267	-2
1.00633	-2
1.01000	-1
1.01367	-1
1.01733	-1
1.02100	-0
1.02467	-0
1.02833	0
1.03200	1
1.03567	1
1.03933	1
1.04300	1
1.04667	1
1.05033	1
1.05400	2
1.05767	2
1.06133	2
1.06500	1
1.06867	1
1.07233	1
1.07600	1
1.07967	1
1.08333	-0
1.08700	-1
1.09067	-1
1.09433	-1
1.09800	-1
1.10167	-1
1.10533	-1
1.10900	-1
1.11267	-0
1.11633	0
1.12000	1
1.12367	1
1.12733	1
1.13100	1
1.13467	1
1.13833	1
1.14200	0
1.14567	-0
1.14933	-1
1.15300	-2
1.15667	-2
1.16033	-3
1.16400	-4
1.16767	-5
1.17133	-5
1.17500	-5
1.17867	-5
1.18233	-5
1.18600	-5
1.18967	-5
1.19333	-5
1.19700	-5
1.20067	-4
1.20433	-4
1.20800	-3
1.21167	-3
1.21533	-2
1.21900	-2
1.22267	-2
1.22633	-1
1.23000	-1
1.23367	-1
1.23733	-1
1.24100	-1
1.24467	-2
1.24833	-2
1.25200	-2
1.25567	-2
1.25933	-3
1.26300	-3
1.26667	-3
1.27033	-3
1.27400	-3
1.27767	-3
1.28133	-3
1.28500	-3
1.28867	-3
1.29233	-2
1.29600	-2
1.29967	-2
1.30333	-2
1.30700	-2
1.31067	-2
1.31433	-2
1.31800	-2
1.32167	-2
1.32533	-2
1.32900	-2
1.33267	-2
1.33633	-2
1.34000	-2
1.34367	-3
1.34733	-3
1.35100	-2
1.35467	-2
1.35833	-2
1.36200	-2
1.36567	-2
1.36933	-2
1.37300	-1
1.37667	-1
1.38033	-1
1.38400	-1
1.38767	-1
1.39133	-1
1.39500	-2
1.39867	-2
1.40233	-2
1.40600	-2
1.40967	-2
1.41333	-2
1.41700	-2
1.42067	-2
1.42433	-2
1.42800	-2
1.43167	-2
1.43533	-2
1.43900	-2
1.44267	-2
1.44633	-2
1.45000	-2
1.45367	-2
1.45733	-2
1.46100	-2
1.46467	-3
1.46833	-3
1.47200	-3
1.47567	-3
1.47933	-3
1.48300	-3
1.48667	-3
1.49033	-4
1.49400	-4
1.49767	-4
1.50133	-4
1.50500	-5
1.50867	-5
1.51233	-4
1.51600	-4
1.51967	-4
1.52333	-4
1.52700	-4
1.53067	-4
1.53433	-3
1.53800	-3
1.54167	-2
1.54533	-2
1.54900	-2
1.55267	-2
1.55633	-2
1.56000	-2
1.56367	-1
1.56733	-1
1.57100	-1
1.57467	-1
1.57833	-1
1.58200	-1
1.58567	-1
1.58933	-2
1.59300	-3
1.59667	-3
1.60033	-5
1.60400	-6
1.60767	-8
1.61133	-10
1.61500	-12
1.61867	-15
1.62233	-17
1.62600	-20
1.62967	-23
1.63333	-26
1.63700	-29
1.64067	-33
1.64433	-36
1.64800	-40
1.65167	-43
1.65533	-47
1.65900	-51
1.66267	-55
1.66633	-59
1.67000	-63
1.67367	-67
1.67733	-72
1.68100	-77
1.68467	-81
1.68833	-86
1.69200	-90
1.69567	-94
1.69933	-97
1.70300	-100
1.70667	-102
1.71033	-103
1.71400	-104
1.71767	-105
1.72133	-105
1.72500	-105
1.72867	-105
1.73233	-105
1.73600	-104
1.73967	-104
1.74333	-103
1.74700	-103
1.75067	-103
1.75433	-103
1.75800	-104
1.76167	-105
1.76533	-107
1.76900	-108
1.77267	-110
1.77633	-111
1.78000	-112
1.78367	-113
1.78733	-113
1.79100	-114
1.79467	-114
1.79833	-114
1.80200	-114
1.80567	-115
1.80933	-115
1.81300	-116
1.81667	-116
1.82033	-116
1.82400	-116
1.82767	-116
1.83133	-115
1.83500	-114
1.83867	-113
1.84233	-112
1.84600	-111
1.84967	-110
1.85333	-110
1.85700	-110
1.86067	-111
1.86433	-111
1.86800	-112
1.87167	-112
1.87533	-112
1.87900	-112
1.88267	-112
1.88633	-112
1.89000	-112
1.89367	-112
1.89733	-112
1.90100	-112
1.90467	-112
1.90833	-112
1.91200	-112
1.91567	-112
1.91933	-112
1.92300	-112
1.92667	-112
1.93033	-111
1.93400	-111
1.93767	-110
1.94133	-110
1.94500	-110
1.94867	-110
1.95233	-110
1.95600	-111
1.95967	-111
1.96333	-111
1.96700	-111
1.97067	-110
1.97433	-110
1.97800	-110
1.98167	-109
1.98533	-109
1.98900	-109
1.99267	-109
1.99633	-110
2.00000	-110
2.00367	-110
2.00733	-110
2.01100	-109
2.01467	-109
2.01833	-108
2.02200	-108
2.02567	-107
2.02933	-107
2.03300	-106
2.03667	-105
2.04033	-105
2.04400	-104
2.04767	-104
2.05133	-103
2.05500	-103
2.05867	-102
2.06233	-102
2.06600	-101
2.06967	-101
2.07333	-100
2.07700	-100
2.08067	-100
2.08433	-100
2.08800	-100
2.09167	-101
2.09533	-101
2.09900	-100
2.10267	-100
2.10633	-100
2.11000	-99
2.11367	-99
2.11733	-99
2.12100	-100
2.12467	-100
2.12833	-99
2.13200	-99
2.13567	-98
2.13933	-97
2.14300	-96
2.14667	-96
2.15033	-95
2.15400	-95
2.15767	-95
2.16133	-95
2.16500	-95
2.16867	-95
2.17233	-95
2.17600	-95
2.17967	-95
2.18333	-95
2.18700	-94
2.19067	-94
2.19433	-93
2.19800	-92
2.20167	-91
2.20533	-90
2.20900	-90
2.21267	-89
2.21633	-89
2.22000	-88
2.22367	-88
2.22733	-87
2.23100	-87
2.23467	-87
2.23833	-87
2.24200	-88
2.24567	-87
2.24933	-87
2.25300	-87
2.25667	-86
2.26033	-85
2.26400	-84
2.26767	-83
2.27133	-82
2.27500	-81
2.27867	-81
2.28233	-81
2.28600	-81
2.28967	-81
2.29333	-81
2.29700	-81
2.30067	-81
2.30433	-81
2.30800	-81
2.31167	-80
2.31533	-80
2.31900	-80
2.32267	-79
2.32633	-79
2.33000	-79
2.33367	-79
2.33733	-79
2.34100	-79
2.34467	-78
2.34833	-77
2.35200	-76
2.35567	-75
2.35933	-74
2.36300	-73
2.36667	-71
2.37033	-70
2.37400	-68
2.37767	-65
2.38133	-62
2.38500	-58
2.38867	-54
2.39233	-50
2.39600	-45
2.39967	-41
2.40333	-36
2.40700	-32
2.41067	-27
2.41433	-23
2.41800	-20
2.42167	-17
2.42533	-15
2.42900	-13
2.43267	-11
2.43633	-10
2.44000	-9
2.44367	-8
2.44733	-7
2.45100	-7
2.45467	-7
2.45833	-7
2.46200	-7
2.46567	-7
2.46933	-6
2.47300	-5
2.47667	-4
2.48033	-2
2.48400	-1
2.48767	0
2.49133	2
2.49500	3
2.49867	4
2.50233	6
2.50600	7
2.50967	8
2.51333	9
2.51700	10
2.52067	11
2.52433	11
2.52800	12
2.53167	12
2.53533	12
2.53900	11
2.54267	11
2.54633	11
2.55000	12
2.55367	12
2.55733	13
2.56100	13
2.56467	13
2.56833	14
2.57200	14
2.57567	14
2.57933	14
2.58300	13
2.58667	13
2.59033	13
2.59400	13
2.59767	14
2.60133	14
2.60500	14
2.60867	15
2.61233	16
2.61600	16
2.61967	16
2.62333	16
2.62700	17
2.63067	17
2.63433	18
2.63800	18
2.64167	18
2.64533	19
2.64900	19
2.65267	19
2.65633	19
2.66000	19
2.66367	19
2.66733	19
2.67100	19
2.67467	19
2.67833	19
2.68200	19
2.68567	19
2.68933	20
2.69300	20
2.69667	20
2.70033	20
2.70400	21
2.70767	21
2.71133	22
2.71500	23
2.71867	24
2.72233	25
2.72600	25
2.72967	26
2.73333	26
2.73700	26
2.74067	26
2.74433	25
2.74800	25
2.75167	24
2.75533	24
2.75900	24
2.76267	24
2.76633	24
2.77000	24
2.77367	24
2.77733	24
2.78100	24
2.78467	24
2.78833	24
2.79200	24
2.79567	25
2.79933	25
2.80300	25
2.80667	25
2.81033	25
2.81400	25
2.81767	25
2.82133	25
2.82500	25
2.82867	25
2.83233	25
2.83600	25
2.83967	25
2.84333	24
2.84700	21
2.85067	18
2.85433	12
2.85800	3
2.86167	-9
2.86533	-24
2.86900	-44
2.87267	-69
2.87633	-98
2.88000	-131
2.88367	-168
2.88733	-209
2.89100	-253
2.89467	-301
2.89833	-351
2.90200	-403
2.90567	-457
2.90933	-512
2.91300	-567
2.91667	-623
2.92033	-678
2.92400	-733
2.92767	-786
2.93133	-837
2.93500	-890
2.93867	-947
2.94233	-1006
2.94600	-1059
2.94967	-1095
2.95333	-1107
2.95700	-1093
2.96067	-1054
2.96433	-997
2.96800	-927
2.97167	-850
2.97533	-768
2.97900	-688
2.98267	-610
2.98633	-537
2.99000	-470
2.99367	-409
2.99733	-354
3.00100	-305
3.00467	-261
3.00833	-223
3.01200	-190
3.01567	-161
3.01933	-136
3.02300	-115
3.02667	-96
3.03033	-80
3.03400	-67
3.03767	-55
3.04133	-45
3.04500	-36
3.04867	-29
3.05233	-23
3.05600	-18
3.05967	-13
3.06333	-9
3.06700	-6
3.07067	-4
3.07433	-1
3.07800	1
3.08167	3
3.08533	4
3.08900	6
3.09267	7
3.09633	8
3.10000	9
3.10367	10
3.10733	10
3.11100	11
3.11467	12
3.11833	12
3.12200	12
3.12567	13
3.12933	13
3.13300	13
3.13667	13
3.14033	13
3.14400	14
3.14767	14
3.15133	14
3.15500	15
3.15867	15
3.16233	16
3.16600	16
3.16967	16
3.17333	17
3.17700	17
3.18067	17
3.18433	18
3.18800	18
3.19167	19
3.19533	19
3.19900	19
3.20267	20
3.20633	20
3.21000	20
3.21367	21
3.21733	21
3.22100	21
3.22467	22
3.22833	22
3.23200	22
3.23567	22
3.23933	22
3.24300	22
3.24667	22
3.25033	22
3.25400	22
3.25767	23
3.26133	23
3.26500	23
3.26867	23
3.27233	23
3.27600	23
3.27967	23
3.28333	23
3.28700	23
3.29067	23
3.29433	23
3.29800	23
3.30167	23
3.30533	23
3.30900	23
3.31267	23
3.31633	23
3.32000	23
3.32367	23
3.32733	23
3.33100	23
3.33467	23
3.33833	23
3.34200	24
3.34567	24
3.34933	24
3.35300	25
3.35667	25
3.36033	25
3.36400	25
3.36767	26
3.37133	26
3.37500	27
3.37867	27
3.38233	27
3.38600	27
3.38967	28
3.39333	28
3.39700	28
3.40067	28
3.40433	28
3.40800	27
3.41167	27
3.41533	27
3.41900	27
3.42267	27
3.42633	26
3.43000	26
3.43367	26
3.43733	26
3.44100	26
3.44467	26
3.44833	26
3.45200	26
3.45567	26
3.45933	27
3.46300	27
3.46667	27
3.47033	27
3.47400	27
3.47767	27
3.48133	27
3.48500	27
3.48867	28
3.49233	28
3.49600	28
3.49967	28
3.50333	27
3.50700	27
3.51067	27
3.51433	27
3.51800	27
3.52167	26
3.52533	26
3.52900	26
3.53267	26
3.53633	26
3.54000	25
3.54367	25
3.54733	25
3.55100	25
3.55467	24
3.55833	24
3.56200	24
3.56567	24
3.56933	24
3.57300	24
3.57667	25
3.58033	25
3.58400	25
3.58767	25
3.59133	25
3.59500	25
3.59867	25
3.60233	25
3.60600	25
3.60967	25
3.61333	25
3.61700	25
3.62067	25
3.62433	25
3.62800	26
3.63167	26
3.63533	26
3.63900	26
3.64267	26
3.64633	26
3.65000	26
3.65367	26
3.65733	26
3.66100	26
3.66467	26
3.66833	26
3.67200	26
3.67567	26
3.67933	26
3.68300	26
3.68667	26
3.69033	26
3.69400	26
3.69767	26
3.70133	26
3.70500	26
3.70867	26
3.71233	26
3.71600	26
3.71967	26
3.72333	26
3.72700	26
3.73067	26
3.73433	26
3.73800	25
3.74167	25
3.74533	25
3.74900	25
3.75267	25
3.75633	25
3.76000	25
3.76367	25
3.76733	24
3.77100	24
3.77467	24
3.77833	24
3.78200	24
3.78567	24
3.78933	24
3.79300	24
3.79667	24
3.80033	24
3.80400	24
3.80767	24
3.81133	24
3.81500	24
3.81867	24
3.82233	24
3.82600	24
3.82967	24
3.83333	24
3.83700	24
3.84067	25
3.84433	25
3.84800	25
3.85167	25
3.85533	26
3.85900	26
3.86267	26
3.86633	26
3.87000	26
3.87367	26
3.87733	26
3.88100	26
3.88467	26
3.88833	26
3.89200	26
3.89567	26
3.89933	26
3.90300	26
3.90667	26
3.91033	26
3.91400	26
3.91767	26
3.92133	26
3.92500	26
3.92867	26
3.93233	25
3.93600	25
3.93967	25
3.94333	25
3.94700	25
3.95067	25
3.95433	24
3.95800	24
3.96167	25
3.96533	25
3.96900	25
3.97267	25
3.97633	25
3.98000	25
3.98367	25
3.98733	26
3.99100	26
3.99467	26
3.99833	26

[Chromatogram (Ch3)]
Interval(msec)	220
# of Points	1091
Start Time(min)	0.002
End Time(min)	3.998
R.Time (min)	Intensity
0.00167	0
0.00533	1
0.00900	2
0.01267	2
0.01633	1
0.02000	-0
0.02367	1
0.02733	3
0.03100	3
0.03467	2
0.03833	-2
0.04200	-4
0.04567	-3
0.04933	-2
0.05300	-2
0.05667	-0
0.06033	-0
0.06400	-1
0.06767	-3
0.07133	-5
0.07500	-3
0.07867	-2
0.08233	-2
0.08600	-1
0.08967	1
0.09333	2
0.09700	2
0.10067	2
0.10433	2
0.10800	2
0.11167	2
0.11533	1
0.11900	-1
0.12267	-2
0.12633	-2
0.13000	-2
0.13367	-3
0.13733	-1
0.14100	-0
0.14467	-2
0.14833	-1
0.15200	-0
0.15567	-1
0.15933	-1
0.16300	-2
0.16667	-2
0.17033	-3
0.17400	-5
0.17767	-5
0.18133	-3
0.18500	-0
0.18867	0
0.19233	-1
0.19600	-1
0.19967	-1
0.20333	-2
0.20700	-4
0.21067	-5
0.21433	-5
0.21800	-5
0.22167	-4
0.22533	-5
0.22900	-5
0.23267	-5
0.23633	-6
0.24000	-6
0.24367	-6
0.24733	-6
0.25100	-4
0.25467	-3
0.25833	-4
0.26200	-5
0.26567	-6
0.26933	-6
0.27300	-4
0.27667	-3
0.28033	-4
0.28400	-3
0.28767	-3
0.29133	-2
0.29500	-3
0.29867	-2
0.30233	-2
0.30600	-2
0.30967	-1
0.31333	-2
0.31700	-1
0.32067	1
0.32433	2
0.32800	1
0.33167	-1
0.33533	-1
0.33900	-1
0.34267	0
0.34633	1
0.35000	2
0.35367	3
0.35733	1
0.36100	-0
0.36467	1
0.36833	1
0.37200	1
0.37567	2
0.37933	2
0.38300	1
0.38667	1
0.39033	1
0.39400	-0
0.39767	0
0.40133	2
0.40500	3
0.40867	2
0.41233	0
0.41600	0
0.41967	0
0.42333	0
0.42700	0
0.43067	-0
0.43433	-1
0.43800	-3
0.44167	-4
0.44533	-4
0.44900	-3
0.45267	-1
0.45633	-1
0.46000	-1
0.46367	-0
0.46733	0
0.47100	0
0.47467	1
0.47833	1
0.48200	3
0.48567	3
0.48933	2
0.49300	0
0.49667	-1
0.50033	-1
0.50400	0
0.50767	2
0.51133	3
0.51500	2
0.51867	2
0.52233	1
0.52600	-1
0.52967	-2
0.53333	1
0.53700	4
0.54067	7
0.54433	9
0.54800	10
0.55167	8
0.55533	5
0.55900	3
0.56267	1
0.56633	-1
0.57000	-3
0.57367	-3
0.57733	-2
0.58100	1
0.58467	1
0.58833	-1
0.59200	-1
0.59567	0
0.59933	2
0.60300	4
0.60667	3
0.61033	1
0.61400	3
0.61767	5
0.62133	4
0.62500	2
0.62867	1
0.63233	-1
0.63600	0
0.63967	-0
0.64333	-1
0.64700	-0
0.65067	-0
0.65433	-1
0.65800	1
0.66167	4
0.66533	6
0.66900	5
0.67267	5
0.67633	5
0.68000	3
0.68367	2
0.68733	-0
0.69100	-1
0.69467	-1
0.69833	1
0.70200	3
0.70567	3
0.70933	3
0.71300	5
0.71667	7
0.72033	7
0.72400	7
0.72767	7
0.73133	5
0.73500	5
0.73867	6
0.74233	6
0.74600	6
0.74967	6
0.75333	5
0.75700	6
0.76067	5
0.76433	4
0.76800	3
0.77167	6
0.77533	6
0.77900	6
0.78267	5
0.78633	3
0.79000	4
0.79367	5
0.79733	6
0.80100	8
0.80467	11
0.80833	11
0.81200	11
0.81567	10
0.81933	9
0.82300	7
0.82667	6
0.83033	6
0.83400	7
0.83767	8
0.84133	8
0.84500	9
0.84867	10
0.85233	10
0.85600	10
0.85967	11
0.86333	13
0.86700	15
0.87067	15
0.87433	15
0.87800	14
0.88167	12
0.88533	13
0.88900	16
0.89267	16
0.89633	15
0.90000	13
0.90367	11
0.90733	11
0.91100	11
0.91467	11
0.91833	12
0.92200	14
0.92567	15
0.92933	15
0.93300	17
0.93667	19
0.94033	19
0.94400	18
0.94767	17
0.95133	15
0.95500	13
0.95867	11
0.96233	12
0.96600	14
0.96967	15
0.97333	17
0.97700	20
0.98067	21
0.98433	19
0.98800	17
0.99167	17
0.99533	17
0.99900	16
1.00267	16
1.00633	18
1.01000	21
1.01367	23
1.01733	23
1.02100	21
1.02467	18
1.02833	16
1.03200	15
1.03567	17
1.03933	19
1.04300	18
1.04667	16
1.05033	16
1.05400	15
1.05767	15
1.06133	16
1.06500	18
1.06867	18
1.07233	16
1.07600	16
1.07967	15
1.08333	15
1.08700	17
1.09067	18
1.09433	18
1.09800	17
1.10167	17
1.10533	16
1.10900	16
1.11267	16
1.11633	16
1.12000	17
1.12367	18
1.12733	19
1.13100	20
1.13467	19
1.13833	18
1.14200	17
1.14567	17
1.14933	17
1.15300	17
1.15667	17
1.16033	18
1.16400	20
1.16767	23
1.17133	23
1.17500	21
1.17867	20
1.18233	19
1.18600	20
1.18967	22
1.19333	24
1.19700	23
1.20067	23
1.20433	22
1.20800	20
1.21167	20
1.21533	19
1.21900	17
1.22267	15
1.22633	15
1.23000	16
1.23367	17
1.23733	17
1.24100	17
1.24467	14
1.24833	14
1.25200	16
1.25567	19
1.25933	22
1.26300	22
1.26667	21
1.27033	20
1.27400	20
1.27767	20
1.28133	20
1.28500	19
1.28867	18
1.29233	16
1.29600	15
1.29967	17
1.30333	18
1.30700	21
1.31067	23
1.31433	23
1.31800	25
1.32167	25
1.32533	23
1.32900	21
1.33267	21
1.33633	23
1.34000	23
1.34367	23
1.34733	23
1.35100	24
1.35467	26
1.35833	26
1.36200	25
1.36567	25
1.36933	23
1.37300	23
1.37667	22
1.38033	22
1.38400	22
1.38767	22
1.39133	22
1.39500	22
1.39867	20
1.40233	19
1.40600	21
1.40967	22
1.41333	23
1.41700	24
1.42067	25
1.42433	26
1.42800	24
1.43167	23
1.43533	24
1.43900	24
1.44267	23
1.44633	23
1.45000	24
1.45367	24
1.45733	22
1.46100	22
1.46467	23
1.46833	25
1.47200	25
1.47567	26
1.47933	26
1.48300	26
1.48667	26
1.49033	25
1.49400	28
1.49767	30
1.50133	30
1.50500	32
1.50867	31
1.51233	30
1.51600	31
1.51967	30
1.52333	28
1.52700	27
1.53067	28
1.53433	28
1.53800	27
1.54167	29
1.54533	30
1.54900	28
1.55267	27
1.55633	26
1.56000	27
1.56367	28
1.56733	29
1.57100	30
1.57467	31
1.57833	33
1.58200	34
1.58567	35
1.58933	34
1.59300	32
1.59667	29
1.60033	26
1.60400	26
1.60767	27
1.61133	28
1.61500	28
1.61867	29
1.62233	31
1.62600	30
1.62967	31
1.63333	30
1.63700	30
1.64067	31
1.64433	32
1.64800	33
1.65167	32
1.65533	31
1.65900	30
1.66267	30
1.66633	33
1.67000	36
1.67367	39
1.67733	40
1.68100	42
1.68467	43
1.68833	44
1.69200	45
1.69567	45
1.69933	41
1.70300	41
1.70667	42
1.71033	42
1.71400	42
1.71767	44
1.72133	46
1.72500	46
1.72867	44
1.73233	42
1.73600	42
1.73967	44
1.74333	46
1.74700	45
1.75067	46
1.75433	48
1.75800	50
1.76167	52
1.76533	53
1.76900	54
1.77267	57
1.77633	59
1.78000	58
1.78367	57
1.78733	55
1.79100	54
1.79467	53
1.79833	53
1.80200	54
1.80567	55
1.80933	55
1.81300	56
1.81667	57
1.82033	57
1.82400	57
1.82767	57
1.83133	56
1.83500	57
1.83867	57
1.84233	58
1.84600	59
1.84967	58
1.85333	57
1.85700	57
1.86067	59
1.86433	61
1.86800	61
1.87167	62
1.87533	65
1.87900	66
1.88267	68
1.88633	71
1.89000	72
1.89367	75
1.89733	76
1.90100	76
1.90467	76
1.90833	77
1.91200	78
1.91567	77
1.91933	77
1.92300	77
1.92667	77
1.93033	76
1.93400	75
1.93767	74
1.94133	75
1.94500	77
1.94867	82
1.95233	88
1.95600	91
1.95967	93
1.96333	93
1.96700	93
1.97067	94
1.97433	96
1.97800	97
1.98167	96
1.98533	94
1.98900	92
1.99267	92
1.99633	94
2.00000	97
2.00367	100
2.00733	104
2.01100	106
2.01467	108
2.01833	108
2.02200	108
2.02567	110
2.02933	112
2.03300	115
2.03667	117
2.04033	117
2.04400	116
2.04767	114
2.05133	112
2.05500	113
2.05867	114
2.06233	115
2.06600	116
2.06967	115
2.07333	117
2.07700	118
2.08067	120
2.08433	120
2.08800	120
2.09167	121
2.09533	124
2.09900	126
2.10267	128
2.10633	130
2.11000	132
2.11367	133
2.11733	136
2.12100	140
2.12467	144
2.12833	145
2.13200	145
2.13567	144
2.13933	145
2.14300	145
2.14667	145
2.15033	144
2.15400	143
2.15767	144
2.16133	148
2.16500	153
2.16867	155
2.17233	156
2.17600	158
2.17967	160
2.18333	161
2.18700	159
2.19067	158
2.19433	160
2.19800	162
2.20167	164
2.20533	166
2.20900	168
2.21267	169
2.21633	170
2.22000	170
2.22367	172
2.22733	173
2.23100	173
2.23467	175
2.23833	176
2.24200	176
2.24567	177
2.24933	178
2.25300	179
2.25667	181
2.26033	182
2.26400	182
2.26767	185
2.27133	187
2.27500	188
2.27867	190
2.28233	190
2.28600	189
2.28967	189
2.29333	191
2.29700	191
2.30067	195
2.30433	197
2.30800	199
2.31167	201
2.31533	201
2.31900	200
2.32267	201
2.32633	202
2.33000	203
2.33367	205
2.33733	205
2.34100	203
2.34467	202
2.34833	204
2.35200	207
2.35567	211
2.35933	213
2.36300	213
2.36667	212
2.37033	212
2.37400	213
2.37767	213
2.38133	213
2.38500	213
2.38867	211
2.39233	211
2.39600	214
2.39967	218
2.40333	221
2.40700	221
2.41067	221
2.41433	223
2.41800	224
2.42167	224
2.42533	225
2.42900	225
2.43267	228
2.43633	230
2.44000	233
2.44367	290
2.44733	438
2.45100	599
2.45467	733
2.45833	809
2.46200	819
2.46567	792
2.46933	758
2.47300	730
2.47667	714
2.48033	697
2.48400	664
2.48767	620
2.49133	570
2.49500	523
2.49867	485
2.50233	458
2.50600	440
2.50967	435
2.51333	444
2.51700	462
2.52067	484
2.52433	505
2.52800	514
2.53167	510
2.53533	494
2.53900	467
2.54267	436
2.54633	405
2.55000	376
2.55367	352
2.55733	332
2.56100	316
2.56467	305
2.56833	294
2.57200	287
2.57567	285
2.57933	284
2.58300	282
2.58667	283
2.59033	286
2.59400	287
2.59767	289
2.60133	291
2.60500	289
2.60867	281
2.61233	272
2.61600	262
2.61967	250
2.62333	239
2.62700	231
2.63067	222
2.63433	213
2.63800	205
2.64167	195
2.64533	186
2.64900	176
2.65267	163
2.65633	151
2.66000	141
2.66367	131
2.66733	123
2.67100	115
2.67467	106
2.67833	99
2.68200	94
2.68567	91
2.68933	89
2.69300	90
2.69667	93
2.70033	97
2.70400	98
2.70767	100
2.71133	103
2.71500	107
2.71867	109
2.72233	111
2.72600	113
2.72967	115
2.73333	121
2.73700	126
2.74067	130
2.74433	135
2.74800	138
2.75167	140
2.75533	143
2.75900	146
2.76267	152
2.76633	157
2.77000	161
2.77367	166
2.77733	169
2.78100	173
2.78467	176
2.78833	178
2.79200	180
2.79567	184
2.79933	187
2.80300	192
2.80667	198
2.81033	202
2.81400	209
2.81767	216
2.82133	227
2.82500	249
2.82867	286
2.83233	352
2.83600	469
2.83967	660
2.84333	946
2.84700	1332
2.85067	1813
2.85433	2370
2.85800	2964
2.86167	3549
2.86533	4076
2.86900	4507
2.87267	4814
2.87633	4979
2.88000	5002
2.88367	4897
2.88733	4693
2.89100	4418
2.89467	4097
2.89833	3754
2.90200	3406
2.90567	3065
2.90933	2745
2.91300	2447
2.91667	2176
2.92033	1933
2.92400	1715
2.92767	1521
2.93133	1351
2.93500	1202
2.93867	1072
2.94233	959
2.94600	861
2.94967	773
2.95333	698
2.95700	631
2.96067	571
2.96433	521
2.96800	476
2.97167	437
2.97533	405
2.97900	376
2.98267	348
2.98633	326
2.99000	309
2.99367	293
2.99733	278
3.00100	265
3.00467	255
3.00833	246
3.01200	239
3.01567	232
3.01933	226
3.02300	222
3.02667	217
3.03033	214
3.03400	213
3.03767	211
3.04133	208
3.04500	206
3.04867	204
3.05233	201
3.05600	198
3.05967	196
3.06333	194
3.06700	191
3.07067	190
3.07433	189
3.07800	188
3.08167	189
3.08533	191
3.08900	191
3.09267	193
3.09633	194
3.10000	195
3.10367	195
3.10733	197
3.11100	198
3.11467	195
3.11833	181
3.12200	151
3.12567	130
3.12933	126
3.13300	136
3.13667	155
3.14033	184
3.14400	220
3.14767	263
3.15133	312
3.15500	363
3.15867	411
3.16233	455
3.16600	495
3.16967	530
3.17333	562
3.17700	590
3.18067	615
3.18433	636
3.18800	654
3.19167	668
3.19533	682
3.19900	694
3.20267	703
3.20633	711
3.21000	718
3.21367	726
3.21733	734
3.22100	744
3.22467	753
3.22833	761
3.23200	767
3.23567	775
3.23933	782
3.24300	789
3.24667	796
3.25033	802
3.25400	808
3.25767	816
3.26133	822
3.26500	828
3.26867	835
3.27233	840
3.27600	846
3.27967	850
3.28333	857
3.28700	864
3.29067	867
3.29433	871
3.29800	876
3.30167	879
3.30533	880
3.30900	883
3.31267	887
3.31633	892
3.32000	894
3.32367	895
3.32733	896
3.33100	897
3.33467	898
3.33833	897
3.34200	896
3.34567	897
3.34933	899
3.35300	898
3.35667	896
3.36033	895
3.36400	892
3.36767	889
3.37133	888
3.37500	888
3.37867	886
3.38233	886
3.38600	885
3.38967	885
3.39333	884
3.39700	881
3.40067	879
3.40433	877
3.40800	874
3.41167	873
3.41533	872
3.41900	870
3.42267	868
3.42633	865
3.43000	862
3.43367	860
3.43733	858
3.44100	856
3.44467	857
3.44833	856
3.45200	852
3.45567	851
3.45933	851
3.46300	849
3.46667	845
3.47033	843
3.47400	842
3.47767	841
3.48133	843
3.48500	843
3.48867	842
3.49233	838
3.49600	833
3.49967	830
3.50333	826
3.50700	823
3.51067	824
3.51433	825
3.51800	826
3.52167	825
3.52533	824
3.52900	824
3.53267	822
3.53633	821
3.54000	819
3.54367	817
3.54733	814
3.55100	814
3.55467	814
3.55833	813
3.56200	812
3.56567	809
3.56933	806
3.57300	805
3.57667	804
3.58033	802
3.58400	801
3.58767	800
3.59133	800
3.59500	800
3.59867	799
3.60233	795
3.60600	795
3.60967	795
3.61333	793
3.61700	792
3.62067	791
3.62433	790
3.62800	790
3.63167	789
3.63533	787
3.63900	786
3.64267	785
3.64633	784
3.65000	782
3.65367	780
3.65733	779
3.66100	778
3.66467	776
3.66833	774
3.67200	770
3.67567	766
3.67933	765
3.68300	764
3.68667	761
3.69033	758
3.69400	754
3.69767	750
3.70133	746
3.70500	744
3.70867	741
3.71233	740
3.71600	739
3.71967	735
3.72333	730
3.72700	727
3.73067	725
3.73433	721
3.73800	718
3.74167	716
3.74533	715
3.74900	714
3.75267	714
3.75633	712
3.76000	710
3.76367	706
3.76733	703
3.77100	699
3.77467	695
3.77833	693
3.78200	692
3.78567	691
3.78933	692
3.79300	692
3.79667	691
3.80033	690
3.80400	686
3.80767	680
3.81133	677
3.81500	674
3.81867	673
3.82233	672
3.82600	670
3.82967	668
3.83333	665
3.83700	665
3.84067	664
3.84433	661
3.84800	657
3.85167	654
3.85533	653
3.85900	648
3.86267	643
3.86633	640
3.87000	640
3.87367	638
3.87733	637
3.88100	638
3.88467	637
3.88833	635
3.89200	632
3.89567	630
3.89933	631
3.90300	631
3.90667	629
3.91033	626
3.91400	624
3.91767	621
3.92133	617
3.92500	614
3.92867	612
3.93233	610
3.93600	608
3.93967	608
3.94333	606
3.94700	603
3.95067	600
3.95433	599
3.95800	601
3.96167	603
3.96533	602
3.96900	602
3.97267	600
3.97633	596
3.98000	592
3.98367	590
3.98733	590
3.99100	592
3.99467	591
3.99833	585

[Status Trace (Column Oven Temperature)]
Interval(msec)	1000
# of Points	240
Start Time(min)	0.013
End Time(min)	3.996
Intensity Units	
Intensity Multiplier	1
R.Time (min)	Intensity
0.01297	35.03
0.02963	35.02
0.04630	35.02
0.06297	35.01
0.07963	35.01
0.09630	35.00
0.11297	35.00
0.12963	35.01
0.14630	35.01
0.16297	35.01
0.17963	35.02
0.19630	35.02
0.21297	35.02
0.22963	35.01
0.24630	35.00
0.26297	35.00
0.27963	35.00
0.29630	34.99
0.31297	34.99
0.32963	34.99
0.34630	34.99
0.36297	34.99
0.37963	34.98
0.39630	34.99
0.41297	34.99
0.42963	34.98
0.44630	34.98
0.46297	35.00
0.47963	35.01
0.49630	35.03
0.51297	35.03
0.52963	35.03
0.54630	35.04
0.56297	35.04
0.57963	35.03
0.59630	35.02
0.61297	35.02
0.62963	35.02
0.64630	35.01
0.66297	35.01
0.67963	35.00
0.69630	35.00
0.71297	35.00
0.72963	35.00
0.74630	34.99
0.76297	34.99
0.77963	34.99
0.79630	34.98
0.81297	34.98
0.82963	34.98
0.84630	34.97
0.86297	34.98
0.87963	34.97
0.89630	34.97
0.91297	34.97
0.92963	34.97
0.94630	34.97
0.96297	34.99
0.97963	35.00
0.99630	35.01
1.01297	35.01
1.02963	34.99
1.04630	34.98
1.06297	34.99
1.07963	34.99
1.09630	34.99
1.11297	34.97
1.12963	34.97
1.14630	34.97
1.16297	34.99
1.17963	35.00
1.19630	35.02
1.21297	35.01
1.22963	35.00
1.24630	35.00
1.26297	35.01
1.27963	35.01
1.29630	35.01
1.31297	35.02
1.32963	35.02
1.34630	35.01
1.36297	35.00
1.37963	34.99
1.39630	35.00
1.41297	35.00
1.42963	34.99
1.44630	34.99
1.46297	35.00
1.47963	35.00
1.49630	35.01
1.51297	35.01
1.52963	35.00
1.54630	35.00
1.56297	34.99
1.57963	34.99
1.59630	35.02
1.61297	35.11
1.62963	35.26
1.64630	35.46
1.66297	35.74
1.67963	36.09
1.69630	36.46
1.71297	36.80
1.72963	37.12
1.74630	37.43
1.76297	37.78
1.77963	38.11
1.79630	38.45
1.81297	38.80
1.82963	39.11
1.84630	39.41
1.86297	39.75
1.87963	40.06
1.89630	40.39
1.91297	40.72
1.92963	41.04
1.94630	41.37
1.96297	41.70
1.97963	42.02
1.99630	42.37
2.01297	42.70
2.02963	43.03
2.04630	43.36
2.06297	43.68
2.07963	44.01
2.09630	44.33
2.11297	44.67
2.12963	45.01
2.14630	45.32
2.16297	45.65
2.17963	45.99
2.19630	46.31
2.21297	46.64
2.22963	46.97
2.24630	47.31
2.26297	47.62
2.27963	47.96
2.29630	48.29
2.31297	48.60
2.32963	48.94
2.34630	49.24
2.36297	49.52
2.37963	49.68
2.39630	49.70
2.41297	49.69
2.42963	49.70
2.44630	49.70
2.46297	49.74
2.47963	49.74
2.49630	49.74
2.51297	49.75
2.52963	49.76
2.54630	49.79
2.56297	49.79
2.57963	49.81
2.59630	49.81
2.61297	49.82
2.62963	49.83
2.64630	49.83
2.66297	49.84
2.67963	49.86
2.69630	49.87
2.71297	49.85
2.72963	49.84
2.74630	49.86
2.76297	49.87
2.77963	49.87
2.79630	49.87
2.81297	49.88
2.82963	49.87
2.84630	49.88
2.86297	49.89
2.87963	49.89
2.89630	49.89
2.91297	49.91
2.92963	49.92
2.94630	49.94
2.96297	49.96
2.97963	49.97
2.99630	49.98
3.01297	49.98
3.02963	49.98
3.04630	49.99
3.06297	49.99
3.07963	50.00
3.09630	50.00
3.11297	50.02
3.12963	50.04
3.14630	50.05
3.16297	50.07
3.17963	50.08
3.19630	50.07
3.21297	50.08
3.22963	50.09
3.24630	50.09
3.26297	50.09
3.27963	50.09
3.29630	50.10
3.31297	50.10
3.32963	50.11
3.34630	50.10
3.36297	50.09
3.37963	50.07
3.39630	50.06
3.41297	50.06
3.42963	50.06
3.44630	50.05
3.46297	50.04
3.47963	50.03
3.49630	50.03
3.51297	50.04
3.52963	50.04
3.54630	50.05
3.56297	50.05
3.57963	50.04
3.59630	50.04
3.61297	50.05
3.62963	50.04
3.64630	50.03
3.66297	50.04
3.67963	50.03
3.69630	50.03
3.71297	50.03
3.72963	50.02
3.74630	50.03
3.76297	50.03
3.77963	50.04
3.79630	50.05
3.81297	50.06
3.82963	50.07
3.84630	50.05
3.86297	50.05
3.87963	50.05
3.89630	50.04
3.91297	50.04
3.92963	50.04
3.94630	50.05
3.96297	50.05
3.97963	50.05
3.99630	50.03

[Status Trace (Injection Unit Temperature)]
Interval(msec)	1000
# of Points	240
Start Time(min)	0.013
End Time(min)	3.996
Intensity Units	
Intensity Multiplier	1
R.Time (min)	Intensity
0.01297	99.97
0.02963	99.97
0.04630	99.97
0.06297	99.98
0.07963	99.97
0.09630	99.98
0.11297	99.97
0.12963	99.97
0.14630	99.98
0.16297	99.97
0.17963	99.98
0.19630	99.98
0.21297	99.98
0.22963	99.98
0.24630	99.98
0.26297	99.98
0.27963	99.98
0.29630	99.98
0.31297	99.98
0.32963	99.98
0.34630	99.98
0.36297	99.98
0.37963	99.98
0.39630	99.98
0.41297	99.98
0.42963	99.98
0.44630	99.98
0.46297	99.98
0.47963	99.98
0.49630	99.98
0.51297	99.98
0.52963	99.98
0.54630	99.98
0.56297	99.99
0.57963	99.99
0.59630	99.98
0.61297	99.98
0.62963	99.99
0.64630	99.98
0.66297	99.99
0.67963	99.99
0.69630	99.98
0.71297	99.98
0.72963	99.99
0.74630	99.99
0.76297	99.98
0.77963	99.98
0.79630	99.99
0.81297	99.99
0.82963	99.98
0.84630	99.98
0.86297	99.98
0.87963	99.98
0.89630	99.98
0.91297	99.98
0.92963	99.99
0.94630	99.98
0.96297	99.98
0.97963	99.98
0.99630	99.99
1.01297	99.98
1.02963	99.99
1.04630	99.98
1.06297	99.98
1.07963	99.98
1.09630	99.97
1.11297	99.98
1.12963	99.98
1.14630	99.98
1.16297	99.98
1.17963	99.99
1.19630	99.98
1.21297	99.98
1.22963	99.99
1.24630	99.98
1.26297	99.98
1.27963	99.98
1.29630	99.99
1.31297	99.98
1.32963	99.99
1.34630	99.99
1.36297	99.98
1.37963	99.98
1.39630	99.98
1.41297	99.98
1.42963	99.98
1.44630	99.99
1.46297	99.98
1.47963	99.99
1.49630	99.98
1.51297	99.99
1.52963	99.98
1.54630	99.98
1.56297	99.99
1.57963	99.98
1.59630	99.98
1.61297	99.99
1.62963	99.98
1.64630	99.99
1.66297	99.99
1.67963	99.98
1.69630	99.99
1.71297	99.99
1.72963	99.98
1.74630	99.98
1.76297	99.98
1.77963	99.98
1.79630	99.98
1.81297	99.98
1.82963	99.98
1.84630	99.98
1.86297	99.98
1.87963	99.98
1.89630	99.98
1.91297	99.98
1.92963	99.98
1.94630	99.98
1.96297	99.98
1.97963	99.98
1.99630	99.97
2.01297	99.97
2.02963	99.97
2.04630	99.97
2.06297	99.97
2.07963	99.97
2.09630	99.97
2.11297	99.97
2.12963	99.97
2.14630	99.97
2.16297	99.97
2.17963	99.97
2.19630	99.97
2.21297	99.97
2.22963	99.97
2.24630	99.97
2.26297	99.97
2.27963	99.97
2.29630	99.97
2.31297	99.97
2.32963	99.97
2.34630	99.97
2.36297	99.97
2.37963	99.97
2.39630	99.97
2.41297	99.97
2.42963	99.97
2.44630	99.97
2.46297	99.97
2.47963	99.97
2.49630	99.97
2.51297	99.97
2.52963	99.97
2.54630	99.98
2.56297	99.98
2.57963	99.98
2.59630	99.97
2.61297	99.97
2.62963	99.97
2.64630	99.98
2.66297	99.98
2.67963	99.98
2.69630	99.98
2.71297	99.99
2.72963	99.98
2.74630	99.99
2.76297	99.99
2.77963	99.99
2.79630	99.99
2.81297	99.99
2.82963	99.99
2.84630	99.99
2.86297	99.99
2.87963	100.00
2.89630	100.00
2.91297	100.00
2.92963	100.00
2.94630	100.00
2.96297	100.00
2.97963	100.01
2.99630	100.00
3.01297	100.01
3.02963	100.00
3.04630	100.01
3.06297	100.01
3.07963	100.01
3.09630	100.01
3.11297	100.01
3.12963	100.01
3.14630	100.02
3.16297	100.01
3.17963	100.02
3.19630	100.02
3.21297	100.02
3.22963	100.00
3.24630	100.02
3.26297	100.03
3.27963	100.02
3.29630	100.02
3.31297	100.02
3.32963	100.03
3.34630	100.03
3.36297	100.03
3.37963	100.03
3.39630	100.03
3.41297	100.03
3.42963	100.03
3.44630	100.03
3.46297	100.03
3.47963	100.02
3.49630	100.04
3.51297	100.04
3.52963	100.04
3.54630	100.03
3.56297	100.04
3.57963	100.04
3.59630	100.04
3.61297	100.04
3.62963	100.04
3.64630	100.04
3.66297	100.04
3.67963	100.04
3.69630	100.04
3.71297	100.04
3.72963	100.04
3.74630	100.04
3.76297	100.04
3.77963	100.04
3.79630	100.04
3.81297	100.04
3.82963	100.04
3.84630	100.04
3.86297	100.04
3.87963	100.04
3.89630	100.04
3.91297	100.04
3.92963	100.04
3.94630	100.04
3.96297	100.04
3.97963	100.04
3.99630	100.04

[Status Trace (Carrier Gas Pressure)]
Interval(msec)	1000
# of Points	240
Start Time(min)	0.013
End Time(min)	3.996
Intensity Units	
Intensity Multiplier	1
R.Time (min)	Intensity
0.01297	57.97
0.02963	55.12
0.04630	57.84
0.06297	59.74
0.07963	58.82
0.09630	57.98
0.11297	57.99
0.12963	58.01
0.14630	58.01
0.16297	58.00
0.17963	58.00
0.19630	58.00
0.21297	58.00
0.22963	58.00
0.24630	58.00
0.26297	58.00
0.27963	58.00
0.29630	58.00
0.31297	58.00
0.32963	58.00
0.34630	58.00
0.36297	58.00
0.37963	58.00
0.39630	58.00
0.41297	58.00
0.42963	58.00
0.44630	58.00
0.46297	58.00
0.47963	58.00
0.49630	58.00
0.51297	58.00
0.52963	58.00
0.54630	58.00
0.56297	58.00
0.57963	58.00
0.59630	58.00
0.61297	58.00
0.62963	58.00
0.64630	58.00
0.66297	58.00
0.67963	58.00
0.69630	58.00
0.71297	58.00
0.72963	58.00
0.74630	58.00
0.76297	58.00
0.77963	58.00
0.79630	58.00
0.81297	58.00
0.82963	58.00
0.84630	58.00
0.86297	58.00
0.87963	58.00
0.89630	58.00
0.91297	58.00
0.92963	58.00
0.94630	58.00
0.96297	58.00
0.97963	58.00
0.99630	58.00
1.01297	58.00
1.02963	58.00
1.04630	58.00
1.06297	58.00
1.07963	58.00
1.09630	58.00
1.11297	58.00
1.12963	58.00
1.14630	58.00
1.16297	58.00
1.17963	58.00
1.19630	58.00
1.21297	58.00
1.22963	58.00
1.24630	58.00
1.26297	58.00
1.27963	58.00
1.29630	58.00
1.31297	58.00
1.32963	58.00
1.34630	58.00
1.36297	58.00
1.37963	58.00
1.39630	58.00
1.41297	58.00
1.42963	58.00
1.44630	58.00
1.46297	58.00
1.47963	58.00
1.49630	58.00
1.51297	58.00
1.52963	58.00
1.54630	58.00
1.56297	58.00
1.57963	58.00
1.59630	58.00
1.61297	58.00
1.62963	58.00
1.64630	58.00
1.66297	58.00
1.67963	58.01
1.69630	58.00
1.71297	58.00
1.72963	58.00
1.74630	58.00
1.76297	58.00
1.77963	58.00
1.79630	58.00
1.81297	58.00
1.82963	58.00
1.84630	58.00
1.86297	58.00
1.87963	58.00
1.89630	58.00
1.91297	58.00
1.92963	58.00
1.94630	58.00
1.96297	58.00
1.97963	58.00
1.99630	58.00
2.01297	58.00
2.02963	58.00
2.04630	58.00
2.06297	58.00
2.07963	58.00
2.09630	58.00
2.11297	58.00
2.12963	58.00
2.14630	58.00
2.16297	58.00
2.17963	58.00
2.19630	58.00
2.21297	58.00
2.22963	58.00
2.24630	58.00
2.26297	58.00
2.27963	58.00
2.29630	58.00
2.31297	58.00
2.32963	58.00
2.34630	58.00
2.36297	58.00
2.37963	57.99
2.39630	57.99
2.41297	57.99
2.42963	58.00
2.44630	58.00
2.46297	58.00
2.47963	58.00
2.49630	58.00
2.51297	57.99
2.52963	57.99
2.54630	58.00
2.56297	58.00
2.57963	58.00
2.59630	58.00
2.61297	58.00
2.62963	58.00
2.64630	58.00
2.66297	58.00
2.67963	58.00
2.69630	58.00
2.71297	58.00
2.72963	58.00
2.74630	58.00
2.76297	58.00
2.77963	58.00
2.79630	58.00
2.81297	58.00
2.82963	58.00
2.84630	58.00
2.86297	58.00
2.87963	58.00
2.89630	58.00
2.91297	58.00
2.92963	58.00
2.94630	58.00
2.96297	58.00
2.97963	58.00
2.99630	58.00
3.01297	58.00
3.02963	58.00
3.04630	58.00
3.06297	58.00
3.07963	58.00
3.09630	58.00
3.11297	58.00
3.12963	58.00
3.14630	58.00
3.16297	58.00
3.17963	58.00
3.19630	58.00
3.21297	58.00
3.22963	58.00
3.24630	58.00
3.26297	58.00
3.27963	58.00
3.29630	58.00
3.31297	58.00
3.32963	58.00
3.34630	58.00
3.36297	58.00
3.37963	58.00
3.39630	58.00
3.41297	58.00
3.42963	58.00
3.44630	58.00
3.46297	58.00
3.47963	58.00
3.49630	58.00
3.51297	58.00
3.52963	58.00
3.54630	58.00
3.56297	58.00
3.57963	58.00
3.59630	58.00
3.61297	58.00
3.62963	58.00
3.64630	58.00
3.66297	58.00
3.67963	58.00
3.69630	58.00
3.71297	58.00
3.72963	58.00
3.74630	58.00
3.76297	58.00
3.77963	58.00
3.79630	58.00
3.81297	58.00
3.82963	58.00
3.84630	58.00
3.86297	58.00
3.87963	58.00
3.89630	58.00
3.91297	58.00
3.92963	58.00
3.94630	58.00
3.96297	58.00
3.97963	58.00
3.99630	58.00

[Status Trace (Carrier Gas Flow)]
Interval(msec)	1000
# of Points	240
Start Time(min)	0.013
End Time(min)	3.996
Intensity Units	
Intensity Multiplier	1
R.Time (min)	Intensity
0.01297	34.63
0.02963	34.54
0.04630	34.55
0.06297	34.52
0.07963	34.50
0.09630	34.52
0.11297	34.52
0.12963	34.52
0.14630	34.52
0.16297	34.52
0.17963	34.51
0.19630	34.52
0.21297	34.51
0.22963	34.52
0.24630	34.52
0.26297	34.52
0.27963	34.52
0.29630	34.52
0.31297	34.52
0.32963	34.52
0.34630	34.52
0.36297	34.52
0.37963	34.52
0.39630	34.52
0.41297	34.52
0.42963	34.52
0.44630	34.52
0.46297	34.52
0.47963	34.52
0.49630	34.52
0.51297	34.52
0.52963	34.52
0.54630	34.51
0.56297	34.52
0.57963	34.52
0.59630	34.52
0.61297	34.52
0.62963	34.52
0.64630	34.51
0.66297	34.52
0.67963	34.52
0.69630	34.52
0.71297	34.53
0.72963	34.52
0.74630	34.52
0.76297	34.52
0.77963	34.52
0.79630	34.52
0.81297	34.52
0.82963	34.52
0.84630	34.52
0.86297	34.52
0.87963	34.52
0.89630	34.52
0.91297	34.52
0.92963	34.52
0.94630	34.52
0.96297	34.52
0.97963	34.52
0.99630	34.52
1.01297	34.52
1.02963	34.52
1.04630	34.52
1.06297	34.52
1.07963	34.51
1.09630	34.52
1.11297	34.52
1.12963	34.52
1.14630	34.52
1.16297	34.52
1.17963	34.51
1.19630	34.52
1.21297	34.52
1.22963	34.52
1.24630	34.52
1.26297	34.52
1.27963	34.52
1.29630	34.52
1.31297	34.52
1.32963	34.52
1.34630	34.52
1.36297	34.51
1.37963	34.52
1.39630	34.52
1.41297	34.52
1.42963	34.52
1.44630	34.52
1.46297	34.52
1.47963	34.51
1.49630	34.52
1.51297	34.52
1.52963	34.52
1.54630	34.52
1.56297	34.52
1.57963	34.52
1.59630	34.52
1.61297	34.51
1.62963	34.52
1.64630	34.52
1.66297	34.52
1.67963	34.52
1.69630	34.52
1.71297	34.52
1.72963	34.52
1.74630	34.52
1.76297	34.51
1.77963	34.52
1.79630	34.52
1.81297	34.52
1.82963	34.51
1.84630	34.52
1.86297	34.52
1.87963	34.52
1.89630	34.52
1.91297	34.52
1.92963	34.52
1.94630	34.52
1.96297	34.52
1.97963	34.52
1.99630	34.52
2.01297	34.52
2.02963	34.52
2.04630	34.52
2.06297	34.52
2.07963	34.52
2.09630	34.52
2.11297	34.52
2.12963	34.52
2.14630	34.52
2.16297	34.52
2.17963	34.52
2.19630	34.52
2.21297	34.52
2.22963	34.53
2.24630	34.52
2.26297	34.51
2.27963	34.52
2.29630	34.52
2.31297	34.52
2.32963	34.52
2.34630	34.52
2.36297	34.52
2.37963	34.52
2.39630	34.52
2.41297	34.52
2.42963	34.52
2.44630	34.52
2.46297	34.51
2.47963	34.52
2.49630	34.52
2.51297	34.52
2.52963	34.52
2.54630	34.51
2.56297	34.52
2.57963	34.52
2.59630	34.52
2.61297	34.53
2.62963	34.51
2.64630	34.51
2.66297	34.51
2.67963	34.52
2.69630	34.52
2.71297	34.51
2.72963	34.52
2.74630	34.52
2.76297	34.51
2.77963	34.51
2.79630	34.52
2.81297	34.52
2.82963	34.52
2.84630	34.51
2.86297	34.52
2.87963	34.52
2.89630	34.52
2.91297	34.52
2.92963	34.51
2.94630	34.52
2.96297	34.52
2.97963	34.52
2.99630	34.52
3.01297	34.52
3.02963	34.52
3.04630	34.52
3.06297	34.52
3.07963	34.52
3.09630	34.52
3.11297	34.52
3.12963	34.52
3.14630	34.52
3.16297	34.52
3.17963	34.52
3.19630	34.52
3.21297	34.52
3.22963	34.52
3.24630	34.52
3.26297	34.52
3.27963	34.52
3.29630	34.52
3.31297	34.52
3.32963	34.52
3.34630	34.52
3.36297	34.52
3.37963	34.52
3.39630	34.52
3.41297	34.52
3.42963	34.52
3.44630	34.52
3.46297	34.52
3.47963	34.52
3.49630	34.52
3.51297	34.52
3.52963	34.52
3.54630	34.52
3.56297	34.52
3.57963	34.52
3.59630	34.52
3.61297	34.52
3.62963	34.52
3.64630	34.52
3.66297	34.52
3.67963	34.52
3.69630	34.51
3.71297	34.52
3.72963	34.52
3.74630	34.52
3.76297	34.52
3.77963	34.52
3.79630	34.52
3.81297	34.52
3.82963	34.52
3.84630	34.52
3.86297	34.52
3.87963	34.52
3.89630	34.52
3.91297	34.52
3.92963	34.52
3.94630	34.52
3.96297	34.52
3.97963	34.52
3.99630	34.52

[Status Trace (Column Flow)]
Interval(msec)	1000
# of Points	240
Start Time(min)	0.013
End Time(min)	3.996
Intensity Units	
Intensity Multiplier	1
R.Time (min)	Intensity
0.01297	5.53
0.02963	5.20
0.04630	5.52
0.06297	5.74
0.07963	5.63
0.09630	5.54
0.11297	5.54
0.12963	5.54
0.14630	5.54
0.16297	5.54
0.17963	5.54
0.19630	5.54
0.21297	5.54
0.22963	5.54
0.24630	5.54
0.26297	5.54
0.27963	5.54
0.29630	5.54
0.31297	5.54
0.32963	5.54
0.34630	5.54
0.36297	5.54
0.37963	5.54
0.39630	5.54
0.41297	5.54
0.42963	5.54
0.44630	5.54
0.46297	5.54
0.47963	5.54
0.49630	5.54
0.51297	5.54
0.52963	5.54
0.54630	5.54
0.56297	5.54
0.57963	5.54
0.59630	5.54
0.61297	5.54
0.62963	5.54
0.64630	5.54
0.66297	5.54
0.67963	5.54
0.69630	5.54
0.71297	5.54
0.72963	5.54
0.74630	5.54
0.76297	5.54
0.77963	5.54
0.79630	5.54
0.81297	5.54
0.82963	5.54
0.84630	5.54
0.86297	5.54
0.87963	5.54
0.89630	5.54
0.91297	5.54
0.92963	5.54
0.94630	5.54
0.96297	5.54
0.97963	5.54
0.99630	5.54
1.01297	5.54
1.02963	5.54
1.04630	5.54
1.06297	5.54
1.07963	5.54
1.09630	5.54
1.11297	5.54
1.12963	5.54
1.14630	5.54
1.16297	5.54
1.17963	5.54
1.19630	5.54
1.21297	5.54
1.22963	5.54
1.24630	5.54
1.26297	5.54
1.27963	5.54
1.29630	5.54
1.31297	5.54
1.32963	5.54
1.34630	5.54
1.36297	5.54
1.37963	5.54
1.39630	5.54
1.41297	5.54
1.42963	5.54
1.44630	5.54
1.46297	5.54
1.47963	5.54
1.49630	5.54
1.51297	5.54
1.52963	5.54
1.54630	5.54
1.56297	5.54
1.57963	5.54
1.59630	5.54
1.61297	5.53
1.62963	5.53
1.64630	5.52
1.66297	5.51
1.67963	5.50
1.69630	5.49
1.71297	5.48
1.72963	5.47
1.74630	5.46
1.76297	5.45
1.77963	5.44
1.79630	5.43
1.81297	5.42
1.82963	5.41
1.84630	5.40
1.86297	5.39
1.87963	5.38
1.89630	5.37
1.91297	5.36
1.92963	5.35
1.94630	5.34
1.96297	5.33
1.97963	5.32
1.99630	5.31
2.01297	5.30
2.02963	5.29
2.04630	5.28
2.06297	5.27
2.07963	5.26
2.09630	5.25
2.11297	5.24
2.12963	5.23
2.14630	5.22
2.16297	5.22
2.17963	5.21
2.19630	5.20
2.21297	5.19
2.22963	5.18
2.24630	5.17
2.26297	5.16
2.27963	5.15
2.29630	5.14
2.31297	5.13
2.32963	5.12
2.34630	5.11
2.36297	5.11
2.37963	5.10
2.39630	5.10
2.41297	5.10
2.42963	5.10
2.44630	5.10
2.46297	5.10
2.47963	5.10
2.49630	5.10
2.51297	5.10
2.52963	5.10
2.54630	5.10
2.56297	5.10
2.57963	5.10
2.59630	5.10
2.61297	5.10
2.62963	5.10
2.64630	5.10
2.66297	5.10
2.67963	5.10
2.69630	5.10
2.71297	5.10
2.72963	5.10
2.74630	5.10
2.76297	5.10
2.77963	5.10
2.79630	5.10
2.81297	5.10
2.82963	5.10
2.84630	5.10
2.86297	5.10
2.87963	5.10
2.89630	5.10
2.91297	5.10
2.92963	5.09
2.94630	5.09
2.96297	5.09
2.97963	5.09
2.99630	5.09
3.01297	5.09
3.02963	5.09
3.04630	5.09
3.06297	5.09
3.07963	5.09
3.09630	5.09
3.11297	5.09
3.12963	5.09
3.14630	5.09
3.16297	5.09
3.17963	5.09
3.19630	5.09
3.21297	5.09
3.22963	5.09
3.24630	5.09
3.26297	5.09
3.27963	5.09
3.29630	5.09
3.31297	5.09
3.32963	5.09
3.34630	5.09
3.36297	5.09
3.37963	5.09
3.39630	5.09
3.41297	5.09
3.42963	5.09
3.44630	5.09
3.46297	5.09
3.47963	5.09
3.49630	5.09
3.51297	5.09
3.52963	5.09
3.54630	5.09
3.56297	5.09
3.57963	5.09
3.59630	5.09
3.61297	5.09
3.62963	5.09
3.64630	5.09
3.66297	5.09
3.67963	5.09
3.69630	5.09
3.71297	5.09
3.72963	5.09
3.74630	5.09
3.76297	5.09
3.77963	5.09
3.79630	5.09
3.81297	5.09
3.82963	5.09
3.84630	5.09
3.86297	5.09
3.87963	5.09
3.89630	5.09
3.91297	5.09
3.92963	5.09
3.94630	5.09
3.96297	5.09
3.97963	5.09
3.99630	5.09

[Status Trace (Linear Velocity)]
Interval(msec)	1000
# of Points	240
Start Time(min)	0.013
End Time(min)	3.996
Intensity Units	
Intensity Multiplier	1
R.Time (min)	Intensity
0.01297	39.00
0.02963	37.13
0.04630	38.91
0.06297	40.16
0.07963	39.56
0.09630	39.01
0.11297	39.01
0.12963	39.03
0.14630	39.02
0.16297	39.02
0.17963	39.02
0.19630	39.02
0.21297	39.02
0.22963	39.02
0.24630	39.02
0.26297	39.02
0.27963	39.02
0.29630	39.02
0.31297	39.02
0.32963	39.02
0.34630	39.02
0.36297	39.02
0.37963	39.02
0.39630	39.02
0.41297	39.02
0.42963	39.02
0.44630	39.02
0.46297	39.02
0.47963	39.02
0.49630	39.02
0.51297	39.02
0.52963	39.02
0.54630	39.02
0.56297	39.02
0.57963	39.02
0.59630	39.02
0.61297	39.02
0.62963	39.02
0.64630	39.02
0.66297	39.02
0.67963	39.02
0.69630	39.02
0.71297	39.02
0.72963	39.02
0.74630	39.02
0.76297	39.02
0.77963	39.02
0.79630	39.02
0.81297	39.02
0.82963	39.02
0.84630	39.02
0.86297	39.02
0.87963	39.02
0.89630	39.02
0.91297	39.02
0.92963	39.02
0.94630	39.02
0.96297	39.02
0.97963	39.02
0.99630	39.02
1.01297	39.02
1.02963	39.02
1.04630	39.02
1.06297	39.02
1.07963	39.02
1.09630	39.02
1.11297	39.02
1.12963	39.02
1.14630	39.02
1.16297	39.02
1.17963	39.02
1.19630	39.02
1.21297	39.02
1.22963	39.02
1.24630	39.02
1.26297	39.02
1.27963	39.02
1.29630	39.02
1.31297	39.02
1.32963	39.02
1.34630	39.02
1.36297	39.02
1.37963	39.02
1.39630	39.02
1.41297	39.02
1.42963	39.02
1.44630	39.02
1.46297	39.02
1.47963	39.02
1.49630	39.02
1.51297	39.02
1.52963	39.02
1.54630	39.02
1.56297	39.02
1.57963	39.02
1.59630	39.02
1.61297	39.01
1.62963	39.00
1.64630	38.98
1.66297	38.95
1.67963	38.92
1.69630	38.88
1.71297	38.85
1.72963	38.82
1.74630	38.79
1.76297	38.76
1.77963	38.72
1.79630	38.69
1.81297	38.66
1.82963	38.63
1.84630	38.60
1.86297	38.57
1.87963	38.54
1.89630	38.51
1.91297	38.48
1.92963	38.45
1.94630	38.42
1.96297	38.39
1.97963	38.36
1.99630	38.33
2.01297	38.29
2.02963	38.26
2.04630	38.23
2.06297	38.20
2.07963	38.17
2.09630	38.14
2.11297	38.11
2.12963	38.08
2.14630	38.05
2.16297	38.03
2.17963	37.99
2.19630	37.97
2.21297	37.94
2.22963	37.91
2.24630	37.88
2.26297	37.85
2.27963	37.82
2.29630	37.79
2.31297	37.76
2.32963	37.73
2.34630	37.70
2.36297	37.68
2.37963	37.66
2.39630	37.66
2.41297	37.66
2.42963	37.66
2.44630	37.66
2.46297	37.66
2.47963	37.66
2.49630	37.66
2.51297	37.65
2.52963	37.65
2.54630	37.66
2.56297	37.65
2.57963	37.65
2.59630	37.65
2.61297	37.65
2.62963	37.65
2.64630	37.65
2.66297	37.65
2.67963	37.65
2.69630	37.65
2.71297	37.65
2.72963	37.65
2.74630	37.65
2.76297	37.65
2.77963	37.65
2.79630	37.65
2.81297	37.65
2.82963	37.65
2.84630	37.65
2.86297	37.65
2.87963	37.65
2.89630	37.65
2.91297	37.64
2.92963	37.64
2.94630	37.64
2.96297	37.64
2.97963	37.64
2.99630	37.64
3.01297	37.64
3.02963	37.64
3.04630	37.64
3.06297	37.64
3.07963	37.64
3.09630	37.64
3.11297	37.63
3.12963	37.63
3.14630	37.63
3.16297	37.63
3.17963	37.63
3.19630	37.63
3.21297	37.63
3.22963	37.63
3.24630	37.63
3.26297	37.63
3.27963	37.63
3.29630	37.63
3.31297	37.63
3.32963	37.63
3.34630	37.63
3.36297	37.63
3.37963	37.63
3.39630	37.63
3.41297	37.63
3.42963	37.63
3.44630	37.63
3.46297	37.63
3.47963	37.63
3.49630	37.63
3.51297	37.63
3.52963	37.63
3.54630	37.63
3.56297	37.63
3.57963	37.63
3.59630	37.63
3.61297	37.63
3.62963	37.63
3.64630	37.63
3.66297	37.63
3.67963	37.63
3.69630	37.63
3.71297	37.63
3.72963	37.63
3.74630	37.63
3.76297	37.63
3.77963	37.63
3.79630	37.63
3.81297	37.63
3.82963	37.63
3.84630	37.63
3.86297	37.63
3.87963	37.63
3.89630	37.63
3.91297	37.63
3.92963	37.63
3.94630	37.63
3.96297	37.63
3.97963	37.63
3.99630	37.63

