[Header]
Application Name	LabSolutions
Version	5.110
Data File Name	C:\Users\User\Desktop\GC Analyses\Jack\Nachusa Grasslands Sampling\T3 Timepoint July 12th\T3_07122022_032.gcd
Output Date	3/14/2023
Output Time	3:43:32 PM

[File Information]
Type	Data File
Generated	3/13/2023 5:59:07 PM
Generated by	System Administrator
Modified	3/13/2023 6:05:56 PM
Modified by	System Administrator

[Sample Information]
Operator Name	System Administrator
Acquired	3/13/2023 6:01:56 PM
Sample Type	0:Unknown
Level	0
Sample Name	032
Sample ID	032
ISTD Amount1	1
ISTD Amount2	1
ISTD Amount3	1
ISTD Amount4	1
ISTD Amount5	1
ISTD Amount6	1
ISTD Amount7	1
ISTD Amount8	1
ISTD Amount9	1
ISTD Amount10	1
ISTD Amount11	1
ISTD Amount12	1
ISTD Amount13	1
ISTD Amount14	1
ISTD Amount15	1
ISTD Amount16	1
ISTD Amount17	1
ISTD Amount18	1
ISTD Amount19	1
ISTD Amount20	1
ISTD Amount21	1
ISTD Amount22	1
ISTD Amount23	1
ISTD Amount24	1
ISTD Amount25	1
ISTD Amount26	1
ISTD Amount27	1
ISTD Amount28	1
ISTD Amount29	1
ISTD Amount30	1
ISTD Amount31	1
ISTD Amount32	1
Sample Amount	1
Dilution Factor	1
Vial#	31
Injection Volume	1
Injection Count	1
Bar Code	

[Original Files]
Data File	C:\Users\User\Desktop\GC Analyses\Jack\Nachusa Grasslands Sampling\T3 Timepoint July 12th\T3_07122022_032.gcd
Method File	C:\LabSolutions\Data\GHG_4min_2022\ghg3_togas_w_acet_4 min_new_int.gcm
Batch File	C:\LabSolutions\Data\AutoSamplerTesting\T3_07122022.gcb
Report Format File	c:\LabSolutions\System\DEFAULT.lsr

[File Description]


[Configuration]
Instrument Name	C0B7VH3-Instrument1
Instrument #	1
Line #	1
# of Detectors	3
Detector ID	DET#1	DET#2	DET#3
Detector Name	FID	PTCD	ECD
# of Channels	1	1	1

[Peak Table(Ch1)]
# of Peaks	3
Peak#	R.Time	I.Time	F.Time	Area	Height	A/H	Conc.	Mark	ID#	Name	k'	Plate #	Plate Ht.	Tailing	Resolution	Sep.Factor	Area Ratio	Height Ratio	Conc. %	Norm Conc.
1	1.476	1.428	1.534	25790	12702	2.030	182.077	   	1	CO	0.000	9540	15.723	1.219	0.000	0.000	0	0	18.640	18.640
2	1.571	1.538	1.619	3994	2070	1.930	77.228	   	2	CH4	0.065	11888	12.617	1.126	1.615	0.000	0	0	7.906	7.906
3	1.996	1.949	2.396	2858843	1379712	2.072	717.492	   	3	CO2	0.353	17517	8.563	1.327	7.211	5.462	0	0	73.454	73.454

[Peak Table(Ch2)]
# of Peaks	0

[Peak Table(Ch3)]
# of Peaks	5
Peak#	R.Time	I.Time	F.Time	Area	Height	A/H	Conc.	Mark	ID#	Name	k'	Plate #	Plate Ht.	Tailing	Resolution	Sep.Factor	Area Ratio	Height Ratio	Conc. %	Norm Conc.
1	2.458	2.297	2.510	2011	585	3.437	0.000	   			0.000	10632	14.109	0.000	0.000	0.000	0	0	0.000	0.000
2	2.532	2.510	2.583	970	318	3.054	0.000	 V 			0.030	5104	29.390	0.000	0.619	0.000	0	0	0.000	0.000
3	2.598	2.583	2.675	441	146	3.029	0.000	 V 			0.057	1726	86.891	0.000	0.337	1.900	0	0	0.000	0.000
4	2.880	2.708	3.067	18468	4660	3.963	0.472	   	1	N2O	0.172	13083	11.465	1.545	1.610	3.026	0	0	100.000	100.000
5	3.280	3.071	3.995	21135	679	31.139	0.000	   	2	SF6	0.334	165	908.165	2.171	0.713	1.948	0	0	0.000	0.000

[Compound Results(Ch1)]
# of IDs	6
ID#	Name	R.Time	Area	Height	Conc.	Curve	3rd	2nd	1st	Constant	Area Ratio	Height Ratio	Conc. %	Norm Conc.
1	CO	1.476	25790	12702	182.077	Linear	0.000000e+00	0.000000e+00	1.416423e+002	0.000000e+00	0	0	18.640	18.640
2	CH4	1.571	3994	2070	77.228	Linear	0.000000e+00	0.000000e+00	5.171738e+001	0.000000e+00	0	0	7.906	7.906
3	CO2	1.996	2858843	1379712	717.492	Linear	0.000000e+00	0.000000e+00	3.984494e+003	0.000000e+00	0	0	73.454	73.454
4	Ethylene	0.000	0	0	0.000	Linear	0.000000e+00	0.000000e+00	0.000000e+00	0.000000e+00	0	0	0.000	0.000
5	Acetylene	0.000	0	0	0.000	Linear	0.000000e+00	0.000000e+00	0.000000e+00	0.000000e+00	0	0	0.000	0.000
6	Ethane	0.000	0	0	0.000	Linear	0.000000e+00	0.000000e+00	0.000000e+00	0.000000e+00	0	0	0.000	0.000

[Compound Results(Ch2)]
# of IDs	5
ID#	Name	R.Time	Area	Height	Conc.	Curve	3rd	2nd	1st	Constant	Area Ratio	Height Ratio	Conc. %	Norm Conc.
1	Hydrogen	0.000	0	0	0.000	Linear	0.000000e+00	0.000000e+00	0.000000e+00	0.000000e+00	0	0	0.000	0.000
2	Oxygen	0.000	0	0	0.000	Linear	0.000000e+00	0.000000e+00	0.000000e+00	0.000000e+00	0	0	0.000	0.000
3	Nitrogen	0.000	0	0	0.000	Linear	0.000000e+00	0.000000e+00	0.000000e+00	0.000000e+00	0	0	0.000	0.000
4	Methane	0.000	0	0	0.000	Linear	0.000000e+00	0.000000e+00	0.000000e+00	0.000000e+00	0	0	0.000	0.000
5	Carbon Monoxide	0.000	0	0	0.000	Linear	0.000000e+00	0.000000e+00	0.000000e+00	0.000000e+00	0	0	0.000	0.000

[Compound Results(Ch3)]
# of IDs	2
ID#	Name	R.Time	Area	Height	Conc.	Curve	3rd	2nd	1st	Constant	Area Ratio	Height Ratio	Conc. %	Norm Conc.
1	N2O	2.880	18468	4660	0.472	Linear	0.000000e+00	0.000000e+00	3.915173e+004	0.000000e+00	0	0	100.000	100.000
2	SF6	3.280	21135	679	0.000	Linear	0.000000e+00	0.000000e+00	0.000000e+00	0.000000e+00	0	0	0.000	0.000

[Group Results(Ch1)]
# of Groups	0

[Group Results(Ch2)]
# of Groups	0

[Group Results(Ch3)]
# of Groups	0

[Chromatogram (Ch1)]
Interval(msec)	220
# of Points	1091
Start Time(min)	0.002
End Time(min)	3.998
R.Time (min)	Intensity
0.00167	25
0.00533	27
0.00900	31
0.01267	31
0.01633	28
0.02000	27
0.02367	28
0.02733	28
0.03100	26
0.03467	25
0.03833	32
0.04200	43
0.04567	54
0.04933	64
0.05300	74
0.05667	83
0.06033	89
0.06400	96
0.06767	97
0.07133	92
0.07500	87
0.07867	86
0.08233	91
0.08600	93
0.08967	95
0.09333	101
0.09700	108
0.10067	112
0.10433	113
0.10800	115
0.11167	119
0.11533	123
0.11900	128
0.12267	135
0.12633	144
0.13000	148
0.13367	147
0.13733	138
0.14100	129
0.14467	123
0.14833	122
0.15200	128
0.15567	129
0.15933	128
0.16300	125
0.16667	119
0.17033	106
0.17400	93
0.17767	81
0.18133	75
0.18500	72
0.18867	69
0.19233	69
0.19600	70
0.19967	71
0.20333	72
0.20700	75
0.21067	81
0.21433	90
0.21800	92
0.22167	86
0.22533	78
0.22900	70
0.23267	62
0.23633	53
0.24000	46
0.24367	41
0.24733	34
0.25100	27
0.25467	23
0.25833	23
0.26200	26
0.26567	31
0.26933	32
0.27300	29
0.27667	24
0.28033	21
0.28400	24
0.28767	30
0.29133	34
0.29500	35
0.29867	37
0.30233	43
0.30600	48
0.30967	52
0.31333	55
0.31700	55
0.32067	55
0.32433	53
0.32800	52
0.33167	54
0.33533	56
0.33900	57
0.34267	55
0.34633	54
0.35000	53
0.35367	54
0.35733	59
0.36100	67
0.36467	72
0.36833	69
0.37200	64
0.37567	65
0.37933	70
0.38300	67
0.38667	56
0.39033	44
0.39400	35
0.39767	31
0.40133	32
0.40500	35
0.40867	39
0.41233	39
0.41600	38
0.41967	36
0.42333	38
0.42700	44
0.43067	45
0.43433	44
0.43800	45
0.44167	47
0.44533	53
0.44900	60
0.45267	65
0.45633	66
0.46000	65
0.46367	61
0.46733	56
0.47100	51
0.47467	48
0.47833	40
0.48200	34
0.48567	36
0.48933	41
0.49300	45
0.49667	46
0.50033	44
0.50400	42
0.50767	40
0.51133	37
0.51500	36
0.51867	36
0.52233	40
0.52600	42
0.52967	42
0.53333	45
0.53700	51
0.54067	52
0.54433	50
0.54800	55
0.55167	61
0.55533	63
0.55900	62
0.56267	58
0.56633	53
0.57000	48
0.57367	45
0.57733	41
0.58100	36
0.58467	34
0.58833	32
0.59200	34
0.59567	44
0.59933	52
0.60300	51
0.60667	46
0.61033	42
0.61400	41
0.61767	40
0.62133	37
0.62500	35
0.62867	39
0.63233	46
0.63600	53
0.63967	57
0.64333	52
0.64700	46
0.65067	42
0.65433	45
0.65800	52
0.66167	56
0.66533	57
0.66900	60
0.67267	59
0.67633	54
0.68000	54
0.68367	54
0.68733	55
0.69100	52
0.69467	46
0.69833	44
0.70200	45
0.70567	47
0.70933	42
0.71300	32
0.71667	23
0.72033	19
0.72400	22
0.72767	27
0.73133	31
0.73500	35
0.73867	38
0.74233	40
0.74600	43
0.74967	45
0.75333	44
0.75700	40
0.76067	40
0.76433	44
0.76800	48
0.77167	49
0.77533	55
0.77900	62
0.78267	59
0.78633	52
0.79000	48
0.79367	50
0.79733	53
0.80100	55
0.80467	60
0.80833	63
0.81200	65
0.81567	64
0.81933	60
0.82300	57
0.82667	55
0.83033	50
0.83400	45
0.83767	41
0.84133	35
0.84500	31
0.84867	29
0.85233	30
0.85600	33
0.85967	33
0.86333	29
0.86700	24
0.87067	21
0.87433	21
0.87800	24
0.88167	26
0.88533	26
0.88900	19
0.89267	9
0.89633	2
0.90000	0
0.90367	6
0.90733	15
0.91100	24
0.91467	29
0.91833	36
0.92200	46
0.92567	54
0.92933	63
0.93300	70
0.93667	71
0.94033	63
0.94400	56
0.94767	51
0.95133	51
0.95500	52
0.95867	54
0.96233	52
0.96600	52
0.96967	54
0.97333	58
0.97700	63
0.98067	67
0.98433	71
0.98800	71
0.99167	65
0.99533	59
0.99900	52
1.00267	43
1.00633	37
1.01000	37
1.01367	45
1.01733	56
1.02100	66
1.02467	73
1.02833	77
1.03200	76
1.03567	71
1.03933	68
1.04300	65
1.04667	58
1.05033	50
1.05400	44
1.05767	40
1.06133	36
1.06500	32
1.06867	30
1.07233	32
1.07600	35
1.07967	40
1.08333	48
1.08700	56
1.09067	59
1.09433	58
1.09800	57
1.10167	55
1.10533	54
1.10900	53
1.11267	50
1.11633	47
1.12000	47
1.12367	51
1.12733	54
1.13100	56
1.13467	54
1.13833	54
1.14200	57
1.14567	58
1.14933	54
1.15300	47
1.15667	39
1.16033	33
1.16400	30
1.16767	27
1.17133	22
1.17500	19
1.17867	18
1.18233	17
1.18600	19
1.18967	23
1.19333	26
1.19700	29
1.20067	27
1.20433	28
1.20800	27
1.21167	21
1.21533	18
1.21900	19
1.22267	24
1.22633	27
1.23000	24
1.23367	22
1.23733	22
1.24100	22
1.24467	23
1.24833	22
1.25200	19
1.25567	16
1.25933	15
1.26300	16
1.26667	17
1.27033	22
1.27400	24
1.27767	23
1.28133	26
1.28500	33
1.28867	38
1.29233	37
1.29600	32
1.29967	28
1.30333	23
1.30700	20
1.31067	23
1.31433	26
1.31800	21
1.32167	10
1.32533	-1
1.32900	-10
1.33267	-12
1.33633	-9
1.34000	-6
1.34367	-6
1.34733	-4
1.35100	-0
1.35467	2
1.35833	1
1.36200	-1
1.36567	-4
1.36933	-6
1.37300	-2
1.37667	5
1.38033	11
1.38400	9
1.38767	3
1.39133	-0
1.39500	-1
1.39867	-1
1.40233	-2
1.40600	-5
1.40967	-11
1.41333	-17
1.41700	-22
1.42067	-27
1.42433	-32
1.42800	-34
1.43167	-31
1.43533	-26
1.43900	-14
1.44267	34
1.44633	216
1.45000	730
1.45367	1874
1.45733	3829
1.46100	6276
1.46467	8664
1.46833	10617
1.47200	11964
1.47567	12587
1.47933	12376
1.48300	11329
1.48667	9637
1.49033	7651
1.49400	5714
1.49767	4052
1.50133	2746
1.50500	1780
1.50867	1094
1.51233	621
1.51600	302
1.51967	93
1.52333	-44
1.52700	-133
1.53067	-188
1.53433	-214
1.53800	-218
1.54167	-172
1.54533	-29
1.54900	245
1.55267	628
1.55633	1039
1.56000	1404
1.56367	1683
1.56733	1855
1.57100	1889
1.57467	1758
1.57833	1485
1.58200	1146
1.58567	815
1.58933	536
1.59300	321
1.59667	163
1.60033	53
1.60400	-17
1.60767	-61
1.61133	-91
1.61500	-114
1.61867	-126
1.62233	-129
1.62600	-125
1.62967	-124
1.63333	-133
1.63700	-143
1.64067	-149
1.64433	-152
1.64800	-151
1.65167	-148
1.65533	-143
1.65900	-136
1.66267	-133
1.66633	-130
1.67000	-131
1.67367	-132
1.67733	-131
1.68100	-126
1.68467	-118
1.68833	-114
1.69200	-116
1.69567	-117
1.69933	-117
1.70300	-115
1.70667	-110
1.71033	-110
1.71400	-111
1.71767	-114
1.72133	-116
1.72500	-114
1.72867	-106
1.73233	-99
1.73600	-96
1.73967	-97
1.74333	-98
1.74700	-100
1.75067	-102
1.75433	-103
1.75800	-101
1.76167	-95
1.76533	-90
1.76900	-91
1.77267	-95
1.77633	-99
1.78000	-102
1.78367	-108
1.78733	-109
1.79100	-103
1.79467	-94
1.79833	-87
1.80200	-82
1.80567	-80
1.80933	-79
1.81300	-80
1.81667	-78
1.82033	-75
1.82400	-73
1.82767	-73
1.83133	-73
1.83500	-74
1.83867	-76
1.84233	-80
1.84600	-81
1.84967	-81
1.85333	-81
1.85700	-82
1.86067	-82
1.86433	-81
1.86800	-81
1.87167	-82
1.87533	-80
1.87900	-76
1.88267	-75
1.88633	-76
1.89000	-78
1.89367	-79
1.89733	-78
1.90100	-78
1.90467	-78
1.90833	-78
1.91200	-80
1.91567	-80
1.91933	-81
1.92300	-82
1.92667	-81
1.93033	-83
1.93400	-91
1.93767	-94
1.94133	-90
1.94500	-89
1.94867	-85
1.95233	-64
1.95600	75
1.95967	935
1.96333	5214
1.96700	21461
1.97067	68701
1.97433	174123
1.97800	355683
1.98167	601751
1.98533	871616
1.98900	1115425
1.99267	1292932
1.99633	1379661
2.00000	1367350
2.00367	1264491
2.00733	1095496
2.01100	893727
2.01467	691576
2.01833	512300
2.02200	367020
2.02567	256881
2.02933	177296
2.03300	121681
2.03667	83662
2.04033	58014
2.04400	40816
2.04767	29282
2.05133	21496
2.05500	16182
2.05867	12506
2.06233	9918
2.06600	8055
2.06967	6683
2.07333	5648
2.07700	4851
2.08067	4226
2.08433	3729
2.08800	3325
2.09167	2994
2.09533	2717
2.09900	2480
2.10267	2280
2.10633	2111
2.11000	1963
2.11367	1833
2.11733	1717
2.12100	1615
2.12467	1520
2.12833	1434
2.13200	1355
2.13567	1279
2.13933	1213
2.14300	1156
2.14667	1104
2.15033	1054
2.15400	1010
2.15767	968
2.16133	930
2.16500	898
2.16867	868
2.17233	840
2.17600	810
2.17967	779
2.18333	751
2.18700	724
2.19067	696
2.19433	665
2.19800	636
2.20167	607
2.20533	582
2.20900	564
2.21267	553
2.21633	542
2.22000	529
2.22367	513
2.22733	496
2.23100	481
2.23467	473
2.23833	471
2.24200	469
2.24567	461
2.24933	446
2.25300	428
2.25667	417
2.26033	410
2.26400	406
2.26767	406
2.27133	405
2.27500	401
2.27867	391
2.28233	376
2.28600	359
2.28967	344
2.29333	334
2.29700	325
2.30067	316
2.30433	304
2.30800	297
2.31167	294
2.31533	294
2.31900	295
2.32267	292
2.32633	288
2.33000	287
2.33367	289
2.33733	287
2.34100	283
2.34467	278
2.34833	274
2.35200	270
2.35567	266
2.35933	261
2.36300	259
2.36667	258
2.37033	259
2.37400	262
2.37767	263
2.38133	261
2.38500	259
2.38867	255
2.39233	244
2.39600	230
2.39967	221
2.40333	220
2.40700	226
2.41067	235
2.41433	238
2.41800	234
2.42167	226
2.42533	221
2.42900	218
2.43267	215
2.43633	218
2.44000	222
2.44367	226
2.44733	230
2.45100	231
2.45467	231
2.45833	229
2.46200	226
2.46567	220
2.46933	213
2.47300	207
2.47667	202
2.48033	199
2.48400	195
2.48767	188
2.49133	185
2.49500	186
2.49867	186
2.50233	183
2.50600	179
2.50967	179
2.51333	186
2.51700	195
2.52067	198
2.52433	194
2.52800	190
2.53167	189
2.53533	193
2.53900	200
2.54267	205
2.54633	203
2.55000	196
2.55367	188
2.55733	178
2.56100	165
2.56467	155
2.56833	149
2.57200	148
2.57567	149
2.57933	152
2.58300	156
2.58667	157
2.59033	161
2.59400	169
2.59767	175
2.60133	177
2.60500	173
2.60867	162
2.61233	149
2.61600	143
2.61967	145
2.62333	149
2.62700	150
2.63067	149
2.63433	145
2.63800	142
2.64167	142
2.64533	151
2.64900	161
2.65267	162
2.65633	160
2.66000	161
2.66367	163
2.66733	161
2.67100	159
2.67467	158
2.67833	154
2.68200	151
2.68567	150
2.68933	145
2.69300	139
2.69667	136
2.70033	141
2.70400	157
2.70767	169
2.71133	168
2.71500	156
2.71867	141
2.72233	127
2.72600	118
2.72967	120
2.73333	127
2.73700	133
2.74067	138
2.74433	141
2.74800	147
2.75167	152
2.75533	154
2.75900	156
2.76267	162
2.76633	168
2.77000	168
2.77367	164
2.77733	159
2.78100	159
2.78467	163
2.78833	164
2.79200	158
2.79567	150
2.79933	144
2.80300	141
2.80667	144
2.81033	147
2.81400	147
2.81767	145
2.82133	144
2.82500	145
2.82867	148
2.83233	154
2.83600	158
2.83967	158
2.84333	155
2.84700	151
2.85067	147
2.85433	143
2.85800	143
2.86167	147
2.86533	150
2.86900	151
2.87267	150
2.87633	150
2.88000	147
2.88367	144
2.88733	143
2.89100	147
2.89467	153
2.89833	153
2.90200	151
2.90567	151
2.90933	153
2.91300	154
2.91667	153
2.92033	146
2.92400	142
2.92767	141
2.93133	144
2.93500	150
2.93867	149
2.94233	144
2.94600	141
2.94967	141
2.95333	147
2.95700	154
2.96067	158
2.96433	160
2.96800	162
2.97167	166
2.97533	167
2.97900	165
2.98267	163
2.98633	162
2.99000	163
2.99367	164
2.99733	161
3.00100	154
3.00467	142
3.00833	130
3.01200	124
3.01567	124
3.01933	134
3.02300	146
3.02667	150
3.03033	143
3.03400	134
3.03767	131
3.04133	131
3.04500	130
3.04867	128
3.05233	131
3.05600	132
3.05967	128
3.06333	122
3.06700	117
3.07067	113
3.07433	110
3.07800	107
3.08167	101
3.08533	95
3.08900	93
3.09267	98
3.09633	105
3.10000	114
3.10367	124
3.10733	133
3.11100	135
3.11467	124
3.11833	112
3.12200	105
3.12567	103
3.12933	107
3.13300	113
3.13667	116
3.14033	117
3.14400	119
3.14767	125
3.15133	131
3.15500	133
3.15867	135
3.16233	137
3.16600	138
3.16967	133
3.17333	128
3.17700	129
3.18067	129
3.18433	127
3.18800	121
3.19167	112
3.19533	105
3.19900	107
3.20267	115
3.20633	122
3.21000	129
3.21367	130
3.21733	124
3.22100	116
3.22467	112
3.22833	116
3.23200	122
3.23567	126
3.23933	133
3.24300	138
3.24667	140
3.25033	142
3.25400	138
3.25767	126
3.26133	118
3.26500	115
3.26867	109
3.27233	102
3.27600	100
3.27967	100
3.28333	99
3.28700	105
3.29067	111
3.29433	111
3.29800	106
3.30167	97
3.30533	93
3.30900	92
3.31267	86
3.31633	83
3.32000	87
3.32367	93
3.32733	97
3.33100	104
3.33467	108
3.33833	107
3.34200	107
3.34567	105
3.34933	102
3.35300	103
3.35667	105
3.36033	105
3.36400	106
3.36767	108
3.37133	107
3.37500	107
3.37867	107
3.38233	105
3.38600	102
3.38967	97
3.39333	89
3.39700	83
3.40067	81
3.40433	84
3.40800	86
3.41167	88
3.41533	89
3.41900	91
3.42267	94
3.42633	97
3.43000	101
3.43367	105
3.43733	103
3.44100	96
3.44467	91
3.44833	88
3.45200	83
3.45567	78
3.45933	78
3.46300	79
3.46667	80
3.47033	87
3.47400	91
3.47767	92
3.48133	92
3.48500	90
3.48867	84
3.49233	83
3.49600	80
3.49967	75
3.50333	73
3.50700	75
3.51067	78
3.51433	84
3.51800	89
3.52167	90
3.52533	89
3.52900	85
3.53267	83
3.53633	85
3.54000	86
3.54367	83
3.54733	80
3.55100	78
3.55467	73
3.55833	70
3.56200	70
3.56567	69
3.56933	71
3.57300	73
3.57667	72
3.58033	76
3.58400	82
3.58767	80
3.59133	70
3.59500	61
3.59867	58
3.60233	58
3.60600	56
3.60967	55
3.61333	55
3.61700	51
3.62067	49
3.62433	49
3.62800	51
3.63167	52
3.63533	49
3.63900	44
3.64267	40
3.64633	35
3.65000	31
3.65367	31
3.65733	34
3.66100	40
3.66467	49
3.66833	57
3.67200	62
3.67567	62
3.67933	60
3.68300	58
3.68667	58
3.69033	61
3.69400	58
3.69767	55
3.70133	58
3.70500	61
3.70867	57
3.71233	47
3.71600	43
3.71967	45
3.72333	48
3.72700	52
3.73067	57
3.73433	59
3.73800	58
3.74167	57
3.74533	55
3.74900	51
3.75267	48
3.75633	44
3.76000	40
3.76367	33
3.76733	26
3.77100	27
3.77467	41
3.77833	54
3.78200	62
3.78567	64
3.78933	62
3.79300	55
3.79667	44
3.80033	35
3.80400	28
3.80767	20
3.81133	17
3.81500	21
3.81867	30
3.82233	40
3.82600	43
3.82967	40
3.83333	33
3.83700	29
3.84067	30
3.84433	32
3.84800	32
3.85167	30
3.85533	31
3.85900	38
3.86267	43
3.86633	45
3.87000	43
3.87367	36
3.87733	29
3.88100	29
3.88467	34
3.88833	37
3.89200	35
3.89567	31
3.89933	23
3.90300	14
3.90667	12
3.91033	14
3.91400	17
3.91767	17
3.92133	21
3.92500	28
3.92867	32
3.93233	38
3.93600	43
3.93967	47
3.94333	50
3.94700	52
3.95067	51
3.95433	45
3.95800	40
3.96167	37
3.96533	31
3.96900	18
3.97267	5
3.97633	-4
3.98000	-7
3.98367	-8
3.98733	-9
3.99100	-6
3.99467	1
3.99833	10

[Chromatogram (Ch2)]
Interval(msec)	220
# of Points	1091
Start Time(min)	0.002
End Time(min)	3.998
R.Time (min)	Intensity
0.00167	-0
0.00533	0
0.00900	0
0.01267	1
0.01633	1
0.02000	1
0.02367	1
0.02733	1
0.03100	1
0.03467	1
0.03833	1
0.04200	1
0.04567	1
0.04933	1
0.05300	1
0.05667	1
0.06033	1
0.06400	1
0.06767	1
0.07133	1
0.07500	1
0.07867	0
0.08233	-0
0.08600	-0
0.08967	-0
0.09333	0
0.09700	0
0.10067	0
0.10433	0
0.10800	1
0.11167	1
0.11533	1
0.11900	1
0.12267	1
0.12633	1
0.13000	1
0.13367	0
0.13733	0
0.14100	0
0.14467	0
0.14833	0
0.15200	0
0.15567	0
0.15933	-0
0.16300	-0
0.16667	-1
0.17033	-1
0.17400	-1
0.17767	-1
0.18133	-0
0.18500	-0
0.18867	-0
0.19233	-0
0.19600	-0
0.19967	-0
0.20333	-0
0.20700	-0
0.21067	-0
0.21433	-1
0.21800	-1
0.22167	-1
0.22533	-1
0.22900	-0
0.23267	-1
0.23633	-1
0.24000	-1
0.24367	-1
0.24733	-1
0.25100	-1
0.25467	-1
0.25833	-1
0.26200	-1
0.26567	-1
0.26933	-0
0.27300	-0
0.27667	0
0.28033	0
0.28400	0
0.28767	0
0.29133	0
0.29500	0
0.29867	0
0.30233	-0
0.30600	-0
0.30967	-1
0.31333	-1
0.31700	-1
0.32067	-1
0.32433	-1
0.32800	-1
0.33167	-1
0.33533	-1
0.33900	-1
0.34267	-1
0.34633	-1
0.35000	-1
0.35367	-1
0.35733	-1
0.36100	-0
0.36467	0
0.36833	0
0.37200	1
0.37567	1
0.37933	1
0.38300	1
0.38667	1
0.39033	1
0.39400	1
0.39767	1
0.40133	0
0.40500	0
0.40867	0
0.41233	0
0.41600	0
0.41967	-0
0.42333	-0
0.42700	-0
0.43067	-1
0.43433	-1
0.43800	-1
0.44167	-1
0.44533	-1
0.44900	-1
0.45267	-1
0.45633	-1
0.46000	-1
0.46367	-1
0.46733	-1
0.47100	-1
0.47467	-1
0.47833	-1
0.48200	-1
0.48567	-1
0.48933	-0
0.49300	-1
0.49667	-1
0.50033	-0
0.50400	-0
0.50767	-0
0.51133	0
0.51500	0
0.51867	0
0.52233	0
0.52600	0
0.52967	0
0.53333	-0
0.53700	-0
0.54067	-0
0.54433	-1
0.54800	-1
0.55167	-1
0.55533	-1
0.55900	-1
0.56267	-1
0.56633	-1
0.57000	-1
0.57367	-1
0.57733	-1
0.58100	-0
0.58467	0
0.58833	0
0.59200	0
0.59567	0
0.59933	0
0.60300	1
0.60667	1
0.61033	0
0.61400	0
0.61767	0
0.62133	0
0.62500	0
0.62867	0
0.63233	0
0.63600	-0
0.63967	-0
0.64333	-0
0.64700	-1
0.65067	-1
0.65433	-1
0.65800	-1
0.66167	-1
0.66533	-1
0.66900	-1
0.67267	-1
0.67633	-1
0.68000	-1
0.68367	-1
0.68733	-1
0.69100	-1
0.69467	-1
0.69833	-1
0.70200	-2
0.70567	-2
0.70933	-2
0.71300	-2
0.71667	-1
0.72033	-1
0.72400	-1
0.72767	-1
0.73133	-1
0.73500	-1
0.73867	-1
0.74233	-1
0.74600	-1
0.74967	-1
0.75333	-1
0.75700	-1
0.76067	-1
0.76433	-1
0.76800	-1
0.77167	-1
0.77533	-2
0.77900	-2
0.78267	-2
0.78633	-2
0.79000	-1
0.79367	-1
0.79733	-1
0.80100	-1
0.80467	-1
0.80833	-1
0.81200	-1
0.81567	-1
0.81933	-1
0.82300	-1
0.82667	-1
0.83033	-1
0.83400	-2
0.83767	-2
0.84133	-2
0.84500	-2
0.84867	-2
0.85233	-2
0.85600	-2
0.85967	-2
0.86333	-2
0.86700	-2
0.87067	-2
0.87433	-2
0.87800	-2
0.88167	-2
0.88533	-2
0.88900	-2
0.89267	-2
0.89633	-2
0.90000	-2
0.90367	-2
0.90733	-2
0.91100	-2
0.91467	-2
0.91833	-2
0.92200	-2
0.92567	-2
0.92933	-2
0.93300	-1
0.93667	-1
0.94033	-1
0.94400	-1
0.94767	-1
0.95133	-1
0.95500	-1
0.95867	-1
0.96233	-2
0.96600	-1
0.96967	-1
0.97333	-1
0.97700	-1
0.98067	-1
0.98433	-1
0.98800	-1
0.99167	-1
0.99533	-1
0.99900	-1
1.00267	-0
1.00633	-0
1.01000	-1
1.01367	-1
1.01733	-1
1.02100	-1
1.02467	-1
1.02833	-2
1.03200	-2
1.03567	-2
1.03933	-2
1.04300	-2
1.04667	-2
1.05033	-2
1.05400	-2
1.05767	-2
1.06133	-3
1.06500	-3
1.06867	-3
1.07233	-3
1.07600	-2
1.07967	-2
1.08333	-2
1.08700	-2
1.09067	-2
1.09433	-2
1.09800	-2
1.10167	-2
1.10533	-2
1.10900	-2
1.11267	-2
1.11633	-3
1.12000	-3
1.12367	-3
1.12733	-3
1.13100	-3
1.13467	-3
1.13833	-3
1.14200	-3
1.14567	-3
1.14933	-4
1.15300	-4
1.15667	-4
1.16033	-4
1.16400	-4
1.16767	-4
1.17133	-4
1.17500	-4
1.17867	-4
1.18233	-4
1.18600	-4
1.18967	-4
1.19333	-4
1.19700	-4
1.20067	-4
1.20433	-3
1.20800	-3
1.21167	-3
1.21533	-3
1.21900	-3
1.22267	-3
1.22633	-3
1.23000	-3
1.23367	-3
1.23733	-3
1.24100	-3
1.24467	-3
1.24833	-4
1.25200	-4
1.25567	-4
1.25933	-4
1.26300	-4
1.26667	-4
1.27033	-4
1.27400	-4
1.27767	-4
1.28133	-4
1.28500	-4
1.28867	-5
1.29233	-5
1.29600	-5
1.29967	-6
1.30333	-6
1.30700	-6
1.31067	-6
1.31433	-6
1.31800	-6
1.32167	-6
1.32533	-6
1.32900	-6
1.33267	-6
1.33633	-5
1.34000	-5
1.34367	-5
1.34733	-5
1.35100	-5
1.35467	-5
1.35833	-5
1.36200	-5
1.36567	-4
1.36933	-4
1.37300	-4
1.37667	-3
1.38033	-3
1.38400	-3
1.38767	-3
1.39133	-3
1.39500	-3
1.39867	-3
1.40233	-3
1.40600	-3
1.40967	-3
1.41333	-2
1.41700	-2
1.42067	-2
1.42433	-2
1.42800	-2
1.43167	-1
1.43533	-1
1.43900	-1
1.44267	-1
1.44633	-1
1.45000	-1
1.45367	-1
1.45733	-2
1.46100	-2
1.46467	-2
1.46833	-2
1.47200	-2
1.47567	-2
1.47933	-2
1.48300	-2
1.48667	-3
1.49033	-3
1.49400	-3
1.49767	-4
1.50133	-4
1.50500	-5
1.50867	-5
1.51233	-5
1.51600	-5
1.51967	-5
1.52333	-5
1.52700	-5
1.53067	-4
1.53433	-4
1.53800	-4
1.54167	-4
1.54533	-4
1.54900	-4
1.55267	-3
1.55633	-3
1.56000	-3
1.56367	-3
1.56733	-3
1.57100	-3
1.57467	-3
1.57833	-3
1.58200	-3
1.58567	-3
1.58933	-3
1.59300	-3
1.59667	-4
1.60033	-5
1.60400	-6
1.60767	-8
1.61133	-10
1.61500	-12
1.61867	-15
1.62233	-17
1.62600	-20
1.62967	-23
1.63333	-26
1.63700	-30
1.64067	-33
1.64433	-36
1.64800	-40
1.65167	-43
1.65533	-47
1.65900	-51
1.66267	-54
1.66633	-58
1.67000	-62
1.67367	-67
1.67733	-71
1.68100	-76
1.68467	-81
1.68833	-85
1.69200	-89
1.69567	-92
1.69933	-95
1.70300	-97
1.70667	-99
1.71033	-101
1.71400	-102
1.71767	-104
1.72133	-104
1.72500	-105
1.72867	-106
1.73233	-106
1.73600	-106
1.73967	-106
1.74333	-107
1.74700	-107
1.75067	-108
1.75433	-108
1.75800	-109
1.76167	-110
1.76533	-112
1.76900	-113
1.77267	-114
1.77633	-115
1.78000	-115
1.78367	-115
1.78733	-115
1.79100	-115
1.79467	-114
1.79833	-114
1.80200	-113
1.80567	-113
1.80933	-113
1.81300	-113
1.81667	-114
1.82033	-114
1.82400	-114
1.82767	-115
1.83133	-115
1.83500	-116
1.83867	-116
1.84233	-116
1.84600	-116
1.84967	-115
1.85333	-115
1.85700	-114
1.86067	-114
1.86433	-114
1.86800	-114
1.87167	-114
1.87533	-114
1.87900	-114
1.88267	-115
1.88633	-115
1.89000	-116
1.89367	-116
1.89733	-115
1.90100	-115
1.90467	-114
1.90833	-114
1.91200	-114
1.91567	-114
1.91933	-114
1.92300	-114
1.92667	-113
1.93033	-113
1.93400	-113
1.93767	-113
1.94133	-112
1.94500	-112
1.94867	-111
1.95233	-111
1.95600	-110
1.95967	-109
1.96333	-109
1.96700	-108
1.97067	-108
1.97433	-108
1.97800	-109
1.98167	-109
1.98533	-109
1.98900	-108
1.99267	-108
1.99633	-108
2.00000	-107
2.00367	-107
2.00733	-107
2.01100	-106
2.01467	-106
2.01833	-105
2.02200	-104
2.02567	-104
2.02933	-103
2.03300	-103
2.03667	-103
2.04033	-103
2.04400	-102
2.04767	-102
2.05133	-102
2.05500	-101
2.05867	-101
2.06233	-101
2.06600	-101
2.06967	-101
2.07333	-100
2.07700	-100
2.08067	-100
2.08433	-100
2.08800	-100
2.09167	-100
2.09533	-99
2.09900	-99
2.10267	-99
2.10633	-99
2.11000	-98
2.11367	-98
2.11733	-98
2.12100	-98
2.12467	-98
2.12833	-97
2.13200	-97
2.13567	-97
2.13933	-97
2.14300	-97
2.14667	-97
2.15033	-97
2.15400	-96
2.15767	-96
2.16133	-96
2.16500	-96
2.16867	-95
2.17233	-95
2.17600	-95
2.17967	-95
2.18333	-95
2.18700	-94
2.19067	-94
2.19433	-93
2.19800	-93
2.20167	-93
2.20533	-92
2.20900	-92
2.21267	-92
2.21633	-91
2.22000	-91
2.22367	-90
2.22733	-90
2.23100	-90
2.23467	-90
2.23833	-90
2.24200	-90
2.24567	-89
2.24933	-89
2.25300	-89
2.25667	-88
2.26033	-87
2.26400	-87
2.26767	-87
2.27133	-86
2.27500	-86
2.27867	-86
2.28233	-85
2.28600	-84
2.28967	-84
2.29333	-83
2.29700	-82
2.30067	-81
2.30433	-81
2.30800	-81
2.31167	-81
2.31533	-81
2.31900	-81
2.32267	-82
2.32633	-81
2.33000	-81
2.33367	-80
2.33733	-80
2.34100	-79
2.34467	-79
2.34833	-78
2.35200	-77
2.35567	-76
2.35933	-75
2.36300	-74
2.36667	-72
2.37033	-71
2.37400	-70
2.37767	-67
2.38133	-64
2.38500	-61
2.38867	-57
2.39233	-53
2.39600	-49
2.39967	-45
2.40333	-41
2.40700	-36
2.41067	-32
2.41433	-28
2.41800	-24
2.42167	-21
2.42533	-19
2.42900	-17
2.43267	-15
2.43633	-13
2.44000	-12
2.44367	-11
2.44733	-10
2.45100	-9
2.45467	-8
2.45833	-7
2.46200	-6
2.46567	-6
2.46933	-5
2.47300	-4
2.47667	-2
2.48033	-1
2.48400	0
2.48767	1
2.49133	3
2.49500	4
2.49867	5
2.50233	5
2.50600	6
2.50967	6
2.51333	7
2.51700	7
2.52067	8
2.52433	8
2.52800	9
2.53167	9
2.53533	9
2.53900	10
2.54267	11
2.54633	11
2.55000	12
2.55367	13
2.55733	14
2.56100	14
2.56467	14
2.56833	14
2.57200	14
2.57567	14
2.57933	13
2.58300	13
2.58667	12
2.59033	12
2.59400	12
2.59767	13
2.60133	13
2.60500	14
2.60867	14
2.61233	15
2.61600	16
2.61967	16
2.62333	16
2.62700	16
2.63067	16
2.63433	16
2.63800	16
2.64167	16
2.64533	16
2.64900	16
2.65267	17
2.65633	17
2.66000	18
2.66367	19
2.66733	20
2.67100	20
2.67467	21
2.67833	21
2.68200	21
2.68567	21
2.68933	21
2.69300	21
2.69667	20
2.70033	20
2.70400	19
2.70767	19
2.71133	19
2.71500	18
2.71867	18
2.72233	18
2.72600	18
2.72967	18
2.73333	19
2.73700	19
2.74067	20
2.74433	20
2.74800	21
2.75167	22
2.75533	22
2.75900	23
2.76267	24
2.76633	24
2.77000	25
2.77367	26
2.77733	26
2.78100	27
2.78467	27
2.78833	27
2.79200	27
2.79567	27
2.79933	27
2.80300	27
2.80667	27
2.81033	27
2.81400	27
2.81767	27
2.82133	27
2.82500	27
2.82867	27
2.83233	26
2.83600	26
2.83967	25
2.84333	24
2.84700	21
2.85067	17
2.85433	10
2.85800	1
2.86167	-12
2.86533	-28
2.86900	-49
2.87267	-74
2.87633	-104
2.88000	-138
2.88367	-176
2.88733	-218
2.89100	-264
2.89467	-313
2.89833	-365
2.90200	-418
2.90567	-473
2.90933	-529
2.91300	-585
2.91667	-641
2.92033	-696
2.92400	-750
2.92767	-802
2.93133	-853
2.93500	-906
2.93867	-964
2.94233	-1021
2.94600	-1069
2.94967	-1098
2.95333	-1102
2.95700	-1080
2.96067	-1035
2.96433	-974
2.96800	-901
2.97167	-822
2.97533	-741
2.97900	-661
2.98267	-585
2.98633	-513
2.99000	-448
2.99367	-389
2.99733	-335
3.00100	-288
3.00467	-247
3.00833	-210
3.01200	-179
3.01567	-151
3.01933	-128
3.02300	-107
3.02667	-90
3.03033	-75
3.03400	-62
3.03767	-50
3.04133	-41
3.04500	-33
3.04867	-26
3.05233	-20
3.05600	-15
3.05967	-11
3.06333	-8
3.06700	-5
3.07067	-3
3.07433	-1
3.07800	1
3.08167	3
3.08533	4
3.08900	5
3.09267	6
3.09633	7
3.10000	8
3.10367	9
3.10733	10
3.11100	11
3.11467	11
3.11833	12
3.12200	12
3.12567	12
3.12933	13
3.13300	13
3.13667	13
3.14033	14
3.14400	14
3.14767	14
3.15133	15
3.15500	15
3.15867	16
3.16233	16
3.16600	16
3.16967	17
3.17333	17
3.17700	17
3.18067	18
3.18433	18
3.18800	19
3.19167	19
3.19533	19
3.19900	19
3.20267	20
3.20633	20
3.21000	20
3.21367	20
3.21733	21
3.22100	21
3.22467	21
3.22833	21
3.23200	22
3.23567	22
3.23933	22
3.24300	22
3.24667	22
3.25033	22
3.25400	22
3.25767	21
3.26133	21
3.26500	21
3.26867	21
3.27233	21
3.27600	21
3.27967	21
3.28333	21
3.28700	21
3.29067	21
3.29433	21
3.29800	21
3.30167	21
3.30533	22
3.30900	22
3.31267	22
3.31633	22
3.32000	22
3.32367	22
3.32733	23
3.33100	23
3.33467	23
3.33833	23
3.34200	24
3.34567	24
3.34933	24
3.35300	24
3.35667	25
3.36033	25
3.36400	25
3.36767	26
3.37133	26
3.37500	26
3.37867	26
3.38233	27
3.38600	27
3.38967	27
3.39333	27
3.39700	27
3.40067	27
3.40433	27
3.40800	28
3.41167	27
3.41533	27
3.41900	27
3.42267	27
3.42633	27
3.43000	27
3.43367	27
3.43733	27
3.44100	27
3.44467	27
3.44833	27
3.45200	28
3.45567	28
3.45933	28
3.46300	28
3.46667	28
3.47033	28
3.47400	27
3.47767	27
3.48133	27
3.48500	27
3.48867	27
3.49233	27
3.49600	27
3.49967	27
3.50333	27
3.50700	27
3.51067	26
3.51433	26
3.51800	26
3.52167	26
3.52533	26
3.52900	26
3.53267	26
3.53633	26
3.54000	26
3.54367	26
3.54733	26
3.55100	26
3.55467	26
3.55833	26
3.56200	26
3.56567	25
3.56933	25
3.57300	25
3.57667	25
3.58033	25
3.58400	25
3.58767	24
3.59133	24
3.59500	24
3.59867	24
3.60233	24
3.60600	24
3.60967	24
3.61333	24
3.61700	24
3.62067	24
3.62433	23
3.62800	23
3.63167	23
3.63533	23
3.63900	23
3.64267	23
3.64633	24
3.65000	24
3.65367	24
3.65733	24
3.66100	24
3.66467	24
3.66833	24
3.67200	24
3.67567	25
3.67933	25
3.68300	24
3.68667	24
3.69033	24
3.69400	24
3.69767	24
3.70133	24
3.70500	24
3.70867	24
3.71233	24
3.71600	24
3.71967	24
3.72333	24
3.72700	24
3.73067	24
3.73433	24
3.73800	23
3.74167	23
3.74533	23
3.74900	23
3.75267	23
3.75633	24
3.76000	24
3.76367	24
3.76733	24
3.77100	24
3.77467	24
3.77833	24
3.78200	24
3.78567	24
3.78933	24
3.79300	25
3.79667	25
3.80033	25
3.80400	25
3.80767	25
3.81133	25
3.81500	25
3.81867	24
3.82233	24
3.82600	24
3.82967	24
3.83333	24
3.83700	24
3.84067	24
3.84433	24
3.84800	24
3.85167	24
3.85533	24
3.85900	23
3.86267	23
3.86633	23
3.87000	23
3.87367	23
3.87733	24
3.88100	24
3.88467	24
3.88833	24
3.89200	24
3.89567	24
3.89933	24
3.90300	24
3.90667	24
3.91033	24
3.91400	24
3.91767	24
3.92133	24
3.92500	24
3.92867	24
3.93233	24
3.93600	24
3.93967	24
3.94333	24
3.94700	24
3.95067	24
3.95433	24
3.95800	24
3.96167	24
3.96533	24
3.96900	24
3.97267	24
3.97633	24
3.98000	24
3.98367	24
3.98733	24
3.99100	24
3.99467	24
3.99833	24

[Chromatogram (Ch3)]
Interval(msec)	220
# of Points	1091
Start Time(min)	0.002
End Time(min)	3.998
R.Time (min)	Intensity
0.00167	0
0.00533	-1
0.00900	-2
0.01267	-0
0.01633	2
0.02000	3
0.02367	4
0.02733	4
0.03100	1
0.03467	1
0.03833	2
0.04200	3
0.04567	3
0.04933	3
0.05300	5
0.05667	7
0.06033	7
0.06400	7
0.06767	7
0.07133	7
0.07500	8
0.07867	8
0.08233	9
0.08600	9
0.08967	10
0.09333	12
0.09700	12
0.10067	11
0.10433	11
0.10800	11
0.11167	13
0.11533	14
0.11900	14
0.12267	11
0.12633	10
0.13000	10
0.13367	10
0.13733	11
0.14100	12
0.14467	12
0.14833	11
0.15200	9
0.15567	7
0.15933	8
0.16300	9
0.16667	8
0.17033	9
0.17400	9
0.17767	9
0.18133	11
0.18500	12
0.18867	14
0.19233	15
0.19600	16
0.19967	14
0.20333	13
0.20700	12
0.21067	11
0.21433	10
0.21800	9
0.22167	8
0.22533	7
0.22900	7
0.23267	8
0.23633	9
0.24000	9
0.24367	9
0.24733	8
0.25100	6
0.25467	5
0.25833	5
0.26200	6
0.26567	8
0.26933	9
0.27300	9
0.27667	7
0.28033	9
0.28400	11
0.28767	11
0.29133	13
0.29500	14
0.29867	14
0.30233	12
0.30600	10
0.30967	9
0.31333	9
0.31700	8
0.32067	7
0.32433	7
0.32800	10
0.33167	13
0.33533	15
0.33900	14
0.34267	12
0.34633	11
0.35000	12
0.35367	11
0.35733	9
0.36100	6
0.36467	4
0.36833	5
0.37200	7
0.37567	8
0.37933	8
0.38300	8
0.38667	7
0.39033	7
0.39400	8
0.39767	10
0.40133	11
0.40500	11
0.40867	12
0.41233	12
0.41600	10
0.41967	7
0.42333	5
0.42700	5
0.43067	7
0.43433	7
0.43800	7
0.44167	7
0.44533	7
0.44900	6
0.45267	4
0.45633	1
0.46000	2
0.46367	3
0.46733	2
0.47100	2
0.47467	1
0.47833	1
0.48200	2
0.48567	3
0.48933	4
0.49300	3
0.49667	3
0.50033	4
0.50400	5
0.50767	5
0.51133	6
0.51500	7
0.51867	5
0.52233	6
0.52600	6
0.52967	5
0.53333	5
0.53700	5
0.54067	2
0.54433	2
0.54800	3
0.55167	2
0.55533	2
0.55900	2
0.56267	4
0.56633	5
0.57000	5
0.57367	4
0.57733	3
0.58100	3
0.58467	4
0.58833	1
0.59200	-2
0.59567	-1
0.59933	1
0.60300	2
0.60667	2
0.61033	1
0.61400	1
0.61767	1
0.62133	2
0.62500	3
0.62867	5
0.63233	6
0.63600	6
0.63967	4
0.64333	2
0.64700	2
0.65067	2
0.65433	2
0.65800	2
0.66167	1
0.66533	2
0.66900	4
0.67267	4
0.67633	3
0.68000	5
0.68367	5
0.68733	3
0.69100	2
0.69467	2
0.69833	3
0.70200	3
0.70567	3
0.70933	2
0.71300	2
0.71667	2
0.72033	3
0.72400	2
0.72767	4
0.73133	4
0.73500	4
0.73867	4
0.74233	3
0.74600	2
0.74967	3
0.75333	3
0.75700	3
0.76067	2
0.76433	3
0.76800	2
0.77167	2
0.77533	0
0.77900	-1
0.78267	1
0.78633	2
0.79000	2
0.79367	2
0.79733	1
0.80100	2
0.80467	4
0.80833	6
0.81200	6
0.81567	4
0.81933	2
0.82300	1
0.82667	3
0.83033	5
0.83400	5
0.83767	6
0.84133	5
0.84500	4
0.84867	2
0.85233	1
0.85600	1
0.85967	-0
0.86333	-0
0.86700	-1
0.87067	-1
0.87433	-1
0.87800	-0
0.88167	1
0.88533	2
0.88900	2
0.89267	3
0.89633	3
0.90000	1
0.90367	1
0.90733	1
0.91100	2
0.91467	4
0.91833	6
0.92200	6
0.92567	6
0.92933	6
0.93300	5
0.93667	5
0.94033	3
0.94400	0
0.94767	-0
0.95133	2
0.95500	1
0.95867	0
0.96233	2
0.96600	4
0.96967	3
0.97333	3
0.97700	4
0.98067	4
0.98433	3
0.98800	4
0.99167	6
0.99533	9
0.99900	10
1.00267	11
1.00633	11
1.01000	13
1.01367	12
1.01733	12
1.02100	11
1.02467	8
1.02833	6
1.03200	7
1.03567	9
1.03933	11
1.04300	13
1.04667	13
1.05033	12
1.05400	13
1.05767	13
1.06133	13
1.06500	13
1.06867	14
1.07233	15
1.07600	16
1.07967	17
1.08333	17
1.08700	16
1.09067	12
1.09433	12
1.09800	15
1.10167	15
1.10533	13
1.10900	13
1.11267	13
1.11633	11
1.12000	10
1.12367	8
1.12733	7
1.13100	8
1.13467	9
1.13833	11
1.14200	13
1.14567	14
1.14933	14
1.15300	13
1.15667	14
1.16033	13
1.16400	12
1.16767	12
1.17133	10
1.17500	11
1.17867	12
1.18233	13
1.18600	14
1.18967	15
1.19333	16
1.19700	17
1.20067	15
1.20433	14
1.20800	12
1.21167	10
1.21533	7
1.21900	6
1.22267	8
1.22633	11
1.23000	13
1.23367	12
1.23733	11
1.24100	11
1.24467	13
1.24833	13
1.25200	14
1.25567	15
1.25933	15
1.26300	14
1.26667	12
1.27033	12
1.27400	12
1.27767	13
1.28133	15
1.28500	16
1.28867	16
1.29233	15
1.29600	12
1.29967	10
1.30333	10
1.30700	11
1.31067	10
1.31433	11
1.31800	11
1.32167	10
1.32533	11
1.32900	11
1.33267	10
1.33633	10
1.34000	10
1.34367	11
1.34733	12
1.35100	9
1.35467	7
1.35833	8
1.36200	9
1.36567	9
1.36933	10
1.37300	11
1.37667	10
1.38033	11
1.38400	12
1.38767	11
1.39133	9
1.39500	8
1.39867	8
1.40233	7
1.40600	6
1.40967	5
1.41333	5
1.41700	6
1.42067	8
1.42433	11
1.42800	13
1.43167	13
1.43533	13
1.43900	11
1.44267	9
1.44633	7
1.45000	8
1.45367	9
1.45733	10
1.46100	10
1.46467	10
1.46833	11
1.47200	14
1.47567	14
1.47933	13
1.48300	11
1.48667	10
1.49033	9
1.49400	7
1.49767	7
1.50133	8
1.50500	8
1.50867	8
1.51233	9
1.51600	10
1.51967	9
1.52333	7
1.52700	5
1.53067	4
1.53433	4
1.53800	5
1.54167	6
1.54533	9
1.54900	12
1.55267	15
1.55633	17
1.56000	18
1.56367	15
1.56733	12
1.57100	11
1.57467	10
1.57833	11
1.58200	11
1.58567	11
1.58933	10
1.59300	10
1.59667	9
1.60033	8
1.60400	8
1.60767	7
1.61133	8
1.61500	11
1.61867	15
1.62233	18
1.62600	17
1.62967	15
1.63333	13
1.63700	14
1.64067	15
1.64433	17
1.64800	18
1.65167	19
1.65533	19
1.65900	17
1.66267	16
1.66633	18
1.67000	17
1.67367	17
1.67733	20
1.68100	25
1.68467	29
1.68833	30
1.69200	28
1.69567	27
1.69933	27
1.70300	29
1.70667	29
1.71033	31
1.71400	31
1.71767	32
1.72133	35
1.72500	36
1.72867	35
1.73233	33
1.73600	32
1.73967	31
1.74333	32
1.74700	34
1.75067	38
1.75433	39
1.75800	39
1.76167	39
1.76533	39
1.76900	38
1.77267	35
1.77633	35
1.78000	35
1.78367	35
1.78733	36
1.79100	39
1.79467	39
1.79833	40
1.80200	41
1.80567	42
1.80933	43
1.81300	45
1.81667	48
1.82033	49
1.82400	49
1.82767	49
1.83133	48
1.83500	47
1.83867	46
1.84233	46
1.84600	45
1.84967	44
1.85333	46
1.85700	49
1.86067	51
1.86433	53
1.86800	53
1.87167	52
1.87533	53
1.87900	55
1.88267	57
1.88633	59
1.89000	60
1.89367	61
1.89733	63
1.90100	67
1.90467	70
1.90833	69
1.91200	66
1.91567	67
1.91933	70
1.92300	73
1.92667	75
1.93033	75
1.93400	74
1.93767	74
1.94133	75
1.94500	77
1.94867	80
1.95233	83
1.95600	83
1.95967	82
1.96333	83
1.96700	84
1.97067	84
1.97433	86
1.97800	90
1.98167	95
1.98533	98
1.98900	98
1.99267	97
1.99633	97
2.00000	98
2.00367	99
2.00733	100
2.01100	100
2.01467	101
2.01833	102
2.02200	102
2.02567	106
2.02933	109
2.03300	113
2.03667	116
2.04033	116
2.04400	114
2.04767	113
2.05133	112
2.05500	112
2.05867	115
2.06233	118
2.06600	119
2.06967	119
2.07333	120
2.07700	121
2.08067	119
2.08433	120
2.08800	121
2.09167	121
2.09533	123
2.09900	126
2.10267	127
2.10633	129
2.11000	131
2.11367	133
2.11733	134
2.12100	136
2.12467	138
2.12833	141
2.13200	142
2.13567	142
2.13933	142
2.14300	142
2.14667	141
2.15033	143
2.15400	144
2.15767	145
2.16133	145
2.16500	147
2.16867	148
2.17233	148
2.17600	149
2.17967	152
2.18333	154
2.18700	155
2.19067	157
2.19433	160
2.19800	163
2.20167	161
2.20533	159
2.20900	159
2.21267	159
2.21633	159
2.22000	160
2.22367	162
2.22733	163
2.23100	166
2.23467	169
2.23833	170
2.24200	170
2.24567	170
2.24933	171
2.25300	172
2.25667	170
2.26033	170
2.26400	171
2.26767	174
2.27133	174
2.27500	175
2.27867	175
2.28233	176
2.28600	177
2.28967	176
2.29333	176
2.29700	177
2.30067	177
2.30433	178
2.30800	180
2.31167	182
2.31533	185
2.31900	188
2.32267	189
2.32633	188
2.33000	189
2.33367	189
2.33733	191
2.34100	195
2.34467	197
2.34833	196
2.35200	198
2.35567	201
2.35933	201
2.36300	200
2.36667	200
2.37033	199
2.37400	201
2.37767	203
2.38133	205
2.38500	205
2.38867	202
2.39233	202
2.39600	204
2.39967	206
2.40333	207
2.40700	207
2.41067	209
2.41433	210
2.41800	209
2.42167	211
2.42533	213
2.42900	214
2.43267	216
2.43633	216
2.44000	219
2.44367	271
2.44733	404
2.45100	545
2.45467	658
2.45833	716
2.46200	713
2.46567	681
2.46933	646
2.47300	623
2.47667	609
2.48033	590
2.48400	557
2.48767	515
2.49133	473
2.49500	436
2.49867	405
2.50233	384
2.50600	373
2.50967	369
2.51333	373
2.51700	385
2.52067	401
2.52433	417
2.52800	428
2.53167	427
2.53533	412
2.53900	387
2.54267	360
2.54633	331
2.55000	305
2.55367	284
2.55733	267
2.56100	254
2.56467	247
2.56833	241
2.57200	235
2.57567	232
2.57933	232
2.58300	230
2.58667	230
2.59033	233
2.59400	236
2.59767	236
2.60133	235
2.60500	230
2.60867	220
2.61233	207
2.61600	195
2.61967	183
2.62333	172
2.62700	163
2.63067	156
2.63433	147
2.63800	137
2.64167	130
2.64533	124
2.64900	117
2.65267	110
2.65633	103
2.66000	95
2.66367	87
2.66733	79
2.67100	73
2.67467	68
2.67833	65
2.68200	63
2.68567	60
2.68933	60
2.69300	61
2.69667	62
2.70033	62
2.70400	62
2.70767	67
2.71133	74
2.71500	80
2.71867	84
2.72233	89
2.72600	93
2.72967	97
2.73333	100
2.73700	103
2.74067	108
2.74433	111
2.74800	114
2.75167	114
2.75533	113
2.75900	114
2.76267	118
2.76633	119
2.77000	121
2.77367	125
2.77733	129
2.78100	133
2.78467	139
2.78833	143
2.79200	146
2.79567	149
2.79933	151
2.80300	154
2.80667	158
2.81033	161
2.81400	167
2.81767	174
2.82133	185
2.82500	203
2.82867	235
2.83233	297
2.83600	409
2.83967	592
2.84333	866
2.84700	1238
2.85067	1703
2.85433	2242
2.85800	2815
2.86167	3382
2.86533	3891
2.86900	4301
2.87267	4586
2.87633	4732
2.88000	4745
2.88367	4636
2.88733	4431
2.89100	4161
2.89467	3851
2.89833	3521
2.90200	3188
2.90567	2866
2.90933	2564
2.91300	2283
2.91667	2025
2.92033	1792
2.92400	1586
2.92767	1404
2.93133	1242
2.93500	1101
2.93867	979
2.94233	872
2.94600	777
2.94967	694
2.95333	622
2.95700	560
2.96067	506
2.96433	460
2.96800	421
2.97167	386
2.97533	354
2.97900	326
2.98267	304
2.98633	286
2.99000	271
2.99367	257
2.99733	244
3.00100	231
3.00467	222
3.00833	214
3.01200	205
3.01567	199
3.01933	193
3.02300	189
3.02667	184
3.03033	180
3.03400	178
3.03767	176
3.04133	174
3.04500	170
3.04867	167
3.05233	164
3.05600	158
3.05967	146
3.06333	121
3.06700	107
3.07067	111
3.07433	130
3.07800	159
3.08167	192
3.08533	231
3.08900	273
3.09267	318
3.09633	364
3.10000	406
3.10367	448
3.10733	488
3.11100	522
3.11467	550
3.11833	576
3.12200	599
3.12567	619
3.12933	638
3.13300	656
3.13667	670
3.14033	682
3.14400	692
3.14767	703
3.15133	712
3.15500	719
3.15867	724
3.16233	730
3.16600	738
3.16967	744
3.17333	750
3.17700	755
3.18067	761
3.18433	769
3.18800	774
3.19167	777
3.19533	782
3.19900	787
3.20267	794
3.20633	803
3.21000	809
3.21367	814
3.21733	817
3.22100	820
3.22467	825
3.22833	830
3.23200	835
3.23567	839
3.23933	844
3.24300	849
3.24667	858
3.25033	865
3.25400	868
3.25767	870
3.26133	871
3.26500	874
3.26867	877
3.27233	880
3.27600	882
3.27967	886
3.28333	887
3.28700	888
3.29067	888
3.29433	888
3.29800	887
3.30167	887
3.30533	888
3.30900	887
3.31267	884
3.31633	881
3.32000	877
3.32367	875
3.32733	874
3.33100	873
3.33467	871
3.33833	870
3.34200	871
3.34567	871
3.34933	869
3.35300	865
3.35667	859
3.36033	852
3.36400	847
3.36767	845
3.37133	842
3.37500	838
3.37867	833
3.38233	828
3.38600	827
3.38967	826
3.39333	825
3.39700	824
3.40067	823
3.40433	821
3.40800	818
3.41167	814
3.41533	812
3.41900	810
3.42267	809
3.42633	809
3.43000	807
3.43367	804
3.43733	801
3.44100	798
3.44467	797
3.44833	798
3.45200	798
3.45567	794
3.45933	792
3.46300	792
3.46667	793
3.47033	794
3.47400	792
3.47767	789
3.48133	787
3.48500	784
3.48867	784
3.49233	787
3.49600	788
3.49967	787
3.50333	785
3.50700	782
3.51067	778
3.51433	776
3.51800	774
3.52167	772
3.52533	769
3.52900	767
3.53267	766
3.53633	765
3.54000	763
3.54367	759
3.54733	757
3.55100	754
3.55467	754
3.55833	753
3.56200	752
3.56567	751
3.56933	750
3.57300	748
3.57667	747
3.58033	746
3.58400	745
3.58767	745
3.59133	742
3.59500	739
3.59867	738
3.60233	737
3.60600	734
3.60967	731
3.61333	729
3.61700	728
3.62067	728
3.62433	726
3.62800	725
3.63167	724
3.63533	724
3.63900	721
3.64267	719
3.64633	717
3.65000	716
3.65367	714
3.65733	711
3.66100	709
3.66467	705
3.66833	703
3.67200	702
3.67567	701
3.67933	698
3.68300	697
3.68667	696
3.69033	694
3.69400	692
3.69767	690
3.70133	687
3.70500	684
3.70867	681
3.71233	678
3.71600	676
3.71967	675
3.72333	673
3.72700	671
3.73067	668
3.73433	666
3.73800	664
3.74167	662
3.74533	659
3.74900	655
3.75267	652
3.75633	651
3.76000	649
3.76367	646
3.76733	642
3.77100	636
3.77467	635
3.77833	634
3.78200	630
3.78567	629
3.78933	629
3.79300	627
3.79667	626
3.80033	623
3.80400	620
3.80767	618
3.81133	616
3.81500	613
3.81867	612
3.82233	610
3.82600	608
3.82967	606
3.83333	605
3.83700	602
3.84067	602
3.84433	601
3.84800	600
3.85167	599
3.85533	598
3.85900	597
3.86267	594
3.86633	592
3.87000	592
3.87367	593
3.87733	592
3.88100	588
3.88467	586
3.88833	585
3.89200	585
3.89567	584
3.89933	582
3.90300	578
3.90667	576
3.91033	573
3.91400	571
3.91767	568
3.92133	567
3.92500	567
3.92867	567
3.93233	564
3.93600	561
3.93967	559
3.94333	559
3.94700	560
3.95067	559
3.95433	558
3.95800	554
3.96167	551
3.96533	548
3.96900	546
3.97267	546
3.97633	546
3.98000	543
3.98367	541
3.98733	538
3.99100	537
3.99467	536
3.99833	533

[Status Trace (Column Oven Temperature)]
Interval(msec)	1000
# of Points	240
Start Time(min)	0.003
End Time(min)	3.986
Intensity Units	
Intensity Multiplier	1
R.Time (min)	Intensity
0.00280	35.08
0.01947	35.07
0.03613	35.06
0.05280	35.05
0.06947	35.05
0.08613	35.05
0.10280	35.05
0.11947	35.06
0.13613	35.05
0.15280	35.06
0.16947	35.06
0.18613	35.05
0.20280	35.05
0.21947	35.05
0.23613	35.05
0.25280	35.05
0.26947	35.04
0.28613	35.03
0.30280	35.03
0.31947	35.04
0.33613	35.03
0.35280	35.03
0.36947	35.02
0.38613	35.01
0.40280	35.02
0.41947	35.02
0.43613	35.01
0.45280	35.01
0.46947	35.01
0.48613	35.01
0.50280	35.00
0.51947	34.99
0.53613	35.00
0.55280	35.00
0.56947	34.99
0.58613	35.00
0.60280	35.00
0.61947	35.00
0.63613	35.00
0.65280	34.99
0.66947	34.99
0.68613	34.99
0.70280	34.99
0.71947	35.00
0.73613	35.00
0.75280	35.00
0.76947	35.00
0.78613	35.00
0.80280	34.99
0.81947	34.99
0.83613	35.00
0.85280	34.99
0.86947	35.00
0.88613	35.00
0.90280	35.00
0.91947	35.00
0.93613	34.99
0.95280	35.00
0.96947	35.00
0.98613	34.99
1.00280	34.98
1.01947	34.98
1.03613	34.99
1.05280	35.00
1.06947	35.00
1.08613	34.99
1.10280	34.99
1.11947	34.99
1.13613	34.99
1.15280	34.99
1.16947	34.99
1.18613	34.99
1.20280	34.99
1.21947	34.99
1.23613	34.98
1.25280	34.97
1.26947	34.98
1.28613	34.99
1.30280	35.00
1.31947	35.01
1.33613	35.02
1.35280	35.01
1.36947	35.01
1.38613	35.00
1.40280	35.00
1.41947	34.99
1.43613	34.99
1.45280	34.98
1.46947	34.98
1.48613	34.99
1.50280	35.01
1.51947	35.01
1.53613	35.01
1.55280	35.01
1.56947	35.01
1.58613	35.01
1.60280	35.06
1.61947	35.17
1.63613	35.33
1.65280	35.55
1.66947	35.85
1.68613	36.22
1.70280	36.57
1.71947	36.91
1.73613	37.24
1.75280	37.57
1.76947	37.91
1.78613	38.24
1.80280	38.56
1.81947	38.89
1.83613	39.24
1.85280	39.57
1.86947	39.90
1.88613	40.23
1.90280	40.55
1.91947	40.88
1.93613	41.20
1.95280	41.52
1.96947	41.85
1.98613	42.18
2.00280	42.51
2.01947	42.82
2.03613	43.14
2.05280	43.48
2.06947	43.80
2.08613	44.11
2.10280	44.45
2.11947	44.77
2.13613	45.10
2.15280	45.43
2.16947	45.76
2.18613	46.08
2.20280	46.42
2.21947	46.74
2.23613	47.06
2.25280	47.38
2.26947	47.73
2.28613	48.05
2.30280	48.38
2.31947	48.72
2.33613	49.04
2.35280	49.35
2.36947	49.61
2.38613	49.72
2.40280	49.74
2.41947	49.74
2.43613	49.75
2.45280	49.76
2.46947	49.76
2.48613	49.76
2.50280	49.78
2.51947	49.78
2.53613	49.79
2.55280	49.79
2.56947	49.81
2.58613	49.83
2.60280	49.83
2.61947	49.83
2.63613	49.85
2.65280	49.85
2.66947	49.83
2.68613	49.84
2.70280	49.87
2.71947	49.91
2.73613	49.91
2.75280	49.90
2.76947	49.88
2.78613	49.86
2.80280	49.86
2.81947	49.85
2.83613	49.86
2.85280	49.90
2.86947	49.94
2.88613	49.97
2.90280	49.98
2.91947	49.99
2.93613	50.00
2.95280	50.01
2.96947	50.01
2.98613	50.01
3.00280	50.00
3.01947	50.00
3.03613	50.00
3.05280	50.00
3.06947	50.02
3.08613	50.03
3.10280	50.03
3.11947	50.05
3.13613	50.06
3.15280	50.07
3.16947	50.07
3.18613	50.07
3.20280	50.07
3.21947	50.07
3.23613	50.07
3.25280	50.08
3.26947	50.09
3.28613	50.10
3.30280	50.11
3.31947	50.11
3.33613	50.11
3.35280	50.10
3.36947	50.08
3.38613	50.06
3.40280	50.05
3.41947	50.04
3.43613	50.02
3.45280	50.00
3.46947	49.99
3.48613	49.99
3.50280	49.98
3.51947	49.98
3.53613	49.99
3.55280	49.99
3.56947	49.99
3.58613	50.00
3.60280	50.01
3.61947	50.01
3.63613	50.02
3.65280	50.02
3.66947	50.02
3.68613	50.03
3.70280	50.03
3.71947	50.04
3.73613	50.05
3.75280	50.06
3.76947	50.06
3.78613	50.05
3.80280	50.05
3.81947	50.05
3.83613	50.05
3.85280	50.06
3.86947	50.06
3.88613	50.06
3.90280	50.06
3.91947	50.07
3.93613	50.07
3.95280	50.08
3.96947	50.08
3.98613	50.08

[Status Trace (Injection Unit Temperature)]
Interval(msec)	1000
# of Points	240
Start Time(min)	0.003
End Time(min)	3.986
Intensity Units	
Intensity Multiplier	1
R.Time (min)	Intensity
0.00280	99.97
0.01947	99.98
0.03613	99.98
0.05280	99.98
0.06947	99.98
0.08613	99.98
0.10280	99.98
0.11947	99.98
0.13613	99.98
0.15280	99.98
0.16947	99.98
0.18613	99.98
0.20280	99.98
0.21947	99.98
0.23613	99.98
0.25280	99.98
0.26947	99.98
0.28613	99.98
0.30280	99.98
0.31947	99.98
0.33613	99.98
0.35280	99.98
0.36947	99.98
0.38613	99.98
0.40280	99.98
0.41947	99.98
0.43613	99.98
0.45280	99.98
0.46947	99.98
0.48613	99.98
0.50280	99.98
0.51947	99.98
0.53613	99.99
0.55280	99.98
0.56947	99.98
0.58613	99.98
0.60280	99.98
0.61947	99.98
0.63613	99.98
0.65280	99.98
0.66947	99.98
0.68613	99.98
0.70280	99.98
0.71947	99.98
0.73613	99.98
0.75280	99.98
0.76947	99.98
0.78613	99.98
0.80280	99.98
0.81947	99.98
0.83613	99.98
0.85280	99.98
0.86947	99.98
0.88613	99.98
0.90280	99.98
0.91947	99.98
0.93613	99.98
0.95280	99.98
0.96947	99.98
0.98613	99.98
1.00280	99.98
1.01947	99.98
1.03613	99.98
1.05280	99.98
1.06947	99.98
1.08613	99.98
1.10280	99.98
1.11947	99.98
1.13613	99.98
1.15280	99.98
1.16947	99.98
1.18613	99.98
1.20280	99.98
1.21947	99.98
1.23613	99.98
1.25280	99.98
1.26947	99.98
1.28613	99.98
1.30280	99.98
1.31947	99.98
1.33613	99.98
1.35280	99.98
1.36947	99.98
1.38613	99.98
1.40280	99.98
1.41947	99.98
1.43613	99.98
1.45280	99.98
1.46947	99.98
1.48613	99.98
1.50280	99.99
1.51947	99.98
1.53613	99.98
1.55280	99.98
1.56947	99.98
1.58613	99.98
1.60280	99.98
1.61947	99.98
1.63613	99.98
1.65280	99.98
1.66947	99.99
1.68613	99.98
1.70280	99.98
1.71947	99.99
1.73613	99.98
1.75280	99.99
1.76947	99.99
1.78613	99.99
1.80280	99.98
1.81947	99.98
1.83613	99.98
1.85280	99.99
1.86947	99.98
1.88613	99.99
1.90280	99.99
1.91947	99.98
1.93613	99.99
1.95280	99.99
1.96947	99.99
1.98613	99.98
2.00280	99.98
2.01947	99.98
2.03613	99.98
2.05280	99.98
2.06947	99.98
2.08613	99.98
2.10280	99.98
2.11947	99.98
2.13613	99.97
2.15280	99.97
2.16947	99.97
2.18613	99.97
2.20280	99.97
2.21947	99.97
2.23613	99.97
2.25280	99.97
2.26947	99.97
2.28613	99.97
2.30280	99.97
2.31947	99.96
2.33613	99.97
2.35280	99.97
2.36947	99.97
2.38613	99.96
2.40280	99.96
2.41947	99.97
2.43613	99.97
2.45280	99.97
2.46947	99.97
2.48613	99.97
2.50280	99.97
2.51947	99.97
2.53613	99.97
2.55280	99.97
2.56947	99.98
2.58613	99.98
2.60280	99.97
2.61947	99.97
2.63613	99.98
2.65280	99.98
2.66947	99.98
2.68613	99.98
2.70280	99.99
2.71947	99.98
2.73613	99.99
2.75280	99.99
2.76947	99.99
2.78613	99.99
2.80280	99.99
2.81947	100.00
2.83613	100.00
2.85280	100.00
2.86947	100.00
2.88613	100.00
2.90280	100.00
2.91947	100.00
2.93613	100.00
2.95280	100.01
2.96947	100.01
2.98613	100.01
3.00280	100.01
3.01947	100.02
3.03613	100.01
3.05280	100.02
3.06947	100.02
3.08613	100.02
3.10280	100.02
3.11947	100.02
3.13613	100.02
3.15280	100.02
3.16947	100.03
3.18613	100.02
3.20280	100.02
3.21947	100.02
3.23613	100.02
3.25280	100.02
3.26947	100.02
3.28613	100.03
3.30280	100.03
3.31947	100.02
3.33613	100.03
3.35280	100.03
3.36947	100.02
3.38613	100.03
3.40280	100.02
3.41947	100.03
3.43613	100.03
3.45280	100.03
3.46947	100.03
3.48613	100.03
3.50280	100.03
3.51947	100.03
3.53613	100.03
3.55280	100.03
3.56947	100.03
3.58613	100.04
3.60280	100.04
3.61947	100.03
3.63613	100.03
3.65280	100.04
3.66947	100.03
3.68613	100.04
3.70280	100.03
3.71947	100.03
3.73613	100.04
3.75280	100.04
3.76947	100.04
3.78613	100.04
3.80280	100.04
3.81947	100.04
3.83613	100.04
3.85280	100.04
3.86947	100.04
3.88613	100.04
3.90280	100.04
3.91947	100.04
3.93613	100.05
3.95280	100.04
3.96947	100.04
3.98613	100.05

[Status Trace (Carrier Gas Pressure)]
Interval(msec)	1000
# of Points	240
Start Time(min)	0.003
End Time(min)	3.986
Intensity Units	
Intensity Multiplier	1
R.Time (min)	Intensity
0.00280	58.00
0.01947	56.19
0.03613	56.45
0.05280	58.61
0.06947	59.83
0.08613	58.23
0.10280	57.97
0.11947	58.01
0.13613	58.01
0.15280	58.01
0.16947	58.00
0.18613	58.00
0.20280	58.00
0.21947	58.00
0.23613	58.00
0.25280	58.00
0.26947	58.00
0.28613	58.00
0.30280	58.00
0.31947	58.00
0.33613	58.00
0.35280	58.00
0.36947	58.00
0.38613	58.00
0.40280	58.00
0.41947	58.00
0.43613	58.00
0.45280	58.00
0.46947	58.00
0.48613	58.00
0.50280	58.00
0.51947	58.00
0.53613	58.00
0.55280	58.00
0.56947	58.00
0.58613	58.00
0.60280	58.00
0.61947	58.00
0.63613	58.00
0.65280	58.00
0.66947	58.00
0.68613	58.00
0.70280	58.00
0.71947	58.00
0.73613	58.00
0.75280	58.00
0.76947	58.00
0.78613	58.00
0.80280	58.00
0.81947	58.00
0.83613	58.00
0.85280	58.00
0.86947	58.00
0.88613	58.00
0.90280	58.00
0.91947	58.00
0.93613	58.00
0.95280	58.00
0.96947	58.00
0.98613	58.00
1.00280	58.00
1.01947	58.00
1.03613	58.00
1.05280	58.00
1.06947	58.00
1.08613	58.00
1.10280	58.00
1.11947	58.00
1.13613	58.00
1.15280	58.00
1.16947	58.00
1.18613	58.00
1.20280	58.00
1.21947	58.00
1.23613	58.00
1.25280	58.00
1.26947	58.00
1.28613	58.00
1.30280	58.00
1.31947	58.00
1.33613	58.00
1.35280	58.00
1.36947	58.00
1.38613	58.00
1.40280	58.00
1.41947	58.00
1.43613	58.00
1.45280	58.00
1.46947	58.00
1.48613	58.00
1.50280	58.00
1.51947	58.00
1.53613	58.00
1.55280	58.00
1.56947	58.00
1.58613	58.00
1.60280	58.00
1.61947	58.00
1.63613	58.00
1.65280	58.00
1.66947	58.01
1.68613	58.01
1.70280	58.00
1.71947	58.00
1.73613	58.00
1.75280	58.00
1.76947	58.00
1.78613	58.00
1.80280	58.00
1.81947	58.00
1.83613	58.00
1.85280	58.00
1.86947	58.00
1.88613	58.00
1.90280	58.00
1.91947	58.00
1.93613	58.00
1.95280	58.00
1.96947	58.00
1.98613	58.00
2.00280	58.00
2.01947	58.00
2.03613	58.00
2.05280	58.00
2.06947	58.00
2.08613	58.00
2.10280	58.00
2.11947	58.00
2.13613	58.00
2.15280	58.00
2.16947	58.00
2.18613	58.00
2.20280	58.00
2.21947	58.00
2.23613	58.00
2.25280	58.00
2.26947	58.00
2.28613	58.00
2.30280	58.00
2.31947	58.00
2.33613	58.00
2.35280	58.00
2.36947	58.00
2.38613	57.99
2.40280	57.99
2.41947	58.00
2.43613	58.00
2.45280	58.00
2.46947	58.00
2.48613	58.00
2.50280	57.98
2.51947	58.01
2.53613	57.99
2.55280	58.00
2.56947	58.00
2.58613	58.00
2.60280	58.00
2.61947	58.00
2.63613	58.00
2.65280	58.00
2.66947	58.00
2.68613	58.00
2.70280	58.00
2.71947	58.00
2.73613	58.00
2.75280	58.00
2.76947	58.00
2.78613	58.00
2.80280	58.00
2.81947	58.00
2.83613	58.00
2.85280	58.00
2.86947	58.00
2.88613	58.00
2.90280	58.00
2.91947	58.00
2.93613	58.00
2.95280	58.00
2.96947	58.00
2.98613	58.00
3.00280	58.00
3.01947	58.00
3.03613	58.00
3.05280	58.00
3.06947	58.00
3.08613	58.00
3.10280	58.00
3.11947	58.00
3.13613	58.00
3.15280	58.00
3.16947	58.00
3.18613	58.00
3.20280	58.00
3.21947	58.00
3.23613	58.00
3.25280	58.00
3.26947	58.00
3.28613	58.00
3.30280	58.00
3.31947	58.00
3.33613	58.00
3.35280	58.00
3.36947	58.00
3.38613	58.00
3.40280	58.00
3.41947	58.00
3.43613	58.00
3.45280	58.00
3.46947	58.00
3.48613	58.00
3.50280	58.00
3.51947	58.00
3.53613	58.00
3.55280	58.00
3.56947	58.00
3.58613	58.00
3.60280	58.00
3.61947	58.00
3.63613	58.00
3.65280	58.00
3.66947	58.00
3.68613	58.00
3.70280	58.00
3.71947	58.00
3.73613	58.00
3.75280	58.00
3.76947	58.00
3.78613	58.00
3.80280	58.00
3.81947	58.00
3.83613	58.00
3.85280	58.00
3.86947	58.00
3.88613	58.00
3.90280	58.00
3.91947	58.00
3.93613	58.00
3.95280	58.00
3.96947	58.00
3.98613	58.00

[Status Trace (Carrier Gas Flow)]
Interval(msec)	1000
# of Points	240
Start Time(min)	0.003
End Time(min)	3.986
Intensity Units	
Intensity Multiplier	1
R.Time (min)	Intensity
0.00280	34.52
0.01947	34.60
0.03613	34.54
0.05280	34.55
0.06947	34.50
0.08613	34.51
0.10280	34.52
0.11947	34.52
0.13613	34.51
0.15280	34.52
0.16947	34.52
0.18613	34.52
0.20280	34.52
0.21947	34.52
0.23613	34.52
0.25280	34.52
0.26947	34.52
0.28613	34.52
0.30280	34.52
0.31947	34.52
0.33613	34.52
0.35280	34.52
0.36947	34.52
0.38613	34.52
0.40280	34.52
0.41947	34.52
0.43613	34.52
0.45280	34.52
0.46947	34.52
0.48613	34.52
0.50280	34.52
0.51947	34.52
0.53613	34.52
0.55280	34.52
0.56947	34.52
0.58613	34.52
0.60280	34.52
0.61947	34.52
0.63613	34.52
0.65280	34.52
0.66947	34.52
0.68613	34.52
0.70280	34.52
0.71947	34.52
0.73613	34.52
0.75280	34.52
0.76947	34.53
0.78613	34.52
0.80280	34.52
0.81947	34.51
0.83613	34.52
0.85280	34.52
0.86947	34.52
0.88613	34.52
0.90280	34.52
0.91947	34.52
0.93613	34.52
0.95280	34.52
0.96947	34.52
0.98613	34.52
1.00280	34.52
1.01947	34.52
1.03613	34.52
1.05280	34.52
1.06947	34.52
1.08613	34.52
1.10280	34.52
1.11947	34.52
1.13613	34.52
1.15280	34.52
1.16947	34.52
1.18613	34.52
1.20280	34.52
1.21947	34.52
1.23613	34.52
1.25280	34.52
1.26947	34.52
1.28613	34.52
1.30280	34.52
1.31947	34.52
1.33613	34.52
1.35280	34.52
1.36947	34.52
1.38613	34.52
1.40280	34.52
1.41947	34.51
1.43613	34.52
1.45280	34.52
1.46947	34.52
1.48613	34.52
1.50280	34.52
1.51947	34.52
1.53613	34.52
1.55280	34.52
1.56947	34.52
1.58613	34.52
1.60280	34.52
1.61947	34.52
1.63613	34.52
1.65280	34.52
1.66947	34.52
1.68613	34.52
1.70280	34.52
1.71947	34.52
1.73613	34.52
1.75280	34.52
1.76947	34.52
1.78613	34.52
1.80280	34.52
1.81947	34.52
1.83613	34.52
1.85280	34.51
1.86947	34.52
1.88613	34.52
1.90280	34.52
1.91947	34.52
1.93613	34.51
1.95280	34.52
1.96947	34.52
1.98613	34.52
2.00280	34.52
2.01947	34.52
2.03613	34.52
2.05280	34.52
2.06947	34.52
2.08613	34.52
2.10280	34.52
2.11947	34.52
2.13613	34.52
2.15280	34.52
2.16947	34.52
2.18613	34.52
2.20280	34.52
2.21947	34.52
2.23613	34.52
2.25280	34.51
2.26947	34.51
2.28613	34.52
2.30280	34.52
2.31947	34.51
2.33613	34.53
2.35280	34.53
2.36947	34.53
2.38613	34.53
2.40280	34.52
2.41947	34.52
2.43613	34.52
2.45280	34.51
2.46947	34.51
2.48613	34.52
2.50280	34.60
2.51947	34.52
2.53613	34.52
2.55280	34.52
2.56947	34.52
2.58613	34.52
2.60280	34.52
2.61947	34.52
2.63613	34.52
2.65280	34.52
2.66947	34.52
2.68613	34.52
2.70280	34.52
2.71947	34.52
2.73613	34.52
2.75280	34.52
2.76947	34.52
2.78613	34.52
2.80280	34.52
2.81947	34.52
2.83613	34.52
2.85280	34.52
2.86947	34.52
2.88613	34.52
2.90280	34.52
2.91947	34.52
2.93613	34.52
2.95280	34.52
2.96947	34.52
2.98613	34.52
3.00280	34.51
3.01947	34.52
3.03613	34.51
3.05280	34.52
3.06947	34.52
3.08613	34.52
3.10280	34.52
3.11947	34.52
3.13613	34.52
3.15280	34.52
3.16947	34.52
3.18613	34.52
3.20280	34.52
3.21947	34.51
3.23613	34.52
3.25280	34.52
3.26947	34.52
3.28613	34.52
3.30280	34.52
3.31947	34.52
3.33613	34.52
3.35280	34.52
3.36947	34.51
3.38613	34.52
3.40280	34.52
3.41947	34.52
3.43613	34.52
3.45280	34.52
3.46947	34.52
3.48613	34.52
3.50280	34.52
3.51947	34.52
3.53613	34.52
3.55280	34.52
3.56947	34.52
3.58613	34.52
3.60280	34.52
3.61947	34.52
3.63613	34.52
3.65280	34.52
3.66947	34.52
3.68613	34.52
3.70280	34.52
3.71947	34.51
3.73613	34.52
3.75280	34.52
3.76947	34.52
3.78613	34.52
3.80280	34.52
3.81947	34.52
3.83613	34.52
3.85280	34.52
3.86947	34.51
3.88613	34.52
3.90280	34.52
3.91947	34.52
3.93613	34.52
3.95280	34.52
3.96947	34.52
3.98613	34.52

[Status Trace (Column Flow)]
Interval(msec)	1000
# of Points	240
Start Time(min)	0.003
End Time(min)	3.986
Intensity Units	
Intensity Multiplier	1
R.Time (min)	Intensity
0.00280	5.53
0.01947	5.32
0.03613	5.35
0.05280	5.60
0.06947	5.74
0.08613	5.56
0.10280	5.53
0.11947	5.53
0.13613	5.53
0.15280	5.53
0.16947	5.53
0.18613	5.53
0.20280	5.53
0.21947	5.53
0.23613	5.53
0.25280	5.53
0.26947	5.53
0.28613	5.53
0.30280	5.53
0.31947	5.53
0.33613	5.53
0.35280	5.53
0.36947	5.53
0.38613	5.53
0.40280	5.53
0.41947	5.53
0.43613	5.53
0.45280	5.53
0.46947	5.53
0.48613	5.53
0.50280	5.53
0.51947	5.53
0.53613	5.53
0.55280	5.53
0.56947	5.53
0.58613	5.53
0.60280	5.53
0.61947	5.53
0.63613	5.53
0.65280	5.53
0.66947	5.53
0.68613	5.53
0.70280	5.53
0.71947	5.53
0.73613	5.53
0.75280	5.53
0.76947	5.53
0.78613	5.53
0.80280	5.53
0.81947	5.53
0.83613	5.53
0.85280	5.53
0.86947	5.53
0.88613	5.53
0.90280	5.53
0.91947	5.53
0.93613	5.53
0.95280	5.53
0.96947	5.53
0.98613	5.53
1.00280	5.53
1.01947	5.53
1.03613	5.53
1.05280	5.53
1.06947	5.53
1.08613	5.53
1.10280	5.53
1.11947	5.53
1.13613	5.53
1.15280	5.53
1.16947	5.53
1.18613	5.53
1.20280	5.53
1.21947	5.53
1.23613	5.53
1.25280	5.53
1.26947	5.53
1.28613	5.53
1.30280	5.53
1.31947	5.53
1.33613	5.53
1.35280	5.53
1.36947	5.53
1.38613	5.53
1.40280	5.53
1.41947	5.53
1.43613	5.53
1.45280	5.53
1.46947	5.53
1.48613	5.53
1.50280	5.53
1.51947	5.53
1.53613	5.53
1.55280	5.53
1.56947	5.53
1.58613	5.53
1.60280	5.53
1.61947	5.53
1.63613	5.52
1.65280	5.51
1.66947	5.50
1.68613	5.49
1.70280	5.48
1.71947	5.47
1.73613	5.46
1.75280	5.45
1.76947	5.44
1.78613	5.43
1.80280	5.42
1.81947	5.41
1.83613	5.40
1.85280	5.39
1.86947	5.38
1.88613	5.37
1.90280	5.36
1.91947	5.35
1.93613	5.34
1.95280	5.33
1.96947	5.32
1.98613	5.31
2.00280	5.30
2.01947	5.29
2.03613	5.28
2.05280	5.27
2.06947	5.26
2.08613	5.25
2.10280	5.24
2.11947	5.23
2.13613	5.22
2.15280	5.22
2.16947	5.21
2.18613	5.20
2.20280	5.19
2.21947	5.18
2.23613	5.17
2.25280	5.16
2.26947	5.15
2.28613	5.14
2.30280	5.13
2.31947	5.12
2.33613	5.11
2.35280	5.10
2.36947	5.10
2.38613	5.09
2.40280	5.09
2.41947	5.09
2.43613	5.09
2.45280	5.09
2.46947	5.09
2.48613	5.09
2.50280	5.09
2.51947	5.09
2.53613	5.09
2.55280	5.09
2.56947	5.09
2.58613	5.09
2.60280	5.09
2.61947	5.09
2.63613	5.09
2.65280	5.09
2.66947	5.09
2.68613	5.09
2.70280	5.09
2.71947	5.09
2.73613	5.09
2.75280	5.09
2.76947	5.09
2.78613	5.09
2.80280	5.09
2.81947	5.09
2.83613	5.09
2.85280	5.09
2.86947	5.09
2.88613	5.09
2.90280	5.09
2.91947	5.09
2.93613	5.09
2.95280	5.09
2.96947	5.09
2.98613	5.09
3.00280	5.09
3.01947	5.09
3.03613	5.09
3.05280	5.09
3.06947	5.09
3.08613	5.09
3.10280	5.09
3.11947	5.08
3.13613	5.08
3.15280	5.08
3.16947	5.08
3.18613	5.08
3.20280	5.08
3.21947	5.08
3.23613	5.08
3.25280	5.08
3.26947	5.08
3.28613	5.08
3.30280	5.08
3.31947	5.08
3.33613	5.08
3.35280	5.08
3.36947	5.08
3.38613	5.08
3.40280	5.08
3.41947	5.08
3.43613	5.09
3.45280	5.09
3.46947	5.09
3.48613	5.09
3.50280	5.09
3.51947	5.09
3.53613	5.09
3.55280	5.09
3.56947	5.09
3.58613	5.09
3.60280	5.09
3.61947	5.09
3.63613	5.09
3.65280	5.09
3.66947	5.09
3.68613	5.09
3.70280	5.09
3.71947	5.09
3.73613	5.08
3.75280	5.08
3.76947	5.08
3.78613	5.08
3.80280	5.08
3.81947	5.08
3.83613	5.08
3.85280	5.08
3.86947	5.08
3.88613	5.08
3.90280	5.08
3.91947	5.08
3.93613	5.08
3.95280	5.08
3.96947	5.08
3.98613	5.08

[Status Trace (Linear Velocity)]
Interval(msec)	1000
# of Points	240
Start Time(min)	0.003
End Time(min)	3.986
Intensity Units	
Intensity Multiplier	1
R.Time (min)	Intensity
0.00280	39.01
0.01947	37.83
0.03613	38.00
0.05280	39.41
0.06947	40.21
0.08613	39.17
0.10280	39.00
0.11947	39.02
0.13613	39.02
0.15280	39.02
0.16947	39.02
0.18613	39.02
0.20280	39.02
0.21947	39.02
0.23613	39.02
0.25280	39.02
0.26947	39.02
0.28613	39.02
0.30280	39.02
0.31947	39.02
0.33613	39.02
0.35280	39.02
0.36947	39.02
0.38613	39.02
0.40280	39.02
0.41947	39.02
0.43613	39.02
0.45280	39.02
0.46947	39.02
0.48613	39.02
0.50280	39.02
0.51947	39.02
0.53613	39.02
0.55280	39.02
0.56947	39.02
0.58613	39.02
0.60280	39.02
0.61947	39.02
0.63613	39.02
0.65280	39.02
0.66947	39.02
0.68613	39.02
0.70280	39.02
0.71947	39.02
0.73613	39.02
0.75280	39.02
0.76947	39.02
0.78613	39.02
0.80280	39.02
0.81947	39.02
0.83613	39.02
0.85280	39.02
0.86947	39.02
0.88613	39.02
0.90280	39.02
0.91947	39.02
0.93613	39.02
0.95280	39.02
0.96947	39.02
0.98613	39.02
1.00280	39.02
1.01947	39.02
1.03613	39.02
1.05280	39.02
1.06947	39.02
1.08613	39.02
1.10280	39.02
1.11947	39.02
1.13613	39.02
1.15280	39.02
1.16947	39.02
1.18613	39.02
1.20280	39.02
1.21947	39.02
1.23613	39.02
1.25280	39.02
1.26947	39.02
1.28613	39.02
1.30280	39.02
1.31947	39.02
1.33613	39.02
1.35280	39.02
1.36947	39.02
1.38613	39.02
1.40280	39.02
1.41947	39.02
1.43613	39.02
1.45280	39.02
1.46947	39.02
1.48613	39.02
1.50280	39.02
1.51947	39.02
1.53613	39.02
1.55280	39.02
1.56947	39.02
1.58613	39.02
1.60280	39.01
1.61947	39.00
1.63613	38.99
1.65280	38.97
1.66947	38.94
1.68613	38.91
1.70280	38.87
1.71947	38.84
1.73613	38.80
1.75280	38.77
1.76947	38.74
1.78613	38.71
1.80280	38.68
1.81947	38.65
1.83613	38.62
1.85280	38.58
1.86947	38.55
1.88613	38.52
1.90280	38.49
1.91947	38.46
1.93613	38.43
1.95280	38.40
1.96947	38.37
1.98613	38.34
2.00280	38.31
2.01947	38.28
2.03613	38.25
2.05280	38.22
2.06947	38.19
2.08613	38.16
2.10280	38.13
2.11947	38.10
2.13613	38.07
2.15280	38.04
2.16947	38.01
2.18613	37.98
2.20280	37.95
2.21947	37.93
2.23613	37.90
2.25280	37.87
2.26947	37.84
2.28613	37.81
2.30280	37.78
2.31947	37.75
2.33613	37.72
2.35280	37.69
2.36947	37.67
2.38613	37.65
2.40280	37.65
2.41947	37.66
2.43613	37.66
2.45280	37.65
2.46947	37.65
2.48613	37.65
2.50280	37.64
2.51947	37.66
2.53613	37.65
2.55280	37.65
2.56947	37.65
2.58613	37.65
2.60280	37.65
2.61947	37.65
2.63613	37.65
2.65280	37.65
2.66947	37.65
2.68613	37.65
2.70280	37.65
2.71947	37.64
2.73613	37.64
2.75280	37.64
2.76947	37.64
2.78613	37.65
2.80280	37.65
2.81947	37.65
2.83613	37.65
2.85280	37.64
2.86947	37.64
2.88613	37.64
2.90280	37.64
2.91947	37.63
2.93613	37.63
2.95280	37.63
2.96947	37.63
2.98613	37.63
3.00280	37.63
3.01947	37.63
3.03613	37.63
3.05280	37.63
3.06947	37.63
3.08613	37.63
3.10280	37.63
3.11947	37.63
3.13613	37.63
3.15280	37.63
3.16947	37.63
3.18613	37.63
3.20280	37.63
3.21947	37.63
3.23613	37.63
3.25280	37.63
3.26947	37.63
3.28613	37.63
3.30280	37.63
3.31947	37.62
3.33613	37.62
3.35280	37.63
3.36947	37.63
3.38613	37.63
3.40280	37.63
3.41947	37.63
3.43613	37.63
3.45280	37.63
3.46947	37.64
3.48613	37.64
3.50280	37.64
3.51947	37.64
3.53613	37.64
3.55280	37.64
3.56947	37.64
3.58613	37.63
3.60280	37.63
3.61947	37.63
3.63613	37.63
3.65280	37.63
3.66947	37.63
3.68613	37.63
3.70280	37.63
3.71947	37.63
3.73613	37.63
3.75280	37.63
3.76947	37.63
3.78613	37.63
3.80280	37.63
3.81947	37.63
3.83613	37.63
3.85280	37.63
3.86947	37.63
3.88613	37.63
3.90280	37.63
3.91947	37.63
3.93613	37.63
3.95280	37.63
3.96947	37.63
3.98613	37.63

