[Header]
Application Name	LabSolutions
Version	5.110
Data File Name	C:\Users\User\Desktop\GC Analyses\Jack\Nachusa Grasslands Sampling\T3 Timepoint July 12th\T3_07122022_047.gcd
Output Date	3/14/2023
Output Time	3:43:33 PM

[File Information]
Type	Data File
Generated	3/13/2023 7:41:24 PM
Generated by	System Administrator
Modified	3/13/2023 7:48:13 PM
Modified by	System Administrator

[Sample Information]
Operator Name	System Administrator
Acquired	3/13/2023 7:44:13 PM
Sample Type	0:Unknown
Level	0
Sample Name	047
Sample ID	047
ISTD Amount1	1
ISTD Amount2	1
ISTD Amount3	1
ISTD Amount4	1
ISTD Amount5	1
ISTD Amount6	1
ISTD Amount7	1
ISTD Amount8	1
ISTD Amount9	1
ISTD Amount10	1
ISTD Amount11	1
ISTD Amount12	1
ISTD Amount13	1
ISTD Amount14	1
ISTD Amount15	1
ISTD Amount16	1
ISTD Amount17	1
ISTD Amount18	1
ISTD Amount19	1
ISTD Amount20	1
ISTD Amount21	1
ISTD Amount22	1
ISTD Amount23	1
ISTD Amount24	1
ISTD Amount25	1
ISTD Amount26	1
ISTD Amount27	1
ISTD Amount28	1
ISTD Amount29	1
ISTD Amount30	1
ISTD Amount31	1
ISTD Amount32	1
Sample Amount	1
Dilution Factor	1
Vial#	46
Injection Volume	1
Injection Count	1
Bar Code	

[Original Files]
Data File	C:\Users\User\Desktop\GC Analyses\Jack\Nachusa Grasslands Sampling\T3 Timepoint July 12th\T3_07122022_047.gcd
Method File	C:\LabSolutions\Data\GHG_4min_2022\ghg3_togas_w_acet_4 min_new_int.gcm
Batch File	C:\LabSolutions\Data\AutoSamplerTesting\T3_07122022.gcb
Report Format File	c:\LabSolutions\System\DEFAULT.lsr

[File Description]


[Configuration]
Instrument Name	C0B7VH3-Instrument1
Instrument #	1
Line #	1
# of Detectors	3
Detector ID	DET#1	DET#2	DET#3
Detector Name	FID	PTCD	ECD
# of Channels	1	1	1

[Peak Table(Ch1)]
# of Peaks	3
Peak#	R.Time	I.Time	F.Time	Area	Height	A/H	Conc.	Mark	ID#	Name	k'	Plate #	Plate Ht.	Tailing	Resolution	Sep.Factor	Area Ratio	Height Ratio	Conc. %	Norm Conc.
1	1.457	1.373	1.509	1212	684	1.773	8.559	   	1	CO	0.000	18550	8.086	0.882	0.000	0.000	0	0	0.951	0.951
2	1.571	1.527	1.641	19676	9895	1.988	380.459	   	2	CH4	0.078	11454	13.096	1.139	2.239	0.000	0	0	42.280	42.280
3	2.000	1.945	2.282	2035459	976411	2.085	510.845	   	3	CO2	0.372	17524	8.560	1.171	7.201	4.774	0	0	56.769	56.769

[Peak Table(Ch2)]
# of Peaks	0

[Peak Table(Ch3)]
# of Peaks	5
Peak#	R.Time	I.Time	F.Time	Area	Height	A/H	Conc.	Mark	ID#	Name	k'	Plate #	Plate Ht.	Tailing	Resolution	Sep.Factor	Area Ratio	Height Ratio	Conc. %	Norm Conc.
1	2.462	2.337	2.510	1743	579	3.011	0.000	   			0.000	11153	13.449	0.000	0.000	0.000	0	0	0.000	0.000
2	2.528	2.510	2.587	960	311	3.089	0.000	 V 			0.027	6091	24.627	0.000	0.592	0.000	0	0	0.000	0.000
3	2.601	2.587	2.686	448	129	3.467	0.000	 V 			0.057	2400	62.511	0.000	0.429	2.111	0	0	0.000	0.000
4	2.880	2.704	3.063	56270	14453	3.893	1.437	   	1	N2O	0.170	12656	11.852	1.546	1.770	3.000	0	0	100.000	100.000
5	3.261	3.067	3.995	20364	640	31.816	0.000	   	2	SF6	0.325	192	781.500	2.315	0.731	1.912	0	0	0.000	0.000

[Compound Results(Ch1)]
# of IDs	6
ID#	Name	R.Time	Area	Height	Conc.	Curve	3rd	2nd	1st	Constant	Area Ratio	Height Ratio	Conc. %	Norm Conc.
1	CO	1.457	1212	684	8.559	Linear	0.000000e+00	0.000000e+00	1.416423e+002	0.000000e+00	0	0	0.951	0.951
2	CH4	1.571	19676	9895	380.459	Linear	0.000000e+00	0.000000e+00	5.171738e+001	0.000000e+00	0	0	42.280	42.280
3	CO2	2.000	2035459	976411	510.845	Linear	0.000000e+00	0.000000e+00	3.984494e+003	0.000000e+00	0	0	56.769	56.769
4	Ethylene	0.000	0	0	0.000	Linear	0.000000e+00	0.000000e+00	0.000000e+00	0.000000e+00	0	0	0.000	0.000
5	Acetylene	0.000	0	0	0.000	Linear	0.000000e+00	0.000000e+00	0.000000e+00	0.000000e+00	0	0	0.000	0.000
6	Ethane	0.000	0	0	0.000	Linear	0.000000e+00	0.000000e+00	0.000000e+00	0.000000e+00	0	0	0.000	0.000

[Compound Results(Ch2)]
# of IDs	5
ID#	Name	R.Time	Area	Height	Conc.	Curve	3rd	2nd	1st	Constant	Area Ratio	Height Ratio	Conc. %	Norm Conc.
1	Hydrogen	0.000	0	0	0.000	Linear	0.000000e+00	0.000000e+00	0.000000e+00	0.000000e+00	0	0	0.000	0.000
2	Oxygen	0.000	0	0	0.000	Linear	0.000000e+00	0.000000e+00	0.000000e+00	0.000000e+00	0	0	0.000	0.000
3	Nitrogen	0.000	0	0	0.000	Linear	0.000000e+00	0.000000e+00	0.000000e+00	0.000000e+00	0	0	0.000	0.000
4	Methane	0.000	0	0	0.000	Linear	0.000000e+00	0.000000e+00	0.000000e+00	0.000000e+00	0	0	0.000	0.000
5	Carbon Monoxide	0.000	0	0	0.000	Linear	0.000000e+00	0.000000e+00	0.000000e+00	0.000000e+00	0	0	0.000	0.000

[Compound Results(Ch3)]
# of IDs	2
ID#	Name	R.Time	Area	Height	Conc.	Curve	3rd	2nd	1st	Constant	Area Ratio	Height Ratio	Conc. %	Norm Conc.
1	N2O	2.880	56270	14453	1.437	Linear	0.000000e+00	0.000000e+00	3.915173e+004	0.000000e+00	0	0	100.000	100.000
2	SF6	3.261	20364	640	0.000	Linear	0.000000e+00	0.000000e+00	0.000000e+00	0.000000e+00	0	0	0.000	0.000

[Group Results(Ch1)]
# of Groups	0

[Group Results(Ch2)]
# of Groups	0

[Group Results(Ch3)]
# of Groups	0

[Chromatogram (Ch1)]
Interval(msec)	220
# of Points	1091
Start Time(min)	0.002
End Time(min)	3.998
R.Time (min)	Intensity
0.00167	-6
0.00533	3
0.00900	11
0.01267	15
0.01633	17
0.02000	18
0.02367	23
0.02733	30
0.03100	37
0.03467	47
0.03833	57
0.04200	61
0.04567	60
0.04933	54
0.05300	46
0.05667	40
0.06033	38
0.06400	45
0.06767	60
0.07133	77
0.07500	88
0.07867	88
0.08233	83
0.08600	79
0.08967	81
0.09333	84
0.09700	87
0.10067	92
0.10433	98
0.10800	103
0.11167	103
0.11533	100
0.11900	101
0.12267	110
0.12633	120
0.13000	127
0.13367	132
0.13733	133
0.14100	126
0.14467	117
0.14833	106
0.15200	100
0.15567	95
0.15933	87
0.16300	80
0.16667	77
0.17033	74
0.17400	74
0.17767	75
0.18133	76
0.18500	74
0.18867	70
0.19233	66
0.19600	61
0.19967	55
0.20333	52
0.20700	49
0.21067	48
0.21433	46
0.21800	48
0.22167	51
0.22533	53
0.22900	52
0.23267	49
0.23633	45
0.24000	39
0.24367	32
0.24733	25
0.25100	21
0.25467	21
0.25833	27
0.26200	33
0.26567	36
0.26933	35
0.27300	35
0.27667	36
0.28033	39
0.28400	41
0.28767	33
0.29133	22
0.29500	13
0.29867	8
0.30233	11
0.30600	15
0.30967	11
0.31333	2
0.31700	-2
0.32067	-1
0.32433	-0
0.32800	1
0.33167	-3
0.33533	-10
0.33900	-5
0.34267	5
0.34633	15
0.35000	20
0.35367	20
0.35733	17
0.36100	14
0.36467	8
0.36833	1
0.37200	-5
0.37567	-9
0.37933	-9
0.38300	-7
0.38667	-8
0.39033	-7
0.39400	-5
0.39767	-2
0.40133	1
0.40500	3
0.40867	3
0.41233	3
0.41600	4
0.41967	6
0.42333	11
0.42700	17
0.43067	25
0.43433	31
0.43800	32
0.44167	28
0.44533	24
0.44900	23
0.45267	23
0.45633	28
0.46000	34
0.46367	36
0.46733	33
0.47100	25
0.47467	13
0.47833	4
0.48200	-4
0.48567	-12
0.48933	-15
0.49300	-12
0.49667	-3
0.50033	-1
0.50400	-3
0.50767	-1
0.51133	1
0.51500	3
0.51867	5
0.52233	6
0.52600	5
0.52967	3
0.53333	3
0.53700	5
0.54067	10
0.54433	19
0.54800	23
0.55167	22
0.55533	20
0.55900	18
0.56267	15
0.56633	12
0.57000	6
0.57367	0
0.57733	-2
0.58100	-1
0.58467	-0
0.58833	1
0.59200	4
0.59567	9
0.59933	11
0.60300	10
0.60667	9
0.61033	3
0.61400	0
0.61767	-1
0.62133	-3
0.62500	-6
0.62867	-6
0.63233	-4
0.63600	-3
0.63967	-8
0.64333	-10
0.64700	-6
0.65067	-1
0.65433	3
0.65800	1
0.66167	-5
0.66533	-5
0.66900	-2
0.67267	-2
0.67633	-3
0.68000	-4
0.68367	-3
0.68733	-4
0.69100	-6
0.69467	-5
0.69833	-4
0.70200	-5
0.70567	-1
0.70933	5
0.71300	5
0.71667	1
0.72033	-2
0.72400	-3
0.72767	-2
0.73133	-3
0.73500	-2
0.73867	1
0.74233	8
0.74600	13
0.74967	15
0.75333	13
0.75700	12
0.76067	11
0.76433	8
0.76800	3
0.77167	2
0.77533	2
0.77900	2
0.78267	5
0.78633	8
0.79000	9
0.79367	11
0.79733	11
0.80100	3
0.80467	-4
0.80833	-6
0.81200	-7
0.81567	-9
0.81933	-7
0.82300	-0
0.82667	5
0.83033	6
0.83400	3
0.83767	-4
0.84133	-12
0.84500	-19
0.84867	-25
0.85233	-26
0.85600	-19
0.85967	-9
0.86333	-1
0.86700	2
0.87067	2
0.87433	-5
0.87800	-14
0.88167	-16
0.88533	-16
0.88900	-14
0.89267	-7
0.89633	4
0.90000	18
0.90367	27
0.90733	31
0.91100	29
0.91467	27
0.91833	23
0.92200	16
0.92567	4
0.92933	-11
0.93300	-25
0.93667	-36
0.94033	-45
0.94400	-49
0.94767	-46
0.95133	-41
0.95500	-36
0.95867	-27
0.96233	-19
0.96600	-13
0.96967	-6
0.97333	4
0.97700	16
0.98067	26
0.98433	35
0.98800	38
0.99167	33
0.99533	20
0.99900	5
1.00267	-2
1.00633	-0
1.01000	2
1.01367	6
1.01733	10
1.02100	8
1.02467	1
1.02833	-2
1.03200	2
1.03567	7
1.03933	5
1.04300	1
1.04667	-4
1.05033	-5
1.05400	-3
1.05767	3
1.06133	9
1.06500	18
1.06867	24
1.07233	25
1.07600	25
1.07967	26
1.08333	28
1.08700	27
1.09067	25
1.09433	24
1.09800	27
1.10167	30
1.10533	31
1.10900	29
1.11267	26
1.11633	26
1.12000	22
1.12367	16
1.12733	12
1.13100	11
1.13467	8
1.13833	4
1.14200	4
1.14567	9
1.14933	15
1.15300	15
1.15667	13
1.16033	10
1.16400	9
1.16767	12
1.17133	17
1.17500	22
1.17867	25
1.18233	20
1.18600	13
1.18967	7
1.19333	6
1.19700	11
1.20067	18
1.20433	23
1.20800	24
1.21167	24
1.21533	24
1.21900	26
1.22267	25
1.22633	27
1.23000	29
1.23367	30
1.23733	32
1.24100	33
1.24467	29
1.24833	27
1.25200	24
1.25567	18
1.25933	13
1.26300	9
1.26667	4
1.27033	-5
1.27400	-12
1.27767	-15
1.28133	-15
1.28500	-18
1.28867	-20
1.29233	-23
1.29600	-25
1.29967	-24
1.30333	-23
1.30700	-18
1.31067	-12
1.31433	-9
1.31800	-4
1.32167	2
1.32533	8
1.32900	16
1.33267	25
1.33633	31
1.34000	34
1.34367	32
1.34733	28
1.35100	22
1.35467	15
1.35833	6
1.36200	-1
1.36567	-5
1.36933	2
1.37300	10
1.37667	9
1.38033	4
1.38400	-3
1.38767	-11
1.39133	-21
1.39500	-28
1.39867	-30
1.40233	-27
1.40600	-23
1.40967	-23
1.41333	-24
1.41700	-21
1.42067	-22
1.42433	-22
1.42800	-18
1.43167	-14
1.43533	-13
1.43900	-4
1.44267	42
1.44633	175
1.45000	372
1.45367	497
1.45733	491
1.46100	387
1.46467	229
1.46833	65
1.47200	-67
1.47567	-141
1.47933	-167
1.48300	-174
1.48667	-181
1.49033	-198
1.49400	-221
1.49767	-247
1.50133	-275
1.50500	-299
1.50867	-316
1.51233	-326
1.51600	-330
1.51967	-329
1.52333	-322
1.52700	-309
1.53067	-292
1.53433	-272
1.53800	-217
1.54167	19
1.54533	706
1.54900	2036
1.55267	3868
1.55633	5808
1.56000	7512
1.56367	8798
1.56733	9562
1.57100	9665
1.57467	9028
1.57833	7767
1.58200	6185
1.58567	4613
1.58933	3267
1.59300	2219
1.59667	1449
1.60033	906
1.60400	538
1.60767	297
1.61133	142
1.61500	44
1.61867	-15
1.62233	-49
1.62600	-69
1.62967	-86
1.63333	-100
1.63700	-106
1.64067	-105
1.64433	-101
1.64800	-101
1.65167	-107
1.65533	-115
1.65900	-120
1.66267	-118
1.66633	-110
1.67000	-102
1.67367	-96
1.67733	-92
1.68100	-92
1.68467	-93
1.68833	-92
1.69200	-90
1.69567	-86
1.69933	-85
1.70300	-91
1.70667	-97
1.71033	-96
1.71400	-94
1.71767	-95
1.72133	-95
1.72500	-91
1.72867	-84
1.73233	-77
1.73600	-72
1.73967	-73
1.74333	-75
1.74700	-77
1.75067	-80
1.75433	-80
1.75800	-83
1.76167	-94
1.76533	-104
1.76900	-106
1.77267	-100
1.77633	-95
1.78000	-89
1.78367	-81
1.78733	-72
1.79100	-67
1.79467	-63
1.79833	-59
1.80200	-59
1.80567	-65
1.80933	-76
1.81300	-85
1.81667	-93
1.82033	-101
1.82400	-108
1.82767	-110
1.83133	-103
1.83500	-90
1.83867	-77
1.84233	-69
1.84600	-65
1.84967	-61
1.85333	-57
1.85700	-57
1.86067	-59
1.86433	-62
1.86800	-65
1.87167	-67
1.87533	-66
1.87900	-66
1.88267	-61
1.88633	-60
1.89000	-61
1.89367	-61
1.89733	-59
1.90100	-54
1.90467	-52
1.90833	-48
1.91200	-43
1.91567	-43
1.91933	-47
1.92300	-52
1.92667	-59
1.93033	-70
1.93400	-76
1.93767	-78
1.94133	-74
1.94500	-66
1.94867	-58
1.95233	-42
1.95600	57
1.95967	666
1.96333	3654
1.96700	14859
1.97067	47043
1.97433	118452
1.97800	241815
1.98167	410765
1.98533	599031
1.98900	773223
1.99267	905090
1.99633	975634
2.00000	976399
2.00367	910997
2.00733	795216
2.01100	652625
2.01467	507264
2.01833	376996
2.02200	270758
2.02567	189894
2.02933	131303
2.03300	90270
2.03667	62177
2.04033	43206
2.04400	30472
2.04767	21915
2.05133	16132
2.05500	12188
2.05867	9454
2.06233	7522
2.06600	6127
2.06967	5097
2.07333	4320
2.07700	3724
2.08067	3255
2.08433	2878
2.08800	2570
2.09167	2315
2.09533	2098
2.09900	1913
2.10267	1756
2.10633	1622
2.11000	1506
2.11367	1398
2.11733	1300
2.12100	1211
2.12467	1135
2.12833	1069
2.13200	1012
2.13567	964
2.13933	921
2.14300	884
2.14667	846
2.15033	802
2.15400	759
2.15767	722
2.16133	691
2.16500	662
2.16867	637
2.17233	616
2.17600	596
2.17967	575
2.18333	552
2.18700	531
2.19067	509
2.19433	487
2.19800	467
2.20167	449
2.20533	434
2.20900	424
2.21267	424
2.21633	428
2.22000	427
2.22367	416
2.22733	397
2.23100	375
2.23467	355
2.23833	343
2.24200	337
2.24567	335
2.24933	336
2.25300	334
2.25667	326
2.26033	316
2.26400	308
2.26767	299
2.27133	290
2.27500	278
2.27867	271
2.28233	271
2.28600	275
2.28967	281
2.29333	284
2.29700	278
2.30067	264
2.30433	255
2.30800	257
2.31167	266
2.31533	272
2.31900	274
2.32267	273
2.32633	266
2.33000	251
2.33367	236
2.33733	223
2.34100	214
2.34467	210
2.34833	210
2.35200	210
2.35567	208
2.35933	207
2.36300	209
2.36667	212
2.37033	214
2.37400	215
2.37767	216
2.38133	215
2.38500	214
2.38867	216
2.39233	217
2.39600	221
2.39967	225
2.40333	228
2.40700	230
2.41067	234
2.41433	231
2.41800	222
2.42167	209
2.42533	198
2.42900	186
2.43267	175
2.43633	168
2.44000	159
2.44367	151
2.44733	151
2.45100	152
2.45467	156
2.45833	161
2.46200	168
2.46567	174
2.46933	175
2.47300	173
2.47667	172
2.48033	173
2.48400	174
2.48767	176
2.49133	181
2.49500	185
2.49867	186
2.50233	188
2.50600	190
2.50967	193
2.51333	190
2.51700	184
2.52067	175
2.52433	162
2.52800	152
2.53167	144
2.53533	139
2.53900	140
2.54267	144
2.54633	151
2.55000	156
2.55367	158
2.55733	163
2.56100	168
2.56467	174
2.56833	183
2.57200	191
2.57567	197
2.57933	204
2.58300	204
2.58667	196
2.59033	185
2.59400	181
2.59767	181
2.60133	176
2.60500	171
2.60867	168
2.61233	167
2.61600	171
2.61967	179
2.62333	185
2.62700	181
2.63067	173
2.63433	169
2.63800	166
2.64167	166
2.64533	164
2.64900	160
2.65267	153
2.65633	152
2.66000	159
2.66367	171
2.66733	181
2.67100	183
2.67467	176
2.67833	170
2.68200	172
2.68567	179
2.68933	185
2.69300	188
2.69667	187
2.70033	187
2.70400	188
2.70767	189
2.71133	188
2.71500	188
2.71867	189
2.72233	188
2.72600	190
2.72967	194
2.73333	199
2.73700	200
2.74067	195
2.74433	189
2.74800	183
2.75167	181
2.75533	189
2.75900	200
2.76267	209
2.76633	214
2.77000	211
2.77367	205
2.77733	206
2.78100	209
2.78467	206
2.78833	199
2.79200	189
2.79567	182
2.79933	178
2.80300	176
2.80667	179
2.81033	184
2.81400	189
2.81767	189
2.82133	190
2.82500	194
2.82867	200
2.83233	204
2.83600	208
2.83967	212
2.84333	218
2.84700	225
2.85067	228
2.85433	227
2.85800	223
2.86167	214
2.86533	209
2.86900	211
2.87267	216
2.87633	222
2.88000	226
2.88367	230
2.88733	230
2.89100	225
2.89467	218
2.89833	209
2.90200	197
2.90567	187
2.90933	186
2.91300	184
2.91667	181
2.92033	177
2.92400	175
2.92767	175
2.93133	181
2.93500	190
2.93867	197
2.94233	202
2.94600	206
2.94967	204
2.95333	200
2.95700	195
2.96067	192
2.96433	196
2.96800	205
2.97167	213
2.97533	217
2.97900	218
2.98267	210
2.98633	200
2.99000	198
2.99367	202
2.99733	212
3.00100	223
3.00467	225
3.00833	222
3.01200	218
3.01567	210
3.01933	206
3.02300	206
3.02667	212
3.03033	215
3.03400	214
3.03767	213
3.04133	215
3.04500	216
3.04867	217
3.05233	220
3.05600	224
3.05967	230
3.06333	229
3.06700	218
3.07067	205
3.07433	198
3.07800	200
3.08167	206
3.08533	212
3.08900	212
3.09267	207
3.09633	204
3.10000	204
3.10367	206
3.10733	205
3.11100	201
3.11467	201
3.11833	206
3.12200	209
3.12567	206
3.12933	202
3.13300	205
3.13667	209
3.14033	211
3.14400	212
3.14767	216
3.15133	220
3.15500	222
3.15867	222
3.16233	219
3.16600	212
3.16967	205
3.17333	199
3.17700	198
3.18067	196
3.18433	194
3.18800	187
3.19167	178
3.19533	173
3.19900	173
3.20267	176
3.20633	180
3.21000	181
3.21367	177
3.21733	177
3.22100	180
3.22467	185
3.22833	185
3.23200	182
3.23567	176
3.23933	171
3.24300	172
3.24667	173
3.25033	172
3.25400	174
3.25767	176
3.26133	177
3.26500	182
3.26867	190
3.27233	197
3.27600	200
3.27967	196
3.28333	190
3.28700	179
3.29067	171
3.29433	169
3.29800	172
3.30167	172
3.30533	173
3.30900	178
3.31267	182
3.31633	182
3.32000	179
3.32367	183
3.32733	192
3.33100	202
3.33467	207
3.33833	202
3.34200	194
3.34567	188
3.34933	183
3.35300	179
3.35667	177
3.36033	178
3.36400	180
3.36767	178
3.37133	170
3.37500	166
3.37867	168
3.38233	170
3.38600	173
3.38967	174
3.39333	173
3.39700	171
3.40067	165
3.40433	162
3.40800	167
3.41167	174
3.41533	175
3.41900	172
3.42267	167
3.42633	163
3.43000	162
3.43367	163
3.43733	162
3.44100	159
3.44467	158
3.44833	152
3.45200	146
3.45567	145
3.45933	147
3.46300	148
3.46667	150
3.47033	153
3.47400	158
3.47767	163
3.48133	170
3.48500	174
3.48867	170
3.49233	162
3.49600	157
3.49967	154
3.50333	151
3.50700	148
3.51067	148
3.51433	150
3.51800	150
3.52167	149
3.52533	150
3.52900	151
3.53267	152
3.53633	156
3.54000	157
3.54367	156
3.54733	155
3.55100	157
3.55467	160
3.55833	162
3.56200	162
3.56567	159
3.56933	153
3.57300	145
3.57667	140
3.58033	139
3.58400	136
3.58767	135
3.59133	134
3.59500	130
3.59867	126
3.60233	126
3.60600	126
3.60967	127
3.61333	130
3.61700	139
3.62067	148
3.62433	154
3.62800	157
3.63167	155
3.63533	147
3.63900	143
3.64267	143
3.64633	144
3.65000	142
3.65367	137
3.65733	134
3.66100	133
3.66467	131
3.66833	127
3.67200	129
3.67567	137
3.67933	145
3.68300	150
3.68667	152
3.69033	151
3.69400	148
3.69767	143
3.70133	138
3.70500	132
3.70867	126
3.71233	122
3.71600	121
3.71967	121
3.72333	119
3.72700	118
3.73067	123
3.73433	130
3.73800	134
3.74167	137
3.74533	140
3.74900	141
3.75267	139
3.75633	138
3.76000	134
3.76367	129
3.76733	124
3.77100	118
3.77467	115
3.77833	113
3.78200	108
3.78567	102
3.78933	95
3.79300	89
3.79667	82
3.80033	78
3.80400	81
3.80767	90
3.81133	100
3.81500	110
3.81867	120
3.82233	126
3.82600	131
3.82967	134
3.83333	133
3.83700	131
3.84067	129
3.84433	124
3.84800	118
3.85167	114
3.85533	113
3.85900	113
3.86267	113
3.86633	112
3.87000	106
3.87367	100
3.87733	98
3.88100	98
3.88467	100
3.88833	102
3.89200	104
3.89567	104
3.89933	104
3.90300	108
3.90667	115
3.91033	122
3.91400	127
3.91767	128
3.92133	127
3.92500	123
3.92867	118
3.93233	113
3.93600	111
3.93967	118
3.94333	128
3.94700	133
3.95067	130
3.95433	120
3.95800	108
3.96167	96
3.96533	89
3.96900	86
3.97267	88
3.97633	91
3.98000	93
3.98367	95
3.98733	99
3.99100	103
3.99467	106
3.99833	111

[Chromatogram (Ch2)]
Interval(msec)	220
# of Points	1091
Start Time(min)	0.002
End Time(min)	3.998
R.Time (min)	Intensity
0.00167	-0
0.00533	-0
0.00900	-0
0.01267	-1
0.01633	-1
0.02000	-1
0.02367	-1
0.02733	-1
0.03100	-1
0.03467	-1
0.03833	-1
0.04200	-1
0.04567	-1
0.04933	-2
0.05300	-2
0.05667	-2
0.06033	-3
0.06400	-3
0.06767	-3
0.07133	-3
0.07500	-3
0.07867	-2
0.08233	-2
0.08600	-1
0.08967	-1
0.09333	-0
0.09700	0
0.10067	0
0.10433	0
0.10800	0
0.11167	-0
0.11533	-0
0.11900	-0
0.12267	-1
0.12633	-1
0.13000	-2
0.13367	-3
0.13733	-3
0.14100	-3
0.14467	-4
0.14833	-4
0.15200	-4
0.15567	-4
0.15933	-5
0.16300	-5
0.16667	-4
0.17033	-4
0.17400	-4
0.17767	-4
0.18133	-4
0.18500	-4
0.18867	-4
0.19233	-4
0.19600	-5
0.19967	-4
0.20333	-4
0.20700	-5
0.21067	-5
0.21433	-5
0.21800	-5
0.22167	-6
0.22533	-6
0.22900	-6
0.23267	-6
0.23633	-5
0.24000	-5
0.24367	-4
0.24733	-4
0.25100	-4
0.25467	-3
0.25833	-3
0.26200	-3
0.26567	-2
0.26933	-2
0.27300	-2
0.27667	-2
0.28033	-2
0.28400	-2
0.28767	-2
0.29133	-2
0.29500	-2
0.29867	-2
0.30233	-2
0.30600	-2
0.30967	-1
0.31333	-1
0.31700	-1
0.32067	-1
0.32433	-1
0.32800	-1
0.33167	-0
0.33533	-0
0.33900	-0
0.34267	-0
0.34633	-0
0.35000	-1
0.35367	-1
0.35733	-1
0.36100	-1
0.36467	-1
0.36833	-1
0.37200	-1
0.37567	-1
0.37933	-1
0.38300	-1
0.38667	-1
0.39033	-1
0.39400	-0
0.39767	-0
0.40133	0
0.40500	0
0.40867	1
0.41233	1
0.41600	0
0.41967	0
0.42333	-0
0.42700	-0
0.43067	-1
0.43433	-1
0.43800	-1
0.44167	-0
0.44533	-0
0.44900	0
0.45267	0
0.45633	1
0.46000	1
0.46367	1
0.46733	1
0.47100	1
0.47467	0
0.47833	-0
0.48200	-1
0.48567	-2
0.48933	-2
0.49300	-3
0.49667	-3
0.50033	-4
0.50400	-5
0.50767	-5
0.51133	-5
0.51500	-6
0.51867	-6
0.52233	-6
0.52600	-6
0.52967	-6
0.53333	-6
0.53700	-5
0.54067	-5
0.54433	-5
0.54800	-5
0.55167	-5
0.55533	-5
0.55900	-6
0.56267	-6
0.56633	-6
0.57000	-6
0.57367	-6
0.57733	-6
0.58100	-6
0.58467	-6
0.58833	-6
0.59200	-6
0.59567	-6
0.59933	-6
0.60300	-6
0.60667	-6
0.61033	-6
0.61400	-5
0.61767	-5
0.62133	-4
0.62500	-3
0.62867	-3
0.63233	-2
0.63600	-1
0.63967	-1
0.64333	-0
0.64700	-0
0.65067	-0
0.65433	-0
0.65800	-0
0.66167	-0
0.66533	-0
0.66900	-1
0.67267	-1
0.67633	-1
0.68000	-1
0.68367	-1
0.68733	-1
0.69100	-1
0.69467	-1
0.69833	-2
0.70200	-2
0.70567	-2
0.70933	-2
0.71300	-2
0.71667	-2
0.72033	-2
0.72400	-2
0.72767	-3
0.73133	-3
0.73500	-3
0.73867	-3
0.74233	-3
0.74600	-3
0.74967	-4
0.75333	-4
0.75700	-4
0.76067	-4
0.76433	-4
0.76800	-4
0.77167	-4
0.77533	-5
0.77900	-5
0.78267	-5
0.78633	-5
0.79000	-5
0.79367	-5
0.79733	-5
0.80100	-5
0.80467	-5
0.80833	-5
0.81200	-4
0.81567	-4
0.81933	-4
0.82300	-4
0.82667	-4
0.83033	-3
0.83400	-3
0.83767	-4
0.84133	-4
0.84500	-4
0.84867	-3
0.85233	-4
0.85600	-4
0.85967	-4
0.86333	-4
0.86700	-3
0.87067	-3
0.87433	-3
0.87800	-4
0.88167	-4
0.88533	-4
0.88900	-3
0.89267	-3
0.89633	-3
0.90000	-3
0.90367	-3
0.90733	-3
0.91100	-3
0.91467	-3
0.91833	-3
0.92200	-3
0.92567	-3
0.92933	-4
0.93300	-4
0.93667	-4
0.94033	-4
0.94400	-5
0.94767	-5
0.95133	-5
0.95500	-5
0.95867	-5
0.96233	-5
0.96600	-5
0.96967	-5
0.97333	-5
0.97700	-5
0.98067	-5
0.98433	-4
0.98800	-4
0.99167	-4
0.99533	-4
0.99900	-4
1.00267	-4
1.00633	-4
1.01000	-4
1.01367	-4
1.01733	-4
1.02100	-4
1.02467	-4
1.02833	-3
1.03200	-3
1.03567	-3
1.03933	-2
1.04300	-2
1.04667	-2
1.05033	-2
1.05400	-2
1.05767	-2
1.06133	-2
1.06500	-2
1.06867	-2
1.07233	-2
1.07600	-2
1.07967	-2
1.08333	-1
1.08700	-1
1.09067	-1
1.09433	-1
1.09800	-0
1.10167	-0
1.10533	-0
1.10900	-1
1.11267	-1
1.11633	-1
1.12000	-2
1.12367	-2
1.12733	-2
1.13100	-3
1.13467	-3
1.13833	-3
1.14200	-4
1.14567	-4
1.14933	-4
1.15300	-4
1.15667	-4
1.16033	-4
1.16400	-5
1.16767	-5
1.17133	-5
1.17500	-5
1.17867	-5
1.18233	-5
1.18600	-5
1.18967	-5
1.19333	-5
1.19700	-5
1.20067	-5
1.20433	-5
1.20800	-5
1.21167	-5
1.21533	-5
1.21900	-5
1.22267	-5
1.22633	-5
1.23000	-5
1.23367	-5
1.23733	-5
1.24100	-5
1.24467	-5
1.24833	-5
1.25200	-6
1.25567	-6
1.25933	-6
1.26300	-6
1.26667	-6
1.27033	-6
1.27400	-7
1.27767	-7
1.28133	-7
1.28500	-7
1.28867	-7
1.29233	-8
1.29600	-8
1.29967	-8
1.30333	-8
1.30700	-8
1.31067	-8
1.31433	-8
1.31800	-7
1.32167	-7
1.32533	-7
1.32900	-6
1.33267	-6
1.33633	-5
1.34000	-5
1.34367	-4
1.34733	-3
1.35100	-3
1.35467	-3
1.35833	-3
1.36200	-3
1.36567	-3
1.36933	-3
1.37300	-4
1.37667	-4
1.38033	-4
1.38400	-4
1.38767	-4
1.39133	-4
1.39500	-3
1.39867	-3
1.40233	-3
1.40600	-3
1.40967	-3
1.41333	-3
1.41700	-3
1.42067	-3
1.42433	-3
1.42800	-3
1.43167	-4
1.43533	-4
1.43900	-4
1.44267	-4
1.44633	-5
1.45000	-5
1.45367	-6
1.45733	-7
1.46100	-7
1.46467	-7
1.46833	-8
1.47200	-8
1.47567	-8
1.47933	-8
1.48300	-8
1.48667	-8
1.49033	-8
1.49400	-7
1.49767	-7
1.50133	-7
1.50500	-7
1.50867	-7
1.51233	-7
1.51600	-7
1.51967	-7
1.52333	-7
1.52700	-7
1.53067	-7
1.53433	-6
1.53800	-6
1.54167	-6
1.54533	-6
1.54900	-6
1.55267	-6
1.55633	-6
1.56000	-5
1.56367	-5
1.56733	-5
1.57100	-5
1.57467	-5
1.57833	-4
1.58200	-4
1.58567	-3
1.58933	-3
1.59300	-4
1.59667	-4
1.60033	-5
1.60400	-5
1.60767	-6
1.61133	-8
1.61500	-10
1.61867	-12
1.62233	-14
1.62600	-17
1.62967	-21
1.63333	-24
1.63700	-28
1.64067	-32
1.64433	-35
1.64800	-39
1.65167	-43
1.65533	-47
1.65900	-52
1.66267	-57
1.66633	-62
1.67000	-67
1.67367	-73
1.67733	-78
1.68100	-83
1.68467	-88
1.68833	-92
1.69200	-95
1.69567	-98
1.69933	-100
1.70300	-102
1.70667	-104
1.71033	-105
1.71400	-106
1.71767	-107
1.72133	-108
1.72500	-108
1.72867	-109
1.73233	-109
1.73600	-108
1.73967	-108
1.74333	-108
1.74700	-109
1.75067	-109
1.75433	-110
1.75800	-111
1.76167	-112
1.76533	-112
1.76900	-113
1.77267	-114
1.77633	-114
1.78000	-115
1.78367	-115
1.78733	-115
1.79100	-115
1.79467	-116
1.79833	-116
1.80200	-116
1.80567	-116
1.80933	-116
1.81300	-116
1.81667	-116
1.82033	-116
1.82400	-116
1.82767	-117
1.83133	-117
1.83500	-117
1.83867	-117
1.84233	-117
1.84600	-116
1.84967	-116
1.85333	-117
1.85700	-117
1.86067	-116
1.86433	-116
1.86800	-116
1.87167	-116
1.87533	-116
1.87900	-116
1.88267	-116
1.88633	-116
1.89000	-116
1.89367	-116
1.89733	-116
1.90100	-116
1.90467	-115
1.90833	-115
1.91200	-114
1.91567	-114
1.91933	-113
1.92300	-113
1.92667	-113
1.93033	-113
1.93400	-113
1.93767	-113
1.94133	-113
1.94500	-113
1.94867	-113
1.95233	-113
1.95600	-113
1.95967	-113
1.96333	-112
1.96700	-112
1.97067	-112
1.97433	-111
1.97800	-110
1.98167	-110
1.98533	-109
1.98900	-109
1.99267	-109
1.99633	-108
2.00000	-108
2.00367	-108
2.00733	-108
2.01100	-108
2.01467	-108
2.01833	-107
2.02200	-107
2.02567	-106
2.02933	-106
2.03300	-105
2.03667	-105
2.04033	-105
2.04400	-105
2.04767	-105
2.05133	-105
2.05500	-105
2.05867	-105
2.06233	-105
2.06600	-105
2.06967	-105
2.07333	-105
2.07700	-105
2.08067	-104
2.08433	-103
2.08800	-103
2.09167	-102
2.09533	-101
2.09900	-101
2.10267	-101
2.10633	-101
2.11000	-102
2.11367	-102
2.11733	-101
2.12100	-101
2.12467	-101
2.12833	-100
2.13200	-100
2.13567	-100
2.13933	-99
2.14300	-99
2.14667	-98
2.15033	-98
2.15400	-97
2.15767	-97
2.16133	-96
2.16500	-95
2.16867	-94
2.17233	-93
2.17600	-93
2.17967	-92
2.18333	-92
2.18700	-93
2.19067	-93
2.19433	-93
2.19800	-93
2.20167	-93
2.20533	-93
2.20900	-93
2.21267	-92
2.21633	-92
2.22000	-91
2.22367	-91
2.22733	-90
2.23100	-90
2.23467	-89
2.23833	-89
2.24200	-89
2.24567	-89
2.24933	-89
2.25300	-90
2.25667	-90
2.26033	-90
2.26400	-89
2.26767	-89
2.27133	-88
2.27500	-87
2.27867	-86
2.28233	-85
2.28600	-85
2.28967	-86
2.29333	-86
2.29700	-87
2.30067	-88
2.30433	-88
2.30800	-88
2.31167	-88
2.31533	-87
2.31900	-86
2.32267	-85
2.32633	-85
2.33000	-84
2.33367	-83
2.33733	-83
2.34100	-82
2.34467	-82
2.34833	-81
2.35200	-80
2.35567	-78
2.35933	-77
2.36300	-74
2.36667	-72
2.37033	-69
2.37400	-66
2.37767	-63
2.38133	-59
2.38500	-55
2.38867	-51
2.39233	-46
2.39600	-42
2.39967	-38
2.40333	-33
2.40700	-30
2.41067	-26
2.41433	-23
2.41800	-20
2.42167	-17
2.42533	-15
2.42900	-14
2.43267	-13
2.43633	-12
2.44000	-11
2.44367	-11
2.44733	-11
2.45100	-11
2.45467	-11
2.45833	-10
2.46200	-10
2.46567	-9
2.46933	-8
2.47300	-7
2.47667	-6
2.48033	-5
2.48400	-4
2.48767	-3
2.49133	-2
2.49500	-1
2.49867	0
2.50233	1
2.50600	2
2.50967	3
2.51333	3
2.51700	4
2.52067	5
2.52433	5
2.52800	6
2.53167	7
2.53533	8
2.53900	9
2.54267	9
2.54633	10
2.55000	10
2.55367	10
2.55733	11
2.56100	11
2.56467	11
2.56833	12
2.57200	13
2.57567	13
2.57933	14
2.58300	14
2.58667	14
2.59033	13
2.59400	13
2.59767	13
2.60133	13
2.60500	13
2.60867	13
2.61233	14
2.61600	15
2.61967	16
2.62333	16
2.62700	17
2.63067	17
2.63433	18
2.63800	18
2.64167	18
2.64533	18
2.64900	18
2.65267	18
2.65633	18
2.66000	19
2.66367	19
2.66733	19
2.67100	19
2.67467	19
2.67833	18
2.68200	18
2.68567	18
2.68933	18
2.69300	18
2.69667	19
2.70033	19
2.70400	19
2.70767	20
2.71133	20
2.71500	21
2.71867	21
2.72233	22
2.72600	22
2.72967	21
2.73333	21
2.73700	21
2.74067	21
2.74433	21
2.74800	20
2.75167	20
2.75533	20
2.75900	20
2.76267	20
2.76633	20
2.77000	20
2.77367	21
2.77733	21
2.78100	22
2.78467	22
2.78833	23
2.79200	23
2.79567	24
2.79933	24
2.80300	24
2.80667	24
2.81033	24
2.81400	25
2.81767	25
2.82133	25
2.82500	25
2.82867	25
2.83233	25
2.83600	24
2.83967	24
2.84333	22
2.84700	19
2.85067	15
2.85433	8
2.85800	-3
2.86167	-17
2.86533	-36
2.86900	-60
2.87267	-89
2.87633	-124
2.88000	-164
2.88367	-210
2.88733	-261
2.89100	-318
2.89467	-379
2.89833	-445
2.90200	-515
2.90567	-588
2.90933	-665
2.91300	-744
2.91667	-827
2.92033	-912
2.92400	-999
2.92767	-1088
2.93133	-1178
2.93500	-1271
2.93867	-1365
2.94233	-1451
2.94600	-1517
2.94967	-1551
2.95333	-1548
2.95700	-1510
2.96067	-1442
2.96433	-1352
2.96800	-1248
2.97167	-1137
2.97533	-1025
2.97900	-915
2.98267	-810
2.98633	-713
2.99000	-623
2.99367	-543
2.99733	-471
3.00100	-407
3.00467	-350
3.00833	-301
3.01200	-258
3.01567	-221
3.01933	-188
3.02300	-161
3.02667	-137
3.03033	-117
3.03400	-99
3.03767	-84
3.04133	-72
3.04500	-61
3.04867	-51
3.05233	-43
3.05600	-37
3.05967	-31
3.06333	-26
3.06700	-21
3.07067	-18
3.07433	-14
3.07800	-11
3.08167	-9
3.08533	-7
3.08900	-4
3.09267	-3
3.09633	-1
3.10000	0
3.10367	2
3.10733	3
3.11100	4
3.11467	5
3.11833	6
3.12200	7
3.12567	8
3.12933	9
3.13300	10
3.13667	10
3.14033	11
3.14400	11
3.14767	12
3.15133	12
3.15500	12
3.15867	12
3.16233	12
3.16600	12
3.16967	12
3.17333	13
3.17700	13
3.18067	13
3.18433	13
3.18800	14
3.19167	14
3.19533	14
3.19900	14
3.20267	15
3.20633	15
3.21000	15
3.21367	16
3.21733	16
3.22100	17
3.22467	17
3.22833	18
3.23200	18
3.23567	18
3.23933	19
3.24300	19
3.24667	19
3.25033	19
3.25400	19
3.25767	19
3.26133	20
3.26500	19
3.26867	19
3.27233	19
3.27600	19
3.27967	19
3.28333	19
3.28700	19
3.29067	19
3.29433	19
3.29800	19
3.30167	19
3.30533	19
3.30900	19
3.31267	20
3.31633	20
3.32000	21
3.32367	21
3.32733	21
3.33100	22
3.33467	22
3.33833	22
3.34200	22
3.34567	22
3.34933	23
3.35300	23
3.35667	23
3.36033	23
3.36400	24
3.36767	24
3.37133	24
3.37500	24
3.37867	24
3.38233	24
3.38600	24
3.38967	24
3.39333	24
3.39700	24
3.40067	23
3.40433	23
3.40800	23
3.41167	23
3.41533	23
3.41900	23
3.42267	22
3.42633	22
3.43000	22
3.43367	23
3.43733	23
3.44100	23
3.44467	22
3.44833	22
3.45200	22
3.45567	22
3.45933	22
3.46300	23
3.46667	23
3.47033	23
3.47400	23
3.47767	23
3.48133	23
3.48500	23
3.48867	23
3.49233	23
3.49600	23
3.49967	22
3.50333	22
3.50700	22
3.51067	22
3.51433	22
3.51800	22
3.52167	22
3.52533	22
3.52900	22
3.53267	22
3.53633	22
3.54000	22
3.54367	23
3.54733	23
3.55100	23
3.55467	23
3.55833	23
3.56200	23
3.56567	24
3.56933	24
3.57300	24
3.57667	24
3.58033	24
3.58400	24
3.58767	24
3.59133	25
3.59500	25
3.59867	25
3.60233	25
3.60600	25
3.60967	25
3.61333	25
3.61700	25
3.62067	25
3.62433	25
3.62800	25
3.63167	26
3.63533	26
3.63900	26
3.64267	26
3.64633	26
3.65000	25
3.65367	25
3.65733	25
3.66100	25
3.66467	24
3.66833	24
3.67200	24
3.67567	24
3.67933	25
3.68300	25
3.68667	25
3.69033	25
3.69400	25
3.69767	25
3.70133	25
3.70500	25
3.70867	25
3.71233	25
3.71600	25
3.71967	25
3.72333	25
3.72700	25
3.73067	25
3.73433	25
3.73800	25
3.74167	25
3.74533	24
3.74900	24
3.75267	24
3.75633	24
3.76000	24
3.76367	23
3.76733	23
3.77100	23
3.77467	23
3.77833	22
3.78200	22
3.78567	22
3.78933	22
3.79300	22
3.79667	22
3.80033	23
3.80400	23
3.80767	23
3.81133	23
3.81500	23
3.81867	23
3.82233	23
3.82600	23
3.82967	23
3.83333	23
3.83700	23
3.84067	23
3.84433	23
3.84800	23
3.85167	23
3.85533	23
3.85900	23
3.86267	24
3.86633	24
3.87000	24
3.87367	24
3.87733	24
3.88100	24
3.88467	24
3.88833	24
3.89200	24
3.89567	24
3.89933	24
3.90300	24
3.90667	24
3.91033	24
3.91400	24
3.91767	24
3.92133	24
3.92500	25
3.92867	25
3.93233	24
3.93600	24
3.93967	24
3.94333	24
3.94700	24
3.95067	23
3.95433	23
3.95800	23
3.96167	23
3.96533	23
3.96900	23
3.97267	23
3.97633	23
3.98000	23
3.98367	23
3.98733	24
3.99100	24
3.99467	24
3.99833	24

[Chromatogram (Ch3)]
Interval(msec)	220
# of Points	1091
Start Time(min)	0.002
End Time(min)	3.998
R.Time (min)	Intensity
0.00167	0
0.00533	3
0.00900	6
0.01267	6
0.01633	3
0.02000	2
0.02367	2
0.02733	2
0.03100	2
0.03467	2
0.03833	2
0.04200	2
0.04567	2
0.04933	2
0.05300	-0
0.05667	-1
0.06033	-1
0.06400	-1
0.06767	-1
0.07133	-1
0.07500	0
0.07867	2
0.08233	5
0.08600	6
0.08967	6
0.09333	4
0.09700	3
0.10067	4
0.10433	4
0.10800	6
0.11167	5
0.11533	4
0.11900	3
0.12267	2
0.12633	1
0.13000	0
0.13367	-1
0.13733	-0
0.14100	-0
0.14467	-1
0.14833	0
0.15200	0
0.15567	0
0.15933	0
0.16300	2
0.16667	3
0.17033	2
0.17400	1
0.17767	-1
0.18133	-1
0.18500	-0
0.18867	-3
0.19233	-4
0.19600	-4
0.19967	-4
0.20333	-4
0.20700	-4
0.21067	-4
0.21433	-3
0.21800	-1
0.22167	-0
0.22533	-0
0.22900	0
0.23267	-0
0.23633	1
0.24000	3
0.24367	4
0.24733	4
0.25100	5
0.25467	6
0.25833	6
0.26200	4
0.26567	3
0.26933	4
0.27300	5
0.27667	5
0.28033	4
0.28400	5
0.28767	7
0.29133	8
0.29500	9
0.29867	7
0.30233	6
0.30600	6
0.30967	4
0.31333	2
0.31700	-0
0.32067	-1
0.32433	1
0.32800	1
0.33167	3
0.33533	4
0.33900	3
0.34267	3
0.34633	1
0.35000	4
0.35367	7
0.35733	6
0.36100	6
0.36467	6
0.36833	6
0.37200	5
0.37567	3
0.37933	2
0.38300	4
0.38667	7
0.39033	9
0.39400	10
0.39767	10
0.40133	8
0.40500	7
0.40867	7
0.41233	6
0.41600	7
0.41967	6
0.42333	4
0.42700	3
0.43067	5
0.43433	5
0.43800	4
0.44167	2
0.44533	2
0.44900	2
0.45267	2
0.45633	2
0.46000	4
0.46367	8
0.46733	12
0.47100	12
0.47467	10
0.47833	6
0.48200	2
0.48567	1
0.48933	2
0.49300	4
0.49667	6
0.50033	6
0.50400	5
0.50767	6
0.51133	7
0.51500	8
0.51867	8
0.52233	9
0.52600	11
0.52967	13
0.53333	14
0.53700	12
0.54067	9
0.54433	7
0.54800	6
0.55167	8
0.55533	10
0.55900	11
0.56267	11
0.56633	10
0.57000	9
0.57367	9
0.57733	11
0.58100	11
0.58467	7
0.58833	7
0.59200	6
0.59567	7
0.59933	7
0.60300	6
0.60667	6
0.61033	7
0.61400	7
0.61767	6
0.62133	6
0.62500	8
0.62867	8
0.63233	9
0.63600	11
0.63967	10
0.64333	9
0.64700	7
0.65067	7
0.65433	6
0.65800	6
0.66167	7
0.66533	7
0.66900	7
0.67267	7
0.67633	9
0.68000	9
0.68367	9
0.68733	7
0.69100	8
0.69467	7
0.69833	7
0.70200	6
0.70567	6
0.70933	7
0.71300	9
0.71667	10
0.72033	12
0.72400	13
0.72767	13
0.73133	13
0.73500	12
0.73867	12
0.74233	12
0.74600	12
0.74967	11
0.75333	11
0.75700	12
0.76067	12
0.76433	13
0.76800	15
0.77167	14
0.77533	14
0.77900	16
0.78267	15
0.78633	14
0.79000	13
0.79367	13
0.79733	15
0.80100	13
0.80467	12
0.80833	11
0.81200	10
0.81567	10
0.81933	12
0.82300	15
0.82667	19
0.83033	21
0.83400	23
0.83767	21
0.84133	19
0.84500	17
0.84867	15
0.85233	15
0.85600	15
0.85967	16
0.86333	17
0.86700	19
0.87067	20
0.87433	19
0.87800	17
0.88167	15
0.88533	13
0.88900	12
0.89267	13
0.89633	13
0.90000	13
0.90367	13
0.90733	14
0.91100	14
0.91467	15
0.91833	17
0.92200	18
0.92567	18
0.92933	18
0.93300	19
0.93667	20
0.94033	21
0.94400	23
0.94767	25
0.95133	25
0.95500	26
0.95867	25
0.96233	22
0.96600	19
0.96967	18
0.97333	16
0.97700	14
0.98067	13
0.98433	14
0.98800	13
0.99167	12
0.99533	11
0.99900	11
1.00267	12
1.00633	15
1.01000	18
1.01367	22
1.01733	23
1.02100	22
1.02467	21
1.02833	21
1.03200	21
1.03567	19
1.03933	19
1.04300	20
1.04667	19
1.05033	19
1.05400	21
1.05767	22
1.06133	21
1.06500	19
1.06867	19
1.07233	19
1.07600	19
1.07967	19
1.08333	20
1.08700	20
1.09067	23
1.09433	26
1.09800	27
1.10167	26
1.10533	25
1.10900	23
1.11267	22
1.11633	22
1.12000	23
1.12367	23
1.12733	23
1.13100	22
1.13467	21
1.13833	22
1.14200	23
1.14567	24
1.14933	24
1.15300	24
1.15667	25
1.16033	25
1.16400	26
1.16767	28
1.17133	28
1.17500	28
1.17867	26
1.18233	24
1.18600	21
1.18967	19
1.19333	19
1.19700	19
1.20067	19
1.20433	21
1.20800	22
1.21167	21
1.21533	20
1.21900	20
1.22267	20
1.22633	21
1.23000	22
1.23367	22
1.23733	22
1.24100	24
1.24467	26
1.24833	27
1.25200	28
1.25567	27
1.25933	26
1.26300	24
1.26667	24
1.27033	25
1.27400	24
1.27767	22
1.28133	22
1.28500	21
1.28867	21
1.29233	21
1.29600	21
1.29967	22
1.30333	23
1.30700	25
1.31067	26
1.31433	27
1.31800	28
1.32167	27
1.32533	25
1.32900	25
1.33267	24
1.33633	25
1.34000	25
1.34367	26
1.34733	26
1.35100	26
1.35467	27
1.35833	27
1.36200	27
1.36567	27
1.36933	26
1.37300	27
1.37667	26
1.38033	26
1.38400	26
1.38767	27
1.39133	28
1.39500	29
1.39867	29
1.40233	29
1.40600	26
1.40967	25
1.41333	25
1.41700	24
1.42067	26
1.42433	28
1.42800	27
1.43167	26
1.43533	26
1.43900	27
1.44267	26
1.44633	28
1.45000	29
1.45367	30
1.45733	31
1.46100	31
1.46467	31
1.46833	32
1.47200	31
1.47567	29
1.47933	28
1.48300	28
1.48667	29
1.49033	27
1.49400	28
1.49767	30
1.50133	31
1.50500	30
1.50867	29
1.51233	29
1.51600	28
1.51967	30
1.52333	31
1.52700	31
1.53067	32
1.53433	33
1.53800	35
1.54167	37
1.54533	37
1.54900	37
1.55267	35
1.55633	34
1.56000	36
1.56367	36
1.56733	34
1.57100	33
1.57467	31
1.57833	29
1.58200	29
1.58567	31
1.58933	33
1.59300	34
1.59667	36
1.60033	36
1.60400	35
1.60767	37
1.61133	39
1.61500	38
1.61867	37
1.62233	37
1.62600	40
1.62967	41
1.63333	40
1.63700	41
1.64067	42
1.64433	41
1.64800	41
1.65167	41
1.65533	41
1.65900	41
1.66267	42
1.66633	43
1.67000	44
1.67367	46
1.67733	46
1.68100	46
1.68467	47
1.68833	48
1.69200	49
1.69567	49
1.69933	48
1.70300	47
1.70667	46
1.71033	47
1.71400	47
1.71767	46
1.72133	46
1.72500	48
1.72867	49
1.73233	50
1.73600	51
1.73967	51
1.74333	53
1.74700	55
1.75067	58
1.75433	57
1.75800	58
1.76167	58
1.76533	57
1.76900	58
1.77267	59
1.77633	61
1.78000	63
1.78367	62
1.78733	61
1.79100	62
1.79467	62
1.79833	62
1.80200	63
1.80567	65
1.80933	67
1.81300	67
1.81667	67
1.82033	66
1.82400	66
1.82767	64
1.83133	64
1.83500	64
1.83867	66
1.84233	68
1.84600	69
1.84967	69
1.85333	69
1.85700	69
1.86067	70
1.86433	69
1.86800	71
1.87167	75
1.87533	78
1.87900	79
1.88267	78
1.88633	77
1.89000	75
1.89367	74
1.89733	75
1.90100	78
1.90467	79
1.90833	80
1.91200	79
1.91567	80
1.91933	82
1.92300	83
1.92667	85
1.93033	87
1.93400	88
1.93767	89
1.94133	90
1.94500	93
1.94867	94
1.95233	96
1.95600	97
1.95967	96
1.96333	97
1.96700	97
1.97067	97
1.97433	99
1.97800	99
1.98167	99
1.98533	102
1.98900	105
1.99267	106
1.99633	107
2.00000	107
2.00367	109
2.00733	110
2.01100	112
2.01467	113
2.01833	112
2.02200	111
2.02567	111
2.02933	112
2.03300	113
2.03667	113
2.04033	114
2.04400	117
2.04767	121
2.05133	124
2.05500	128
2.05867	129
2.06233	129
2.06600	130
2.06967	130
2.07333	130
2.07700	131
2.08067	132
2.08433	134
2.08800	135
2.09167	135
2.09533	137
2.09900	137
2.10267	136
2.10633	136
2.11000	138
2.11367	140
2.11733	142
2.12100	144
2.12467	148
2.12833	149
2.13200	150
2.13567	149
2.13933	151
2.14300	153
2.14667	155
2.15033	154
2.15400	152
2.15767	151
2.16133	151
2.16500	153
2.16867	156
2.17233	160
2.17600	162
2.17967	165
2.18333	168
2.18700	168
2.19067	170
2.19433	172
2.19800	171
2.20167	168
2.20533	168
2.20900	170
2.21267	172
2.21633	173
2.22000	175
2.22367	177
2.22733	179
2.23100	180
2.23467	180
2.23833	179
2.24200	180
2.24567	181
2.24933	180
2.25300	181
2.25667	183
2.26033	184
2.26400	184
2.26767	184
2.27133	185
2.27500	188
2.27867	188
2.28233	187
2.28600	188
2.28967	190
2.29333	194
2.29700	196
2.30067	196
2.30433	196
2.30800	196
2.31167	196
2.31533	195
2.31900	196
2.32267	199
2.32633	202
2.33000	205
2.33367	206
2.33733	208
2.34100	211
2.34467	214
2.34833	216
2.35200	215
2.35567	214
2.35933	213
2.36300	212
2.36667	211
2.37033	212
2.37400	214
2.37767	214
2.38133	215
2.38500	214
2.38867	213
2.39233	213
2.39600	216
2.39967	218
2.40333	221
2.40700	222
2.41067	223
2.41433	225
2.41800	228
2.42167	228
2.42533	228
2.42900	230
2.43267	231
2.43633	231
2.44000	233
2.44367	283
2.44733	416
2.45100	563
2.45467	685
2.45833	752
2.46200	756
2.46567	725
2.46933	691
2.47300	666
2.47667	650
2.48033	633
2.48400	602
2.48767	559
2.49133	514
2.49500	472
2.49867	442
2.50233	420
2.50600	409
2.50967	407
2.51333	413
2.51700	428
2.52067	446
2.52433	462
2.52800	471
2.53167	468
2.53533	455
2.53900	434
2.54267	407
2.54633	378
2.55000	350
2.55367	329
2.55733	312
2.56100	298
2.56467	286
2.56833	279
2.57200	274
2.57567	269
2.57933	266
2.58300	263
2.58667	261
2.59033	263
2.59400	266
2.59767	270
2.60133	271
2.60500	269
2.60867	263
2.61233	258
2.61600	254
2.61967	248
2.62333	241
2.62700	233
2.63067	226
2.63433	217
2.63800	209
2.64167	204
2.64533	196
2.64900	187
2.65267	179
2.65633	172
2.66000	166
2.66367	159
2.66733	151
2.67100	144
2.67467	138
2.67833	133
2.68200	127
2.68567	121
2.68933	117
2.69300	117
2.69667	117
2.70033	119
2.70400	121
2.70767	123
2.71133	126
2.71500	127
2.71867	127
2.72233	130
2.72600	133
2.72967	136
2.73333	141
2.73700	144
2.74067	147
2.74433	149
2.74800	152
2.75167	154
2.75533	160
2.75900	163
2.76267	166
2.76633	169
2.77000	170
2.77367	172
2.77733	175
2.78100	178
2.78467	180
2.78833	182
2.79200	185
2.79567	189
2.79933	192
2.80300	196
2.80667	202
2.81033	209
2.81400	215
2.81767	223
2.82133	246
2.82500	298
2.82867	409
2.83233	624
2.83600	1007
2.83967	1623
2.84333	2520
2.84700	3712
2.85067	5174
2.85433	6834
2.85800	8591
2.86167	10316
2.86533	11871
2.86900	13139
2.87267	14033
2.87633	14514
2.88000	14591
2.88367	14313
2.88733	13741
2.89100	12950
2.89467	12026
2.89833	11031
2.90200	10020
2.90567	9032
2.90933	8090
2.91300	7210
2.91667	6401
2.92033	5665
2.92400	5003
2.92767	4410
2.93133	3882
2.93500	3412
2.93867	2998
2.94233	2634
2.94600	2315
2.94967	2036
2.95333	1792
2.95700	1579
2.96067	1393
2.96433	1231
2.96800	1091
2.97167	967
2.97533	862
2.97900	773
2.98267	696
2.98633	629
2.99000	570
2.99367	519
2.99733	474
3.00100	434
3.00467	399
3.00833	371
3.01200	348
3.01567	329
3.01933	313
3.02300	298
3.02667	284
3.03033	271
3.03400	260
3.03767	251
3.04133	245
3.04500	241
3.04867	235
3.05233	223
3.05600	195
3.05967	168
3.06333	157
3.06700	165
3.07067	188
3.07433	219
3.07800	256
3.08167	298
3.08533	340
3.08900	385
3.09267	431
3.09633	472
3.10000	508
3.10367	542
3.10733	571
3.11100	599
3.11467	621
3.11833	640
3.12200	656
3.12567	670
3.12933	683
3.13300	695
3.13667	705
3.14033	713
3.14400	718
3.14767	723
3.15133	730
3.15500	738
3.15867	743
3.16233	750
3.16600	758
3.16967	765
3.17333	769
3.17700	774
3.18067	778
3.18433	781
3.18800	785
3.19167	789
3.19533	796
3.19900	803
3.20267	808
3.20633	813
3.21000	819
3.21367	825
3.21733	828
3.22100	832
3.22467	837
3.22833	841
3.23200	845
3.23567	851
3.23933	859
3.24300	866
3.24667	873
3.25033	877
3.25400	882
3.25767	887
3.26133	890
3.26500	891
3.26867	889
3.27233	889
3.27600	890
3.27967	892
3.28333	894
3.28700	897
3.29067	899
3.29433	900
3.29800	901
3.30167	903
3.30533	906
3.30900	905
3.31267	903
3.31633	900
3.32000	899
3.32367	899
3.32733	897
3.33100	895
3.33467	893
3.33833	891
3.34200	889
3.34567	886
3.34933	884
3.35300	882
3.35667	879
3.36033	876
3.36400	872
3.36767	870
3.37133	869
3.37500	864
3.37867	862
3.38233	860
3.38600	860
3.38967	858
3.39333	854
3.39700	852
3.40067	850
3.40433	848
3.40800	848
3.41167	846
3.41533	844
3.41900	844
3.42267	843
3.42633	841
3.43000	842
3.43367	840
3.43733	837
3.44100	833
3.44467	831
3.44833	830
3.45200	830
3.45567	829
3.45933	830
3.46300	829
3.46667	826
3.47033	823
3.47400	820
3.47767	817
3.48133	814
3.48500	812
3.48867	813
3.49233	813
3.49600	812
3.49967	810
3.50333	809
3.50700	807
3.51067	806
3.51433	803
3.51800	802
3.52167	801
3.52533	802
3.52900	802
3.53267	801
3.53633	798
3.54000	795
3.54367	793
3.54733	791
3.55100	791
3.55467	792
3.55833	791
3.56200	789
3.56567	788
3.56933	787
3.57300	785
3.57667	781
3.58033	781
3.58400	780
3.58767	776
3.59133	772
3.59500	773
3.59867	776
3.60233	777
3.60600	777
3.60967	774
3.61333	770
3.61700	767
3.62067	763
3.62433	759
3.62800	754
3.63167	752
3.63533	752
3.63900	752
3.64267	751
3.64633	750
3.65000	749
3.65367	748
3.65733	749
3.66100	746
3.66467	742
3.66833	739
3.67200	736
3.67567	733
3.67933	729
3.68300	725
3.68667	722
3.69033	720
3.69400	719
3.69767	718
3.70133	716
3.70500	714
3.70867	712
3.71233	708
3.71600	704
3.71967	702
3.72333	701
3.72700	700
3.73067	699
3.73433	698
3.73800	698
3.74167	697
3.74533	695
3.74900	693
3.75267	694
3.75633	692
3.76000	687
3.76367	683
3.76733	680
3.77100	677
3.77467	675
3.77833	675
3.78200	675
3.78567	672
3.78933	670
3.79300	667
3.79667	663
3.80033	660
3.80400	658
3.80767	655
3.81133	655
3.81500	654
3.81867	653
3.82233	652
3.82600	651
3.82967	649
3.83333	645
3.83700	643
3.84067	640
3.84433	637
3.84800	635
3.85167	632
3.85533	630
3.85900	626
3.86267	624
3.86633	624
3.87000	623
3.87367	620
3.87733	619
3.88100	618
3.88467	615
3.88833	614
3.89200	612
3.89567	608
3.89933	606
3.90300	605
3.90667	604
3.91033	602
3.91400	600
3.91767	596
3.92133	594
3.92500	593
3.92867	591
3.93233	591
3.93600	589
3.93967	587
3.94333	585
3.94700	584
3.95067	584
3.95433	585
3.95800	584
3.96167	582
3.96533	581
3.96900	580
3.97267	580
3.97633	578
3.98000	576
3.98367	574
3.98733	575
3.99100	575
3.99467	573
3.99833	568

[Status Trace (Column Oven Temperature)]
Interval(msec)	1000
# of Points	240
Start Time(min)	0.011
End Time(min)	3.994
Intensity Units	
Intensity Multiplier	1
R.Time (min)	Intensity
0.01087	35.02
0.02753	35.01
0.04420	35.01
0.06087	35.01
0.07753	35.01
0.09420	35.01
0.11087	35.00
0.12753	35.01
0.14420	35.02
0.16087	35.03
0.17753	35.03
0.19420	35.05
0.21087	35.05
0.22753	35.05
0.24420	35.05
0.26087	35.04
0.27753	35.04
0.29420	35.04
0.31087	35.03
0.32753	35.03
0.34420	35.02
0.36087	35.01
0.37753	35.00
0.39420	35.00
0.41087	34.99
0.42753	34.98
0.44420	34.98
0.46087	34.97
0.47753	34.97
0.49420	34.98
0.51087	34.99
0.52753	34.99
0.54420	35.00
0.56087	35.02
0.57753	35.03
0.59420	35.03
0.61087	35.03
0.62753	35.01
0.64420	35.01
0.66087	35.00
0.67753	35.00
0.69420	35.00
0.71087	34.99
0.72753	35.00
0.74420	34.99
0.76087	34.99
0.77753	35.01
0.79420	35.02
0.81087	35.02
0.82753	35.02
0.84420	35.03
0.86087	35.02
0.87753	35.02
0.89420	35.01
0.91087	35.01
0.92753	35.02
0.94420	35.01
0.96087	35.02
0.97753	35.02
0.99420	35.02
1.01087	35.02
1.02753	35.01
1.04420	35.00
1.06087	34.99
1.07753	34.99
1.09420	34.97
1.11087	34.97
1.12753	34.98
1.14420	34.98
1.16087	34.99
1.17753	34.99
1.19420	34.99
1.21087	34.99
1.22753	34.99
1.24420	34.99
1.26087	34.99
1.27753	35.01
1.29420	35.01
1.31087	35.03
1.32753	35.02
1.34420	35.01
1.36087	34.99
1.37753	34.98
1.39420	34.97
1.41087	34.96
1.42753	34.97
1.44420	34.98
1.46087	35.00
1.47753	35.01
1.49420	35.01
1.51087	35.01
1.52753	35.01
1.54420	35.01
1.56087	35.01
1.57753	34.99
1.59420	34.99
1.61087	35.05
1.62753	35.18
1.64420	35.38
1.66087	35.66
1.67753	36.04
1.69420	36.39
1.71087	36.74
1.72753	37.06
1.74420	37.39
1.76087	37.73
1.77753	38.06
1.79420	38.39
1.81087	38.73
1.82753	39.06
1.84420	39.38
1.86087	39.71
1.87753	40.05
1.89420	40.39
1.91087	40.71
1.92753	41.04
1.94420	41.37
1.96087	41.70
1.97753	42.02
1.99420	42.33
2.01087	42.65
2.02753	42.97
2.04420	43.29
2.06087	43.64
2.07753	43.96
2.09420	44.27
2.11087	44.61
2.12753	44.94
2.14420	45.27
2.16087	45.57
2.17753	45.89
2.19420	46.24
2.21087	46.56
2.22753	46.87
2.24420	47.21
2.26087	47.55
2.27753	47.86
2.29420	48.24
2.31087	48.56
2.32753	48.89
2.34420	49.22
2.36087	49.46
2.37753	49.59
2.39420	49.62
2.41087	49.62
2.42753	49.63
2.44420	49.65
2.46087	49.68
2.47753	49.69
2.49420	49.71
2.51087	49.73
2.52753	49.74
2.54420	49.77
2.56087	49.79
2.57753	49.78
2.59420	49.82
2.61087	49.83
2.62753	49.83
2.64420	49.84
2.66087	49.83
2.67753	49.86
2.69420	49.86
2.71087	49.84
2.72753	49.85
2.74420	49.86
2.76087	49.88
2.77753	49.89
2.79420	49.87
2.81087	49.86
2.82753	49.85
2.84420	49.85
2.86087	49.86
2.87753	49.87
2.89420	49.89
2.91087	49.90
2.92753	49.92
2.94420	49.94
2.96087	49.95
2.97753	49.95
2.99420	49.96
3.01087	49.97
3.02753	49.99
3.04420	50.01
3.06087	50.02
3.07753	50.04
3.09420	50.04
3.11087	50.04
3.12753	50.04
3.14420	50.05
3.16087	50.06
3.17753	50.07
3.19420	50.08
3.21087	50.08
3.22753	50.09
3.24420	50.09
3.26087	50.09
3.27753	50.10
3.29420	50.10
3.31087	50.11
3.32753	50.10
3.34420	50.08
3.36087	50.07
3.37753	50.07
3.39420	50.07
3.41087	50.08
3.42753	50.08
3.44420	50.08
3.46087	50.08
3.47753	50.08
3.49420	50.09
3.51087	50.09
3.52753	50.10
3.54420	50.09
3.56087	50.08
3.57753	50.08
3.59420	50.07
3.61087	50.07
3.62753	50.06
3.64420	50.05
3.66087	50.05
3.67753	50.05
3.69420	50.05
3.71087	50.04
3.72753	50.04
3.74420	50.05
3.76087	50.05
3.77753	50.06
3.79420	50.06
3.81087	50.06
3.82753	50.06
3.84420	50.06
3.86087	50.06
3.87753	50.07
3.89420	50.06
3.91087	50.05
3.92753	50.05
3.94420	50.06
3.96087	50.07
3.97753	50.06
3.99420	50.06

[Status Trace (Injection Unit Temperature)]
Interval(msec)	1000
# of Points	240
Start Time(min)	0.011
End Time(min)	3.994
Intensity Units	
Intensity Multiplier	1
R.Time (min)	Intensity
0.01087	99.99
0.02753	99.98
0.04420	99.98
0.06087	99.98
0.07753	99.98
0.09420	99.98
0.11087	99.98
0.12753	99.98
0.14420	99.98
0.16087	99.98
0.17753	99.98
0.19420	99.98
0.21087	99.98
0.22753	99.98
0.24420	99.98
0.26087	99.98
0.27753	99.98
0.29420	99.98
0.31087	99.98
0.32753	99.98
0.34420	99.98
0.36087	99.98
0.37753	99.98
0.39420	99.98
0.41087	99.98
0.42753	99.98
0.44420	99.98
0.46087	99.98
0.47753	99.98
0.49420	99.98
0.51087	99.98
0.52753	99.98
0.54420	99.98
0.56087	99.97
0.57753	99.98
0.59420	99.98
0.61087	99.97
0.62753	99.98
0.64420	99.98
0.66087	99.98
0.67753	99.98
0.69420	99.98
0.71087	99.97
0.72753	99.97
0.74420	99.97
0.76087	99.98
0.77753	99.98
0.79420	99.98
0.81087	99.97
0.82753	99.97
0.84420	99.97
0.86087	99.98
0.87753	99.98
0.89420	99.97
0.91087	99.98
0.92753	99.98
0.94420	99.98
0.96087	99.98
0.97753	99.98
0.99420	99.98
1.01087	99.98
1.02753	99.98
1.04420	99.98
1.06087	99.98
1.07753	99.98
1.09420	99.98
1.11087	99.98
1.12753	99.98
1.14420	99.98
1.16087	99.98
1.17753	99.98
1.19420	99.99
1.21087	99.98
1.22753	99.98
1.24420	99.98
1.26087	99.98
1.27753	99.99
1.29420	99.99
1.31087	99.98
1.32753	99.99
1.34420	99.99
1.36087	99.99
1.37753	99.99
1.39420	99.99
1.41087	99.99
1.42753	99.99
1.44420	99.99
1.46087	99.99
1.47753	99.99
1.49420	99.99
1.51087	99.99
1.52753	99.99
1.54420	99.99
1.56087	99.99
1.57753	99.99
1.59420	99.99
1.61087	99.99
1.62753	99.99
1.64420	99.99
1.66087	99.99
1.67753	99.99
1.69420	99.99
1.71087	99.99
1.72753	99.99
1.74420	99.99
1.76087	99.99
1.77753	99.99
1.79420	99.99
1.81087	99.99
1.82753	99.99
1.84420	99.99
1.86087	99.98
1.87753	99.99
1.89420	99.99
1.91087	99.99
1.92753	99.98
1.94420	99.98
1.96087	99.98
1.97753	99.98
1.99420	99.98
2.01087	99.97
2.02753	99.97
2.04420	99.97
2.06087	99.98
2.07753	99.97
2.09420	99.97
2.11087	99.97
2.12753	99.97
2.14420	99.97
2.16087	99.97
2.17753	99.97
2.19420	99.96
2.21087	99.97
2.22753	99.96
2.24420	99.97
2.26087	99.96
2.27753	99.96
2.29420	99.96
2.31087	99.96
2.32753	99.96
2.34420	99.97
2.36087	99.96
2.37753	99.96
2.39420	99.96
2.41087	99.96
2.42753	99.96
2.44420	99.97
2.46087	99.96
2.47753	99.97
2.49420	99.97
2.51087	99.97
2.52753	99.97
2.54420	99.97
2.56087	99.96
2.57753	99.97
2.59420	99.97
2.61087	99.97
2.62753	99.97
2.64420	99.97
2.66087	99.97
2.67753	99.98
2.69420	99.98
2.71087	99.98
2.72753	99.98
2.74420	99.98
2.76087	99.98
2.77753	99.98
2.79420	99.99
2.81087	99.99
2.82753	99.99
2.84420	99.99
2.86087	100.00
2.87753	100.00
2.89420	100.00
2.91087	100.00
2.92753	100.00
2.94420	100.01
2.96087	100.00
2.97753	100.01
2.99420	100.01
3.01087	100.01
3.02753	100.02
3.04420	100.01
3.06087	100.01
3.07753	100.02
3.09420	100.02
3.11087	100.02
3.12753	100.02
3.14420	100.02
3.16087	100.03
3.17753	100.03
3.19420	100.03
3.21087	100.03
3.22753	100.03
3.24420	100.03
3.26087	100.03
3.27753	100.03
3.29420	100.03
3.31087	100.03
3.32753	100.04
3.34420	100.03
3.36087	100.04
3.37753	100.04
3.39420	100.04
3.41087	100.04
3.42753	100.04
3.44420	100.04
3.46087	100.04
3.47753	100.04
3.49420	100.04
3.51087	100.04
3.52753	100.04
3.54420	100.04
3.56087	100.04
3.57753	100.05
3.59420	100.04
3.61087	100.04
3.62753	100.04
3.64420	100.04
3.66087	100.04
3.67753	100.04
3.69420	100.04
3.71087	100.05
3.72753	100.04
3.74420	100.05
3.76087	100.04
3.77753	100.04
3.79420	100.05
3.81087	100.05
3.82753	100.04
3.84420	100.05
3.86087	100.04
3.87753	100.04
3.89420	100.04
3.91087	100.04
3.92753	100.04
3.94420	100.04
3.96087	100.04
3.97753	100.04
3.99420	100.04

[Status Trace (Carrier Gas Pressure)]
Interval(msec)	1000
# of Points	240
Start Time(min)	0.011
End Time(min)	3.994
Intensity Units	
Intensity Multiplier	1
R.Time (min)	Intensity
0.01087	58.00
0.02753	55.08
0.04420	57.53
0.06087	59.63
0.07753	59.08
0.09420	58.01
0.11087	57.99
0.12753	58.01
0.14420	58.01
0.16087	58.00
0.17753	58.00
0.19420	58.00
0.21087	58.00
0.22753	58.00
0.24420	58.00
0.26087	58.00
0.27753	58.00
0.29420	58.00
0.31087	58.00
0.32753	58.00
0.34420	58.00
0.36087	58.00
0.37753	58.00
0.39420	58.00
0.41087	58.00
0.42753	58.00
0.44420	58.00
0.46087	58.00
0.47753	58.00
0.49420	58.00
0.51087	58.00
0.52753	58.00
0.54420	58.00
0.56087	58.00
0.57753	58.00
0.59420	58.00
0.61087	58.00
0.62753	58.00
0.64420	58.00
0.66087	58.00
0.67753	58.00
0.69420	58.00
0.71087	58.00
0.72753	58.00
0.74420	58.00
0.76087	58.00
0.77753	58.00
0.79420	58.00
0.81087	58.00
0.82753	58.00
0.84420	58.00
0.86087	58.00
0.87753	58.00
0.89420	58.00
0.91087	58.00
0.92753	58.00
0.94420	58.00
0.96087	58.00
0.97753	58.00
0.99420	58.00
1.01087	58.00
1.02753	58.00
1.04420	58.00
1.06087	58.00
1.07753	58.00
1.09420	58.00
1.11087	58.00
1.12753	58.00
1.14420	58.00
1.16087	58.00
1.17753	58.00
1.19420	58.00
1.21087	58.00
1.22753	58.00
1.24420	58.00
1.26087	58.00
1.27753	58.00
1.29420	58.00
1.31087	58.00
1.32753	58.00
1.34420	58.00
1.36087	58.00
1.37753	58.00
1.39420	58.00
1.41087	58.00
1.42753	58.00
1.44420	58.00
1.46087	58.00
1.47753	58.00
1.49420	58.00
1.51087	58.00
1.52753	58.00
1.54420	58.00
1.56087	58.00
1.57753	58.00
1.59420	58.00
1.61087	58.00
1.62753	58.00
1.64420	58.01
1.66087	58.01
1.67753	58.01
1.69420	58.00
1.71087	58.00
1.72753	58.00
1.74420	58.00
1.76087	58.00
1.77753	58.00
1.79420	58.00
1.81087	58.00
1.82753	58.00
1.84420	58.00
1.86087	58.00
1.87753	58.00
1.89420	58.00
1.91087	58.00
1.92753	58.00
1.94420	58.00
1.96087	58.00
1.97753	58.00
1.99420	58.00
2.01087	58.00
2.02753	58.00
2.04420	58.00
2.06087	58.00
2.07753	58.00
2.09420	58.00
2.11087	58.00
2.12753	58.00
2.14420	58.00
2.16087	58.00
2.17753	58.00
2.19420	58.00
2.21087	58.00
2.22753	58.00
2.24420	58.00
2.26087	58.00
2.27753	58.00
2.29420	58.00
2.31087	58.00
2.32753	58.00
2.34420	58.00
2.36087	58.00
2.37753	57.99
2.39420	57.99
2.41087	58.00
2.42753	58.00
2.44420	58.00
2.46087	58.00
2.47753	58.00
2.49420	58.00
2.51087	57.99
2.52753	57.99
2.54420	58.00
2.56087	58.00
2.57753	58.00
2.59420	58.00
2.61087	58.00
2.62753	58.00
2.64420	58.00
2.66087	58.00
2.67753	58.00
2.69420	58.00
2.71087	58.00
2.72753	58.00
2.74420	58.00
2.76087	58.00
2.77753	58.00
2.79420	58.00
2.81087	58.00
2.82753	58.00
2.84420	58.00
2.86087	58.00
2.87753	58.00
2.89420	58.00
2.91087	58.00
2.92753	58.00
2.94420	58.00
2.96087	58.00
2.97753	58.00
2.99420	58.00
3.01087	58.00
3.02753	58.00
3.04420	58.00
3.06087	58.00
3.07753	58.00
3.09420	58.00
3.11087	58.00
3.12753	58.00
3.14420	58.00
3.16087	58.00
3.17753	58.00
3.19420	58.00
3.21087	58.00
3.22753	58.00
3.24420	58.00
3.26087	58.00
3.27753	58.00
3.29420	58.00
3.31087	58.00
3.32753	58.00
3.34420	58.00
3.36087	58.00
3.37753	58.00
3.39420	58.00
3.41087	58.00
3.42753	58.00
3.44420	58.00
3.46087	58.00
3.47753	58.00
3.49420	58.00
3.51087	58.00
3.52753	58.00
3.54420	58.00
3.56087	58.00
3.57753	58.00
3.59420	58.00
3.61087	58.00
3.62753	58.00
3.64420	58.00
3.66087	58.00
3.67753	58.00
3.69420	58.00
3.71087	58.00
3.72753	58.00
3.74420	58.00
3.76087	58.00
3.77753	58.00
3.79420	58.00
3.81087	58.00
3.82753	58.00
3.84420	58.00
3.86087	58.00
3.87753	58.00
3.89420	58.00
3.91087	58.00
3.92753	58.00
3.94420	58.00
3.96087	58.00
3.97753	58.00
3.99420	58.00

[Status Trace (Carrier Gas Flow)]
Interval(msec)	1000
# of Points	240
Start Time(min)	0.011
End Time(min)	3.994
Intensity Units	
Intensity Multiplier	1
R.Time (min)	Intensity
0.01087	34.52
0.02753	34.53
0.04420	34.54
0.06087	34.53
0.07753	34.50
0.09420	34.52
0.11087	34.51
0.12753	34.52
0.14420	34.51
0.16087	34.52
0.17753	34.51
0.19420	34.51
0.21087	34.52
0.22753	34.52
0.24420	34.52
0.26087	34.52
0.27753	34.52
0.29420	34.52
0.31087	34.52
0.32753	34.52
0.34420	34.52
0.36087	34.52
0.37753	34.52
0.39420	34.52
0.41087	34.52
0.42753	34.52
0.44420	34.52
0.46087	34.52
0.47753	34.52
0.49420	34.52
0.51087	34.52
0.52753	34.51
0.54420	34.52
0.56087	34.53
0.57753	34.52
0.59420	34.52
0.61087	34.51
0.62753	34.52
0.64420	34.52
0.66087	34.51
0.67753	34.52
0.69420	34.52
0.71087	34.52
0.72753	34.52
0.74420	34.52
0.76087	34.52
0.77753	34.52
0.79420	34.51
0.81087	34.52
0.82753	34.52
0.84420	34.52
0.86087	34.51
0.87753	34.52
0.89420	34.52
0.91087	34.51
0.92753	34.52
0.94420	34.51
0.96087	34.52
0.97753	34.53
0.99420	34.52
1.01087	34.51
1.02753	34.53
1.04420	34.52
1.06087	34.51
1.07753	34.52
1.09420	34.52
1.11087	34.52
1.12753	34.52
1.14420	34.52
1.16087	34.52
1.17753	34.52
1.19420	34.51
1.21087	34.52
1.22753	34.52
1.24420	34.52
1.26087	34.51
1.27753	34.52
1.29420	34.52
1.31087	34.52
1.32753	34.52
1.34420	34.52
1.36087	34.52
1.37753	34.52
1.39420	34.51
1.41087	34.52
1.42753	34.53
1.44420	34.51
1.46087	34.52
1.47753	34.52
1.49420	34.52
1.51087	34.52
1.52753	34.52
1.54420	34.52
1.56087	34.52
1.57753	34.52
1.59420	34.52
1.61087	34.52
1.62753	34.52
1.64420	34.52
1.66087	34.52
1.67753	34.52
1.69420	34.52
1.71087	34.52
1.72753	34.52
1.74420	34.52
1.76087	34.52
1.77753	34.52
1.79420	34.52
1.81087	34.52
1.82753	34.51
1.84420	34.51
1.86087	34.51
1.87753	34.52
1.89420	34.52
1.91087	34.52
1.92753	34.51
1.94420	34.52
1.96087	34.52
1.97753	34.52
1.99420	34.52
2.01087	34.52
2.02753	34.52
2.04420	34.52
2.06087	34.52
2.07753	34.52
2.09420	34.52
2.11087	34.52
2.12753	34.52
2.14420	34.52
2.16087	34.52
2.17753	34.53
2.19420	34.52
2.21087	34.52
2.22753	34.52
2.24420	34.52
2.26087	34.52
2.27753	34.52
2.29420	34.52
2.31087	34.53
2.32753	34.52
2.34420	34.51
2.36087	34.52
2.37753	34.53
2.39420	34.52
2.41087	34.52
2.42753	34.52
2.44420	34.52
2.46087	34.52
2.47753	34.53
2.49420	34.52
2.51087	34.52
2.52753	34.51
2.54420	34.52
2.56087	34.52
2.57753	34.52
2.59420	34.52
2.61087	34.52
2.62753	34.52
2.64420	34.52
2.66087	34.52
2.67753	34.52
2.69420	34.52
2.71087	34.52
2.72753	34.52
2.74420	34.52
2.76087	34.52
2.77753	34.52
2.79420	34.52
2.81087	34.52
2.82753	34.52
2.84420	34.52
2.86087	34.52
2.87753	34.52
2.89420	34.52
2.91087	34.52
2.92753	34.52
2.94420	34.52
2.96087	34.52
2.97753	34.52
2.99420	34.52
3.01087	34.52
3.02753	34.52
3.04420	34.52
3.06087	34.51
3.07753	34.52
3.09420	34.52
3.11087	34.52
3.12753	34.52
3.14420	34.52
3.16087	34.52
3.17753	34.52
3.19420	34.52
3.21087	34.52
3.22753	34.52
3.24420	34.52
3.26087	34.52
3.27753	34.52
3.29420	34.52
3.31087	34.52
3.32753	34.52
3.34420	34.52
3.36087	34.52
3.37753	34.51
3.39420	34.52
3.41087	34.52
3.42753	34.52
3.44420	34.52
3.46087	34.51
3.47753	34.52
3.49420	34.52
3.51087	34.52
3.52753	34.52
3.54420	34.52
3.56087	34.52
3.57753	34.52
3.59420	34.52
3.61087	34.52
3.62753	34.52
3.64420	34.52
3.66087	34.52
3.67753	34.52
3.69420	34.51
3.71087	34.52
3.72753	34.52
3.74420	34.52
3.76087	34.52
3.77753	34.52
3.79420	34.52
3.81087	34.52
3.82753	34.52
3.84420	34.52
3.86087	34.52
3.87753	34.52
3.89420	34.51
3.91087	34.51
3.92753	34.52
3.94420	34.53
3.96087	34.52
3.97753	34.51
3.99420	34.52

[Status Trace (Column Flow)]
Interval(msec)	1000
# of Points	240
Start Time(min)	0.011
End Time(min)	3.994
Intensity Units	
Intensity Multiplier	1
R.Time (min)	Intensity
0.01087	5.53
0.02753	5.19
0.04420	5.48
0.06087	5.72
0.07753	5.66
0.09420	5.53
0.11087	5.53
0.12753	5.53
0.14420	5.53
0.16087	5.53
0.17753	5.53
0.19420	5.53
0.21087	5.53
0.22753	5.53
0.24420	5.53
0.26087	5.53
0.27753	5.53
0.29420	5.53
0.31087	5.53
0.32753	5.53
0.34420	5.53
0.36087	5.53
0.37753	5.53
0.39420	5.53
0.41087	5.53
0.42753	5.53
0.44420	5.53
0.46087	5.53
0.47753	5.53
0.49420	5.53
0.51087	5.53
0.52753	5.53
0.54420	5.53
0.56087	5.53
0.57753	5.53
0.59420	5.53
0.61087	5.53
0.62753	5.53
0.64420	5.53
0.66087	5.53
0.67753	5.53
0.69420	5.53
0.71087	5.53
0.72753	5.53
0.74420	5.53
0.76087	5.53
0.77753	5.53
0.79420	5.53
0.81087	5.53
0.82753	5.53
0.84420	5.53
0.86087	5.53
0.87753	5.53
0.89420	5.53
0.91087	5.53
0.92753	5.53
0.94420	5.53
0.96087	5.53
0.97753	5.53
0.99420	5.53
1.01087	5.53
1.02753	5.53
1.04420	5.53
1.06087	5.53
1.07753	5.53
1.09420	5.53
1.11087	5.53
1.12753	5.53
1.14420	5.53
1.16087	5.53
1.17753	5.53
1.19420	5.53
1.21087	5.53
1.22753	5.53
1.24420	5.53
1.26087	5.53
1.27753	5.53
1.29420	5.53
1.31087	5.53
1.32753	5.53
1.34420	5.53
1.36087	5.53
1.37753	5.53
1.39420	5.53
1.41087	5.53
1.42753	5.53
1.44420	5.53
1.46087	5.53
1.47753	5.53
1.49420	5.53
1.51087	5.53
1.52753	5.53
1.54420	5.53
1.56087	5.53
1.57753	5.53
1.59420	5.53
1.61087	5.53
1.62753	5.53
1.64420	5.52
1.66087	5.51
1.67753	5.50
1.69420	5.49
1.71087	5.48
1.72753	5.47
1.74420	5.46
1.76087	5.45
1.77753	5.44
1.79420	5.43
1.81087	5.42
1.82753	5.41
1.84420	5.40
1.86087	5.39
1.87753	5.38
1.89420	5.37
1.91087	5.36
1.92753	5.35
1.94420	5.34
1.96087	5.33
1.97753	5.32
1.99420	5.31
2.01087	5.30
2.02753	5.29
2.04420	5.28
2.06087	5.27
2.07753	5.26
2.09420	5.25
2.11087	5.24
2.12753	5.23
2.14420	5.22
2.16087	5.21
2.17753	5.20
2.19420	5.19
2.21087	5.18
2.22753	5.18
2.24420	5.17
2.26087	5.16
2.27753	5.15
2.29420	5.14
2.31087	5.13
2.32753	5.12
2.34420	5.11
2.36087	5.10
2.37753	5.10
2.39420	5.10
2.41087	5.10
2.42753	5.10
2.44420	5.10
2.46087	5.10
2.47753	5.10
2.49420	5.10
2.51087	5.09
2.52753	5.09
2.54420	5.09
2.56087	5.09
2.57753	5.09
2.59420	5.09
2.61087	5.09
2.62753	5.09
2.64420	5.09
2.66087	5.09
2.67753	5.09
2.69420	5.09
2.71087	5.09
2.72753	5.09
2.74420	5.09
2.76087	5.09
2.77753	5.09
2.79420	5.09
2.81087	5.09
2.82753	5.09
2.84420	5.09
2.86087	5.09
2.87753	5.09
2.89420	5.09
2.91087	5.09
2.92753	5.09
2.94420	5.09
2.96087	5.09
2.97753	5.09
2.99420	5.09
3.01087	5.09
3.02753	5.09
3.04420	5.09
3.06087	5.09
3.07753	5.09
3.09420	5.09
3.11087	5.09
3.12753	5.09
3.14420	5.09
3.16087	5.09
3.17753	5.09
3.19420	5.09
3.21087	5.09
3.22753	5.09
3.24420	5.09
3.26087	5.09
3.27753	5.09
3.29420	5.09
3.31087	5.09
3.32753	5.09
3.34420	5.09
3.36087	5.09
3.37753	5.09
3.39420	5.09
3.41087	5.09
3.42753	5.09
3.44420	5.09
3.46087	5.09
3.47753	5.09
3.49420	5.09
3.51087	5.09
3.52753	5.09
3.54420	5.09
3.56087	5.09
3.57753	5.09
3.59420	5.09
3.61087	5.09
3.62753	5.09
3.64420	5.09
3.66087	5.09
3.67753	5.09
3.69420	5.09
3.71087	5.09
3.72753	5.09
3.74420	5.09
3.76087	5.09
3.77753	5.09
3.79420	5.09
3.81087	5.09
3.82753	5.09
3.84420	5.09
3.86087	5.09
3.87753	5.09
3.89420	5.09
3.91087	5.09
3.92753	5.09
3.94420	5.09
3.96087	5.09
3.97753	5.09
3.99420	5.09

[Status Trace (Linear Velocity)]
Interval(msec)	1000
# of Points	240
Start Time(min)	0.011
End Time(min)	3.994
Intensity Units	
Intensity Multiplier	1
R.Time (min)	Intensity
0.01087	39.02
0.02753	37.10
0.04420	38.71
0.06087	40.09
0.07753	39.73
0.09420	39.02
0.11087	39.01
0.12753	39.03
0.14420	39.02
0.16087	39.02
0.17753	39.02
0.19420	39.02
0.21087	39.02
0.22753	39.02
0.24420	39.01
0.26087	39.02
0.27753	39.02
0.29420	39.02
0.31087	39.02
0.32753	39.02
0.34420	39.02
0.36087	39.02
0.37753	39.02
0.39420	39.02
0.41087	39.02
0.42753	39.02
0.44420	39.02
0.46087	39.02
0.47753	39.02
0.49420	39.02
0.51087	39.02
0.52753	39.02
0.54420	39.02
0.56087	39.02
0.57753	39.02
0.59420	39.02
0.61087	39.02
0.62753	39.02
0.64420	39.02
0.66087	39.02
0.67753	39.02
0.69420	39.02
0.71087	39.02
0.72753	39.02
0.74420	39.02
0.76087	39.02
0.77753	39.02
0.79420	39.02
0.81087	39.02
0.82753	39.02
0.84420	39.02
0.86087	39.02
0.87753	39.02
0.89420	39.02
0.91087	39.02
0.92753	39.02
0.94420	39.02
0.96087	39.02
0.97753	39.02
0.99420	39.02
1.01087	39.02
1.02753	39.02
1.04420	39.02
1.06087	39.02
1.07753	39.02
1.09420	39.02
1.11087	39.02
1.12753	39.02
1.14420	39.02
1.16087	39.02
1.17753	39.02
1.19420	39.02
1.21087	39.02
1.22753	39.02
1.24420	39.02
1.26087	39.02
1.27753	39.02
1.29420	39.02
1.31087	39.02
1.32753	39.02
1.34420	39.02
1.36087	39.02
1.37753	39.02
1.39420	39.02
1.41087	39.02
1.42753	39.02
1.44420	39.02
1.46087	39.02
1.47753	39.02
1.49420	39.02
1.51087	39.02
1.52753	39.02
1.54420	39.02
1.56087	39.02
1.57753	39.02
1.59420	39.02
1.61087	39.02
1.62753	39.00
1.64420	38.99
1.66087	38.96
1.67753	38.92
1.69420	38.89
1.71087	38.85
1.72753	38.82
1.74420	38.79
1.76087	38.76
1.77753	38.73
1.79420	38.69
1.81087	38.66
1.82753	38.63
1.84420	38.60
1.86087	38.57
1.87753	38.54
1.89420	38.51
1.91087	38.48
1.92753	38.45
1.94420	38.42
1.96087	38.39
1.97753	38.36
1.99420	38.33
2.01087	38.30
2.02753	38.27
2.04420	38.24
2.06087	38.21
2.07753	38.18
2.09420	38.15
2.11087	38.12
2.12753	38.09
2.14420	38.06
2.16087	38.03
2.17753	38.00
2.19420	37.97
2.21087	37.94
2.22753	37.91
2.24420	37.88
2.26087	37.85
2.27753	37.82
2.29420	37.79
2.31087	37.76
2.32753	37.73
2.34420	37.70
2.36087	37.68
2.37753	37.67
2.39420	37.66
2.41087	37.67
2.42753	37.67
2.44420	37.67
2.46087	37.66
2.47753	37.66
2.49420	37.66
2.51087	37.65
2.52753	37.65
2.54420	37.66
2.56087	37.65
2.57753	37.65
2.59420	37.65
2.61087	37.65
2.62753	37.65
2.64420	37.65
2.66087	37.65
2.67753	37.65
2.69420	37.65
2.71087	37.65
2.72753	37.65
2.74420	37.65
2.76087	37.65
2.77753	37.64
2.79420	37.65
2.81087	37.65
2.82753	37.65
2.84420	37.65
2.86087	37.65
2.87753	37.65
2.89420	37.65
2.91087	37.64
2.92753	37.64
2.94420	37.64
2.96087	37.64
2.97753	37.64
2.99420	37.64
3.01087	37.64
3.02753	37.64
3.04420	37.63
3.06087	37.63
3.07753	37.63
3.09420	37.63
3.11087	37.63
3.12753	37.63
3.14420	37.63
3.16087	37.63
3.17753	37.63
3.19420	37.63
3.21087	37.63
3.22753	37.63
3.24420	37.63
3.26087	37.63
3.27753	37.63
3.29420	37.63
3.31087	37.63
3.32753	37.63
3.34420	37.63
3.36087	37.63
3.37753	37.63
3.39420	37.63
3.41087	37.63
3.42753	37.63
3.44420	37.63
3.46087	37.63
3.47753	37.63
3.49420	37.63
3.51087	37.63
3.52753	37.63
3.54420	37.63
3.56087	37.63
3.57753	37.63
3.59420	37.63
3.61087	37.63
3.62753	37.63
3.64420	37.63
3.66087	37.63
3.67753	37.63
3.69420	37.63
3.71087	37.63
3.72753	37.63
3.74420	37.63
3.76087	37.63
3.77753	37.63
3.79420	37.63
3.81087	37.63
3.82753	37.63
3.84420	37.63
3.86087	37.63
3.87753	37.63
3.89420	37.63
3.91087	37.63
3.92753	37.63
3.94420	37.63
3.96087	37.63
3.97753	37.63
3.99420	37.63

