[Header]
Application Name	LabSolutions
Version	5.110
Data File Name	C:\Users\User\Desktop\GC Analyses\Jack\Nachusa Grasslands Sampling\T3 Timepoint July 12th\T3_07122022_049.gcd
Output Date	3/14/2023
Output Time	3:43:33 PM

[File Information]
Type	Data File
Generated	3/13/2023 7:55:16 PM
Generated by	System Administrator
Modified	3/13/2023 8:02:04 PM
Modified by	System Administrator

[Sample Information]
Operator Name	System Administrator
Acquired	3/13/2023 7:58:03 PM
Sample Type	0:Unknown
Level	0
Sample Name	049
Sample ID	049
ISTD Amount1	1
ISTD Amount2	1
ISTD Amount3	1
ISTD Amount4	1
ISTD Amount5	1
ISTD Amount6	1
ISTD Amount7	1
ISTD Amount8	1
ISTD Amount9	1
ISTD Amount10	1
ISTD Amount11	1
ISTD Amount12	1
ISTD Amount13	1
ISTD Amount14	1
ISTD Amount15	1
ISTD Amount16	1
ISTD Amount17	1
ISTD Amount18	1
ISTD Amount19	1
ISTD Amount20	1
ISTD Amount21	1
ISTD Amount22	1
ISTD Amount23	1
ISTD Amount24	1
ISTD Amount25	1
ISTD Amount26	1
ISTD Amount27	1
ISTD Amount28	1
ISTD Amount29	1
ISTD Amount30	1
ISTD Amount31	1
ISTD Amount32	1
Sample Amount	1
Dilution Factor	1
Vial#	48
Injection Volume	1
Injection Count	1
Bar Code	

[Original Files]
Data File	C:\Users\User\Desktop\GC Analyses\Jack\Nachusa Grasslands Sampling\T3 Timepoint July 12th\T3_07122022_049.gcd
Method File	C:\LabSolutions\Data\GHG_4min_2022\ghg3_togas_w_acet_4 min_new_int.gcm
Batch File	C:\LabSolutions\Data\AutoSamplerTesting\T3_07122022.gcb
Report Format File	c:\LabSolutions\System\DEFAULT.lsr

[File Description]


[Configuration]
Instrument Name	C0B7VH3-Instrument1
Instrument #	1
Line #	1
# of Detectors	3
Detector ID	DET#1	DET#2	DET#3
Detector Name	FID	PTCD	ECD
# of Channels	1	1	1

[Peak Table(Ch1)]
# of Peaks	3
Peak#	R.Time	I.Time	F.Time	Area	Height	A/H	Conc.	Mark	ID#	Name	k'	Plate #	Plate Ht.	Tailing	Resolution	Sep.Factor	Area Ratio	Height Ratio	Conc. %	Norm Conc.
1	1.476	1.402	1.534	24421	11948	2.044	172.410	   	1	CO	0.000	9577	15.663	1.238	0.000	0.000	0	0	15.396	15.396
2	1.571	1.538	1.637	4351	2207	1.972	84.136	   	2	CH4	0.065	11793	12.720	1.200	1.613	0.000	0	0	7.513	7.513
3	1.996	1.949	2.374	3439705	1655711	2.077	863.273	   	3	CO2	0.353	17431	8.606	1.331	7.188	5.462	0	0	77.090	77.090

[Peak Table(Ch2)]
# of Peaks	0

[Peak Table(Ch3)]
# of Peaks	4
Peak#	R.Time	I.Time	F.Time	Area	Height	A/H	Conc.	Mark	ID#	Name	k'	Plate #	Plate Ht.	Tailing	Resolution	Sep.Factor	Area Ratio	Height Ratio	Conc. %	Norm Conc.
1	2.462	2.334	2.510	1925	608	3.164	0.000	   			0.000	10160	14.763	0.000	0.000	0.000	0	0	0.000	0.000
2	2.532	2.510	2.678	1499	342	4.379	0.000	 V 			0.028	5181	28.950	0.000	0.584	0.000	0	0	0.000	0.000
3	2.880	2.807	3.041	17438	4645	3.754	0.445	   	1	N2O	0.170	13364	11.224	1.519	2.899	6.000	0	0	100.000	100.000
4	3.302	3.115	3.995	18985	629	30.181	0.000	   	2	SF6	0.341	231	649.249	2.304	0.871	2.009	0	0	0.000	0.000

[Compound Results(Ch1)]
# of IDs	6
ID#	Name	R.Time	Area	Height	Conc.	Curve	3rd	2nd	1st	Constant	Area Ratio	Height Ratio	Conc. %	Norm Conc.
1	CO	1.476	24421	11948	172.410	Linear	0.000000e+00	0.000000e+00	1.416423e+002	0.000000e+00	0	0	15.396	15.396
2	CH4	1.571	4351	2207	84.136	Linear	0.000000e+00	0.000000e+00	5.171738e+001	0.000000e+00	0	0	7.513	7.513
3	CO2	1.996	3439705	1655711	863.273	Linear	0.000000e+00	0.000000e+00	3.984494e+003	0.000000e+00	0	0	77.090	77.090
4	Ethylene	0.000	0	0	0.000	Linear	0.000000e+00	0.000000e+00	0.000000e+00	0.000000e+00	0	0	0.000	0.000
5	Acetylene	0.000	0	0	0.000	Linear	0.000000e+00	0.000000e+00	0.000000e+00	0.000000e+00	0	0	0.000	0.000
6	Ethane	0.000	0	0	0.000	Linear	0.000000e+00	0.000000e+00	0.000000e+00	0.000000e+00	0	0	0.000	0.000

[Compound Results(Ch2)]
# of IDs	5
ID#	Name	R.Time	Area	Height	Conc.	Curve	3rd	2nd	1st	Constant	Area Ratio	Height Ratio	Conc. %	Norm Conc.
1	Hydrogen	0.000	0	0	0.000	Linear	0.000000e+00	0.000000e+00	0.000000e+00	0.000000e+00	0	0	0.000	0.000
2	Oxygen	0.000	0	0	0.000	Linear	0.000000e+00	0.000000e+00	0.000000e+00	0.000000e+00	0	0	0.000	0.000
3	Nitrogen	0.000	0	0	0.000	Linear	0.000000e+00	0.000000e+00	0.000000e+00	0.000000e+00	0	0	0.000	0.000
4	Methane	0.000	0	0	0.000	Linear	0.000000e+00	0.000000e+00	0.000000e+00	0.000000e+00	0	0	0.000	0.000
5	Carbon Monoxide	0.000	0	0	0.000	Linear	0.000000e+00	0.000000e+00	0.000000e+00	0.000000e+00	0	0	0.000	0.000

[Compound Results(Ch3)]
# of IDs	2
ID#	Name	R.Time	Area	Height	Conc.	Curve	3rd	2nd	1st	Constant	Area Ratio	Height Ratio	Conc. %	Norm Conc.
1	N2O	2.880	17438	4645	0.445	Linear	0.000000e+00	0.000000e+00	3.915173e+004	0.000000e+00	0	0	100.000	100.000
2	SF6	3.302	18985	629	0.000	Linear	0.000000e+00	0.000000e+00	0.000000e+00	0.000000e+00	0	0	0.000	0.000

[Group Results(Ch1)]
# of Groups	0

[Group Results(Ch2)]
# of Groups	0

[Group Results(Ch3)]
# of Groups	0

[Chromatogram (Ch1)]
Interval(msec)	220
# of Points	1091
Start Time(min)	0.002
End Time(min)	3.998
R.Time (min)	Intensity
0.00167	-11
0.00533	-15
0.00900	-21
0.01267	-23
0.01633	-24
0.02000	-26
0.02367	-30
0.02733	-36
0.03100	-41
0.03467	-41
0.03833	-35
0.04200	-26
0.04567	-16
0.04933	-8
0.05300	-5
0.05667	-7
0.06033	-7
0.06400	-3
0.06767	9
0.07133	21
0.07500	27
0.07867	31
0.08233	36
0.08600	37
0.08967	36
0.09333	35
0.09700	32
0.10067	29
0.10433	29
0.10800	36
0.11167	41
0.11533	41
0.11900	42
0.12267	45
0.12633	51
0.13000	56
0.13367	59
0.13733	59
0.14100	62
0.14467	66
0.14833	76
0.15200	87
0.15567	93
0.15933	96
0.16300	94
0.16667	88
0.17033	79
0.17400	74
0.17767	76
0.18133	81
0.18500	82
0.18867	79
0.19233	75
0.19600	69
0.19967	61
0.20333	52
0.20700	47
0.21067	46
0.21433	49
0.21800	52
0.22167	54
0.22533	55
0.22900	56
0.23267	57
0.23633	58
0.24000	59
0.24367	56
0.24733	53
0.25100	54
0.25467	57
0.25833	64
0.26200	71
0.26567	67
0.26933	53
0.27300	36
0.27667	20
0.28033	10
0.28400	9
0.28767	8
0.29133	8
0.29500	5
0.29867	0
0.30233	-4
0.30600	-4
0.30967	-2
0.31333	-3
0.31700	-4
0.32067	-5
0.32433	-3
0.32800	-0
0.33167	1
0.33533	2
0.33900	2
0.34267	-1
0.34633	-5
0.35000	-8
0.35367	-5
0.35733	-3
0.36100	-5
0.36467	-6
0.36833	-6
0.37200	-3
0.37567	-1
0.37933	-1
0.38300	5
0.38667	6
0.39033	3
0.39400	0
0.39767	1
0.40133	4
0.40500	7
0.40867	12
0.41233	13
0.41600	10
0.41967	7
0.42333	2
0.42700	-3
0.43067	-6
0.43433	-5
0.43800	-3
0.44167	-1
0.44533	3
0.44900	3
0.45267	-1
0.45633	-1
0.46000	-0
0.46367	2
0.46733	2
0.47100	-3
0.47467	-11
0.47833	-18
0.48200	-23
0.48567	-30
0.48933	-36
0.49300	-36
0.49667	-29
0.50033	-19
0.50400	-12
0.50767	-7
0.51133	-3
0.51500	1
0.51867	5
0.52233	7
0.52600	6
0.52967	3
0.53333	-2
0.53700	-4
0.54067	-5
0.54433	-7
0.54800	-9
0.55167	-12
0.55533	-14
0.55900	-14
0.56267	-16
0.56633	-21
0.57000	-28
0.57367	-32
0.57733	-35
0.58100	-32
0.58467	-25
0.58833	-20
0.59200	-17
0.59567	-16
0.59933	-19
0.60300	-19
0.60667	-18
0.61033	-18
0.61400	-17
0.61767	-18
0.62133	-18
0.62500	-21
0.62867	-27
0.63233	-30
0.63600	-30
0.63967	-30
0.64333	-27
0.64700	-23
0.65067	-24
0.65433	-23
0.65800	-18
0.66167	-13
0.66533	-10
0.66900	-5
0.67267	-1
0.67633	-3
0.68000	-7
0.68367	-10
0.68733	-14
0.69100	-17
0.69467	-20
0.69833	-18
0.70200	-14
0.70567	-11
0.70933	-4
0.71300	6
0.71667	12
0.72033	9
0.72400	-3
0.72767	-16
0.73133	-28
0.73500	-37
0.73867	-37
0.74233	-29
0.74600	-19
0.74967	-10
0.75333	-8
0.75700	-13
0.76067	-17
0.76433	-20
0.76800	-21
0.77167	-23
0.77533	-29
0.77900	-34
0.78267	-37
0.78633	-42
0.79000	-43
0.79367	-38
0.79733	-35
0.80100	-37
0.80467	-38
0.80833	-38
0.81200	-37
0.81567	-33
0.81933	-27
0.82300	-17
0.82667	-5
0.83033	6
0.83400	6
0.83767	-5
0.84133	-20
0.84500	-36
0.84867	-53
0.85233	-68
0.85600	-76
0.85967	-75
0.86333	-72
0.86700	-67
0.87067	-58
0.87433	-51
0.87800	-48
0.88167	-45
0.88533	-38
0.88900	-27
0.89267	-16
0.89633	-3
0.90000	3
0.90367	-2
0.90733	-17
0.91100	-29
0.91467	-38
0.91833	-44
0.92200	-53
0.92567	-67
0.92933	-74
0.93300	-75
0.93667	-73
0.94033	-65
0.94400	-51
0.94767	-43
0.95133	-40
0.95500	-39
0.95867	-40
0.96233	-40
0.96600	-40
0.96967	-39
0.97333	-38
0.97700	-37
0.98067	-35
0.98433	-33
0.98800	-36
0.99167	-42
0.99533	-46
0.99900	-47
1.00267	-51
1.00633	-54
1.01000	-57
1.01367	-56
1.01733	-51
1.02100	-47
1.02467	-47
1.02833	-46
1.03200	-46
1.03567	-42
1.03933	-38
1.04300	-37
1.04667	-38
1.05033	-39
1.05400	-41
1.05767	-43
1.06133	-41
1.06500	-34
1.06867	-29
1.07233	-27
1.07600	-27
1.07967	-29
1.08333	-37
1.08700	-48
1.09067	-54
1.09433	-56
1.09800	-55
1.10167	-50
1.10533	-46
1.10900	-46
1.11267	-44
1.11633	-37
1.12000	-25
1.12367	-12
1.12733	-5
1.13100	-7
1.13467	-15
1.13833	-28
1.14200	-46
1.14567	-62
1.14933	-75
1.15300	-89
1.15667	-95
1.16033	-92
1.16400	-83
1.16767	-74
1.17133	-66
1.17500	-58
1.17867	-54
1.18233	-56
1.18600	-59
1.18967	-59
1.19333	-55
1.19700	-53
1.20067	-55
1.20433	-54
1.20800	-50
1.21167	-47
1.21533	-46
1.21900	-47
1.22267	-50
1.22633	-55
1.23000	-57
1.23367	-56
1.23733	-56
1.24100	-55
1.24467	-54
1.24833	-53
1.25200	-51
1.25567	-48
1.25933	-48
1.26300	-52
1.26667	-58
1.27033	-63
1.27400	-66
1.27767	-70
1.28133	-72
1.28500	-70
1.28867	-63
1.29233	-59
1.29600	-61
1.29967	-65
1.30333	-65
1.30700	-63
1.31067	-56
1.31433	-44
1.31800	-30
1.32167	-19
1.32533	-15
1.32900	-17
1.33267	-25
1.33633	-37
1.34000	-47
1.34367	-62
1.34733	-81
1.35100	-100
1.35467	-113
1.35833	-116
1.36200	-109
1.36567	-97
1.36933	-88
1.37300	-89
1.37667	-93
1.38033	-97
1.38400	-103
1.38767	-104
1.39133	-96
1.39500	-88
1.39867	-83
1.40233	-85
1.40600	-85
1.40967	-81
1.41333	-76
1.41700	-70
1.42067	-66
1.42433	-64
1.42800	-60
1.43167	-53
1.43533	-43
1.43900	-31
1.44267	-1
1.44633	138
1.45000	576
1.45367	1602
1.45733	3402
1.46100	5696
1.46467	7961
1.46833	9830
1.47200	11140
1.47567	11788
1.47933	11662
1.48300	10727
1.48667	9155
1.49033	7280
1.49400	5438
1.49767	3854
1.50133	2616
1.50500	1702
1.50867	1056
1.51233	610
1.51600	309
1.51967	107
1.52333	-30
1.52700	-125
1.53067	-186
1.53433	-220
1.53800	-230
1.54167	-194
1.54533	-52
1.54900	242
1.55267	654
1.55633	1097
1.56000	1491
1.56367	1793
1.56733	1971
1.57100	1996
1.57467	1850
1.57833	1565
1.58200	1208
1.58567	857
1.58933	560
1.59300	330
1.59667	164
1.60033	55
1.60400	-15
1.60767	-62
1.61133	-97
1.61500	-120
1.61867	-134
1.62233	-139
1.62600	-144
1.62967	-153
1.63333	-163
1.63700	-172
1.64067	-174
1.64433	-173
1.64800	-174
1.65167	-175
1.65533	-181
1.65900	-184
1.66267	-182
1.66633	-176
1.67000	-167
1.67367	-161
1.67733	-157
1.68100	-151
1.68467	-149
1.68833	-150
1.69200	-153
1.69567	-153
1.69933	-151
1.70300	-154
1.70667	-161
1.71033	-163
1.71400	-160
1.71767	-155
1.72133	-153
1.72500	-151
1.72867	-150
1.73233	-152
1.73600	-153
1.73967	-153
1.74333	-153
1.74700	-150
1.75067	-143
1.75433	-133
1.75800	-123
1.76167	-121
1.76533	-124
1.76900	-129
1.77267	-133
1.77633	-136
1.78000	-137
1.78367	-140
1.78733	-143
1.79100	-141
1.79467	-139
1.79833	-136
1.80200	-133
1.80567	-128
1.80933	-118
1.81300	-111
1.81667	-109
1.82033	-114
1.82400	-119
1.82767	-121
1.83133	-119
1.83500	-117
1.83867	-117
1.84233	-120
1.84600	-120
1.84967	-120
1.85333	-121
1.85700	-118
1.86067	-110
1.86433	-104
1.86800	-102
1.87167	-102
1.87533	-102
1.87900	-108
1.88267	-119
1.88633	-127
1.89000	-133
1.89367	-139
1.89733	-148
1.90100	-154
1.90467	-158
1.90833	-157
1.91200	-150
1.91567	-139
1.91933	-128
1.92300	-116
1.92667	-109
1.93033	-109
1.93400	-111
1.93767	-112
1.94133	-114
1.94500	-117
1.94867	-114
1.95233	-91
1.95600	60
1.95967	1012
1.96333	5891
1.96700	24854
1.97067	81074
1.97433	208409
1.97800	429182
1.98167	728216
1.98533	1053972
1.98900	1345753
1.99267	1555527
1.99633	1655639
2.00000	1638302
2.00367	1514771
2.00733	1313503
2.01100	1073315
2.01467	832295
2.01833	617942
2.02200	443670
2.02567	311144
2.02933	215135
2.03300	147887
2.03667	101828
2.04033	70696
2.04400	49782
2.04767	35742
2.05133	26264
2.05500	19799
2.05867	15325
2.06233	12169
2.06600	9894
2.06967	8219
2.07333	6957
2.07700	5986
2.08067	5225
2.08433	4613
2.08800	4116
2.09167	3702
2.09533	3351
2.09900	3050
2.10267	2788
2.10633	2563
2.11000	2368
2.11367	2200
2.11733	2052
2.12100	1923
2.12467	1811
2.12833	1714
2.13200	1626
2.13567	1545
2.13933	1467
2.14300	1393
2.14667	1325
2.15033	1264
2.15400	1206
2.15767	1153
2.16133	1105
2.16500	1058
2.16867	1013
2.17233	974
2.17600	942
2.17967	918
2.18333	893
2.18700	865
2.19067	835
2.19433	804
2.19800	773
2.20167	744
2.20533	720
2.20900	700
2.21267	680
2.21633	666
2.22000	656
2.22367	640
2.22733	618
2.23100	594
2.23467	574
2.23833	554
2.24200	534
2.24567	517
2.24933	506
2.25300	499
2.25667	495
2.26033	483
2.26400	462
2.26767	445
2.27133	436
2.27500	430
2.27867	428
2.28233	425
2.28600	421
2.28967	413
2.29333	400
2.29700	389
2.30067	380
2.30433	370
2.30800	355
2.31167	340
2.31533	332
2.31900	336
2.32267	343
2.32633	342
2.33000	332
2.33367	320
2.33733	309
2.34100	303
2.34467	300
2.34833	300
2.35200	300
2.35567	301
2.35933	302
2.36300	296
2.36667	286
2.37033	274
2.37400	264
2.37767	259
2.38133	259
2.38500	261
2.38867	262
2.39233	267
2.39600	273
2.39967	277
2.40333	280
2.40700	282
2.41067	281
2.41433	277
2.41800	272
2.42167	270
2.42533	275
2.42900	282
2.43267	282
2.43633	278
2.44000	276
2.44367	272
2.44733	267
2.45100	262
2.45467	260
2.45833	261
2.46200	262
2.46567	260
2.46933	253
2.47300	248
2.47667	250
2.48033	256
2.48400	259
2.48767	261
2.49133	260
2.49500	255
2.49867	247
2.50233	238
2.50600	233
2.50967	238
2.51333	247
2.51700	257
2.52067	262
2.52433	266
2.52800	271
2.53167	269
2.53533	263
2.53900	255
2.54267	244
2.54633	236
2.55000	231
2.55367	229
2.55733	227
2.56100	227
2.56467	230
2.56833	234
2.57200	238
2.57567	237
2.57933	232
2.58300	227
2.58667	221
2.59033	216
2.59400	217
2.59767	223
2.60133	230
2.60500	237
2.60867	241
2.61233	238
2.61600	234
2.61967	231
2.62333	235
2.62700	245
2.63067	254
2.63433	257
2.63800	251
2.64167	238
2.64533	222
2.64900	208
2.65267	199
2.65633	196
2.66000	195
2.66367	197
2.66733	206
2.67100	220
2.67467	231
2.67833	236
2.68200	233
2.68567	225
2.68933	213
2.69300	202
2.69667	193
2.70033	185
2.70400	183
2.70767	187
2.71133	194
2.71500	200
2.71867	209
2.72233	220
2.72600	225
2.72967	226
2.73333	225
2.73700	226
2.74067	233
2.74433	240
2.74800	241
2.75167	236
2.75533	231
2.75900	230
2.76267	231
2.76633	230
2.77000	228
2.77367	229
2.77733	229
2.78100	227
2.78467	220
2.78833	219
2.79200	223
2.79567	224
2.79933	227
2.80300	231
2.80667	237
2.81033	243
2.81400	246
2.81767	248
2.82133	251
2.82500	253
2.82867	251
2.83233	246
2.83600	239
2.83967	234
2.84333	232
2.84700	229
2.85067	223
2.85433	220
2.85800	219
2.86167	220
2.86533	220
2.86900	217
2.87267	216
2.87633	215
2.88000	212
2.88367	215
2.88733	222
2.89100	230
2.89467	236
2.89833	243
2.90200	247
2.90567	245
2.90933	243
2.91300	242
2.91667	243
2.92033	246
2.92400	246
2.92767	243
2.93133	239
2.93500	238
2.93867	240
2.94233	240
2.94600	237
2.94967	234
2.95333	234
2.95700	237
2.96067	235
2.96433	232
2.96800	230
2.97167	230
2.97533	231
2.97900	235
2.98267	239
2.98633	240
2.99000	241
2.99367	240
2.99733	233
3.00100	227
3.00467	231
3.00833	242
3.01200	246
3.01567	245
3.01933	245
3.02300	241
3.02667	236
3.03033	241
3.03400	244
3.03767	240
3.04133	237
3.04500	232
3.04867	229
3.05233	232
3.05600	235
3.05967	235
3.06333	231
3.06700	227
3.07067	226
3.07433	232
3.07800	243
3.08167	253
3.08533	257
3.08900	258
3.09267	252
3.09633	239
3.10000	226
3.10367	217
3.10733	214
3.11100	208
3.11467	200
3.11833	193
3.12200	193
3.12567	197
3.12933	204
3.13300	213
3.13667	221
3.14033	230
3.14400	237
3.14767	236
3.15133	227
3.15500	216
3.15867	205
3.16233	199
3.16600	197
3.16967	200
3.17333	206
3.17700	214
3.18067	220
3.18433	222
3.18800	222
3.19167	219
3.19533	217
3.19900	219
3.20267	224
3.20633	227
3.21000	222
3.21367	215
3.21733	212
3.22100	208
3.22467	202
3.22833	197
3.23200	198
3.23567	203
3.23933	209
3.24300	216
3.24667	218
3.25033	216
3.25400	214
3.25767	210
3.26133	206
3.26500	206
3.26867	204
3.27233	201
3.27600	202
3.27967	207
3.28333	204
3.28700	197
3.29067	193
3.29433	192
3.29800	198
3.30167	202
3.30533	203
3.30900	204
3.31267	206
3.31633	207
3.32000	208
3.32367	209
3.32733	208
3.33100	208
3.33467	208
3.33833	205
3.34200	205
3.34567	203
3.34933	194
3.35300	187
3.35667	185
3.36033	186
3.36400	191
3.36767	196
3.37133	199
3.37500	202
3.37867	200
3.38233	197
3.38600	192
3.38967	189
3.39333	188
3.39700	189
3.40067	191
3.40433	189
3.40800	182
3.41167	177
3.41533	180
3.41900	183
3.42267	184
3.42633	184
3.43000	187
3.43367	184
3.43733	178
3.44100	174
3.44467	173
3.44833	172
3.45200	173
3.45567	176
3.45933	180
3.46300	182
3.46667	183
3.47033	185
3.47400	187
3.47767	191
3.48133	194
3.48500	191
3.48867	186
3.49233	181
3.49600	179
3.49967	179
3.50333	180
3.50700	182
3.51067	186
3.51433	190
3.51800	195
3.52167	199
3.52533	199
3.52900	196
3.53267	192
3.53633	187
3.54000	181
3.54367	172
3.54733	169
3.55100	169
3.55467	169
3.55833	171
3.56200	173
3.56567	174
3.56933	173
3.57300	174
3.57667	171
3.58033	161
3.58400	148
3.58767	142
3.59133	142
3.59500	145
3.59867	149
3.60233	154
3.60600	166
3.60967	182
3.61333	197
3.61700	202
3.62067	193
3.62433	183
3.62800	170
3.63167	155
3.63533	142
3.63900	140
3.64267	145
3.64633	144
3.65000	143
3.65367	141
3.65733	135
3.66100	132
3.66467	136
3.66833	140
3.67200	145
3.67567	147
3.67933	144
3.68300	139
3.68667	133
3.69033	129
3.69400	132
3.69767	137
3.70133	139
3.70500	140
3.70867	145
3.71233	150
3.71600	153
3.71967	153
3.72333	146
3.72700	135
3.73067	127
3.73433	125
3.73800	127
3.74167	127
3.74533	129
3.74900	130
3.75267	127
3.75633	124
3.76000	124
3.76367	125
3.76733	123
3.77100	122
3.77467	122
3.77833	126
3.78200	133
3.78567	139
3.78933	140
3.79300	137
3.79667	129
3.80033	119
3.80400	115
3.80767	117
3.81133	122
3.81500	125
3.81867	130
3.82233	137
3.82600	141
3.82967	143
3.83333	140
3.83700	135
3.84067	128
3.84433	121
3.84800	117
3.85167	115
3.85533	116
3.85900	118
3.86267	118
3.86633	121
3.87000	124
3.87367	126
3.87733	129
3.88100	133
3.88467	135
3.88833	133
3.89200	130
3.89567	129
3.89933	127
3.90300	123
3.90667	122
3.91033	126
3.91400	128
3.91767	127
3.92133	128
3.92500	121
3.92867	111
3.93233	104
3.93600	102
3.93967	108
3.94333	114
3.94700	115
3.95067	113
3.95433	110
3.95800	104
3.96167	98
3.96533	94
3.96900	99
3.97267	109
3.97633	115
3.98000	115
3.98367	116
3.98733	118
3.99100	118
3.99467	117
3.99833	113

[Chromatogram (Ch2)]
Interval(msec)	220
# of Points	1091
Start Time(min)	0.002
End Time(min)	3.998
R.Time (min)	Intensity
0.00167	2
0.00533	3
0.00900	4
0.01267	4
0.01633	5
0.02000	5
0.02367	5
0.02733	6
0.03100	6
0.03467	6
0.03833	6
0.04200	5
0.04567	5
0.04933	5
0.05300	5
0.05667	5
0.06033	5
0.06400	5
0.06767	4
0.07133	4
0.07500	4
0.07867	4
0.08233	4
0.08600	4
0.08967	4
0.09333	3
0.09700	4
0.10067	4
0.10433	4
0.10800	5
0.11167	5
0.11533	5
0.11900	6
0.12267	6
0.12633	6
0.13000	6
0.13367	6
0.13733	5
0.14100	5
0.14467	5
0.14833	5
0.15200	5
0.15567	5
0.15933	5
0.16300	5
0.16667	5
0.17033	5
0.17400	5
0.17767	5
0.18133	5
0.18500	5
0.18867	5
0.19233	5
0.19600	4
0.19967	4
0.20333	4
0.20700	4
0.21067	4
0.21433	4
0.21800	4
0.22167	4
0.22533	4
0.22900	4
0.23267	3
0.23633	3
0.24000	2
0.24367	2
0.24733	2
0.25100	2
0.25467	2
0.25833	2
0.26200	2
0.26567	2
0.26933	1
0.27300	1
0.27667	1
0.28033	0
0.28400	0
0.28767	0
0.29133	0
0.29500	1
0.29867	1
0.30233	1
0.30600	1
0.30967	1
0.31333	1
0.31700	1
0.32067	2
0.32433	2
0.32800	2
0.33167	1
0.33533	1
0.33900	1
0.34267	1
0.34633	1
0.35000	1
0.35367	1
0.35733	1
0.36100	1
0.36467	1
0.36833	1
0.37200	2
0.37567	2
0.37933	2
0.38300	2
0.38667	2
0.39033	2
0.39400	2
0.39767	2
0.40133	2
0.40500	2
0.40867	2
0.41233	1
0.41600	1
0.41967	1
0.42333	1
0.42700	0
0.43067	0
0.43433	0
0.43800	0
0.44167	0
0.44533	-0
0.44900	-0
0.45267	0
0.45633	0
0.46000	1
0.46367	1
0.46733	2
0.47100	2
0.47467	2
0.47833	3
0.48200	3
0.48567	3
0.48933	4
0.49300	4
0.49667	4
0.50033	4
0.50400	4
0.50767	4
0.51133	4
0.51500	4
0.51867	5
0.52233	5
0.52600	5
0.52967	4
0.53333	4
0.53700	4
0.54067	3
0.54433	3
0.54800	2
0.55167	2
0.55533	2
0.55900	2
0.56267	2
0.56633	2
0.57000	2
0.57367	2
0.57733	2
0.58100	2
0.58467	2
0.58833	2
0.59200	2
0.59567	2
0.59933	2
0.60300	2
0.60667	2
0.61033	2
0.61400	2
0.61767	2
0.62133	3
0.62500	3
0.62867	3
0.63233	3
0.63600	3
0.63967	4
0.64333	4
0.64700	4
0.65067	4
0.65433	4
0.65800	4
0.66167	4
0.66533	3
0.66900	3
0.67267	2
0.67633	2
0.68000	1
0.68367	1
0.68733	0
0.69100	0
0.69467	-0
0.69833	-0
0.70200	-0
0.70567	0
0.70933	1
0.71300	1
0.71667	2
0.72033	2
0.72400	2
0.72767	2
0.73133	2
0.73500	2
0.73867	3
0.74233	3
0.74600	3
0.74967	3
0.75333	3
0.75700	3
0.76067	4
0.76433	4
0.76800	4
0.77167	4
0.77533	4
0.77900	4
0.78267	4
0.78633	4
0.79000	3
0.79367	3
0.79733	2
0.80100	2
0.80467	1
0.80833	1
0.81200	1
0.81567	1
0.81933	1
0.82300	1
0.82667	2
0.83033	2
0.83400	2
0.83767	2
0.84133	2
0.84500	2
0.84867	1
0.85233	1
0.85600	1
0.85967	0
0.86333	-0
0.86700	-0
0.87067	-1
0.87433	-1
0.87800	-1
0.88167	-1
0.88533	-1
0.88900	-1
0.89267	-1
0.89633	-0
0.90000	-0
0.90367	-0
0.90733	0
0.91100	1
0.91467	1
0.91833	1
0.92200	1
0.92567	1
0.92933	1
0.93300	2
0.93667	2
0.94033	2
0.94400	2
0.94767	2
0.95133	2
0.95500	2
0.95867	3
0.96233	3
0.96600	4
0.96967	4
0.97333	4
0.97700	4
0.98067	4
0.98433	4
0.98800	4
0.99167	4
0.99533	3
0.99900	3
1.00267	2
1.00633	2
1.01000	2
1.01367	1
1.01733	1
1.02100	0
1.02467	0
1.02833	0
1.03200	0
1.03567	0
1.03933	0
1.04300	0
1.04667	1
1.05033	1
1.05400	1
1.05767	2
1.06133	2
1.06500	2
1.06867	2
1.07233	3
1.07600	3
1.07967	3
1.08333	3
1.08700	3
1.09067	3
1.09433	3
1.09800	4
1.10167	4
1.10533	3
1.10900	3
1.11267	4
1.11633	4
1.12000	4
1.12367	4
1.12733	4
1.13100	4
1.13467	4
1.13833	3
1.14200	3
1.14567	3
1.14933	3
1.15300	2
1.15667	2
1.16033	2
1.16400	2
1.16767	2
1.17133	3
1.17500	3
1.17867	3
1.18233	3
1.18600	3
1.18967	2
1.19333	2
1.19700	1
1.20067	1
1.20433	1
1.20800	0
1.21167	-0
1.21533	-1
1.21900	-1
1.22267	-2
1.22633	-2
1.23000	-2
1.23367	-2
1.23733	-3
1.24100	-3
1.24467	-3
1.24833	-3
1.25200	-3
1.25567	-3
1.25933	-3
1.26300	-3
1.26667	-2
1.27033	-2
1.27400	-2
1.27767	-1
1.28133	-1
1.28500	-1
1.28867	-1
1.29233	-1
1.29600	-1
1.29967	-1
1.30333	-1
1.30700	-1
1.31067	-2
1.31433	-2
1.31800	-1
1.32167	-1
1.32533	-1
1.32900	-1
1.33267	-1
1.33633	-1
1.34000	-1
1.34367	-0
1.34733	-0
1.35100	-0
1.35467	-0
1.35833	0
1.36200	0
1.36567	1
1.36933	1
1.37300	1
1.37667	1
1.38033	1
1.38400	1
1.38767	1
1.39133	1
1.39500	1
1.39867	1
1.40233	1
1.40600	1
1.40967	1
1.41333	1
1.41700	2
1.42067	2
1.42433	3
1.42800	3
1.43167	3
1.43533	4
1.43900	4
1.44267	4
1.44633	4
1.45000	5
1.45367	5
1.45733	5
1.46100	5
1.46467	5
1.46833	5
1.47200	5
1.47567	5
1.47933	4
1.48300	4
1.48667	4
1.49033	3
1.49400	3
1.49767	3
1.50133	3
1.50500	3
1.50867	2
1.51233	2
1.51600	2
1.51967	2
1.52333	1
1.52700	1
1.53067	0
1.53433	0
1.53800	-0
1.54167	-1
1.54533	-1
1.54900	-2
1.55267	-2
1.55633	-3
1.56000	-3
1.56367	-2
1.56733	-2
1.57100	-2
1.57467	-2
1.57833	-1
1.58200	-1
1.58567	-1
1.58933	-1
1.59300	-1
1.59667	-1
1.60033	-1
1.60400	-2
1.60767	-2
1.61133	-3
1.61500	-5
1.61867	-7
1.62233	-10
1.62600	-12
1.62967	-15
1.63333	-18
1.63700	-21
1.64067	-25
1.64433	-28
1.64800	-32
1.65167	-36
1.65533	-39
1.65900	-44
1.66267	-48
1.66633	-53
1.67000	-58
1.67367	-64
1.67733	-69
1.68100	-74
1.68467	-79
1.68833	-83
1.69200	-87
1.69567	-90
1.69933	-93
1.70300	-95
1.70667	-97
1.71033	-99
1.71400	-100
1.71767	-101
1.72133	-102
1.72500	-103
1.72867	-103
1.73233	-104
1.73600	-104
1.73967	-105
1.74333	-106
1.74700	-106
1.75067	-107
1.75433	-107
1.75800	-107
1.76167	-108
1.76533	-108
1.76900	-108
1.77267	-109
1.77633	-109
1.78000	-110
1.78367	-111
1.78733	-111
1.79100	-112
1.79467	-112
1.79833	-112
1.80200	-112
1.80567	-111
1.80933	-111
1.81300	-110
1.81667	-109
1.82033	-108
1.82400	-108
1.82767	-108
1.83133	-108
1.83500	-109
1.83867	-109
1.84233	-109
1.84600	-110
1.84967	-110
1.85333	-111
1.85700	-111
1.86067	-111
1.86433	-112
1.86800	-112
1.87167	-112
1.87533	-113
1.87900	-113
1.88267	-113
1.88633	-112
1.89000	-112
1.89367	-111
1.89733	-110
1.90100	-110
1.90467	-109
1.90833	-109
1.91200	-109
1.91567	-109
1.91933	-109
1.92300	-109
1.92667	-109
1.93033	-109
1.93400	-108
1.93767	-108
1.94133	-108
1.94500	-107
1.94867	-107
1.95233	-107
1.95600	-107
1.95967	-106
1.96333	-106
1.96700	-106
1.97067	-106
1.97433	-106
1.97800	-106
1.98167	-106
1.98533	-107
1.98900	-106
1.99267	-106
1.99633	-106
2.00000	-106
2.00367	-105
2.00733	-105
2.01100	-105
2.01467	-104
2.01833	-104
2.02200	-104
2.02567	-104
2.02933	-104
2.03300	-103
2.03667	-103
2.04033	-102
2.04400	-102
2.04767	-101
2.05133	-101
2.05500	-100
2.05867	-100
2.06233	-100
2.06600	-100
2.06967	-100
2.07333	-99
2.07700	-99
2.08067	-98
2.08433	-98
2.08800	-98
2.09167	-97
2.09533	-97
2.09900	-96
2.10267	-97
2.10633	-97
2.11000	-97
2.11367	-98
2.11733	-98
2.12100	-97
2.12467	-97
2.12833	-97
2.13200	-96
2.13567	-96
2.13933	-96
2.14300	-96
2.14667	-96
2.15033	-96
2.15400	-95
2.15767	-95
2.16133	-94
2.16500	-93
2.16867	-92
2.17233	-91
2.17600	-91
2.17967	-90
2.18333	-90
2.18700	-90
2.19067	-89
2.19433	-88
2.19800	-88
2.20167	-87
2.20533	-87
2.20900	-87
2.21267	-86
2.21633	-86
2.22000	-85
2.22367	-85
2.22733	-84
2.23100	-84
2.23467	-83
2.23833	-83
2.24200	-84
2.24567	-84
2.24933	-84
2.25300	-84
2.25667	-84
2.26033	-84
2.26400	-83
2.26767	-83
2.27133	-82
2.27500	-82
2.27867	-82
2.28233	-81
2.28600	-81
2.28967	-81
2.29333	-80
2.29700	-79
2.30067	-79
2.30433	-79
2.30800	-80
2.31167	-80
2.31533	-80
2.31900	-80
2.32267	-80
2.32633	-80
2.33000	-79
2.33367	-78
2.33733	-77
2.34100	-76
2.34467	-75
2.34833	-74
2.35200	-73
2.35567	-72
2.35933	-71
2.36300	-70
2.36667	-69
2.37033	-67
2.37400	-65
2.37767	-62
2.38133	-58
2.38500	-54
2.38867	-50
2.39233	-46
2.39600	-42
2.39967	-37
2.40333	-33
2.40700	-28
2.41067	-24
2.41433	-20
2.41800	-17
2.42167	-15
2.42533	-12
2.42900	-11
2.43267	-9
2.43633	-8
2.44000	-7
2.44367	-6
2.44733	-5
2.45100	-4
2.45467	-3
2.45833	-2
2.46200	-2
2.46567	-1
2.46933	0
2.47300	1
2.47667	2
2.48033	3
2.48400	5
2.48767	6
2.49133	7
2.49500	8
2.49867	8
2.50233	9
2.50600	10
2.50967	11
2.51333	12
2.51700	13
2.52067	13
2.52433	14
2.52800	14
2.53167	14
2.53533	14
2.53900	14
2.54267	15
2.54633	15
2.55000	15
2.55367	15
2.55733	16
2.56100	16
2.56467	16
2.56833	17
2.57200	17
2.57567	16
2.57933	16
2.58300	16
2.58667	17
2.59033	17
2.59400	17
2.59767	17
2.60133	17
2.60500	17
2.60867	17
2.61233	17
2.61600	18
2.61967	18
2.62333	19
2.62700	19
2.63067	20
2.63433	20
2.63800	20
2.64167	20
2.64533	20
2.64900	21
2.65267	21
2.65633	22
2.66000	22
2.66367	22
2.66733	23
2.67100	23
2.67467	22
2.67833	22
2.68200	22
2.68567	22
2.68933	22
2.69300	22
2.69667	22
2.70033	22
2.70400	23
2.70767	23
2.71133	24
2.71500	25
2.71867	26
2.72233	27
2.72600	27
2.72967	27
2.73333	27
2.73700	27
2.74067	26
2.74433	26
2.74800	26
2.75167	26
2.75533	26
2.75900	26
2.76267	26
2.76633	26
2.77000	27
2.77367	28
2.77733	28
2.78100	29
2.78467	29
2.78833	30
2.79200	30
2.79567	30
2.79933	30
2.80300	30
2.80667	30
2.81033	30
2.81400	30
2.81767	30
2.82133	31
2.82500	30
2.82867	30
2.83233	30
2.83600	30
2.83967	29
2.84333	28
2.84700	26
2.85067	22
2.85433	17
2.85800	8
2.86167	-4
2.86533	-20
2.86900	-40
2.87267	-64
2.87633	-93
2.88000	-126
2.88367	-164
2.88733	-205
2.89100	-250
2.89467	-298
2.89833	-348
2.90200	-401
2.90567	-455
2.90933	-510
2.91300	-566
2.91667	-622
2.92033	-677
2.92400	-732
2.92767	-784
2.93133	-836
2.93500	-889
2.93867	-946
2.94233	-1004
2.94600	-1056
2.94967	-1090
2.95333	-1099
2.95700	-1082
2.96067	-1042
2.96433	-984
2.96800	-913
2.97167	-835
2.97533	-754
2.97900	-674
2.98267	-597
2.98633	-525
2.99000	-459
2.99367	-398
2.99733	-344
3.00100	-295
3.00467	-253
3.00833	-215
3.01200	-182
3.01567	-154
3.01933	-130
3.02300	-109
3.02667	-91
3.03033	-75
3.03400	-62
3.03767	-50
3.04133	-41
3.04500	-32
3.04867	-25
3.05233	-19
3.05600	-14
3.05967	-10
3.06333	-7
3.06700	-4
3.07067	-2
3.07433	1
3.07800	3
3.08167	5
3.08533	7
3.08900	8
3.09267	10
3.09633	11
3.10000	12
3.10367	13
3.10733	14
3.11100	15
3.11467	16
3.11833	16
3.12200	17
3.12567	17
3.12933	18
3.13300	18
3.13667	18
3.14033	18
3.14400	18
3.14767	19
3.15133	19
3.15500	19
3.15867	19
3.16233	19
3.16600	20
3.16967	20
3.17333	21
3.17700	21
3.18067	21
3.18433	22
3.18800	22
3.19167	22
3.19533	22
3.19900	22
3.20267	22
3.20633	22
3.21000	22
3.21367	22
3.21733	22
3.22100	22
3.22467	22
3.22833	22
3.23200	22
3.23567	23
3.23933	23
3.24300	23
3.24667	24
3.25033	24
3.25400	24
3.25767	25
3.26133	25
3.26500	25
3.26867	26
3.27233	26
3.27600	26
3.27967	27
3.28333	27
3.28700	27
3.29067	27
3.29433	27
3.29800	27
3.30167	27
3.30533	27
3.30900	27
3.31267	27
3.31633	28
3.32000	28
3.32367	28
3.32733	28
3.33100	28
3.33467	28
3.33833	28
3.34200	28
3.34567	28
3.34933	28
3.35300	28
3.35667	28
3.36033	29
3.36400	29
3.36767	29
3.37133	29
3.37500	29
3.37867	29
3.38233	29
3.38600	29
3.38967	29
3.39333	29
3.39700	29
3.40067	29
3.40433	29
3.40800	29
3.41167	29
3.41533	29
3.41900	29
3.42267	29
3.42633	29
3.43000	29
3.43367	30
3.43733	30
3.44100	30
3.44467	30
3.44833	30
3.45200	30
3.45567	30
3.45933	29
3.46300	29
3.46667	29
3.47033	28
3.47400	28
3.47767	28
3.48133	28
3.48500	28
3.48867	29
3.49233	29
3.49600	29
3.49967	29
3.50333	29
3.50700	29
3.51067	29
3.51433	29
3.51800	29
3.52167	29
3.52533	29
3.52900	28
3.53267	28
3.53633	28
3.54000	28
3.54367	28
3.54733	28
3.55100	27
3.55467	27
3.55833	27
3.56200	27
3.56567	27
3.56933	27
3.57300	28
3.57667	28
3.58033	28
3.58400	28
3.58767	28
3.59133	28
3.59500	28
3.59867	28
3.60233	29
3.60600	29
3.60967	29
3.61333	29
3.61700	29
3.62067	29
3.62433	30
3.62800	30
3.63167	30
3.63533	30
3.63900	31
3.64267	31
3.64633	31
3.65000	31
3.65367	31
3.65733	31
3.66100	30
3.66467	30
3.66833	30
3.67200	30
3.67567	30
3.67933	29
3.68300	29
3.68667	29
3.69033	29
3.69400	29
3.69767	29
3.70133	30
3.70500	30
3.70867	30
3.71233	30
3.71600	30
3.71967	29
3.72333	29
3.72700	29
3.73067	28
3.73433	28
3.73800	28
3.74167	28
3.74533	28
3.74900	27
3.75267	27
3.75633	27
3.76000	27
3.76367	28
3.76733	28
3.77100	28
3.77467	28
3.77833	28
3.78200	28
3.78567	27
3.78933	28
3.79300	28
3.79667	28
3.80033	28
3.80400	28
3.80767	29
3.81133	29
3.81500	29
3.81867	29
3.82233	29
3.82600	30
3.82967	30
3.83333	30
3.83700	30
3.84067	30
3.84433	30
3.84800	30
3.85167	29
3.85533	29
3.85900	29
3.86267	29
3.86633	29
3.87000	29
3.87367	29
3.87733	28
3.88100	28
3.88467	28
3.88833	28
3.89200	28
3.89567	28
3.89933	28
3.90300	28
3.90667	27
3.91033	27
3.91400	27
3.91767	27
3.92133	27
3.92500	27
3.92867	27
3.93233	27
3.93600	27
3.93967	27
3.94333	28
3.94700	28
3.95067	28
3.95433	28
3.95800	28
3.96167	29
3.96533	29
3.96900	29
3.97267	29
3.97633	30
3.98000	30
3.98367	30
3.98733	30
3.99100	30
3.99467	30
3.99833	30

[Chromatogram (Ch3)]
Interval(msec)	220
# of Points	1091
Start Time(min)	0.002
End Time(min)	3.998
R.Time (min)	Intensity
0.00167	-0
0.00533	0
0.00900	-1
0.01267	-1
0.01633	-1
0.02000	-2
0.02367	-1
0.02733	-3
0.03100	-2
0.03467	-4
0.03833	-4
0.04200	-1
0.04567	-1
0.04933	-1
0.05300	-0
0.05667	1
0.06033	2
0.06400	1
0.06767	1
0.07133	2
0.07500	2
0.07867	3
0.08233	4
0.08600	4
0.08967	3
0.09333	1
0.09700	-1
0.10067	-1
0.10433	-1
0.10800	-2
0.11167	-1
0.11533	-3
0.11900	-4
0.12267	-3
0.12633	-1
0.13000	1
0.13367	2
0.13733	1
0.14100	-0
0.14467	-0
0.14833	1
0.15200	2
0.15567	1
0.15933	0
0.16300	-1
0.16667	-2
0.17033	-1
0.17400	0
0.17767	2
0.18133	1
0.18500	0
0.18867	2
0.19233	2
0.19600	0
0.19967	-2
0.20333	-1
0.20700	-2
0.21067	-1
0.21433	1
0.21800	-1
0.22167	-0
0.22533	2
0.22900	1
0.23267	1
0.23633	2
0.24000	2
0.24367	1
0.24733	0
0.25100	1
0.25467	2
0.25833	2
0.26200	0
0.26567	-1
0.26933	-3
0.27300	-6
0.27667	-6
0.28033	-2
0.28400	2
0.28767	2
0.29133	4
0.29500	6
0.29867	5
0.30233	1
0.30600	1
0.30967	1
0.31333	-2
0.31700	-5
0.32067	-5
0.32433	-4
0.32800	-2
0.33167	1
0.33533	0
0.33900	-2
0.34267	-3
0.34633	-3
0.35000	-1
0.35367	-1
0.35733	0
0.36100	0
0.36467	-0
0.36833	-1
0.37200	-1
0.37567	-2
0.37933	-2
0.38300	-1
0.38667	1
0.39033	3
0.39400	4
0.39767	2
0.40133	-0
0.40500	-0
0.40867	0
0.41233	1
0.41600	2
0.41967	2
0.42333	2
0.42700	1
0.43067	-2
0.43433	-3
0.43800	-3
0.44167	-4
0.44533	-4
0.44900	-2
0.45267	3
0.45633	6
0.46000	5
0.46367	3
0.46733	1
0.47100	-1
0.47467	-2
0.47833	-1
0.48200	0
0.48567	-0
0.48933	-1
0.49300	0
0.49667	1
0.50033	1
0.50400	1
0.50767	0
0.51133	-1
0.51500	-0
0.51867	1
0.52233	1
0.52600	1
0.52967	2
0.53333	2
0.53700	3
0.54067	3
0.54433	3
0.54800	5
0.55167	5
0.55533	4
0.55900	2
0.56267	0
0.56633	-2
0.57000	-3
0.57367	-0
0.57733	2
0.58100	3
0.58467	3
0.58833	4
0.59200	5
0.59567	5
0.59933	4
0.60300	2
0.60667	2
0.61033	1
0.61400	1
0.61767	2
0.62133	2
0.62500	2
0.62867	2
0.63233	2
0.63600	2
0.63967	5
0.64333	6
0.64700	6
0.65067	7
0.65433	6
0.65800	6
0.66167	6
0.66533	6
0.66900	8
0.67267	9
0.67633	10
0.68000	9
0.68367	6
0.68733	6
0.69100	6
0.69467	3
0.69833	3
0.70200	3
0.70567	4
0.70933	5
0.71300	4
0.71667	3
0.72033	1
0.72400	2
0.72767	5
0.73133	7
0.73500	8
0.73867	6
0.74233	6
0.74600	8
0.74967	8
0.75333	8
0.75700	9
0.76067	9
0.76433	10
0.76800	10
0.77167	10
0.77533	10
0.77900	11
0.78267	10
0.78633	10
0.79000	9
0.79367	6
0.79733	4
0.80100	4
0.80467	5
0.80833	5
0.81200	7
0.81567	9
0.81933	10
0.82300	8
0.82667	6
0.83033	5
0.83400	5
0.83767	5
0.84133	7
0.84500	7
0.84867	5
0.85233	4
0.85600	6
0.85967	8
0.86333	10
0.86700	11
0.87067	12
0.87433	13
0.87800	13
0.88167	15
0.88533	15
0.88900	13
0.89267	13
0.89633	15
0.90000	14
0.90367	12
0.90733	9
0.91100	7
0.91467	4
0.91833	4
0.92200	5
0.92567	7
0.92933	8
0.93300	9
0.93667	10
0.94033	13
0.94400	14
0.94767	15
0.95133	14
0.95500	13
0.95867	11
0.96233	9
0.96600	10
0.96967	11
0.97333	12
0.97700	11
0.98067	9
0.98433	9
0.98800	10
0.99167	11
0.99533	12
0.99900	14
1.00267	16
1.00633	15
1.01000	14
1.01367	12
1.01733	12
1.02100	12
1.02467	9
1.02833	6
1.03200	4
1.03567	5
1.03933	8
1.04300	9
1.04667	11
1.05033	12
1.05400	12
1.05767	11
1.06133	12
1.06500	12
1.06867	11
1.07233	11
1.07600	10
1.07967	11
1.08333	12
1.08700	14
1.09067	15
1.09433	14
1.09800	11
1.10167	9
1.10533	9
1.10900	9
1.11267	9
1.11633	8
1.12000	7
1.12367	8
1.12733	8
1.13100	7
1.13467	9
1.13833	11
1.14200	12
1.14567	12
1.14933	11
1.15300	9
1.15667	8
1.16033	8
1.16400	8
1.16767	9
1.17133	10
1.17500	10
1.17867	10
1.18233	11
1.18600	13
1.18967	13
1.19333	13
1.19700	14
1.20067	13
1.20433	11
1.20800	11
1.21167	13
1.21533	14
1.21900	14
1.22267	13
1.22633	14
1.23000	13
1.23367	13
1.23733	13
1.24100	14
1.24467	13
1.24833	12
1.25200	11
1.25567	12
1.25933	13
1.26300	13
1.26667	13
1.27033	11
1.27400	11
1.27767	12
1.28133	12
1.28500	12
1.28867	12
1.29233	11
1.29600	11
1.29967	12
1.30333	13
1.30700	14
1.31067	14
1.31433	16
1.31800	15
1.32167	13
1.32533	14
1.32900	15
1.33267	15
1.33633	14
1.34000	13
1.34367	14
1.34733	13
1.35100	13
1.35467	13
1.35833	13
1.36200	14
1.36567	15
1.36933	16
1.37300	17
1.37667	17
1.38033	18
1.38400	15
1.38767	15
1.39133	15
1.39500	16
1.39867	17
1.40233	16
1.40600	16
1.40967	17
1.41333	15
1.41700	14
1.42067	15
1.42433	14
1.42800	17
1.43167	19
1.43533	19
1.43900	19
1.44267	18
1.44633	19
1.45000	20
1.45367	19
1.45733	19
1.46100	18
1.46467	17
1.46833	18
1.47200	19
1.47567	18
1.47933	18
1.48300	17
1.48667	15
1.49033	15
1.49400	18
1.49767	19
1.50133	19
1.50500	19
1.50867	20
1.51233	21
1.51600	21
1.51967	21
1.52333	21
1.52700	18
1.53067	16
1.53433	14
1.53800	14
1.54167	14
1.54533	13
1.54900	14
1.55267	17
1.55633	19
1.56000	20
1.56367	18
1.56733	18
1.57100	18
1.57467	17
1.57833	17
1.58200	16
1.58567	15
1.58933	15
1.59300	15
1.59667	18
1.60033	21
1.60400	25
1.60767	27
1.61133	26
1.61500	25
1.61867	23
1.62233	22
1.62600	21
1.62967	22
1.63333	22
1.63700	22
1.64067	23
1.64433	27
1.64800	30
1.65167	29
1.65533	26
1.65900	24
1.66267	22
1.66633	23
1.67000	24
1.67367	25
1.67733	26
1.68100	28
1.68467	29
1.68833	30
1.69200	31
1.69567	32
1.69933	35
1.70300	37
1.70667	39
1.71033	40
1.71400	38
1.71767	37
1.72133	38
1.72500	39
1.72867	37
1.73233	35
1.73600	35
1.73967	37
1.74333	39
1.74700	40
1.75067	42
1.75433	42
1.75800	42
1.76167	41
1.76533	40
1.76900	39
1.77267	39
1.77633	39
1.78000	41
1.78367	43
1.78733	44
1.79100	43
1.79467	42
1.79833	43
1.80200	44
1.80567	45
1.80933	47
1.81300	48
1.81667	47
1.82033	45
1.82400	44
1.82767	43
1.83133	42
1.83500	42
1.83867	45
1.84233	48
1.84600	48
1.84967	47
1.85333	48
1.85700	50
1.86067	51
1.86433	52
1.86800	52
1.87167	53
1.87533	53
1.87900	54
1.88267	57
1.88633	58
1.89000	59
1.89367	61
1.89733	63
1.90100	65
1.90467	67
1.90833	65
1.91200	63
1.91567	64
1.91933	65
1.92300	67
1.92667	70
1.93033	71
1.93400	72
1.93767	71
1.94133	72
1.94500	73
1.94867	75
1.95233	77
1.95600	78
1.95967	78
1.96333	76
1.96700	75
1.97067	77
1.97433	79
1.97800	82
1.98167	82
1.98533	85
1.98900	88
1.99267	88
1.99633	87
2.00000	87
2.00367	87
2.00733	88
2.01100	90
2.01467	90
2.01833	89
2.02200	90
2.02567	91
2.02933	92
2.03300	92
2.03667	93
2.04033	96
2.04400	99
2.04767	100
2.05133	102
2.05500	101
2.05867	102
2.06233	106
2.06600	108
2.06967	109
2.07333	109
2.07700	111
2.08067	115
2.08433	117
2.08800	119
2.09167	121
2.09533	122
2.09900	120
2.10267	120
2.10633	120
2.11000	120
2.11367	122
2.11733	124
2.12100	123
2.12467	124
2.12833	127
2.13200	129
2.13567	132
2.13933	135
2.14300	136
2.14667	139
2.15033	141
2.15400	143
2.15767	144
2.16133	144
2.16500	147
2.16867	148
2.17233	149
2.17600	150
2.17967	151
2.18333	152
2.18700	152
2.19067	152
2.19433	153
2.19800	154
2.20167	153
2.20533	154
2.20900	156
2.21267	159
2.21633	159
2.22000	159
2.22367	160
2.22733	160
2.23100	163
2.23467	165
2.23833	166
2.24200	167
2.24567	169
2.24933	171
2.25300	173
2.25667	172
2.26033	170
2.26400	170
2.26767	172
2.27133	174
2.27500	175
2.27867	177
2.28233	179
2.28600	180
2.28967	180
2.29333	181
2.29700	184
2.30067	184
2.30433	183
2.30800	184
2.31167	185
2.31533	188
2.31900	191
2.32267	192
2.32633	193
2.33000	195
2.33367	197
2.33733	197
2.34100	197
2.34467	199
2.34833	200
2.35200	200
2.35567	200
2.35933	201
2.36300	202
2.36667	203
2.37033	204
2.37400	204
2.37767	204
2.38133	206
2.38500	206
2.38867	203
2.39233	199
2.39600	199
2.39967	205
2.40333	211
2.40700	216
2.41067	219
2.41433	220
2.41800	221
2.42167	221
2.42533	222
2.42900	222
2.43267	223
2.43633	222
2.44000	224
2.44367	276
2.44733	412
2.45100	561
2.45467	684
2.45833	752
2.46200	758
2.46567	731
2.46933	698
2.47300	672
2.47667	656
2.48033	639
2.48400	608
2.48767	565
2.49133	520
2.49500	480
2.49867	446
2.50233	422
2.50600	406
2.50967	401
2.51333	407
2.51700	420
2.52067	437
2.52433	454
2.52800	466
2.53167	466
2.53533	452
2.53900	429
2.54267	401
2.54633	373
2.55000	346
2.55367	323
2.55733	302
2.56100	285
2.56467	272
2.56833	263
2.57200	257
2.57567	254
2.57933	251
2.58300	249
2.58667	250
2.59033	250
2.59400	250
2.59767	249
2.60133	245
2.60500	238
2.60867	228
2.61233	215
2.61600	200
2.61967	185
2.62333	173
2.62700	164
2.63067	155
2.63433	146
2.63800	137
2.64167	131
2.64533	125
2.64900	121
2.65267	116
2.65633	108
2.66000	99
2.66367	92
2.66733	85
2.67100	80
2.67467	74
2.67833	70
2.68200	67
2.68567	65
2.68933	63
2.69300	61
2.69667	61
2.70033	62
2.70400	64
2.70767	68
2.71133	72
2.71500	75
2.71867	79
2.72233	85
2.72600	91
2.72967	95
2.73333	100
2.73700	104
2.74067	105
2.74433	108
2.74800	111
2.75167	113
2.75533	116
2.75900	118
2.76267	120
2.76633	123
2.77000	125
2.77367	126
2.77733	130
2.78100	133
2.78467	135
2.78833	137
2.79200	140
2.79567	141
2.79933	144
2.80300	149
2.80667	153
2.81033	159
2.81400	165
2.81767	172
2.82133	182
2.82500	200
2.82867	233
2.83233	299
2.83600	416
2.83967	604
2.84333	883
2.84700	1259
2.85067	1728
2.85433	2270
2.85800	2846
2.86167	3412
2.86533	3925
2.86900	4343
2.87267	4635
2.87633	4786
2.88000	4803
2.88367	4701
2.88733	4501
2.89100	4231
2.89467	3917
2.89833	3583
2.90200	3245
2.90567	2917
2.90933	2609
2.91300	2326
2.91667	2066
2.92033	1832
2.92400	1622
2.92767	1434
2.93133	1270
2.93500	1129
2.93867	1004
2.94233	893
2.94600	797
2.94967	713
2.95333	640
2.95700	578
2.96067	523
2.96433	475
2.96800	432
2.97167	394
2.97533	362
2.97900	335
2.98267	312
2.98633	293
2.99000	275
2.99367	259
2.99733	246
3.00100	235
3.00467	224
3.00833	214
3.01200	204
3.01567	197
3.01933	189
3.02300	184
3.02667	180
3.03033	176
3.03400	173
3.03767	170
3.04133	168
3.04500	168
3.04867	168
3.05233	167
3.05600	165
3.05967	162
3.06333	161
3.06700	160
3.07067	159
3.07433	159
3.07800	159
3.08167	161
3.08533	162
3.08900	159
3.09267	152
3.09633	145
3.10000	139
3.10367	132
3.10733	125
3.11100	123
3.11467	135
3.11833	163
3.12200	202
3.12567	248
3.12933	297
3.13300	344
3.13667	388
3.14033	428
3.14400	467
3.14767	500
3.15133	529
3.15500	556
3.15867	579
3.16233	599
3.16600	616
3.16967	632
3.17333	644
3.17700	653
3.18067	661
3.18433	670
3.18800	680
3.19167	688
3.19533	697
3.19900	705
3.20267	712
3.20633	718
3.21000	722
3.21367	729
3.21733	739
3.22100	747
3.22467	752
3.22833	756
3.23200	760
3.23567	766
3.23933	774
3.24300	783
3.24667	790
3.25033	795
3.25400	801
3.25767	807
3.26133	814
3.26500	818
3.26867	822
3.27233	828
3.27600	834
3.27967	838
3.28333	840
3.28700	841
3.29067	842
3.29433	844
3.29800	848
3.30167	850
3.30533	851
3.30900	853
3.31267	853
3.31633	854
3.32000	854
3.32367	855
3.32733	858
3.33100	860
3.33467	860
3.33833	860
3.34200	860
3.34567	859
3.34933	857
3.35300	855
3.35667	853
3.36033	850
3.36400	847
3.36767	843
3.37133	840
3.37500	837
3.37867	838
3.38233	838
3.38600	835
3.38967	832
3.39333	829
3.39700	825
3.40067	821
3.40433	818
3.40800	816
3.41167	815
3.41533	812
3.41900	810
3.42267	809
3.42633	807
3.43000	803
3.43367	801
3.43733	801
3.44100	800
3.44467	796
3.44833	794
3.45200	792
3.45567	790
3.45933	788
3.46300	786
3.46667	782
3.47033	778
3.47400	775
3.47767	775
3.48133	776
3.48500	775
3.48867	775
3.49233	775
3.49600	774
3.49967	773
3.50333	770
3.50700	766
3.51067	764
3.51433	763
3.51800	762
3.52167	760
3.52533	756
3.52900	756
3.53267	756
3.53633	754
3.54000	753
3.54367	753
3.54733	752
3.55100	750
3.55467	747
3.55833	746
3.56200	744
3.56567	745
3.56933	746
3.57300	746
3.57667	745
3.58033	745
3.58400	747
3.58767	747
3.59133	745
3.59500	742
3.59867	739
3.60233	737
3.60600	735
3.60967	734
3.61333	734
3.61700	732
3.62067	729
3.62433	728
3.62800	727
3.63167	726
3.63533	723
3.63900	721
3.64267	720
3.64633	719
3.65000	717
3.65367	716
3.65733	714
3.66100	712
3.66467	711
3.66833	711
3.67200	709
3.67567	706
3.67933	705
3.68300	702
3.68667	700
3.69033	699
3.69400	697
3.69767	697
3.70133	694
3.70500	690
3.70867	687
3.71233	684
3.71600	681
3.71967	679
3.72333	678
3.72700	677
3.73067	675
3.73433	673
3.73800	669
3.74167	667
3.74533	663
3.74900	659
3.75267	657
3.75633	656
3.76000	654
3.76367	652
3.76733	650
3.77100	648
3.77467	644
3.77833	640
3.78200	639
3.78567	637
3.78933	637
3.79300	635
3.79667	631
3.80033	631
3.80400	631
3.80767	630
3.81133	628
3.81500	624
3.81867	622
3.82233	621
3.82600	621
3.82967	620
3.83333	618
3.83700	616
3.84067	614
3.84433	611
3.84800	609
3.85167	607
3.85533	606
3.85900	604
3.86267	604
3.86633	602
3.87000	600
3.87367	597
3.87733	595
3.88100	592
3.88467	590
3.88833	589
3.89200	588
3.89567	586
3.89933	583
3.90300	581
3.90667	582
3.91033	582
3.91400	582
3.91767	580
3.92133	578
3.92500	575
3.92867	571
3.93233	568
3.93600	566
3.93967	565
3.94333	563
3.94700	561
3.95067	562
3.95433	560
3.95800	559
3.96167	556
3.96533	553
3.96900	552
3.97267	552
3.97633	551
3.98000	550
3.98367	548
3.98733	545
3.99100	542
3.99467	541
3.99833	538

[Status Trace (Column Oven Temperature)]
Interval(msec)	1000
# of Points	240
Start Time(min)	0.001
End Time(min)	3.984
Intensity Units	
Intensity Multiplier	1
R.Time (min)	Intensity
0.00113	35.08
0.01780	35.06
0.03447	35.05
0.05113	35.06
0.06780	35.04
0.08447	35.04
0.10113	35.04
0.11780	35.03
0.13447	35.03
0.15113	35.02
0.16780	35.01
0.18447	34.99
0.20113	34.99
0.21780	34.99
0.23447	35.00
0.25113	35.00
0.26780	35.01
0.28447	35.01
0.30113	35.02
0.31780	35.02
0.33447	35.02
0.35113	35.02
0.36780	35.01
0.38447	35.01
0.40113	35.02
0.41780	35.03
0.43447	35.03
0.45113	35.04
0.46780	35.04
0.48447	35.03
0.50113	35.01
0.51780	35.00
0.53447	35.00
0.55113	35.00
0.56780	35.01
0.58447	35.00
0.60113	34.99
0.61780	34.99
0.63447	34.98
0.65113	34.98
0.66780	34.99
0.68447	35.00
0.70113	35.00
0.71780	35.00
0.73447	34.99
0.75113	34.99
0.76780	34.98
0.78447	34.98
0.80113	34.99
0.81780	35.00
0.83447	35.00
0.85113	35.01
0.86780	35.02
0.88447	35.02
0.90113	35.02
0.91780	35.02
0.93447	35.01
0.95113	35.01
0.96780	35.00
0.98447	35.00
1.00113	35.00
1.01780	35.00
1.03447	35.00
1.05113	35.00
1.06780	34.99
1.08447	34.98
1.10113	34.97
1.11780	34.96
1.13447	34.96
1.15113	34.96
1.16780	34.97
1.18447	34.96
1.20113	34.97
1.21780	34.98
1.23447	35.00
1.25113	35.00
1.26780	35.01
1.28447	35.02
1.30113	35.02
1.31780	35.02
1.33447	35.01
1.35113	35.01
1.36780	35.01
1.38447	35.01
1.40113	35.01
1.41780	35.00
1.43447	34.98
1.45113	34.97
1.46780	34.96
1.48447	34.96
1.50113	34.96
1.51780	34.97
1.53447	34.97
1.55113	35.00
1.56780	35.01
1.58447	35.02
1.60113	35.04
1.61780	35.13
1.63447	35.28
1.65113	35.49
1.66780	35.80
1.68447	36.16
1.70113	36.52
1.71780	36.86
1.73447	37.21
1.75113	37.54
1.76780	37.87
1.78447	38.22
1.80113	38.54
1.81780	38.84
1.83447	39.17
1.85113	39.51
1.86780	39.85
1.88447	40.18
1.90113	40.51
1.91780	40.84
1.93447	41.17
1.95113	41.49
1.96780	41.82
1.98447	42.14
2.00113	42.47
2.01780	42.81
2.03447	43.14
2.05113	43.45
2.06780	43.78
2.08447	44.10
2.10113	44.43
2.11780	44.77
2.13447	45.09
2.15113	45.42
2.16780	45.76
2.18447	46.08
2.20113	46.41
2.21780	46.71
2.23447	47.04
2.25113	47.37
2.26780	47.69
2.28447	48.01
2.30113	48.36
2.31780	48.71
2.33447	49.01
2.35113	49.32
2.36780	49.57
2.38447	49.68
2.40113	49.70
2.41780	49.70
2.43447	49.70
2.45113	49.70
2.46780	49.70
2.48447	49.70
2.50113	49.71
2.51780	49.71
2.53447	49.74
2.55113	49.75
2.56780	49.77
2.58447	49.78
2.60113	49.82
2.61780	49.81
2.63447	49.82
2.65113	49.82
2.66780	49.84
2.68447	49.86
2.70113	49.86
2.71780	49.84
2.73447	49.86
2.75113	49.88
2.76780	49.87
2.78447	49.87
2.80113	49.86
2.81780	49.86
2.83447	49.86
2.85113	49.87
2.86780	49.87
2.88447	49.89
2.90113	49.91
2.91780	49.93
2.93447	49.94
2.95113	49.96
2.96780	49.97
2.98447	49.98
3.00113	49.97
3.01780	49.98
3.03447	49.99
3.05113	50.01
3.06780	50.02
3.08447	50.03
3.10113	50.03
3.11780	50.03
3.13447	50.04
3.15113	50.05
3.16780	50.06
3.18447	50.07
3.20113	50.09
3.21780	50.10
3.23447	50.10
3.25113	50.11
3.26780	50.10
3.28447	50.10
3.30113	50.09
3.31780	50.09
3.33447	50.10
3.35113	50.09
3.36780	50.08
3.38447	50.08
3.40113	50.07
3.41780	50.07
3.43447	50.06
3.45113	50.06
3.46780	50.06
3.48447	50.06
3.50113	50.07
3.51780	50.08
3.53447	50.09
3.55113	50.09
3.56780	50.08
3.58447	50.09
3.60113	50.09
3.61780	50.08
3.63447	50.06
3.65113	50.06
3.66780	50.07
3.68447	50.08
3.70113	50.06
3.71780	50.07
3.73447	50.08
3.75113	50.09
3.76780	50.09
3.78447	50.09
3.80113	50.09
3.81780	50.07
3.83447	50.06
3.85113	50.06
3.86780	50.06
3.88447	50.06
3.90113	50.08
3.91780	50.08
3.93447	50.09
3.95113	50.09
3.96780	50.08
3.98447	50.08

[Status Trace (Injection Unit Temperature)]
Interval(msec)	1000
# of Points	240
Start Time(min)	0.001
End Time(min)	3.984
Intensity Units	
Intensity Multiplier	1
R.Time (min)	Intensity
0.00113	99.99
0.01780	99.98
0.03447	99.98
0.05113	99.99
0.06780	99.99
0.08447	99.99
0.10113	99.99
0.11780	99.99
0.13447	99.99
0.15113	99.99
0.16780	99.99
0.18447	99.99
0.20113	99.99
0.21780	99.98
0.23447	99.99
0.25113	99.99
0.26780	99.99
0.28447	99.98
0.30113	99.99
0.31780	99.99
0.33447	99.99
0.35113	99.99
0.36780	99.98
0.38447	99.98
0.40113	99.99
0.41780	99.98
0.43447	99.98
0.45113	99.99
0.46780	99.99
0.48447	99.99
0.50113	99.98
0.51780	99.98
0.53447	99.98
0.55113	99.98
0.56780	99.98
0.58447	99.98
0.60113	99.98
0.61780	99.98
0.63447	99.98
0.65113	99.98
0.66780	99.98
0.68447	99.98
0.70113	99.98
0.71780	99.98
0.73447	99.98
0.75113	99.98
0.76780	99.98
0.78447	99.98
0.80113	99.99
0.81780	99.98
0.83447	99.98
0.85113	99.98
0.86780	99.98
0.88447	99.98
0.90113	99.98
0.91780	99.98
0.93447	99.99
0.95113	99.98
0.96780	99.98
0.98447	99.98
1.00113	99.98
1.01780	99.98
1.03447	99.98
1.05113	99.98
1.06780	99.98
1.08447	99.98
1.10113	99.98
1.11780	99.98
1.13447	99.98
1.15113	99.99
1.16780	99.98
1.18447	99.98
1.20113	99.98
1.21780	99.98
1.23447	99.98
1.25113	99.98
1.26780	99.98
1.28447	99.98
1.30113	99.98
1.31780	99.99
1.33447	99.99
1.35113	99.98
1.36780	99.99
1.38447	99.99
1.40113	99.98
1.41780	99.98
1.43447	99.98
1.45113	99.98
1.46780	99.98
1.48447	99.98
1.50113	99.98
1.51780	99.98
1.53447	99.98
1.55113	99.98
1.56780	99.99
1.58447	99.99
1.60113	99.99
1.61780	99.99
1.63447	99.99
1.65113	99.98
1.66780	99.98
1.68447	99.98
1.70113	99.98
1.71780	99.98
1.73447	99.99
1.75113	99.99
1.76780	99.98
1.78447	99.99
1.80113	99.98
1.81780	99.98
1.83447	99.98
1.85113	99.99
1.86780	99.98
1.88447	99.99
1.90113	99.98
1.91780	99.98
1.93447	99.98
1.95113	99.98
1.96780	99.98
1.98447	99.98
2.00113	99.98
2.01780	99.98
2.03447	99.98
2.05113	99.98
2.06780	99.98
2.08447	99.98
2.10113	99.98
2.11780	99.97
2.13447	99.97
2.15113	99.97
2.16780	99.97
2.18447	99.97
2.20113	99.97
2.21780	99.97
2.23447	99.97
2.25113	99.97
2.26780	99.97
2.28447	99.97
2.30113	99.97
2.31780	99.96
2.33447	99.97
2.35113	99.97
2.36780	99.96
2.38447	99.96
2.40113	99.96
2.41780	99.97
2.43447	99.96
2.45113	99.96
2.46780	99.97
2.48447	99.97
2.50113	99.97
2.51780	99.97
2.53447	99.97
2.55113	99.97
2.56780	99.97
2.58447	99.97
2.60113	99.98
2.61780	99.97
2.63447	99.98
2.65113	99.98
2.66780	99.98
2.68447	99.98
2.70113	99.98
2.71780	99.99
2.73447	99.99
2.75113	99.99
2.76780	99.98
2.78447	99.99
2.80113	99.99
2.81780	99.99
2.83447	99.99
2.85113	99.99
2.86780	100.00
2.88447	100.00
2.90113	100.00
2.91780	100.00
2.93447	100.00
2.95113	100.01
2.96780	100.01
2.98447	100.01
3.00113	100.01
3.01780	100.01
3.03447	100.01
3.05113	100.02
3.06780	100.01
3.08447	100.02
3.10113	100.02
3.11780	100.01
3.13447	100.02
3.15113	100.02
3.16780	100.02
3.18447	100.02
3.20113	100.02
3.21780	100.03
3.23447	100.02
3.25113	100.02
3.26780	100.03
3.28447	100.02
3.30113	100.03
3.31780	100.03
3.33447	100.03
3.35113	100.03
3.36780	100.03
3.38447	100.03
3.40113	100.03
3.41780	100.03
3.43447	100.03
3.45113	100.03
3.46780	100.03
3.48447	100.03
3.50113	100.03
3.51780	100.03
3.53447	100.03
3.55113	100.03
3.56780	100.03
3.58447	100.03
3.60113	100.03
3.61780	100.03
3.63447	100.03
3.65113	100.03
3.66780	100.03
3.68447	100.02
3.70113	100.03
3.71780	100.03
3.73447	100.03
3.75113	100.03
3.76780	100.03
3.78447	100.03
3.80113	100.03
3.81780	100.04
3.83447	100.03
3.85113	100.03
3.86780	100.03
3.88447	100.03
3.90113	100.03
3.91780	100.03
3.93447	100.04
3.95113	100.03
3.96780	100.03
3.98447	100.04

[Status Trace (Carrier Gas Pressure)]
Interval(msec)	1000
# of Points	240
Start Time(min)	0.001
End Time(min)	3.984
Intensity Units	
Intensity Multiplier	1
R.Time (min)	Intensity
0.00113	58.00
0.01780	56.45
0.03447	56.08
0.05113	58.42
0.06780	59.89
0.08447	58.39
0.10113	57.97
0.11780	58.00
0.13447	58.01
0.15113	58.01
0.16780	58.00
0.18447	58.00
0.20113	58.00
0.21780	58.00
0.23447	58.00
0.25113	58.00
0.26780	58.00
0.28447	58.00
0.30113	58.00
0.31780	58.00
0.33447	58.00
0.35113	58.00
0.36780	58.00
0.38447	58.00
0.40113	58.00
0.41780	58.00
0.43447	58.00
0.45113	58.00
0.46780	58.00
0.48447	58.00
0.50113	58.00
0.51780	58.00
0.53447	58.00
0.55113	58.00
0.56780	58.00
0.58447	58.00
0.60113	58.00
0.61780	58.00
0.63447	58.00
0.65113	58.00
0.66780	58.00
0.68447	58.00
0.70113	58.00
0.71780	58.00
0.73447	58.00
0.75113	58.00
0.76780	58.00
0.78447	58.00
0.80113	58.00
0.81780	58.00
0.83447	58.00
0.85113	58.00
0.86780	58.00
0.88447	58.00
0.90113	58.00
0.91780	58.00
0.93447	58.00
0.95113	58.00
0.96780	58.00
0.98447	58.00
1.00113	58.00
1.01780	58.00
1.03447	58.00
1.05113	58.00
1.06780	58.00
1.08447	58.00
1.10113	58.00
1.11780	58.00
1.13447	58.00
1.15113	58.00
1.16780	58.00
1.18447	58.00
1.20113	58.00
1.21780	58.00
1.23447	58.00
1.25113	58.00
1.26780	58.00
1.28447	58.00
1.30113	58.00
1.31780	58.00
1.33447	58.00
1.35113	58.00
1.36780	58.00
1.38447	58.00
1.40113	58.00
1.41780	58.00
1.43447	58.00
1.45113	58.00
1.46780	58.00
1.48447	58.00
1.50113	58.00
1.51780	58.00
1.53447	58.00
1.55113	58.00
1.56780	58.00
1.58447	58.00
1.60113	58.00
1.61780	58.00
1.63447	58.00
1.65113	58.00
1.66780	58.01
1.68447	58.01
1.70113	58.00
1.71780	58.00
1.73447	58.00
1.75113	58.00
1.76780	58.00
1.78447	58.00
1.80113	58.00
1.81780	58.00
1.83447	58.00
1.85113	58.00
1.86780	58.00
1.88447	58.00
1.90113	58.00
1.91780	58.00
1.93447	58.00
1.95113	58.00
1.96780	58.00
1.98447	58.00
2.00113	58.00
2.01780	58.00
2.03447	58.00
2.05113	58.00
2.06780	58.00
2.08447	58.00
2.10113	58.00
2.11780	58.00
2.13447	58.00
2.15113	58.00
2.16780	58.00
2.18447	58.00
2.20113	58.00
2.21780	58.00
2.23447	58.00
2.25113	58.00
2.26780	58.00
2.28447	58.00
2.30113	58.00
2.31780	58.00
2.33447	58.00
2.35113	58.00
2.36780	58.00
2.38447	57.99
2.40113	57.99
2.41780	58.00
2.43447	58.00
2.45113	58.00
2.46780	58.00
2.48447	58.00
2.50113	58.00
2.51780	57.99
2.53447	57.99
2.55113	58.00
2.56780	58.00
2.58447	58.00
2.60113	58.00
2.61780	58.00
2.63447	58.00
2.65113	58.00
2.66780	58.00
2.68447	58.00
2.70113	58.00
2.71780	58.00
2.73447	58.00
2.75113	58.00
2.76780	58.00
2.78447	58.00
2.80113	58.00
2.81780	58.00
2.83447	58.00
2.85113	58.00
2.86780	58.00
2.88447	58.00
2.90113	58.00
2.91780	58.00
2.93447	58.00
2.95113	58.00
2.96780	58.00
2.98447	58.00
3.00113	58.00
3.01780	58.00
3.03447	58.00
3.05113	58.00
3.06780	58.00
3.08447	58.00
3.10113	58.00
3.11780	58.00
3.13447	58.00
3.15113	58.00
3.16780	58.00
3.18447	58.00
3.20113	58.00
3.21780	58.00
3.23447	58.00
3.25113	58.00
3.26780	58.00
3.28447	58.00
3.30113	58.00
3.31780	58.00
3.33447	58.00
3.35113	58.00
3.36780	58.00
3.38447	58.00
3.40113	58.00
3.41780	58.00
3.43447	58.00
3.45113	58.00
3.46780	58.00
3.48447	58.00
3.50113	58.00
3.51780	58.00
3.53447	58.00
3.55113	58.00
3.56780	58.00
3.58447	58.00
3.60113	58.00
3.61780	58.00
3.63447	58.00
3.65113	58.00
3.66780	58.00
3.68447	58.00
3.70113	58.00
3.71780	58.00
3.73447	58.00
3.75113	58.00
3.76780	58.00
3.78447	58.00
3.80113	58.00
3.81780	58.00
3.83447	58.00
3.85113	58.00
3.86780	58.00
3.88447	58.00
3.90113	58.00
3.91780	58.00
3.93447	58.00
3.95113	58.00
3.96780	58.00
3.98447	58.00

[Status Trace (Carrier Gas Flow)]
Interval(msec)	1000
# of Points	240
Start Time(min)	0.001
End Time(min)	3.984
Intensity Units	
Intensity Multiplier	1
R.Time (min)	Intensity
0.00113	34.52
0.01780	34.33
0.03447	34.55
0.05113	34.54
0.06780	34.49
0.08447	34.51
0.10113	34.52
0.11780	34.52
0.13447	34.52
0.15113	34.52
0.16780	34.52
0.18447	34.52
0.20113	34.52
0.21780	34.52
0.23447	34.52
0.25113	34.52
0.26780	34.52
0.28447	34.52
0.30113	34.52
0.31780	34.52
0.33447	34.51
0.35113	34.51
0.36780	34.52
0.38447	34.53
0.40113	34.52
0.41780	34.52
0.43447	34.52
0.45113	34.52
0.46780	34.52
0.48447	34.52
0.50113	34.52
0.51780	34.52
0.53447	34.52
0.55113	34.51
0.56780	34.52
0.58447	34.52
0.60113	34.52
0.61780	34.52
0.63447	34.52
0.65113	34.52
0.66780	34.52
0.68447	34.52
0.70113	34.52
0.71780	34.52
0.73447	34.52
0.75113	34.52
0.76780	34.52
0.78447	34.52
0.80113	34.51
0.81780	34.51
0.83447	34.52
0.85113	34.52
0.86780	34.52
0.88447	34.52
0.90113	34.52
0.91780	34.52
0.93447	34.52
0.95113	34.52
0.96780	34.52
0.98447	34.52
1.00113	34.51
1.01780	34.52
1.03447	34.52
1.05113	34.52
1.06780	34.52
1.08447	34.51
1.10113	34.52
1.11780	34.51
1.13447	34.52
1.15113	34.52
1.16780	34.52
1.18447	34.52
1.20113	34.52
1.21780	34.52
1.23447	34.52
1.25113	34.52
1.26780	34.52
1.28447	34.52
1.30113	34.52
1.31780	34.52
1.33447	34.52
1.35113	34.52
1.36780	34.52
1.38447	34.52
1.40113	34.52
1.41780	34.52
1.43447	34.52
1.45113	34.51
1.46780	34.52
1.48447	34.52
1.50113	34.52
1.51780	34.52
1.53447	34.52
1.55113	34.52
1.56780	34.52
1.58447	34.51
1.60113	34.52
1.61780	34.52
1.63447	34.52
1.65113	34.52
1.66780	34.52
1.68447	34.51
1.70113	34.52
1.71780	34.52
1.73447	34.52
1.75113	34.52
1.76780	34.51
1.78447	34.52
1.80113	34.52
1.81780	34.52
1.83447	34.52
1.85113	34.52
1.86780	34.52
1.88447	34.52
1.90113	34.52
1.91780	34.52
1.93447	34.52
1.95113	34.52
1.96780	34.52
1.98447	34.51
2.00113	34.52
2.01780	34.52
2.03447	34.52
2.05113	34.52
2.06780	34.52
2.08447	34.52
2.10113	34.52
2.11780	34.51
2.13447	34.52
2.15113	34.52
2.16780	34.52
2.18447	34.52
2.20113	34.52
2.21780	34.52
2.23447	34.52
2.25113	34.51
2.26780	34.52
2.28447	34.51
2.30113	34.52
2.31780	34.52
2.33447	34.52
2.35113	34.52
2.36780	34.52
2.38447	34.53
2.40113	34.51
2.41780	34.53
2.43447	34.52
2.45113	34.52
2.46780	34.52
2.48447	34.52
2.50113	34.52
2.51780	34.52
2.53447	34.52
2.55113	34.52
2.56780	34.52
2.58447	34.52
2.60113	34.52
2.61780	34.52
2.63447	34.51
2.65113	34.52
2.66780	34.52
2.68447	34.52
2.70113	34.52
2.71780	34.52
2.73447	34.51
2.75113	34.52
2.76780	34.52
2.78447	34.52
2.80113	34.52
2.81780	34.52
2.83447	34.51
2.85113	34.52
2.86780	34.52
2.88447	34.51
2.90113	34.51
2.91780	34.52
2.93447	34.53
2.95113	34.52
2.96780	34.52
2.98447	34.51
3.00113	34.53
3.01780	34.52
3.03447	34.52
3.05113	34.51
3.06780	34.52
3.08447	34.51
3.10113	34.52
3.11780	34.51
3.13447	34.52
3.15113	34.52
3.16780	34.52
3.18447	34.52
3.20113	34.52
3.21780	34.52
3.23447	34.51
3.25113	34.52
3.26780	34.51
3.28447	34.52
3.30113	34.52
3.31780	34.51
3.33447	34.52
3.35113	34.52
3.36780	34.52
3.38447	34.52
3.40113	34.52
3.41780	34.52
3.43447	34.52
3.45113	34.52
3.46780	34.52
3.48447	34.52
3.50113	34.52
3.51780	34.51
3.53447	34.52
3.55113	34.52
3.56780	34.52
3.58447	34.52
3.60113	34.52
3.61780	34.52
3.63447	34.52
3.65113	34.51
3.66780	34.52
3.68447	34.52
3.70113	34.52
3.71780	34.52
3.73447	34.52
3.75113	34.52
3.76780	34.52
3.78447	34.51
3.80113	34.52
3.81780	34.52
3.83447	34.52
3.85113	34.51
3.86780	34.51
3.88447	34.52
3.90113	34.51
3.91780	34.52
3.93447	34.52
3.95113	34.52
3.96780	34.52
3.98447	34.52

[Status Trace (Column Flow)]
Interval(msec)	1000
# of Points	240
Start Time(min)	0.001
End Time(min)	3.984
Intensity Units	
Intensity Multiplier	1
R.Time (min)	Intensity
0.00113	5.53
0.01780	5.35
0.03447	5.31
0.05113	5.58
0.06780	5.75
0.08447	5.58
0.10113	5.53
0.11780	5.53
0.13447	5.53
0.15113	5.53
0.16780	5.53
0.18447	5.53
0.20113	5.53
0.21780	5.53
0.23447	5.53
0.25113	5.53
0.26780	5.53
0.28447	5.53
0.30113	5.53
0.31780	5.53
0.33447	5.53
0.35113	5.53
0.36780	5.53
0.38447	5.53
0.40113	5.53
0.41780	5.53
0.43447	5.53
0.45113	5.53
0.46780	5.53
0.48447	5.53
0.50113	5.53
0.51780	5.53
0.53447	5.53
0.55113	5.53
0.56780	5.53
0.58447	5.53
0.60113	5.53
0.61780	5.53
0.63447	5.53
0.65113	5.53
0.66780	5.53
0.68447	5.53
0.70113	5.53
0.71780	5.53
0.73447	5.53
0.75113	5.53
0.76780	5.53
0.78447	5.53
0.80113	5.53
0.81780	5.53
0.83447	5.53
0.85113	5.53
0.86780	5.53
0.88447	5.53
0.90113	5.53
0.91780	5.53
0.93447	5.53
0.95113	5.53
0.96780	5.53
0.98447	5.53
1.00113	5.53
1.01780	5.53
1.03447	5.53
1.05113	5.53
1.06780	5.53
1.08447	5.53
1.10113	5.53
1.11780	5.53
1.13447	5.53
1.15113	5.53
1.16780	5.53
1.18447	5.53
1.20113	5.53
1.21780	5.53
1.23447	5.53
1.25113	5.53
1.26780	5.53
1.28447	5.53
1.30113	5.53
1.31780	5.53
1.33447	5.53
1.35113	5.53
1.36780	5.53
1.38447	5.53
1.40113	5.53
1.41780	5.53
1.43447	5.53
1.45113	5.53
1.46780	5.53
1.48447	5.53
1.50113	5.53
1.51780	5.53
1.53447	5.53
1.55113	5.53
1.56780	5.53
1.58447	5.53
1.60113	5.53
1.61780	5.53
1.63447	5.53
1.65113	5.52
1.66780	5.51
1.68447	5.50
1.70113	5.49
1.71780	5.48
1.73447	5.46
1.75113	5.45
1.76780	5.44
1.78447	5.43
1.80113	5.42
1.81780	5.41
1.83447	5.40
1.85113	5.39
1.86780	5.38
1.88447	5.37
1.90113	5.36
1.91780	5.35
1.93447	5.34
1.95113	5.33
1.96780	5.32
1.98447	5.31
2.00113	5.31
2.01780	5.30
2.03447	5.29
2.05113	5.28
2.06780	5.27
2.08447	5.26
2.10113	5.25
2.11780	5.24
2.13447	5.23
2.15113	5.22
2.16780	5.21
2.18447	5.20
2.20113	5.19
2.21780	5.18
2.23447	5.17
2.25113	5.16
2.26780	5.15
2.28447	5.14
2.30113	5.13
2.31780	5.13
2.33447	5.12
2.35113	5.11
2.36780	5.10
2.38447	5.10
2.40113	5.10
2.41780	5.10
2.43447	5.10
2.45113	5.10
2.46780	5.10
2.48447	5.10
2.50113	5.10
2.51780	5.10
2.53447	5.10
2.55113	5.10
2.56780	5.10
2.58447	5.10
2.60113	5.09
2.61780	5.09
2.63447	5.09
2.65113	5.09
2.66780	5.09
2.68447	5.09
2.70113	5.09
2.71780	5.09
2.73447	5.09
2.75113	5.09
2.76780	5.09
2.78447	5.09
2.80113	5.09
2.81780	5.09
2.83447	5.09
2.85113	5.09
2.86780	5.09
2.88447	5.09
2.90113	5.09
2.91780	5.09
2.93447	5.09
2.95113	5.09
2.96780	5.09
2.98447	5.09
3.00113	5.09
3.01780	5.09
3.03447	5.09
3.05113	5.09
3.06780	5.09
3.08447	5.09
3.10113	5.09
3.11780	5.09
3.13447	5.09
3.15113	5.09
3.16780	5.09
3.18447	5.09
3.20113	5.09
3.21780	5.09
3.23447	5.09
3.25113	5.09
3.26780	5.09
3.28447	5.09
3.30113	5.09
3.31780	5.09
3.33447	5.09
3.35113	5.09
3.36780	5.09
3.38447	5.09
3.40113	5.09
3.41780	5.09
3.43447	5.09
3.45113	5.09
3.46780	5.09
3.48447	5.09
3.50113	5.09
3.51780	5.09
3.53447	5.09
3.55113	5.09
3.56780	5.09
3.58447	5.09
3.60113	5.09
3.61780	5.09
3.63447	5.09
3.65113	5.09
3.66780	5.09
3.68447	5.09
3.70113	5.09
3.71780	5.09
3.73447	5.09
3.75113	5.09
3.76780	5.09
3.78447	5.09
3.80113	5.09
3.81780	5.09
3.83447	5.09
3.85113	5.09
3.86780	5.09
3.88447	5.09
3.90113	5.09
3.91780	5.09
3.93447	5.09
3.95113	5.09
3.96780	5.09
3.98447	5.09

[Status Trace (Linear Velocity)]
Interval(msec)	1000
# of Points	240
Start Time(min)	0.001
End Time(min)	3.984
Intensity Units	
Intensity Multiplier	1
R.Time (min)	Intensity
0.00113	39.01
0.01780	37.99
0.03447	37.76
0.05113	39.29
0.06780	40.25
0.08447	39.27
0.10113	39.00
0.11780	39.02
0.13447	39.02
0.15113	39.02
0.16780	39.02
0.18447	39.02
0.20113	39.02
0.21780	39.02
0.23447	39.02
0.25113	39.02
0.26780	39.02
0.28447	39.02
0.30113	39.02
0.31780	39.02
0.33447	39.02
0.35113	39.02
0.36780	39.02
0.38447	39.02
0.40113	39.02
0.41780	39.02
0.43447	39.02
0.45113	39.02
0.46780	39.02
0.48447	39.02
0.50113	39.02
0.51780	39.02
0.53447	39.02
0.55113	39.02
0.56780	39.02
0.58447	39.02
0.60113	39.02
0.61780	39.02
0.63447	39.02
0.65113	39.02
0.66780	39.02
0.68447	39.02
0.70113	39.02
0.71780	39.02
0.73447	39.02
0.75113	39.02
0.76780	39.02
0.78447	39.02
0.80113	39.02
0.81780	39.02
0.83447	39.02
0.85113	39.02
0.86780	39.02
0.88447	39.02
0.90113	39.02
0.91780	39.02
0.93447	39.02
0.95113	39.02
0.96780	39.02
0.98447	39.02
1.00113	39.02
1.01780	39.02
1.03447	39.02
1.05113	39.02
1.06780	39.02
1.08447	39.02
1.10113	39.02
1.11780	39.02
1.13447	39.02
1.15113	39.02
1.16780	39.02
1.18447	39.02
1.20113	39.02
1.21780	39.02
1.23447	39.02
1.25113	39.02
1.26780	39.02
1.28447	39.02
1.30113	39.02
1.31780	39.02
1.33447	39.02
1.35113	39.02
1.36780	39.02
1.38447	39.02
1.40113	39.02
1.41780	39.02
1.43447	39.02
1.45113	39.02
1.46780	39.02
1.48447	39.02
1.50113	39.02
1.51780	39.02
1.53447	39.02
1.55113	39.02
1.56780	39.02
1.58447	39.02
1.60113	39.02
1.61780	39.01
1.63447	39.00
1.65113	38.98
1.66780	38.95
1.68447	38.91
1.70113	38.87
1.71780	38.84
1.73447	38.81
1.75113	38.78
1.76780	38.75
1.78447	38.71
1.80113	38.68
1.81780	38.65
1.83447	38.62
1.85113	38.59
1.86780	38.56
1.88447	38.53
1.90113	38.50
1.91780	38.47
1.93447	38.44
1.95113	38.41
1.96780	38.38
1.98447	38.35
2.00113	38.31
2.01780	38.28
2.03447	38.25
2.05113	38.22
2.06780	38.19
2.08447	38.17
2.10113	38.14
2.11780	38.10
2.13447	38.07
2.15113	38.05
2.16780	38.01
2.18447	37.99
2.20113	37.96
2.21780	37.93
2.23447	37.90
2.25113	37.87
2.26780	37.84
2.28447	37.81
2.30113	37.78
2.31780	37.75
2.33447	37.72
2.35113	37.69
2.36780	37.67
2.38447	37.66
2.40113	37.66
2.41780	37.66
2.43447	37.66
2.45113	37.66
2.46780	37.66
2.48447	37.66
2.50113	37.66
2.51780	37.65
2.53447	37.65
2.55113	37.66
2.56780	37.66
2.58447	37.65
2.60113	37.65
2.61780	37.65
2.63447	37.65
2.65113	37.65
2.66780	37.65
2.68447	37.65
2.70113	37.65
2.71780	37.65
2.73447	37.65
2.75113	37.65
2.76780	37.65
2.78447	37.65
2.80113	37.65
2.81780	37.65
2.83447	37.65
2.85113	37.65
2.86780	37.65
2.88447	37.65
2.90113	37.64
2.91780	37.64
2.93447	37.64
2.95113	37.64
2.96780	37.64
2.98447	37.64
3.00113	37.64
3.01780	37.64
3.03447	37.64
3.05113	37.63
3.06780	37.63
3.08447	37.63
3.10113	37.63
3.11780	37.63
3.13447	37.63
3.15113	37.63
3.16780	37.63
3.18447	37.63
3.20113	37.63
3.21780	37.63
3.23447	37.63
3.25113	37.63
3.26780	37.63
3.28447	37.63
3.30113	37.63
3.31780	37.63
3.33447	37.63
3.35113	37.63
3.36780	37.63
3.38447	37.63
3.40113	37.63
3.41780	37.63
3.43447	37.63
3.45113	37.63
3.46780	37.63
3.48447	37.63
3.50113	37.63
3.51780	37.63
3.53447	37.63
3.55113	37.63
3.56780	37.63
3.58447	37.63
3.60113	37.63
3.61780	37.63
3.63447	37.63
3.65113	37.63
3.66780	37.63
3.68447	37.63
3.70113	37.63
3.71780	37.63
3.73447	37.63
3.75113	37.63
3.76780	37.63
3.78447	37.63
3.80113	37.63
3.81780	37.63
3.83447	37.63
3.85113	37.63
3.86780	37.63
3.88447	37.63
3.90113	37.63
3.91780	37.63
3.93447	37.63
3.95113	37.63
3.96780	37.63
3.98447	37.63

