[Header]
Application Name	LabSolutions
Version	5.110
Data File Name	C:\Users\User\Desktop\GC Analyses\Jack\Nachusa Grasslands Sampling\T3 Timepoint July 12th\T3_07122022_017.gcd
Output Date	3/14/2023
Output Time	3:43:30 PM

[File Information]
Type	Data File
Generated	3/13/2023 4:16:44 PM
Generated by	System Administrator
Modified	3/13/2023 4:23:34 PM
Modified by	System Administrator

[Sample Information]
Operator Name	System Administrator
Acquired	3/13/2023 4:19:33 PM
Sample Type	0:Unknown
Level	0
Sample Name	017
Sample ID	017
ISTD Amount1	1
ISTD Amount2	1
ISTD Amount3	1
ISTD Amount4	1
ISTD Amount5	1
ISTD Amount6	1
ISTD Amount7	1
ISTD Amount8	1
ISTD Amount9	1
ISTD Amount10	1
ISTD Amount11	1
ISTD Amount12	1
ISTD Amount13	1
ISTD Amount14	1
ISTD Amount15	1
ISTD Amount16	1
ISTD Amount17	1
ISTD Amount18	1
ISTD Amount19	1
ISTD Amount20	1
ISTD Amount21	1
ISTD Amount22	1
ISTD Amount23	1
ISTD Amount24	1
ISTD Amount25	1
ISTD Amount26	1
ISTD Amount27	1
ISTD Amount28	1
ISTD Amount29	1
ISTD Amount30	1
ISTD Amount31	1
ISTD Amount32	1
Sample Amount	1
Dilution Factor	1
Vial#	16
Injection Volume	1
Injection Count	1
Bar Code	

[Original Files]
Data File	C:\Users\User\Desktop\GC Analyses\Jack\Nachusa Grasslands Sampling\T3 Timepoint July 12th\T3_07122022_017.gcd
Method File	C:\LabSolutions\Data\GHG_4min_2022\ghg3_togas_w_acet_4 min_new_int.gcm
Batch File	C:\LabSolutions\Data\AutoSamplerTesting\T3_07122022.gcb
Report Format File	c:\LabSolutions\System\DEFAULT.lsr

[File Description]


[Configuration]
Instrument Name	C0B7VH3-Instrument1
Instrument #	1
Line #	1
# of Detectors	3
Detector ID	DET#1	DET#2	DET#3
Detector Name	FID	PTCD	ECD
# of Channels	1	1	1

[Peak Table(Ch1)]
# of Peaks	3
Peak#	R.Time	I.Time	F.Time	Area	Height	A/H	Conc.	Mark	ID#	Name	k'	Plate #	Plate Ht.	Tailing	Resolution	Sep.Factor	Area Ratio	Height Ratio	Conc. %	Norm Conc.
1	1.457	1.443	1.483	967	819	1.181	6.828	   	1	CO	0.000	27015	5.553	1.315	0.000	0.000	0	0	0.728	0.728
2	1.571	1.538	1.659	20767	10454	1.987	401.556	   	2	CH4	0.078	11605	12.926	1.158	2.424	0.000	0	0	42.842	42.842
3	2.000	1.949	2.315	2107425	1013082	2.080	528.907	   	3	CO2	0.372	17553	8.546	1.173	7.227	4.774	0	0	56.429	56.429

[Peak Table(Ch2)]
# of Peaks	0

[Peak Table(Ch3)]
# of Peaks	5
Peak#	R.Time	I.Time	F.Time	Area	Height	A/H	Conc.	Mark	ID#	Name	k'	Plate #	Plate Ht.	Tailing	Resolution	Sep.Factor	Area Ratio	Height Ratio	Conc. %	Norm Conc.
1	2.462	2.334	2.506	1503	509	2.954	0.000	   			0.000	10780	13.915	0.000	0.000	0.000	0	0	0.000	0.000
2	2.528	2.506	2.579	910	297	3.067	0.000	 V 			0.027	5002	29.991	0.000	0.555	0.000	0	0	0.000	0.000
3	2.601	2.579	2.675	469	134	3.485	0.000	 V 			0.057	1515	99.036	0.000	0.357	2.111	0	0	0.000	0.000
4	2.880	2.689	3.111	58999	15094	3.909	1.507	   	1	N2O	0.170	12689	11.821	1.556	1.508	3.000	0	0	100.000	100.000
5	3.280	3.115	3.995	19322	667	28.969	0.000	   	2	SF6	0.332	281	533.430	2.582	0.904	1.956	0	0	0.000	0.000

[Compound Results(Ch1)]
# of IDs	6
ID#	Name	R.Time	Area	Height	Conc.	Curve	3rd	2nd	1st	Constant	Area Ratio	Height Ratio	Conc. %	Norm Conc.
1	CO	1.457	967	819	6.828	Linear	0.000000e+00	0.000000e+00	1.416423e+002	0.000000e+00	0	0	0.728	0.728
2	CH4	1.571	20767	10454	401.556	Linear	0.000000e+00	0.000000e+00	5.171738e+001	0.000000e+00	0	0	42.842	42.842
3	CO2	2.000	2107425	1013082	528.907	Linear	0.000000e+00	0.000000e+00	3.984494e+003	0.000000e+00	0	0	56.429	56.429
4	Ethylene	0.000	0	0	0.000	Linear	0.000000e+00	0.000000e+00	0.000000e+00	0.000000e+00	0	0	0.000	0.000
5	Acetylene	0.000	0	0	0.000	Linear	0.000000e+00	0.000000e+00	0.000000e+00	0.000000e+00	0	0	0.000	0.000
6	Ethane	0.000	0	0	0.000	Linear	0.000000e+00	0.000000e+00	0.000000e+00	0.000000e+00	0	0	0.000	0.000

[Compound Results(Ch2)]
# of IDs	5
ID#	Name	R.Time	Area	Height	Conc.	Curve	3rd	2nd	1st	Constant	Area Ratio	Height Ratio	Conc. %	Norm Conc.
1	Hydrogen	0.000	0	0	0.000	Linear	0.000000e+00	0.000000e+00	0.000000e+00	0.000000e+00	0	0	0.000	0.000
2	Oxygen	0.000	0	0	0.000	Linear	0.000000e+00	0.000000e+00	0.000000e+00	0.000000e+00	0	0	0.000	0.000
3	Nitrogen	0.000	0	0	0.000	Linear	0.000000e+00	0.000000e+00	0.000000e+00	0.000000e+00	0	0	0.000	0.000
4	Methane	0.000	0	0	0.000	Linear	0.000000e+00	0.000000e+00	0.000000e+00	0.000000e+00	0	0	0.000	0.000
5	Carbon Monoxide	0.000	0	0	0.000	Linear	0.000000e+00	0.000000e+00	0.000000e+00	0.000000e+00	0	0	0.000	0.000

[Compound Results(Ch3)]
# of IDs	2
ID#	Name	R.Time	Area	Height	Conc.	Curve	3rd	2nd	1st	Constant	Area Ratio	Height Ratio	Conc. %	Norm Conc.
1	N2O	2.880	58999	15094	1.507	Linear	0.000000e+00	0.000000e+00	3.915173e+004	0.000000e+00	0	0	100.000	100.000
2	SF6	3.280	19322	667	0.000	Linear	0.000000e+00	0.000000e+00	0.000000e+00	0.000000e+00	0	0	0.000	0.000

[Group Results(Ch1)]
# of Groups	0

[Group Results(Ch2)]
# of Groups	0

[Group Results(Ch3)]
# of Groups	0

[Chromatogram (Ch1)]
Interval(msec)	220
# of Points	1091
Start Time(min)	0.002
End Time(min)	3.998
R.Time (min)	Intensity
0.00167	2
0.00533	6
0.00900	11
0.01267	16
0.01633	17
0.02000	17
0.02367	17
0.02733	16
0.03100	21
0.03467	30
0.03833	32
0.04200	25
0.04567	20
0.04933	18
0.05300	16
0.05667	18
0.06033	27
0.06400	36
0.06767	43
0.07133	48
0.07500	53
0.07867	58
0.08233	61
0.08600	61
0.08967	61
0.09333	64
0.09700	76
0.10067	89
0.10433	97
0.10800	99
0.11167	97
0.11533	91
0.11900	86
0.12267	81
0.12633	79
0.13000	82
0.13367	86
0.13733	86
0.14100	83
0.14467	79
0.14833	76
0.15200	67
0.15567	57
0.15933	53
0.16300	53
0.16667	52
0.17033	52
0.17400	52
0.17767	49
0.18133	42
0.18500	34
0.18867	28
0.19233	23
0.19600	22
0.19967	21
0.20333	24
0.20700	29
0.21067	28
0.21433	19
0.21800	15
0.22167	18
0.22533	23
0.22900	24
0.23267	21
0.23633	19
0.24000	15
0.24367	12
0.24733	13
0.25100	12
0.25467	8
0.25833	6
0.26200	6
0.26567	8
0.26933	9
0.27300	6
0.27667	-1
0.28033	-8
0.28400	-11
0.28767	-11
0.29133	-8
0.29500	-3
0.29867	4
0.30233	9
0.30600	10
0.30967	10
0.31333	9
0.31700	5
0.32067	-2
0.32433	-12
0.32800	-20
0.33167	-22
0.33533	-21
0.33900	-21
0.34267	-20
0.34633	-23
0.35000	-25
0.35367	-22
0.35733	-18
0.36100	-12
0.36467	-5
0.36833	3
0.37200	7
0.37567	5
0.37933	7
0.38300	9
0.38667	6
0.39033	2
0.39400	-5
0.39767	-9
0.40133	-13
0.40500	-18
0.40867	-22
0.41233	-25
0.41600	-25
0.41967	-23
0.42333	-22
0.42700	-19
0.43067	-14
0.43433	-11
0.43800	-9
0.44167	-9
0.44533	-14
0.44900	-20
0.45267	-23
0.45633	-23
0.46000	-21
0.46367	-15
0.46733	-6
0.47100	7
0.47467	21
0.47833	21
0.48200	12
0.48567	2
0.48933	-8
0.49300	-13
0.49667	-14
0.50033	-12
0.50400	-8
0.50767	-6
0.51133	-8
0.51500	-16
0.51867	-23
0.52233	-26
0.52600	-26
0.52967	-24
0.53333	-25
0.53700	-22
0.54067	-9
0.54433	3
0.54800	6
0.55167	3
0.55533	0
0.55900	-7
0.56267	-18
0.56633	-29
0.57000	-38
0.57367	-43
0.57733	-47
0.58100	-47
0.58467	-42
0.58833	-39
0.59200	-36
0.59567	-30
0.59933	-24
0.60300	-22
0.60667	-20
0.61033	-16
0.61400	-8
0.61767	-3
0.62133	-8
0.62500	-15
0.62867	-19
0.63233	-22
0.63600	-23
0.63967	-21
0.64333	-18
0.64700	-14
0.65067	-10
0.65433	-6
0.65800	-4
0.66167	-4
0.66533	-3
0.66900	-1
0.67267	-1
0.67633	-7
0.68000	-16
0.68367	-19
0.68733	-21
0.69100	-24
0.69467	-24
0.69833	-21
0.70200	-17
0.70567	-16
0.70933	-17
0.71300	-19
0.71667	-21
0.72033	-22
0.72400	-21
0.72767	-22
0.73133	-25
0.73500	-30
0.73867	-34
0.74233	-37
0.74600	-37
0.74967	-32
0.75333	-28
0.75700	-25
0.76067	-18
0.76433	-9
0.76800	-7
0.77167	-12
0.77533	-18
0.77900	-25
0.78267	-33
0.78633	-35
0.79000	-29
0.79367	-25
0.79733	-24
0.80100	-21
0.80467	-23
0.80833	-30
0.81200	-34
0.81567	-39
0.81933	-42
0.82300	-42
0.82667	-41
0.83033	-41
0.83400	-38
0.83767	-36
0.84133	-34
0.84500	-28
0.84867	-18
0.85233	-9
0.85600	-7
0.85967	-5
0.86333	-1
0.86700	7
0.87067	12
0.87433	13
0.87800	13
0.88167	12
0.88533	9
0.88900	4
0.89267	-0
0.89633	-4
0.90000	-9
0.90367	-12
0.90733	-12
0.91100	-10
0.91467	-5
0.91833	2
0.92200	8
0.92567	8
0.92933	2
0.93300	-4
0.93667	-6
0.94033	-4
0.94400	0
0.94767	8
0.95133	14
0.95500	17
0.95867	20
0.96233	25
0.96600	26
0.96967	23
0.97333	17
0.97700	9
0.98067	1
0.98433	-4
0.98800	-6
0.99167	-10
0.99533	-11
0.99900	-11
1.00267	-11
1.00633	-8
1.01000	1
1.01367	7
1.01733	6
1.02100	6
1.02467	1
1.02833	-7
1.03200	-12
1.03567	-13
1.03933	-14
1.04300	-15
1.04667	-18
1.05033	-17
1.05400	-12
1.05767	-4
1.06133	1
1.06500	2
1.06867	0
1.07233	-1
1.07600	-2
1.07967	-2
1.08333	-4
1.08700	-4
1.09067	0
1.09433	4
1.09800	6
1.10167	8
1.10533	7
1.10900	-1
1.11267	-8
1.11633	-16
1.12000	-21
1.12367	-18
1.12733	-15
1.13100	-17
1.13467	-20
1.13833	-21
1.14200	-20
1.14567	-14
1.14933	-11
1.15300	-10
1.15667	-9
1.16033	-7
1.16400	-7
1.16767	-8
1.17133	-6
1.17500	-4
1.17867	1
1.18233	3
1.18600	-1
1.18967	-2
1.19333	0
1.19700	-4
1.20067	-10
1.20433	-13
1.20800	-13
1.21167	-15
1.21533	-17
1.21900	-16
1.22267	-10
1.22633	-9
1.23000	-18
1.23367	-28
1.23733	-32
1.24100	-30
1.24467	-23
1.24833	-13
1.25200	-7
1.25567	-1
1.25933	2
1.26300	3
1.26667	-2
1.27033	-12
1.27400	-22
1.27767	-31
1.28133	-37
1.28500	-38
1.28867	-33
1.29233	-22
1.29600	-11
1.29967	-6
1.30333	-14
1.30700	-27
1.31067	-33
1.31433	-29
1.31800	-19
1.32167	-6
1.32533	5
1.32900	10
1.33267	5
1.33633	-2
1.34000	-10
1.34367	-13
1.34733	-14
1.35100	-15
1.35467	-19
1.35833	-19
1.36200	-19
1.36567	-24
1.36933	-32
1.37300	-43
1.37667	-51
1.38033	-52
1.38400	-50
1.38767	-49
1.39133	-50
1.39500	-53
1.39867	-51
1.40233	-46
1.40600	-39
1.40967	-31
1.41333	-24
1.41700	-16
1.42067	-12
1.42433	-16
1.42800	-20
1.43167	-23
1.43533	-24
1.43900	-14
1.44267	28
1.44633	184
1.45000	475
1.45367	708
1.45733	768
1.46100	680
1.46467	506
1.46833	303
1.47200	117
1.47567	-26
1.47933	-122
1.48300	-189
1.48667	-244
1.49033	-293
1.49400	-338
1.49767	-379
1.50133	-415
1.50500	-445
1.50867	-467
1.51233	-479
1.51600	-481
1.51967	-472
1.52333	-455
1.52700	-435
1.53067	-422
1.53433	-417
1.53800	-374
1.54167	-141
1.54533	568
1.54900	1964
1.55267	3904
1.55633	5972
1.56000	7792
1.56367	9171
1.56733	9995
1.57100	10130
1.57467	9476
1.57833	8142
1.58200	6456
1.58567	4779
1.58933	3345
1.59300	2238
1.59667	1437
1.60033	877
1.60400	498
1.60767	248
1.61133	89
1.61500	-6
1.61867	-59
1.62233	-92
1.62600	-118
1.62967	-135
1.63333	-148
1.63700	-154
1.64067	-157
1.64433	-160
1.64800	-166
1.65167	-175
1.65533	-184
1.65900	-189
1.66267	-189
1.66633	-184
1.67000	-179
1.67367	-173
1.67733	-165
1.68100	-156
1.68467	-151
1.68833	-149
1.69200	-149
1.69567	-150
1.69933	-153
1.70300	-151
1.70667	-144
1.71033	-135
1.71400	-126
1.71767	-124
1.72133	-130
1.72500	-138
1.72867	-143
1.73233	-143
1.73600	-141
1.73967	-139
1.74333	-136
1.74700	-136
1.75067	-144
1.75433	-152
1.75800	-155
1.76167	-154
1.76533	-153
1.76900	-153
1.77267	-152
1.77633	-150
1.78000	-147
1.78367	-140
1.78733	-132
1.79100	-123
1.79467	-113
1.79833	-107
1.80200	-106
1.80567	-103
1.80933	-93
1.81300	-84
1.81667	-83
1.82033	-87
1.82400	-91
1.82767	-93
1.83133	-98
1.83500	-104
1.83867	-111
1.84233	-117
1.84600	-111
1.84967	-100
1.85333	-94
1.85700	-92
1.86067	-92
1.86433	-93
1.86800	-95
1.87167	-96
1.87533	-99
1.87900	-101
1.88267	-104
1.88633	-109
1.89000	-109
1.89367	-110
1.89733	-109
1.90100	-103
1.90467	-97
1.90833	-92
1.91200	-92
1.91567	-97
1.91933	-99
1.92300	-99
1.92667	-99
1.93033	-97
1.93400	-93
1.93767	-91
1.94133	-89
1.94500	-87
1.94867	-80
1.95233	-59
1.95600	42
1.95967	634
1.96333	3556
1.96700	14651
1.97067	46919
1.97433	119274
1.97800	245414
1.98167	419695
1.98533	615119
1.98900	796933
1.99267	935352
1.99633	1010335
2.00000	1013044
2.00367	947042
2.00733	828207
2.01100	680786
2.01467	529807
2.01833	394045
2.02200	283039
2.02567	198374
2.02933	136945
2.03300	93907
2.03667	64448
2.04033	44565
2.04400	31236
2.04767	22308
2.05133	16300
2.05500	12214
2.05867	9392
2.06233	7410
2.06600	5989
2.06967	4946
2.07333	4158
2.07700	3551
2.08067	3074
2.08433	2696
2.08800	2396
2.09167	2156
2.09533	1956
2.09900	1781
2.10267	1633
2.10633	1505
2.11000	1395
2.11367	1298
2.11733	1213
2.12100	1136
2.12467	1068
2.12833	1010
2.13200	956
2.13567	902
2.13933	852
2.14300	809
2.14667	773
2.15033	739
2.15400	705
2.15767	676
2.16133	653
2.16500	631
2.16867	608
2.17233	585
2.17600	565
2.17967	547
2.18333	530
2.18700	512
2.19067	497
2.19433	485
2.19800	474
2.20167	463
2.20533	450
2.20900	437
2.21267	424
2.21633	413
2.22000	400
2.22367	387
2.22733	375
2.23100	362
2.23467	344
2.23833	329
2.24200	316
2.24567	305
2.24933	295
2.25300	288
2.25667	280
2.26033	269
2.26400	259
2.26767	252
2.27133	248
2.27500	248
2.27867	252
2.28233	254
2.28600	254
2.28967	251
2.29333	247
2.29700	245
2.30067	244
2.30433	236
2.30800	227
2.31167	223
2.31533	217
2.31900	212
2.32267	209
2.32633	205
2.33000	203
2.33367	202
2.33733	202
2.34100	207
2.34467	215
2.34833	222
2.35200	227
2.35567	227
2.35933	218
2.36300	206
2.36667	196
2.37033	187
2.37400	183
2.37767	177
2.38133	171
2.38500	169
2.38867	167
2.39233	167
2.39600	164
2.39967	158
2.40333	157
2.40700	155
2.41067	156
2.41433	161
2.41800	163
2.42167	168
2.42533	179
2.42900	189
2.43267	192
2.43633	185
2.44000	170
2.44367	154
2.44733	140
2.45100	133
2.45467	126
2.45833	120
2.46200	119
2.46567	123
2.46933	128
2.47300	136
2.47667	144
2.48033	150
2.48400	153
2.48767	156
2.49133	156
2.49500	149
2.49867	141
2.50233	134
2.50600	131
2.50967	129
2.51333	132
2.51700	134
2.52067	132
2.52433	129
2.52800	133
2.53167	137
2.53533	136
2.53900	133
2.54267	134
2.54633	133
2.55000	128
2.55367	122
2.55733	120
2.56100	121
2.56467	122
2.56833	120
2.57200	116
2.57567	111
2.57933	110
2.58300	114
2.58667	122
2.59033	128
2.59400	131
2.59767	131
2.60133	128
2.60500	127
2.60867	123
2.61233	117
2.61600	115
2.61967	116
2.62333	116
2.62700	117
2.63067	117
2.63433	118
2.63800	120
2.64167	123
2.64533	124
2.64900	127
2.65267	129
2.65633	131
2.66000	129
2.66367	126
2.66733	121
2.67100	114
2.67467	107
2.67833	102
2.68200	101
2.68567	106
2.68933	113
2.69300	113
2.69667	107
2.70033	103
2.70400	106
2.70767	113
2.71133	120
2.71500	126
2.71867	131
2.72233	132
2.72600	130
2.72967	127
2.73333	123
2.73700	118
2.74067	110
2.74433	105
2.74800	104
2.75167	102
2.75533	98
2.75900	96
2.76267	97
2.76633	97
2.77000	96
2.77367	95
2.77733	94
2.78100	96
2.78467	101
2.78833	108
2.79200	111
2.79567	111
2.79933	110
2.80300	111
2.80667	113
2.81033	114
2.81400	109
2.81767	107
2.82133	106
2.82500	108
2.82867	108
2.83233	105
2.83600	107
2.83967	115
2.84333	126
2.84700	133
2.85067	137
2.85433	140
2.85800	136
2.86167	129
2.86533	123
2.86900	118
2.87267	117
2.87633	113
2.88000	108
2.88367	105
2.88733	98
2.89100	93
2.89467	87
2.89833	81
2.90200	79
2.90567	81
2.90933	83
2.91300	86
2.91667	87
2.92033	91
2.92400	97
2.92767	100
2.93133	102
2.93500	101
2.93867	101
2.94233	104
2.94600	106
2.94967	110
2.95333	113
2.95700	110
2.96067	107
2.96433	107
2.96800	102
2.97167	93
2.97533	85
2.97900	83
2.98267	86
2.98633	92
2.99000	100
2.99367	105
2.99733	108
3.00100	108
3.00467	108
3.00833	110
3.01200	109
3.01567	101
3.01933	91
3.02300	88
3.02667	91
3.03033	90
3.03400	89
3.03767	90
3.04133	93
3.04500	93
3.04867	96
3.05233	98
3.05600	96
3.05967	98
3.06333	102
3.06700	101
3.07067	97
3.07433	90
3.07800	84
3.08167	81
3.08533	77
3.08900	76
3.09267	77
3.09633	82
3.10000	90
3.10367	94
3.10733	94
3.11100	87
3.11467	78
3.11833	73
3.12200	71
3.12567	70
3.12933	68
3.13300	65
3.13667	64
3.14033	73
3.14400	87
3.14767	102
3.15133	114
3.15500	113
3.15867	104
3.16233	94
3.16600	84
3.16967	77
3.17333	75
3.17700	71
3.18067	63
3.18433	55
3.18800	48
3.19167	41
3.19533	34
3.19900	33
3.20267	37
3.20633	42
3.21000	45
3.21367	48
3.21733	52
3.22100	58
3.22467	61
3.22833	60
3.23200	54
3.23567	47
3.23933	45
3.24300	47
3.24667	51
3.25033	56
3.25400	58
3.25767	59
3.26133	61
3.26500	61
3.26867	61
3.27233	60
3.27600	61
3.27967	70
3.28333	79
3.28700	83
3.29067	83
3.29433	77
3.29800	65
3.30167	51
3.30533	39
3.30900	31
3.31267	29
3.31633	35
3.32000	44
3.32367	50
3.32733	52
3.33100	47
3.33467	47
3.33833	46
3.34200	40
3.34567	32
3.34933	29
3.35300	31
3.35667	37
3.36033	42
3.36400	46
3.36767	45
3.37133	42
3.37500	38
3.37867	38
3.38233	41
3.38600	43
3.38967	44
3.39333	46
3.39700	49
3.40067	48
3.40433	44
3.40800	42
3.41167	42
3.41533	44
3.41900	42
3.42267	41
3.42633	43
3.43000	47
3.43367	47
3.43733	46
3.44100	45
3.44467	48
3.44833	49
3.45200	44
3.45567	41
3.45933	44
3.46300	47
3.46667	52
3.47033	58
3.47400	58
3.47767	58
3.48133	65
3.48500	74
3.48867	77
3.49233	70
3.49600	53
3.49967	31
3.50333	13
3.50700	3
3.51067	-1
3.51433	-1
3.51800	-1
3.52167	-3
3.52533	-3
3.52900	-4
3.53267	-6
3.53633	-6
3.54000	-4
3.54367	1
3.54733	1
3.55100	0
3.55467	4
3.55833	14
3.56200	24
3.56567	27
3.56933	27
3.57300	28
3.57667	25
3.58033	20
3.58400	13
3.58767	5
3.59133	-1
3.59500	-6
3.59867	-7
3.60233	-3
3.60600	7
3.60967	18
3.61333	26
3.61700	29
3.62067	27
3.62433	22
3.62800	22
3.63167	24
3.63533	21
3.63900	16
3.64267	13
3.64633	14
3.65000	14
3.65367	12
3.65733	7
3.66100	10
3.66467	19
3.66833	24
3.67200	24
3.67567	22
3.67933	18
3.68300	12
3.68667	3
3.69033	-6
3.69400	-11
3.69767	-13
3.70133	-14
3.70500	-13
3.70867	-14
3.71233	-17
3.71600	-23
3.71967	-31
3.72333	-35
3.72700	-32
3.73067	-25
3.73433	-16
3.73800	-5
3.74167	4
3.74533	9
3.74900	10
3.75267	8
3.75633	7
3.76000	8
3.76367	5
3.76733	1
3.77100	1
3.77467	-1
3.77833	-7
3.78200	-10
3.78567	-7
3.78933	-8
3.79300	-9
3.79667	-5
3.80033	2
3.80400	8
3.80767	7
3.81133	6
3.81500	6
3.81867	5
3.82233	-0
3.82600	-6
3.82967	-10
3.83333	-8
3.83700	-6
3.84067	-9
3.84433	-14
3.84800	-21
3.85167	-26
3.85533	-29
3.85900	-25
3.86267	-15
3.86633	-5
3.87000	1
3.87367	3
3.87733	-3
3.88100	-7
3.88467	-7
3.88833	-3
3.89200	2
3.89567	2
3.89933	-4
3.90300	-11
3.90667	-16
3.91033	-18
3.91400	-18
3.91767	-21
3.92133	-27
3.92500	-36
3.92867	-44
3.93233	-48
3.93600	-47
3.93967	-42
3.94333	-38
3.94700	-35
3.95067	-32
3.95433	-26
3.95800	-19
3.96167	-14
3.96533	-16
3.96900	-20
3.97267	-26
3.97633	-34
3.98000	-39
3.98367	-41
3.98733	-40
3.99100	-34
3.99467	-22
3.99833	-8

[Chromatogram (Ch2)]
Interval(msec)	220
# of Points	1091
Start Time(min)	0.002
End Time(min)	3.998
R.Time (min)	Intensity
0.00167	-1
0.00533	-1
0.00900	-1
0.01267	-1
0.01633	-1
0.02000	-1
0.02367	-1
0.02733	-1
0.03100	-2
0.03467	-2
0.03833	-2
0.04200	-2
0.04567	-2
0.04933	-2
0.05300	-2
0.05667	-1
0.06033	-1
0.06400	-1
0.06767	-1
0.07133	-0
0.07500	-0
0.07867	-0
0.08233	0
0.08600	0
0.08967	1
0.09333	1
0.09700	2
0.10067	2
0.10433	2
0.10800	3
0.11167	3
0.11533	3
0.11900	3
0.12267	2
0.12633	2
0.13000	2
0.13367	2
0.13733	1
0.14100	1
0.14467	1
0.14833	0
0.15200	0
0.15567	-0
0.15933	-1
0.16300	-1
0.16667	-1
0.17033	-2
0.17400	-2
0.17767	-2
0.18133	-2
0.18500	-2
0.18867	-3
0.19233	-3
0.19600	-3
0.19967	-3
0.20333	-3
0.20700	-3
0.21067	-3
0.21433	-2
0.21800	-2
0.22167	-2
0.22533	-1
0.22900	-1
0.23267	-1
0.23633	-1
0.24000	-0
0.24367	-0
0.24733	0
0.25100	-0
0.25467	-0
0.25833	-0
0.26200	-1
0.26567	-1
0.26933	-1
0.27300	-1
0.27667	-1
0.28033	-2
0.28400	-2
0.28767	-3
0.29133	-3
0.29500	-4
0.29867	-4
0.30233	-4
0.30600	-4
0.30967	-4
0.31333	-4
0.31700	-3
0.32067	-3
0.32433	-2
0.32800	-2
0.33167	-1
0.33533	-1
0.33900	-0
0.34267	0
0.34633	0
0.35000	0
0.35367	1
0.35733	1
0.36100	1
0.36467	0
0.36833	0
0.37200	0
0.37567	-0
0.37933	-1
0.38300	-1
0.38667	-1
0.39033	-1
0.39400	-2
0.39767	-2
0.40133	-3
0.40500	-3
0.40867	-3
0.41233	-3
0.41600	-3
0.41967	-3
0.42333	-3
0.42700	-3
0.43067	-2
0.43433	-2
0.43800	-2
0.44167	-2
0.44533	-2
0.44900	-1
0.45267	-1
0.45633	-1
0.46000	-1
0.46367	-1
0.46733	-1
0.47100	-1
0.47467	-1
0.47833	-1
0.48200	-1
0.48567	-1
0.48933	-1
0.49300	-1
0.49667	-1
0.50033	-1
0.50400	-2
0.50767	-2
0.51133	-2
0.51500	-2
0.51867	-2
0.52233	-2
0.52600	-2
0.52967	-2
0.53333	-2
0.53700	-2
0.54067	-1
0.54433	-1
0.54800	-0
0.55167	0
0.55533	0
0.55900	1
0.56267	1
0.56633	1
0.57000	1
0.57367	1
0.57733	1
0.58100	1
0.58467	1
0.58833	1
0.59200	1
0.59567	1
0.59933	2
0.60300	2
0.60667	2
0.61033	2
0.61400	2
0.61767	2
0.62133	2
0.62500	1
0.62867	1
0.63233	0
0.63600	-0
0.63967	-1
0.64333	-1
0.64700	-2
0.65067	-2
0.65433	-3
0.65800	-3
0.66167	-3
0.66533	-3
0.66900	-4
0.67267	-4
0.67633	-4
0.68000	-4
0.68367	-4
0.68733	-4
0.69100	-4
0.69467	-4
0.69833	-4
0.70200	-4
0.70567	-4
0.70933	-4
0.71300	-3
0.71667	-3
0.72033	-3
0.72400	-2
0.72767	-2
0.73133	-2
0.73500	-1
0.73867	-1
0.74233	-1
0.74600	-1
0.74967	-1
0.75333	-1
0.75700	-1
0.76067	-1
0.76433	-1
0.76800	-1
0.77167	-1
0.77533	-2
0.77900	-2
0.78267	-1
0.78633	-1
0.79000	-1
0.79367	-1
0.79733	-0
0.80100	-0
0.80467	0
0.80833	0
0.81200	0
0.81567	1
0.81933	1
0.82300	1
0.82667	0
0.83033	0
0.83400	-0
0.83767	-0
0.84133	-1
0.84500	-1
0.84867	-1
0.85233	-2
0.85600	-2
0.85967	-2
0.86333	-3
0.86700	-3
0.87067	-3
0.87433	-4
0.87800	-4
0.88167	-4
0.88533	-4
0.88900	-4
0.89267	-4
0.89633	-5
0.90000	-5
0.90367	-5
0.90733	-5
0.91100	-5
0.91467	-4
0.91833	-4
0.92200	-4
0.92567	-3
0.92933	-3
0.93300	-3
0.93667	-2
0.94033	-2
0.94400	-2
0.94767	-2
0.95133	-2
0.95500	-3
0.95867	-3
0.96233	-3
0.96600	-3
0.96967	-3
0.97333	-3
0.97700	-3
0.98067	-3
0.98433	-2
0.98800	-2
0.99167	-2
0.99533	-2
0.99900	-2
1.00267	-2
1.00633	-2
1.01000	-1
1.01367	-1
1.01733	-1
1.02100	-1
1.02467	-1
1.02833	-1
1.03200	-1
1.03567	-1
1.03933	-2
1.04300	-2
1.04667	-2
1.05033	-2
1.05400	-2
1.05767	-2
1.06133	-2
1.06500	-2
1.06867	-2
1.07233	-2
1.07600	-2
1.07967	-1
1.08333	-1
1.08700	-2
1.09067	-2
1.09433	-2
1.09800	-2
1.10167	-2
1.10533	-2
1.10900	-2
1.11267	-2
1.11633	-3
1.12000	-3
1.12367	-4
1.12733	-4
1.13100	-4
1.13467	-4
1.13833	-4
1.14200	-5
1.14567	-5
1.14933	-4
1.15300	-4
1.15667	-4
1.16033	-4
1.16400	-4
1.16767	-4
1.17133	-4
1.17500	-3
1.17867	-3
1.18233	-3
1.18600	-2
1.18967	-2
1.19333	-2
1.19700	-2
1.20067	-2
1.20433	-2
1.20800	-3
1.21167	-3
1.21533	-3
1.21900	-2
1.22267	-2
1.22633	-2
1.23000	-3
1.23367	-3
1.23733	-3
1.24100	-3
1.24467	-3
1.24833	-3
1.25200	-4
1.25567	-4
1.25933	-4
1.26300	-4
1.26667	-4
1.27033	-4
1.27400	-4
1.27767	-4
1.28133	-4
1.28500	-3
1.28867	-4
1.29233	-4
1.29600	-4
1.29967	-4
1.30333	-4
1.30700	-4
1.31067	-4
1.31433	-4
1.31800	-4
1.32167	-4
1.32533	-4
1.32900	-3
1.33267	-3
1.33633	-3
1.34000	-3
1.34367	-3
1.34733	-3
1.35100	-2
1.35467	-2
1.35833	-2
1.36200	-2
1.36567	-3
1.36933	-3
1.37300	-3
1.37667	-3
1.38033	-3
1.38400	-3
1.38767	-3
1.39133	-3
1.39500	-4
1.39867	-4
1.40233	-5
1.40600	-5
1.40967	-5
1.41333	-5
1.41700	-5
1.42067	-5
1.42433	-5
1.42800	-5
1.43167	-5
1.43533	-5
1.43900	-4
1.44267	-4
1.44633	-4
1.45000	-4
1.45367	-4
1.45733	-4
1.46100	-4
1.46467	-4
1.46833	-3
1.47200	-3
1.47567	-3
1.47933	-3
1.48300	-2
1.48667	-2
1.49033	-2
1.49400	-2
1.49767	-2
1.50133	-2
1.50500	-1
1.50867	-1
1.51233	-1
1.51600	-1
1.51967	-1
1.52333	-1
1.52700	-1
1.53067	-1
1.53433	-1
1.53800	-1
1.54167	-2
1.54533	-2
1.54900	-2
1.55267	-2
1.55633	-2
1.56000	-2
1.56367	-2
1.56733	-2
1.57100	-2
1.57467	-2
1.57833	-2
1.58200	-2
1.58567	-2
1.58933	-2
1.59300	-2
1.59667	-3
1.60033	-4
1.60400	-5
1.60767	-7
1.61133	-9
1.61500	-11
1.61867	-13
1.62233	-16
1.62600	-18
1.62967	-22
1.63333	-25
1.63700	-28
1.64067	-31
1.64433	-35
1.64800	-39
1.65167	-42
1.65533	-46
1.65900	-50
1.66267	-54
1.66633	-59
1.67000	-63
1.67367	-68
1.67733	-73
1.68100	-78
1.68467	-83
1.68833	-87
1.69200	-91
1.69567	-95
1.69933	-97
1.70300	-100
1.70667	-102
1.71033	-103
1.71400	-105
1.71767	-106
1.72133	-107
1.72500	-107
1.72867	-108
1.73233	-108
1.73600	-109
1.73967	-109
1.74333	-109
1.74700	-110
1.75067	-111
1.75433	-111
1.75800	-112
1.76167	-113
1.76533	-114
1.76900	-114
1.77267	-114
1.77633	-114
1.78000	-114
1.78367	-114
1.78733	-113
1.79100	-112
1.79467	-111
1.79833	-111
1.80200	-110
1.80567	-110
1.80933	-110
1.81300	-110
1.81667	-111
1.82033	-111
1.82400	-112
1.82767	-112
1.83133	-113
1.83500	-113
1.83867	-113
1.84233	-113
1.84600	-113
1.84967	-114
1.85333	-114
1.85700	-114
1.86067	-114
1.86433	-115
1.86800	-115
1.87167	-114
1.87533	-114
1.87900	-114
1.88267	-113
1.88633	-113
1.89000	-113
1.89367	-113
1.89733	-113
1.90100	-113
1.90467	-113
1.90833	-113
1.91200	-113
1.91567	-113
1.91933	-113
1.92300	-112
1.92667	-112
1.93033	-111
1.93400	-111
1.93767	-111
1.94133	-110
1.94500	-110
1.94867	-110
1.95233	-110
1.95600	-110
1.95967	-110
1.96333	-110
1.96700	-110
1.97067	-110
1.97433	-110
1.97800	-109
1.98167	-109
1.98533	-109
1.98900	-109
1.99267	-108
1.99633	-108
2.00000	-108
2.00367	-108
2.00733	-108
2.01100	-108
2.01467	-107
2.01833	-107
2.02200	-107
2.02567	-106
2.02933	-105
2.03300	-104
2.03667	-104
2.04033	-103
2.04400	-103
2.04767	-103
2.05133	-102
2.05500	-102
2.05867	-102
2.06233	-102
2.06600	-102
2.06967	-102
2.07333	-101
2.07700	-102
2.08067	-102
2.08433	-102
2.08800	-102
2.09167	-102
2.09533	-102
2.09900	-102
2.10267	-101
2.10633	-101
2.11000	-100
2.11367	-99
2.11733	-99
2.12100	-99
2.12467	-99
2.12833	-99
2.13200	-99
2.13567	-98
2.13933	-98
2.14300	-98
2.14667	-98
2.15033	-97
2.15400	-97
2.15767	-97
2.16133	-96
2.16500	-96
2.16867	-96
2.17233	-96
2.17600	-96
2.17967	-96
2.18333	-96
2.18700	-95
2.19067	-94
2.19433	-94
2.19800	-93
2.20167	-92
2.20533	-91
2.20900	-91
2.21267	-90
2.21633	-89
2.22000	-89
2.22367	-89
2.22733	-88
2.23100	-88
2.23467	-88
2.23833	-88
2.24200	-88
2.24567	-87
2.24933	-87
2.25300	-86
2.25667	-86
2.26033	-86
2.26400	-86
2.26767	-86
2.27133	-86
2.27500	-87
2.27867	-86
2.28233	-86
2.28600	-86
2.28967	-85
2.29333	-84
2.29700	-83
2.30067	-83
2.30433	-83
2.30800	-82
2.31167	-82
2.31533	-81
2.31900	-80
2.32267	-80
2.32633	-79
2.33000	-78
2.33367	-78
2.33733	-78
2.34100	-77
2.34467	-78
2.34833	-78
2.35200	-78
2.35567	-78
2.35933	-78
2.36300	-77
2.36667	-76
2.37033	-74
2.37400	-71
2.37767	-68
2.38133	-64
2.38500	-60
2.38867	-55
2.39233	-50
2.39600	-45
2.39967	-40
2.40333	-35
2.40700	-31
2.41067	-27
2.41433	-23
2.41800	-20
2.42167	-18
2.42533	-16
2.42900	-14
2.43267	-13
2.43633	-12
2.44000	-11
2.44367	-10
2.44733	-10
2.45100	-9
2.45467	-9
2.45833	-9
2.46200	-8
2.46567	-7
2.46933	-6
2.47300	-4
2.47667	-3
2.48033	-1
2.48400	-0
2.48767	1
2.49133	1
2.49500	2
2.49867	2
2.50233	3
2.50600	4
2.50967	4
2.51333	5
2.51700	5
2.52067	6
2.52433	7
2.52800	8
2.53167	9
2.53533	9
2.53900	10
2.54267	11
2.54633	11
2.55000	12
2.55367	12
2.55733	12
2.56100	12
2.56467	12
2.56833	13
2.57200	13
2.57567	14
2.57933	14
2.58300	14
2.58667	14
2.59033	15
2.59400	15
2.59767	15
2.60133	16
2.60500	17
2.60867	18
2.61233	18
2.61600	19
2.61967	19
2.62333	20
2.62700	20
2.63067	20
2.63433	20
2.63800	20
2.64167	20
2.64533	20
2.64900	20
2.65267	20
2.65633	21
2.66000	21
2.66367	21
2.66733	21
2.67100	22
2.67467	22
2.67833	22
2.68200	22
2.68567	22
2.68933	22
2.69300	22
2.69667	22
2.70033	21
2.70400	21
2.70767	21
2.71133	22
2.71500	22
2.71867	22
2.72233	22
2.72600	22
2.72967	22
2.73333	21
2.73700	21
2.74067	21
2.74433	21
2.74800	21
2.75167	21
2.75533	21
2.75900	21
2.76267	22
2.76633	22
2.77000	23
2.77367	23
2.77733	23
2.78100	23
2.78467	24
2.78833	24
2.79200	24
2.79567	24
2.79933	24
2.80300	24
2.80667	25
2.81033	25
2.81400	25
2.81767	25
2.82133	25
2.82500	25
2.82867	25
2.83233	25
2.83600	25
2.83967	25
2.84333	24
2.84700	22
2.85067	18
2.85433	10
2.85800	-0
2.86167	-15
2.86533	-34
2.86900	-58
2.87267	-88
2.87633	-124
2.88000	-165
2.88367	-211
2.88733	-264
2.89100	-321
2.89467	-383
2.89833	-450
2.90200	-521
2.90567	-596
2.90933	-675
2.91300	-756
2.91667	-841
2.92033	-928
2.92400	-1018
2.92767	-1110
2.93133	-1203
2.93500	-1299
2.93867	-1394
2.94233	-1480
2.94600	-1544
2.94967	-1574
2.95333	-1567
2.95700	-1524
2.96067	-1452
2.96433	-1359
2.96800	-1253
2.97167	-1140
2.97533	-1025
2.97900	-914
2.98267	-809
2.98633	-710
2.99000	-621
2.99367	-540
2.99733	-467
3.00100	-403
3.00467	-347
3.00833	-298
3.01200	-255
3.01567	-217
3.01933	-185
3.02300	-157
3.02667	-133
3.03033	-113
3.03400	-95
3.03767	-80
3.04133	-68
3.04500	-57
3.04867	-48
3.05233	-40
3.05600	-34
3.05967	-28
3.06333	-22
3.06700	-18
3.07067	-14
3.07433	-11
3.07800	-8
3.08167	-6
3.08533	-3
3.08900	-2
3.09267	0
3.09633	2
3.10000	3
3.10367	4
3.10733	5
3.11100	6
3.11467	7
3.11833	8
3.12200	8
3.12567	9
3.12933	9
3.13300	10
3.13667	10
3.14033	11
3.14400	11
3.14767	11
3.15133	12
3.15500	12
3.15867	13
3.16233	13
3.16600	13
3.16967	14
3.17333	14
3.17700	14
3.18067	14
3.18433	15
3.18800	15
3.19167	16
3.19533	16
3.19900	17
3.20267	17
3.20633	18
3.21000	18
3.21367	19
3.21733	19
3.22100	19
3.22467	19
3.22833	19
3.23200	19
3.23567	19
3.23933	19
3.24300	20
3.24667	20
3.25033	20
3.25400	20
3.25767	20
3.26133	20
3.26500	20
3.26867	20
3.27233	20
3.27600	21
3.27967	21
3.28333	21
3.28700	21
3.29067	21
3.29433	20
3.29800	20
3.30167	20
3.30533	20
3.30900	20
3.31267	21
3.31633	21
3.32000	21
3.32367	21
3.32733	22
3.33100	22
3.33467	22
3.33833	22
3.34200	22
3.34567	23
3.34933	23
3.35300	23
3.35667	23
3.36033	23
3.36400	24
3.36767	24
3.37133	24
3.37500	24
3.37867	25
3.38233	25
3.38600	25
3.38967	25
3.39333	25
3.39700	26
3.40067	26
3.40433	26
3.40800	26
3.41167	26
3.41533	26
3.41900	26
3.42267	27
3.42633	27
3.43000	28
3.43367	28
3.43733	28
3.44100	29
3.44467	29
3.44833	29
3.45200	29
3.45567	28
3.45933	28
3.46300	28
3.46667	28
3.47033	27
3.47400	27
3.47767	27
3.48133	27
3.48500	26
3.48867	26
3.49233	26
3.49600	26
3.49967	26
3.50333	26
3.50700	25
3.51067	25
3.51433	25
3.51800	25
3.52167	25
3.52533	25
3.52900	25
3.53267	25
3.53633	25
3.54000	25
3.54367	25
3.54733	25
3.55100	25
3.55467	24
3.55833	24
3.56200	24
3.56567	24
3.56933	24
3.57300	24
3.57667	24
3.58033	24
3.58400	24
3.58767	23
3.59133	23
3.59500	23
3.59867	24
3.60233	24
3.60600	24
3.60967	24
3.61333	24
3.61700	24
3.62067	24
3.62433	24
3.62800	24
3.63167	24
3.63533	24
3.63900	24
3.64267	24
3.64633	24
3.65000	24
3.65367	24
3.65733	24
3.66100	24
3.66467	23
3.66833	23
3.67200	23
3.67567	23
3.67933	23
3.68300	23
3.68667	23
3.69033	23
3.69400	23
3.69767	24
3.70133	24
3.70500	24
3.70867	24
3.71233	24
3.71600	24
3.71967	25
3.72333	25
3.72700	25
3.73067	25
3.73433	25
3.73800	25
3.74167	25
3.74533	25
3.74900	25
3.75267	25
3.75633	25
3.76000	25
3.76367	26
3.76733	26
3.77100	26
3.77467	26
3.77833	26
3.78200	26
3.78567	26
3.78933	26
3.79300	25
3.79667	25
3.80033	25
3.80400	25
3.80767	25
3.81133	25
3.81500	25
3.81867	25
3.82233	24
3.82600	24
3.82967	24
3.83333	24
3.83700	24
3.84067	23
3.84433	23
3.84800	23
3.85167	23
3.85533	23
3.85900	23
3.86267	23
3.86633	23
3.87000	23
3.87367	23
3.87733	23
3.88100	23
3.88467	23
3.88833	23
3.89200	23
3.89567	23
3.89933	23
3.90300	23
3.90667	24
3.91033	24
3.91400	24
3.91767	25
3.92133	25
3.92500	25
3.92867	25
3.93233	25
3.93600	25
3.93967	26
3.94333	26
3.94700	26
3.95067	26
3.95433	26
3.95800	26
3.96167	26
3.96533	26
3.96900	26
3.97267	26
3.97633	25
3.98000	25
3.98367	25
3.98733	25
3.99100	25
3.99467	25
3.99833	25

[Chromatogram (Ch3)]
Interval(msec)	220
# of Points	1091
Start Time(min)	0.002
End Time(min)	3.998
R.Time (min)	Intensity
0.00167	1
0.00533	4
0.00900	5
0.01267	6
0.01633	5
0.02000	4
0.02367	3
0.02733	3
0.03100	3
0.03467	1
0.03833	3
0.04200	6
0.04567	5
0.04933	5
0.05300	7
0.05667	7
0.06033	7
0.06400	8
0.06767	7
0.07133	5
0.07500	4
0.07867	4
0.08233	5
0.08600	5
0.08967	5
0.09333	5
0.09700	7
0.10067	7
0.10433	6
0.10800	6
0.11167	7
0.11533	8
0.11900	9
0.12267	7
0.12633	5
0.13000	4
0.13367	4
0.13733	4
0.14100	3
0.14467	3
0.14833	4
0.15200	5
0.15567	5
0.15933	5
0.16300	4
0.16667	4
0.17033	5
0.17400	5
0.17767	6
0.18133	7
0.18500	8
0.18867	9
0.19233	9
0.19600	7
0.19967	4
0.20333	3
0.20700	3
0.21067	4
0.21433	5
0.21800	6
0.22167	6
0.22533	7
0.22900	8
0.23267	8
0.23633	8
0.24000	6
0.24367	5
0.24733	5
0.25100	5
0.25467	5
0.25833	5
0.26200	4
0.26567	4
0.26933	4
0.27300	4
0.27667	4
0.28033	5
0.28400	5
0.28767	6
0.29133	7
0.29500	7
0.29867	7
0.30233	8
0.30600	8
0.30967	7
0.31333	7
0.31700	6
0.32067	5
0.32433	5
0.32800	6
0.33167	6
0.33533	7
0.33900	7
0.34267	7
0.34633	7
0.35000	7
0.35367	7
0.35733	9
0.36100	9
0.36467	7
0.36833	7
0.37200	9
0.37567	8
0.37933	9
0.38300	10
0.38667	11
0.39033	12
0.39400	11
0.39767	9
0.40133	10
0.40500	12
0.40867	11
0.41233	10
0.41600	11
0.41967	11
0.42333	9
0.42700	9
0.43067	9
0.43433	11
0.43800	12
0.44167	14
0.44533	14
0.44900	14
0.45267	15
0.45633	15
0.46000	16
0.46367	17
0.46733	15
0.47100	14
0.47467	14
0.47833	15
0.48200	17
0.48567	18
0.48933	17
0.49300	14
0.49667	11
0.50033	9
0.50400	9
0.50767	10
0.51133	10
0.51500	10
0.51867	10
0.52233	10
0.52600	11
0.52967	8
0.53333	7
0.53700	7
0.54067	7
0.54433	8
0.54800	11
0.55167	13
0.55533	14
0.55900	16
0.56267	17
0.56633	18
0.57000	17
0.57367	16
0.57733	16
0.58100	17
0.58467	19
0.58833	20
0.59200	20
0.59567	20
0.59933	17
0.60300	15
0.60667	16
0.61033	15
0.61400	15
0.61767	14
0.62133	14
0.62500	14
0.62867	16
0.63233	17
0.63600	16
0.63967	15
0.64333	15
0.64700	15
0.65067	16
0.65433	18
0.65800	18
0.66167	18
0.66533	18
0.66900	17
0.67267	18
0.67633	18
0.68000	15
0.68367	14
0.68733	12
0.69100	12
0.69467	11
0.69833	9
0.70200	11
0.70567	12
0.70933	13
0.71300	15
0.71667	16
0.72033	17
0.72400	17
0.72767	15
0.73133	14
0.73500	15
0.73867	16
0.74233	16
0.74600	17
0.74967	16
0.75333	17
0.75700	18
0.76067	22
0.76433	23
0.76800	22
0.77167	22
0.77533	20
0.77900	17
0.78267	17
0.78633	18
0.79000	17
0.79367	16
0.79733	16
0.80100	14
0.80467	12
0.80833	14
0.81200	14
0.81567	15
0.81933	18
0.82300	18
0.82667	17
0.83033	18
0.83400	18
0.83767	19
0.84133	21
0.84500	22
0.84867	22
0.85233	21
0.85600	20
0.85967	21
0.86333	23
0.86700	22
0.87067	22
0.87433	22
0.87800	20
0.88167	19
0.88533	17
0.88900	17
0.89267	17
0.89633	17
0.90000	19
0.90367	22
0.90733	23
0.91100	23
0.91467	23
0.91833	24
0.92200	23
0.92567	23
0.92933	23
0.93300	22
0.93667	21
0.94033	21
0.94400	22
0.94767	23
0.95133	22
0.95500	22
0.95867	24
0.96233	25
0.96600	24
0.96967	24
0.97333	23
0.97700	24
0.98067	25
0.98433	24
0.98800	23
0.99167	22
0.99533	20
0.99900	20
1.00267	21
1.00633	24
1.01000	26
1.01367	26
1.01733	24
1.02100	23
1.02467	23
1.02833	24
1.03200	25
1.03567	25
1.03933	23
1.04300	22
1.04667	23
1.05033	23
1.05400	23
1.05767	24
1.06133	25
1.06500	26
1.06867	28
1.07233	30
1.07600	30
1.07967	31
1.08333	30
1.08700	28
1.09067	29
1.09433	31
1.09800	33
1.10167	35
1.10533	33
1.10900	31
1.11267	30
1.11633	33
1.12000	36
1.12367	35
1.12733	34
1.13100	32
1.13467	31
1.13833	31
1.14200	31
1.14567	31
1.14933	32
1.15300	32
1.15667	31
1.16033	32
1.16400	34
1.16767	33
1.17133	33
1.17500	34
1.17867	34
1.18233	34
1.18600	33
1.18967	31
1.19333	29
1.19700	31
1.20067	33
1.20433	32
1.20800	33
1.21167	32
1.21533	31
1.21900	31
1.22267	29
1.22633	29
1.23000	28
1.23367	29
1.23733	31
1.24100	31
1.24467	33
1.24833	34
1.25200	33
1.25567	33
1.25933	34
1.26300	36
1.26667	34
1.27033	31
1.27400	30
1.27767	29
1.28133	30
1.28500	32
1.28867	33
1.29233	32
1.29600	30
1.29967	29
1.30333	28
1.30700	28
1.31067	28
1.31433	29
1.31800	30
1.32167	31
1.32533	31
1.32900	31
1.33267	31
1.33633	32
1.34000	35
1.34367	35
1.34733	34
1.35100	33
1.35467	31
1.35833	30
1.36200	29
1.36567	29
1.36933	28
1.37300	28
1.37667	28
1.38033	29
1.38400	32
1.38767	35
1.39133	38
1.39500	40
1.39867	40
1.40233	39
1.40600	38
1.40967	37
1.41333	37
1.41700	36
1.42067	35
1.42433	35
1.42800	35
1.43167	34
1.43533	34
1.43900	32
1.44267	31
1.44633	30
1.45000	32
1.45367	33
1.45733	34
1.46100	33
1.46467	32
1.46833	33
1.47200	34
1.47567	35
1.47933	35
1.48300	33
1.48667	32
1.49033	33
1.49400	33
1.49767	34
1.50133	36
1.50500	39
1.50867	41
1.51233	39
1.51600	37
1.51967	36
1.52333	36
1.52700	37
1.53067	37
1.53433	36
1.53800	37
1.54167	40
1.54533	41
1.54900	40
1.55267	39
1.55633	39
1.56000	38
1.56367	35
1.56733	36
1.57100	38
1.57467	41
1.57833	43
1.58200	43
1.58567	43
1.58933	43
1.59300	44
1.59667	43
1.60033	40
1.60400	38
1.60767	37
1.61133	38
1.61500	40
1.61867	42
1.62233	44
1.62600	44
1.62967	44
1.63333	47
1.63700	48
1.64067	48
1.64433	48
1.64800	48
1.65167	48
1.65533	49
1.65900	50
1.66267	52
1.66633	52
1.67000	53
1.67367	53
1.67733	52
1.68100	51
1.68467	54
1.68833	55
1.69200	56
1.69567	57
1.69933	58
1.70300	60
1.70667	60
1.71033	59
1.71400	57
1.71767	55
1.72133	56
1.72500	56
1.72867	57
1.73233	60
1.73600	64
1.73967	64
1.74333	63
1.74700	61
1.75067	61
1.75433	62
1.75800	62
1.76167	63
1.76533	64
1.76900	64
1.77267	63
1.77633	65
1.78000	68
1.78367	71
1.78733	71
1.79100	69
1.79467	70
1.79833	71
1.80200	72
1.80567	74
1.80933	74
1.81300	74
1.81667	75
1.82033	75
1.82400	76
1.82767	77
1.83133	76
1.83500	76
1.83867	79
1.84233	82
1.84600	84
1.84967	84
1.85333	83
1.85700	82
1.86067	82
1.86433	83
1.86800	84
1.87167	86
1.87533	87
1.87900	86
1.88267	85
1.88633	85
1.89000	84
1.89367	83
1.89733	84
1.90100	85
1.90467	88
1.90833	91
1.91200	92
1.91567	92
1.91933	93
1.92300	94
1.92667	90
1.93033	89
1.93400	89
1.93767	89
1.94133	90
1.94500	94
1.94867	96
1.95233	97
1.95600	99
1.95967	99
1.96333	99
1.96700	99
1.97067	99
1.97433	99
1.97800	100
1.98167	101
1.98533	102
1.98900	103
1.99267	104
1.99633	105
2.00000	107
2.00367	106
2.00733	104
2.01100	104
2.01467	106
2.01833	109
2.02200	112
2.02567	115
2.02933	115
2.03300	115
2.03667	116
2.04033	117
2.04400	118
2.04767	118
2.05133	118
2.05500	117
2.05867	117
2.06233	117
2.06600	118
2.06967	118
2.07333	117
2.07700	119
2.08067	122
2.08433	125
2.08800	126
2.09167	128
2.09533	128
2.09900	129
2.10267	132
2.10633	133
2.11000	134
2.11367	136
2.11733	138
2.12100	139
2.12467	136
2.12833	135
2.13200	134
2.13567	133
2.13933	135
2.14300	137
2.14667	139
2.15033	139
2.15400	137
2.15767	137
2.16133	138
2.16500	140
2.16867	143
2.17233	143
2.17600	144
2.17967	145
2.18333	148
2.18700	148
2.19067	149
2.19433	151
2.19800	150
2.20167	151
2.20533	152
2.20900	153
2.21267	154
2.21633	154
2.22000	154
2.22367	156
2.22733	156
2.23100	155
2.23467	156
2.23833	159
2.24200	158
2.24567	160
2.24933	161
2.25300	162
2.25667	164
2.26033	166
2.26400	166
2.26767	165
2.27133	165
2.27500	168
2.27867	170
2.28233	170
2.28600	170
2.28967	171
2.29333	174
2.29700	176
2.30067	176
2.30433	176
2.30800	177
2.31167	178
2.31533	180
2.31900	181
2.32267	180
2.32633	179
2.33000	177
2.33367	179
2.33733	182
2.34100	184
2.34467	183
2.34833	183
2.35200	183
2.35567	183
2.35933	182
2.36300	182
2.36667	185
2.37033	187
2.37400	187
2.37767	188
2.38133	190
2.38500	190
2.38867	188
2.39233	189
2.39600	190
2.39967	190
2.40333	191
2.40700	193
2.41067	197
2.41433	199
2.41800	199
2.42167	199
2.42533	198
2.42900	198
2.43267	196
2.43633	196
2.44000	201
2.44367	248
2.44733	366
2.45100	497
2.45467	608
2.45833	668
2.46200	675
2.46567	656
2.46933	635
2.47300	622
2.47667	613
2.48033	596
2.48400	563
2.48767	525
2.49133	487
2.49500	453
2.49867	427
2.50233	409
2.50600	400
2.50967	404
2.51333	417
2.51700	431
2.52067	447
2.52433	456
2.52800	457
2.53167	448
2.53533	429
2.53900	403
2.54267	377
2.54633	351
2.55000	330
2.55367	314
2.55733	301
2.56100	291
2.56467	283
2.56833	277
2.57200	276
2.57567	276
2.57933	276
2.58300	276
2.58667	277
2.59033	279
2.59400	283
2.59767	286
2.60133	287
2.60500	286
2.60867	282
2.61233	278
2.61600	271
2.61967	262
2.62333	255
2.62700	247
2.63067	237
2.63433	228
2.63800	217
2.64167	206
2.64533	197
2.64900	188
2.65267	180
2.65633	172
2.66000	166
2.66367	160
2.66733	155
2.67100	149
2.67467	146
2.67833	143
2.68200	142
2.68567	144
2.68933	145
2.69300	146
2.69667	149
2.70033	153
2.70400	157
2.70767	160
2.71133	160
2.71500	160
2.71867	162
2.72233	167
2.72600	169
2.72967	172
2.73333	176
2.73700	181
2.74067	186
2.74433	190
2.74800	194
2.75167	198
2.75533	200
2.75900	201
2.76267	200
2.76633	202
2.77000	203
2.77367	206
2.77733	212
2.78100	215
2.78467	219
2.78833	222
2.79200	225
2.79567	228
2.79933	230
2.80300	234
2.80667	238
2.81033	242
2.81400	248
2.81767	258
2.82133	279
2.82500	330
2.82867	440
2.83233	655
2.83600	1038
2.83967	1661
2.84333	2576
2.84700	3796
2.85067	5304
2.85433	7031
2.85800	8866
2.86167	10671
2.86533	12310
2.86900	13660
2.87267	14626
2.87633	15156
2.88000	15254
2.88367	14975
2.88733	14389
2.89100	13577
2.89467	12618
2.89833	11583
2.90200	10525
2.90567	9486
2.90933	8493
2.91300	7568
2.91667	6719
2.92033	5948
2.92400	5253
2.92767	4630
2.93133	4076
2.93500	3585
2.93867	3151
2.94233	2769
2.94600	2435
2.94967	2144
2.95333	1890
2.95700	1670
2.96067	1478
2.96433	1310
2.96800	1164
2.97167	1036
2.97533	927
2.97900	833
2.98267	750
2.98633	679
2.99000	618
2.99367	566
2.99733	520
3.00100	482
3.00467	448
3.00833	417
3.01200	389
3.01567	367
3.01933	349
3.02300	333
3.02667	319
3.03033	308
3.03400	299
3.03767	290
3.04133	284
3.04500	279
3.04867	276
3.05233	273
3.05600	268
3.05967	264
3.06333	260
3.06700	257
3.07067	254
3.07433	250
3.07800	247
3.08167	245
3.08533	245
3.08900	246
3.09267	247
3.09633	247
3.10000	244
3.10367	227
3.10733	197
3.11100	180
3.11467	185
3.11833	208
3.12200	242
3.12567	281
3.12933	323
3.13300	368
3.13667	415
3.14033	461
3.14400	506
3.14767	548
3.15133	585
3.15500	618
3.15867	649
3.16233	675
3.16600	699
3.16967	717
3.17333	734
3.17700	747
3.18067	762
3.18433	778
3.18800	790
3.19167	799
3.19533	806
3.19900	814
3.20267	823
3.20633	832
3.21000	838
3.21367	844
3.21733	851
3.22100	859
3.22467	866
3.22833	871
3.23200	876
3.23567	881
3.23933	883
3.24300	886
3.24667	888
3.25033	892
3.25400	897
3.25767	905
3.26133	910
3.26500	916
3.26867	921
3.27233	923
3.27600	925
3.27967	928
3.28333	928
3.28700	927
3.29067	928
3.29433	928
3.29800	930
3.30167	931
3.30533	931
3.30900	929
3.31267	928
3.31633	928
3.32000	927
3.32367	925
3.32733	923
3.33100	922
3.33467	921
3.33833	918
3.34200	915
3.34567	913
3.34933	911
3.35300	910
3.35667	906
3.36033	904
3.36400	903
3.36767	900
3.37133	898
3.37500	896
3.37867	894
3.38233	892
3.38600	890
3.38967	888
3.39333	885
3.39700	883
3.40067	882
3.40433	878
3.40800	875
3.41167	873
3.41533	872
3.41900	870
3.42267	868
3.42633	866
3.43000	865
3.43367	863
3.43733	862
3.44100	863
3.44467	862
3.44833	859
3.45200	856
3.45567	853
3.45933	851
3.46300	851
3.46667	850
3.47033	850
3.47400	849
3.47767	845
3.48133	842
3.48500	841
3.48867	840
3.49233	838
3.49600	835
3.49967	834
3.50333	833
3.50700	831
3.51067	828
3.51433	824
3.51800	822
3.52167	822
3.52533	820
3.52900	817
3.53267	816
3.53633	816
3.54000	814
3.54367	811
3.54733	811
3.55100	809
3.55467	807
3.55833	807
3.56200	806
3.56567	804
3.56933	801
3.57300	798
3.57667	795
3.58033	791
3.58400	788
3.58767	786
3.59133	784
3.59500	785
3.59867	786
3.60233	785
3.60600	784
3.60967	784
3.61333	783
3.61700	779
3.62067	777
3.62433	774
3.62800	770
3.63167	768
3.63533	767
3.63900	765
3.64267	762
3.64633	760
3.65000	758
3.65367	756
3.65733	752
3.66100	749
3.66467	747
3.66833	745
3.67200	743
3.67567	741
3.67933	738
3.68300	736
3.68667	734
3.69033	731
3.69400	730
3.69767	726
3.70133	723
3.70500	719
3.70867	717
3.71233	715
3.71600	713
3.71967	711
3.72333	709
3.72700	707
3.73067	705
3.73433	703
3.73800	700
3.74167	698
3.74533	696
3.74900	696
3.75267	695
3.75633	695
3.76000	692
3.76367	688
3.76733	684
3.77100	680
3.77467	677
3.77833	673
3.78200	671
3.78567	674
3.78933	675
3.79300	673
3.79667	670
3.80033	669
3.80400	666
3.80767	664
3.81133	660
3.81500	657
3.81867	654
3.82233	652
3.82600	650
3.82967	649
3.83333	648
3.83700	648
3.84067	648
3.84433	647
3.84800	645
3.85167	644
3.85533	642
3.85900	640
3.86267	639
3.86633	637
3.87000	635
3.87367	634
3.87733	633
3.88100	631
3.88467	626
3.88833	623
3.89200	621
3.89567	618
3.89933	616
3.90300	616
3.90667	614
3.91033	612
3.91400	614
3.91767	613
3.92133	612
3.92500	610
3.92867	610
3.93233	607
3.93600	604
3.93967	602
3.94333	599
3.94700	598
3.95067	600
3.95433	598
3.95800	596
3.96167	593
3.96533	591
3.96900	591
3.97267	592
3.97633	593
3.98000	591
3.98367	589
3.98733	590
3.99100	590
3.99467	588
3.99833	582

[Status Trace (Column Oven Temperature)]
Interval(msec)	1000
# of Points	239
Start Time(min)	0.013
End Time(min)	3.980
Intensity Units	
Intensity Multiplier	1
R.Time (min)	Intensity
0.01288	35.04
0.02955	35.05
0.04622	35.05
0.06288	35.05
0.07955	35.04
0.09622	35.02
0.11288	35.01
0.12955	35.01
0.14622	35.02
0.16288	35.02
0.17955	35.04
0.19622	35.04
0.21288	35.04
0.22955	35.03
0.24622	35.02
0.26288	35.03
0.27955	35.04
0.29622	35.04
0.31288	35.04
0.32955	35.03
0.34622	35.02
0.36288	35.02
0.37955	35.02
0.39622	35.03
0.41288	35.04
0.42955	35.05
0.44622	35.04
0.46288	35.04
0.47955	35.04
0.49622	35.03
0.51288	35.03
0.52955	35.03
0.54622	35.02
0.56288	35.01
0.57955	35.00
0.59622	35.00
0.61288	34.98
0.62955	34.98
0.64622	35.00
0.66288	35.00
0.67955	35.02
0.69622	35.03
0.71288	35.03
0.72955	35.02
0.74622	35.01
0.76288	35.01
0.77955	35.01
0.79622	35.00
0.81288	34.98
0.82955	34.98
0.84622	34.99
0.86288	35.00
0.87955	35.01
0.89622	35.02
0.91288	35.01
0.92955	35.00
0.94622	35.00
0.96288	35.00
0.97955	35.00
0.99622	35.00
1.01288	34.99
1.02955	34.99
1.04622	34.99
1.06288	34.98
1.07955	34.98
1.09622	34.98
1.11288	34.99
1.12955	35.00
1.14622	35.01
1.16288	35.00
1.17955	34.99
1.19622	34.99
1.21288	34.99
1.22955	34.99
1.24622	34.99
1.26288	35.00
1.27955	35.01
1.29622	35.01
1.31288	35.02
1.32955	35.01
1.34622	35.01
1.36288	35.00
1.37955	35.01
1.39622	35.02
1.41288	35.02
1.42955	35.01
1.44622	35.02
1.46288	35.02
1.47955	35.01
1.49622	35.00
1.51288	34.99
1.52955	34.99
1.54622	34.99
1.56288	34.99
1.57955	34.98
1.59622	35.00
1.61288	35.07
1.62955	35.21
1.64622	35.42
1.66288	35.70
1.67955	36.06
1.69622	36.43
1.71288	36.78
1.72955	37.10
1.74622	37.44
1.76288	37.78
1.77955	38.11
1.79622	38.40
1.81288	38.73
1.82955	39.07
1.84622	39.40
1.86288	39.74
1.87955	40.05
1.89622	40.38
1.91288	40.71
1.92955	41.03
1.94622	41.36
1.96288	41.69
1.97955	42.01
1.99622	42.34
2.01288	42.68
2.02955	43.00
2.04622	43.31
2.06288	43.63
2.07955	43.97
2.09622	44.30
2.11288	44.62
2.12955	44.95
2.14622	45.28
2.16288	45.60
2.17955	45.95
2.19622	46.27
2.21288	46.60
2.22955	46.93
2.24622	47.24
2.26288	47.60
2.27955	47.92
2.29622	48.26
2.31288	48.59
2.32955	48.91
2.34622	49.24
2.36288	49.54
2.37955	49.67
2.39622	49.68
2.41288	49.68
2.42955	49.69
2.44622	49.70
2.46288	49.70
2.47955	49.71
2.49622	49.74
2.51288	49.75
2.52955	49.76
2.54622	49.77
2.56288	49.79
2.57955	49.80
2.59622	49.81
2.61288	49.81
2.62955	49.82
2.64622	49.82
2.66288	49.81
2.67955	49.82
2.69622	49.83
2.71288	49.84
2.72955	49.86
2.74622	49.87
2.76288	49.87
2.77955	49.87
2.79622	49.87
2.81288	49.87
2.82955	49.87
2.84622	49.87
2.86288	49.86
2.87955	49.88
2.89622	49.90
2.91288	49.92
2.92955	49.94
2.94622	49.95
2.96288	49.95
2.97955	49.97
2.99622	49.96
3.01288	49.97
3.02955	49.97
3.04622	49.98
3.06288	49.99
3.07955	50.01
3.09622	50.01
3.11288	50.02
3.12955	50.03
3.14622	50.04
3.16288	50.05
3.17955	50.06
3.19622	50.05
3.21288	50.06
3.22955	50.07
3.24622	50.07
3.26288	50.08
3.27955	50.09
3.29622	50.11
3.31288	50.11
3.32955	50.11
3.34622	50.10
3.36288	50.09
3.37955	50.08
3.39622	50.06
3.41288	50.04
3.42955	50.03
3.44622	50.01
3.46288	50.01
3.47955	50.01
3.49622	50.00
3.51288	50.01
3.52955	50.01
3.54622	50.02
3.56288	50.03
3.57955	50.03
3.59622	50.03
3.61288	50.03
3.62955	50.04
3.64622	50.05
3.66288	50.06
3.67955	50.06
3.69622	50.06
3.71288	50.06
3.72955	50.07
3.74622	50.06
3.76288	50.05
3.77955	50.05
3.79622	50.05
3.81288	50.05
3.82955	50.06
3.84622	50.07
3.86288	50.07
3.87955	50.08
3.89622	50.08
3.91288	50.08
3.92955	50.07
3.94622	50.08
3.96288	50.07
3.97955	50.09

[Status Trace (Injection Unit Temperature)]
Interval(msec)	1000
# of Points	239
Start Time(min)	0.013
End Time(min)	3.980
Intensity Units	
Intensity Multiplier	1
R.Time (min)	Intensity
0.01288	99.98
0.02955	99.98
0.04622	99.99
0.06288	99.98
0.07955	99.98
0.09622	99.98
0.11288	99.99
0.12955	99.99
0.14622	99.99
0.16288	99.99
0.17955	99.99
0.19622	99.98
0.21288	99.98
0.22955	99.98
0.24622	99.98
0.26288	99.99
0.27955	99.98
0.29622	99.99
0.31288	99.98
0.32955	99.98
0.34622	99.98
0.36288	99.99
0.37955	99.99
0.39622	99.99
0.41288	99.99
0.42955	99.99
0.44622	99.99
0.46288	99.99
0.47955	99.99
0.49622	99.99
0.51288	99.99
0.52955	99.99
0.54622	99.99
0.56288	99.98
0.57955	99.99
0.59622	99.99
0.61288	99.99
0.62955	99.99
0.64622	99.99
0.66288	99.99
0.67955	99.98
0.69622	99.99
0.71288	99.98
0.72955	99.98
0.74622	99.98
0.76288	99.99
0.77955	99.99
0.79622	99.99
0.81288	99.99
0.82955	99.99
0.84622	99.99
0.86288	99.99
0.87955	99.98
0.89622	99.99
0.91288	99.99
0.92955	99.99
0.94622	99.99
0.96288	99.98
0.97955	99.98
0.99622	99.98
1.01288	99.99
1.02955	99.99
1.04622	99.99
1.06288	99.99
1.07955	99.99
1.09622	99.99
1.11288	99.99
1.12955	99.99
1.14622	99.99
1.16288	99.99
1.17955	99.98
1.19622	99.99
1.21288	99.99
1.22955	99.99
1.24622	99.99
1.26288	99.99
1.27955	99.98
1.29622	99.99
1.31288	99.99
1.32955	99.99
1.34622	99.99
1.36288	99.99
1.37955	99.99
1.39622	99.99
1.41288	99.99
1.42955	99.99
1.44622	99.99
1.46288	99.99
1.47955	99.99
1.49622	99.99
1.51288	99.99
1.52955	99.99
1.54622	99.98
1.56288	99.99
1.57955	99.99
1.59622	99.99
1.61288	99.99
1.62955	99.99
1.64622	99.99
1.66288	99.98
1.67955	99.98
1.69622	99.99
1.71288	99.98
1.72955	99.99
1.74622	99.98
1.76288	99.98
1.77955	99.98
1.79622	99.98
1.81288	99.98
1.82955	99.98
1.84622	99.98
1.86288	99.98
1.87955	99.98
1.89622	99.97
1.91288	99.97
1.92955	99.98
1.94622	99.98
1.96288	99.98
1.97955	99.97
1.99622	99.97
2.01288	99.97
2.02955	99.97
2.04622	99.97
2.06288	99.97
2.07955	99.97
2.09622	99.97
2.11288	99.96
2.12955	99.96
2.14622	99.96
2.16288	99.96
2.17955	99.96
2.19622	99.96
2.21288	99.96
2.22955	99.96
2.24622	99.97
2.26288	99.97
2.27955	99.96
2.29622	99.96
2.31288	99.96
2.32955	99.96
2.34622	99.97
2.36288	99.97
2.37955	99.97
2.39622	99.97
2.41288	99.97
2.42955	99.97
2.44622	99.97
2.46288	99.98
2.47955	99.97
2.49622	99.97
2.51288	99.97
2.52955	99.98
2.54622	99.97
2.56288	99.98
2.57955	99.98
2.59622	99.98
2.61288	99.98
2.62955	99.99
2.64622	99.98
2.66288	99.99
2.67955	99.99
2.69622	99.99
2.71288	100.00
2.72955	99.99
2.74622	99.99
2.76288	100.00
2.77955	100.00
2.79622	100.00
2.81288	100.00
2.82955	100.01
2.84622	100.00
2.86288	100.01
2.87955	100.00
2.89622	100.01
2.91288	100.01
2.92955	100.01
2.94622	100.01
2.96288	100.01
2.97955	100.01
2.99622	100.01
3.01288	100.02
3.02955	100.01
3.04622	100.01
3.06288	100.01
3.07955	100.02
3.09622	100.01
3.11288	100.02
3.12955	100.02
3.14622	100.02
3.16288	100.02
3.17955	100.02
3.19622	100.02
3.21288	100.02
3.22955	100.02
3.24622	100.02
3.26288	100.02
3.27955	100.03
3.29622	100.02
3.31288	100.03
3.32955	100.03
3.34622	100.03
3.36288	100.02
3.37955	100.03
3.39622	100.02
3.41288	100.02
3.42955	100.03
3.44622	100.03
3.46288	100.03
3.47955	100.03
3.49622	100.02
3.51288	100.03
3.52955	100.03
3.54622	100.03
3.56288	100.03
3.57955	100.03
3.59622	100.03
3.61288	100.03
3.62955	100.03
3.64622	100.04
3.66288	100.04
3.67955	100.04
3.69622	100.04
3.71288	100.03
3.72955	100.04
3.74622	100.04
3.76288	100.04
3.77955	100.04
3.79622	100.04
3.81288	100.04
3.82955	100.04
3.84622	100.05
3.86288	100.04
3.87955	100.04
3.89622	100.04
3.91288	100.04
3.92955	100.04
3.94622	100.04
3.96288	100.04
3.97955	100.05

[Status Trace (Carrier Gas Pressure)]
Interval(msec)	1000
# of Points	239
Start Time(min)	0.013
End Time(min)	3.980
Intensity Units	
Intensity Multiplier	1
R.Time (min)	Intensity
0.01288	57.91
0.02955	54.97
0.04622	57.79
0.06288	59.79
0.07955	58.83
0.09622	57.99
0.11288	58.00
0.12955	58.01
0.14622	58.01
0.16288	58.00
0.17955	58.00
0.19622	58.00
0.21288	58.00
0.22955	58.00
0.24622	58.00
0.26288	58.00
0.27955	58.00
0.29622	58.00
0.31288	58.00
0.32955	58.00
0.34622	58.00
0.36288	58.00
0.37955	58.00
0.39622	58.00
0.41288	58.00
0.42955	58.00
0.44622	58.00
0.46288	58.00
0.47955	58.00
0.49622	58.00
0.51288	58.00
0.52955	58.00
0.54622	58.00
0.56288	58.00
0.57955	58.00
0.59622	58.00
0.61288	58.00
0.62955	58.00
0.64622	58.00
0.66288	58.00
0.67955	58.00
0.69622	58.00
0.71288	58.00
0.72955	58.00
0.74622	58.00
0.76288	58.00
0.77955	58.00
0.79622	58.00
0.81288	58.00
0.82955	58.00
0.84622	58.00
0.86288	58.00
0.87955	58.00
0.89622	58.00
0.91288	58.00
0.92955	58.00
0.94622	58.00
0.96288	58.00
0.97955	58.00
0.99622	58.00
1.01288	58.00
1.02955	58.00
1.04622	58.00
1.06288	58.00
1.07955	58.00
1.09622	58.00
1.11288	58.00
1.12955	58.00
1.14622	58.00
1.16288	58.00
1.17955	58.00
1.19622	58.00
1.21288	58.00
1.22955	58.00
1.24622	58.00
1.26288	58.00
1.27955	58.00
1.29622	58.00
1.31288	58.00
1.32955	58.00
1.34622	58.00
1.36288	58.00
1.37955	58.00
1.39622	58.00
1.41288	58.00
1.42955	58.00
1.44622	58.00
1.46288	58.00
1.47955	58.00
1.49622	58.00
1.51288	58.00
1.52955	58.00
1.54622	58.00
1.56288	58.00
1.57955	58.00
1.59622	58.00
1.61288	58.00
1.62955	58.00
1.64622	58.00
1.66288	58.01
1.67955	58.01
1.69622	58.00
1.71288	58.00
1.72955	58.00
1.74622	58.00
1.76288	58.00
1.77955	58.00
1.79622	58.00
1.81288	58.00
1.82955	58.00
1.84622	58.00
1.86288	58.00
1.87955	58.00
1.89622	58.00
1.91288	58.00
1.92955	58.00
1.94622	58.00
1.96288	58.00
1.97955	58.00
1.99622	58.00
2.01288	58.00
2.02955	58.00
2.04622	58.00
2.06288	58.00
2.07955	58.00
2.09622	58.00
2.11288	58.00
2.12955	58.00
2.14622	58.00
2.16288	58.00
2.17955	58.00
2.19622	58.00
2.21288	58.00
2.22955	58.00
2.24622	58.00
2.26288	58.00
2.27955	58.00
2.29622	58.00
2.31288	58.00
2.32955	58.00
2.34622	58.00
2.36288	58.00
2.37955	57.99
2.39622	57.99
2.41288	58.00
2.42955	58.00
2.44622	58.00
2.46288	58.00
2.47955	58.00
2.49622	58.00
2.51288	57.99
2.52955	57.98
2.54622	58.00
2.56288	58.00
2.57955	58.00
2.59622	58.00
2.61288	58.00
2.62955	58.00
2.64622	58.00
2.66288	58.00
2.67955	58.00
2.69622	58.00
2.71288	58.00
2.72955	58.00
2.74622	58.00
2.76288	58.00
2.77955	58.00
2.79622	58.00
2.81288	58.00
2.82955	58.00
2.84622	58.00
2.86288	58.00
2.87955	58.00
2.89622	58.00
2.91288	58.00
2.92955	58.00
2.94622	58.00
2.96288	58.00
2.97955	58.00
2.99622	58.00
3.01288	58.00
3.02955	58.00
3.04622	58.00
3.06288	58.00
3.07955	58.00
3.09622	58.00
3.11288	58.00
3.12955	58.00
3.14622	58.00
3.16288	58.00
3.17955	58.00
3.19622	58.00
3.21288	58.00
3.22955	58.00
3.24622	58.00
3.26288	58.00
3.27955	58.00
3.29622	58.00
3.31288	58.00
3.32955	58.00
3.34622	58.00
3.36288	58.00
3.37955	58.00
3.39622	58.00
3.41288	58.00
3.42955	58.00
3.44622	58.00
3.46288	58.00
3.47955	58.00
3.49622	58.00
3.51288	58.00
3.52955	58.00
3.54622	58.00
3.56288	58.00
3.57955	58.00
3.59622	58.00
3.61288	58.00
3.62955	58.00
3.64622	58.00
3.66288	58.00
3.67955	58.00
3.69622	58.00
3.71288	58.00
3.72955	58.00
3.74622	58.00
3.76288	58.00
3.77955	58.00
3.79622	58.00
3.81288	58.00
3.82955	58.00
3.84622	58.00
3.86288	58.00
3.87955	58.00
3.89622	58.00
3.91288	58.00
3.92955	58.00
3.94622	58.00
3.96288	58.00
3.97955	58.00

[Status Trace (Carrier Gas Flow)]
Interval(msec)	1000
# of Points	239
Start Time(min)	0.013
End Time(min)	3.980
Intensity Units	
Intensity Multiplier	1
R.Time (min)	Intensity
0.01288	34.67
0.02955	34.54
0.04622	34.55
0.06288	34.52
0.07955	34.51
0.09622	34.52
0.11288	34.52
0.12955	34.52
0.14622	34.52
0.16288	34.51
0.17955	34.52
0.19622	34.52
0.21288	34.52
0.22955	34.51
0.24622	34.52
0.26288	34.52
0.27955	34.52
0.29622	34.52
0.31288	34.52
0.32955	34.52
0.34622	34.52
0.36288	34.52
0.37955	34.52
0.39622	34.52
0.41288	34.52
0.42955	34.52
0.44622	34.52
0.46288	34.51
0.47955	34.52
0.49622	34.51
0.51288	34.52
0.52955	34.51
0.54622	34.53
0.56288	34.51
0.57955	34.51
0.59622	34.53
0.61288	34.52
0.62955	34.51
0.64622	34.52
0.66288	34.52
0.67955	34.52
0.69622	34.51
0.71288	34.52
0.72955	34.52
0.74622	34.52
0.76288	34.52
0.77955	34.52
0.79622	34.52
0.81288	34.52
0.82955	34.52
0.84622	34.52
0.86288	34.52
0.87955	34.52
0.89622	34.52
0.91288	34.52
0.92955	34.52
0.94622	34.52
0.96288	34.51
0.97955	34.52
0.99622	34.52
1.01288	34.52
1.02955	34.52
1.04622	34.52
1.06288	34.51
1.07955	34.52
1.09622	34.52
1.11288	34.52
1.12955	34.52
1.14622	34.52
1.16288	34.52
1.17955	34.52
1.19622	34.52
1.21288	34.52
1.22955	34.52
1.24622	34.52
1.26288	34.52
1.27955	34.52
1.29622	34.51
1.31288	34.52
1.32955	34.52
1.34622	34.52
1.36288	34.52
1.37955	34.52
1.39622	34.52
1.41288	34.52
1.42955	34.51
1.44622	34.52
1.46288	34.52
1.47955	34.52
1.49622	34.52
1.51288	34.52
1.52955	34.52
1.54622	34.51
1.56288	34.52
1.57955	34.52
1.59622	34.52
1.61288	34.52
1.62955	34.52
1.64622	34.52
1.66288	34.52
1.67955	34.52
1.69622	34.52
1.71288	34.52
1.72955	34.51
1.74622	34.52
1.76288	34.51
1.77955	34.52
1.79622	34.52
1.81288	34.52
1.82955	34.52
1.84622	34.52
1.86288	34.52
1.87955	34.52
1.89622	34.52
1.91288	34.52
1.92955	34.52
1.94622	34.52
1.96288	34.52
1.97955	34.52
1.99622	34.52
2.01288	34.52
2.02955	34.52
2.04622	34.51
2.06288	34.52
2.07955	34.52
2.09622	34.52
2.11288	34.52
2.12955	34.52
2.14622	34.52
2.16288	34.52
2.17955	34.51
2.19622	34.51
2.21288	34.52
2.22955	34.53
2.24622	34.52
2.26288	34.52
2.27955	34.52
2.29622	34.52
2.31288	34.52
2.32955	34.52
2.34622	34.52
2.36288	34.52
2.37955	34.52
2.39622	34.51
2.41288	34.52
2.42955	34.52
2.44622	34.52
2.46288	34.52
2.47955	34.52
2.49622	34.52
2.51288	34.51
2.52955	34.52
2.54622	34.52
2.56288	34.52
2.57955	34.52
2.59622	34.52
2.61288	34.52
2.62955	34.52
2.64622	34.52
2.66288	34.51
2.67955	34.52
2.69622	34.52
2.71288	34.52
2.72955	34.52
2.74622	34.51
2.76288	34.52
2.77955	34.52
2.79622	34.51
2.81288	34.52
2.82955	34.52
2.84622	34.52
2.86288	34.52
2.87955	34.51
2.89622	34.52
2.91288	34.51
2.92955	34.52
2.94622	34.52
2.96288	34.52
2.97955	34.52
2.99622	34.52
3.01288	34.51
3.02955	34.52
3.04622	34.52
3.06288	34.52
3.07955	34.52
3.09622	34.52
3.11288	34.52
3.12955	34.52
3.14622	34.52
3.16288	34.52
3.17955	34.52
3.19622	34.52
3.21288	34.52
3.22955	34.52
3.24622	34.52
3.26288	34.52
3.27955	34.52
3.29622	34.52
3.31288	34.52
3.32955	34.51
3.34622	34.51
3.36288	34.52
3.37955	34.52
3.39622	34.52
3.41288	34.51
3.42955	34.52
3.44622	34.52
3.46288	34.52
3.47955	34.52
3.49622	34.52
3.51288	34.52
3.52955	34.51
3.54622	34.52
3.56288	34.52
3.57955	34.51
3.59622	34.52
3.61288	34.52
3.62955	34.52
3.64622	34.52
3.66288	34.52
3.67955	34.52
3.69622	34.52
3.71288	34.52
3.72955	34.51
3.74622	34.52
3.76288	34.52
3.77955	34.52
3.79622	34.52
3.81288	34.52
3.82955	34.52
3.84622	34.52
3.86288	34.52
3.87955	34.51
3.89622	34.52
3.91288	34.53
3.92955	34.52
3.94622	34.52
3.96288	34.52
3.97955	34.52

[Status Trace (Column Flow)]
Interval(msec)	1000
# of Points	239
Start Time(min)	0.013
End Time(min)	3.980
Intensity Units	
Intensity Multiplier	1
R.Time (min)	Intensity
0.01288	5.51
0.02955	5.17
0.04622	5.50
0.06288	5.73
0.07955	5.62
0.09622	5.52
0.11288	5.52
0.12955	5.53
0.14622	5.53
0.16288	5.52
0.17955	5.52
0.19622	5.52
0.21288	5.52
0.22955	5.52
0.24622	5.52
0.26288	5.52
0.27955	5.52
0.29622	5.52
0.31288	5.52
0.32955	5.52
0.34622	5.52
0.36288	5.52
0.37955	5.52
0.39622	5.52
0.41288	5.52
0.42955	5.52
0.44622	5.52
0.46288	5.52
0.47955	5.52
0.49622	5.52
0.51288	5.52
0.52955	5.52
0.54622	5.52
0.56288	5.52
0.57955	5.52
0.59622	5.52
0.61288	5.53
0.62955	5.53
0.64622	5.52
0.66288	5.52
0.67955	5.52
0.69622	5.52
0.71288	5.52
0.72955	5.52
0.74622	5.52
0.76288	5.52
0.77955	5.52
0.79622	5.52
0.81288	5.53
0.82955	5.53
0.84622	5.53
0.86288	5.52
0.87955	5.52
0.89622	5.52
0.91288	5.52
0.92955	5.52
0.94622	5.52
0.96288	5.52
0.97955	5.52
0.99622	5.52
1.01288	5.52
1.02955	5.53
1.04622	5.52
1.06288	5.53
1.07955	5.53
1.09622	5.53
1.11288	5.53
1.12955	5.53
1.14622	5.52
1.16288	5.52
1.17955	5.53
1.19622	5.53
1.21288	5.53
1.22955	5.53
1.24622	5.53
1.26288	5.52
1.27955	5.52
1.29622	5.52
1.31288	5.52
1.32955	5.52
1.34622	5.52
1.36288	5.52
1.37955	5.52
1.39622	5.52
1.41288	5.52
1.42955	5.52
1.44622	5.52
1.46288	5.52
1.47955	5.52
1.49622	5.52
1.51288	5.52
1.52955	5.53
1.54622	5.52
1.56288	5.52
1.57955	5.53
1.59622	5.52
1.61288	5.52
1.62955	5.52
1.64622	5.51
1.66288	5.50
1.67955	5.49
1.69622	5.48
1.71288	5.47
1.72955	5.46
1.74622	5.45
1.76288	5.44
1.77955	5.43
1.79622	5.42
1.81288	5.41
1.82955	5.40
1.84622	5.39
1.86288	5.38
1.87955	5.37
1.89622	5.36
1.91288	5.35
1.92955	5.34
1.94622	5.33
1.96288	5.32
1.97955	5.31
1.99622	5.30
2.01288	5.29
2.02955	5.28
2.04622	5.27
2.06288	5.26
2.07955	5.25
2.09622	5.24
2.11288	5.23
2.12955	5.22
2.14622	5.21
2.16288	5.21
2.17955	5.20
2.19622	5.19
2.21288	5.18
2.22955	5.17
2.24622	5.16
2.26288	5.15
2.27955	5.14
2.29622	5.13
2.31288	5.12
2.32955	5.11
2.34622	5.10
2.36288	5.10
2.37955	5.09
2.39622	5.09
2.41288	5.09
2.42955	5.09
2.44622	5.09
2.46288	5.09
2.47955	5.09
2.49622	5.09
2.51288	5.09
2.52955	5.09
2.54622	5.09
2.56288	5.09
2.57955	5.09
2.59622	5.09
2.61288	5.09
2.62955	5.09
2.64622	5.09
2.66288	5.09
2.67955	5.09
2.69622	5.09
2.71288	5.09
2.72955	5.09
2.74622	5.08
2.76288	5.08
2.77955	5.08
2.79622	5.09
2.81288	5.09
2.82955	5.09
2.84622	5.09
2.86288	5.09
2.87955	5.08
2.89622	5.08
2.91288	5.08
2.92955	5.08
2.94622	5.08
2.96288	5.08
2.97955	5.08
2.99622	5.08
3.01288	5.08
3.02955	5.08
3.04622	5.08
3.06288	5.08
3.07955	5.08
3.09622	5.08
3.11288	5.08
3.12955	5.08
3.14622	5.08
3.16288	5.08
3.17955	5.08
3.19622	5.08
3.21288	5.08
3.22955	5.08
3.24622	5.08
3.26288	5.08
3.27955	5.08
3.29622	5.08
3.31288	5.08
3.32955	5.08
3.34622	5.08
3.36288	5.08
3.37955	5.08
3.39622	5.08
3.41288	5.08
3.42955	5.08
3.44622	5.08
3.46288	5.08
3.47955	5.08
3.49622	5.08
3.51288	5.08
3.52955	5.08
3.54622	5.08
3.56288	5.08
3.57955	5.08
3.59622	5.08
3.61288	5.08
3.62955	5.08
3.64622	5.08
3.66288	5.08
3.67955	5.08
3.69622	5.08
3.71288	5.08
3.72955	5.08
3.74622	5.08
3.76288	5.08
3.77955	5.08
3.79622	5.08
3.81288	5.08
3.82955	5.08
3.84622	5.08
3.86288	5.08
3.87955	5.08
3.89622	5.08
3.91288	5.08
3.92955	5.08
3.94622	5.08
3.96288	5.08
3.97955	5.08

[Status Trace (Linear Velocity)]
Interval(msec)	1000
# of Points	239
Start Time(min)	0.013
End Time(min)	3.980
Intensity Units	
Intensity Multiplier	1
R.Time (min)	Intensity
0.01288	38.96
0.02955	37.03
0.04622	38.88
0.06288	40.18
0.07955	39.56
0.09622	39.01
0.11288	39.01
0.12955	39.02
0.14622	39.02
0.16288	39.02
0.17955	39.02
0.19622	39.02
0.21288	39.01
0.22955	39.02
0.24622	39.02
0.26288	39.02
0.27955	39.01
0.29622	39.01
0.31288	39.01
0.32955	39.02
0.34622	39.02
0.36288	39.02
0.37955	39.02
0.39622	39.01
0.41288	39.01
0.42955	39.01
0.44622	39.01
0.46288	39.01
0.47955	39.01
0.49622	39.01
0.51288	39.02
0.52955	39.01
0.54622	39.02
0.56288	39.02
0.57955	39.02
0.59622	39.02
0.61288	39.02
0.62955	39.02
0.64622	39.02
0.66288	39.02
0.67955	39.02
0.69622	39.01
0.71288	39.01
0.72955	39.02
0.74622	39.02
0.76288	39.02
0.77955	39.02
0.79622	39.02
0.81288	39.02
0.82955	39.02
0.84622	39.02
0.86288	39.02
0.87955	39.02
0.89622	39.02
0.91288	39.02
0.92955	39.02
0.94622	39.02
0.96288	39.02
0.97955	39.02
0.99622	39.02
1.01288	39.02
1.02955	39.02
1.04622	39.02
1.06288	39.02
1.07955	39.02
1.09622	39.02
1.11288	39.02
1.12955	39.02
1.14622	39.02
1.16288	39.02
1.17955	39.02
1.19622	39.02
1.21288	39.02
1.22955	39.02
1.24622	39.02
1.26288	39.02
1.27955	39.02
1.29622	39.02
1.31288	39.02
1.32955	39.02
1.34622	39.02
1.36288	39.02
1.37955	39.02
1.39622	39.02
1.41288	39.02
1.42955	39.02
1.44622	39.02
1.46288	39.02
1.47955	39.02
1.49622	39.02
1.51288	39.02
1.52955	39.02
1.54622	39.02
1.56288	39.02
1.57955	39.02
1.59622	39.02
1.61288	39.01
1.62955	39.00
1.64622	38.98
1.66288	38.95
1.67955	38.92
1.69622	38.88
1.71288	38.85
1.72955	38.82
1.74622	38.78
1.76288	38.75
1.77955	38.72
1.79622	38.69
1.81288	38.66
1.82955	38.63
1.84622	38.60
1.86288	38.57
1.87955	38.54
1.89622	38.51
1.91288	38.48
1.92955	38.45
1.94622	38.42
1.96288	38.39
1.97955	38.36
1.99622	38.33
2.01288	38.29
2.02955	38.26
2.04622	38.24
2.06288	38.21
2.07955	38.18
2.09622	38.14
2.11288	38.12
2.12955	38.09
2.14622	38.06
2.16288	38.03
2.17955	38.00
2.19622	37.97
2.21288	37.94
2.22955	37.91
2.24622	37.88
2.26288	37.85
2.27955	37.82
2.29622	37.79
2.31288	37.76
2.32955	37.73
2.34622	37.70
2.36288	37.68
2.37955	37.66
2.39622	37.66
2.41288	37.66
2.42955	37.66
2.44622	37.66
2.46288	37.66
2.47955	37.66
2.49622	37.66
2.51288	37.65
2.52955	37.64
2.54622	37.65
2.56288	37.65
2.57955	37.65
2.59622	37.65
2.61288	37.65
2.62955	37.65
2.64622	37.65
2.66288	37.65
2.67955	37.65
2.69622	37.65
2.71288	37.65
2.72955	37.65
2.74622	37.64
2.76288	37.64
2.77955	37.65
2.79622	37.64
2.81288	37.65
2.82955	37.64
2.84622	37.64
2.86288	37.65
2.87955	37.64
2.89622	37.64
2.91288	37.64
2.92955	37.64
2.94622	37.64
2.96288	37.64
2.97955	37.64
2.99622	37.64
3.01288	37.64
3.02955	37.64
3.04622	37.64
3.06288	37.63
3.07955	37.63
3.09622	37.63
3.11288	37.63
3.12955	37.63
3.14622	37.63
3.16288	37.63
3.17955	37.63
3.19622	37.63
3.21288	37.63
3.22955	37.63
3.24622	37.63
3.26288	37.63
3.27955	37.63
3.29622	37.62
3.31288	37.62
3.32955	37.62
3.34622	37.62
3.36288	37.62
3.37955	37.63
3.39622	37.63
3.41288	37.63
3.42955	37.63
3.44622	37.63
3.46288	37.63
3.47955	37.63
3.49622	37.63
3.51288	37.63
3.52955	37.63
3.54622	37.63
3.56288	37.63
3.57955	37.63
3.59622	37.63
3.61288	37.63
3.62955	37.63
3.64622	37.63
3.66288	37.63
3.67955	37.63
3.69622	37.63
3.71288	37.63
3.72955	37.63
3.74622	37.63
3.76288	37.63
3.77955	37.63
3.79622	37.63
3.81288	37.63
3.82955	37.63
3.84622	37.63
3.86288	37.63
3.87955	37.63
3.89622	37.63
3.91288	37.63
3.92955	37.63
3.94622	37.63
3.96288	37.63
3.97955	37.63

