[Header]
Application Name	LabSolutions
Version	5.110
Data File Name	C:\Users\User\Desktop\GC Analyses\Jack\Nachusa Grasslands Sampling\T3 Timepoint July 12th\T3_07122022_024.gcd
Output Date	3/14/2023
Output Time	3:43:31 PM

[File Information]
Type	Data File
Generated	3/13/2023 5:04:26 PM
Generated by	System Administrator
Modified	3/13/2023 5:11:18 PM
Modified by	System Administrator

[Sample Information]
Operator Name	System Administrator
Acquired	3/13/2023 5:07:16 PM
Sample Type	0:Unknown
Level	0
Sample Name	024
Sample ID	024
ISTD Amount1	1
ISTD Amount2	1
ISTD Amount3	1
ISTD Amount4	1
ISTD Amount5	1
ISTD Amount6	1
ISTD Amount7	1
ISTD Amount8	1
ISTD Amount9	1
ISTD Amount10	1
ISTD Amount11	1
ISTD Amount12	1
ISTD Amount13	1
ISTD Amount14	1
ISTD Amount15	1
ISTD Amount16	1
ISTD Amount17	1
ISTD Amount18	1
ISTD Amount19	1
ISTD Amount20	1
ISTD Amount21	1
ISTD Amount22	1
ISTD Amount23	1
ISTD Amount24	1
ISTD Amount25	1
ISTD Amount26	1
ISTD Amount27	1
ISTD Amount28	1
ISTD Amount29	1
ISTD Amount30	1
ISTD Amount31	1
ISTD Amount32	1
Sample Amount	1
Dilution Factor	1
Vial#	23
Injection Volume	1
Injection Count	1
Bar Code	

[Original Files]
Data File	C:\Users\User\Desktop\GC Analyses\Jack\Nachusa Grasslands Sampling\T3 Timepoint July 12th\T3_07122022_024.gcd
Method File	C:\LabSolutions\Data\GHG_4min_2022\ghg3_togas_w_acet_4 min_new_int.gcm
Batch File	C:\LabSolutions\Data\AutoSamplerTesting\T3_07122022.gcb
Report Format File	c:\LabSolutions\System\DEFAULT.lsr

[File Description]


[Configuration]
Instrument Name	C0B7VH3-Instrument1
Instrument #	1
Line #	1
# of Detectors	3
Detector ID	DET#1	DET#2	DET#3
Detector Name	FID	PTCD	ECD
# of Channels	1	1	1

[Peak Table(Ch1)]
# of Peaks	3
Peak#	R.Time	I.Time	F.Time	Area	Height	A/H	Conc.	Mark	ID#	Name	k'	Plate #	Plate Ht.	Tailing	Resolution	Sep.Factor	Area Ratio	Height Ratio	Conc. %	Norm Conc.
1	1.476	1.439	1.534	33560	16636	2.017	236.936	   	1	CO	0.000	9619	15.594	1.236	0.000	0.000	0	0	27.514	27.514
2	1.571	1.538	1.622	4107	2113	1.943	79.403	   	2	CH4	0.065	11868	12.639	1.136	1.618	0.000	0	0	9.221	9.221
3	2.000	1.945	2.315	2170732	1046125	2.075	544.795	   	3	CO2	0.355	17679	8.484	1.170	7.280	5.500	0	0	63.265	63.265

[Peak Table(Ch2)]
# of Peaks	0

[Peak Table(Ch3)]
# of Peaks	5
Peak#	R.Time	I.Time	F.Time	Area	Height	A/H	Conc.	Mark	ID#	Name	k'	Plate #	Plate Ht.	Tailing	Resolution	Sep.Factor	Area Ratio	Height Ratio	Conc. %	Norm Conc.
1	2.462	2.275	2.510	1931	550	3.508	0.000	   			0.000	10615	14.131	0.000	0.000	0.000	0	0	0.000	0.000
2	2.528	2.510	2.583	902	302	2.988	0.000	 V 			0.027	5778	25.962	0.000	0.577	0.000	0	0	0.000	0.000
3	2.605	2.583	2.678	452	129	3.518	0.000	 V 			0.058	1508	99.461	0.000	0.384	2.167	0	0	0.000	0.000
4	2.880	2.708	3.085	17797	4624	3.849	0.455	   	1	N2O	0.170	13236	11.333	1.509	1.493	2.923	0	0	100.000	100.000
5	3.500	3.181	3.606	1004	58	17.169	0.000	   			0.421	880	170.386	0.682	2.167	2.482	0	0	0.000	0.000

[Compound Results(Ch1)]
# of IDs	6
ID#	Name	R.Time	Area	Height	Conc.	Curve	3rd	2nd	1st	Constant	Area Ratio	Height Ratio	Conc. %	Norm Conc.
1	CO	1.476	33560	16636	236.936	Linear	0.000000e+00	0.000000e+00	1.416423e+002	0.000000e+00	0	0	27.514	27.514
2	CH4	1.571	4107	2113	79.403	Linear	0.000000e+00	0.000000e+00	5.171738e+001	0.000000e+00	0	0	9.221	9.221
3	CO2	2.000	2170732	1046125	544.795	Linear	0.000000e+00	0.000000e+00	3.984494e+003	0.000000e+00	0	0	63.265	63.265
4	Ethylene	0.000	0	0	0.000	Linear	0.000000e+00	0.000000e+00	0.000000e+00	0.000000e+00	0	0	0.000	0.000
5	Acetylene	0.000	0	0	0.000	Linear	0.000000e+00	0.000000e+00	0.000000e+00	0.000000e+00	0	0	0.000	0.000
6	Ethane	0.000	0	0	0.000	Linear	0.000000e+00	0.000000e+00	0.000000e+00	0.000000e+00	0	0	0.000	0.000

[Compound Results(Ch2)]
# of IDs	5
ID#	Name	R.Time	Area	Height	Conc.	Curve	3rd	2nd	1st	Constant	Area Ratio	Height Ratio	Conc. %	Norm Conc.
1	Hydrogen	0.000	0	0	0.000	Linear	0.000000e+00	0.000000e+00	0.000000e+00	0.000000e+00	0	0	0.000	0.000
2	Oxygen	0.000	0	0	0.000	Linear	0.000000e+00	0.000000e+00	0.000000e+00	0.000000e+00	0	0	0.000	0.000
3	Nitrogen	0.000	0	0	0.000	Linear	0.000000e+00	0.000000e+00	0.000000e+00	0.000000e+00	0	0	0.000	0.000
4	Methane	0.000	0	0	0.000	Linear	0.000000e+00	0.000000e+00	0.000000e+00	0.000000e+00	0	0	0.000	0.000
5	Carbon Monoxide	0.000	0	0	0.000	Linear	0.000000e+00	0.000000e+00	0.000000e+00	0.000000e+00	0	0	0.000	0.000

[Compound Results(Ch3)]
# of IDs	2
ID#	Name	R.Time	Area	Height	Conc.	Curve	3rd	2nd	1st	Constant	Area Ratio	Height Ratio	Conc. %	Norm Conc.
1	N2O	2.880	17797	4624	0.455	Linear	0.000000e+00	0.000000e+00	3.915173e+004	0.000000e+00	0	0	100.000	100.000
2	SF6	0.000	0	0	0.000	Linear	0.000000e+00	0.000000e+00	0.000000e+00	0.000000e+00	0	0	0.000	0.000

[Group Results(Ch1)]
# of Groups	0

[Group Results(Ch2)]
# of Groups	0

[Group Results(Ch3)]
# of Groups	0

[Chromatogram (Ch1)]
Interval(msec)	220
# of Points	1091
Start Time(min)	0.002
End Time(min)	3.998
R.Time (min)	Intensity
0.00167	17
0.00533	16
0.00900	17
0.01267	25
0.01633	29
0.02000	28
0.02367	23
0.02733	17
0.03100	9
0.03467	0
0.03833	-11
0.04200	-17
0.04567	-17
0.04933	-14
0.05300	-8
0.05667	-7
0.06033	-8
0.06400	-0
0.06767	11
0.07133	22
0.07500	31
0.07867	33
0.08233	28
0.08600	19
0.08967	12
0.09333	13
0.09700	10
0.10067	9
0.10433	12
0.10800	16
0.11167	27
0.11533	33
0.11900	30
0.12267	29
0.12633	29
0.13000	25
0.13367	20
0.13733	13
0.14100	11
0.14467	9
0.14833	4
0.15200	4
0.15567	11
0.15933	17
0.16300	22
0.16667	24
0.17033	24
0.17400	18
0.17767	13
0.18133	12
0.18500	17
0.18867	26
0.19233	33
0.19600	38
0.19967	42
0.20333	44
0.20700	45
0.21067	43
0.21433	38
0.21800	36
0.22167	36
0.22533	34
0.22900	27
0.23267	20
0.23633	14
0.24000	12
0.24367	14
0.24733	19
0.25100	24
0.25467	25
0.25833	22
0.26200	14
0.26567	3
0.26933	-3
0.27300	-5
0.27667	0
0.28033	8
0.28400	12
0.28767	16
0.29133	20
0.29500	21
0.29867	17
0.30233	17
0.30600	21
0.30967	29
0.31333	38
0.31700	37
0.32067	33
0.32433	26
0.32800	21
0.33167	15
0.33533	9
0.33900	7
0.34267	9
0.34633	17
0.35000	12
0.35367	7
0.35733	11
0.36100	19
0.36467	32
0.36833	40
0.37200	37
0.37567	30
0.37933	26
0.38300	24
0.38667	21
0.39033	18
0.39400	22
0.39767	25
0.40133	22
0.40500	15
0.40867	12
0.41233	13
0.41600	16
0.41967	23
0.42333	35
0.42700	43
0.43067	42
0.43433	36
0.43800	29
0.44167	22
0.44533	16
0.44900	13
0.45267	11
0.45633	11
0.46000	12
0.46367	14
0.46733	14
0.47100	11
0.47467	9
0.47833	9
0.48200	10
0.48567	12
0.48933	18
0.49300	25
0.49667	31
0.50033	35
0.50400	37
0.50767	46
0.51133	54
0.51500	49
0.51867	36
0.52233	17
0.52600	-0
0.52967	-15
0.53333	-24
0.53700	-24
0.54067	-19
0.54433	-11
0.54800	-6
0.55167	-2
0.55533	3
0.55900	8
0.56267	15
0.56633	18
0.57000	15
0.57367	12
0.57733	12
0.58100	15
0.58467	18
0.58833	21
0.59200	21
0.59567	21
0.59933	24
0.60300	27
0.60667	34
0.61033	32
0.61400	24
0.61767	14
0.62133	8
0.62500	4
0.62867	2
0.63233	6
0.63600	15
0.63967	25
0.64333	32
0.64700	38
0.65067	40
0.65433	39
0.65800	43
0.66167	34
0.66533	21
0.66900	15
0.67267	15
0.67633	16
0.68000	15
0.68367	13
0.68733	11
0.69100	12
0.69467	10
0.69833	4
0.70200	2
0.70567	4
0.70933	9
0.71300	15
0.71667	25
0.72033	32
0.72400	34
0.72767	32
0.73133	24
0.73500	14
0.73867	10
0.74233	9
0.74600	10
0.74967	10
0.75333	10
0.75700	10
0.76067	14
0.76433	20
0.76800	25
0.77167	28
0.77533	25
0.77900	17
0.78267	8
0.78633	4
0.79000	4
0.79367	8
0.79733	13
0.80100	19
0.80467	23
0.80833	18
0.81200	14
0.81567	11
0.81933	8
0.82300	6
0.82667	3
0.83033	-0
0.83400	2
0.83767	8
0.84133	15
0.84500	20
0.84867	22
0.85233	23
0.85600	23
0.85967	20
0.86333	12
0.86700	4
0.87067	-3
0.87433	-10
0.87800	-10
0.88167	-7
0.88533	-3
0.88900	-0
0.89267	-2
0.89633	-1
0.90000	2
0.90367	3
0.90733	-3
0.91100	-14
0.91467	-25
0.91833	-35
0.92200	-40
0.92567	-41
0.92933	-33
0.93300	-21
0.93667	-17
0.94033	-17
0.94400	-15
0.94767	-12
0.95133	-4
0.95500	3
0.95867	9
0.96233	11
0.96600	18
0.96967	27
0.97333	32
0.97700	30
0.98067	26
0.98433	24
0.98800	22
0.99167	12
0.99533	2
0.99900	-0
1.00267	6
1.00633	15
1.01000	22
1.01367	25
1.01733	25
1.02100	21
1.02467	15
1.02833	11
1.03200	10
1.03567	10
1.03933	14
1.04300	20
1.04667	24
1.05033	27
1.05400	27
1.05767	27
1.06133	25
1.06500	23
1.06867	23
1.07233	21
1.07600	20
1.07967	22
1.08333	22
1.08700	17
1.09067	14
1.09433	15
1.09800	20
1.10167	26
1.10533	35
1.10900	44
1.11267	49
1.11633	51
1.12000	47
1.12367	40
1.12733	35
1.13100	29
1.13467	24
1.13833	23
1.14200	23
1.14567	24
1.14933	24
1.15300	22
1.15667	17
1.16033	12
1.16400	7
1.16767	2
1.17133	4
1.17500	12
1.17867	16
1.18233	11
1.18600	3
1.18967	-2
1.19333	-0
1.19700	8
1.20067	16
1.20433	23
1.20800	24
1.21167	24
1.21533	25
1.21900	21
1.22267	18
1.22633	17
1.23000	16
1.23367	10
1.23733	0
1.24100	-6
1.24467	-13
1.24833	-20
1.25200	-22
1.25567	-20
1.25933	-16
1.26300	-10
1.26667	-1
1.27033	2
1.27400	-2
1.27767	-7
1.28133	-7
1.28500	-5
1.28867	-2
1.29233	4
1.29600	10
1.29967	22
1.30333	29
1.30700	29
1.31067	24
1.31433	15
1.31800	5
1.32167	-3
1.32533	-2
1.32900	1
1.33267	6
1.33633	11
1.34000	11
1.34367	7
1.34733	3
1.35100	-0
1.35467	1
1.35833	5
1.36200	12
1.36567	12
1.36933	6
1.37300	-2
1.37667	-7
1.38033	-12
1.38400	-17
1.38767	-22
1.39133	-28
1.39500	-31
1.39867	-27
1.40233	-15
1.40600	-9
1.40967	-6
1.41333	-4
1.41700	1
1.42067	1
1.42433	-5
1.42800	-9
1.43167	-12
1.43533	-17
1.43900	-13
1.44267	31
1.44633	240
1.45000	899
1.45367	2433
1.45733	5054
1.46100	8306
1.46467	11453
1.46833	14011
1.47200	15760
1.47567	16547
1.47933	16226
1.48300	14805
1.48667	12562
1.49033	9952
1.49400	7426
1.49767	5273
1.50133	3592
1.50500	2356
1.50867	1483
1.51233	881
1.51600	475
1.51967	208
1.52333	33
1.52700	-82
1.53067	-161
1.53433	-209
1.53800	-225
1.54167	-189
1.54533	-45
1.54900	249
1.55267	654
1.55633	1083
1.56000	1460
1.56367	1743
1.56733	1903
1.57100	1918
1.57467	1773
1.57833	1497
1.58200	1156
1.58567	818
1.58933	529
1.59300	304
1.59667	145
1.60033	38
1.60400	-33
1.60767	-80
1.61133	-106
1.61500	-123
1.61867	-137
1.62233	-148
1.62600	-157
1.62967	-156
1.63333	-151
1.63700	-151
1.64067	-152
1.64433	-154
1.64800	-160
1.65167	-166
1.65533	-160
1.65900	-151
1.66267	-143
1.66633	-139
1.67000	-140
1.67367	-142
1.67733	-144
1.68100	-141
1.68467	-133
1.68833	-125
1.69200	-117
1.69567	-116
1.69933	-120
1.70300	-123
1.70667	-124
1.71033	-122
1.71400	-119
1.71767	-116
1.72133	-115
1.72500	-111
1.72867	-106
1.73233	-106
1.73600	-109
1.73967	-107
1.74333	-103
1.74700	-100
1.75067	-100
1.75433	-102
1.75800	-98
1.76167	-92
1.76533	-94
1.76900	-100
1.77267	-106
1.77633	-113
1.78000	-118
1.78367	-117
1.78733	-115
1.79100	-114
1.79467	-112
1.79833	-113
1.80200	-117
1.80567	-116
1.80933	-112
1.81300	-105
1.81667	-96
1.82033	-90
1.82400	-82
1.82767	-80
1.83133	-79
1.83500	-77
1.83867	-71
1.84233	-64
1.84600	-62
1.84967	-66
1.85333	-73
1.85700	-79
1.86067	-84
1.86433	-82
1.86800	-78
1.87167	-75
1.87533	-72
1.87900	-69
1.88267	-67
1.88633	-63
1.89000	-53
1.89367	-44
1.89733	-42
1.90100	-42
1.90467	-42
1.90833	-46
1.91200	-54
1.91567	-58
1.91933	-60
1.92300	-60
1.92667	-60
1.93033	-59
1.93400	-54
1.93767	-49
1.94133	-47
1.94500	-41
1.94867	-34
1.95233	-27
1.95600	57
1.95967	651
1.96333	3655
1.96700	15088
1.97067	48394
1.97433	123300
1.97800	254123
1.98167	434930
1.98533	638218
1.98900	827355
1.99267	970257
1.99633	1046052
2.00000	1046125
2.00367	974878
2.00733	849783
2.01100	696449
2.01467	540633
2.01833	401298
2.02200	287829
2.02567	201551
2.02933	139099
2.03300	95410
2.03667	65541
2.04033	45393
2.04400	31888
2.04767	22832
2.05133	16722
2.05500	12560
2.05867	9688
2.06233	7672
2.06600	6222
2.06967	5151
2.07333	4340
2.07700	3719
2.08067	3233
2.08433	2843
2.08800	2524
2.09167	2263
2.09533	2049
2.09900	1879
2.10267	1735
2.10633	1607
2.11000	1493
2.11367	1389
2.11733	1299
2.12100	1219
2.12467	1145
2.12833	1078
2.13200	1022
2.13567	976
2.13933	937
2.14300	900
2.14667	861
2.15033	821
2.15400	782
2.15767	747
2.16133	715
2.16500	688
2.16867	661
2.17233	631
2.17600	599
2.17967	578
2.18333	567
2.18700	555
2.19067	541
2.19433	527
2.19800	515
2.20167	504
2.20533	486
2.20900	465
2.21267	445
2.21633	425
2.22000	409
2.22367	395
2.22733	381
2.23100	369
2.23467	361
2.23833	355
2.24200	346
2.24567	334
2.24933	321
2.25300	317
2.25667	317
2.26033	320
2.26400	327
2.26767	329
2.27133	321
2.27500	309
2.27867	300
2.28233	294
2.28600	290
2.28967	288
2.29333	288
2.29700	285
2.30067	277
2.30433	272
2.30800	264
2.31167	250
2.31533	238
2.31900	234
2.32267	233
2.32633	232
2.33000	230
2.33367	228
2.33733	229
2.34100	230
2.34467	236
2.34833	244
2.35200	246
2.35567	245
2.35933	242
2.36300	234
2.36667	226
2.37033	218
2.37400	206
2.37767	198
2.38133	198
2.38500	206
2.38867	217
2.39233	220
2.39600	216
2.39967	210
2.40333	204
2.40700	194
2.41067	183
2.41433	178
2.41800	176
2.42167	175
2.42533	178
2.42900	177
2.43267	172
2.43633	170
2.44000	169
2.44367	171
2.44733	176
2.45100	182
2.45467	185
2.45833	185
2.46200	180
2.46567	174
2.46933	172
2.47300	169
2.47667	169
2.48033	167
2.48400	161
2.48767	157
2.49133	155
2.49500	155
2.49867	157
2.50233	161
2.50600	167
2.50967	170
2.51333	172
2.51700	175
2.52067	182
2.52433	187
2.52800	192
2.53167	201
2.53533	204
2.53900	197
2.54267	189
2.54633	186
2.55000	185
2.55367	181
2.55733	170
2.56100	156
2.56467	147
2.56833	154
2.57200	158
2.57567	156
2.57933	155
2.58300	156
2.58667	159
2.59033	160
2.59400	159
2.59767	157
2.60133	154
2.60500	151
2.60867	145
2.61233	135
2.61600	127
2.61967	124
2.62333	128
2.62700	132
2.63067	138
2.63433	142
2.63800	145
2.64167	152
2.64533	162
2.64900	168
2.65267	168
2.65633	159
2.66000	143
2.66367	128
2.66733	119
2.67100	120
2.67467	124
2.67833	127
2.68200	132
2.68567	137
2.68933	138
2.69300	136
2.69667	133
2.70033	133
2.70400	135
2.70767	139
2.71133	142
2.71500	139
2.71867	137
2.72233	138
2.72600	137
2.72967	129
2.73333	124
2.73700	126
2.74067	130
2.74433	139
2.74800	147
2.75167	145
2.75533	139
2.75900	134
2.76267	132
2.76633	130
2.77000	137
2.77367	144
2.77733	149
2.78100	152
2.78467	162
2.78833	170
2.79200	171
2.79567	167
2.79933	161
2.80300	156
2.80667	155
2.81033	150
2.81400	148
2.81767	139
2.82133	133
2.82500	132
2.82867	132
2.83233	137
2.83600	143
2.83967	146
2.84333	140
2.84700	137
2.85067	134
2.85433	129
2.85800	125
2.86167	126
2.86533	127
2.86900	127
2.87267	132
2.87633	142
2.88000	148
2.88367	149
2.88733	152
2.89100	158
2.89467	163
2.89833	163
2.90200	161
2.90567	157
2.90933	153
2.91300	149
2.91667	144
2.92033	140
2.92400	139
2.92767	143
2.93133	146
2.93500	149
2.93867	155
2.94233	157
2.94600	154
2.94967	146
2.95333	140
2.95700	142
2.96067	147
2.96433	145
2.96800	145
2.97167	145
2.97533	143
2.97900	137
2.98267	135
2.98633	134
2.99000	132
2.99367	132
2.99733	130
3.00100	124
3.00467	120
3.00833	121
3.01200	126
3.01567	135
3.01933	148
3.02300	157
3.02667	164
3.03033	161
3.03400	155
3.03767	148
3.04133	147
3.04500	152
3.04867	157
3.05233	159
3.05600	156
3.05967	149
3.06333	142
3.06700	134
3.07067	128
3.07433	121
3.07800	113
3.08167	108
3.08533	102
3.08900	95
3.09267	89
3.09633	88
3.10000	93
3.10367	101
3.10733	110
3.11100	115
3.11467	111
3.11833	105
3.12200	104
3.12567	106
3.12933	104
3.13300	103
3.13667	104
3.14033	111
3.14400	123
3.14767	131
3.15133	130
3.15500	127
3.15867	124
3.16233	122
3.16600	117
3.16967	115
3.17333	118
3.17700	118
3.18067	118
3.18433	123
3.18800	136
3.19167	149
3.19533	154
3.19900	152
3.20267	139
3.20633	123
3.21000	112
3.21367	105
3.21733	99
3.22100	94
3.22467	96
3.22833	97
3.23200	97
3.23567	100
3.23933	106
3.24300	111
3.24667	116
3.25033	125
3.25400	142
3.25767	156
3.26133	156
3.26500	147
3.26867	135
3.27233	124
3.27600	115
3.27967	105
3.28333	95
3.28700	87
3.29067	84
3.29433	89
3.29800	92
3.30167	92
3.30533	94
3.30900	96
3.31267	100
3.31633	105
3.32000	110
3.32367	114
3.32733	110
3.33100	101
3.33467	97
3.33833	97
3.34200	98
3.34567	100
3.34933	100
3.35300	98
3.35667	90
3.36033	78
3.36400	69
3.36767	65
3.37133	65
3.37500	67
3.37867	70
3.38233	70
3.38600	72
3.38967	74
3.39333	71
3.39700	71
3.40067	71
3.40433	77
3.40800	82
3.41167	87
3.41533	90
3.41900	93
3.42267	98
3.42633	103
3.43000	106
3.43367	110
3.43733	109
3.44100	105
3.44467	98
3.44833	91
3.45200	91
3.45567	95
3.45933	97
3.46300	95
3.46667	87
3.47033	80
3.47400	72
3.47767	67
3.48133	66
3.48500	69
3.48867	72
3.49233	74
3.49600	76
3.49967	78
3.50333	78
3.50700	80
3.51067	78
3.51433	73
3.51800	69
3.52167	72
3.52533	78
3.52900	85
3.53267	90
3.53633	94
3.54000	97
3.54367	96
3.54733	90
3.55100	82
3.55467	73
3.55833	69
3.56200	65
3.56567	57
3.56933	52
3.57300	48
3.57667	45
3.58033	46
3.58400	52
3.58767	57
3.59133	57
3.59500	51
3.59867	44
3.60233	42
3.60600	44
3.60967	48
3.61333	50
3.61700	53
3.62067	58
3.62433	66
3.62800	70
3.63167	68
3.63533	65
3.63900	66
3.64267	66
3.64633	64
3.65000	60
3.65367	58
3.65733	60
3.66100	63
3.66467	65
3.66833	67
3.67200	65
3.67567	57
3.67933	48
3.68300	42
3.68667	39
3.69033	37
3.69400	32
3.69767	26
3.70133	21
3.70500	21
3.70867	21
3.71233	23
3.71600	26
3.71967	25
3.72333	27
3.72700	32
3.73067	39
3.73433	45
3.73800	47
3.74167	45
3.74533	43
3.74900	41
3.75267	37
3.75633	34
3.76000	32
3.76367	33
3.76733	33
3.77100	30
3.77467	28
3.77833	28
3.78200	33
3.78567	40
3.78933	44
3.79300	45
3.79667	43
3.80033	43
3.80400	43
3.80767	40
3.81133	35
3.81500	29
3.81867	27
3.82233	29
3.82600	32
3.82967	32
3.83333	32
3.83700	34
3.84067	35
3.84433	34
3.84800	29
3.85167	26
3.85533	25
3.85900	25
3.86267	26
3.86633	24
3.87000	22
3.87367	22
3.87733	24
3.88100	25
3.88467	24
3.88833	22
3.89200	22
3.89567	24
3.89933	25
3.90300	26
3.90667	27
3.91033	31
3.91400	35
3.91767	35
3.92133	34
3.92500	37
3.92867	42
3.93233	46
3.93600	50
3.93967	51
3.94333	48
3.94700	40
3.95067	28
3.95433	19
3.95800	10
3.96167	1
3.96533	-8
3.96900	-15
3.97267	-16
3.97633	-14
3.98000	-9
3.98367	-3
3.98733	1
3.99100	7
3.99467	14
3.99833	21

[Chromatogram (Ch2)]
Interval(msec)	220
# of Points	1091
Start Time(min)	0.002
End Time(min)	3.998
R.Time (min)	Intensity
0.00167	-1
0.00533	-0
0.00900	-0
0.01267	-0
0.01633	-0
0.02000	-0
0.02367	-0
0.02733	0
0.03100	0
0.03467	0
0.03833	1
0.04200	1
0.04567	1
0.04933	1
0.05300	1
0.05667	1
0.06033	1
0.06400	1
0.06767	0
0.07133	-0
0.07500	-0
0.07867	-1
0.08233	-1
0.08600	-1
0.08967	-1
0.09333	-1
0.09700	-1
0.10067	-1
0.10433	-0
0.10800	-0
0.11167	0
0.11533	1
0.11900	1
0.12267	1
0.12633	2
0.13000	2
0.13367	2
0.13733	2
0.14100	3
0.14467	3
0.14833	3
0.15200	3
0.15567	3
0.15933	3
0.16300	3
0.16667	3
0.17033	3
0.17400	3
0.17767	3
0.18133	4
0.18500	4
0.18867	4
0.19233	4
0.19600	4
0.19967	4
0.20333	4
0.20700	3
0.21067	3
0.21433	2
0.21800	2
0.22167	2
0.22533	1
0.22900	1
0.23267	1
0.23633	1
0.24000	1
0.24367	1
0.24733	1
0.25100	1
0.25467	1
0.25833	1
0.26200	1
0.26567	1
0.26933	1
0.27300	1
0.27667	2
0.28033	2
0.28400	2
0.28767	2
0.29133	2
0.29500	2
0.29867	2
0.30233	2
0.30600	1
0.30967	1
0.31333	0
0.31700	0
0.32067	0
0.32433	0
0.32800	0
0.33167	0
0.33533	1
0.33900	1
0.34267	1
0.34633	1
0.35000	1
0.35367	1
0.35733	1
0.36100	1
0.36467	1
0.36833	1
0.37200	1
0.37567	0
0.37933	-0
0.38300	-0
0.38667	-1
0.39033	-1
0.39400	-1
0.39767	-0
0.40133	-0
0.40500	0
0.40867	1
0.41233	1
0.41600	2
0.41967	2
0.42333	2
0.42700	2
0.43067	2
0.43433	2
0.43800	2
0.44167	2
0.44533	1
0.44900	1
0.45267	0
0.45633	-0
0.46000	-1
0.46367	-1
0.46733	-1
0.47100	-2
0.47467	-2
0.47833	-2
0.48200	-2
0.48567	-2
0.48933	-2
0.49300	-1
0.49667	-1
0.50033	-0
0.50400	0
0.50767	0
0.51133	0
0.51500	0
0.51867	-0
0.52233	-0
0.52600	-0
0.52967	-0
0.53333	-0
0.53700	-0
0.54067	-0
0.54433	-0
0.54800	-0
0.55167	-0
0.55533	0
0.55900	0
0.56267	0
0.56633	0
0.57000	0
0.57367	0
0.57733	0
0.58100	1
0.58467	1
0.58833	1
0.59200	1
0.59567	1
0.59933	1
0.60300	1
0.60667	1
0.61033	1
0.61400	1
0.61767	1
0.62133	0
0.62500	0
0.62867	0
0.63233	-0
0.63600	-0
0.63967	-0
0.64333	-1
0.64700	-1
0.65067	-1
0.65433	-1
0.65800	-1
0.66167	-0
0.66533	-0
0.66900	-0
0.67267	-0
0.67633	0
0.68000	0
0.68367	0
0.68733	0
0.69100	1
0.69467	1
0.69833	1
0.70200	1
0.70567	1
0.70933	0
0.71300	0
0.71667	-0
0.72033	-1
0.72400	-1
0.72767	-1
0.73133	-1
0.73500	-2
0.73867	-2
0.74233	-2
0.74600	-2
0.74967	-2
0.75333	-2
0.75700	-2
0.76067	-1
0.76433	-1
0.76800	-1
0.77167	-1
0.77533	-1
0.77900	-0
0.78267	-0
0.78633	-0
0.79000	0
0.79367	0
0.79733	1
0.80100	1
0.80467	1
0.80833	1
0.81200	1
0.81567	1
0.81933	1
0.82300	1
0.82667	1
0.83033	0
0.83400	0
0.83767	0
0.84133	0
0.84500	0
0.84867	0
0.85233	0
0.85600	1
0.85967	1
0.86333	1
0.86700	1
0.87067	1
0.87433	1
0.87800	1
0.88167	1
0.88533	1
0.88900	1
0.89267	1
0.89633	1
0.90000	1
0.90367	0
0.90733	0
0.91100	-0
0.91467	-1
0.91833	-1
0.92200	-1
0.92567	-2
0.92933	-2
0.93300	-2
0.93667	-2
0.94033	-2
0.94400	-2
0.94767	-2
0.95133	-2
0.95500	-2
0.95867	-2
0.96233	-2
0.96600	-2
0.96967	-2
0.97333	-2
0.97700	-2
0.98067	-1
0.98433	-1
0.98800	-1
0.99167	-1
0.99533	-1
0.99900	-1
1.00267	-1
1.00633	-1
1.01000	-1
1.01367	-1
1.01733	-1
1.02100	-0
1.02467	-0
1.02833	-0
1.03200	-0
1.03567	-1
1.03933	-1
1.04300	-1
1.04667	-2
1.05033	-2
1.05400	-2
1.05767	-1
1.06133	-1
1.06500	-1
1.06867	-1
1.07233	-1
1.07600	-1
1.07967	-1
1.08333	-1
1.08700	-2
1.09067	-2
1.09433	-2
1.09800	-2
1.10167	-2
1.10533	-2
1.10900	-2
1.11267	-2
1.11633	-2
1.12000	-2
1.12367	-2
1.12733	-2
1.13100	-2
1.13467	-2
1.13833	-2
1.14200	-2
1.14567	-2
1.14933	-2
1.15300	-2
1.15667	-2
1.16033	-2
1.16400	-2
1.16767	-2
1.17133	-3
1.17500	-3
1.17867	-2
1.18233	-2
1.18600	-2
1.18967	-2
1.19333	-2
1.19700	-2
1.20067	-2
1.20433	-2
1.20800	-2
1.21167	-2
1.21533	-2
1.21900	-3
1.22267	-3
1.22633	-2
1.23000	-2
1.23367	-2
1.23733	-2
1.24100	-2
1.24467	-2
1.24833	-2
1.25200	-2
1.25567	-2
1.25933	-2
1.26300	-2
1.26667	-2
1.27033	-2
1.27400	-2
1.27767	-2
1.28133	-2
1.28500	-2
1.28867	-2
1.29233	-2
1.29600	-2
1.29967	-2
1.30333	-2
1.30700	-2
1.31067	-2
1.31433	-2
1.31800	-2
1.32167	-1
1.32533	-1
1.32900	-1
1.33267	-2
1.33633	-2
1.34000	-2
1.34367	-3
1.34733	-3
1.35100	-3
1.35467	-3
1.35833	-3
1.36200	-3
1.36567	-3
1.36933	-4
1.37300	-4
1.37667	-4
1.38033	-4
1.38400	-3
1.38767	-3
1.39133	-2
1.39500	-2
1.39867	-2
1.40233	-2
1.40600	-1
1.40967	-1
1.41333	-1
1.41700	-1
1.42067	-1
1.42433	-1
1.42800	-1
1.43167	-1
1.43533	-1
1.43900	-1
1.44267	-1
1.44633	-1
1.45000	-1
1.45367	-1
1.45733	-1
1.46100	-1
1.46467	-1
1.46833	-1
1.47200	-1
1.47567	-1
1.47933	-1
1.48300	-1
1.48667	-1
1.49033	-1
1.49400	-1
1.49767	-1
1.50133	-1
1.50500	-1
1.50867	-1
1.51233	-1
1.51600	-1
1.51967	-2
1.52333	-2
1.52700	-2
1.53067	-2
1.53433	-2
1.53800	-2
1.54167	-2
1.54533	-2
1.54900	-2
1.55267	-2
1.55633	-2
1.56000	-2
1.56367	-2
1.56733	-2
1.57100	-2
1.57467	-2
1.57833	-2
1.58200	-3
1.58567	-3
1.58933	-4
1.59300	-4
1.59667	-5
1.60033	-7
1.60400	-8
1.60767	-10
1.61133	-11
1.61500	-13
1.61867	-16
1.62233	-18
1.62600	-21
1.62967	-24
1.63333	-27
1.63700	-30
1.64067	-33
1.64433	-35
1.64800	-38
1.65167	-42
1.65533	-45
1.65900	-48
1.66267	-52
1.66633	-56
1.67000	-60
1.67367	-66
1.67733	-71
1.68100	-77
1.68467	-82
1.68833	-86
1.69200	-90
1.69567	-93
1.69933	-95
1.70300	-97
1.70667	-99
1.71033	-101
1.71400	-102
1.71767	-103
1.72133	-105
1.72500	-105
1.72867	-106
1.73233	-107
1.73600	-107
1.73967	-107
1.74333	-108
1.74700	-108
1.75067	-108
1.75433	-108
1.75800	-108
1.76167	-108
1.76533	-108
1.76900	-109
1.77267	-110
1.77633	-111
1.78000	-111
1.78367	-112
1.78733	-112
1.79100	-112
1.79467	-112
1.79833	-113
1.80200	-113
1.80567	-113
1.80933	-114
1.81300	-114
1.81667	-114
1.82033	-114
1.82400	-115
1.82767	-115
1.83133	-115
1.83500	-115
1.83867	-115
1.84233	-114
1.84600	-114
1.84967	-113
1.85333	-112
1.85700	-111
1.86067	-111
1.86433	-111
1.86800	-111
1.87167	-111
1.87533	-111
1.87900	-112
1.88267	-112
1.88633	-113
1.89000	-113
1.89367	-113
1.89733	-113
1.90100	-113
1.90467	-113
1.90833	-113
1.91200	-114
1.91567	-114
1.91933	-113
1.92300	-112
1.92667	-112
1.93033	-111
1.93400	-110
1.93767	-109
1.94133	-109
1.94500	-110
1.94867	-110
1.95233	-111
1.95600	-111
1.95967	-111
1.96333	-111
1.96700	-111
1.97067	-110
1.97433	-110
1.97800	-110
1.98167	-109
1.98533	-109
1.98900	-109
1.99267	-108
1.99633	-108
2.00000	-107
2.00367	-107
2.00733	-106
2.01100	-106
2.01467	-105
2.01833	-105
2.02200	-104
2.02567	-104
2.02933	-103
2.03300	-103
2.03667	-102
2.04033	-102
2.04400	-102
2.04767	-102
2.05133	-102
2.05500	-101
2.05867	-101
2.06233	-101
2.06600	-101
2.06967	-101
2.07333	-101
2.07700	-100
2.08067	-100
2.08433	-100
2.08800	-99
2.09167	-98
2.09533	-97
2.09900	-97
2.10267	-97
2.10633	-96
2.11000	-97
2.11367	-97
2.11733	-97
2.12100	-97
2.12467	-97
2.12833	-97
2.13200	-97
2.13567	-97
2.13933	-97
2.14300	-97
2.14667	-96
2.15033	-96
2.15400	-96
2.15767	-96
2.16133	-96
2.16500	-96
2.16867	-95
2.17233	-95
2.17600	-94
2.17967	-94
2.18333	-93
2.18700	-93
2.19067	-92
2.19433	-92
2.19800	-91
2.20167	-91
2.20533	-91
2.20900	-91
2.21267	-91
2.21633	-91
2.22000	-90
2.22367	-90
2.22733	-90
2.23100	-90
2.23467	-90
2.23833	-89
2.24200	-89
2.24567	-88
2.24933	-88
2.25300	-87
2.25667	-87
2.26033	-86
2.26400	-86
2.26767	-85
2.27133	-85
2.27500	-85
2.27867	-84
2.28233	-84
2.28600	-83
2.28967	-83
2.29333	-83
2.29700	-82
2.30067	-82
2.30433	-82
2.30800	-81
2.31167	-81
2.31533	-80
2.31900	-80
2.32267	-80
2.32633	-79
2.33000	-79
2.33367	-78
2.33733	-78
2.34100	-77
2.34467	-76
2.34833	-75
2.35200	-74
2.35567	-73
2.35933	-71
2.36300	-70
2.36667	-68
2.37033	-67
2.37400	-65
2.37767	-62
2.38133	-59
2.38500	-56
2.38867	-52
2.39233	-48
2.39600	-44
2.39967	-40
2.40333	-35
2.40700	-31
2.41067	-27
2.41433	-23
2.41800	-19
2.42167	-16
2.42533	-14
2.42900	-12
2.43267	-11
2.43633	-10
2.44000	-9
2.44367	-9
2.44733	-8
2.45100	-7
2.45467	-7
2.45833	-6
2.46200	-5
2.46567	-4
2.46933	-3
2.47300	-3
2.47667	-2
2.48033	-0
2.48400	1
2.48767	2
2.49133	3
2.49500	4
2.49867	5
2.50233	5
2.50600	6
2.50967	6
2.51333	7
2.51700	8
2.52067	8
2.52433	10
2.52800	11
2.53167	12
2.53533	12
2.53900	13
2.54267	14
2.54633	14
2.55000	14
2.55367	14
2.55733	14
2.56100	14
2.56467	14
2.56833	14
2.57200	15
2.57567	15
2.57933	15
2.58300	15
2.58667	15
2.59033	15
2.59400	15
2.59767	15
2.60133	16
2.60500	16
2.60867	16
2.61233	16
2.61600	16
2.61967	16
2.62333	16
2.62700	16
2.63067	16
2.63433	17
2.63800	17
2.64167	17
2.64533	17
2.64900	17
2.65267	18
2.65633	18
2.66000	18
2.66367	18
2.66733	19
2.67100	19
2.67467	19
2.67833	20
2.68200	20
2.68567	20
2.68933	21
2.69300	21
2.69667	21
2.70033	21
2.70400	21
2.70767	21
2.71133	21
2.71500	21
2.71867	21
2.72233	21
2.72600	22
2.72967	22
2.73333	23
2.73700	24
2.74067	25
2.74433	26
2.74800	26
2.75167	27
2.75533	27
2.75900	27
2.76267	27
2.76633	26
2.77000	26
2.77367	25
2.77733	24
2.78100	24
2.78467	24
2.78833	24
2.79200	24
2.79567	24
2.79933	24
2.80300	25
2.80667	25
2.81033	26
2.81400	27
2.81767	27
2.82133	27
2.82500	28
2.82867	28
2.83233	28
2.83600	28
2.83967	27
2.84333	26
2.84700	24
2.85067	20
2.85433	13
2.85800	4
2.86167	-8
2.86533	-25
2.86900	-45
2.87267	-70
2.87633	-99
2.88000	-132
2.88367	-170
2.88733	-212
2.89100	-257
2.89467	-305
2.89833	-355
2.90200	-408
2.90567	-462
2.90933	-517
2.91300	-572
2.91667	-628
2.92033	-684
2.92400	-738
2.92767	-790
2.93133	-842
2.93500	-895
2.93867	-952
2.94233	-1011
2.94600	-1061
2.94967	-1092
2.95333	-1098
2.95700	-1079
2.96067	-1037
2.96433	-977
2.96800	-905
2.97167	-827
2.97533	-746
2.97900	-667
2.98267	-590
2.98633	-519
2.99000	-454
2.99367	-394
2.99733	-341
3.00100	-293
3.00467	-251
3.00833	-215
3.01200	-183
3.01567	-155
3.01933	-131
3.02300	-110
3.02667	-92
3.03033	-77
3.03400	-64
3.03767	-52
3.04133	-43
3.04500	-35
3.04867	-28
3.05233	-22
3.05600	-17
3.05967	-13
3.06333	-9
3.06700	-5
3.07067	-2
3.07433	0
3.07800	2
3.08167	4
3.08533	6
3.08900	7
3.09267	8
3.09633	9
3.10000	9
3.10367	10
3.10733	11
3.11100	12
3.11467	12
3.11833	13
3.12200	14
3.12567	14
3.12933	15
3.13300	15
3.13667	15
3.14033	16
3.14400	16
3.14767	16
3.15133	17
3.15500	17
3.15867	18
3.16233	18
3.16600	19
3.16967	19
3.17333	19
3.17700	20
3.18067	20
3.18433	20
3.18800	20
3.19167	20
3.19533	20
3.19900	20
3.20267	20
3.20633	20
3.21000	20
3.21367	20
3.21733	20
3.22100	21
3.22467	21
3.22833	21
3.23200	21
3.23567	21
3.23933	21
3.24300	22
3.24667	22
3.25033	22
3.25400	22
3.25767	23
3.26133	23
3.26500	23
3.26867	23
3.27233	23
3.27600	23
3.27967	23
3.28333	23
3.28700	23
3.29067	23
3.29433	23
3.29800	23
3.30167	23
3.30533	23
3.30900	23
3.31267	23
3.31633	23
3.32000	23
3.32367	24
3.32733	24
3.33100	24
3.33467	24
3.33833	25
3.34200	25
3.34567	25
3.34933	25
3.35300	26
3.35667	26
3.36033	26
3.36400	26
3.36767	27
3.37133	27
3.37500	27
3.37867	27
3.38233	27
3.38600	27
3.38967	27
3.39333	27
3.39700	27
3.40067	27
3.40433	27
3.40800	27
3.41167	27
3.41533	27
3.41900	27
3.42267	28
3.42633	28
3.43000	28
3.43367	28
3.43733	28
3.44100	28
3.44467	28
3.44833	28
3.45200	28
3.45567	28
3.45933	28
3.46300	28
3.46667	28
3.47033	28
3.47400	28
3.47767	28
3.48133	28
3.48500	27
3.48867	27
3.49233	27
3.49600	27
3.49967	26
3.50333	26
3.50700	26
3.51067	26
3.51433	26
3.51800	26
3.52167	26
3.52533	26
3.52900	25
3.53267	25
3.53633	25
3.54000	25
3.54367	25
3.54733	25
3.55100	25
3.55467	25
3.55833	25
3.56200	25
3.56567	26
3.56933	26
3.57300	26
3.57667	26
3.58033	27
3.58400	27
3.58767	27
3.59133	27
3.59500	27
3.59867	27
3.60233	27
3.60600	28
3.60967	28
3.61333	28
3.61700	28
3.62067	28
3.62433	27
3.62800	27
3.63167	27
3.63533	27
3.63900	26
3.64267	26
3.64633	26
3.65000	25
3.65367	25
3.65733	25
3.66100	25
3.66467	25
3.66833	25
3.67200	25
3.67567	25
3.67933	25
3.68300	25
3.68667	25
3.69033	25
3.69400	25
3.69767	25
3.70133	24
3.70500	24
3.70867	24
3.71233	24
3.71600	24
3.71967	24
3.72333	24
3.72700	24
3.73067	24
3.73433	24
3.73800	25
3.74167	25
3.74533	25
3.74900	25
3.75267	25
3.75633	25
3.76000	25
3.76367	25
3.76733	25
3.77100	25
3.77467	25
3.77833	25
3.78200	25
3.78567	25
3.78933	25
3.79300	25
3.79667	25
3.80033	25
3.80400	25
3.80767	26
3.81133	26
3.81500	26
3.81867	26
3.82233	26
3.82600	26
3.82967	26
3.83333	26
3.83700	26
3.84067	26
3.84433	26
3.84800	26
3.85167	26
3.85533	26
3.85900	26
3.86267	25
3.86633	26
3.87000	26
3.87367	26
3.87733	26
3.88100	26
3.88467	26
3.88833	26
3.89200	26
3.89567	26
3.89933	26
3.90300	26
3.90667	26
3.91033	26
3.91400	26
3.91767	26
3.92133	26
3.92500	26
3.92867	26
3.93233	26
3.93600	26
3.93967	26
3.94333	25
3.94700	25
3.95067	25
3.95433	24
3.95800	24
3.96167	24
3.96533	24
3.96900	24
3.97267	24
3.97633	24
3.98000	24
3.98367	24
3.98733	25
3.99100	25
3.99467	25
3.99833	25

[Chromatogram (Ch3)]
Interval(msec)	220
# of Points	1091
Start Time(min)	0.002
End Time(min)	3.998
R.Time (min)	Intensity
0.00167	-1
0.00533	-2
0.00900	-4
0.01267	-4
0.01633	-4
0.02000	-2
0.02367	-0
0.02733	3
0.03100	2
0.03467	2
0.03833	2
0.04200	2
0.04567	1
0.04933	-0
0.05300	-1
0.05667	-3
0.06033	-2
0.06400	-3
0.06767	-4
0.07133	-4
0.07500	-2
0.07867	-2
0.08233	-3
0.08600	-3
0.08967	-3
0.09333	-1
0.09700	-0
0.10067	-0
0.10433	-0
0.10800	-0
0.11167	-1
0.11533	-2
0.11900	-1
0.12267	-2
0.12633	-3
0.13000	-2
0.13367	-1
0.13733	-3
0.14100	-2
0.14467	2
0.14833	5
0.15200	4
0.15567	4
0.15933	3
0.16300	3
0.16667	2
0.17033	2
0.17400	3
0.17767	4
0.18133	4
0.18500	5
0.18867	4
0.19233	1
0.19600	1
0.19967	1
0.20333	-1
0.20700	-2
0.21067	-2
0.21433	-1
0.21800	1
0.22167	2
0.22533	3
0.22900	4
0.23267	3
0.23633	2
0.24000	2
0.24367	2
0.24733	-0
0.25100	-1
0.25467	-1
0.25833	-1
0.26200	-1
0.26567	-2
0.26933	-1
0.27300	-2
0.27667	-2
0.28033	-1
0.28400	1
0.28767	4
0.29133	5
0.29500	5
0.29867	4
0.30233	1
0.30600	1
0.30967	1
0.31333	1
0.31700	1
0.32067	2
0.32433	4
0.32800	5
0.33167	3
0.33533	2
0.33900	3
0.34267	2
0.34633	1
0.35000	2
0.35367	4
0.35733	8
0.36100	9
0.36467	9
0.36833	9
0.37200	7
0.37567	6
0.37933	5
0.38300	3
0.38667	1
0.39033	2
0.39400	2
0.39767	1
0.40133	2
0.40500	2
0.40867	3
0.41233	4
0.41600	3
0.41967	1
0.42333	-1
0.42700	-0
0.43067	2
0.43433	4
0.43800	4
0.44167	3
0.44533	2
0.44900	0
0.45267	-0
0.45633	-0
0.46000	1
0.46367	1
0.46733	2
0.47100	4
0.47467	7
0.47833	9
0.48200	9
0.48567	6
0.48933	4
0.49300	2
0.49667	0
0.50033	1
0.50400	3
0.50767	3
0.51133	5
0.51500	6
0.51867	8
0.52233	9
0.52600	9
0.52967	8
0.53333	5
0.53700	5
0.54067	5
0.54433	6
0.54800	7
0.55167	9
0.55533	11
0.55900	8
0.56267	7
0.56633	6
0.57000	6
0.57367	8
0.57733	10
0.58100	10
0.58467	10
0.58833	9
0.59200	9
0.59567	10
0.59933	11
0.60300	12
0.60667	13
0.61033	11
0.61400	10
0.61767	12
0.62133	12
0.62500	11
0.62867	10
0.63233	10
0.63600	11
0.63967	12
0.64333	10
0.64700	8
0.65067	7
0.65433	7
0.65800	7
0.66167	7
0.66533	7
0.66900	8
0.67267	10
0.67633	11
0.68000	11
0.68367	11
0.68733	9
0.69100	9
0.69467	9
0.69833	11
0.70200	13
0.70567	16
0.70933	18
0.71300	18
0.71667	16
0.72033	14
0.72400	13
0.72767	14
0.73133	13
0.73500	14
0.73867	15
0.74233	13
0.74600	12
0.74967	11
0.75333	11
0.75700	11
0.76067	11
0.76433	10
0.76800	9
0.77167	8
0.77533	11
0.77900	11
0.78267	11
0.78633	12
0.79000	13
0.79367	12
0.79733	11
0.80100	11
0.80467	12
0.80833	12
0.81200	12
0.81567	13
0.81933	15
0.82300	15
0.82667	14
0.83033	13
0.83400	13
0.83767	13
0.84133	12
0.84500	12
0.84867	14
0.85233	13
0.85600	12
0.85967	12
0.86333	12
0.86700	14
0.87067	14
0.87433	15
0.87800	15
0.88167	16
0.88533	14
0.88900	13
0.89267	13
0.89633	14
0.90000	18
0.90367	20
0.90733	21
0.91100	20
0.91467	20
0.91833	21
0.92200	21
0.92567	22
0.92933	21
0.93300	20
0.93667	19
0.94033	19
0.94400	19
0.94767	18
0.95133	18
0.95500	15
0.95867	14
0.96233	13
0.96600	12
0.96967	13
0.97333	15
0.97700	16
0.98067	17
0.98433	18
0.98800	19
0.99167	18
0.99533	18
0.99900	18
1.00267	17
1.00633	16
1.01000	16
1.01367	17
1.01733	19
1.02100	19
1.02467	19
1.02833	19
1.03200	21
1.03567	21
1.03933	22
1.04300	22
1.04667	23
1.05033	23
1.05400	22
1.05767	19
1.06133	18
1.06500	19
1.06867	19
1.07233	20
1.07600	20
1.07967	22
1.08333	24
1.08700	26
1.09067	26
1.09433	24
1.09800	25
1.10167	24
1.10533	24
1.10900	25
1.11267	25
1.11633	27
1.12000	27
1.12367	26
1.12733	28
1.13100	28
1.13467	27
1.13833	27
1.14200	28
1.14567	29
1.14933	28
1.15300	26
1.15667	23
1.16033	23
1.16400	23
1.16767	24
1.17133	24
1.17500	26
1.17867	26
1.18233	27
1.18600	27
1.18967	27
1.19333	28
1.19700	28
1.20067	28
1.20433	31
1.20800	31
1.21167	28
1.21533	26
1.21900	25
1.22267	27
1.22633	28
1.23000	29
1.23367	29
1.23733	28
1.24100	28
1.24467	28
1.24833	27
1.25200	27
1.25567	27
1.25933	26
1.26300	25
1.26667	26
1.27033	28
1.27400	29
1.27767	30
1.28133	29
1.28500	28
1.28867	27
1.29233	28
1.29600	30
1.29967	31
1.30333	31
1.30700	31
1.31067	29
1.31433	26
1.31800	25
1.32167	26
1.32533	26
1.32900	27
1.33267	28
1.33633	29
1.34000	30
1.34367	31
1.34733	31
1.35100	31
1.35467	32
1.35833	32
1.36200	32
1.36567	32
1.36933	30
1.37300	30
1.37667	33
1.38033	33
1.38400	32
1.38767	33
1.39133	32
1.39500	31
1.39867	31
1.40233	32
1.40600	31
1.40967	31
1.41333	32
1.41700	30
1.42067	29
1.42433	30
1.42800	32
1.43167	35
1.43533	35
1.43900	34
1.44267	35
1.44633	36
1.45000	35
1.45367	32
1.45733	30
1.46100	29
1.46467	31
1.46833	34
1.47200	36
1.47567	35
1.47933	36
1.48300	35
1.48667	34
1.49033	35
1.49400	35
1.49767	36
1.50133	38
1.50500	38
1.50867	37
1.51233	36
1.51600	36
1.51967	36
1.52333	35
1.52700	33
1.53067	31
1.53433	32
1.53800	34
1.54167	35
1.54533	34
1.54900	32
1.55267	33
1.55633	35
1.56000	34
1.56367	35
1.56733	36
1.57100	39
1.57467	41
1.57833	42
1.58200	42
1.58567	40
1.58933	37
1.59300	33
1.59667	32
1.60033	29
1.60400	30
1.60767	31
1.61133	31
1.61500	33
1.61867	36
1.62233	40
1.62600	41
1.62967	42
1.63333	43
1.63700	43
1.64067	43
1.64433	42
1.64800	42
1.65167	41
1.65533	40
1.65900	39
1.66267	40
1.66633	41
1.67000	41
1.67367	41
1.67733	43
1.68100	45
1.68467	46
1.68833	47
1.69200	48
1.69567	48
1.69933	49
1.70300	49
1.70667	49
1.71033	46
1.71400	46
1.71767	46
1.72133	49
1.72500	51
1.72867	51
1.73233	51
1.73600	50
1.73967	48
1.74333	47
1.74700	48
1.75067	49
1.75433	50
1.75800	50
1.76167	50
1.76533	50
1.76900	52
1.77267	54
1.77633	55
1.78000	56
1.78367	55
1.78733	55
1.79100	55
1.79467	55
1.79833	54
1.80200	54
1.80567	54
1.80933	56
1.81300	57
1.81667	58
1.82033	61
1.82400	61
1.82767	61
1.83133	62
1.83500	62
1.83867	62
1.84233	63
1.84600	64
1.84967	65
1.85333	66
1.85700	66
1.86067	67
1.86433	67
1.86800	67
1.87167	68
1.87533	68
1.87900	69
1.88267	73
1.88633	75
1.89000	77
1.89367	74
1.89733	75
1.90100	77
1.90467	77
1.90833	77
1.91200	79
1.91567	80
1.91933	79
1.92300	80
1.92667	80
1.93033	80
1.93400	82
1.93767	82
1.94133	83
1.94500	85
1.94867	86
1.95233	88
1.95600	90
1.95967	91
1.96333	91
1.96700	93
1.97067	94
1.97433	94
1.97800	96
1.98167	97
1.98533	97
1.98900	97
1.99267	97
1.99633	97
2.00000	99
2.00367	101
2.00733	103
2.01100	105
2.01467	109
2.01833	111
2.02200	111
2.02567	111
2.02933	111
2.03300	111
2.03667	112
2.04033	116
2.04400	118
2.04767	121
2.05133	123
2.05500	123
2.05867	125
2.06233	126
2.06600	126
2.06967	127
2.07333	126
2.07700	126
2.08067	126
2.08433	126
2.08800	128
2.09167	129
2.09533	129
2.09900	128
2.10267	128
2.10633	129
2.11000	132
2.11367	136
2.11733	138
2.12100	139
2.12467	141
2.12833	144
2.13200	145
2.13567	144
2.13933	144
2.14300	145
2.14667	147
2.15033	148
2.15400	149
2.15767	149
2.16133	150
2.16500	150
2.16867	151
2.17233	151
2.17600	153
2.17967	154
2.18333	156
2.18700	158
2.19067	160
2.19433	160
2.19800	159
2.20167	159
2.20533	159
2.20900	160
2.21267	162
2.21633	164
2.22000	165
2.22367	165
2.22733	165
2.23100	166
2.23467	169
2.23833	171
2.24200	172
2.24567	174
2.24933	174
2.25300	174
2.25667	173
2.26033	174
2.26400	175
2.26767	175
2.27133	176
2.27500	177
2.27867	179
2.28233	179
2.28600	181
2.28967	183
2.29333	184
2.29700	184
2.30067	184
2.30433	182
2.30800	183
2.31167	186
2.31533	189
2.31900	190
2.32267	192
2.32633	193
2.33000	192
2.33367	190
2.33733	189
2.34100	190
2.34467	192
2.34833	196
2.35200	198
2.35567	200
2.35933	201
2.36300	202
2.36667	202
2.37033	201
2.37400	200
2.37767	202
2.38133	201
2.38500	201
2.38867	198
2.39233	200
2.39600	205
2.39967	207
2.40333	210
2.40700	211
2.41067	213
2.41433	214
2.41800	214
2.42167	214
2.42533	213
2.42900	215
2.43267	218
2.43633	221
2.44000	226
2.44367	271
2.44733	392
2.45100	523
2.45467	632
2.45833	689
2.46200	690
2.46567	665
2.46933	637
2.47300	616
2.47667	603
2.48033	585
2.48400	556
2.48767	514
2.49133	469
2.49500	431
2.49867	402
2.50233	382
2.50600	372
2.50967	370
2.51333	378
2.51700	393
2.52067	409
2.52433	423
2.52800	429
2.53167	421
2.53533	405
2.53900	382
2.54267	357
2.54633	330
2.55000	308
2.55367	288
2.55733	270
2.56100	259
2.56467	251
2.56833	245
2.57200	241
2.57567	238
2.57933	236
2.58300	236
2.58667	237
2.59033	239
2.59400	242
2.59767	241
2.60133	241
2.60500	240
2.60867	237
2.61233	230
2.61600	224
2.61967	219
2.62333	211
2.62700	201
2.63067	192
2.63433	184
2.63800	176
2.64167	170
2.64533	164
2.64900	155
2.65267	145
2.65633	135
2.66000	127
2.66367	121
2.66733	115
2.67100	109
2.67467	102
2.67833	97
2.68200	94
2.68567	92
2.68933	91
2.69300	92
2.69667	92
2.70033	93
2.70400	94
2.70767	98
2.71133	102
2.71500	107
2.71867	112
2.72233	116
2.72600	119
2.72967	121
2.73333	124
2.73700	127
2.74067	129
2.74433	130
2.74800	132
2.75167	135
2.75533	137
2.75900	139
2.76267	140
2.76633	143
2.77000	146
2.77367	151
2.77733	155
2.78100	158
2.78467	159
2.78833	159
2.79200	161
2.79567	163
2.79933	167
2.80300	170
2.80667	173
2.81033	176
2.81400	181
2.81767	188
2.82133	196
2.82500	214
2.82867	246
2.83233	307
2.83600	416
2.83967	596
2.84333	865
2.84700	1231
2.85067	1693
2.85433	2229
2.85800	2802
2.86167	3366
2.86533	3875
2.86900	4292
2.87267	4584
2.87633	4736
2.88000	4753
2.88367	4650
2.88733	4448
2.89100	4178
2.89467	3865
2.89833	3536
2.90200	3206
2.90567	2887
2.90933	2585
2.91300	2303
2.91667	2046
2.92033	1813
2.92400	1607
2.92767	1424
2.93133	1262
2.93500	1119
2.93867	994
2.94233	883
2.94600	784
2.94967	699
2.95333	627
2.95700	564
2.96067	511
2.96433	465
2.96800	425
2.97167	389
2.97533	359
2.97900	333
2.98267	310
2.98633	290
2.99000	272
2.99367	256
2.99733	243
3.00100	232
3.00467	223
3.00833	216
3.01200	211
3.01567	206
3.01933	201
3.02300	195
3.02667	191
3.03033	186
3.03400	181
3.03767	178
3.04133	175
3.04500	173
3.04867	172
3.05233	174
3.05600	174
3.05967	174
3.06333	174
3.06700	173
3.07067	171
3.07433	170
3.07800	168
3.08167	167
3.08533	166
3.08900	166
3.09267	164
3.09633	165
3.10000	166
3.10367	168
3.10733	169
3.11100	170
3.11467	171
3.11833	174
3.12200	177
3.12567	177
3.12933	176
3.13300	178
3.13667	179
3.14033	177
3.14400	173
3.14767	171
3.15133	170
3.15500	171
3.15867	173
3.16233	174
3.16600	173
3.16967	174
3.17333	178
3.17700	178
3.18067	179
3.18433	182
3.18800	184
3.19167	186
3.19533	185
3.19900	184
3.20267	183
3.20633	184
3.21000	187
3.21367	191
3.21733	195
3.22100	198
3.22467	200
3.22833	201
3.23200	204
3.23567	204
3.23933	204
3.24300	206
3.24667	208
3.25033	209
3.25400	213
3.25767	216
3.26133	217
3.26500	218
3.26867	219
3.27233	221
3.27600	222
3.27967	224
3.28333	227
3.28700	229
3.29067	230
3.29433	229
3.29800	229
3.30167	232
3.30533	235
3.30900	238
3.31267	239
3.31633	240
3.32000	241
3.32367	241
3.32733	243
3.33100	243
3.33467	244
3.33833	246
3.34200	246
3.34567	246
3.34933	248
3.35300	248
3.35667	247
3.36033	247
3.36400	247
3.36767	249
3.37133	253
3.37500	256
3.37867	258
3.38233	258
3.38600	258
3.38967	260
3.39333	261
3.39700	261
3.40067	260
3.40433	262
3.40800	264
3.41167	267
3.41533	267
3.41900	265
3.42267	266
3.42633	269
3.43000	271
3.43367	273
3.43733	272
3.44100	269
3.44467	269
3.44833	267
3.45200	269
3.45567	270
3.45933	272
3.46300	272
3.46667	272
3.47033	270
3.47400	271
3.47767	273
3.48133	276
3.48500	277
3.48867	279
3.49233	280
3.49600	282
3.49967	283
3.50333	282
3.50700	283
3.51067	284
3.51433	284
3.51800	283
3.52167	282
3.52533	281
3.52900	280
3.53267	278
3.53633	278
3.54000	280
3.54367	280
3.54733	282
3.55100	282
3.55467	282
3.55833	283
3.56200	283
3.56567	280
3.56933	278
3.57300	277
3.57667	276
3.58033	274
3.58400	274
3.58767	273
3.59133	269
3.59500	266
3.59867	261
3.60233	250
3.60600	239
3.60967	232
3.61333	231
3.61700	236
3.62067	247
3.62433	259
3.62800	274
3.63167	290
3.63533	305
3.63900	320
3.64267	336
3.64633	352
3.65000	368
3.65367	383
3.65733	397
3.66100	410
3.66467	423
3.66833	436
3.67200	448
3.67567	458
3.67933	469
3.68300	482
3.68667	494
3.69033	505
3.69400	514
3.69767	519
3.70133	523
3.70500	526
3.70867	529
3.71233	531
3.71600	532
3.71967	534
3.72333	540
3.72700	543
3.73067	545
3.73433	547
3.73800	549
3.74167	552
3.74533	552
3.74900	550
3.75267	548
3.75633	547
3.76000	550
3.76367	552
3.76733	553
3.77100	553
3.77467	556
3.77833	559
3.78200	557
3.78567	554
3.78933	552
3.79300	553
3.79667	553
3.80033	554
3.80400	555
3.80767	555
3.81133	556
3.81500	556
3.81867	555
3.82233	555
3.82600	556
3.82967	555
3.83333	555
3.83700	555
3.84067	553
3.84433	550
3.84800	549
3.85167	550
3.85533	554
3.85900	556
3.86267	556
3.86633	556
3.87000	556
3.87367	557
3.87733	557
3.88100	555
3.88467	551
3.88833	549
3.89200	546
3.89567	546
3.89933	547
3.90300	546
3.90667	544
3.91033	544
3.91400	544
3.91767	545
3.92133	545
3.92500	543
3.92867	540
3.93233	538
3.93600	537
3.93967	536
3.94333	534
3.94700	531
3.95067	528
3.95433	526
3.95800	523
3.96167	523
3.96533	524
3.96900	525
3.97267	525
3.97633	524
3.98000	523
3.98367	523
3.98733	522
3.99100	521
3.99467	519
3.99833	515

[Status Trace (Column Oven Temperature)]
Interval(msec)	1000
# of Points	240
Start Time(min)	0.015
End Time(min)	3.998
Intensity Units	
Intensity Multiplier	1
R.Time (min)	Intensity
0.01463	35.09
0.03130	35.08
0.04797	35.07
0.06463	35.07
0.08130	35.09
0.09797	35.09
0.11463	35.09
0.13130	35.08
0.14797	35.07
0.16463	35.06
0.18130	35.04
0.19797	35.04
0.21463	35.03
0.23130	35.03
0.24797	35.04
0.26463	35.03
0.28130	35.02
0.29797	35.01
0.31463	35.01
0.33130	35.01
0.34797	35.01
0.36463	35.01
0.38130	35.02
0.39797	35.02
0.41463	35.01
0.43130	35.01
0.44797	35.02
0.46463	35.04
0.48130	35.03
0.49797	35.03
0.51463	35.02
0.53130	35.02
0.54797	35.01
0.56463	35.00
0.58130	35.00
0.59797	34.99
0.61463	35.00
0.63130	35.01
0.64797	35.01
0.66463	35.00
0.68130	35.00
0.69797	35.00
0.71463	35.01
0.73130	35.01
0.74797	35.01
0.76463	35.00
0.78130	35.00
0.79797	34.99
0.81463	34.99
0.83130	34.98
0.84797	34.99
0.86463	34.98
0.88130	34.98
0.89797	34.97
0.91463	34.97
0.93130	34.98
0.94797	34.98
0.96463	34.98
0.98130	34.99
0.99797	34.99
1.01463	34.98
1.03130	34.98
1.04797	34.98
1.06463	34.98
1.08130	34.99
1.09797	34.99
1.11463	34.98
1.13130	34.98
1.14797	34.99
1.16463	34.99
1.18130	34.99
1.19797	35.00
1.21463	35.00
1.23130	35.00
1.24797	35.00
1.26463	35.00
1.28130	35.00
1.29797	35.00
1.31463	35.00
1.33130	35.00
1.34797	35.01
1.36463	35.01
1.38130	35.01
1.39797	35.01
1.41463	35.00
1.43130	35.00
1.44797	35.00
1.46463	34.99
1.48130	34.99
1.49797	34.99
1.51463	34.99
1.53130	34.98
1.54797	34.97
1.56463	34.97
1.58130	34.98
1.59797	35.02
1.61463	35.11
1.63130	35.26
1.64797	35.47
1.66463	35.76
1.68130	36.12
1.69797	36.47
1.71463	36.82
1.73130	37.15
1.74797	37.47
1.76463	37.80
1.78130	38.14
1.79797	38.47
1.81463	38.81
1.83130	39.15
1.84797	39.45
1.86463	39.78
1.88130	40.12
1.89797	40.46
1.91463	40.78
1.93130	41.09
1.94797	41.44
1.96463	41.77
1.98130	42.09
1.99797	42.41
2.01463	42.74
2.03130	43.04
2.04797	43.37
2.06463	43.70
2.08130	44.03
2.09797	44.34
2.11463	44.67
2.13130	45.01
2.14797	45.34
2.16463	45.68
2.18130	46.00
2.19797	46.33
2.21463	46.66
2.23130	46.99
2.24797	47.31
2.26463	47.65
2.28130	47.97
2.29797	48.31
2.31463	48.63
2.33130	48.98
2.34797	49.26
2.36463	49.49
2.38130	49.62
2.39797	49.67
2.41463	49.65
2.43130	49.67
2.44797	49.67
2.46463	49.68
2.48130	49.68
2.49797	49.70
2.51463	49.72
2.53130	49.72
2.54797	49.73
2.56463	49.75
2.58130	49.77
2.59797	49.79
2.61463	49.81
2.63130	49.81
2.64797	49.81
2.66463	49.83
2.68130	49.82
2.69797	49.85
2.71463	49.87
2.73130	49.86
2.74797	49.83
2.76463	49.86
2.78130	49.88
2.79797	49.88
2.81463	49.87
2.83130	49.87
2.84797	49.87
2.86463	49.88
2.88130	49.88
2.89797	49.90
2.91463	49.92
2.93130	49.94
2.94797	49.95
2.96463	49.97
2.98130	49.97
2.99797	49.98
3.01463	49.99
3.03130	50.00
3.04797	50.01
3.06463	50.01
3.08130	50.02
3.09797	50.04
3.11463	50.06
3.13130	50.06
3.14797	50.06
3.16463	50.06
3.18130	50.07
3.19797	50.07
3.21463	50.08
3.23130	50.09
3.24797	50.10
3.26463	50.09
3.28130	50.10
3.29797	50.11
3.31463	50.10
3.33130	50.10
3.34797	50.09
3.36463	50.07
3.38130	50.07
3.39797	50.07
3.41463	50.06
3.43130	50.05
3.44797	50.04
3.46463	50.03
3.48130	50.03
3.49797	50.03
3.51463	50.03
3.53130	50.03
3.54797	50.03
3.56463	50.03
3.58130	50.03
3.59797	50.02
3.61463	50.01
3.63130	50.01
3.64797	50.02
3.66463	50.04
3.68130	50.04
3.69797	50.04
3.71463	50.05
3.73130	50.06
3.74797	50.06
3.76463	50.07
3.78130	50.07
3.79797	50.07
3.81463	50.06
3.83130	50.06
3.84797	50.07
3.86463	50.07
3.88130	50.07
3.89797	50.06
3.91463	50.06
3.93130	50.06
3.94797	50.08
3.96463	50.08
3.98130	50.09
3.99797	50.08

[Status Trace (Injection Unit Temperature)]
Interval(msec)	1000
# of Points	240
Start Time(min)	0.015
End Time(min)	3.998
Intensity Units	
Intensity Multiplier	1
R.Time (min)	Intensity
0.01463	99.98
0.03130	99.98
0.04797	99.98
0.06463	99.98
0.08130	99.98
0.09797	99.98
0.11463	99.98
0.13130	99.98
0.14797	99.99
0.16463	99.98
0.18130	99.98
0.19797	99.99
0.21463	99.98
0.23130	99.98
0.24797	99.99
0.26463	99.99
0.28130	99.99
0.29797	99.98
0.31463	99.99
0.33130	99.99
0.34797	99.99
0.36463	99.99
0.38130	99.99
0.39797	99.99
0.41463	99.99
0.43130	99.99
0.44797	99.99
0.46463	99.99
0.48130	99.99
0.49797	99.99
0.51463	99.99
0.53130	99.99
0.54797	99.99
0.56463	99.99
0.58130	99.99
0.59797	99.99
0.61463	99.99
0.63130	99.99
0.64797	99.99
0.66463	99.99
0.68130	99.98
0.69797	99.99
0.71463	99.99
0.73130	99.99
0.74797	99.98
0.76463	99.98
0.78130	99.98
0.79797	99.98
0.81463	99.99
0.83130	99.99
0.84797	99.98
0.86463	99.99
0.88130	99.98
0.89797	99.98
0.91463	99.99
0.93130	99.98
0.94797	99.98
0.96463	99.98
0.98130	99.99
0.99797	99.98
1.01463	99.98
1.03130	99.98
1.04797	99.98
1.06463	99.98
1.08130	99.98
1.09797	99.98
1.11463	99.98
1.13130	99.98
1.14797	99.98
1.16463	99.98
1.18130	99.98
1.19797	99.98
1.21463	99.98
1.23130	99.98
1.24797	99.98
1.26463	99.98
1.28130	99.98
1.29797	99.98
1.31463	99.98
1.33130	99.98
1.34797	99.98
1.36463	99.98
1.38130	99.98
1.39797	99.99
1.41463	99.98
1.43130	99.98
1.44797	99.99
1.46463	99.98
1.48130	99.98
1.49797	99.99
1.51463	99.98
1.53130	99.98
1.54797	99.98
1.56463	99.99
1.58130	99.98
1.59797	99.99
1.61463	99.98
1.63130	99.99
1.64797	99.99
1.66463	99.99
1.68130	99.99
1.69797	99.99
1.71463	99.98
1.73130	99.98
1.74797	99.98
1.76463	99.98
1.78130	99.98
1.79797	99.98
1.81463	99.98
1.83130	99.98
1.84797	99.98
1.86463	99.98
1.88130	99.98
1.89797	99.98
1.91463	99.98
1.93130	99.98
1.94797	99.98
1.96463	99.98
1.98130	99.98
1.99797	99.98
2.01463	99.98
2.03130	99.98
2.04797	99.97
2.06463	99.98
2.08130	99.97
2.09797	99.98
2.11463	99.97
2.13130	99.97
2.14797	99.97
2.16463	99.97
2.18130	99.97
2.19797	99.97
2.21463	99.97
2.23130	99.97
2.24797	99.98
2.26463	99.97
2.28130	99.97
2.29797	99.97
2.31463	99.97
2.33130	99.97
2.34797	99.97
2.36463	99.97
2.38130	99.97
2.39797	99.98
2.41463	99.97
2.43130	99.97
2.44797	99.98
2.46463	99.98
2.48130	99.97
2.49797	99.98
2.51463	99.98
2.53130	99.98
2.54797	99.98
2.56463	99.98
2.58130	99.98
2.59797	99.98
2.61463	99.98
2.63130	99.98
2.64797	99.99
2.66463	99.99
2.68130	99.99
2.69797	99.99
2.71463	99.99
2.73130	99.99
2.74797	99.99
2.76463	100.00
2.78130	100.00
2.79797	100.00
2.81463	100.00
2.83130	100.00
2.84797	100.00
2.86463	100.00
2.88130	100.01
2.89797	100.01
2.91463	100.01
2.93130	100.01
2.94797	100.01
2.96463	100.01
2.98130	100.01
2.99797	100.02
3.01463	100.01
3.03130	100.02
3.04797	100.02
3.06463	100.02
3.08130	100.02
3.09797	100.02
3.11463	100.02
3.13130	100.02
3.14797	100.02
3.16463	100.02
3.18130	100.02
3.19797	100.02
3.21463	100.02
3.23130	100.02
3.24797	100.03
3.26463	100.03
3.28130	100.03
3.29797	100.03
3.31463	100.03
3.33130	100.03
3.34797	100.03
3.36463	100.03
3.38130	100.03
3.39797	100.03
3.41463	100.03
3.43130	100.03
3.44797	100.03
3.46463	100.03
3.48130	100.03
3.49797	100.03
3.51463	100.03
3.53130	100.03
3.54797	100.03
3.56463	100.03
3.58130	100.03
3.59797	100.04
3.61463	100.04
3.63130	100.03
3.64797	100.04
3.66463	100.04
3.68130	100.04
3.69797	100.03
3.71463	100.04
3.73130	100.04
3.74797	100.04
3.76463	100.04
3.78130	100.04
3.79797	100.04
3.81463	100.04
3.83130	100.04
3.84797	100.04
3.86463	100.04
3.88130	100.04
3.89797	100.04
3.91463	100.04
3.93130	100.04
3.94797	100.04
3.96463	100.04
3.98130	100.05
3.99797	100.04

[Status Trace (Carrier Gas Pressure)]
Interval(msec)	1000
# of Points	240
Start Time(min)	0.015
End Time(min)	3.998
Intensity Units	
Intensity Multiplier	1
R.Time (min)	Intensity
0.01463	57.43
0.03130	55.60
0.04797	58.08
0.06463	59.85
0.08130	58.60
0.09797	57.97
0.11463	58.00
0.13130	58.01
0.14797	58.01
0.16463	58.00
0.18130	58.00
0.19797	58.00
0.21463	58.00
0.23130	58.00
0.24797	58.00
0.26463	58.00
0.28130	58.00
0.29797	58.00
0.31463	58.00
0.33130	58.00
0.34797	58.00
0.36463	58.00
0.38130	58.00
0.39797	58.00
0.41463	58.00
0.43130	58.00
0.44797	58.00
0.46463	58.00
0.48130	58.00
0.49797	58.00
0.51463	58.00
0.53130	58.00
0.54797	58.00
0.56463	58.00
0.58130	58.00
0.59797	58.00
0.61463	58.00
0.63130	58.00
0.64797	58.00
0.66463	58.00
0.68130	58.00
0.69797	58.00
0.71463	58.00
0.73130	58.00
0.74797	58.00
0.76463	58.00
0.78130	58.00
0.79797	58.00
0.81463	58.00
0.83130	58.00
0.84797	58.00
0.86463	58.00
0.88130	58.00
0.89797	58.00
0.91463	58.00
0.93130	58.00
0.94797	58.00
0.96463	58.00
0.98130	58.00
0.99797	58.00
1.01463	58.00
1.03130	58.00
1.04797	58.00
1.06463	58.00
1.08130	58.00
1.09797	58.00
1.11463	58.00
1.13130	58.00
1.14797	58.00
1.16463	58.00
1.18130	58.00
1.19797	58.00
1.21463	58.00
1.23130	58.00
1.24797	58.00
1.26463	58.00
1.28130	58.00
1.29797	58.00
1.31463	58.00
1.33130	58.00
1.34797	58.00
1.36463	58.00
1.38130	58.00
1.39797	58.00
1.41463	58.00
1.43130	58.00
1.44797	58.00
1.46463	58.00
1.48130	58.00
1.49797	58.00
1.51463	58.00
1.53130	58.00
1.54797	58.00
1.56463	58.00
1.58130	58.00
1.59797	58.00
1.61463	58.00
1.63130	58.00
1.64797	58.00
1.66463	58.01
1.68130	58.01
1.69797	58.00
1.71463	58.00
1.73130	58.00
1.74797	58.00
1.76463	58.00
1.78130	58.00
1.79797	58.00
1.81463	58.00
1.83130	58.00
1.84797	58.00
1.86463	58.00
1.88130	58.00
1.89797	58.00
1.91463	58.00
1.93130	58.00
1.94797	58.00
1.96463	58.00
1.98130	58.00
1.99797	58.00
2.01463	58.00
2.03130	58.00
2.04797	58.00
2.06463	58.00
2.08130	58.00
2.09797	58.00
2.11463	58.00
2.13130	58.00
2.14797	58.00
2.16463	58.00
2.18130	58.00
2.19797	58.00
2.21463	58.00
2.23130	58.00
2.24797	58.00
2.26463	58.00
2.28130	58.00
2.29797	58.00
2.31463	58.00
2.33130	58.00
2.34797	58.00
2.36463	58.00
2.38130	58.00
2.39797	57.99
2.41463	57.99
2.43130	58.00
2.44797	58.00
2.46463	58.00
2.48130	58.00
2.49797	58.00
2.51463	57.99
2.53130	57.99
2.54797	58.00
2.56463	58.00
2.58130	58.00
2.59797	58.00
2.61463	58.00
2.63130	58.00
2.64797	58.00
2.66463	58.00
2.68130	58.00
2.69797	58.00
2.71463	58.00
2.73130	58.00
2.74797	58.00
2.76463	58.00
2.78130	58.00
2.79797	58.00
2.81463	58.00
2.83130	58.00
2.84797	58.00
2.86463	58.00
2.88130	58.00
2.89797	58.00
2.91463	58.00
2.93130	58.00
2.94797	58.00
2.96463	58.00
2.98130	58.00
2.99797	58.00
3.01463	58.00
3.03130	58.00
3.04797	58.00
3.06463	58.00
3.08130	58.00
3.09797	58.00
3.11463	58.00
3.13130	58.00
3.14797	58.00
3.16463	58.00
3.18130	58.00
3.19797	58.00
3.21463	58.00
3.23130	58.00
3.24797	58.00
3.26463	58.00
3.28130	58.00
3.29797	58.00
3.31463	58.00
3.33130	58.00
3.34797	58.00
3.36463	58.00
3.38130	58.00
3.39797	58.00
3.41463	58.00
3.43130	58.00
3.44797	58.00
3.46463	58.00
3.48130	58.00
3.49797	58.00
3.51463	58.00
3.53130	58.00
3.54797	58.00
3.56463	58.00
3.58130	58.00
3.59797	58.00
3.61463	58.00
3.63130	58.00
3.64797	58.00
3.66463	58.00
3.68130	58.00
3.69797	58.00
3.71463	58.00
3.73130	58.00
3.74797	58.00
3.76463	58.00
3.78130	58.00
3.79797	58.00
3.81463	58.00
3.83130	58.00
3.84797	58.00
3.86463	58.00
3.88130	58.00
3.89797	58.00
3.91463	58.00
3.93130	58.00
3.94797	58.00
3.96463	58.00
3.98130	58.00
3.99797	58.00

[Status Trace (Carrier Gas Flow)]
Interval(msec)	1000
# of Points	240
Start Time(min)	0.015
End Time(min)	3.998
Intensity Units	
Intensity Multiplier	1
R.Time (min)	Intensity
0.01463	34.00
0.03130	34.54
0.04797	34.55
0.06463	34.51
0.08130	34.51
0.09797	34.52
0.11463	34.52
0.13130	34.52
0.14797	34.52
0.16463	34.52
0.18130	34.52
0.19797	34.52
0.21463	34.52
0.23130	34.52
0.24797	34.52
0.26463	34.52
0.28130	34.52
0.29797	34.52
0.31463	34.52
0.33130	34.52
0.34797	34.52
0.36463	34.52
0.38130	34.52
0.39797	34.51
0.41463	34.52
0.43130	34.52
0.44797	34.52
0.46463	34.52
0.48130	34.52
0.49797	34.52
0.51463	34.52
0.53130	34.52
0.54797	34.52
0.56463	34.52
0.58130	34.52
0.59797	34.52
0.61463	34.52
0.63130	34.52
0.64797	34.52
0.66463	34.52
0.68130	34.52
0.69797	34.51
0.71463	34.52
0.73130	34.52
0.74797	34.52
0.76463	34.52
0.78130	34.52
0.79797	34.52
0.81463	34.52
0.83130	34.52
0.84797	34.52
0.86463	34.52
0.88130	34.52
0.89797	34.52
0.91463	34.52
0.93130	34.52
0.94797	34.52
0.96463	34.52
0.98130	34.52
0.99797	34.52
1.01463	34.52
1.03130	34.52
1.04797	34.52
1.06463	34.52
1.08130	34.52
1.09797	34.52
1.11463	34.52
1.13130	34.52
1.14797	34.52
1.16463	34.52
1.18130	34.52
1.19797	34.52
1.21463	34.52
1.23130	34.52
1.24797	34.52
1.26463	34.52
1.28130	34.52
1.29797	34.52
1.31463	34.52
1.33130	34.52
1.34797	34.52
1.36463	34.52
1.38130	34.52
1.39797	34.52
1.41463	34.52
1.43130	34.52
1.44797	34.52
1.46463	34.52
1.48130	34.52
1.49797	34.52
1.51463	34.52
1.53130	34.52
1.54797	34.52
1.56463	34.52
1.58130	34.52
1.59797	34.52
1.61463	34.52
1.63130	34.52
1.64797	34.52
1.66463	34.52
1.68130	34.52
1.69797	34.52
1.71463	34.52
1.73130	34.52
1.74797	34.52
1.76463	34.52
1.78130	34.52
1.79797	34.52
1.81463	34.52
1.83130	34.53
1.84797	34.52
1.86463	34.52
1.88130	34.51
1.89797	34.51
1.91463	34.52
1.93130	34.52
1.94797	34.52
1.96463	34.52
1.98130	34.53
1.99797	34.52
2.01463	34.52
2.03130	34.52
2.04797	34.52
2.06463	34.51
2.08130	34.52
2.09797	34.52
2.11463	34.52
2.13130	34.52
2.14797	34.52
2.16463	34.52
2.18130	34.52
2.19797	34.52
2.21463	34.52
2.23130	34.51
2.24797	34.52
2.26463	34.52
2.28130	34.51
2.29797	34.52
2.31463	34.52
2.33130	34.52
2.34797	34.52
2.36463	34.52
2.38130	34.52
2.39797	34.52
2.41463	34.52
2.43130	34.52
2.44797	34.51
2.46463	34.52
2.48130	34.51
2.49797	34.52
2.51463	34.52
2.53130	34.52
2.54797	34.52
2.56463	34.52
2.58130	34.53
2.59797	34.51
2.61463	34.51
2.63130	34.52
2.64797	34.52
2.66463	34.52
2.68130	34.52
2.69797	34.52
2.71463	34.51
2.73130	34.52
2.74797	34.52
2.76463	34.52
2.78130	34.52
2.79797	34.51
2.81463	34.52
2.83130	34.52
2.84797	34.53
2.86463	34.52
2.88130	34.53
2.89797	34.52
2.91463	34.52
2.93130	34.52
2.94797	34.52
2.96463	34.52
2.98130	34.52
2.99797	34.52
3.01463	34.52
3.03130	34.52
3.04797	34.52
3.06463	34.52
3.08130	34.52
3.09797	34.52
3.11463	34.51
3.13130	34.52
3.14797	34.51
3.16463	34.52
3.18130	34.51
3.19797	34.52
3.21463	34.52
3.23130	34.51
3.24797	34.52
3.26463	34.52
3.28130	34.52
3.29797	34.52
3.31463	34.52
3.33130	34.51
3.34797	34.51
3.36463	34.52
3.38130	34.52
3.39797	34.52
3.41463	34.52
3.43130	34.51
3.44797	34.52
3.46463	34.52
3.48130	34.52
3.49797	34.53
3.51463	34.53
3.53130	34.52
3.54797	34.52
3.56463	34.51
3.58130	34.51
3.59797	34.52
3.61463	34.53
3.63130	34.52
3.64797	34.53
3.66463	34.52
3.68130	34.52
3.69797	34.52
3.71463	34.51
3.73130	34.52
3.74797	34.52
3.76463	34.52
3.78130	34.52
3.79797	34.52
3.81463	34.52
3.83130	34.52
3.84797	34.52
3.86463	34.52
3.88130	34.52
3.89797	34.52
3.91463	34.52
3.93130	34.52
3.94797	34.52
3.96463	34.52
3.98130	34.51
3.99797	34.52

[Status Trace (Column Flow)]
Interval(msec)	1000
# of Points	240
Start Time(min)	0.015
End Time(min)	3.998
Intensity Units	
Intensity Multiplier	1
R.Time (min)	Intensity
0.01463	5.46
0.03130	5.25
0.04797	5.54
0.06463	5.74
0.08130	5.60
0.09797	5.52
0.11463	5.53
0.13130	5.53
0.14797	5.53
0.16463	5.53
0.18130	5.53
0.19797	5.53
0.21463	5.53
0.23130	5.53
0.24797	5.53
0.26463	5.53
0.28130	5.53
0.29797	5.53
0.31463	5.53
0.33130	5.53
0.34797	5.53
0.36463	5.53
0.38130	5.53
0.39797	5.53
0.41463	5.53
0.43130	5.53
0.44797	5.53
0.46463	5.53
0.48130	5.53
0.49797	5.53
0.51463	5.53
0.53130	5.53
0.54797	5.53
0.56463	5.53
0.58130	5.53
0.59797	5.53
0.61463	5.53
0.63130	5.53
0.64797	5.53
0.66463	5.53
0.68130	5.53
0.69797	5.53
0.71463	5.53
0.73130	5.53
0.74797	5.53
0.76463	5.53
0.78130	5.53
0.79797	5.53
0.81463	5.53
0.83130	5.53
0.84797	5.53
0.86463	5.53
0.88130	5.53
0.89797	5.53
0.91463	5.53
0.93130	5.53
0.94797	5.53
0.96463	5.53
0.98130	5.53
0.99797	5.53
1.01463	5.53
1.03130	5.53
1.04797	5.53
1.06463	5.53
1.08130	5.53
1.09797	5.53
1.11463	5.53
1.13130	5.53
1.14797	5.53
1.16463	5.53
1.18130	5.53
1.19797	5.53
1.21463	5.53
1.23130	5.53
1.24797	5.53
1.26463	5.53
1.28130	5.53
1.29797	5.53
1.31463	5.53
1.33130	5.53
1.34797	5.53
1.36463	5.53
1.38130	5.53
1.39797	5.53
1.41463	5.53
1.43130	5.53
1.44797	5.53
1.46463	5.53
1.48130	5.53
1.49797	5.53
1.51463	5.53
1.53130	5.53
1.54797	5.53
1.56463	5.53
1.58130	5.53
1.59797	5.53
1.61463	5.53
1.63130	5.52
1.64797	5.51
1.66463	5.51
1.68130	5.49
1.69797	5.48
1.71463	5.47
1.73130	5.46
1.74797	5.45
1.76463	5.44
1.78130	5.43
1.79797	5.42
1.81463	5.41
1.83130	5.40
1.84797	5.39
1.86463	5.38
1.88130	5.37
1.89797	5.36
1.91463	5.35
1.93130	5.34
1.94797	5.33
1.96463	5.32
1.98130	5.31
1.99797	5.30
2.01463	5.29
2.03130	5.28
2.04797	5.27
2.06463	5.26
2.08130	5.25
2.09797	5.25
2.11463	5.24
2.13130	5.23
2.14797	5.22
2.16463	5.21
2.18130	5.20
2.19797	5.19
2.21463	5.18
2.23130	5.17
2.24797	5.16
2.26463	5.15
2.28130	5.14
2.29797	5.13
2.31463	5.12
2.33130	5.11
2.34797	5.11
2.36463	5.10
2.38130	5.10
2.39797	5.09
2.41463	5.09
2.43130	5.09
2.44797	5.09
2.46463	5.09
2.48130	5.09
2.49797	5.09
2.51463	5.09
2.53130	5.09
2.54797	5.09
2.56463	5.09
2.58130	5.09
2.59797	5.09
2.61463	5.09
2.63130	5.09
2.64797	5.09
2.66463	5.09
2.68130	5.09
2.69797	5.09
2.71463	5.09
2.73130	5.09
2.74797	5.09
2.76463	5.09
2.78130	5.09
2.79797	5.09
2.81463	5.09
2.83130	5.09
2.84797	5.09
2.86463	5.09
2.88130	5.09
2.89797	5.09
2.91463	5.09
2.93130	5.09
2.94797	5.09
2.96463	5.09
2.98130	5.09
2.99797	5.09
3.01463	5.09
3.03130	5.09
3.04797	5.08
3.06463	5.08
3.08130	5.08
3.09797	5.08
3.11463	5.08
3.13130	5.08
3.14797	5.08
3.16463	5.08
3.18130	5.08
3.19797	5.08
3.21463	5.08
3.23130	5.08
3.24797	5.08
3.26463	5.08
3.28130	5.08
3.29797	5.08
3.31463	5.08
3.33130	5.08
3.34797	5.08
3.36463	5.08
3.38130	5.08
3.39797	5.08
3.41463	5.08
3.43130	5.08
3.44797	5.08
3.46463	5.08
3.48130	5.08
3.49797	5.08
3.51463	5.08
3.53130	5.08
3.54797	5.08
3.56463	5.08
3.58130	5.08
3.59797	5.08
3.61463	5.08
3.63130	5.08
3.64797	5.08
3.66463	5.08
3.68130	5.08
3.69797	5.08
3.71463	5.08
3.73130	5.08
3.74797	5.08
3.76463	5.08
3.78130	5.08
3.79797	5.08
3.81463	5.08
3.83130	5.08
3.84797	5.08
3.86463	5.08
3.88130	5.08
3.89797	5.08
3.91463	5.08
3.93130	5.08
3.94797	5.08
3.96463	5.08
3.98130	5.08
3.99797	5.08

[Status Trace (Linear Velocity)]
Interval(msec)	1000
# of Points	240
Start Time(min)	0.015
End Time(min)	3.998
Intensity Units	
Intensity Multiplier	1
R.Time (min)	Intensity
0.01463	38.64
0.03130	37.44
0.04797	39.06
0.06463	40.22
0.08130	39.40
0.09797	38.99
0.11463	39.01
0.13130	39.02
0.14797	39.02
0.16463	39.02
0.18130	39.02
0.19797	39.02
0.21463	39.02
0.23130	39.02
0.24797	39.02
0.26463	39.02
0.28130	39.02
0.29797	39.02
0.31463	39.02
0.33130	39.02
0.34797	39.02
0.36463	39.02
0.38130	39.02
0.39797	39.02
0.41463	39.02
0.43130	39.02
0.44797	39.02
0.46463	39.02
0.48130	39.02
0.49797	39.02
0.51463	39.02
0.53130	39.02
0.54797	39.02
0.56463	39.02
0.58130	39.02
0.59797	39.02
0.61463	39.02
0.63130	39.02
0.64797	39.02
0.66463	39.02
0.68130	39.02
0.69797	39.02
0.71463	39.02
0.73130	39.02
0.74797	39.02
0.76463	39.02
0.78130	39.02
0.79797	39.02
0.81463	39.02
0.83130	39.02
0.84797	39.02
0.86463	39.02
0.88130	39.02
0.89797	39.02
0.91463	39.02
0.93130	39.02
0.94797	39.02
0.96463	39.02
0.98130	39.02
0.99797	39.02
1.01463	39.02
1.03130	39.02
1.04797	39.02
1.06463	39.02
1.08130	39.02
1.09797	39.02
1.11463	39.02
1.13130	39.02
1.14797	39.02
1.16463	39.02
1.18130	39.02
1.19797	39.02
1.21463	39.02
1.23130	39.02
1.24797	39.02
1.26463	39.02
1.28130	39.02
1.29797	39.02
1.31463	39.02
1.33130	39.02
1.34797	39.02
1.36463	39.02
1.38130	39.02
1.39797	39.02
1.41463	39.02
1.43130	39.02
1.44797	39.02
1.46463	39.02
1.48130	39.02
1.49797	39.02
1.51463	39.02
1.53130	39.02
1.54797	39.02
1.56463	39.02
1.58130	39.02
1.59797	39.02
1.61463	39.01
1.63130	39.00
1.64797	38.98
1.66463	38.95
1.68130	38.91
1.69797	38.88
1.71463	38.84
1.73130	38.81
1.74797	38.78
1.76463	38.75
1.78130	38.72
1.79797	38.69
1.81463	38.66
1.83130	38.62
1.84797	38.59
1.86463	38.56
1.88130	38.53
1.89797	38.50
1.91463	38.47
1.93130	38.44
1.94797	38.41
1.96463	38.38
1.98130	38.35
1.99797	38.32
2.01463	38.29
2.03130	38.26
2.04797	38.23
2.06463	38.20
2.08130	38.17
2.09797	38.14
2.11463	38.11
2.13130	38.08
2.14797	38.05
2.16463	38.02
2.18130	37.99
2.19797	37.96
2.21463	37.93
2.23130	37.90
2.24797	37.87
2.26463	37.84
2.28130	37.81
2.29797	37.78
2.31463	37.76
2.33130	37.73
2.34797	37.70
2.36463	37.68
2.38130	37.66
2.39797	37.66
2.41463	37.66
2.43130	37.66
2.44797	37.66
2.46463	37.66
2.48130	37.66
2.49797	37.66
2.51463	37.65
2.53130	37.65
2.54797	37.66
2.56463	37.66
2.58130	37.65
2.59797	37.65
2.61463	37.65
2.63130	37.65
2.64797	37.65
2.66463	37.65
2.68130	37.65
2.69797	37.65
2.71463	37.65
2.73130	37.65
2.74797	37.65
2.76463	37.65
2.78130	37.64
2.79797	37.64
2.81463	37.64
2.83130	37.65
2.84797	37.65
2.86463	37.65
2.88130	37.64
2.89797	37.64
2.91463	37.64
2.93130	37.64
2.94797	37.64
2.96463	37.64
2.98130	37.64
2.99797	37.64
3.01463	37.64
3.03130	37.63
3.04797	37.63
3.06463	37.63
3.08130	37.63
3.09797	37.63
3.11463	37.63
3.13130	37.63
3.14797	37.63
3.16463	37.63
3.18130	37.63
3.19797	37.63
3.21463	37.63
3.23130	37.63
3.24797	37.63
3.26463	37.63
3.28130	37.63
3.29797	37.62
3.31463	37.62
3.33130	37.63
3.34797	37.63
3.36463	37.63
3.38130	37.63
3.39797	37.63
3.41463	37.63
3.43130	37.63
3.44797	37.63
3.46463	37.63
3.48130	37.63
3.49797	37.63
3.51463	37.63
3.53130	37.63
3.54797	37.63
3.56463	37.63
3.58130	37.63
3.59797	37.63
3.61463	37.63
3.63130	37.63
3.64797	37.63
3.66463	37.63
3.68130	37.63
3.69797	37.63
3.71463	37.63
3.73130	37.63
3.74797	37.63
3.76463	37.63
3.78130	37.63
3.79797	37.63
3.81463	37.63
3.83130	37.63
3.84797	37.63
3.86463	37.63
3.88130	37.63
3.89797	37.63
3.91463	37.63
3.93130	37.63
3.94797	37.63
3.96463	37.63
3.98130	37.63
3.99797	37.63

