[Header]
Application Name	LabSolutions
Version	5.110
Data File Name	C:\Users\User\Desktop\GC Analyses\Jack\Nachusa Grasslands Sampling\T3 Timepoint July 12th\T3_07122022_085.gcd
Output Date	3/14/2023
Output Time	3:43:36 PM

[File Information]
Type	Data File
Generated	3/14/2023 12:00:53 AM
Generated by	System Administrator
Modified	3/14/2023 12:07:45 AM
Modified by	System Administrator

[Sample Information]
Operator Name	System Administrator
Acquired	3/14/2023 12:03:44 AM
Sample Type	0:Unknown
Level	0
Sample Name	085
Sample ID	085
ISTD Amount1	1
ISTD Amount2	1
ISTD Amount3	1
ISTD Amount4	1
ISTD Amount5	1
ISTD Amount6	1
ISTD Amount7	1
ISTD Amount8	1
ISTD Amount9	1
ISTD Amount10	1
ISTD Amount11	1
ISTD Amount12	1
ISTD Amount13	1
ISTD Amount14	1
ISTD Amount15	1
ISTD Amount16	1
ISTD Amount17	1
ISTD Amount18	1
ISTD Amount19	1
ISTD Amount20	1
ISTD Amount21	1
ISTD Amount22	1
ISTD Amount23	1
ISTD Amount24	1
ISTD Amount25	1
ISTD Amount26	1
ISTD Amount27	1
ISTD Amount28	1
ISTD Amount29	1
ISTD Amount30	1
ISTD Amount31	1
ISTD Amount32	1
Sample Amount	1
Dilution Factor	1
Vial#	84
Injection Volume	1
Injection Count	1
Bar Code	

[Original Files]
Data File	C:\Users\User\Desktop\GC Analyses\Jack\Nachusa Grasslands Sampling\T3 Timepoint July 12th\T3_07122022_085.gcd
Method File	C:\LabSolutions\Data\GHG_4min_2022\ghg3_togas_w_acet_4 min_new_int.gcm
Batch File	C:\LabSolutions\Data\AutoSamplerTesting\T3_07122022.gcb
Report Format File	c:\LabSolutions\System\DEFAULT.lsr

[File Description]


[Configuration]
Instrument Name	C0B7VH3-Instrument1
Instrument #	1
Line #	1
# of Detectors	3
Detector ID	DET#1	DET#2	DET#3
Detector Name	FID	PTCD	ECD
# of Channels	1	1	1

[Peak Table(Ch1)]
# of Peaks	3
Peak#	R.Time	I.Time	F.Time	Area	Height	A/H	Conc.	Mark	ID#	Name	k'	Plate #	Plate Ht.	Tailing	Resolution	Sep.Factor	Area Ratio	Height Ratio	Conc. %	Norm Conc.
1	1.476	1.435	1.534	26459	13141	2.013	186.798	   	1	CO	0.000	9727	15.421	1.263	0.000	0.000	0	0	17.918	17.918
2	1.571	1.538	1.626	3833	1987	1.929	74.116	   	2	CH4	0.065	12013	12.486	1.139	1.627	0.000	0	0	7.109	7.109
3	1.996	1.949	2.363	3114245	1498940	2.078	781.591	   	3	CO2	0.353	17392	8.624	1.321	7.216	5.462	0	0	74.972	74.972

[Peak Table(Ch2)]
# of Peaks	0

[Peak Table(Ch3)]
# of Peaks	5
Peak#	R.Time	I.Time	F.Time	Area	Height	A/H	Conc.	Mark	ID#	Name	k'	Plate #	Plate Ht.	Tailing	Resolution	Sep.Factor	Area Ratio	Height Ratio	Conc. %	Norm Conc.
1	2.462	2.279	2.510	2414	699	3.452	0.000	   			0.000	10501	14.284	0.000	0.000	0.000	0	0	0.000	0.000
2	2.532	2.510	2.686	1548	350	4.423	0.000	 V 			0.028	6262	23.953	0.000	0.622	0.000	0	0	0.000	0.000
3	2.880	2.781	2.986	17543	4747	3.696	0.448	   	1	N2O	0.170	13409	11.186	1.483	3.063	6.000	0	0	100.000	100.000
4	3.085	2.986	3.093	2281	495	4.606	0.000	 V 			0.253	182	824.926	0.000	0.405	1.491	0	0	0.000	0.000
5	3.258	3.093	3.995	17870	601	29.743	0.000	 V 	2	SF6	0.323	21	7149.517	0.000	0.092	1.276	0	0	0.000	0.000

[Compound Results(Ch1)]
# of IDs	6
ID#	Name	R.Time	Area	Height	Conc.	Curve	3rd	2nd	1st	Constant	Area Ratio	Height Ratio	Conc. %	Norm Conc.
1	CO	1.476	26459	13141	186.798	Linear	0.000000e+00	0.000000e+00	1.416423e+002	0.000000e+00	0	0	17.918	17.918
2	CH4	1.571	3833	1987	74.116	Linear	0.000000e+00	0.000000e+00	5.171738e+001	0.000000e+00	0	0	7.109	7.109
3	CO2	1.996	3114245	1498940	781.591	Linear	0.000000e+00	0.000000e+00	3.984494e+003	0.000000e+00	0	0	74.972	74.972
4	Ethylene	0.000	0	0	0.000	Linear	0.000000e+00	0.000000e+00	0.000000e+00	0.000000e+00	0	0	0.000	0.000
5	Acetylene	0.000	0	0	0.000	Linear	0.000000e+00	0.000000e+00	0.000000e+00	0.000000e+00	0	0	0.000	0.000
6	Ethane	0.000	0	0	0.000	Linear	0.000000e+00	0.000000e+00	0.000000e+00	0.000000e+00	0	0	0.000	0.000

[Compound Results(Ch2)]
# of IDs	5
ID#	Name	R.Time	Area	Height	Conc.	Curve	3rd	2nd	1st	Constant	Area Ratio	Height Ratio	Conc. %	Norm Conc.
1	Hydrogen	0.000	0	0	0.000	Linear	0.000000e+00	0.000000e+00	0.000000e+00	0.000000e+00	0	0	0.000	0.000
2	Oxygen	0.000	0	0	0.000	Linear	0.000000e+00	0.000000e+00	0.000000e+00	0.000000e+00	0	0	0.000	0.000
3	Nitrogen	0.000	0	0	0.000	Linear	0.000000e+00	0.000000e+00	0.000000e+00	0.000000e+00	0	0	0.000	0.000
4	Methane	0.000	0	0	0.000	Linear	0.000000e+00	0.000000e+00	0.000000e+00	0.000000e+00	0	0	0.000	0.000
5	Carbon Monoxide	0.000	0	0	0.000	Linear	0.000000e+00	0.000000e+00	0.000000e+00	0.000000e+00	0	0	0.000	0.000

[Compound Results(Ch3)]
# of IDs	2
ID#	Name	R.Time	Area	Height	Conc.	Curve	3rd	2nd	1st	Constant	Area Ratio	Height Ratio	Conc. %	Norm Conc.
1	N2O	2.880	17543	4747	0.448	Linear	0.000000e+00	0.000000e+00	3.915173e+004	0.000000e+00	0	0	100.000	100.000
2	SF6	3.258	17870	601	0.000	Linear	0.000000e+00	0.000000e+00	0.000000e+00	0.000000e+00	0	0	0.000	0.000

[Group Results(Ch1)]
# of Groups	0

[Group Results(Ch2)]
# of Groups	0

[Group Results(Ch3)]
# of Groups	0

[Chromatogram (Ch1)]
Interval(msec)	220
# of Points	1091
Start Time(min)	0.002
End Time(min)	3.998
R.Time (min)	Intensity
0.00167	26
0.00533	29
0.00900	29
0.01267	31
0.01633	33
0.02000	35
0.02367	38
0.02733	45
0.03100	53
0.03467	58
0.03833	57
0.04200	52
0.04567	45
0.04933	41
0.05300	43
0.05667	48
0.06033	55
0.06400	62
0.06767	73
0.07133	89
0.07500	103
0.07867	111
0.08233	117
0.08600	122
0.08967	124
0.09333	124
0.09700	122
0.10067	121
0.10433	125
0.10800	128
0.11167	127
0.11533	126
0.11900	124
0.12267	119
0.12633	109
0.13000	96
0.13367	87
0.13733	86
0.14100	89
0.14467	90
0.14833	90
0.15200	91
0.15567	92
0.15933	92
0.16300	90
0.16667	84
0.17033	74
0.17400	67
0.17767	61
0.18133	56
0.18500	53
0.18867	51
0.19233	53
0.19600	53
0.19967	50
0.20333	49
0.20700	54
0.21067	58
0.21433	54
0.21800	48
0.22167	46
0.22533	46
0.22900	41
0.23267	35
0.23633	31
0.24000	29
0.24367	28
0.24733	27
0.25100	28
0.25467	29
0.25833	30
0.26200	32
0.26567	31
0.26933	32
0.27300	36
0.27667	41
0.28033	41
0.28400	37
0.28767	37
0.29133	40
0.29500	44
0.29867	46
0.30233	43
0.30600	33
0.30967	28
0.31333	28
0.31700	31
0.32067	29
0.32433	23
0.32800	18
0.33167	16
0.33533	17
0.33900	21
0.34267	27
0.34633	32
0.35000	33
0.35367	32
0.35733	32
0.36100	34
0.36467	43
0.36833	53
0.37200	57
0.37567	53
0.37933	43
0.38300	32
0.38667	24
0.39033	20
0.39400	18
0.39767	20
0.40133	21
0.40500	24
0.40867	25
0.41233	26
0.41600	27
0.41967	28
0.42333	29
0.42700	30
0.43067	30
0.43433	29
0.43800	30
0.44167	30
0.44533	29
0.44900	27
0.45267	24
0.45633	23
0.46000	26
0.46367	30
0.46733	31
0.47100	31
0.47467	29
0.47833	28
0.48200	29
0.48567	32
0.48933	34
0.49300	37
0.49667	36
0.50033	34
0.50400	33
0.50767	29
0.51133	27
0.51500	27
0.51867	27
0.52233	27
0.52600	28
0.52967	31
0.53333	32
0.53700	32
0.54067	30
0.54433	31
0.54800	34
0.55167	36
0.55533	33
0.55900	27
0.56267	20
0.56633	14
0.57000	9
0.57367	7
0.57733	5
0.58100	5
0.58467	7
0.58833	7
0.59200	7
0.59567	10
0.59933	15
0.60300	21
0.60667	26
0.61033	27
0.61400	25
0.61767	24
0.62133	21
0.62500	15
0.62867	13
0.63233	14
0.63600	14
0.63967	17
0.64333	24
0.64700	30
0.65067	31
0.65433	29
0.65800	26
0.66167	26
0.66533	30
0.66900	35
0.67267	43
0.67633	43
0.68000	34
0.68367	19
0.68733	7
0.69100	-2
0.69467	-4
0.69833	-4
0.70200	-6
0.70567	-8
0.70933	-5
0.71300	8
0.71667	21
0.72033	26
0.72400	22
0.72767	12
0.73133	3
0.73500	-4
0.73867	-11
0.74233	-14
0.74600	-8
0.74967	2
0.75333	15
0.75700	27
0.76067	31
0.76433	25
0.76800	14
0.77167	1
0.77533	-8
0.77900	-8
0.78267	-4
0.78633	-1
0.79000	3
0.79367	5
0.79733	8
0.80100	12
0.80467	11
0.80833	4
0.81200	-2
0.81567	-4
0.81933	-5
0.82300	-5
0.82667	-2
0.83033	-2
0.83400	-3
0.83767	-3
0.84133	-2
0.84500	0
0.84867	2
0.85233	4
0.85600	6
0.85967	9
0.86333	21
0.86700	32
0.87067	32
0.87433	29
0.87800	23
0.88167	16
0.88533	6
0.88900	4
0.89267	7
0.89633	9
0.90000	9
0.90367	14
0.90733	20
0.91100	21
0.91467	15
0.91833	1
0.92200	-11
0.92567	-18
0.92933	-18
0.93300	-14
0.93667	-10
0.94033	-4
0.94400	-2
0.94767	-1
0.95133	5
0.95500	9
0.95867	8
0.96233	6
0.96600	6
0.96967	4
0.97333	1
0.97700	-2
0.98067	-7
0.98433	-9
0.98800	-12
0.99167	-14
0.99533	-18
0.99900	-19
1.00267	-14
1.00633	-10
1.01000	-5
1.01367	4
1.01733	18
1.02100	28
1.02467	29
1.02833	24
1.03200	10
1.03567	-4
1.03933	-15
1.04300	-21
1.04667	-24
1.05033	-27
1.05400	-31
1.05767	-35
1.06133	-37
1.06500	-37
1.06867	-38
1.07233	-36
1.07600	-27
1.07967	-15
1.08333	-9
1.08700	-3
1.09067	1
1.09433	-1
1.09800	-5
1.10167	-10
1.10533	-13
1.10900	-18
1.11267	-24
1.11633	-24
1.12000	-19
1.12367	-12
1.12733	-4
1.13100	5
1.13467	11
1.13833	14
1.14200	10
1.14567	2
1.14933	-7
1.15300	-13
1.15667	-17
1.16033	-17
1.16400	-17
1.16767	-19
1.17133	-20
1.17500	-23
1.17867	-25
1.18233	-23
1.18600	-20
1.18967	-15
1.19333	-8
1.19700	3
1.20067	16
1.20433	21
1.20800	14
1.21167	1
1.21533	-15
1.21900	-25
1.22267	-33
1.22633	-37
1.23000	-34
1.23367	-28
1.23733	-28
1.24100	-32
1.24467	-36
1.24833	-31
1.25200	-24
1.25567	-17
1.25933	-13
1.26300	-10
1.26667	-7
1.27033	-4
1.27400	-5
1.27767	-9
1.28133	-13
1.28500	-18
1.28867	-24
1.29233	-29
1.29600	-34
1.29967	-38
1.30333	-40
1.30700	-38
1.31067	-37
1.31433	-33
1.31800	-26
1.32167	-18
1.32533	-11
1.32900	-8
1.33267	-11
1.33633	-18
1.34000	-24
1.34367	-28
1.34733	-31
1.35100	-36
1.35467	-39
1.35833	-36
1.36200	-33
1.36567	-25
1.36933	-14
1.37300	-7
1.37667	-4
1.38033	-5
1.38400	-10
1.38767	-16
1.39133	-18
1.39500	-17
1.39867	-11
1.40233	-6
1.40600	2
1.40967	8
1.41333	8
1.41700	3
1.42067	-3
1.42433	-9
1.42800	-10
1.43167	-9
1.43533	-6
1.43900	-1
1.44267	27
1.44633	161
1.45000	602
1.45367	1711
1.45733	3718
1.46100	6290
1.46467	8831
1.46833	10927
1.47200	12393
1.47567	13111
1.47933	12954
1.48300	11903
1.48667	10161
1.49033	8099
1.49400	6088
1.49767	4366
1.50133	3016
1.50500	2017
1.50867	1304
1.51233	811
1.51600	481
1.51967	263
1.52333	122
1.52700	32
1.53067	-26
1.53433	-63
1.53800	-75
1.54167	-42
1.54533	84
1.54900	346
1.55267	715
1.55633	1111
1.56000	1462
1.56367	1728
1.56733	1887
1.57100	1910
1.57467	1781
1.57833	1520
1.58200	1186
1.58567	854
1.58933	573
1.59300	365
1.59667	220
1.60033	121
1.60400	47
1.60767	-4
1.61133	-38
1.61500	-60
1.61867	-69
1.62233	-75
1.62600	-82
1.62967	-86
1.63333	-83
1.63700	-77
1.64067	-74
1.64433	-73
1.64800	-73
1.65167	-76
1.65533	-82
1.65900	-88
1.66267	-90
1.66633	-84
1.67000	-76
1.67367	-69
1.67733	-64
1.68100	-66
1.68467	-74
1.68833	-80
1.69200	-86
1.69567	-89
1.69933	-89
1.70300	-88
1.70667	-85
1.71033	-78
1.71400	-71
1.71767	-68
1.72133	-67
1.72500	-67
1.72867	-68
1.73233	-66
1.73600	-63
1.73967	-60
1.74333	-60
1.74700	-60
1.75067	-56
1.75433	-55
1.75800	-55
1.76167	-53
1.76533	-50
1.76900	-50
1.77267	-53
1.77633	-57
1.78000	-57
1.78367	-53
1.78733	-49
1.79100	-47
1.79467	-45
1.79833	-47
1.80200	-48
1.80567	-49
1.80933	-49
1.81300	-47
1.81667	-46
1.82033	-50
1.82400	-53
1.82767	-53
1.83133	-50
1.83500	-47
1.83867	-45
1.84233	-45
1.84600	-42
1.84967	-37
1.85333	-35
1.85700	-34
1.86067	-37
1.86433	-43
1.86800	-48
1.87167	-50
1.87533	-53
1.87900	-53
1.88267	-49
1.88633	-45
1.89000	-39
1.89367	-34
1.89733	-27
1.90100	-21
1.90467	-17
1.90833	-18
1.91200	-18
1.91567	-16
1.91933	-15
1.92300	-17
1.92667	-20
1.93033	-25
1.93400	-30
1.93767	-34
1.94133	-33
1.94500	-31
1.94867	-28
1.95233	-6
1.95600	146
1.95967	1112
1.96333	5971
1.96700	24481
1.97067	78134
1.97433	197034
1.97800	399777
1.98167	670793
1.98533	963457
1.98900	1224167
1.99267	1410939
1.99633	1498958
2.00000	1480300
2.00367	1365391
2.00733	1180888
2.01100	962443
2.01467	744495
2.01833	551635
2.02200	395518
2.02567	277231
2.02933	191767
2.03300	132017
2.03667	91139
2.04033	63534
2.04400	44990
2.04767	32520
2.05133	24084
2.05500	18308
2.05867	14288
2.06233	11434
2.06600	9367
2.06967	7838
2.07333	6682
2.07700	5785
2.08067	5075
2.08433	4503
2.08800	4034
2.09167	3645
2.09533	3324
2.09900	3055
2.10267	2824
2.10633	2618
2.11000	2435
2.11367	2274
2.11733	2132
2.12100	2004
2.12467	1885
2.12833	1779
2.13200	1687
2.13567	1605
2.13933	1529
2.14300	1458
2.14667	1392
2.15033	1333
2.15400	1282
2.15767	1234
2.16133	1186
2.16500	1141
2.16867	1099
2.17233	1059
2.17600	1024
2.17967	996
2.18333	968
2.18700	940
2.19067	908
2.19433	876
2.19800	848
2.20167	823
2.20533	799
2.20900	777
2.21267	760
2.21633	743
2.22000	727
2.22367	706
2.22733	684
2.23100	660
2.23467	636
2.23833	620
2.24200	614
2.24567	609
2.24933	598
2.25300	584
2.25667	574
2.26033	570
2.26400	567
2.26767	560
2.27133	549
2.27500	540
2.27867	532
2.28233	520
2.28600	505
2.28967	487
2.29333	470
2.29700	456
2.30067	448
2.30433	447
2.30800	446
2.31167	440
2.31533	432
2.31900	423
2.32267	420
2.32633	422
2.33000	424
2.33367	423
2.33733	417
2.34100	408
2.34467	398
2.34833	387
2.35200	377
2.35567	369
2.35933	365
2.36300	364
2.36667	359
2.37033	354
2.37400	353
2.37767	362
2.38133	373
2.38500	384
2.38867	389
2.39233	386
2.39600	378
2.39967	371
2.40333	369
2.40700	369
2.41067	367
2.41433	360
2.41800	349
2.42167	340
2.42533	331
2.42900	323
2.43267	321
2.43633	325
2.44000	333
2.44367	341
2.44733	342
2.45100	338
2.45467	334
2.45833	326
2.46200	315
2.46567	310
2.46933	312
2.47300	316
2.47667	319
2.48033	318
2.48400	315
2.48767	312
2.49133	312
2.49500	316
2.49867	329
2.50233	342
2.50600	350
2.50967	351
2.51333	350
2.51700	350
2.52067	349
2.52433	347
2.52800	350
2.53167	351
2.53533	347
2.53900	340
2.54267	333
2.54633	331
2.55000	337
2.55367	344
2.55733	348
2.56100	343
2.56467	333
2.56833	328
2.57200	331
2.57567	333
2.57933	333
2.58300	332
2.58667	332
2.59033	333
2.59400	336
2.59767	341
2.60133	341
2.60500	338
2.60867	337
2.61233	336
2.61600	336
2.61967	340
2.62333	343
2.62700	341
2.63067	339
2.63433	339
2.63800	339
2.64167	336
2.64533	333
2.64900	329
2.65267	326
2.65633	323
2.66000	322
2.66367	328
2.66733	333
2.67100	335
2.67467	338
2.67833	339
2.68200	339
2.68567	341
2.68933	342
2.69300	339
2.69667	335
2.70033	332
2.70400	330
2.70767	332
2.71133	337
2.71500	345
2.71867	360
2.72233	377
2.72600	386
2.72967	385
2.73333	375
2.73700	358
2.74067	344
2.74433	334
2.74800	329
2.75167	328
2.75533	328
2.75900	327
2.76267	323
2.76633	318
2.77000	309
2.77367	300
2.77733	297
2.78100	298
2.78467	306
2.78833	314
2.79200	322
2.79567	326
2.79933	329
2.80300	334
2.80667	337
2.81033	339
2.81400	338
2.81767	338
2.82133	337
2.82500	341
2.82867	345
2.83233	346
2.83600	345
2.83967	341
2.84333	340
2.84700	345
2.85067	350
2.85433	352
2.85800	349
2.86167	349
2.86533	350
2.86900	353
2.87267	355
2.87633	356
2.88000	356
2.88367	356
2.88733	358
2.89100	358
2.89467	358
2.89833	356
2.90200	353
2.90567	350
2.90933	346
2.91300	342
2.91667	339
2.92033	339
2.92400	340
2.92767	342
2.93133	346
2.93500	350
2.93867	357
2.94233	367
2.94600	377
2.94967	381
2.95333	378
2.95700	367
2.96067	356
2.96433	346
2.96800	337
2.97167	330
2.97533	326
2.97900	327
2.98267	332
2.98633	339
2.99000	347
2.99367	351
2.99733	351
3.00100	351
3.00467	353
3.00833	361
3.01200	367
3.01567	369
3.01933	366
3.02300	362
3.02667	355
3.03033	345
3.03400	336
3.03767	329
3.04133	324
3.04500	323
3.04867	325
3.05233	326
3.05600	327
3.05967	326
3.06333	324
3.06700	323
3.07067	323
3.07433	325
3.07800	326
3.08167	331
3.08533	341
3.08900	351
3.09267	359
3.09633	363
3.10000	364
3.10367	364
3.10733	359
3.11100	353
3.11467	346
3.11833	340
3.12200	337
3.12567	342
3.12933	345
3.13300	342
3.13667	337
3.14033	331
3.14400	324
3.14767	320
3.15133	320
3.15500	320
3.15867	323
3.16233	330
3.16600	338
3.16967	342
3.17333	344
3.17700	348
3.18067	357
3.18433	368
3.18800	376
3.19167	379
3.19533	380
3.19900	375
3.20267	369
3.20633	363
3.21000	358
3.21367	351
3.21733	340
3.22100	328
3.22467	316
3.22833	308
3.23200	305
3.23567	305
3.23933	306
3.24300	307
3.24667	309
3.25033	314
3.25400	319
3.25767	325
3.26133	331
3.26500	332
3.26867	333
3.27233	335
3.27600	339
3.27967	342
3.28333	341
3.28700	338
3.29067	332
3.29433	323
3.29800	314
3.30167	314
3.30533	326
3.30900	332
3.31267	330
3.31633	323
3.32000	319
3.32367	320
3.32733	323
3.33100	325
3.33467	325
3.33833	320
3.34200	313
3.34567	310
3.34933	310
3.35300	313
3.35667	314
3.36033	311
3.36400	308
3.36767	309
3.37133	315
3.37500	324
3.37867	334
3.38233	340
3.38600	338
3.38967	334
3.39333	329
3.39700	324
3.40067	318
3.40433	312
3.40800	311
3.41167	313
3.41533	312
3.41900	309
3.42267	306
3.42633	301
3.43000	296
3.43367	292
3.43733	288
3.44100	292
3.44467	296
3.44833	298
3.45200	304
3.45567	307
3.45933	307
3.46300	306
3.46667	309
3.47033	319
3.47400	324
3.47767	327
3.48133	326
3.48500	325
3.48867	325
3.49233	324
3.49600	323
3.49967	323
3.50333	319
3.50700	307
3.51067	298
3.51433	293
3.51800	290
3.52167	291
3.52533	292
3.52900	293
3.53267	292
3.53633	284
3.54000	278
3.54367	277
3.54733	279
3.55100	284
3.55467	287
3.55833	286
3.56200	280
3.56567	276
3.56933	273
3.57300	270
3.57667	267
3.58033	267
3.58400	267
3.58767	276
3.59133	290
3.59500	298
3.59867	298
3.60233	297
3.60600	297
3.60967	299
3.61333	300
3.61700	292
3.62067	282
3.62433	280
3.62800	280
3.63167	279
3.63533	273
3.63900	269
3.64267	268
3.64633	268
3.65000	269
3.65367	269
3.65733	269
3.66100	270
3.66467	272
3.66833	270
3.67200	266
3.67567	266
3.67933	268
3.68300	269
3.68667	269
3.69033	270
3.69400	271
3.69767	270
3.70133	266
3.70500	265
3.70867	264
3.71233	263
3.71600	266
3.71967	270
3.72333	272
3.72700	269
3.73067	260
3.73433	251
3.73800	247
3.74167	241
3.74533	236
3.74900	231
3.75267	229
3.75633	231
3.76000	237
3.76367	242
3.76733	249
3.77100	259
3.77467	266
3.77833	271
3.78200	275
3.78567	277
3.78933	276
3.79300	271
3.79667	261
3.80033	251
3.80400	245
3.80767	246
3.81133	253
3.81500	263
3.81867	270
3.82233	266
3.82600	256
3.82967	248
3.83333	244
3.83700	243
3.84067	244
3.84433	245
3.84800	247
3.85167	252
3.85533	256
3.85900	257
3.86267	254
3.86633	245
3.87000	234
3.87367	228
3.87733	230
3.88100	236
3.88467	236
3.88833	234
3.89200	233
3.89567	236
3.89933	234
3.90300	230
3.90667	226
3.91033	225
3.91400	223
3.91767	222
3.92133	223
3.92500	224
3.92867	225
3.93233	229
3.93600	232
3.93967	233
3.94333	234
3.94700	236
3.95067	240
3.95433	242
3.95800	237
3.96167	231
3.96533	227
3.96900	224
3.97267	229
3.97633	231
3.98000	229
3.98367	231
3.98733	239
3.99100	246
3.99467	247
3.99833	243

[Chromatogram (Ch2)]
Interval(msec)	220
# of Points	1091
Start Time(min)	0.002
End Time(min)	3.998
R.Time (min)	Intensity
0.00167	1
0.00533	1
0.00900	1
0.01267	1
0.01633	1
0.02000	1
0.02367	0
0.02733	-0
0.03100	-1
0.03467	-1
0.03833	-1
0.04200	-1
0.04567	-2
0.04933	-1
0.05300	-1
0.05667	-1
0.06033	-1
0.06400	-0
0.06767	0
0.07133	1
0.07500	1
0.07867	1
0.08233	1
0.08600	1
0.08967	2
0.09333	2
0.09700	2
0.10067	2
0.10433	2
0.10800	2
0.11167	2
0.11533	2
0.11900	1
0.12267	1
0.12633	1
0.13000	1
0.13367	1
0.13733	0
0.14100	0
0.14467	0
0.14833	-0
0.15200	-0
0.15567	-0
0.15933	-0
0.16300	0
0.16667	0
0.17033	0
0.17400	1
0.17767	1
0.18133	1
0.18500	1
0.18867	1
0.19233	2
0.19600	2
0.19967	2
0.20333	2
0.20700	2
0.21067	1
0.21433	1
0.21800	1
0.22167	1
0.22533	1
0.22900	0
0.23267	0
0.23633	0
0.24000	0
0.24367	-0
0.24733	-0
0.25100	-1
0.25467	-1
0.25833	-1
0.26200	-1
0.26567	-1
0.26933	-1
0.27300	-1
0.27667	-1
0.28033	-1
0.28400	-1
0.28767	-1
0.29133	-0
0.29500	-0
0.29867	0
0.30233	0
0.30600	0
0.30967	0
0.31333	-0
0.31700	-0
0.32067	-1
0.32433	-1
0.32800	-1
0.33167	-1
0.33533	-1
0.33900	-1
0.34267	-1
0.34633	-1
0.35000	-1
0.35367	-1
0.35733	-1
0.36100	-1
0.36467	-1
0.36833	-1
0.37200	-2
0.37567	-2
0.37933	-2
0.38300	-2
0.38667	-2
0.39033	-2
0.39400	-2
0.39767	-3
0.40133	-3
0.40500	-3
0.40867	-3
0.41233	-3
0.41600	-3
0.41967	-2
0.42333	-2
0.42700	-2
0.43067	-2
0.43433	-2
0.43800	-2
0.44167	-2
0.44533	-2
0.44900	-2
0.45267	-2
0.45633	-2
0.46000	-2
0.46367	-1
0.46733	-1
0.47100	-1
0.47467	-1
0.47833	-2
0.48200	-2
0.48567	-2
0.48933	-2
0.49300	-1
0.49667	-1
0.50033	-1
0.50400	-1
0.50767	-1
0.51133	-2
0.51500	-2
0.51867	-2
0.52233	-2
0.52600	-2
0.52967	-2
0.53333	-2
0.53700	-2
0.54067	-2
0.54433	-2
0.54800	-2
0.55167	-2
0.55533	-2
0.55900	-2
0.56267	-2
0.56633	-2
0.57000	-2
0.57367	-2
0.57733	-2
0.58100	-2
0.58467	-3
0.58833	-3
0.59200	-3
0.59567	-4
0.59933	-4
0.60300	-4
0.60667	-3
0.61033	-3
0.61400	-3
0.61767	-2
0.62133	-2
0.62500	-2
0.62867	-1
0.63233	-1
0.63600	-1
0.63967	-0
0.64333	-0
0.64700	-0
0.65067	-0
0.65433	-0
0.65800	-0
0.66167	-0
0.66533	-0
0.66900	-1
0.67267	-1
0.67633	-1
0.68000	-2
0.68367	-2
0.68733	-2
0.69100	-2
0.69467	-2
0.69833	-2
0.70200	-2
0.70567	-2
0.70933	-2
0.71300	-1
0.71667	-1
0.72033	-1
0.72400	-1
0.72767	-1
0.73133	-2
0.73500	-2
0.73867	-2
0.74233	-2
0.74600	-2
0.74967	-2
0.75333	-2
0.75700	-2
0.76067	-2
0.76433	-2
0.76800	-2
0.77167	-2
0.77533	-2
0.77900	-1
0.78267	-1
0.78633	-1
0.79000	-1
0.79367	-0
0.79733	-0
0.80100	-0
0.80467	-0
0.80833	-0
0.81200	-0
0.81567	-0
0.81933	-0
0.82300	-0
0.82667	-0
0.83033	-0
0.83400	-0
0.83767	-0
0.84133	-0
0.84500	0
0.84867	0
0.85233	0
0.85600	0
0.85967	0
0.86333	0
0.86700	-0
0.87067	-0
0.87433	-1
0.87800	-1
0.88167	-2
0.88533	-2
0.88900	-3
0.89267	-3
0.89633	-3
0.90000	-3
0.90367	-3
0.90733	-3
0.91100	-3
0.91467	-4
0.91833	-4
0.92200	-4
0.92567	-4
0.92933	-4
0.93300	-5
0.93667	-5
0.94033	-4
0.94400	-4
0.94767	-4
0.95133	-4
0.95500	-4
0.95867	-4
0.96233	-5
0.96600	-5
0.96967	-5
0.97333	-5
0.97700	-5
0.98067	-5
0.98433	-5
0.98800	-5
0.99167	-4
0.99533	-4
0.99900	-4
1.00267	-5
1.00633	-5
1.01000	-5
1.01367	-5
1.01733	-5
1.02100	-5
1.02467	-5
1.02833	-4
1.03200	-4
1.03567	-4
1.03933	-3
1.04300	-3
1.04667	-3
1.05033	-2
1.05400	-2
1.05767	-2
1.06133	-2
1.06500	-2
1.06867	-3
1.07233	-3
1.07600	-3
1.07967	-3
1.08333	-3
1.08700	-4
1.09067	-4
1.09433	-4
1.09800	-4
1.10167	-4
1.10533	-4
1.10900	-4
1.11267	-4
1.11633	-3
1.12000	-3
1.12367	-3
1.12733	-2
1.13100	-2
1.13467	-2
1.13833	-2
1.14200	-1
1.14567	-1
1.14933	-1
1.15300	-1
1.15667	-1
1.16033	-0
1.16400	-0
1.16767	-1
1.17133	-1
1.17500	-1
1.17867	-1
1.18233	-2
1.18600	-2
1.18967	-3
1.19333	-3
1.19700	-3
1.20067	-4
1.20433	-4
1.20800	-4
1.21167	-4
1.21533	-4
1.21900	-4
1.22267	-4
1.22633	-4
1.23000	-4
1.23367	-4
1.23733	-3
1.24100	-3
1.24467	-3
1.24833	-2
1.25200	-2
1.25567	-2
1.25933	-2
1.26300	-1
1.26667	-1
1.27033	-1
1.27400	-1
1.27767	-1
1.28133	-1
1.28500	-1
1.28867	-1
1.29233	-1
1.29600	-1
1.29967	-2
1.30333	-2
1.30700	-2
1.31067	-3
1.31433	-3
1.31800	-3
1.32167	-3
1.32533	-3
1.32900	-3
1.33267	-3
1.33633	-3
1.34000	-3
1.34367	-3
1.34733	-3
1.35100	-2
1.35467	-2
1.35833	-2
1.36200	-2
1.36567	-2
1.36933	-2
1.37300	-2
1.37667	-2
1.38033	-2
1.38400	-2
1.38767	-3
1.39133	-3
1.39500	-3
1.39867	-3
1.40233	-3
1.40600	-3
1.40967	-3
1.41333	-3
1.41700	-2
1.42067	-2
1.42433	-2
1.42800	-2
1.43167	-2
1.43533	-2
1.43900	-2
1.44267	-2
1.44633	-3
1.45000	-3
1.45367	-3
1.45733	-3
1.46100	-3
1.46467	-3
1.46833	-3
1.47200	-3
1.47567	-3
1.47933	-3
1.48300	-3
1.48667	-3
1.49033	-3
1.49400	-3
1.49767	-3
1.50133	-2
1.50500	-2
1.50867	-2
1.51233	-2
1.51600	-2
1.51967	-2
1.52333	-3
1.52700	-3
1.53067	-4
1.53433	-4
1.53800	-5
1.54167	-5
1.54533	-5
1.54900	-5
1.55267	-6
1.55633	-6
1.56000	-5
1.56367	-5
1.56733	-5
1.57100	-5
1.57467	-5
1.57833	-5
1.58200	-5
1.58567	-6
1.58933	-6
1.59300	-6
1.59667	-7
1.60033	-8
1.60400	-9
1.60767	-10
1.61133	-12
1.61500	-13
1.61867	-15
1.62233	-17
1.62600	-20
1.62967	-22
1.63333	-25
1.63700	-28
1.64067	-31
1.64433	-35
1.64800	-38
1.65167	-41
1.65533	-45
1.65900	-49
1.66267	-53
1.66633	-57
1.67000	-62
1.67367	-68
1.67733	-73
1.68100	-78
1.68467	-83
1.68833	-88
1.69200	-92
1.69567	-95
1.69933	-98
1.70300	-100
1.70667	-101
1.71033	-102
1.71400	-103
1.71767	-104
1.72133	-104
1.72500	-105
1.72867	-106
1.73233	-107
1.73600	-108
1.73967	-109
1.74333	-109
1.74700	-109
1.75067	-109
1.75433	-108
1.75800	-108
1.76167	-108
1.76533	-109
1.76900	-109
1.77267	-110
1.77633	-111
1.78000	-111
1.78367	-112
1.78733	-112
1.79100	-113
1.79467	-113
1.79833	-114
1.80200	-114
1.80567	-115
1.80933	-115
1.81300	-116
1.81667	-116
1.82033	-115
1.82400	-115
1.82767	-114
1.83133	-113
1.83500	-113
1.83867	-112
1.84233	-112
1.84600	-113
1.84967	-113
1.85333	-114
1.85700	-114
1.86067	-115
1.86433	-115
1.86800	-116
1.87167	-116
1.87533	-117
1.87900	-117
1.88267	-116
1.88633	-116
1.89000	-115
1.89367	-114
1.89733	-114
1.90100	-113
1.90467	-113
1.90833	-113
1.91200	-113
1.91567	-112
1.91933	-112
1.92300	-112
1.92667	-112
1.93033	-112
1.93400	-112
1.93767	-112
1.94133	-112
1.94500	-112
1.94867	-112
1.95233	-112
1.95600	-112
1.95967	-111
1.96333	-111
1.96700	-111
1.97067	-111
1.97433	-111
1.97800	-111
1.98167	-111
1.98533	-110
1.98900	-110
1.99267	-110
1.99633	-110
2.00000	-110
2.00367	-109
2.00733	-109
2.01100	-109
2.01467	-108
2.01833	-108
2.02200	-107
2.02567	-107
2.02933	-106
2.03300	-107
2.03667	-107
2.04033	-107
2.04400	-107
2.04767	-107
2.05133	-107
2.05500	-106
2.05867	-106
2.06233	-106
2.06600	-105
2.06967	-105
2.07333	-104
2.07700	-103
2.08067	-103
2.08433	-102
2.08800	-102
2.09167	-101
2.09533	-101
2.09900	-100
2.10267	-100
2.10633	-99
2.11000	-99
2.11367	-99
2.11733	-99
2.12100	-100
2.12467	-100
2.12833	-99
2.13200	-99
2.13567	-98
2.13933	-98
2.14300	-97
2.14667	-97
2.15033	-96
2.15400	-96
2.15767	-95
2.16133	-95
2.16500	-94
2.16867	-94
2.17233	-94
2.17600	-93
2.17967	-93
2.18333	-93
2.18700	-93
2.19067	-93
2.19433	-92
2.19800	-91
2.20167	-91
2.20533	-90
2.20900	-90
2.21267	-89
2.21633	-90
2.22000	-90
2.22367	-90
2.22733	-90
2.23100	-90
2.23467	-90
2.23833	-89
2.24200	-89
2.24567	-88
2.24933	-88
2.25300	-87
2.25667	-87
2.26033	-87
2.26400	-86
2.26767	-85
2.27133	-85
2.27500	-84
2.27867	-83
2.28233	-82
2.28600	-82
2.28967	-82
2.29333	-82
2.29700	-82
2.30067	-83
2.30433	-83
2.30800	-84
2.31167	-84
2.31533	-84
2.31900	-84
2.32267	-84
2.32633	-84
2.33000	-83
2.33367	-83
2.33733	-82
2.34100	-81
2.34467	-80
2.34833	-79
2.35200	-78
2.35567	-76
2.35933	-75
2.36300	-73
2.36667	-71
2.37033	-69
2.37400	-66
2.37767	-63
2.38133	-60
2.38500	-56
2.38867	-52
2.39233	-48
2.39600	-43
2.39967	-39
2.40333	-34
2.40700	-30
2.41067	-26
2.41433	-22
2.41800	-19
2.42167	-16
2.42533	-14
2.42900	-13
2.43267	-11
2.43633	-10
2.44000	-10
2.44367	-9
2.44733	-9
2.45100	-9
2.45467	-10
2.45833	-9
2.46200	-9
2.46567	-8
2.46933	-7
2.47300	-6
2.47667	-5
2.48033	-4
2.48400	-3
2.48767	-2
2.49133	-1
2.49500	0
2.49867	2
2.50233	3
2.50600	4
2.50967	5
2.51333	6
2.51700	7
2.52067	8
2.52433	8
2.52800	8
2.53167	8
2.53533	9
2.53900	9
2.54267	10
2.54633	10
2.55000	11
2.55367	12
2.55733	12
2.56100	13
2.56467	13
2.56833	13
2.57200	13
2.57567	13
2.57933	13
2.58300	13
2.58667	13
2.59033	13
2.59400	13
2.59767	13
2.60133	13
2.60500	13
2.60867	14
2.61233	14
2.61600	14
2.61967	15
2.62333	15
2.62700	15
2.63067	14
2.63433	14
2.63800	14
2.64167	14
2.64533	15
2.64900	15
2.65267	15
2.65633	16
2.66000	16
2.66367	16
2.66733	17
2.67100	17
2.67467	17
2.67833	18
2.68200	18
2.68567	18
2.68933	18
2.69300	18
2.69667	18
2.70033	18
2.70400	19
2.70767	19
2.71133	18
2.71500	18
2.71867	18
2.72233	18
2.72600	18
2.72967	19
2.73333	19
2.73700	20
2.74067	21
2.74433	22
2.74800	23
2.75167	24
2.75533	24
2.75900	25
2.76267	26
2.76633	26
2.77000	27
2.77367	27
2.77733	26
2.78100	26
2.78467	25
2.78833	24
2.79200	23
2.79567	23
2.79933	22
2.80300	22
2.80667	21
2.81033	21
2.81400	21
2.81767	21
2.82133	21
2.82500	21
2.82867	21
2.83233	22
2.83600	22
2.83967	22
2.84333	21
2.84700	19
2.85067	15
2.85433	9
2.85800	1
2.86167	-11
2.86533	-27
2.86900	-47
2.87267	-71
2.87633	-100
2.88000	-133
2.88367	-171
2.88733	-212
2.89100	-257
2.89467	-305
2.89833	-355
2.90200	-407
2.90567	-461
2.90933	-516
2.91300	-571
2.91667	-626
2.92033	-681
2.92400	-735
2.92767	-787
2.93133	-837
2.93500	-889
2.93867	-944
2.94233	-1002
2.94600	-1054
2.94967	-1089
2.95333	-1100
2.95700	-1085
2.96067	-1047
2.96433	-990
2.96800	-920
2.97167	-843
2.97533	-763
2.97900	-683
2.98267	-606
2.98633	-534
2.99000	-468
2.99367	-407
2.99733	-353
3.00100	-304
3.00467	-262
3.00833	-224
3.01200	-191
3.01567	-162
3.01933	-137
3.02300	-116
3.02667	-98
3.03033	-82
3.03400	-69
3.03767	-57
3.04133	-47
3.04500	-39
3.04867	-31
3.05233	-25
3.05600	-19
3.05967	-14
3.06333	-10
3.06700	-7
3.07067	-4
3.07433	-1
3.07800	1
3.08167	3
3.08533	5
3.08900	6
3.09267	7
3.09633	8
3.10000	9
3.10367	10
3.10733	11
3.11100	11
3.11467	12
3.11833	12
3.12200	12
3.12567	13
3.12933	13
3.13300	13
3.13667	13
3.14033	13
3.14400	13
3.14767	14
3.15133	14
3.15500	14
3.15867	14
3.16233	15
3.16600	15
3.16967	16
3.17333	16
3.17700	17
3.18067	17
3.18433	17
3.18800	18
3.19167	18
3.19533	18
3.19900	18
3.20267	18
3.20633	19
3.21000	19
3.21367	19
3.21733	19
3.22100	19
3.22467	19
3.22833	19
3.23200	19
3.23567	19
3.23933	20
3.24300	20
3.24667	20
3.25033	20
3.25400	20
3.25767	20
3.26133	20
3.26500	21
3.26867	20
3.27233	20
3.27600	20
3.27967	20
3.28333	20
3.28700	20
3.29067	21
3.29433	21
3.29800	21
3.30167	21
3.30533	21
3.30900	21
3.31267	21
3.31633	22
3.32000	22
3.32367	22
3.32733	22
3.33100	22
3.33467	22
3.33833	23
3.34200	23
3.34567	23
3.34933	23
3.35300	24
3.35667	24
3.36033	24
3.36400	25
3.36767	25
3.37133	25
3.37500	25
3.37867	25
3.38233	25
3.38600	25
3.38967	25
3.39333	25
3.39700	25
3.40067	25
3.40433	25
3.40800	25
3.41167	25
3.41533	25
3.41900	25
3.42267	25
3.42633	25
3.43000	25
3.43367	25
3.43733	25
3.44100	25
3.44467	25
3.44833	25
3.45200	25
3.45567	25
3.45933	25
3.46300	25
3.46667	25
3.47033	25
3.47400	25
3.47767	25
3.48133	25
3.48500	25
3.48867	25
3.49233	25
3.49600	25
3.49967	24
3.50333	24
3.50700	24
3.51067	24
3.51433	24
3.51800	24
3.52167	24
3.52533	24
3.52900	24
3.53267	24
3.53633	24
3.54000	24
3.54367	24
3.54733	24
3.55100	24
3.55467	24
3.55833	24
3.56200	24
3.56567	24
3.56933	24
3.57300	24
3.57667	24
3.58033	24
3.58400	24
3.58767	24
3.59133	24
3.59500	24
3.59867	24
3.60233	25
3.60600	25
3.60967	26
3.61333	26
3.61700	26
3.62067	26
3.62433	26
3.62800	26
3.63167	26
3.63533	26
3.63900	26
3.64267	25
3.64633	25
3.65000	25
3.65367	25
3.65733	25
3.66100	25
3.66467	24
3.66833	24
3.67200	24
3.67567	24
3.67933	24
3.68300	24
3.68667	24
3.69033	24
3.69400	24
3.69767	24
3.70133	24
3.70500	23
3.70867	23
3.71233	23
3.71600	23
3.71967	23
3.72333	23
3.72700	23
3.73067	23
3.73433	23
3.73800	24
3.74167	24
3.74533	24
3.74900	24
3.75267	24
3.75633	24
3.76000	24
3.76367	24
3.76733	24
3.77100	24
3.77467	25
3.77833	25
3.78200	25
3.78567	25
3.78933	25
3.79300	25
3.79667	26
3.80033	26
3.80400	26
3.80767	26
3.81133	26
3.81500	26
3.81867	26
3.82233	26
3.82600	26
3.82967	25
3.83333	25
3.83700	25
3.84067	25
3.84433	25
3.84800	25
3.85167	25
3.85533	25
3.85900	25
3.86267	25
3.86633	25
3.87000	25
3.87367	25
3.87733	25
3.88100	25
3.88467	25
3.88833	26
3.89200	26
3.89567	26
3.89933	26
3.90300	26
3.90667	25
3.91033	25
3.91400	25
3.91767	25
3.92133	25
3.92500	25
3.92867	25
3.93233	25
3.93600	25
3.93967	25
3.94333	25
3.94700	25
3.95067	25
3.95433	25
3.95800	25
3.96167	25
3.96533	25
3.96900	25
3.97267	25
3.97633	25
3.98000	26
3.98367	26
3.98733	26
3.99100	26
3.99467	26
3.99833	26

[Chromatogram (Ch3)]
Interval(msec)	220
# of Points	1091
Start Time(min)	0.002
End Time(min)	3.998
R.Time (min)	Intensity
0.00167	-0
0.00533	-0
0.00900	1
0.01267	1
0.01633	1
0.02000	1
0.02367	1
0.02733	2
0.03100	3
0.03467	5
0.03833	4
0.04200	2
0.04567	3
0.04933	4
0.05300	3
0.05667	1
0.06033	1
0.06400	3
0.06767	5
0.07133	6
0.07500	7
0.07867	7
0.08233	6
0.08600	5
0.08967	5
0.09333	4
0.09700	2
0.10067	1
0.10433	2
0.10800	3
0.11167	5
0.11533	5
0.11900	6
0.12267	6
0.12633	4
0.13000	2
0.13367	1
0.13733	1
0.14100	2
0.14467	2
0.14833	2
0.15200	3
0.15567	4
0.15933	3
0.16300	2
0.16667	3
0.17033	4
0.17400	5
0.17767	5
0.18133	4
0.18500	6
0.18867	7
0.19233	7
0.19600	9
0.19967	9
0.20333	9
0.20700	7
0.21067	7
0.21433	8
0.21800	7
0.22167	5
0.22533	4
0.22900	5
0.23267	5
0.23633	6
0.24000	6
0.24367	7
0.24733	7
0.25100	8
0.25467	7
0.25833	6
0.26200	8
0.26567	8
0.26933	10
0.27300	11
0.27667	9
0.28033	6
0.28400	4
0.28767	5
0.29133	7
0.29500	9
0.29867	9
0.30233	7
0.30600	7
0.30967	9
0.31333	10
0.31700	10
0.32067	10
0.32433	10
0.32800	10
0.33167	9
0.33533	8
0.33900	6
0.34267	4
0.34633	3
0.35000	6
0.35367	9
0.35733	9
0.36100	9
0.36467	10
0.36833	10
0.37200	12
0.37567	12
0.37933	12
0.38300	11
0.38667	12
0.39033	12
0.39400	10
0.39767	9
0.40133	10
0.40500	13
0.40867	14
0.41233	11
0.41600	8
0.41967	8
0.42333	6
0.42700	5
0.43067	4
0.43433	4
0.43800	6
0.44167	5
0.44533	4
0.44900	5
0.45267	7
0.45633	10
0.46000	10
0.46367	11
0.46733	10
0.47100	8
0.47467	9
0.47833	9
0.48200	10
0.48567	12
0.48933	11
0.49300	8
0.49667	6
0.50033	5
0.50400	4
0.50767	5
0.51133	6
0.51500	8
0.51867	8
0.52233	7
0.52600	7
0.52967	7
0.53333	5
0.53700	4
0.54067	5
0.54433	5
0.54800	6
0.55167	5
0.55533	6
0.55900	8
0.56267	9
0.56633	9
0.57000	8
0.57367	8
0.57733	8
0.58100	8
0.58467	7
0.58833	6
0.59200	3
0.59567	3
0.59933	6
0.60300	10
0.60667	12
0.61033	12
0.61400	10
0.61767	9
0.62133	12
0.62500	15
0.62867	15
0.63233	14
0.63600	12
0.63967	11
0.64333	11
0.64700	12
0.65067	13
0.65433	13
0.65800	11
0.66167	10
0.66533	10
0.66900	12
0.67267	14
0.67633	18
0.68000	20
0.68367	20
0.68733	20
0.69100	20
0.69467	21
0.69833	20
0.70200	20
0.70567	16
0.70933	15
0.71300	15
0.71667	15
0.72033	14
0.72400	14
0.72767	17
0.73133	20
0.73500	23
0.73867	24
0.74233	25
0.74600	25
0.74967	25
0.75333	23
0.75700	20
0.76067	19
0.76433	21
0.76800	23
0.77167	24
0.77533	21
0.77900	19
0.78267	18
0.78633	19
0.79000	20
0.79367	21
0.79733	21
0.80100	20
0.80467	21
0.80833	22
0.81200	22
0.81567	23
0.81933	23
0.82300	23
0.82667	24
0.83033	23
0.83400	22
0.83767	23
0.84133	24
0.84500	24
0.84867	25
0.85233	25
0.85600	25
0.85967	26
0.86333	28
0.86700	28
0.87067	25
0.87433	19
0.87800	17
0.88167	17
0.88533	18
0.88900	18
0.89267	18
0.89633	20
0.90000	22
0.90367	21
0.90733	18
0.91100	16
0.91467	17
0.91833	20
0.92200	21
0.92567	21
0.92933	20
0.93300	18
0.93667	17
0.94033	17
0.94400	18
0.94767	19
0.95133	19
0.95500	20
0.95867	21
0.96233	20
0.96600	20
0.96967	19
0.97333	22
0.97700	22
0.98067	21
0.98433	22
0.98800	21
0.99167	22
0.99533	21
0.99900	20
1.00267	20
1.00633	22
1.01000	25
1.01367	25
1.01733	25
1.02100	22
1.02467	20
1.02833	17
1.03200	15
1.03567	15
1.03933	14
1.04300	15
1.04667	15
1.05033	18
1.05400	19
1.05767	18
1.06133	19
1.06500	20
1.06867	22
1.07233	22
1.07600	19
1.07967	17
1.08333	16
1.08700	17
1.09067	17
1.09433	19
1.09800	22
1.10167	24
1.10533	25
1.10900	25
1.11267	23
1.11633	21
1.12000	21
1.12367	20
1.12733	18
1.13100	17
1.13467	19
1.13833	19
1.14200	18
1.14567	17
1.14933	19
1.15300	21
1.15667	24
1.16033	24
1.16400	23
1.16767	23
1.17133	24
1.17500	24
1.17867	22
1.18233	19
1.18600	17
1.18967	16
1.19333	17
1.19700	19
1.20067	18
1.20433	16
1.20800	16
1.21167	17
1.21533	18
1.21900	19
1.22267	18
1.22633	15
1.23000	15
1.23367	15
1.23733	16
1.24100	17
1.24467	16
1.24833	16
1.25200	18
1.25567	21
1.25933	24
1.26300	25
1.26667	25
1.27033	25
1.27400	23
1.27767	24
1.28133	24
1.28500	23
1.28867	23
1.29233	20
1.29600	18
1.29967	18
1.30333	19
1.30700	19
1.31067	20
1.31433	21
1.31800	21
1.32167	20
1.32533	19
1.32900	19
1.33267	20
1.33633	21
1.34000	20
1.34367	19
1.34733	19
1.35100	18
1.35467	18
1.35833	18
1.36200	18
1.36567	19
1.36933	22
1.37300	23
1.37667	24
1.38033	21
1.38400	19
1.38767	19
1.39133	20
1.39500	21
1.39867	23
1.40233	24
1.40600	24
1.40967	23
1.41333	22
1.41700	22
1.42067	23
1.42433	22
1.42800	23
1.43167	24
1.43533	25
1.43900	27
1.44267	27
1.44633	27
1.45000	27
1.45367	26
1.45733	26
1.46100	28
1.46467	30
1.46833	30
1.47200	31
1.47567	31
1.47933	28
1.48300	27
1.48667	28
1.49033	29
1.49400	29
1.49767	29
1.50133	29
1.50500	29
1.50867	27
1.51233	26
1.51600	24
1.51967	23
1.52333	22
1.52700	22
1.53067	21
1.53433	21
1.53800	22
1.54167	24
1.54533	24
1.54900	25
1.55267	27
1.55633	27
1.56000	27
1.56367	26
1.56733	26
1.57100	28
1.57467	30
1.57833	30
1.58200	30
1.58567	29
1.58933	27
1.59300	26
1.59667	24
1.60033	24
1.60400	25
1.60767	27
1.61133	28
1.61500	30
1.61867	31
1.62233	31
1.62600	33
1.62967	32
1.63333	31
1.63700	29
1.64067	30
1.64433	30
1.64800	31
1.65167	32
1.65533	33
1.65900	34
1.66267	35
1.66633	37
1.67000	37
1.67367	35
1.67733	35
1.68100	38
1.68467	41
1.68833	41
1.69200	39
1.69567	38
1.69933	39
1.70300	40
1.70667	43
1.71033	46
1.71400	47
1.71767	46
1.72133	45
1.72500	44
1.72867	42
1.73233	42
1.73600	43
1.73967	43
1.74333	43
1.74700	45
1.75067	47
1.75433	47
1.75800	47
1.76167	47
1.76533	47
1.76900	47
1.77267	48
1.77633	50
1.78000	51
1.78367	52
1.78733	53
1.79100	55
1.79467	58
1.79833	58
1.80200	56
1.80567	55
1.80933	54
1.81300	52
1.81667	50
1.82033	51
1.82400	53
1.82767	56
1.83133	58
1.83500	60
1.83867	62
1.84233	61
1.84600	63
1.84967	65
1.85333	67
1.85700	67
1.86067	66
1.86433	66
1.86800	66
1.87167	67
1.87533	68
1.87900	69
1.88267	70
1.88633	70
1.89000	73
1.89367	73
1.89733	74
1.90100	74
1.90467	71
1.90833	70
1.91200	70
1.91567	73
1.91933	78
1.92300	82
1.92667	84
1.93033	86
1.93400	88
1.93767	88
1.94133	89
1.94500	89
1.94867	91
1.95233	93
1.95600	92
1.95967	92
1.96333	94
1.96700	98
1.97067	100
1.97433	101
1.97800	103
1.98167	105
1.98533	108
1.98900	111
1.99267	112
1.99633	112
2.00000	113
2.00367	115
2.00733	116
2.01100	118
2.01467	118
2.01833	117
2.02200	117
2.02567	117
2.02933	117
2.03300	118
2.03667	121
2.04033	124
2.04400	129
2.04767	131
2.05133	131
2.05500	131
2.05867	132
2.06233	134
2.06600	138
2.06967	143
2.07333	147
2.07700	147
2.08067	145
2.08433	145
2.08800	146
2.09167	147
2.09533	147
2.09900	149
2.10267	152
2.10633	155
2.11000	157
2.11367	157
2.11733	157
2.12100	158
2.12467	162
2.12833	166
2.13200	167
2.13567	168
2.13933	169
2.14300	171
2.14667	172
2.15033	173
2.15400	173
2.15767	175
2.16133	174
2.16500	173
2.16867	172
2.17233	173
2.17600	174
2.17967	176
2.18333	179
2.18700	179
2.19067	178
2.19433	182
2.19800	184
2.20167	185
2.20533	187
2.20900	188
2.21267	190
2.21633	194
2.22000	197
2.22367	201
2.22733	202
2.23100	201
2.23467	200
2.23833	201
2.24200	201
2.24567	203
2.24933	204
2.25300	204
2.25667	204
2.26033	205
2.26400	206
2.26767	206
2.27133	207
2.27500	208
2.27867	210
2.28233	209
2.28600	208
2.28967	211
2.29333	213
2.29700	214
2.30067	215
2.30433	215
2.30800	214
2.31167	214
2.31533	215
2.31900	216
2.32267	217
2.32633	219
2.33000	222
2.33367	224
2.33733	224
2.34100	225
2.34467	227
2.34833	227
2.35200	228
2.35567	228
2.35933	228
2.36300	230
2.36667	232
2.37033	235
2.37400	236
2.37767	235
2.38133	235
2.38500	234
2.38867	231
2.39233	229
2.39600	229
2.39967	232
2.40333	234
2.40700	236
2.41067	236
2.41433	237
2.41800	237
2.42167	241
2.42533	246
2.42900	246
2.43267	245
2.43633	244
2.44000	248
2.44367	306
2.44733	457
2.45100	619
2.45467	752
2.45833	826
2.46200	829
2.46567	789
2.46933	737
2.47300	695
2.47667	667
2.48033	645
2.48400	614
2.48767	570
2.49133	519
2.49500	469
2.49867	428
2.50233	400
2.50600	382
2.50967	374
2.51333	379
2.51700	394
2.52067	415
2.52433	435
2.52800	448
2.53167	449
2.53533	437
2.53900	418
2.54267	390
2.54633	358
2.55000	325
2.55367	296
2.55733	271
2.56100	251
2.56467	236
2.56833	226
2.57200	220
2.57567	217
2.57933	215
2.58300	213
2.58667	212
2.59033	213
2.59400	215
2.59767	214
2.60133	208
2.60500	202
2.60867	195
2.61233	187
2.61600	177
2.61967	164
2.62333	154
2.62700	146
2.63067	138
2.63433	131
2.63800	125
2.64167	120
2.64533	115
2.64900	109
2.65267	99
2.65633	87
2.66000	77
2.66367	68
2.66733	59
2.67100	51
2.67467	45
2.67833	41
2.68200	36
2.68567	31
2.68933	27
2.69300	25
2.69667	25
2.70033	26
2.70400	27
2.70767	29
2.71133	30
2.71500	33
2.71867	35
2.72233	39
2.72600	43
2.72967	46
2.73333	49
2.73700	49
2.74067	51
2.74433	52
2.74800	55
2.75167	60
2.75533	65
2.75900	70
2.76267	74
2.76633	76
2.77000	79
2.77367	83
2.77733	85
2.78100	90
2.78467	95
2.78833	96
2.79200	99
2.79567	101
2.79933	105
2.80300	110
2.80667	114
2.81033	119
2.81400	125
2.81767	131
2.82133	140
2.82500	161
2.82867	197
2.83233	265
2.83600	384
2.83967	575
2.84333	858
2.84700	1242
2.85067	1726
2.85433	2283
2.85800	2876
2.86167	3460
2.86533	3983
2.86900	4407
2.87267	4703
2.87633	4857
2.88000	4872
2.88367	4765
2.88733	4558
2.89100	4281
2.89467	3961
2.89833	3621
2.90200	3278
2.90567	2944
2.90933	2629
2.91300	2338
2.91667	2070
2.92033	1829
2.92400	1615
2.92767	1425
2.93133	1256
2.93500	1109
2.93867	982
2.94233	871
2.94600	772
2.94967	685
2.95333	611
2.95700	546
2.96067	490
2.96433	442
2.96800	404
2.97167	361
2.97533	301
2.97900	249
2.98267	222
2.98633	213
2.99000	217
2.99367	229
2.99733	247
3.00100	277
3.00467	316
3.00833	357
3.01200	399
3.01567	442
3.01933	482
3.02300	519
3.02667	549
3.03033	574
3.03400	596
3.03767	614
3.04133	627
3.04500	638
3.04867	649
3.05233	657
3.05600	664
3.05967	670
3.06333	675
3.06700	679
3.07067	683
3.07433	687
3.07800	691
3.08167	693
3.08533	695
3.08900	695
3.09267	694
3.09633	694
3.10000	695
3.10367	697
3.10733	701
3.11100	703
3.11467	706
3.11833	709
3.12200	710
3.12567	710
3.12933	711
3.13300	715
3.13667	717
3.14033	720
3.14400	723
3.14767	728
3.15133	735
3.15500	739
3.15867	743
3.16233	746
3.16600	747
3.16967	748
3.17333	750
3.17700	757
3.18067	762
3.18433	768
3.18800	775
3.19167	782
3.19533	789
3.19900	797
3.20267	803
3.20633	808
3.21000	812
3.21367	819
3.21733	825
3.22100	830
3.22467	836
3.22833	841
3.23200	844
3.23567	847
3.23933	851
3.24300	853
3.24667	855
3.25033	858
3.25400	860
3.25767	862
3.26133	862
3.26500	861
3.26867	859
3.27233	858
3.27600	858
3.27967	856
3.28333	853
3.28700	851
3.29067	850
3.29433	849
3.29800	849
3.30167	849
3.30533	847
3.30900	845
3.31267	840
3.31633	835
3.32000	830
3.32367	827
3.32733	823
3.33100	821
3.33467	818
3.33833	815
3.34200	811
3.34567	809
3.34933	806
3.35300	801
3.35667	796
3.36033	791
3.36400	787
3.36767	782
3.37133	777
3.37500	776
3.37867	775
3.38233	773
3.38600	772
3.38967	771
3.39333	769
3.39700	766
3.40067	763
3.40433	760
3.40800	756
3.41167	755
3.41533	755
3.41900	753
3.42267	752
3.42633	754
3.43000	754
3.43367	752
3.43733	751
3.44100	749
3.44467	749
3.44833	750
3.45200	749
3.45567	747
3.45933	746
3.46300	745
3.46667	742
3.47033	742
3.47400	741
3.47767	740
3.48133	738
3.48500	736
3.48867	733
3.49233	731
3.49600	729
3.49967	728
3.50333	728
3.50700	728
3.51067	727
3.51433	724
3.51800	722
3.52167	722
3.52533	721
3.52900	719
3.53267	718
3.53633	718
3.54000	718
3.54367	716
3.54733	713
3.55100	711
3.55467	709
3.55833	708
3.56200	708
3.56567	706
3.56933	704
3.57300	702
3.57667	702
3.58033	701
3.58400	701
3.58767	703
3.59133	702
3.59500	700
3.59867	699
3.60233	696
3.60600	692
3.60967	688
3.61333	683
3.61700	679
3.62067	679
3.62433	682
3.62800	681
3.63167	679
3.63533	677
3.63900	675
3.64267	673
3.64633	670
3.65000	669
3.65367	668
3.65733	666
3.66100	665
3.66467	663
3.66833	660
3.67200	657
3.67567	655
3.67933	655
3.68300	653
3.68667	648
3.69033	646
3.69400	649
3.69767	649
3.70133	647
3.70500	644
3.70867	641
3.71233	639
3.71600	637
3.71967	638
3.72333	636
3.72700	634
3.73067	632
3.73433	630
3.73800	626
3.74167	623
3.74533	622
3.74900	621
3.75267	618
3.75633	613
3.76000	612
3.76367	609
3.76733	607
3.77100	605
3.77467	601
3.77833	597
3.78200	595
3.78567	593
3.78933	591
3.79300	589
3.79667	590
3.80033	591
3.80400	591
3.80767	591
3.81133	592
3.81500	592
3.81867	590
3.82233	585
3.82600	582
3.82967	580
3.83333	578
3.83700	575
3.84067	572
3.84433	572
3.84800	574
3.85167	572
3.85533	571
3.85900	568
3.86267	566
3.86633	565
3.87000	566
3.87367	566
3.87733	563
3.88100	562
3.88467	560
3.88833	558
3.89200	558
3.89567	558
3.89933	556
3.90300	555
3.90667	557
3.91033	556
3.91400	551
3.91767	547
3.92133	545
3.92500	544
3.92867	542
3.93233	541
3.93600	540
3.93967	539
3.94333	536
3.94700	534
3.95067	534
3.95433	535
3.95800	535
3.96167	535
3.96533	533
3.96900	531
3.97267	528
3.97633	526
3.98000	526
3.98367	527
3.98733	526
3.99100	526
3.99467	526
3.99833	524

[Status Trace (Column Oven Temperature)]
Interval(msec)	1000
# of Points	240
Start Time(min)	0.013
End Time(min)	3.996
Intensity Units	
Intensity Multiplier	1
R.Time (min)	Intensity
0.01280	35.02
0.02947	35.02
0.04613	35.02
0.06280	35.02
0.07947	35.02
0.09613	35.02
0.11280	35.02
0.12947	35.04
0.14613	35.03
0.16280	35.02
0.17947	35.01
0.19613	35.00
0.21280	35.00
0.22947	35.00
0.24613	35.00
0.26280	35.00
0.27947	35.00
0.29613	35.00
0.31280	35.00
0.32947	35.01
0.34613	35.00
0.36280	35.01
0.37947	35.03
0.39613	35.02
0.41280	35.03
0.42947	35.03
0.44613	35.02
0.46280	35.02
0.47947	35.02
0.49613	35.02
0.51280	35.02
0.52947	35.02
0.54613	35.02
0.56280	35.02
0.57947	35.03
0.59613	35.03
0.61280	35.03
0.62947	35.02
0.64613	35.01
0.66280	35.01
0.67947	35.01
0.69613	35.02
0.71280	35.00
0.72947	35.01
0.74613	35.01
0.76280	35.00
0.77947	34.99
0.79613	34.99
0.81280	34.98
0.82947	34.97
0.84613	34.97
0.86280	34.97
0.87947	34.97
0.89613	34.98
0.91280	34.98
0.92947	34.99
0.94613	35.00
0.96280	35.01
0.97947	35.01
0.99613	35.01
1.01280	35.02
1.02947	35.02
1.04613	35.01
1.06280	35.00
1.07947	35.01
1.09613	35.02
1.11280	35.02
1.12947	35.01
1.14613	35.00
1.16280	35.00
1.17947	35.00
1.19613	35.01
1.21280	35.02
1.22947	35.02
1.24613	35.02
1.26280	35.01
1.27947	35.00
1.29613	34.98
1.31280	34.99
1.32947	34.99
1.34613	34.99
1.36280	34.99
1.37947	34.99
1.39613	34.99
1.41280	34.99
1.42947	34.99
1.44613	34.99
1.46280	34.99
1.47947	34.98
1.49613	34.98
1.51280	34.98
1.52947	34.98
1.54613	34.99
1.56280	35.00
1.57947	35.01
1.59613	35.04
1.61280	35.11
1.62947	35.23
1.64613	35.43
1.66280	35.71
1.67947	36.07
1.69613	36.43
1.71280	36.77
1.72947	37.12
1.74613	37.43
1.76280	37.77
1.77947	38.10
1.79613	38.44
1.81280	38.78
1.82947	39.08
1.84613	39.42
1.86280	39.76
1.87947	40.09
1.89613	40.42
1.91280	40.75
1.92947	41.07
1.94613	41.41
1.96280	41.73
1.97947	42.06
1.99613	42.39
2.01280	42.70
2.02947	43.03
2.04613	43.36
2.06280	43.70
2.07947	44.03
2.09613	44.36
2.11280	44.69
2.12947	45.02
2.14613	45.34
2.16280	45.65
2.17947	45.99
2.19613	46.31
2.21280	46.64
2.22947	46.96
2.24613	47.29
2.26280	47.61
2.27947	47.93
2.29613	48.26
2.31280	48.60
2.32947	48.95
2.34613	49.24
2.36280	49.49
2.37947	49.62
2.39613	49.66
2.41280	49.64
2.42947	49.65
2.44613	49.68
2.46280	49.70
2.47947	49.70
2.49613	49.71
2.51280	49.72
2.52947	49.75
2.54613	49.76
2.56280	49.77
2.57947	49.79
2.59613	49.80
2.61280	49.80
2.62947	49.82
2.64613	49.83
2.66280	49.83
2.67947	49.84
2.69613	49.86
2.71280	49.89
2.72947	49.88
2.74613	49.86
2.76280	49.83
2.77947	49.86
2.79613	49.89
2.81280	49.90
2.82947	49.91
2.84613	49.92
2.86280	49.91
2.87947	49.91
2.89613	49.92
2.91280	49.92
2.92947	49.91
2.94613	49.92
2.96280	49.94
2.97947	49.96
2.99613	49.98
3.01280	49.99
3.02947	50.01
3.04613	50.02
3.06280	50.01
3.07947	50.01
3.09613	50.02
3.11280	50.02
3.12947	50.05
3.14613	50.05
3.16280	50.06
3.17947	50.05
3.19613	50.06
3.21280	50.06
3.22947	50.07
3.24613	50.08
3.26280	50.08
3.27947	50.09
3.29613	50.10
3.31280	50.11
3.32947	50.10
3.34613	50.09
3.36280	50.08
3.37947	50.08
3.39613	50.07
3.41280	50.06
3.42947	50.06
3.44613	50.06
3.46280	50.05
3.47947	50.04
3.49613	50.04
3.51280	50.05
3.52947	50.05
3.54613	50.06
3.56280	50.07
3.57947	50.07
3.59613	50.06
3.61280	50.06
3.62947	50.05
3.64613	50.06
3.66280	50.07
3.67947	50.07
3.69613	50.08
3.71280	50.09
3.72947	50.09
3.74613	50.09
3.76280	50.08
3.77947	50.07
3.79613	50.07
3.81280	50.06
3.82947	50.07
3.84613	50.06
3.86280	50.05
3.87947	50.04
3.89613	50.04
3.91280	50.04
3.92947	50.04
3.94613	50.03
3.96280	50.03
3.97947	50.02
3.99613	50.02

[Status Trace (Injection Unit Temperature)]
Interval(msec)	1000
# of Points	240
Start Time(min)	0.013
End Time(min)	3.996
Intensity Units	
Intensity Multiplier	1
R.Time (min)	Intensity
0.01280	99.98
0.02947	99.98
0.04613	99.98
0.06280	99.98
0.07947	99.98
0.09613	99.98
0.11280	99.98
0.12947	99.98
0.14613	99.98
0.16280	99.98
0.17947	99.98
0.19613	99.98
0.21280	99.98
0.22947	99.98
0.24613	99.98
0.26280	99.98
0.27947	99.98
0.29613	99.98
0.31280	99.97
0.32947	99.98
0.34613	99.98
0.36280	99.98
0.37947	99.97
0.39613	99.98
0.41280	99.98
0.42947	99.98
0.44613	99.98
0.46280	99.98
0.47947	99.98
0.49613	99.98
0.51280	99.98
0.52947	99.98
0.54613	99.98
0.56280	99.98
0.57947	99.98
0.59613	99.99
0.61280	99.98
0.62947	99.99
0.64613	99.99
0.66280	99.98
0.67947	99.99
0.69613	99.99
0.71280	99.99
0.72947	99.99
0.74613	99.99
0.76280	99.99
0.77947	99.99
0.79613	99.99
0.81280	99.99
0.82947	99.99
0.84613	99.98
0.86280	99.99
0.87947	99.99
0.89613	99.99
0.91280	99.99
0.92947	99.98
0.94613	99.98
0.96280	99.99
0.97947	99.99
0.99613	99.99
1.01280	99.98
1.02947	99.99
1.04613	99.99
1.06280	99.98
1.07947	99.99
1.09613	99.98
1.11280	99.99
1.12947	99.99
1.14613	99.99
1.16280	99.98
1.17947	99.99
1.19613	99.99
1.21280	99.98
1.22947	99.98
1.24613	99.98
1.26280	99.98
1.27947	99.98
1.29613	99.98
1.31280	99.98
1.32947	99.98
1.34613	99.98
1.36280	99.98
1.37947	99.98
1.39613	99.99
1.41280	99.98
1.42947	99.98
1.44613	99.98
1.46280	99.98
1.47947	99.98
1.49613	99.98
1.51280	99.98
1.52947	99.98
1.54613	99.98
1.56280	99.98
1.57947	99.98
1.59613	99.98
1.61280	99.98
1.62947	99.98
1.64613	99.98
1.66280	99.98
1.67947	99.98
1.69613	99.98
1.71280	99.98
1.72947	99.98
1.74613	99.98
1.76280	99.98
1.77947	99.99
1.79613	99.99
1.81280	99.99
1.82947	99.99
1.84613	99.98
1.86280	99.98
1.87947	99.98
1.89613	99.98
1.91280	99.98
1.92947	99.98
1.94613	99.98
1.96280	99.98
1.97947	99.98
1.99613	99.98
2.01280	99.98
2.02947	99.97
2.04613	99.98
2.06280	99.98
2.07947	99.98
2.09613	99.97
2.11280	99.98
2.12947	99.97
2.14613	99.97
2.16280	99.97
2.17947	99.97
2.19613	99.97
2.21280	99.97
2.22947	99.96
2.24613	99.97
2.26280	99.97
2.27947	99.97
2.29613	99.97
2.31280	99.97
2.32947	99.97
2.34613	99.97
2.36280	99.97
2.37947	99.97
2.39613	99.96
2.41280	99.97
2.42947	99.97
2.44613	99.97
2.46280	99.97
2.47947	99.96
2.49613	99.96
2.51280	99.97
2.52947	99.97
2.54613	99.97
2.56280	99.97
2.57947	99.97
2.59613	99.97
2.61280	99.97
2.62947	99.98
2.64613	99.97
2.66280	99.98
2.67947	99.98
2.69613	99.98
2.71280	99.98
2.72947	99.99
2.74613	99.99
2.76280	99.99
2.77947	99.99
2.79613	99.99
2.81280	100.00
2.82947	99.99
2.84613	100.00
2.86280	100.00
2.87947	100.00
2.89613	100.00
2.91280	100.00
2.92947	100.01
2.94613	100.01
2.96280	100.01
2.97947	100.01
2.99613	100.01
3.01280	100.01
3.02947	100.01
3.04613	100.01
3.06280	100.02
3.07947	100.02
3.09613	100.02
3.11280	100.02
3.12947	100.02
3.14613	100.02
3.16280	100.03
3.17947	100.02
3.19613	100.03
3.21280	100.02
3.22947	100.03
3.24613	100.03
3.26280	100.03
3.27947	100.03
3.29613	100.03
3.31280	100.03
3.32947	100.03
3.34613	100.03
3.36280	100.03
3.37947	100.04
3.39613	100.03
3.41280	100.04
3.42947	100.03
3.44613	100.04
3.46280	100.03
3.47947	100.04
3.49613	100.04
3.51280	100.04
3.52947	100.04
3.54613	100.04
3.56280	100.04
3.57947	100.03
3.59613	100.04
3.61280	100.04
3.62947	100.04
3.64613	100.04
3.66280	100.04
3.67947	100.04
3.69613	100.04
3.71280	100.04
3.72947	100.04
3.74613	100.04
3.76280	100.04
3.77947	100.04
3.79613	100.04
3.81280	100.04
3.82947	100.04
3.84613	100.04
3.86280	100.04
3.87947	100.04
3.89613	100.04
3.91280	100.04
3.92947	100.04
3.94613	100.04
3.96280	100.04
3.97947	100.04
3.99613	100.04

[Status Trace (Carrier Gas Pressure)]
Interval(msec)	1000
# of Points	240
Start Time(min)	0.013
End Time(min)	3.996
Intensity Units	
Intensity Multiplier	1
R.Time (min)	Intensity
0.01280	57.96
0.02947	55.18
0.04613	57.74
0.06280	59.76
0.07947	58.77
0.09613	57.99
0.11280	57.99
0.12947	58.01
0.14613	58.01
0.16280	58.00
0.17947	58.00
0.19613	58.00
0.21280	58.00
0.22947	58.00
0.24613	58.00
0.26280	58.00
0.27947	58.00
0.29613	58.00
0.31280	58.00
0.32947	58.00
0.34613	58.00
0.36280	58.00
0.37947	58.00
0.39613	58.00
0.41280	58.00
0.42947	58.00
0.44613	58.00
0.46280	58.00
0.47947	58.00
0.49613	58.00
0.51280	58.00
0.52947	58.00
0.54613	58.00
0.56280	58.00
0.57947	58.00
0.59613	58.00
0.61280	58.00
0.62947	58.00
0.64613	58.00
0.66280	58.00
0.67947	58.00
0.69613	58.00
0.71280	58.00
0.72947	58.00
0.74613	58.00
0.76280	58.00
0.77947	58.00
0.79613	58.00
0.81280	58.00
0.82947	58.00
0.84613	58.00
0.86280	58.00
0.87947	58.00
0.89613	58.00
0.91280	58.00
0.92947	58.00
0.94613	58.00
0.96280	58.00
0.97947	58.00
0.99613	58.00
1.01280	58.00
1.02947	58.00
1.04613	58.00
1.06280	58.00
1.07947	58.00
1.09613	58.00
1.11280	58.00
1.12947	58.00
1.14613	58.00
1.16280	58.00
1.17947	58.00
1.19613	58.00
1.21280	58.00
1.22947	58.00
1.24613	58.00
1.26280	58.00
1.27947	58.00
1.29613	58.00
1.31280	58.00
1.32947	58.00
1.34613	58.00
1.36280	58.00
1.37947	58.00
1.39613	58.00
1.41280	58.00
1.42947	58.00
1.44613	58.00
1.46280	58.00
1.47947	58.00
1.49613	58.00
1.51280	58.00
1.52947	58.00
1.54613	58.00
1.56280	58.00
1.57947	58.00
1.59613	58.00
1.61280	58.00
1.62947	58.00
1.64613	58.00
1.66280	58.01
1.67947	58.01
1.69613	58.00
1.71280	58.00
1.72947	58.00
1.74613	58.00
1.76280	58.00
1.77947	58.00
1.79613	58.00
1.81280	58.00
1.82947	58.00
1.84613	58.00
1.86280	58.00
1.87947	58.00
1.89613	58.00
1.91280	58.00
1.92947	58.00
1.94613	58.00
1.96280	58.00
1.97947	58.00
1.99613	58.00
2.01280	58.00
2.02947	58.00
2.04613	58.00
2.06280	58.00
2.07947	58.00
2.09613	58.00
2.11280	58.00
2.12947	58.00
2.14613	58.00
2.16280	58.00
2.17947	58.00
2.19613	58.00
2.21280	58.00
2.22947	58.00
2.24613	58.00
2.26280	58.00
2.27947	58.00
2.29613	58.00
2.31280	58.00
2.32947	58.00
2.34613	58.00
2.36280	58.00
2.37947	57.99
2.39613	57.99
2.41280	58.00
2.42947	58.00
2.44613	58.00
2.46280	58.00
2.47947	58.00
2.49613	58.00
2.51280	57.99
2.52947	57.99
2.54613	58.00
2.56280	58.00
2.57947	58.00
2.59613	58.00
2.61280	58.00
2.62947	58.00
2.64613	58.00
2.66280	58.00
2.67947	58.00
2.69613	58.00
2.71280	58.00
2.72947	58.00
2.74613	58.00
2.76280	58.00
2.77947	58.00
2.79613	58.00
2.81280	58.00
2.82947	58.00
2.84613	58.00
2.86280	58.00
2.87947	58.00
2.89613	58.00
2.91280	58.00
2.92947	58.00
2.94613	58.00
2.96280	58.00
2.97947	58.00
2.99613	58.00
3.01280	58.00
3.02947	58.00
3.04613	58.00
3.06280	58.00
3.07947	58.00
3.09613	58.00
3.11280	58.00
3.12947	58.00
3.14613	58.00
3.16280	58.00
3.17947	58.00
3.19613	58.00
3.21280	58.00
3.22947	58.00
3.24613	58.00
3.26280	58.00
3.27947	58.00
3.29613	58.00
3.31280	58.00
3.32947	58.00
3.34613	58.00
3.36280	58.00
3.37947	58.00
3.39613	58.00
3.41280	58.00
3.42947	58.00
3.44613	58.00
3.46280	58.00
3.47947	58.00
3.49613	58.00
3.51280	58.00
3.52947	58.00
3.54613	58.00
3.56280	58.00
3.57947	58.00
3.59613	58.00
3.61280	58.00
3.62947	58.00
3.64613	58.00
3.66280	58.00
3.67947	58.00
3.69613	58.00
3.71280	58.00
3.72947	58.00
3.74613	58.00
3.76280	58.00
3.77947	58.00
3.79613	58.00
3.81280	58.00
3.82947	58.00
3.84613	58.00
3.86280	58.00
3.87947	58.00
3.89613	58.00
3.91280	58.00
3.92947	58.00
3.94613	58.00
3.96280	58.00
3.97947	58.00
3.99613	58.00

[Status Trace (Carrier Gas Flow)]
Interval(msec)	1000
# of Points	240
Start Time(min)	0.013
End Time(min)	3.996
Intensity Units	
Intensity Multiplier	1
R.Time (min)	Intensity
0.01280	34.64
0.02947	34.54
0.04613	34.54
0.06280	34.52
0.07947	34.51
0.09613	34.52
0.11280	34.52
0.12947	34.53
0.14613	34.52
0.16280	34.51
0.17947	34.52
0.19613	34.52
0.21280	34.52
0.22947	34.52
0.24613	34.52
0.26280	34.52
0.27947	34.52
0.29613	34.51
0.31280	34.51
0.32947	34.52
0.34613	34.51
0.36280	34.52
0.37947	34.52
0.39613	34.51
0.41280	34.52
0.42947	34.52
0.44613	34.52
0.46280	34.51
0.47947	34.52
0.49613	34.52
0.51280	34.52
0.52947	34.52
0.54613	34.52
0.56280	34.52
0.57947	34.52
0.59613	34.52
0.61280	34.52
0.62947	34.52
0.64613	34.52
0.66280	34.51
0.67947	34.51
0.69613	34.52
0.71280	34.52
0.72947	34.51
0.74613	34.52
0.76280	34.52
0.77947	34.52
0.79613	34.52
0.81280	34.52
0.82947	34.52
0.84613	34.52
0.86280	34.52
0.87947	34.52
0.89613	34.52
0.91280	34.52
0.92947	34.51
0.94613	34.52
0.96280	34.52
0.97947	34.52
0.99613	34.52
1.01280	34.51
1.02947	34.52
1.04613	34.52
1.06280	34.52
1.07947	34.52
1.09613	34.52
1.11280	34.52
1.12947	34.51
1.14613	34.52
1.16280	34.52
1.17947	34.52
1.19613	34.51
1.21280	34.52
1.22947	34.52
1.24613	34.51
1.26280	34.52
1.27947	34.51
1.29613	34.52
1.31280	34.52
1.32947	34.52
1.34613	34.52
1.36280	34.52
1.37947	34.52
1.39613	34.52
1.41280	34.52
1.42947	34.52
1.44613	34.52
1.46280	34.52
1.47947	34.52
1.49613	34.52
1.51280	34.51
1.52947	34.52
1.54613	34.51
1.56280	34.52
1.57947	34.53
1.59613	34.51
1.61280	34.52
1.62947	34.52
1.64613	34.51
1.66280	34.52
1.67947	34.51
1.69613	34.51
1.71280	34.52
1.72947	34.51
1.74613	34.51
1.76280	34.52
1.77947	34.52
1.79613	34.52
1.81280	34.52
1.82947	34.52
1.84613	34.52
1.86280	34.51
1.87947	34.52
1.89613	34.52
1.91280	34.52
1.92947	34.52
1.94613	34.52
1.96280	34.52
1.97947	34.52
1.99613	34.52
2.01280	34.51
2.02947	34.52
2.04613	34.52
2.06280	34.52
2.07947	34.52
2.09613	34.52
2.11280	34.52
2.12947	34.52
2.14613	34.51
2.16280	34.52
2.17947	34.52
2.19613	34.52
2.21280	34.52
2.22947	34.52
2.24613	34.52
2.26280	34.52
2.27947	34.53
2.29613	34.52
2.31280	34.52
2.32947	34.52
2.34613	34.51
2.36280	34.52
2.37947	34.52
2.39613	34.51
2.41280	34.51
2.42947	34.52
2.44613	34.52
2.46280	34.52
2.47947	34.52
2.49613	34.52
2.51280	34.52
2.52947	34.52
2.54613	34.51
2.56280	34.52
2.57947	34.52
2.59613	34.52
2.61280	34.52
2.62947	34.52
2.64613	34.51
2.66280	34.52
2.67947	34.52
2.69613	34.52
2.71280	34.52
2.72947	34.52
2.74613	34.52
2.76280	34.52
2.77947	34.52
2.79613	34.52
2.81280	34.52
2.82947	34.53
2.84613	34.52
2.86280	34.52
2.87947	34.52
2.89613	34.52
2.91280	34.52
2.92947	34.52
2.94613	34.52
2.96280	34.51
2.97947	34.52
2.99613	34.52
3.01280	34.52
3.02947	34.51
3.04613	34.51
3.06280	34.51
3.07947	34.52
3.09613	34.52
3.11280	34.52
3.12947	34.52
3.14613	34.52
3.16280	34.52
3.17947	34.51
3.19613	34.52
3.21280	34.52
3.22947	34.52
3.24613	34.52
3.26280	34.51
3.27947	34.52
3.29613	34.52
3.31280	34.52
3.32947	34.51
3.34613	34.52
3.36280	34.52
3.37947	34.52
3.39613	34.52
3.41280	34.52
3.42947	34.52
3.44613	34.51
3.46280	34.51
3.47947	34.52
3.49613	34.52
3.51280	34.52
3.52947	34.52
3.54613	34.52
3.56280	34.52
3.57947	34.52
3.59613	34.51
3.61280	34.52
3.62947	34.52
3.64613	34.52
3.66280	34.52
3.67947	34.52
3.69613	34.53
3.71280	34.52
3.72947	34.51
3.74613	34.52
3.76280	34.52
3.77947	34.52
3.79613	34.52
3.81280	34.52
3.82947	34.52
3.84613	34.52
3.86280	34.52
3.87947	34.52
3.89613	34.52
3.91280	34.51
3.92947	34.52
3.94613	34.52
3.96280	34.52
3.97947	34.52
3.99613	34.52

[Status Trace (Column Flow)]
Interval(msec)	1000
# of Points	240
Start Time(min)	0.013
End Time(min)	3.996
Intensity Units	
Intensity Multiplier	1
R.Time (min)	Intensity
0.01280	5.53
0.02947	5.21
0.04613	5.51
0.06280	5.74
0.07947	5.63
0.09613	5.54
0.11280	5.54
0.12947	5.54
0.14613	5.54
0.16280	5.54
0.17947	5.54
0.19613	5.54
0.21280	5.54
0.22947	5.54
0.24613	5.54
0.26280	5.54
0.27947	5.54
0.29613	5.54
0.31280	5.54
0.32947	5.54
0.34613	5.54
0.36280	5.54
0.37947	5.54
0.39613	5.54
0.41280	5.54
0.42947	5.54
0.44613	5.54
0.46280	5.54
0.47947	5.54
0.49613	5.54
0.51280	5.54
0.52947	5.54
0.54613	5.54
0.56280	5.54
0.57947	5.54
0.59613	5.54
0.61280	5.54
0.62947	5.54
0.64613	5.54
0.66280	5.54
0.67947	5.54
0.69613	5.54
0.71280	5.54
0.72947	5.54
0.74613	5.54
0.76280	5.54
0.77947	5.54
0.79613	5.54
0.81280	5.54
0.82947	5.54
0.84613	5.54
0.86280	5.54
0.87947	5.54
0.89613	5.54
0.91280	5.54
0.92947	5.54
0.94613	5.54
0.96280	5.54
0.97947	5.54
0.99613	5.54
1.01280	5.54
1.02947	5.54
1.04613	5.54
1.06280	5.54
1.07947	5.54
1.09613	5.54
1.11280	5.54
1.12947	5.54
1.14613	5.54
1.16280	5.54
1.17947	5.54
1.19613	5.54
1.21280	5.54
1.22947	5.54
1.24613	5.54
1.26280	5.54
1.27947	5.54
1.29613	5.54
1.31280	5.54
1.32947	5.54
1.34613	5.54
1.36280	5.54
1.37947	5.54
1.39613	5.54
1.41280	5.54
1.42947	5.54
1.44613	5.54
1.46280	5.54
1.47947	5.54
1.49613	5.54
1.51280	5.54
1.52947	5.54
1.54613	5.54
1.56280	5.54
1.57947	5.54
1.59613	5.54
1.61280	5.53
1.62947	5.53
1.64613	5.52
1.66280	5.52
1.67947	5.50
1.69613	5.49
1.71280	5.48
1.72947	5.47
1.74613	5.46
1.76280	5.45
1.77947	5.44
1.79613	5.43
1.81280	5.42
1.82947	5.41
1.84613	5.40
1.86280	5.39
1.87947	5.38
1.89613	5.37
1.91280	5.36
1.92947	5.35
1.94613	5.34
1.96280	5.33
1.97947	5.32
1.99613	5.31
2.01280	5.30
2.02947	5.29
2.04613	5.28
2.06280	5.27
2.07947	5.26
2.09613	5.25
2.11280	5.24
2.12947	5.23
2.14613	5.22
2.16280	5.22
2.17947	5.21
2.19613	5.20
2.21280	5.19
2.22947	5.18
2.24613	5.17
2.26280	5.16
2.27947	5.15
2.29613	5.14
2.31280	5.13
2.32947	5.12
2.34613	5.11
2.36280	5.11
2.37947	5.10
2.39613	5.10
2.41280	5.10
2.42947	5.10
2.44613	5.10
2.46280	5.10
2.47947	5.10
2.49613	5.10
2.51280	5.10
2.52947	5.10
2.54613	5.10
2.56280	5.10
2.57947	5.10
2.59613	5.10
2.61280	5.10
2.62947	5.10
2.64613	5.10
2.66280	5.10
2.67947	5.10
2.69613	5.10
2.71280	5.10
2.72947	5.10
2.74613	5.10
2.76280	5.10
2.77947	5.10
2.79613	5.10
2.81280	5.10
2.82947	5.10
2.84613	5.10
2.86280	5.10
2.87947	5.10
2.89613	5.10
2.91280	5.10
2.92947	5.10
2.94613	5.10
2.96280	5.09
2.97947	5.09
2.99613	5.09
3.01280	5.09
3.02947	5.09
3.04613	5.09
3.06280	5.09
3.07947	5.09
3.09613	5.09
3.11280	5.09
3.12947	5.09
3.14613	5.09
3.16280	5.09
3.17947	5.09
3.19613	5.09
3.21280	5.09
3.22947	5.09
3.24613	5.09
3.26280	5.09
3.27947	5.09
3.29613	5.09
3.31280	5.09
3.32947	5.09
3.34613	5.09
3.36280	5.09
3.37947	5.09
3.39613	5.09
3.41280	5.09
3.42947	5.09
3.44613	5.09
3.46280	5.09
3.47947	5.09
3.49613	5.09
3.51280	5.09
3.52947	5.09
3.54613	5.09
3.56280	5.09
3.57947	5.09
3.59613	5.09
3.61280	5.09
3.62947	5.09
3.64613	5.09
3.66280	5.09
3.67947	5.09
3.69613	5.09
3.71280	5.09
3.72947	5.09
3.74613	5.09
3.76280	5.09
3.77947	5.09
3.79613	5.09
3.81280	5.09
3.82947	5.09
3.84613	5.09
3.86280	5.09
3.87947	5.09
3.89613	5.09
3.91280	5.09
3.92947	5.09
3.94613	5.09
3.96280	5.09
3.97947	5.09
3.99613	5.09

[Status Trace (Linear Velocity)]
Interval(msec)	1000
# of Points	240
Start Time(min)	0.013
End Time(min)	3.996
Intensity Units	
Intensity Multiplier	1
R.Time (min)	Intensity
0.01280	38.99
0.02947	37.17
0.04613	38.85
0.06280	40.17
0.07947	39.52
0.09613	39.01
0.11280	39.01
0.12947	39.02
0.14613	39.02
0.16280	39.02
0.17947	39.02
0.19613	39.02
0.21280	39.02
0.22947	39.02
0.24613	39.02
0.26280	39.02
0.27947	39.02
0.29613	39.02
0.31280	39.02
0.32947	39.02
0.34613	39.02
0.36280	39.02
0.37947	39.02
0.39613	39.02
0.41280	39.02
0.42947	39.02
0.44613	39.02
0.46280	39.02
0.47947	39.02
0.49613	39.02
0.51280	39.02
0.52947	39.02
0.54613	39.02
0.56280	39.02
0.57947	39.02
0.59613	39.02
0.61280	39.02
0.62947	39.02
0.64613	39.02
0.66280	39.02
0.67947	39.02
0.69613	39.02
0.71280	39.02
0.72947	39.02
0.74613	39.02
0.76280	39.02
0.77947	39.02
0.79613	39.02
0.81280	39.02
0.82947	39.02
0.84613	39.02
0.86280	39.02
0.87947	39.02
0.89613	39.02
0.91280	39.02
0.92947	39.02
0.94613	39.02
0.96280	39.02
0.97947	39.02
0.99613	39.02
1.01280	39.02
1.02947	39.02
1.04613	39.02
1.06280	39.02
1.07947	39.02
1.09613	39.02
1.11280	39.02
1.12947	39.02
1.14613	39.02
1.16280	39.02
1.17947	39.02
1.19613	39.02
1.21280	39.02
1.22947	39.02
1.24613	39.02
1.26280	39.02
1.27947	39.02
1.29613	39.02
1.31280	39.02
1.32947	39.02
1.34613	39.02
1.36280	39.02
1.37947	39.02
1.39613	39.02
1.41280	39.02
1.42947	39.02
1.44613	39.02
1.46280	39.02
1.47947	39.02
1.49613	39.02
1.51280	39.02
1.52947	39.02
1.54613	39.02
1.56280	39.02
1.57947	39.02
1.59613	39.02
1.61280	39.01
1.62947	39.00
1.64613	38.98
1.66280	38.96
1.67947	38.92
1.69613	38.88
1.71280	38.85
1.72947	38.82
1.74613	38.79
1.76280	38.76
1.77947	38.73
1.79613	38.69
1.81280	38.66
1.82947	38.63
1.84613	38.60
1.86280	38.57
1.87947	38.54
1.89613	38.51
1.91280	38.48
1.92947	38.45
1.94613	38.41
1.96280	38.38
1.97947	38.35
1.99613	38.32
2.01280	38.29
2.02947	38.26
2.04613	38.23
2.06280	38.20
2.07947	38.17
2.09613	38.14
2.11280	38.11
2.12947	38.08
2.14613	38.05
2.16280	38.03
2.17947	37.99
2.19613	37.97
2.21280	37.94
2.22947	37.91
2.24613	37.88
2.26280	37.85
2.27947	37.82
2.29613	37.79
2.31280	37.76
2.32947	37.73
2.34613	37.70
2.36280	37.68
2.37947	37.67
2.39613	37.66
2.41280	37.67
2.42947	37.67
2.44613	37.66
2.46280	37.66
2.47947	37.66
2.49613	37.66
2.51280	37.65
2.52947	37.65
2.54613	37.66
2.56280	37.66
2.57947	37.65
2.59613	37.65
2.61280	37.65
2.62947	37.65
2.64613	37.65
2.66280	37.65
2.67947	37.65
2.69613	37.65
2.71280	37.65
2.72947	37.65
2.74613	37.65
2.76280	37.65
2.77947	37.65
2.79613	37.65
2.81280	37.64
2.82947	37.64
2.84613	37.64
2.86280	37.64
2.87947	37.64
2.89613	37.64
2.91280	37.64
2.92947	37.64
2.94613	37.64
2.96280	37.64
2.97947	37.64
2.99613	37.64
3.01280	37.64
3.02947	37.64
3.04613	37.63
3.06280	37.63
3.07947	37.64
3.09613	37.63
3.11280	37.63
3.12947	37.63
3.14613	37.63
3.16280	37.63
3.17947	37.63
3.19613	37.63
3.21280	37.63
3.22947	37.63
3.24613	37.63
3.26280	37.63
3.27947	37.63
3.29613	37.63
3.31280	37.63
3.32947	37.63
3.34613	37.63
3.36280	37.63
3.37947	37.63
3.39613	37.63
3.41280	37.63
3.42947	37.63
3.44613	37.63
3.46280	37.63
3.47947	37.63
3.49613	37.63
3.51280	37.63
3.52947	37.63
3.54613	37.63
3.56280	37.63
3.57947	37.63
3.59613	37.63
3.61280	37.63
3.62947	37.63
3.64613	37.63
3.66280	37.63
3.67947	37.63
3.69613	37.63
3.71280	37.63
3.72947	37.63
3.74613	37.63
3.76280	37.63
3.77947	37.63
3.79613	37.63
3.81280	37.63
3.82947	37.63
3.84613	37.63
3.86280	37.63
3.87947	37.63
3.89613	37.63
3.91280	37.63
3.92947	37.63
3.94613	37.63
3.96280	37.63
3.97947	37.63
3.99613	37.63

