[Header]
Application Name	LabSolutions
Version	5.110
Data File Name	C:\Users\User\Desktop\GC Analyses\Jack\Nachusa Grasslands Sampling\T3 Timepoint July 12th\T3_07122022_034.gcd
Output Date	3/14/2023
Output Time	3:43:32 PM

[File Information]
Type	Data File
Generated	3/13/2023 6:13:01 PM
Generated by	System Administrator
Modified	3/13/2023 6:19:44 PM
Modified by	System Administrator

[Sample Information]
Operator Name	System Administrator
Acquired	3/13/2023 6:15:44 PM
Sample Type	0:Unknown
Level	0
Sample Name	034
Sample ID	034
ISTD Amount1	1
ISTD Amount2	1
ISTD Amount3	1
ISTD Amount4	1
ISTD Amount5	1
ISTD Amount6	1
ISTD Amount7	1
ISTD Amount8	1
ISTD Amount9	1
ISTD Amount10	1
ISTD Amount11	1
ISTD Amount12	1
ISTD Amount13	1
ISTD Amount14	1
ISTD Amount15	1
ISTD Amount16	1
ISTD Amount17	1
ISTD Amount18	1
ISTD Amount19	1
ISTD Amount20	1
ISTD Amount21	1
ISTD Amount22	1
ISTD Amount23	1
ISTD Amount24	1
ISTD Amount25	1
ISTD Amount26	1
ISTD Amount27	1
ISTD Amount28	1
ISTD Amount29	1
ISTD Amount30	1
ISTD Amount31	1
ISTD Amount32	1
Sample Amount	1
Dilution Factor	1
Vial#	33
Injection Volume	1
Injection Count	1
Bar Code	

[Original Files]
Data File	C:\Users\User\Desktop\GC Analyses\Jack\Nachusa Grasslands Sampling\T3 Timepoint July 12th\T3_07122022_034.gcd
Method File	C:\LabSolutions\Data\GHG_4min_2022\ghg3_togas_w_acet_4 min_new_int.gcm
Batch File	C:\LabSolutions\Data\AutoSamplerTesting\T3_07122022.gcb
Report Format File	c:\LabSolutions\System\DEFAULT.lsr

[File Description]


[Configuration]
Instrument Name	C0B7VH3-Instrument1
Instrument #	1
Line #	1
# of Detectors	3
Detector ID	DET#1	DET#2	DET#3
Detector Name	FID	PTCD	ECD
# of Channels	1	1	1

[Peak Table(Ch1)]
# of Peaks	3
Peak#	R.Time	I.Time	F.Time	Area	Height	A/H	Conc.	Mark	ID#	Name	k'	Plate #	Plate Ht.	Tailing	Resolution	Sep.Factor	Area Ratio	Height Ratio	Conc. %	Norm Conc.
1	1.476	1.435	1.538	41293	20370	2.027	291.531	   	1	CO	0.000	9673	15.507	1.279	0.000	0.000	0	0	34.018	34.018
2	1.571	1.542	1.604	3224	1762	1.830	62.342	   	2	CH4	0.065	13303	11.276	1.056	1.665	0.000	0	0	7.275	7.275
3	2.000	1.952	2.312	2004664	968036	2.071	503.116	   	3	CO2	0.355	17611	8.517	1.186	7.476	5.500	0	0	58.707	58.707

[Peak Table(Ch2)]
# of Peaks	0

[Peak Table(Ch3)]
# of Peaks	6
Peak#	R.Time	I.Time	F.Time	Area	Height	A/H	Conc.	Mark	ID#	Name	k'	Plate #	Plate Ht.	Tailing	Resolution	Sep.Factor	Area Ratio	Height Ratio	Conc. %	Norm Conc.
1	0.687	0.566	0.816	108	13	8.166	0.000	   			0.000	272	552.445	1.033	0.000	0.000	0	0	0.000	0.000
2	2.462	2.337	2.510	1616	538	3.002	0.000	   			2.582	11724	12.794	0.000	13.768	0.000	0	0	0.000	0.000
3	2.528	2.510	2.583	810	275	2.942	0.000	 V 			2.678	6957	21.561	0.000	0.622	1.037	0	0	0.000	0.000
4	2.605	2.583	2.678	377	117	3.231	0.000	 V 			2.790	3161	47.453	0.000	0.502	1.042	0	0	0.000	0.000
5	2.880	2.715	3.082	18204	4743	3.838	0.465	   	1	N2O	3.190	13218	11.348	1.525	1.926	1.143	0	0	100.000	100.000
6	3.342	3.210	3.995	16298	629	25.900	0.000	   	2	SF6	3.862	244	614.589	2.919	0.967	1.211	0	0	0.000	0.000

[Compound Results(Ch1)]
# of IDs	6
ID#	Name	R.Time	Area	Height	Conc.	Curve	3rd	2nd	1st	Constant	Area Ratio	Height Ratio	Conc. %	Norm Conc.
1	CO	1.476	41293	20370	291.531	Linear	0.000000e+00	0.000000e+00	1.416423e+002	0.000000e+00	0	0	34.018	34.018
2	CH4	1.571	3224	1762	62.342	Linear	0.000000e+00	0.000000e+00	5.171738e+001	0.000000e+00	0	0	7.275	7.275
3	CO2	2.000	2004664	968036	503.116	Linear	0.000000e+00	0.000000e+00	3.984494e+003	0.000000e+00	0	0	58.707	58.707
4	Ethylene	0.000	0	0	0.000	Linear	0.000000e+00	0.000000e+00	0.000000e+00	0.000000e+00	0	0	0.000	0.000
5	Acetylene	0.000	0	0	0.000	Linear	0.000000e+00	0.000000e+00	0.000000e+00	0.000000e+00	0	0	0.000	0.000
6	Ethane	0.000	0	0	0.000	Linear	0.000000e+00	0.000000e+00	0.000000e+00	0.000000e+00	0	0	0.000	0.000

[Compound Results(Ch2)]
# of IDs	5
ID#	Name	R.Time	Area	Height	Conc.	Curve	3rd	2nd	1st	Constant	Area Ratio	Height Ratio	Conc. %	Norm Conc.
1	Hydrogen	0.000	0	0	0.000	Linear	0.000000e+00	0.000000e+00	0.000000e+00	0.000000e+00	0	0	0.000	0.000
2	Oxygen	0.000	0	0	0.000	Linear	0.000000e+00	0.000000e+00	0.000000e+00	0.000000e+00	0	0	0.000	0.000
3	Nitrogen	0.000	0	0	0.000	Linear	0.000000e+00	0.000000e+00	0.000000e+00	0.000000e+00	0	0	0.000	0.000
4	Methane	0.000	0	0	0.000	Linear	0.000000e+00	0.000000e+00	0.000000e+00	0.000000e+00	0	0	0.000	0.000
5	Carbon Monoxide	0.000	0	0	0.000	Linear	0.000000e+00	0.000000e+00	0.000000e+00	0.000000e+00	0	0	0.000	0.000

[Compound Results(Ch3)]
# of IDs	2
ID#	Name	R.Time	Area	Height	Conc.	Curve	3rd	2nd	1st	Constant	Area Ratio	Height Ratio	Conc. %	Norm Conc.
1	N2O	2.880	18204	4743	0.465	Linear	0.000000e+00	0.000000e+00	3.915173e+004	0.000000e+00	0	0	100.000	100.000
2	SF6	3.342	16298	629	0.000	Linear	0.000000e+00	0.000000e+00	0.000000e+00	0.000000e+00	0	0	0.000	0.000

[Group Results(Ch1)]
# of Groups	0

[Group Results(Ch2)]
# of Groups	0

[Group Results(Ch3)]
# of Groups	0

[Chromatogram (Ch1)]
Interval(msec)	220
# of Points	1091
Start Time(min)	0.002
End Time(min)	3.998
R.Time (min)	Intensity
0.00167	-9
0.00533	-8
0.00900	-6
0.01267	-1
0.01633	6
0.02000	11
0.02367	12
0.02733	18
0.03100	22
0.03467	25
0.03833	25
0.04200	22
0.04567	20
0.04933	17
0.05300	14
0.05667	17
0.06033	25
0.06400	31
0.06767	31
0.07133	25
0.07500	18
0.07867	15
0.08233	18
0.08600	17
0.08967	9
0.09333	-2
0.09700	-12
0.10067	-17
0.10433	-17
0.10800	-15
0.11167	-16
0.11533	-15
0.11900	-10
0.12267	-1
0.12633	11
0.13000	20
0.13367	31
0.13733	40
0.14100	41
0.14467	41
0.14833	42
0.15200	42
0.15567	39
0.15933	36
0.16300	34
0.16667	37
0.17033	45
0.17400	57
0.17767	69
0.18133	75
0.18500	77
0.18867	77
0.19233	78
0.19600	80
0.19967	85
0.20333	91
0.20700	96
0.21067	97
0.21433	97
0.21800	96
0.22167	97
0.22533	103
0.22900	107
0.23267	108
0.23633	107
0.24000	104
0.24367	101
0.24733	102
0.25100	105
0.25467	104
0.25833	98
0.26200	93
0.26567	90
0.26933	89
0.27300	92
0.27667	95
0.28033	95
0.28400	89
0.28767	85
0.29133	84
0.29500	80
0.29867	78
0.30233	75
0.30600	67
0.30967	60
0.31333	53
0.31700	42
0.32067	28
0.32433	18
0.32800	10
0.33167	2
0.33533	-6
0.33900	-8
0.34267	-3
0.34633	2
0.35000	7
0.35367	13
0.35733	20
0.36100	25
0.36467	25
0.36833	21
0.37200	17
0.37567	9
0.37933	4
0.38300	3
0.38667	4
0.39033	4
0.39400	2
0.39767	-2
0.40133	-2
0.40500	2
0.40867	4
0.41233	8
0.41600	9
0.41967	6
0.42333	2
0.42700	2
0.43067	4
0.43433	8
0.43800	10
0.44167	9
0.44533	8
0.44900	8
0.45267	11
0.45633	14
0.46000	16
0.46367	17
0.46733	16
0.47100	9
0.47467	-3
0.47833	-9
0.48200	-7
0.48567	-3
0.48933	-3
0.49300	-3
0.49667	-4
0.50033	-8
0.50400	-13
0.50767	-16
0.51133	-14
0.51500	-9
0.51867	-4
0.52233	1
0.52600	3
0.52967	0
0.53333	-8
0.53700	-16
0.54067	-21
0.54433	-24
0.54800	-24
0.55167	-21
0.55533	-19
0.55900	-15
0.56267	-11
0.56633	-6
0.57000	-7
0.57367	-8
0.57733	-2
0.58100	5
0.58467	10
0.58833	5
0.59200	-5
0.59567	-12
0.59933	-16
0.60300	-19
0.60667	-21
0.61033	-24
0.61400	-29
0.61767	-32
0.62133	-30
0.62500	-27
0.62867	-24
0.63233	-17
0.63600	-5
0.63967	5
0.64333	7
0.64700	1
0.65067	-8
0.65433	-15
0.65800	-22
0.66167	-25
0.66533	-22
0.66900	-19
0.67267	-21
0.67633	-26
0.68000	-29
0.68367	-29
0.68733	-24
0.69100	-18
0.69467	-16
0.69833	-20
0.70200	-28
0.70567	-37
0.70933	-46
0.71300	-51
0.71667	-54
0.72033	-55
0.72400	-56
0.72767	-50
0.73133	-40
0.73500	-29
0.73867	-25
0.74233	-27
0.74600	-26
0.74967	-25
0.75333	-22
0.75700	-20
0.76067	-20
0.76433	-23
0.76800	-26
0.77167	-28
0.77533	-27
0.77900	-25
0.78267	-23
0.78633	-23
0.79000	-26
0.79367	-30
0.79733	-35
0.80100	-40
0.80467	-44
0.80833	-50
0.81200	-48
0.81567	-38
0.81933	-28
0.82300	-25
0.82667	-28
0.83033	-30
0.83400	-25
0.83767	-15
0.84133	-6
0.84500	-0
0.84867	1
0.85233	-2
0.85600	-6
0.85967	-11
0.86333	-20
0.86700	-26
0.87067	-32
0.87433	-39
0.87800	-38
0.88167	-34
0.88533	-32
0.88900	-34
0.89267	-44
0.89633	-51
0.90000	-50
0.90367	-51
0.90733	-51
0.91100	-52
0.91467	-52
0.91833	-52
0.92200	-52
0.92567	-53
0.92933	-51
0.93300	-46
0.93667	-42
0.94033	-44
0.94400	-47
0.94767	-48
0.95133	-48
0.95500	-49
0.95867	-50
0.96233	-52
0.96600	-55
0.96967	-59
0.97333	-63
0.97700	-64
0.98067	-66
0.98433	-66
0.98800	-62
0.99167	-57
0.99533	-50
0.99900	-45
1.00267	-40
1.00633	-33
1.01000	-22
1.01367	-12
1.01733	-6
1.02100	-4
1.02467	-6
1.02833	-10
1.03200	-15
1.03567	-18
1.03933	-24
1.04300	-31
1.04667	-32
1.05033	-31
1.05400	-30
1.05767	-26
1.06133	-20
1.06500	-18
1.06867	-26
1.07233	-35
1.07600	-38
1.07967	-34
1.08333	-28
1.08700	-19
1.09067	-14
1.09433	-12
1.09800	-10
1.10167	-6
1.10533	-8
1.10900	-16
1.11267	-22
1.11633	-23
1.12000	-18
1.12367	-15
1.12733	-20
1.13100	-32
1.13467	-41
1.13833	-42
1.14200	-38
1.14567	-32
1.14933	-27
1.15300	-25
1.15667	-23
1.16033	-24
1.16400	-30
1.16767	-33
1.17133	-32
1.17500	-33
1.17867	-37
1.18233	-40
1.18600	-42
1.18967	-41
1.19333	-40
1.19700	-38
1.20067	-37
1.20433	-33
1.20800	-31
1.21167	-34
1.21533	-37
1.21900	-41
1.22267	-47
1.22633	-50
1.23000	-50
1.23367	-47
1.23733	-40
1.24100	-34
1.24467	-32
1.24833	-31
1.25200	-34
1.25567	-34
1.25933	-34
1.26300	-34
1.26667	-38
1.27033	-43
1.27400	-47
1.27767	-51
1.28133	-56
1.28500	-60
1.28867	-62
1.29233	-61
1.29600	-56
1.29967	-53
1.30333	-50
1.30700	-47
1.31067	-45
1.31433	-42
1.31800	-37
1.32167	-36
1.32533	-36
1.32900	-35
1.33267	-35
1.33633	-36
1.34000	-42
1.34367	-50
1.34733	-54
1.35100	-52
1.35467	-49
1.35833	-48
1.36200	-47
1.36567	-48
1.36933	-47
1.37300	-43
1.37667	-41
1.38033	-46
1.38400	-53
1.38767	-59
1.39133	-62
1.39500	-57
1.39867	-49
1.40233	-43
1.40600	-43
1.40967	-48
1.41333	-55
1.41700	-64
1.42067	-69
1.42433	-73
1.42800	-75
1.43167	-76
1.43533	-71
1.43900	-55
1.44267	-4
1.44633	189
1.45000	834
1.45367	2507
1.45733	5581
1.46100	9555
1.46467	13505
1.46833	16788
1.47200	19103
1.47567	20253
1.47933	20059
1.48300	18491
1.48667	15846
1.49033	12679
1.49400	9562
1.49767	6872
1.50133	4754
1.50500	3184
1.50867	2069
1.51233	1290
1.51600	757
1.51967	405
1.52333	177
1.52700	25
1.53067	-77
1.53433	-147
1.53800	-188
1.54167	-179
1.54533	-74
1.54900	160
1.55267	493
1.55633	854
1.56000	1177
1.56367	1432
1.56733	1594
1.57100	1633
1.57467	1535
1.57833	1311
1.58200	1017
1.58567	715
1.58933	451
1.59300	247
1.59667	100
1.60033	-2
1.60400	-73
1.60767	-119
1.61133	-148
1.61500	-167
1.61867	-173
1.62233	-169
1.62600	-165
1.62967	-168
1.63333	-171
1.63700	-169
1.64067	-165
1.64433	-163
1.64800	-164
1.65167	-168
1.65533	-173
1.65900	-178
1.66267	-180
1.66633	-175
1.67000	-163
1.67367	-152
1.67733	-141
1.68100	-132
1.68467	-129
1.68833	-129
1.69200	-129
1.69567	-136
1.69933	-159
1.70300	-188
1.70667	-210
1.71033	-220
1.71400	-220
1.71767	-217
1.72133	-213
1.72500	-204
1.72867	-189
1.73233	-177
1.73600	-168
1.73967	-164
1.74333	-158
1.74700	-152
1.75067	-147
1.75433	-145
1.75800	-149
1.76167	-148
1.76533	-151
1.76900	-157
1.77267	-156
1.77633	-156
1.78000	-161
1.78367	-165
1.78733	-164
1.79100	-163
1.79467	-160
1.79833	-159
1.80200	-154
1.80567	-145
1.80933	-145
1.81300	-150
1.81667	-149
1.82033	-143
1.82400	-136
1.82767	-133
1.83133	-128
1.83500	-130
1.83867	-137
1.84233	-147
1.84600	-153
1.84967	-157
1.85333	-160
1.85700	-163
1.86067	-168
1.86433	-171
1.86800	-167
1.87167	-157
1.87533	-146
1.87900	-139
1.88267	-139
1.88633	-141
1.89000	-142
1.89367	-149
1.89733	-155
1.90100	-162
1.90467	-166
1.90833	-164
1.91200	-159
1.91567	-158
1.91933	-154
1.92300	-145
1.92667	-130
1.93033	-119
1.93400	-120
1.93767	-124
1.94133	-133
1.94500	-141
1.94867	-141
1.95233	-131
1.95600	-59
1.95967	402
1.96333	2769
1.96700	12019
1.97067	39601
1.97433	102991
1.97800	216721
1.98167	378068
1.98533	563469
1.98900	739979
1.99267	878360
1.99633	957753
2.00000	967940
2.00367	911246
2.00733	801988
2.01100	662953
2.01467	518417
2.01833	387099
2.02200	278917
2.02567	195964
2.02933	135548
2.03300	93098
2.03667	63983
2.04033	44299
2.04400	31085
2.04767	22225
2.05133	16259
2.05500	12195
2.05867	9380
2.06233	7396
2.06600	5970
2.06967	4924
2.07333	4140
2.07700	3539
2.08067	3072
2.08433	2706
2.08800	2412
2.09167	2174
2.09533	1972
2.09900	1790
2.10267	1626
2.10633	1477
2.11000	1345
2.11367	1226
2.11733	1121
2.12100	1028
2.12467	951
2.12833	892
2.13200	843
2.13567	796
2.13933	750
2.14300	710
2.14667	680
2.15033	654
2.15400	626
2.15767	597
2.16133	572
2.16500	549
2.16867	525
2.17233	502
2.17600	479
2.17967	458
2.18333	441
2.18700	429
2.19067	416
2.19433	402
2.19800	387
2.20167	367
2.20533	349
2.20900	332
2.21267	314
2.21633	301
2.22000	296
2.22367	296
2.22733	288
2.23100	273
2.23467	263
2.23833	258
2.24200	254
2.24567	244
2.24933	231
2.25300	220
2.25667	211
2.26033	207
2.26400	205
2.26767	206
2.27133	208
2.27500	208
2.27867	202
2.28233	193
2.28600	180
2.28967	168
2.29333	162
2.29700	160
2.30067	157
2.30433	148
2.30800	138
2.31167	135
2.31533	132
2.31900	133
2.32267	134
2.32633	130
2.33000	121
2.33367	113
2.33733	114
2.34100	120
2.34467	125
2.34833	127
2.35200	128
2.35567	123
2.35933	119
2.36300	115
2.36667	109
2.37033	103
2.37400	98
2.37767	98
2.38133	96
2.38500	90
2.38867	79
2.39233	75
2.39600	77
2.39967	78
2.40333	84
2.40700	95
2.41067	104
2.41433	109
2.41800	107
2.42167	99
2.42533	90
2.42900	84
2.43267	80
2.43633	77
2.44000	75
2.44367	75
2.44733	71
2.45100	67
2.45467	68
2.45833	72
2.46200	79
2.46567	87
2.46933	92
2.47300	93
2.47667	94
2.48033	92
2.48400	87
2.48767	76
2.49133	64
2.49500	55
2.49867	48
2.50233	45
2.50600	42
2.50967	39
2.51333	38
2.51700	41
2.52067	50
2.52433	59
2.52800	63
2.53167	64
2.53533	68
2.53900	68
2.54267	70
2.54633	70
2.55000	67
2.55367	61
2.55733	58
2.56100	54
2.56467	52
2.56833	52
2.57200	53
2.57567	56
2.57933	60
2.58300	64
2.58667	63
2.59033	62
2.59400	66
2.59767	70
2.60133	70
2.60500	67
2.60867	63
2.61233	52
2.61600	42
2.61967	37
2.62333	38
2.62700	41
2.63067	45
2.63433	48
2.63800	51
2.64167	56
2.64533	61
2.64900	67
2.65267	71
2.65633	73
2.66000	73
2.66367	74
2.66733	76
2.67100	75
2.67467	70
2.67833	63
2.68200	54
2.68567	46
2.68933	38
2.69300	26
2.69667	18
2.70033	15
2.70400	19
2.70767	29
2.71133	35
2.71500	42
2.71867	52
2.72233	67
2.72600	79
2.72967	83
2.73333	79
2.73700	75
2.74067	76
2.74433	77
2.74800	79
2.75167	79
2.75533	72
2.75900	67
2.76267	65
2.76633	68
2.77000	75
2.77367	81
2.77733	83
2.78100	84
2.78467	86
2.78833	84
2.79200	78
2.79567	73
2.79933	69
2.80300	65
2.80667	60
2.81033	57
2.81400	56
2.81767	59
2.82133	62
2.82500	63
2.82867	63
2.83233	65
2.83600	68
2.83967	70
2.84333	72
2.84700	75
2.85067	78
2.85433	83
2.85800	90
2.86167	98
2.86533	104
2.86900	105
2.87267	104
2.87633	106
2.88000	106
2.88367	105
2.88733	104
2.89100	101
2.89467	100
2.89833	99
2.90200	95
2.90567	93
2.90933	95
2.91300	96
2.91667	94
2.92033	89
2.92400	86
2.92767	82
2.93133	80
2.93500	80
2.93867	79
2.94233	80
2.94600	85
2.94967	90
2.95333	95
2.95700	102
2.96067	104
2.96433	99
2.96800	94
2.97167	89
2.97533	84
2.97900	77
2.98267	72
2.98633	71
2.99000	77
2.99367	84
2.99733	91
3.00100	100
3.00467	106
3.00833	102
3.01200	95
3.01567	87
3.01933	80
3.02300	75
3.02667	74
3.03033	75
3.03400	82
3.03767	89
3.04133	90
3.04500	89
3.04867	88
3.05233	89
3.05600	94
3.05967	101
3.06333	103
3.06700	97
3.07067	85
3.07433	77
3.07800	80
3.08167	84
3.08533	89
3.08900	93
3.09267	92
3.09633	89
3.10000	88
3.10367	96
3.10733	106
3.11100	115
3.11467	122
3.11833	126
3.12200	123
3.12567	114
3.12933	105
3.13300	94
3.13667	86
3.14033	83
3.14400	84
3.14767	82
3.15133	77
3.15500	76
3.15867	77
3.16233	76
3.16600	77
3.16967	82
3.17333	84
3.17700	81
3.18067	74
3.18433	72
3.18800	74
3.19167	76
3.19533	76
3.19900	79
3.20267	86
3.20633	96
3.21000	103
3.21367	104
3.21733	104
3.22100	109
3.22467	109
3.22833	103
3.23200	95
3.23567	88
3.23933	81
3.24300	73
3.24667	67
3.25033	68
3.25400	69
3.25767	65
3.26133	58
3.26500	54
3.26867	54
3.27233	61
3.27600	69
3.27967	77
3.28333	84
3.28700	91
3.29067	99
3.29433	107
3.29800	114
3.30167	113
3.30533	105
3.30900	94
3.31267	84
3.31633	75
3.32000	72
3.32367	75
3.32733	76
3.33100	76
3.33467	73
3.33833	67
3.34200	67
3.34567	69
3.34933	71
3.35300	72
3.35667	73
3.36033	77
3.36400	81
3.36767	87
3.37133	90
3.37500	88
3.37867	87
3.38233	86
3.38600	80
3.38967	72
3.39333	67
3.39700	65
3.40067	63
3.40433	62
3.40800	63
3.41167	63
3.41533	65
3.41900	68
3.42267	71
3.42633	74
3.43000	77
3.43367	83
3.43733	86
3.44100	85
3.44467	81
3.44833	78
3.45200	70
3.45567	58
3.45933	51
3.46300	50
3.46667	53
3.47033	57
3.47400	56
3.47767	51
3.48133	46
3.48500	48
3.48867	56
3.49233	60
3.49600	61
3.49967	66
3.50333	72
3.50700	74
3.51067	70
3.51433	69
3.51800	69
3.52167	72
3.52533	77
3.52900	78
3.53267	74
3.53633	62
3.54000	48
3.54367	38
3.54733	31
3.55100	30
3.55467	34
3.55833	41
3.56200	47
3.56567	51
3.56933	52
3.57300	51
3.57667	49
3.58033	46
3.58400	43
3.58767	43
3.59133	49
3.59500	57
3.59867	58
3.60233	56
3.60600	57
3.60967	60
3.61333	60
3.61700	56
3.62067	48
3.62433	40
3.62800	34
3.63167	30
3.63533	29
3.63900	30
3.64267	30
3.64633	28
3.65000	30
3.65367	35
3.65733	45
3.66100	57
3.66467	65
3.66833	63
3.67200	57
3.67567	51
3.67933	48
3.68300	47
3.68667	50
3.69033	56
3.69400	64
3.69767	66
3.70133	63
3.70500	54
3.70867	42
3.71233	31
3.71600	21
3.71967	15
3.72333	18
3.72700	21
3.73067	25
3.73433	30
3.73800	32
3.74167	29
3.74533	26
3.74900	27
3.75267	35
3.75633	41
3.76000	40
3.76367	32
3.76733	26
3.77100	27
3.77467	32
3.77833	38
3.78200	42
3.78567	46
3.78933	50
3.79300	50
3.79667	44
3.80033	34
3.80400	26
3.80767	20
3.81133	21
3.81500	25
3.81867	26
3.82233	24
3.82600	25
3.82967	28
3.83333	29
3.83700	30
3.84067	31
3.84433	28
3.84800	25
3.85167	23
3.85533	26
3.85900	28
3.86267	29
3.86633	32
3.87000	34
3.87367	31
3.87733	25
3.88100	18
3.88467	8
3.88833	2
3.89200	1
3.89567	6
3.89933	19
3.90300	32
3.90667	43
3.91033	49
3.91400	44
3.91767	31
3.92133	20
3.92500	13
3.92867	9
3.93233	2
3.93600	-2
3.93967	-1
3.94333	3
3.94700	7
3.95067	10
3.95433	13
3.95800	21
3.96167	27
3.96533	27
3.96900	21
3.97267	10
3.97633	2
3.98000	-1
3.98367	1
3.98733	4
3.99100	7
3.99467	8
3.99833	9

[Chromatogram (Ch2)]
Interval(msec)	220
# of Points	1091
Start Time(min)	0.002
End Time(min)	3.998
R.Time (min)	Intensity
0.00167	-2
0.00533	-2
0.00900	-3
0.01267	-3
0.01633	-4
0.02000	-4
0.02367	-4
0.02733	-4
0.03100	-4
0.03467	-4
0.03833	-4
0.04200	-4
0.04567	-4
0.04933	-4
0.05300	-4
0.05667	-4
0.06033	-4
0.06400	-4
0.06767	-4
0.07133	-4
0.07500	-4
0.07867	-4
0.08233	-4
0.08600	-3
0.08967	-3
0.09333	-3
0.09700	-2
0.10067	-2
0.10433	-2
0.10800	-2
0.11167	-2
0.11533	-2
0.11900	-2
0.12267	-1
0.12633	-1
0.13000	-1
0.13367	-1
0.13733	-1
0.14100	-1
0.14467	-1
0.14833	-1
0.15200	-2
0.15567	-2
0.15933	-2
0.16300	-2
0.16667	-2
0.17033	-3
0.17400	-3
0.17767	-3
0.18133	-3
0.18500	-4
0.18867	-4
0.19233	-4
0.19600	-4
0.19967	-4
0.20333	-4
0.20700	-5
0.21067	-5
0.21433	-5
0.21800	-5
0.22167	-5
0.22533	-5
0.22900	-5
0.23267	-5
0.23633	-4
0.24000	-4
0.24367	-4
0.24733	-4
0.25100	-4
0.25467	-3
0.25833	-3
0.26200	-3
0.26567	-3
0.26933	-3
0.27300	-3
0.27667	-2
0.28033	-2
0.28400	-1
0.28767	-1
0.29133	-1
0.29500	-1
0.29867	-0
0.30233	-0
0.30600	-0
0.30967	-0
0.31333	-0
0.31700	-1
0.32067	-1
0.32433	-1
0.32800	-1
0.33167	-1
0.33533	-2
0.33900	-2
0.34267	-2
0.34633	-2
0.35000	-2
0.35367	-3
0.35733	-3
0.36100	-2
0.36467	-3
0.36833	-3
0.37200	-3
0.37567	-3
0.37933	-3
0.38300	-3
0.38667	-3
0.39033	-3
0.39400	-3
0.39767	-3
0.40133	-3
0.40500	-2
0.40867	-2
0.41233	-2
0.41600	-2
0.41967	-3
0.42333	-3
0.42700	-3
0.43067	-4
0.43433	-4
0.43800	-4
0.44167	-4
0.44533	-4
0.44900	-4
0.45267	-4
0.45633	-4
0.46000	-5
0.46367	-5
0.46733	-5
0.47100	-4
0.47467	-4
0.47833	-4
0.48200	-4
0.48567	-4
0.48933	-4
0.49300	-3
0.49667	-3
0.50033	-3
0.50400	-3
0.50767	-2
0.51133	-2
0.51500	-2
0.51867	-2
0.52233	-3
0.52600	-3
0.52967	-3
0.53333	-3
0.53700	-3
0.54067	-4
0.54433	-4
0.54800	-4
0.55167	-4
0.55533	-4
0.55900	-4
0.56267	-4
0.56633	-4
0.57000	-4
0.57367	-4
0.57733	-4
0.58100	-4
0.58467	-4
0.58833	-4
0.59200	-4
0.59567	-4
0.59933	-4
0.60300	-4
0.60667	-4
0.61033	-4
0.61400	-4
0.61767	-4
0.62133	-4
0.62500	-4
0.62867	-4
0.63233	-4
0.63600	-5
0.63967	-5
0.64333	-5
0.64700	-5
0.65067	-5
0.65433	-5
0.65800	-5
0.66167	-5
0.66533	-5
0.66900	-5
0.67267	-5
0.67633	-5
0.68000	-5
0.68367	-4
0.68733	-4
0.69100	-4
0.69467	-4
0.69833	-4
0.70200	-3
0.70567	-3
0.70933	-3
0.71300	-3
0.71667	-2
0.72033	-2
0.72400	-2
0.72767	-2
0.73133	-2
0.73500	-2
0.73867	-2
0.74233	-2
0.74600	-2
0.74967	-2
0.75333	-2
0.75700	-2
0.76067	-3
0.76433	-3
0.76800	-3
0.77167	-3
0.77533	-3
0.77900	-3
0.78267	-3
0.78633	-2
0.79000	-2
0.79367	-2
0.79733	-2
0.80100	-3
0.80467	-3
0.80833	-3
0.81200	-4
0.81567	-4
0.81933	-5
0.82300	-5
0.82667	-5
0.83033	-5
0.83400	-5
0.83767	-5
0.84133	-6
0.84500	-6
0.84867	-6
0.85233	-6
0.85600	-6
0.85967	-6
0.86333	-6
0.86700	-6
0.87067	-6
0.87433	-6
0.87800	-6
0.88167	-5
0.88533	-5
0.88900	-5
0.89267	-5
0.89633	-5
0.90000	-6
0.90367	-6
0.90733	-6
0.91100	-6
0.91467	-6
0.91833	-5
0.92200	-5
0.92567	-5
0.92933	-5
0.93300	-5
0.93667	-4
0.94033	-4
0.94400	-3
0.94767	-3
0.95133	-3
0.95500	-2
0.95867	-2
0.96233	-2
0.96600	-2
0.96967	-2
0.97333	-2
0.97700	-2
0.98067	-2
0.98433	-1
0.98800	-1
0.99167	-1
0.99533	-0
0.99900	-0
1.00267	0
1.00633	0
1.01000	0
1.01367	1
1.01733	1
1.02100	1
1.02467	1
1.02833	0
1.03200	-0
1.03567	-1
1.03933	-1
1.04300	-2
1.04667	-2
1.05033	-3
1.05400	-4
1.05767	-4
1.06133	-4
1.06500	-5
1.06867	-5
1.07233	-5
1.07600	-5
1.07967	-5
1.08333	-5
1.08700	-6
1.09067	-6
1.09433	-6
1.09800	-6
1.10167	-6
1.10533	-6
1.10900	-6
1.11267	-6
1.11633	-5
1.12000	-5
1.12367	-4
1.12733	-4
1.13100	-3
1.13467	-3
1.13833	-2
1.14200	-2
1.14567	-1
1.14933	-1
1.15300	-1
1.15667	-1
1.16033	-1
1.16400	-1
1.16767	-1
1.17133	-2
1.17500	-2
1.17867	-2
1.18233	-3
1.18600	-3
1.18967	-3
1.19333	-3
1.19700	-3
1.20067	-3
1.20433	-3
1.20800	-3
1.21167	-3
1.21533	-3
1.21900	-3
1.22267	-3
1.22633	-3
1.23000	-3
1.23367	-4
1.23733	-4
1.24100	-5
1.24467	-5
1.24833	-6
1.25200	-6
1.25567	-7
1.25933	-8
1.26300	-8
1.26667	-9
1.27033	-9
1.27400	-9
1.27767	-9
1.28133	-9
1.28500	-9
1.28867	-9
1.29233	-9
1.29600	-9
1.29967	-8
1.30333	-8
1.30700	-7
1.31067	-7
1.31433	-6
1.31800	-6
1.32167	-5
1.32533	-5
1.32900	-4
1.33267	-4
1.33633	-4
1.34000	-4
1.34367	-4
1.34733	-4
1.35100	-4
1.35467	-4
1.35833	-4
1.36200	-4
1.36567	-4
1.36933	-4
1.37300	-4
1.37667	-4
1.38033	-4
1.38400	-4
1.38767	-4
1.39133	-5
1.39500	-5
1.39867	-5
1.40233	-5
1.40600	-5
1.40967	-5
1.41333	-5
1.41700	-6
1.42067	-6
1.42433	-6
1.42800	-7
1.43167	-7
1.43533	-7
1.43900	-7
1.44267	-7
1.44633	-7
1.45000	-7
1.45367	-7
1.45733	-7
1.46100	-7
1.46467	-6
1.46833	-6
1.47200	-6
1.47567	-5
1.47933	-5
1.48300	-5
1.48667	-4
1.49033	-4
1.49400	-4
1.49767	-3
1.50133	-3
1.50500	-3
1.50867	-2
1.51233	-2
1.51600	-2
1.51967	-2
1.52333	-2
1.52700	-3
1.53067	-3
1.53433	-3
1.53800	-3
1.54167	-4
1.54533	-4
1.54900	-4
1.55267	-5
1.55633	-5
1.56000	-6
1.56367	-6
1.56733	-6
1.57100	-7
1.57467	-7
1.57833	-7
1.58200	-8
1.58567	-8
1.58933	-8
1.59300	-9
1.59667	-9
1.60033	-10
1.60400	-11
1.60767	-12
1.61133	-13
1.61500	-15
1.61867	-17
1.62233	-19
1.62600	-21
1.62967	-24
1.63333	-27
1.63700	-30
1.64067	-33
1.64433	-36
1.64800	-39
1.65167	-43
1.65533	-46
1.65900	-50
1.66267	-53
1.66633	-57
1.67000	-62
1.67367	-67
1.67733	-72
1.68100	-78
1.68467	-83
1.68833	-88
1.69200	-92
1.69567	-96
1.69933	-99
1.70300	-102
1.70667	-105
1.71033	-106
1.71400	-108
1.71767	-109
1.72133	-109
1.72500	-110
1.72867	-110
1.73233	-110
1.73600	-111
1.73967	-112
1.74333	-112
1.74700	-113
1.75067	-113
1.75433	-113
1.75800	-113
1.76167	-113
1.76533	-113
1.76900	-114
1.77267	-114
1.77633	-114
1.78000	-115
1.78367	-115
1.78733	-115
1.79100	-115
1.79467	-115
1.79833	-114
1.80200	-113
1.80567	-113
1.80933	-112
1.81300	-112
1.81667	-112
1.82033	-113
1.82400	-113
1.82767	-114
1.83133	-115
1.83500	-116
1.83867	-116
1.84233	-117
1.84600	-117
1.84967	-117
1.85333	-117
1.85700	-117
1.86067	-117
1.86433	-116
1.86800	-116
1.87167	-116
1.87533	-116
1.87900	-116
1.88267	-117
1.88633	-117
1.89000	-117
1.89367	-117
1.89733	-116
1.90100	-116
1.90467	-115
1.90833	-114
1.91200	-114
1.91567	-114
1.91933	-113
1.92300	-112
1.92667	-111
1.93033	-111
1.93400	-111
1.93767	-111
1.94133	-112
1.94500	-112
1.94867	-112
1.95233	-112
1.95600	-112
1.95967	-112
1.96333	-112
1.96700	-112
1.97067	-112
1.97433	-111
1.97800	-112
1.98167	-112
1.98533	-113
1.98900	-113
1.99267	-112
1.99633	-112
2.00000	-111
2.00367	-110
2.00733	-109
2.01100	-109
2.01467	-108
2.01833	-107
2.02200	-106
2.02567	-105
2.02933	-105
2.03300	-104
2.03667	-104
2.04033	-104
2.04400	-103
2.04767	-103
2.05133	-103
2.05500	-103
2.05867	-103
2.06233	-103
2.06600	-104
2.06967	-104
2.07333	-104
2.07700	-105
2.08067	-105
2.08433	-105
2.08800	-105
2.09167	-105
2.09533	-104
2.09900	-104
2.10267	-104
2.10633	-103
2.11000	-102
2.11367	-102
2.11733	-101
2.12100	-100
2.12467	-99
2.12833	-99
2.13200	-98
2.13567	-97
2.13933	-97
2.14300	-97
2.14667	-96
2.15033	-96
2.15400	-95
2.15767	-95
2.16133	-95
2.16500	-95
2.16867	-95
2.17233	-96
2.17600	-97
2.17967	-97
2.18333	-98
2.18700	-98
2.19067	-97
2.19433	-97
2.19800	-96
2.20167	-95
2.20533	-94
2.20900	-93
2.21267	-93
2.21633	-92
2.22000	-92
2.22367	-91
2.22733	-90
2.23100	-90
2.23467	-89
2.23833	-88
2.24200	-88
2.24567	-87
2.24933	-87
2.25300	-87
2.25667	-87
2.26033	-87
2.26400	-87
2.26767	-87
2.27133	-87
2.27500	-87
2.27867	-87
2.28233	-88
2.28600	-89
2.28967	-89
2.29333	-89
2.29700	-89
2.30067	-88
2.30433	-87
2.30800	-85
2.31167	-84
2.31533	-83
2.31900	-82
2.32267	-81
2.32633	-80
2.33000	-80
2.33367	-80
2.33733	-80
2.34100	-81
2.34467	-81
2.34833	-80
2.35200	-79
2.35567	-78
2.35933	-77
2.36300	-75
2.36667	-72
2.37033	-70
2.37400	-66
2.37767	-62
2.38133	-59
2.38500	-54
2.38867	-50
2.39233	-46
2.39600	-41
2.39967	-37
2.40333	-33
2.40700	-29
2.41067	-26
2.41433	-24
2.41800	-21
2.42167	-19
2.42533	-17
2.42900	-16
2.43267	-14
2.43633	-13
2.44000	-12
2.44367	-11
2.44733	-11
2.45100	-10
2.45467	-10
2.45833	-10
2.46200	-9
2.46567	-8
2.46933	-7
2.47300	-6
2.47667	-5
2.48033	-3
2.48400	-2
2.48767	-1
2.49133	-0
2.49500	1
2.49867	1
2.50233	2
2.50600	3
2.50967	4
2.51333	5
2.51700	6
2.52067	7
2.52433	8
2.52800	9
2.53167	9
2.53533	10
2.53900	10
2.54267	11
2.54633	11
2.55000	11
2.55367	12
2.55733	12
2.56100	13
2.56467	13
2.56833	14
2.57200	13
2.57567	13
2.57933	12
2.58300	12
2.58667	11
2.59033	11
2.59400	11
2.59767	11
2.60133	11
2.60500	11
2.60867	11
2.61233	11
2.61600	11
2.61967	11
2.62333	11
2.62700	11
2.63067	12
2.63433	12
2.63800	12
2.64167	13
2.64533	13
2.64900	13
2.65267	13
2.65633	13
2.66000	14
2.66367	14
2.66733	14
2.67100	14
2.67467	14
2.67833	15
2.68200	15
2.68567	16
2.68933	16
2.69300	17
2.69667	17
2.70033	17
2.70400	18
2.70767	18
2.71133	18
2.71500	18
2.71867	19
2.72233	19
2.72600	20
2.72967	20
2.73333	21
2.73700	22
2.74067	22
2.74433	23
2.74800	23
2.75167	24
2.75533	24
2.75900	25
2.76267	25
2.76633	25
2.77000	25
2.77367	24
2.77733	24
2.78100	23
2.78467	23
2.78833	23
2.79200	23
2.79567	22
2.79933	22
2.80300	22
2.80667	22
2.81033	22
2.81400	22
2.81767	23
2.82133	23
2.82500	24
2.82867	24
2.83233	24
2.83600	24
2.83967	24
2.84333	23
2.84700	21
2.85067	17
2.85433	11
2.85800	2
2.86167	-10
2.86533	-26
2.86900	-47
2.87267	-71
2.87633	-100
2.88000	-133
2.88367	-171
2.88733	-212
2.89100	-257
2.89467	-306
2.89833	-356
2.90200	-409
2.90567	-463
2.90933	-518
2.91300	-574
2.91667	-630
2.92033	-685
2.92400	-740
2.92767	-792
2.93133	-844
2.93500	-897
2.93867	-954
2.94233	-1013
2.94600	-1064
2.94967	-1098
2.95333	-1107
2.95700	-1090
2.96067	-1049
2.96433	-991
2.96800	-920
2.97167	-842
2.97533	-761
2.97900	-681
2.98267	-604
2.98633	-532
2.99000	-465
2.99367	-404
2.99733	-350
3.00100	-301
3.00467	-258
3.00833	-221
3.01200	-188
3.01567	-160
3.01933	-135
3.02300	-114
3.02667	-95
3.03033	-80
3.03400	-66
3.03767	-54
3.04133	-45
3.04500	-36
3.04867	-29
3.05233	-23
3.05600	-18
3.05967	-13
3.06333	-10
3.06700	-6
3.07067	-4
3.07433	-1
3.07800	1
3.08167	3
3.08533	4
3.08900	5
3.09267	6
3.09633	7
3.10000	8
3.10367	9
3.10733	10
3.11100	11
3.11467	12
3.11833	13
3.12200	13
3.12567	14
3.12933	14
3.13300	14
3.13667	15
3.14033	15
3.14400	16
3.14767	16
3.15133	16
3.15500	16
3.15867	16
3.16233	16
3.16600	16
3.16967	17
3.17333	17
3.17700	17
3.18067	17
3.18433	18
3.18800	18
3.19167	18
3.19533	18
3.19900	18
3.20267	19
3.20633	19
3.21000	19
3.21367	18
3.21733	18
3.22100	18
3.22467	18
3.22833	18
3.23200	17
3.23567	17
3.23933	17
3.24300	17
3.24667	18
3.25033	18
3.25400	18
3.25767	18
3.26133	18
3.26500	18
3.26867	19
3.27233	19
3.27600	19
3.27967	20
3.28333	20
3.28700	20
3.29067	21
3.29433	21
3.29800	21
3.30167	21
3.30533	21
3.30900	21
3.31267	21
3.31633	20
3.32000	20
3.32367	20
3.32733	19
3.33100	19
3.33467	19
3.33833	19
3.34200	19
3.34567	19
3.34933	19
3.35300	20
3.35667	20
3.36033	20
3.36400	20
3.36767	21
3.37133	21
3.37500	21
3.37867	22
3.38233	22
3.38600	22
3.38967	23
3.39333	23
3.39700	24
3.40067	24
3.40433	25
3.40800	25
3.41167	25
3.41533	25
3.41900	25
3.42267	25
3.42633	25
3.43000	25
3.43367	25
3.43733	25
3.44100	24
3.44467	24
3.44833	24
3.45200	24
3.45567	23
3.45933	23
3.46300	23
3.46667	23
3.47033	22
3.47400	22
3.47767	22
3.48133	22
3.48500	22
3.48867	21
3.49233	21
3.49600	21
3.49967	21
3.50333	21
3.50700	21
3.51067	21
3.51433	21
3.51800	22
3.52167	22
3.52533	22
3.52900	23
3.53267	23
3.53633	23
3.54000	23
3.54367	23
3.54733	24
3.55100	24
3.55467	24
3.55833	24
3.56200	24
3.56567	24
3.56933	24
3.57300	23
3.57667	23
3.58033	23
3.58400	23
3.58767	23
3.59133	23
3.59500	23
3.59867	23
3.60233	23
3.60600	23
3.60967	23
3.61333	23
3.61700	23
3.62067	23
3.62433	23
3.62800	23
3.63167	23
3.63533	23
3.63900	22
3.64267	22
3.64633	22
3.65000	22
3.65367	22
3.65733	22
3.66100	22
3.66467	22
3.66833	23
3.67200	23
3.67567	23
3.67933	24
3.68300	24
3.68667	24
3.69033	24
3.69400	24
3.69767	24
3.70133	24
3.70500	24
3.70867	23
3.71233	23
3.71600	23
3.71967	23
3.72333	23
3.72700	23
3.73067	23
3.73433	23
3.73800	23
3.74167	23
3.74533	23
3.74900	23
3.75267	23
3.75633	24
3.76000	24
3.76367	24
3.76733	24
3.77100	24
3.77467	24
3.77833	24
3.78200	23
3.78567	23
3.78933	23
3.79300	23
3.79667	23
3.80033	24
3.80400	24
3.80767	24
3.81133	24
3.81500	24
3.81867	24
3.82233	24
3.82600	25
3.82967	25
3.83333	24
3.83700	24
3.84067	24
3.84433	24
3.84800	25
3.85167	25
3.85533	25
3.85900	25
3.86267	25
3.86633	25
3.87000	25
3.87367	25
3.87733	24
3.88100	24
3.88467	24
3.88833	24
3.89200	24
3.89567	24
3.89933	24
3.90300	24
3.90667	24
3.91033	23
3.91400	23
3.91767	23
3.92133	23
3.92500	23
3.92867	22
3.93233	22
3.93600	22
3.93967	22
3.94333	22
3.94700	22
3.95067	22
3.95433	22
3.95800	22
3.96167	23
3.96533	23
3.96900	23
3.97267	24
3.97633	24
3.98000	24
3.98367	24
3.98733	24
3.99100	24
3.99467	24
3.99833	24

[Chromatogram (Ch3)]
Interval(msec)	220
# of Points	1091
Start Time(min)	0.002
End Time(min)	3.998
R.Time (min)	Intensity
0.00167	-0
0.00533	-0
0.00900	0
0.01267	-2
0.01633	-2
0.02000	-1
0.02367	1
0.02733	2
0.03100	1
0.03467	2
0.03833	2
0.04200	2
0.04567	2
0.04933	2
0.05300	2
0.05667	0
0.06033	-1
0.06400	-2
0.06767	-2
0.07133	-3
0.07500	-3
0.07867	-2
0.08233	-1
0.08600	-0
0.08967	0
0.09333	3
0.09700	4
0.10067	4
0.10433	5
0.10800	5
0.11167	5
0.11533	5
0.11900	4
0.12267	2
0.12633	0
0.13000	-1
0.13367	-2
0.13733	-1
0.14100	-1
0.14467	-1
0.14833	-1
0.15200	1
0.15567	2
0.15933	4
0.16300	4
0.16667	4
0.17033	2
0.17400	0
0.17767	-2
0.18133	-4
0.18500	-4
0.18867	-3
0.19233	-4
0.19600	-5
0.19967	-5
0.20333	-5
0.20700	-5
0.21067	-5
0.21433	-6
0.21800	-5
0.22167	-1
0.22533	3
0.22900	4
0.23267	5
0.23633	2
0.24000	2
0.24367	2
0.24733	2
0.25100	2
0.25467	3
0.25833	3
0.26200	4
0.26567	5
0.26933	3
0.27300	2
0.27667	-0
0.28033	-0
0.28400	2
0.28767	3
0.29133	3
0.29500	4
0.29867	5
0.30233	6
0.30600	6
0.30967	3
0.31333	1
0.31700	1
0.32067	-0
0.32433	-0
0.32800	1
0.33167	2
0.33533	2
0.33900	4
0.34267	4
0.34633	4
0.35000	4
0.35367	4
0.35733	4
0.36100	4
0.36467	3
0.36833	2
0.37200	2
0.37567	2
0.37933	1
0.38300	2
0.38667	2
0.39033	3
0.39400	2
0.39767	-1
0.40133	-2
0.40500	-1
0.40867	1
0.41233	-0
0.41600	-1
0.41967	1
0.42333	1
0.42700	1
0.43067	2
0.43433	4
0.43800	4
0.44167	5
0.44533	4
0.44900	3
0.45267	2
0.45633	1
0.46000	1
0.46367	0
0.46733	0
0.47100	0
0.47467	0
0.47833	1
0.48200	4
0.48567	4
0.48933	6
0.49300	7
0.49667	7
0.50033	7
0.50400	6
0.50767	4
0.51133	4
0.51500	3
0.51867	2
0.52233	3
0.52600	5
0.52967	5
0.53333	6
0.53700	4
0.54067	1
0.54433	1
0.54800	1
0.55167	2
0.55533	2
0.55900	3
0.56267	4
0.56633	4
0.57000	5
0.57367	9
0.57733	8
0.58100	8
0.58467	10
0.58833	13
0.59200	13
0.59567	12
0.59933	13
0.60300	13
0.60667	10
0.61033	8
0.61400	9
0.61767	8
0.62133	9
0.62500	11
0.62867	13
0.63233	14
0.63600	16
0.63967	18
0.64333	18
0.64700	19
0.65067	20
0.65433	19
0.65800	19
0.66167	18
0.66533	17
0.66900	16
0.67267	16
0.67633	17
0.68000	18
0.68367	21
0.68733	22
0.69100	21
0.69467	19
0.69833	19
0.70200	20
0.70567	20
0.70933	21
0.71300	22
0.71667	21
0.72033	20
0.72400	18
0.72767	18
0.73133	20
0.73500	21
0.73867	21
0.74233	20
0.74600	19
0.74967	17
0.75333	16
0.75700	15
0.76067	14
0.76433	14
0.76800	16
0.77167	18
0.77533	20
0.77900	21
0.78267	20
0.78633	19
0.79000	19
0.79367	19
0.79733	19
0.80100	20
0.80467	21
0.80833	19
0.81200	16
0.81567	14
0.81933	12
0.82300	10
0.82667	11
0.83033	11
0.83400	10
0.83767	11
0.84133	13
0.84500	15
0.84867	16
0.85233	16
0.85600	16
0.85967	18
0.86333	19
0.86700	17
0.87067	15
0.87433	15
0.87800	13
0.88167	15
0.88533	15
0.88900	15
0.89267	13
0.89633	11
0.90000	9
0.90367	9
0.90733	12
0.91100	11
0.91467	10
0.91833	12
0.92200	14
0.92567	16
0.92933	16
0.93300	17
0.93667	18
0.94033	19
0.94400	18
0.94767	18
0.95133	19
0.95500	20
0.95867	19
0.96233	16
0.96600	11
0.96967	9
0.97333	9
0.97700	11
0.98067	14
0.98433	13
0.98800	13
0.99167	12
0.99533	12
0.99900	11
1.00267	13
1.00633	14
1.01000	14
1.01367	15
1.01733	18
1.02100	21
1.02467	21
1.02833	19
1.03200	17
1.03567	18
1.03933	19
1.04300	19
1.04667	17
1.05033	16
1.05400	16
1.05767	14
1.06133	12
1.06500	12
1.06867	13
1.07233	15
1.07600	17
1.07967	17
1.08333	16
1.08700	17
1.09067	17
1.09433	16
1.09800	16
1.10167	18
1.10533	19
1.10900	18
1.11267	18
1.11633	19
1.12000	18
1.12367	18
1.12733	16
1.13100	17
1.13467	18
1.13833	17
1.14200	17
1.14567	16
1.14933	15
1.15300	15
1.15667	16
1.16033	16
1.16400	16
1.16767	17
1.17133	17
1.17500	17
1.17867	15
1.18233	16
1.18600	17
1.18967	18
1.19333	17
1.19700	16
1.20067	17
1.20433	16
1.20800	15
1.21167	14
1.21533	15
1.21900	14
1.22267	14
1.22633	16
1.23000	18
1.23367	18
1.23733	17
1.24100	17
1.24467	18
1.24833	17
1.25200	18
1.25567	17
1.25933	16
1.26300	17
1.26667	17
1.27033	17
1.27400	17
1.27767	18
1.28133	20
1.28500	20
1.28867	19
1.29233	19
1.29600	19
1.29967	20
1.30333	19
1.30700	18
1.31067	16
1.31433	16
1.31800	16
1.32167	17
1.32533	21
1.32900	22
1.33267	24
1.33633	25
1.34000	26
1.34367	26
1.34733	28
1.35100	28
1.35467	27
1.35833	26
1.36200	24
1.36567	22
1.36933	23
1.37300	23
1.37667	24
1.38033	25
1.38400	26
1.38767	27
1.39133	25
1.39500	24
1.39867	23
1.40233	23
1.40600	24
1.40967	23
1.41333	22
1.41700	22
1.42067	24
1.42433	27
1.42800	28
1.43167	28
1.43533	27
1.43900	25
1.44267	23
1.44633	22
1.45000	22
1.45367	21
1.45733	23
1.46100	25
1.46467	26
1.46833	23
1.47200	20
1.47567	20
1.47933	22
1.48300	23
1.48667	24
1.49033	24
1.49400	27
1.49767	26
1.50133	26
1.50500	25
1.50867	25
1.51233	25
1.51600	26
1.51967	26
1.52333	26
1.52700	25
1.53067	25
1.53433	25
1.53800	25
1.54167	25
1.54533	25
1.54900	22
1.55267	24
1.55633	27
1.56000	27
1.56367	26
1.56733	27
1.57100	27
1.57467	27
1.57833	27
1.58200	27
1.58567	27
1.58933	27
1.59300	26
1.59667	24
1.60033	26
1.60400	26
1.60767	27
1.61133	28
1.61500	28
1.61867	30
1.62233	32
1.62600	33
1.62967	33
1.63333	33
1.63700	32
1.64067	31
1.64433	30
1.64800	29
1.65167	30
1.65533	30
1.65900	30
1.66267	30
1.66633	30
1.67000	30
1.67367	30
1.67733	31
1.68100	34
1.68467	37
1.68833	39
1.69200	40
1.69567	40
1.69933	41
1.70300	41
1.70667	40
1.71033	40
1.71400	41
1.71767	44
1.72133	46
1.72500	45
1.72867	42
1.73233	41
1.73600	39
1.73967	35
1.74333	34
1.74700	37
1.75067	38
1.75433	39
1.75800	39
1.76167	41
1.76533	44
1.76900	46
1.77267	46
1.77633	46
1.78000	45
1.78367	44
1.78733	43
1.79100	43
1.79467	44
1.79833	44
1.80200	46
1.80567	47
1.80933	47
1.81300	47
1.81667	49
1.82033	48
1.82400	48
1.82767	50
1.83133	51
1.83500	51
1.83867	51
1.84233	52
1.84600	54
1.84967	56
1.85333	58
1.85700	57
1.86067	55
1.86433	56
1.86800	60
1.87167	62
1.87533	60
1.87900	60
1.88267	62
1.88633	64
1.89000	63
1.89367	62
1.89733	62
1.90100	63
1.90467	65
1.90833	66
1.91200	67
1.91567	68
1.91933	69
1.92300	70
1.92667	70
1.93033	70
1.93400	72
1.93767	74
1.94133	75
1.94500	76
1.94867	76
1.95233	78
1.95600	80
1.95967	83
1.96333	87
1.96700	89
1.97067	90
1.97433	89
1.97800	89
1.98167	87
1.98533	89
1.98900	90
1.99267	90
1.99633	90
2.00000	92
2.00367	93
2.00733	94
2.01100	96
2.01467	97
2.01833	98
2.02200	97
2.02567	95
2.02933	94
2.03300	95
2.03667	99
2.04033	101
2.04400	102
2.04767	104
2.05133	105
2.05500	106
2.05867	107
2.06233	109
2.06600	110
2.06967	110
2.07333	111
2.07700	111
2.08067	110
2.08433	111
2.08800	112
2.09167	113
2.09533	114
2.09900	115
2.10267	116
2.10633	119
2.11000	120
2.11367	120
2.11733	122
2.12100	124
2.12467	126
2.12833	127
2.13200	129
2.13567	130
2.13933	133
2.14300	135
2.14667	137
2.15033	139
2.15400	139
2.15767	140
2.16133	142
2.16500	145
2.16867	147
2.17233	148
2.17600	149
2.17967	151
2.18333	154
2.18700	157
2.19067	160
2.19433	159
2.19800	157
2.20167	155
2.20533	156
2.20900	157
2.21267	158
2.21633	158
2.22000	157
2.22367	158
2.22733	161
2.23100	162
2.23467	163
2.23833	165
2.24200	167
2.24567	167
2.24933	166
2.25300	166
2.25667	165
2.26033	166
2.26400	168
2.26767	169
2.27133	172
2.27500	175
2.27867	177
2.28233	177
2.28600	179
2.28967	182
2.29333	183
2.29700	184
2.30067	184
2.30433	186
2.30800	188
2.31167	188
2.31533	187
2.31900	190
2.32267	190
2.32633	190
2.33000	191
2.33367	193
2.33733	198
2.34100	200
2.34467	202
2.34833	201
2.35200	201
2.35567	202
2.35933	201
2.36300	202
2.36667	202
2.37033	200
2.37400	200
2.37767	201
2.38133	204
2.38500	205
2.38867	203
2.39233	203
2.39600	204
2.39967	205
2.40333	208
2.40700	211
2.41067	215
2.41433	218
2.41800	217
2.42167	216
2.42533	217
2.42900	218
2.43267	218
2.43633	217
2.44000	219
2.44367	268
2.44733	396
2.45100	533
2.45467	645
2.45833	703
2.46200	702
2.46567	673
2.46933	639
2.47300	614
2.47667	599
2.48033	584
2.48400	554
2.48767	511
2.49133	467
2.49500	427
2.49867	397
2.50233	376
2.50600	364
2.50967	361
2.51333	366
2.51700	381
2.52067	399
2.52433	414
2.52800	421
2.53167	418
2.53533	404
2.53900	384
2.54267	360
2.54633	336
2.55000	311
2.55367	289
2.55733	271
2.56100	259
2.56467	249
2.56833	243
2.57200	238
2.57567	234
2.57933	230
2.58300	230
2.58667	232
2.59033	235
2.59400	238
2.59767	240
2.60133	242
2.60500	242
2.60867	239
2.61233	232
2.61600	222
2.61967	212
2.62333	203
2.62700	196
2.63067	190
2.63433	182
2.63800	173
2.64167	165
2.64533	158
2.64900	152
2.65267	144
2.65633	136
2.66000	130
2.66367	124
2.66733	118
2.67100	111
2.67467	108
2.67833	105
2.68200	105
2.68567	102
2.68933	99
2.69300	96
2.69667	96
2.70033	98
2.70400	99
2.70767	101
2.71133	101
2.71500	103
2.71867	107
2.72233	112
2.72600	117
2.72967	119
2.73333	123
2.73700	126
2.74067	128
2.74433	128
2.74800	128
2.75167	128
2.75533	127
2.75900	129
2.76267	134
2.76633	137
2.77000	140
2.77367	142
2.77733	145
2.78100	148
2.78467	151
2.78833	155
2.79200	158
2.79567	161
2.79933	164
2.80300	166
2.80667	168
2.81033	171
2.81400	175
2.81767	183
2.82133	194
2.82500	210
2.82867	243
2.83233	306
2.83600	415
2.83967	594
2.84333	866
2.84700	1237
2.85067	1702
2.85433	2243
2.85800	2827
2.86167	3408
2.86533	3934
2.86900	4367
2.87267	4675
2.87633	4844
2.88000	4874
2.88367	4780
2.88733	4584
2.89100	4316
2.89467	4003
2.89833	3667
2.90200	3326
2.90567	2992
2.90933	2676
2.91300	2381
2.91667	2114
2.92033	1873
2.92400	1659
2.92767	1470
2.93133	1303
2.93500	1156
2.93867	1026
2.94233	911
2.94600	811
2.94967	725
2.95333	651
2.95700	586
2.96067	531
2.96433	482
2.96800	440
2.97167	403
2.97533	372
2.97900	344
2.98267	319
2.98633	299
2.99000	282
2.99367	267
2.99733	252
3.00100	241
3.00467	230
3.00833	220
3.01200	213
3.01567	206
3.01933	200
3.02300	193
3.02667	186
3.03033	182
3.03400	179
3.03767	178
3.04133	175
3.04500	173
3.04867	171
3.05233	170
3.05600	170
3.05967	169
3.06333	169
3.06700	168
3.07067	168
3.07433	167
3.07800	166
3.08167	165
3.08533	163
3.08900	163
3.09267	163
3.09633	166
3.10000	167
3.10367	167
3.10733	168
3.11100	168
3.11467	168
3.11833	170
3.12200	170
3.12567	168
3.12933	167
3.13300	165
3.13667	165
3.14033	166
3.14400	167
3.14767	169
3.15133	170
3.15500	172
3.15867	174
3.16233	174
3.16600	173
3.16967	173
3.17333	173
3.17700	176
3.18067	179
3.18433	181
3.18800	182
3.19167	181
3.19533	173
3.19900	152
3.20267	132
3.20633	127
3.21000	138
3.21367	161
3.21733	194
3.22100	229
3.22467	270
3.22833	316
3.23200	361
3.23567	404
3.23933	445
3.24300	486
3.24667	524
3.25033	558
3.25400	587
3.25767	612
3.26133	632
3.26500	650
3.26867	667
3.27233	686
3.27600	701
3.27967	715
3.28333	726
3.28700	739
3.29067	750
3.29433	762
3.29800	771
3.30167	781
3.30533	790
3.30900	795
3.31267	802
3.31633	810
3.32000	816
3.32367	820
3.32733	825
3.33100	829
3.33467	832
3.33833	836
3.34200	839
3.34567	841
3.34933	842
3.35300	843
3.35667	843
3.36033	844
3.36400	845
3.36767	845
3.37133	844
3.37500	842
3.37867	840
3.38233	838
3.38600	837
3.38967	837
3.39333	840
3.39700	837
3.40067	833
3.40433	827
3.40800	824
3.41167	823
3.41533	822
3.41900	818
3.42267	815
3.42633	813
3.43000	809
3.43367	808
3.43733	809
3.44100	809
3.44467	808
3.44833	807
3.45200	806
3.45567	804
3.45933	801
3.46300	799
3.46667	797
3.47033	792
3.47400	789
3.47767	787
3.48133	785
3.48500	783
3.48867	780
3.49233	777
3.49600	776
3.49967	775
3.50333	774
3.50700	771
3.51067	769
3.51433	768
3.51800	766
3.52167	765
3.52533	762
3.52900	761
3.53267	759
3.53633	756
3.54000	755
3.54367	756
3.54733	757
3.55100	757
3.55467	755
3.55833	754
3.56200	752
3.56567	753
3.56933	754
3.57300	753
3.57667	752
3.58033	751
3.58400	750
3.58767	750
3.59133	751
3.59500	751
3.59867	750
3.60233	747
3.60600	745
3.60967	744
3.61333	743
3.61700	743
3.62067	745
3.62433	745
3.62800	745
3.63167	743
3.63533	742
3.63900	741
3.64267	741
3.64633	742
3.65000	741
3.65367	742
3.65733	740
3.66100	737
3.66467	732
3.66833	728
3.67200	729
3.67567	729
3.67933	727
3.68300	725
3.68667	723
3.69033	720
3.69400	716
3.69767	715
3.70133	716
3.70500	716
3.70867	716
3.71233	714
3.71600	710
3.71967	706
3.72333	704
3.72700	702
3.73067	700
3.73433	701
3.73800	702
3.74167	701
3.74533	697
3.74900	691
3.75267	688
3.75633	686
3.76000	685
3.76367	685
3.76733	682
3.77100	679
3.77467	676
3.77833	675
3.78200	673
3.78567	672
3.78933	672
3.79300	669
3.79667	667
3.80033	665
3.80400	663
3.80767	662
3.81133	660
3.81500	655
3.81867	651
3.82233	646
3.82600	642
3.82967	641
3.83333	642
3.83700	642
3.84067	640
3.84433	638
3.84800	635
3.85167	632
3.85533	628
3.85900	627
3.86267	626
3.86633	625
3.87000	625
3.87367	624
3.87733	621
3.88100	615
3.88467	612
3.88833	611
3.89200	610
3.89567	608
3.89933	606
3.90300	605
3.90667	602
3.91033	599
3.91400	596
3.91767	592
3.92133	589
3.92500	586
3.92867	584
3.93233	583
3.93600	583
3.93967	584
3.94333	584
3.94700	584
3.95067	584
3.95433	581
3.95800	577
3.96167	574
3.96533	572
3.96900	573
3.97267	575
3.97633	573
3.98000	570
3.98367	568
3.98733	570
3.99100	569
3.99467	567
3.99833	564

[Status Trace (Column Oven Temperature)]
Interval(msec)	1000
# of Points	240
Start Time(min)	0.016
End Time(min)	4.000
Intensity Units	
Intensity Multiplier	1
R.Time (min)	Intensity
0.01630	35.01
0.03297	35.01
0.04963	35.02
0.06630	35.01
0.08297	35.02
0.09963	35.01
0.11630	35.01
0.13297	35.00
0.14963	35.00
0.16630	35.01
0.18297	35.02
0.19963	35.03
0.21630	35.04
0.23297	35.03
0.24963	35.02
0.26630	35.02
0.28297	35.00
0.29963	34.99
0.31630	35.00
0.33297	34.99
0.34963	34.99
0.36630	34.99
0.38297	34.98
0.39963	34.98
0.41630	34.98
0.43297	34.99
0.44963	35.00
0.46630	35.01
0.48297	35.01
0.49963	35.00
0.51630	34.99
0.53297	35.00
0.54963	35.00
0.56630	35.00
0.58297	35.00
0.59963	35.00
0.61630	35.00
0.63297	35.00
0.64963	35.01
0.66630	35.02
0.68297	35.01
0.69963	35.00
0.71630	35.00
0.73297	34.99
0.74963	34.98
0.76630	34.98
0.78297	34.97
0.79963	34.97
0.81630	34.99
0.83297	35.00
0.84963	35.02
0.86630	35.03
0.88297	35.03
0.89963	35.03
0.91630	35.04
0.93297	35.03
0.94963	35.02
0.96630	35.01
0.98297	34.99
0.99963	34.98
1.01630	34.96
1.03297	34.97
1.04963	34.99
1.06630	35.00
1.08297	35.00
1.09963	35.01
1.11630	34.99
1.13297	34.98
1.14963	34.98
1.16630	34.96
1.18297	34.97
1.19963	34.97
1.21630	34.96
1.23297	34.97
1.24963	34.98
1.26630	35.00
1.28297	35.01
1.29963	35.02
1.31630	35.02
1.33297	35.02
1.34963	35.01
1.36630	35.00
1.38297	34.99
1.39963	34.99
1.41630	34.99
1.43297	35.00
1.44963	35.01
1.46630	35.00
1.48297	35.00
1.49963	34.98
1.51630	34.96
1.53297	34.97
1.54963	34.98
1.56630	34.99
1.58297	35.01
1.59963	35.05
1.61630	35.14
1.63297	35.28
1.64963	35.49
1.66630	35.77
1.68297	36.14
1.69963	36.51
1.71630	36.85
1.73297	37.19
1.74963	37.51
1.76630	37.85
1.78297	38.19
1.79963	38.50
1.81630	38.82
1.83297	39.15
1.84963	39.49
1.86630	39.80
1.88297	40.14
1.89963	40.46
1.91630	40.79
1.93297	41.10
1.94963	41.45
1.96630	41.78
1.98297	42.12
1.99963	42.44
2.01630	42.78
2.03297	43.08
2.04963	43.39
2.06630	43.72
2.08297	44.06
2.09963	44.39
2.11630	44.71
2.13297	45.05
2.14963	45.35
2.16630	45.69
2.18297	46.02
2.19963	46.35
2.21630	46.69
2.23297	46.99
2.24963	47.32
2.26630	47.65
2.28297	48.03
2.29963	48.36
2.31630	48.66
2.33297	49.00
2.34963	49.32
2.36630	49.52
2.38297	49.61
2.39963	49.60
2.41630	49.62
2.43297	49.63
2.44963	49.66
2.46630	49.67
2.48297	49.67
2.49963	49.69
2.51630	49.69
2.53297	49.70
2.54963	49.71
2.56630	49.73
2.58297	49.76
2.59963	49.78
2.61630	49.80
2.63297	49.81
2.64963	49.82
2.66630	49.84
2.68297	49.84
2.69963	49.86
2.71630	49.87
2.73297	49.86
2.74963	49.84
2.76630	49.86
2.78297	49.87
2.79963	49.87
2.81630	49.87
2.83297	49.86
2.84963	49.86
2.86630	49.87
2.88297	49.88
2.89963	49.90
2.91630	49.92
2.93297	49.93
2.94963	49.96
2.96630	49.99
2.98297	50.00
2.99963	50.01
3.01630	50.02
3.03297	50.02
3.04963	50.00
3.06630	50.00
3.08297	50.00
3.09963	50.01
3.11630	50.00
3.13297	50.00
3.14963	50.00
3.16630	50.00
3.18297	50.01
3.19963	50.02
3.21630	50.03
3.23297	50.05
3.24963	50.06
3.26630	50.06
3.28297	50.06
3.29963	50.06
3.31630	50.08
3.33297	50.10
3.34963	50.10
3.36630	50.10
3.38297	50.10
3.39963	50.08
3.41630	50.07
3.43297	50.06
3.44963	50.07
3.46630	50.08
3.48297	50.09
3.49963	50.09
3.51630	50.08
3.53297	50.08
3.54963	50.08
3.56630	50.07
3.58297	50.08
3.59963	50.08
3.61630	50.09
3.63297	50.10
3.64963	50.10
3.66630	50.10
3.68297	50.08
3.69963	50.09
3.71630	50.09
3.73297	50.09
3.74963	50.09
3.76630	50.08
3.78297	50.08
3.79963	50.07
3.81630	50.06
3.83297	50.05
3.84963	50.04
3.86630	50.04
3.88297	50.03
3.89963	50.03
3.91630	50.05
3.93297	50.05
3.94963	50.06
3.96630	50.05
3.98297	50.05
3.99963	50.05

[Status Trace (Injection Unit Temperature)]
Interval(msec)	1000
# of Points	240
Start Time(min)	0.016
End Time(min)	4.000
Intensity Units	
Intensity Multiplier	1
R.Time (min)	Intensity
0.01630	99.97
0.03297	99.97
0.04963	99.98
0.06630	99.97
0.08297	99.97
0.09963	99.97
0.11630	99.97
0.13297	99.97
0.14963	99.97
0.16630	99.98
0.18297	99.98
0.19963	99.98
0.21630	99.98
0.23297	99.98
0.24963	99.98
0.26630	99.98
0.28297	99.98
0.29963	99.98
0.31630	99.98
0.33297	99.98
0.34963	99.98
0.36630	99.98
0.38297	99.98
0.39963	99.98
0.41630	99.98
0.43297	99.98
0.44963	99.98
0.46630	99.98
0.48297	99.98
0.49963	99.98
0.51630	99.97
0.53297	99.97
0.54963	99.98
0.56630	99.97
0.58297	99.98
0.59963	99.98
0.61630	99.98
0.63297	99.98
0.64963	99.98
0.66630	99.98
0.68297	99.98
0.69963	99.98
0.71630	99.97
0.73297	99.98
0.74963	99.97
0.76630	99.97
0.78297	99.98
0.79963	99.97
0.81630	99.98
0.83297	99.98
0.84963	99.97
0.86630	99.97
0.88297	99.98
0.89963	99.97
0.91630	99.97
0.93297	99.97
0.94963	99.97
0.96630	99.97
0.98297	99.97
0.99963	99.98
1.01630	99.97
1.03297	99.97
1.04963	99.97
1.06630	99.97
1.08297	99.97
1.09963	99.97
1.11630	99.98
1.13297	99.98
1.14963	99.97
1.16630	99.98
1.18297	99.98
1.19963	99.98
1.21630	99.98
1.23297	99.98
1.24963	99.98
1.26630	99.98
1.28297	99.98
1.29963	99.98
1.31630	99.98
1.33297	99.98
1.34963	99.98
1.36630	99.98
1.38297	99.98
1.39963	99.98
1.41630	99.99
1.43297	99.99
1.44963	99.98
1.46630	99.99
1.48297	99.98
1.49963	99.98
1.51630	99.99
1.53297	99.99
1.54963	99.99
1.56630	99.99
1.58297	99.99
1.59963	99.99
1.61630	99.98
1.63297	99.98
1.64963	99.99
1.66630	99.99
1.68297	99.99
1.69963	99.99
1.71630	99.98
1.73297	99.98
1.74963	99.99
1.76630	99.98
1.78297	99.98
1.79963	99.98
1.81630	99.98
1.83297	99.97
1.84963	99.98
1.86630	99.98
1.88297	99.98
1.89963	99.98
1.91630	99.98
1.93297	99.98
1.94963	99.98
1.96630	99.97
1.98297	99.97
1.99963	99.97
2.01630	99.97
2.03297	99.97
2.04963	99.97
2.06630	99.97
2.08297	99.97
2.09963	99.97
2.11630	99.96
2.13297	99.96
2.14963	99.97
2.16630	99.97
2.18297	99.96
2.19963	99.96
2.21630	99.96
2.23297	99.96
2.24963	99.96
2.26630	99.96
2.28297	99.96
2.29963	99.96
2.31630	99.96
2.33297	99.96
2.34963	99.96
2.36630	99.95
2.38297	99.96
2.39963	99.96
2.41630	99.96
2.43297	99.95
2.44963	99.96
2.46630	99.96
2.48297	99.96
2.49963	99.96
2.51630	99.96
2.53297	99.96
2.54963	99.96
2.56630	99.96
2.58297	99.97
2.59963	99.96
2.61630	99.96
2.63297	99.97
2.64963	99.96
2.66630	99.97
2.68297	99.97
2.69963	99.97
2.71630	99.97
2.73297	99.97
2.74963	99.98
2.76630	99.98
2.78297	99.98
2.79963	99.98
2.81630	99.98
2.83297	99.98
2.84963	99.99
2.86630	99.99
2.88297	99.99
2.89963	99.99
2.91630	100.00
2.93297	99.99
2.94963	99.99
2.96630	100.00
2.98297	100.00
2.99963	100.01
3.01630	100.01
3.03297	100.01
3.04963	100.01
3.06630	100.01
3.08297	100.02
3.09963	100.02
3.11630	100.01
3.13297	100.01
3.14963	100.02
3.16630	100.02
3.18297	100.02
3.19963	100.02
3.21630	100.03
3.23297	100.03
3.24963	100.02
3.26630	100.03
3.28297	100.03
3.29963	100.03
3.31630	100.03
3.33297	100.03
3.34963	100.03
3.36630	100.03
3.38297	100.03
3.39963	100.04
3.41630	100.03
3.43297	100.03
3.44963	100.04
3.46630	100.03
3.48297	100.04
3.49963	100.04
3.51630	100.04
3.53297	100.04
3.54963	100.04
3.56630	100.04
3.58297	100.04
3.59963	100.05
3.61630	100.04
3.63297	100.04
3.64963	100.05
3.66630	100.04
3.68297	100.04
3.69963	100.05
3.71630	100.04
3.73297	100.04
3.74963	100.04
3.76630	100.04
3.78297	100.05
3.79963	100.04
3.81630	100.03
3.83297	100.05
3.84963	100.05
3.86630	100.05
3.88297	100.05
3.89963	100.05
3.91630	100.05
3.93297	100.05
3.94963	100.05
3.96630	100.05
3.98297	100.05
3.99963	100.05

[Status Trace (Carrier Gas Pressure)]
Interval(msec)	1000
# of Points	240
Start Time(min)	0.016
End Time(min)	4.000
Intensity Units	
Intensity Multiplier	1
R.Time (min)	Intensity
0.01630	56.92
0.03297	55.90
0.04963	58.28
0.06630	59.89
0.08297	58.47
0.09963	57.97
0.11630	58.00
0.13297	58.01
0.14963	58.01
0.16630	58.01
0.18297	58.00
0.19963	58.00
0.21630	58.00
0.23297	58.00
0.24963	58.00
0.26630	58.00
0.28297	58.00
0.29963	58.00
0.31630	58.00
0.33297	58.00
0.34963	58.00
0.36630	58.00
0.38297	58.00
0.39963	58.00
0.41630	58.00
0.43297	58.00
0.44963	58.00
0.46630	58.00
0.48297	58.00
0.49963	58.00
0.51630	58.00
0.53297	58.00
0.54963	58.00
0.56630	58.00
0.58297	58.00
0.59963	58.00
0.61630	58.00
0.63297	58.00
0.64963	58.00
0.66630	58.00
0.68297	58.00
0.69963	58.00
0.71630	58.00
0.73297	58.00
0.74963	58.00
0.76630	58.00
0.78297	58.00
0.79963	58.00
0.81630	58.00
0.83297	58.00
0.84963	58.00
0.86630	58.00
0.88297	58.00
0.89963	58.00
0.91630	58.00
0.93297	58.00
0.94963	58.00
0.96630	58.00
0.98297	58.00
0.99963	58.00
1.01630	58.00
1.03297	58.00
1.04963	58.00
1.06630	58.00
1.08297	58.00
1.09963	58.00
1.11630	58.00
1.13297	58.00
1.14963	58.00
1.16630	58.00
1.18297	58.00
1.19963	58.00
1.21630	58.00
1.23297	58.00
1.24963	58.00
1.26630	58.00
1.28297	58.00
1.29963	58.00
1.31630	58.00
1.33297	58.00
1.34963	58.00
1.36630	58.00
1.38297	58.00
1.39963	58.00
1.41630	58.00
1.43297	58.00
1.44963	58.00
1.46630	58.00
1.48297	58.00
1.49963	58.00
1.51630	58.00
1.53297	58.00
1.54963	58.00
1.56630	58.00
1.58297	58.00
1.59963	58.00
1.61630	58.00
1.63297	58.00
1.64963	58.00
1.66630	58.00
1.68297	58.01
1.69963	58.00
1.71630	58.00
1.73297	58.00
1.74963	58.00
1.76630	58.00
1.78297	58.00
1.79963	58.00
1.81630	58.00
1.83297	58.00
1.84963	58.00
1.86630	58.00
1.88297	58.00
1.89963	58.00
1.91630	58.00
1.93297	58.00
1.94963	58.00
1.96630	58.00
1.98297	58.00
1.99963	58.00
2.01630	58.00
2.03297	58.00
2.04963	58.00
2.06630	58.00
2.08297	58.00
2.09963	58.00
2.11630	58.00
2.13297	58.00
2.14963	58.00
2.16630	58.00
2.18297	58.00
2.19963	58.00
2.21630	58.00
2.23297	58.00
2.24963	58.00
2.26630	58.00
2.28297	58.00
2.29963	58.00
2.31630	58.00
2.33297	58.00
2.34963	58.00
2.36630	58.00
2.38297	57.99
2.39963	57.99
2.41630	58.00
2.43297	58.00
2.44963	58.00
2.46630	58.00
2.48297	58.00
2.49963	58.00
2.51630	57.99
2.53297	57.99
2.54963	58.00
2.56630	58.00
2.58297	58.00
2.59963	58.00
2.61630	58.00
2.63297	58.00
2.64963	58.00
2.66630	58.00
2.68297	58.00
2.69963	58.00
2.71630	58.00
2.73297	58.00
2.74963	58.00
2.76630	58.00
2.78297	58.00
2.79963	58.00
2.81630	58.00
2.83297	58.00
2.84963	58.00
2.86630	58.00
2.88297	58.00
2.89963	58.00
2.91630	58.00
2.93297	58.00
2.94963	58.00
2.96630	58.00
2.98297	58.00
2.99963	58.00
3.01630	58.00
3.03297	58.00
3.04963	58.00
3.06630	58.00
3.08297	58.00
3.09963	58.00
3.11630	58.00
3.13297	58.00
3.14963	58.00
3.16630	58.00
3.18297	58.00
3.19963	58.00
3.21630	58.00
3.23297	58.00
3.24963	58.00
3.26630	58.00
3.28297	58.00
3.29963	58.00
3.31630	58.00
3.33297	58.00
3.34963	58.00
3.36630	58.00
3.38297	58.00
3.39963	58.00
3.41630	58.00
3.43297	58.00
3.44963	58.00
3.46630	58.00
3.48297	58.00
3.49963	58.00
3.51630	58.00
3.53297	58.00
3.54963	58.00
3.56630	58.00
3.58297	58.00
3.59963	58.00
3.61630	58.00
3.63297	58.00
3.64963	58.00
3.66630	58.00
3.68297	58.00
3.69963	58.00
3.71630	58.00
3.73297	58.00
3.74963	58.00
3.76630	58.00
3.78297	58.00
3.79963	58.00
3.81630	58.00
3.83297	58.00
3.84963	58.00
3.86630	58.00
3.88297	58.00
3.89963	58.00
3.91630	58.00
3.93297	58.00
3.94963	58.00
3.96630	58.00
3.98297	58.00
3.99963	58.00

[Status Trace (Carrier Gas Flow)]
Interval(msec)	1000
# of Points	240
Start Time(min)	0.016
End Time(min)	4.000
Intensity Units	
Intensity Multiplier	1
R.Time (min)	Intensity
0.01630	33.80
0.03297	34.54
0.04963	34.55
0.06630	34.50
0.08297	34.51
0.09963	34.51
0.11630	34.52
0.13297	34.51
0.14963	34.53
0.16630	34.52
0.18297	34.51
0.19963	34.52
0.21630	34.51
0.23297	34.52
0.24963	34.52
0.26630	34.52
0.28297	34.52
0.29963	34.52
0.31630	34.51
0.33297	34.52
0.34963	34.52
0.36630	34.52
0.38297	34.52
0.39963	34.52
0.41630	34.52
0.43297	34.52
0.44963	34.52
0.46630	34.52
0.48297	34.52
0.49963	34.53
0.51630	34.51
0.53297	34.52
0.54963	34.52
0.56630	34.52
0.58297	34.52
0.59963	34.51
0.61630	34.52
0.63297	34.51
0.64963	34.52
0.66630	34.52
0.68297	34.52
0.69963	34.52
0.71630	34.51
0.73297	34.51
0.74963	34.52
0.76630	34.52
0.78297	34.52
0.79963	34.52
0.81630	34.52
0.83297	34.52
0.84963	34.52
0.86630	34.52
0.88297	34.52
0.89963	34.52
0.91630	34.52
0.93297	34.52
0.94963	34.52
0.96630	34.52
0.98297	34.52
0.99963	34.52
1.01630	34.52
1.03297	34.52
1.04963	34.52
1.06630	34.52
1.08297	34.51
1.09963	34.52
1.11630	34.52
1.13297	34.52
1.14963	34.52
1.16630	34.52
1.18297	34.52
1.19963	34.52
1.21630	34.52
1.23297	34.52
1.24963	34.52
1.26630	34.52
1.28297	34.52
1.29963	34.52
1.31630	34.52
1.33297	34.52
1.34963	34.52
1.36630	34.52
1.38297	34.51
1.39963	34.52
1.41630	34.52
1.43297	34.52
1.44963	34.52
1.46630	34.52
1.48297	34.52
1.49963	34.52
1.51630	34.52
1.53297	34.52
1.54963	34.52
1.56630	34.51
1.58297	34.52
1.59963	34.52
1.61630	34.52
1.63297	34.52
1.64963	34.52
1.66630	34.52
1.68297	34.52
1.69963	34.52
1.71630	34.52
1.73297	34.51
1.74963	34.52
1.76630	34.52
1.78297	34.52
1.79963	34.51
1.81630	34.52
1.83297	34.51
1.84963	34.52
1.86630	34.52
1.88297	34.52
1.89963	34.52
1.91630	34.52
1.93297	34.52
1.94963	34.51
1.96630	34.52
1.98297	34.52
1.99963	34.52
2.01630	34.52
2.03297	34.52
2.04963	34.52
2.06630	34.52
2.08297	34.52
2.09963	34.52
2.11630	34.52
2.13297	34.52
2.14963	34.52
2.16630	34.52
2.18297	34.52
2.19963	34.52
2.21630	34.52
2.23297	34.52
2.24963	34.52
2.26630	34.52
2.28297	34.52
2.29963	34.51
2.31630	34.52
2.33297	34.52
2.34963	34.52
2.36630	34.52
2.38297	34.52
2.39963	34.52
2.41630	34.52
2.43297	34.52
2.44963	34.52
2.46630	34.52
2.48297	34.52
2.49963	34.52
2.51630	34.52
2.53297	34.52
2.54963	34.52
2.56630	34.52
2.58297	34.52
2.59963	34.52
2.61630	34.52
2.63297	34.52
2.64963	34.52
2.66630	34.52
2.68297	34.52
2.69963	34.52
2.71630	34.52
2.73297	34.52
2.74963	34.53
2.76630	34.52
2.78297	34.52
2.79963	34.52
2.81630	34.52
2.83297	34.52
2.84963	34.52
2.86630	34.53
2.88297	34.52
2.89963	34.52
2.91630	34.52
2.93297	34.53
2.94963	34.52
2.96630	34.51
2.98297	34.51
2.99963	34.52
3.01630	34.52
3.03297	34.51
3.04963	34.51
3.06630	34.52
3.08297	34.52
3.09963	34.52
3.11630	34.52
3.13297	34.52
3.14963	34.52
3.16630	34.52
3.18297	34.52
3.19963	34.52
3.21630	34.52
3.23297	34.52
3.24963	34.52
3.26630	34.52
3.28297	34.52
3.29963	34.52
3.31630	34.52
3.33297	34.52
3.34963	34.52
3.36630	34.52
3.38297	34.52
3.39963	34.51
3.41630	34.52
3.43297	34.52
3.44963	34.52
3.46630	34.52
3.48297	34.52
3.49963	34.52
3.51630	34.52
3.53297	34.52
3.54963	34.53
3.56630	34.52
3.58297	34.52
3.59963	34.52
3.61630	34.52
3.63297	34.52
3.64963	34.52
3.66630	34.52
3.68297	34.52
3.69963	34.52
3.71630	34.52
3.73297	34.52
3.74963	34.52
3.76630	34.52
3.78297	34.52
3.79963	34.52
3.81630	34.52
3.83297	34.52
3.84963	34.52
3.86630	34.52
3.88297	34.51
3.89963	34.52
3.91630	34.51
3.93297	34.52
3.94963	34.52
3.96630	34.52
3.98297	34.52
3.99963	34.52

[Status Trace (Column Flow)]
Interval(msec)	1000
# of Points	240
Start Time(min)	0.016
End Time(min)	4.000
Intensity Units	
Intensity Multiplier	1
R.Time (min)	Intensity
0.01630	5.40
0.03297	5.29
0.04963	5.56
0.06630	5.75
0.08297	5.58
0.09963	5.53
0.11630	5.53
0.13297	5.53
0.14963	5.53
0.16630	5.53
0.18297	5.53
0.19963	5.53
0.21630	5.53
0.23297	5.53
0.24963	5.53
0.26630	5.53
0.28297	5.53
0.29963	5.53
0.31630	5.53
0.33297	5.53
0.34963	5.53
0.36630	5.53
0.38297	5.53
0.39963	5.53
0.41630	5.53
0.43297	5.53
0.44963	5.53
0.46630	5.53
0.48297	5.53
0.49963	5.53
0.51630	5.53
0.53297	5.53
0.54963	5.53
0.56630	5.53
0.58297	5.53
0.59963	5.53
0.61630	5.53
0.63297	5.53
0.64963	5.53
0.66630	5.53
0.68297	5.53
0.69963	5.53
0.71630	5.53
0.73297	5.53
0.74963	5.53
0.76630	5.53
0.78297	5.53
0.79963	5.53
0.81630	5.53
0.83297	5.53
0.84963	5.53
0.86630	5.53
0.88297	5.53
0.89963	5.53
0.91630	5.53
0.93297	5.53
0.94963	5.53
0.96630	5.53
0.98297	5.53
0.99963	5.53
1.01630	5.53
1.03297	5.53
1.04963	5.53
1.06630	5.53
1.08297	5.53
1.09963	5.53
1.11630	5.53
1.13297	5.53
1.14963	5.53
1.16630	5.53
1.18297	5.53
1.19963	5.53
1.21630	5.53
1.23297	5.53
1.24963	5.53
1.26630	5.53
1.28297	5.53
1.29963	5.53
1.31630	5.53
1.33297	5.53
1.34963	5.53
1.36630	5.53
1.38297	5.53
1.39963	5.53
1.41630	5.53
1.43297	5.53
1.44963	5.53
1.46630	5.53
1.48297	5.53
1.49963	5.53
1.51630	5.53
1.53297	5.53
1.54963	5.53
1.56630	5.53
1.58297	5.53
1.59963	5.53
1.61630	5.53
1.63297	5.52
1.64963	5.51
1.66630	5.51
1.68297	5.49
1.69963	5.48
1.71630	5.47
1.73297	5.46
1.74963	5.45
1.76630	5.44
1.78297	5.43
1.79963	5.42
1.81630	5.41
1.83297	5.40
1.84963	5.39
1.86630	5.38
1.88297	5.37
1.89963	5.36
1.91630	5.35
1.93297	5.34
1.94963	5.33
1.96630	5.32
1.98297	5.31
1.99963	5.30
2.01630	5.29
2.03297	5.28
2.04963	5.27
2.06630	5.26
2.08297	5.25
2.09963	5.25
2.11630	5.24
2.13297	5.23
2.14963	5.22
2.16630	5.21
2.18297	5.20
2.19963	5.19
2.21630	5.18
2.23297	5.17
2.24963	5.16
2.26630	5.15
2.28297	5.14
2.29963	5.13
2.31630	5.12
2.33297	5.11
2.34963	5.10
2.36630	5.10
2.38297	5.10
2.39963	5.10
2.41630	5.10
2.43297	5.10
2.44963	5.10
2.46630	5.10
2.48297	5.09
2.49963	5.09
2.51630	5.09
2.53297	5.09
2.54963	5.09
2.56630	5.09
2.58297	5.09
2.59963	5.09
2.61630	5.09
2.63297	5.09
2.64963	5.09
2.66630	5.09
2.68297	5.09
2.69963	5.09
2.71630	5.09
2.73297	5.09
2.74963	5.09
2.76630	5.09
2.78297	5.09
2.79963	5.09
2.81630	5.09
2.83297	5.09
2.84963	5.09
2.86630	5.09
2.88297	5.09
2.89963	5.09
2.91630	5.09
2.93297	5.09
2.94963	5.09
2.96630	5.09
2.98297	5.09
2.99963	5.09
3.01630	5.09
3.03297	5.09
3.04963	5.09
3.06630	5.09
3.08297	5.09
3.09963	5.09
3.11630	5.09
3.13297	5.09
3.14963	5.09
3.16630	5.09
3.18297	5.09
3.19963	5.09
3.21630	5.08
3.23297	5.08
3.24963	5.08
3.26630	5.08
3.28297	5.08
3.29963	5.08
3.31630	5.08
3.33297	5.08
3.34963	5.08
3.36630	5.08
3.38297	5.08
3.39963	5.08
3.41630	5.08
3.43297	5.08
3.44963	5.08
3.46630	5.08
3.48297	5.08
3.49963	5.08
3.51630	5.08
3.53297	5.08
3.54963	5.08
3.56630	5.08
3.58297	5.08
3.59963	5.08
3.61630	5.08
3.63297	5.08
3.64963	5.08
3.66630	5.08
3.68297	5.08
3.69963	5.08
3.71630	5.08
3.73297	5.08
3.74963	5.08
3.76630	5.08
3.78297	5.08
3.79963	5.08
3.81630	5.08
3.83297	5.08
3.84963	5.08
3.86630	5.08
3.88297	5.09
3.89963	5.09
3.91630	5.08
3.93297	5.08
3.94963	5.08
3.96630	5.08
3.98297	5.08
3.99963	5.08

[Status Trace (Linear Velocity)]
Interval(msec)	1000
# of Points	240
Start Time(min)	0.016
End Time(min)	4.000
Intensity Units	
Intensity Multiplier	1
R.Time (min)	Intensity
0.01630	38.31
0.03297	37.64
0.04963	39.20
0.06630	40.26
0.08297	39.33
0.09963	39.00
0.11630	39.02
0.13297	39.03
0.14963	39.02
0.16630	39.02
0.18297	39.02
0.19963	39.02
0.21630	39.02
0.23297	39.02
0.24963	39.02
0.26630	39.02
0.28297	39.02
0.29963	39.02
0.31630	39.02
0.33297	39.02
0.34963	39.02
0.36630	39.02
0.38297	39.02
0.39963	39.02
0.41630	39.02
0.43297	39.02
0.44963	39.02
0.46630	39.02
0.48297	39.02
0.49963	39.02
0.51630	39.02
0.53297	39.02
0.54963	39.02
0.56630	39.02
0.58297	39.02
0.59963	39.02
0.61630	39.02
0.63297	39.02
0.64963	39.02
0.66630	39.02
0.68297	39.02
0.69963	39.02
0.71630	39.02
0.73297	39.02
0.74963	39.02
0.76630	39.02
0.78297	39.02
0.79963	39.02
0.81630	39.02
0.83297	39.02
0.84963	39.02
0.86630	39.02
0.88297	39.02
0.89963	39.02
0.91630	39.02
0.93297	39.02
0.94963	39.02
0.96630	39.02
0.98297	39.02
0.99963	39.02
1.01630	39.02
1.03297	39.02
1.04963	39.02
1.06630	39.02
1.08297	39.02
1.09963	39.02
1.11630	39.02
1.13297	39.02
1.14963	39.02
1.16630	39.02
1.18297	39.02
1.19963	39.02
1.21630	39.02
1.23297	39.02
1.24963	39.02
1.26630	39.02
1.28297	39.02
1.29963	39.02
1.31630	39.02
1.33297	39.02
1.34963	39.02
1.36630	39.02
1.38297	39.02
1.39963	39.02
1.41630	39.02
1.43297	39.02
1.44963	39.02
1.46630	39.02
1.48297	39.02
1.49963	39.02
1.51630	39.02
1.53297	39.02
1.54963	39.02
1.56630	39.02
1.58297	39.02
1.59963	39.01
1.61630	39.01
1.63297	38.99
1.64963	38.97
1.66630	38.95
1.68297	38.91
1.69963	38.88
1.71630	38.84
1.73297	38.81
1.74963	38.78
1.76630	38.75
1.78297	38.71
1.79963	38.68
1.81630	38.66
1.83297	38.63
1.84963	38.59
1.86630	38.56
1.88297	38.53
1.89963	38.50
1.91630	38.47
1.93297	38.44
1.94963	38.41
1.96630	38.38
1.98297	38.35
1.99963	38.32
2.01630	38.29
2.03297	38.26
2.04963	38.23
2.06630	38.20
2.08297	38.17
2.09963	38.14
2.11630	38.11
2.13297	38.08
2.14963	38.05
2.16630	38.02
2.18297	37.99
2.19963	37.96
2.21630	37.93
2.23297	37.90
2.24963	37.87
2.26630	37.84
2.28297	37.81
2.29963	37.78
2.31630	37.75
2.33297	37.72
2.34963	37.69
2.36630	37.67
2.38297	37.67
2.39963	37.67
2.41630	37.67
2.43297	37.67
2.44963	37.66
2.46630	37.66
2.48297	37.66
2.49963	37.66
2.51630	37.65
2.53297	37.66
2.54963	37.66
2.56630	37.66
2.58297	37.66
2.59963	37.65
2.61630	37.65
2.63297	37.65
2.64963	37.65
2.66630	37.65
2.68297	37.65
2.69963	37.65
2.71630	37.65
2.73297	37.65
2.74963	37.65
2.76630	37.65
2.78297	37.65
2.79963	37.65
2.81630	37.65
2.83297	37.65
2.84963	37.65
2.86630	37.65
2.88297	37.65
2.89963	37.64
2.91630	37.64
2.93297	37.64
2.94963	37.64
2.96630	37.64
2.98297	37.63
2.99963	37.63
3.01630	37.63
3.03297	37.63
3.04963	37.63
3.06630	37.63
3.08297	37.63
3.09963	37.63
3.11630	37.63
3.13297	37.63
3.14963	37.64
3.16630	37.63
3.18297	37.63
3.19963	37.63
3.21630	37.63
3.23297	37.63
3.24963	37.63
3.26630	37.63
3.28297	37.63
3.29963	37.63
3.31630	37.63
3.33297	37.63
3.34963	37.63
3.36630	37.63
3.38297	37.63
3.39963	37.63
3.41630	37.63
3.43297	37.63
3.44963	37.63
3.46630	37.63
3.48297	37.63
3.49963	37.63
3.51630	37.63
3.53297	37.63
3.54963	37.63
3.56630	37.63
3.58297	37.63
3.59963	37.63
3.61630	37.63
3.63297	37.63
3.64963	37.63
3.66630	37.63
3.68297	37.63
3.69963	37.63
3.71630	37.63
3.73297	37.63
3.74963	37.63
3.76630	37.63
3.78297	37.63
3.79963	37.63
3.81630	37.63
3.83297	37.63
3.84963	37.63
3.86630	37.63
3.88297	37.63
3.89963	37.63
3.91630	37.63
3.93297	37.63
3.94963	37.63
3.96630	37.63
3.98297	37.63
3.99963	37.63

