[Header]
Application Name	LabSolutions
Version	5.110
Data File Name	C:\Users\User\Desktop\GC Analyses\Jack\Nachusa Grasslands Sampling\T3 Timepoint July 12th\T3_07122022_053.gcd
Output Date	3/14/2023
Output Time	3:43:33 PM

[File Information]
Type	Data File
Generated	3/13/2023 8:22:17 PM
Generated by	System Administrator
Modified	3/13/2023 8:29:03 PM
Modified by	System Administrator

[Sample Information]
Operator Name	System Administrator
Acquired	3/13/2023 8:25:02 PM
Sample Type	0:Unknown
Level	0
Sample Name	053
Sample ID	053
ISTD Amount1	1
ISTD Amount2	1
ISTD Amount3	1
ISTD Amount4	1
ISTD Amount5	1
ISTD Amount6	1
ISTD Amount7	1
ISTD Amount8	1
ISTD Amount9	1
ISTD Amount10	1
ISTD Amount11	1
ISTD Amount12	1
ISTD Amount13	1
ISTD Amount14	1
ISTD Amount15	1
ISTD Amount16	1
ISTD Amount17	1
ISTD Amount18	1
ISTD Amount19	1
ISTD Amount20	1
ISTD Amount21	1
ISTD Amount22	1
ISTD Amount23	1
ISTD Amount24	1
ISTD Amount25	1
ISTD Amount26	1
ISTD Amount27	1
ISTD Amount28	1
ISTD Amount29	1
ISTD Amount30	1
ISTD Amount31	1
ISTD Amount32	1
Sample Amount	1
Dilution Factor	1
Vial#	52
Injection Volume	1
Injection Count	1
Bar Code	

[Original Files]
Data File	C:\Users\User\Desktop\GC Analyses\Jack\Nachusa Grasslands Sampling\T3 Timepoint July 12th\T3_07122022_053.gcd
Method File	C:\LabSolutions\Data\GHG_4min_2022\ghg3_togas_w_acet_4 min_new_int.gcm
Batch File	C:\LabSolutions\Data\AutoSamplerTesting\T3_07122022.gcb
Report Format File	c:\LabSolutions\System\DEFAULT.lsr

[File Description]


[Configuration]
Instrument Name	C0B7VH3-Instrument1
Instrument #	1
Line #	1
# of Detectors	3
Detector ID	DET#1	DET#2	DET#3
Detector Name	FID	PTCD	ECD
# of Channels	1	1	1

[Peak Table(Ch1)]
# of Peaks	3
Peak#	R.Time	I.Time	F.Time	Area	Height	A/H	Conc.	Mark	ID#	Name	k'	Plate #	Plate Ht.	Tailing	Resolution	Sep.Factor	Area Ratio	Height Ratio	Conc. %	Norm Conc.
1	1.454	1.336	1.509	1628	691	2.356	11.495	   	1	CO	0.000	16746	8.957	0.701	0.000	0.000	0	0	1.207	1.207
2	1.571	1.531	1.648	21022	10562	1.990	406.473	   	2	CH4	0.081	11513	13.029	1.137	2.267	0.000	0	0	42.690	42.690
3	1.996	1.952	2.319	2128419	1020077	2.087	534.175	   	3	CO2	0.373	17440	8.601	1.336	7.146	4.625	0	0	56.102	56.102

[Peak Table(Ch2)]
# of Peaks	0

[Peak Table(Ch3)]
# of Peaks	5
Peak#	R.Time	I.Time	F.Time	Area	Height	A/H	Conc.	Mark	ID#	Name	k'	Plate #	Plate Ht.	Tailing	Resolution	Sep.Factor	Area Ratio	Height Ratio	Conc. %	Norm Conc.
1	2.462	2.440	2.510	1466	549	2.671	0.000	   			0.000	13855	10.827	0.000	0.000	0.000	0	0	0.000	0.000
2	2.532	2.510	2.583	781	277	2.821	0.000	 V 			0.028	7575	19.801	0.000	0.697	0.000	0	0	0.000	0.000
3	2.609	2.583	2.664	333	103	3.233	0.000	 V 			0.060	4056	36.985	0.000	0.550	2.105	0	0	0.000	0.000
4	2.880	2.807	3.100	58433	15148	3.857	1.492	   	1	N2O	0.170	12735	11.779	1.546	2.041	2.850	0	0	100.000	100.000
5	3.309	3.107	3.995	20150	674	29.915	0.000	   	2	SF6	0.344	222	676.347	2.162	0.866	2.026	0	0	0.000	0.000

[Compound Results(Ch1)]
# of IDs	6
ID#	Name	R.Time	Area	Height	Conc.	Curve	3rd	2nd	1st	Constant	Area Ratio	Height Ratio	Conc. %	Norm Conc.
1	CO	1.454	1628	691	11.495	Linear	0.000000e+00	0.000000e+00	1.416423e+002	0.000000e+00	0	0	1.207	1.207
2	CH4	1.571	21022	10562	406.473	Linear	0.000000e+00	0.000000e+00	5.171738e+001	0.000000e+00	0	0	42.690	42.690
3	CO2	1.996	2128419	1020077	534.175	Linear	0.000000e+00	0.000000e+00	3.984494e+003	0.000000e+00	0	0	56.102	56.102
4	Ethylene	0.000	0	0	0.000	Linear	0.000000e+00	0.000000e+00	0.000000e+00	0.000000e+00	0	0	0.000	0.000
5	Acetylene	0.000	0	0	0.000	Linear	0.000000e+00	0.000000e+00	0.000000e+00	0.000000e+00	0	0	0.000	0.000
6	Ethane	0.000	0	0	0.000	Linear	0.000000e+00	0.000000e+00	0.000000e+00	0.000000e+00	0	0	0.000	0.000

[Compound Results(Ch2)]
# of IDs	5
ID#	Name	R.Time	Area	Height	Conc.	Curve	3rd	2nd	1st	Constant	Area Ratio	Height Ratio	Conc. %	Norm Conc.
1	Hydrogen	0.000	0	0	0.000	Linear	0.000000e+00	0.000000e+00	0.000000e+00	0.000000e+00	0	0	0.000	0.000
2	Oxygen	0.000	0	0	0.000	Linear	0.000000e+00	0.000000e+00	0.000000e+00	0.000000e+00	0	0	0.000	0.000
3	Nitrogen	0.000	0	0	0.000	Linear	0.000000e+00	0.000000e+00	0.000000e+00	0.000000e+00	0	0	0.000	0.000
4	Methane	0.000	0	0	0.000	Linear	0.000000e+00	0.000000e+00	0.000000e+00	0.000000e+00	0	0	0.000	0.000
5	Carbon Monoxide	0.000	0	0	0.000	Linear	0.000000e+00	0.000000e+00	0.000000e+00	0.000000e+00	0	0	0.000	0.000

[Compound Results(Ch3)]
# of IDs	2
ID#	Name	R.Time	Area	Height	Conc.	Curve	3rd	2nd	1st	Constant	Area Ratio	Height Ratio	Conc. %	Norm Conc.
1	N2O	2.880	58433	15148	1.492	Linear	0.000000e+00	0.000000e+00	3.915173e+004	0.000000e+00	0	0	100.000	100.000
2	SF6	3.309	20150	674	0.000	Linear	0.000000e+00	0.000000e+00	0.000000e+00	0.000000e+00	0	0	0.000	0.000

[Group Results(Ch1)]
# of Groups	0

[Group Results(Ch2)]
# of Groups	0

[Group Results(Ch3)]
# of Groups	0

[Chromatogram (Ch1)]
Interval(msec)	220
# of Points	1091
Start Time(min)	0.002
End Time(min)	3.998
R.Time (min)	Intensity
0.00167	47
0.00533	44
0.00900	36
0.01267	28
0.01633	27
0.02000	30
0.02367	31
0.02733	29
0.03100	24
0.03467	19
0.03833	16
0.04200	13
0.04567	12
0.04933	13
0.05300	19
0.05667	21
0.06033	22
0.06400	26
0.06767	28
0.07133	25
0.07500	26
0.07867	30
0.08233	38
0.08600	53
0.08967	61
0.09333	66
0.09700	68
0.10067	66
0.10433	60
0.10800	55
0.11167	52
0.11533	52
0.11900	50
0.12267	51
0.12633	61
0.13000	77
0.13367	89
0.13733	98
0.14100	99
0.14467	95
0.14833	89
0.15200	86
0.15567	88
0.15933	95
0.16300	99
0.16667	107
0.17033	114
0.17400	118
0.17767	127
0.18133	139
0.18500	144
0.18867	146
0.19233	143
0.19600	136
0.19967	126
0.20333	118
0.20700	117
0.21067	124
0.21433	130
0.21800	138
0.22167	143
0.22533	145
0.22900	143
0.23267	135
0.23633	125
0.24000	115
0.24367	109
0.24733	109
0.25100	111
0.25467	115
0.25833	118
0.26200	115
0.26567	104
0.26933	92
0.27300	84
0.27667	79
0.28033	74
0.28400	73
0.28767	73
0.29133	71
0.29500	70
0.29867	72
0.30233	78
0.30600	84
0.30967	93
0.31333	97
0.31700	95
0.32067	90
0.32433	86
0.32800	82
0.33167	76
0.33533	69
0.33900	58
0.34267	44
0.34633	30
0.35000	18
0.35367	12
0.35733	8
0.36100	6
0.36467	6
0.36833	10
0.37200	15
0.37567	21
0.37933	28
0.38300	33
0.38667	36
0.39033	33
0.39400	27
0.39767	25
0.40133	27
0.40500	27
0.40867	28
0.41233	32
0.41600	39
0.41967	45
0.42333	47
0.42700	46
0.43067	45
0.43433	49
0.43800	56
0.44167	59
0.44533	57
0.44900	54
0.45267	49
0.45633	45
0.46000	44
0.46367	45
0.46733	44
0.47100	42
0.47467	43
0.47833	44
0.48200	43
0.48567	38
0.48933	35
0.49300	38
0.49667	48
0.50033	55
0.50400	57
0.50767	56
0.51133	51
0.51500	43
0.51867	34
0.52233	26
0.52600	22
0.52967	24
0.53333	30
0.53700	37
0.54067	46
0.54433	58
0.54800	64
0.55167	65
0.55533	62
0.55900	60
0.56267	63
0.56633	67
0.57000	66
0.57367	60
0.57733	53
0.58100	48
0.58467	43
0.58833	41
0.59200	40
0.59567	42
0.59933	44
0.60300	45
0.60667	47
0.61033	48
0.61400	50
0.61767	49
0.62133	47
0.62500	47
0.62867	50
0.63233	56
0.63600	59
0.63967	55
0.64333	49
0.64700	44
0.65067	42
0.65433	46
0.65800	50
0.66167	54
0.66533	54
0.66900	50
0.67267	50
0.67633	54
0.68000	58
0.68367	61
0.68733	59
0.69100	56
0.69467	54
0.69833	50
0.70200	45
0.70567	41
0.70933	37
0.71300	37
0.71667	41
0.72033	45
0.72400	50
0.72767	56
0.73133	60
0.73500	64
0.73867	66
0.74233	65
0.74600	64
0.74967	60
0.75333	53
0.75700	45
0.76067	38
0.76433	37
0.76800	37
0.77167	40
0.77533	44
0.77900	47
0.78267	46
0.78633	43
0.79000	42
0.79367	46
0.79733	53
0.80100	57
0.80467	60
0.80833	63
0.81200	66
0.81567	69
0.81933	72
0.82300	73
0.82667	74
0.83033	74
0.83400	73
0.83767	71
0.84133	71
0.84500	74
0.84867	78
0.85233	73
0.85600	64
0.85967	50
0.86333	38
0.86700	33
0.87067	37
0.87433	44
0.87800	48
0.88167	49
0.88533	50
0.88900	51
0.89267	51
0.89633	47
0.90000	43
0.90367	41
0.90733	42
0.91100	43
0.91467	44
0.91833	50
0.92200	62
0.92567	77
0.92933	90
0.93300	100
0.93667	100
0.94033	91
0.94400	80
0.94767	74
0.95133	67
0.95500	61
0.95867	61
0.96233	68
0.96600	72
0.96967	73
0.97333	71
0.97700	69
0.98067	70
0.98433	73
0.98800	80
0.99167	88
0.99533	98
0.99900	107
1.00267	113
1.00633	115
1.01000	111
1.01367	104
1.01733	101
1.02100	103
1.02467	109
1.02833	109
1.03200	104
1.03567	96
1.03933	89
1.04300	82
1.04667	79
1.05033	74
1.05400	72
1.05767	73
1.06133	78
1.06500	84
1.06867	91
1.07233	99
1.07600	96
1.07967	92
1.08333	89
1.08700	85
1.09067	81
1.09433	76
1.09800	73
1.10167	71
1.10533	69
1.10900	69
1.11267	74
1.11633	78
1.12000	83
1.12367	90
1.12733	98
1.13100	104
1.13467	104
1.13833	100
1.14200	93
1.14567	86
1.14933	80
1.15300	79
1.15667	78
1.16033	76
1.16400	74
1.16767	74
1.17133	77
1.17500	79
1.17867	80
1.18233	82
1.18600	85
1.18967	82
1.19333	77
1.19700	73
1.20067	75
1.20433	76
1.20800	77
1.21167	77
1.21533	77
1.21900	77
1.22267	79
1.22633	82
1.23000	81
1.23367	84
1.23733	87
1.24100	87
1.24467	85
1.24833	85
1.25200	87
1.25567	91
1.25933	94
1.26300	89
1.26667	83
1.27033	77
1.27400	69
1.27767	63
1.28133	62
1.28500	68
1.28867	78
1.29233	89
1.29600	99
1.29967	103
1.30333	95
1.30700	80
1.31067	67
1.31433	56
1.31800	47
1.32167	41
1.32533	40
1.32900	39
1.33267	40
1.33633	42
1.34000	42
1.34367	48
1.34733	54
1.35100	55
1.35467	53
1.35833	50
1.36200	49
1.36567	46
1.36933	43
1.37300	43
1.37667	48
1.38033	54
1.38400	58
1.38767	62
1.39133	60
1.39500	56
1.39867	60
1.40233	64
1.40600	68
1.40967	72
1.41333	74
1.41700	77
1.42067	80
1.42433	84
1.42800	85
1.43167	80
1.43533	76
1.43900	85
1.44267	127
1.44633	254
1.45000	445
1.45367	559
1.45733	550
1.46100	450
1.46467	302
1.46833	149
1.47200	29
1.47567	-37
1.47933	-63
1.48300	-78
1.48667	-103
1.49033	-130
1.49400	-152
1.49767	-174
1.50133	-190
1.50500	-203
1.50867	-213
1.51233	-222
1.51600	-230
1.51967	-233
1.52333	-231
1.52700	-224
1.53067	-209
1.53433	-189
1.53800	-127
1.54167	137
1.54533	892
1.54900	2343
1.55267	4323
1.55633	6397
1.56000	8198
1.56367	9544
1.56733	10328
1.57100	10411
1.57467	9700
1.57833	8319
1.58200	6607
1.58567	4919
1.58933	3484
1.59300	2376
1.59667	1571
1.60033	1012
1.60400	638
1.60767	392
1.61133	235
1.61500	143
1.61867	87
1.62233	49
1.62600	19
1.62967	-2
1.63333	-16
1.63700	-27
1.64067	-36
1.64433	-41
1.64800	-41
1.65167	-35
1.65533	-28
1.65900	-23
1.66267	-19
1.66633	-16
1.67000	-17
1.67367	-22
1.67733	-26
1.68100	-30
1.68467	-29
1.68833	-24
1.69200	-19
1.69567	-21
1.69933	-20
1.70300	-13
1.70667	-5
1.71033	-2
1.71400	-4
1.71767	-5
1.72133	-0
1.72500	8
1.72867	16
1.73233	24
1.73600	32
1.73967	35
1.74333	33
1.74700	28
1.75067	21
1.75433	12
1.75800	4
1.76167	-1
1.76533	-2
1.76900	-2
1.77267	-3
1.77633	-2
1.78000	-0
1.78367	6
1.78733	13
1.79100	15
1.79467	14
1.79833	17
1.80200	19
1.80567	26
1.80933	35
1.81300	40
1.81667	45
1.82033	50
1.82400	50
1.82767	47
1.83133	37
1.83500	28
1.83867	27
1.84233	29
1.84600	28
1.84967	28
1.85333	26
1.85700	26
1.86067	28
1.86433	28
1.86800	28
1.87167	30
1.87533	33
1.87900	35
1.88267	38
1.88633	39
1.89000	42
1.89367	49
1.89733	54
1.90100	56
1.90467	56
1.90833	55
1.91200	55
1.91567	56
1.91933	57
1.92300	59
1.92667	62
1.93033	68
1.93400	70
1.93767	69
1.94133	66
1.94500	66
1.94867	68
1.95233	81
1.95600	182
1.95967	837
1.96333	4063
1.96700	16097
1.97067	50543
1.97433	126573
1.97800	257178
1.98167	434987
1.98533	631981
1.98900	813236
1.99267	949042
1.99633	1020196
2.00000	1018764
2.00367	948964
2.00733	827156
2.01100	677987
2.01467	526450
2.01833	391000
2.02200	280733
2.02567	196894
2.02933	136192
2.03300	93712
2.03667	64644
2.04033	45015
2.04400	31832
2.04767	22974
2.05133	16986
2.05500	12892
2.05867	10051
2.06233	8043
2.06600	6593
2.06967	5518
2.07333	4702
2.07700	4075
2.08067	3583
2.08433	3187
2.08800	2860
2.09167	2585
2.09533	2350
2.09900	2149
2.10267	1979
2.10633	1840
2.11000	1722
2.11367	1615
2.11733	1518
2.12100	1431
2.12467	1357
2.12833	1291
2.13200	1230
2.13567	1172
2.13933	1122
2.14300	1078
2.14667	1035
2.15033	991
2.15400	947
2.15767	908
2.16133	880
2.16500	857
2.16867	835
2.17233	813
2.17600	792
2.17967	769
2.18333	747
2.18700	723
2.19067	699
2.19433	681
2.19800	672
2.20167	667
2.20533	662
2.20900	653
2.21267	639
2.21633	621
2.22000	604
2.22367	594
2.22733	584
2.23100	570
2.23467	551
2.23833	531
2.24200	514
2.24567	504
2.24933	496
2.25300	487
2.25667	481
2.26033	479
2.26400	480
2.26767	478
2.27133	467
2.27500	455
2.27867	446
2.28233	443
2.28600	441
2.28967	435
2.29333	426
2.29700	420
2.30067	414
2.30433	406
2.30800	401
2.31167	400
2.31533	403
2.31900	405
2.32267	400
2.32633	392
2.33000	385
2.33367	384
2.33733	391
2.34100	398
2.34467	399
2.34833	393
2.35200	385
2.35567	378
2.35933	372
2.36300	370
2.36667	372
2.37033	373
2.37400	368
2.37767	360
2.38133	355
2.38500	355
2.38867	357
2.39233	355
2.39600	350
2.39967	345
2.40333	339
2.40700	335
2.41067	333
2.41433	335
2.41800	338
2.42167	339
2.42533	338
2.42900	341
2.43267	349
2.43633	357
2.44000	363
2.44367	363
2.44733	356
2.45100	354
2.45467	355
2.45833	353
2.46200	350
2.46567	351
2.46933	355
2.47300	363
2.47667	369
2.48033	369
2.48400	361
2.48767	347
2.49133	335
2.49500	324
2.49867	320
2.50233	325
2.50600	331
2.50967	335
2.51333	338
2.51700	342
2.52067	343
2.52433	342
2.52800	338
2.53167	331
2.53533	327
2.53900	330
2.54267	330
2.54633	328
2.55000	325
2.55367	320
2.55733	318
2.56100	323
2.56467	332
2.56833	335
2.57200	330
2.57567	320
2.57933	312
2.58300	307
2.58667	307
2.59033	314
2.59400	323
2.59767	326
2.60133	326
2.60500	323
2.60867	318
2.61233	317
2.61600	321
2.61967	327
2.62333	331
2.62700	337
2.63067	344
2.63433	350
2.63800	351
2.64167	353
2.64533	355
2.64900	355
2.65267	351
2.65633	343
2.66000	332
2.66367	321
2.66733	311
2.67100	306
2.67467	306
2.67833	308
2.68200	312
2.68567	321
2.68933	333
2.69300	341
2.69667	348
2.70033	353
2.70400	354
2.70767	355
2.71133	354
2.71500	347
2.71867	335
2.72233	320
2.72600	310
2.72967	301
2.73333	296
2.73700	295
2.74067	301
2.74433	310
2.74800	317
2.75167	319
2.75533	318
2.75900	317
2.76267	319
2.76633	324
2.77000	329
2.77367	333
2.77733	340
2.78100	345
2.78467	347
2.78833	351
2.79200	359
2.79567	367
2.79933	368
2.80300	361
2.80667	351
2.81033	346
2.81400	347
2.81767	350
2.82133	349
2.82500	348
2.82867	347
2.83233	348
2.83600	349
2.83967	350
2.84333	351
2.84700	351
2.85067	349
2.85433	350
2.85800	354
2.86167	359
2.86533	356
2.86900	350
2.87267	347
2.87633	346
2.88000	347
2.88367	353
2.88733	356
2.89100	352
2.89467	346
2.89833	345
2.90200	345
2.90567	344
2.90933	345
2.91300	348
2.91667	347
2.92033	347
2.92400	345
2.92767	342
2.93133	341
2.93500	344
2.93867	352
2.94233	360
2.94600	365
2.94967	372
2.95333	378
2.95700	382
2.96067	381
2.96433	375
2.96800	375
2.97167	374
2.97533	368
2.97900	363
2.98267	363
2.98633	363
2.99000	360
2.99367	354
2.99733	348
3.00100	340
3.00467	333
3.00833	330
3.01200	333
3.01567	339
3.01933	341
3.02300	341
3.02667	343
3.03033	346
3.03400	349
3.03767	349
3.04133	346
3.04500	343
3.04867	340
3.05233	339
3.05600	339
3.05967	344
3.06333	347
3.06700	347
3.07067	350
3.07433	354
3.07800	356
3.08167	356
3.08533	356
3.08900	353
3.09267	349
3.09633	349
3.10000	350
3.10367	350
3.10733	346
3.11100	342
3.11467	340
3.11833	337
3.12200	335
3.12567	336
3.12933	337
3.13300	335
3.13667	335
3.14033	339
3.14400	342
3.14767	340
3.15133	334
3.15500	333
3.15867	340
3.16233	347
3.16600	350
3.16967	350
3.17333	345
3.17700	336
3.18067	327
3.18433	323
3.18800	324
3.19167	325
3.19533	320
3.19900	315
3.20267	319
3.20633	326
3.21000	331
3.21367	334
3.21733	337
3.22100	339
3.22467	341
3.22833	333
3.23200	320
3.23567	309
3.23933	303
3.24300	301
3.24667	298
3.25033	297
3.25400	299
3.25767	303
3.26133	309
3.26500	317
3.26867	328
3.27233	335
3.27600	343
3.27967	345
3.28333	339
3.28700	333
3.29067	332
3.29433	334
3.29800	337
3.30167	340
3.30533	341
3.30900	341
3.31267	338
3.31633	331
3.32000	321
3.32367	311
3.32733	304
3.33100	302
3.33467	308
3.33833	314
3.34200	319
3.34567	319
3.34933	313
3.35300	304
3.35667	300
3.36033	302
3.36400	307
3.36767	315
3.37133	324
3.37500	329
3.37867	331
3.38233	335
3.38600	339
3.38967	340
3.39333	335
3.39700	331
3.40067	325
3.40433	320
3.40800	316
3.41167	312
3.41533	308
3.41900	306
3.42267	303
3.42633	297
3.43000	289
3.43367	282
3.43733	273
3.44100	262
3.44467	254
3.44833	252
3.45200	257
3.45567	267
3.45933	276
3.46300	281
3.46667	281
3.47033	281
3.47400	282
3.47767	283
3.48133	286
3.48500	290
3.48867	291
3.49233	290
3.49600	290
3.49967	293
3.50333	296
3.50700	293
3.51067	287
3.51433	285
3.51800	288
3.52167	295
3.52533	302
3.52900	304
3.53267	296
3.53633	282
3.54000	270
3.54367	264
3.54733	263
3.55100	264
3.55467	263
3.55833	260
3.56200	267
3.56567	279
3.56933	287
3.57300	285
3.57667	281
3.58033	280
3.58400	274
3.58767	263
3.59133	255
3.59500	248
3.59867	239
3.60233	233
3.60600	232
3.60967	235
3.61333	239
3.61700	245
3.62067	250
3.62433	252
3.62800	254
3.63167	256
3.63533	257
3.63900	257
3.64267	257
3.64633	259
3.65000	262
3.65367	264
3.65733	265
3.66100	265
3.66467	263
3.66833	257
3.67200	251
3.67567	249
3.67933	248
3.68300	250
3.68667	254
3.69033	256
3.69400	256
3.69767	254
3.70133	249
3.70500	248
3.70867	246
3.71233	243
3.71600	240
3.71967	234
3.72333	231
3.72700	232
3.73067	236
3.73433	242
3.73800	251
3.74167	259
3.74533	262
3.74900	261
3.75267	255
3.75633	248
3.76000	241
3.76367	233
3.76733	228
3.77100	226
3.77467	230
3.77833	232
3.78200	231
3.78567	226
3.78933	225
3.79300	231
3.79667	242
3.80033	251
3.80400	250
3.80767	242
3.81133	230
3.81500	215
3.81867	203
3.82233	195
3.82600	191
3.82967	187
3.83333	183
3.83700	181
3.84067	182
3.84433	185
3.84800	190
3.85167	196
3.85533	200
3.85900	205
3.86267	209
3.86633	211
3.87000	212
3.87367	210
3.87733	209
3.88100	214
3.88467	221
3.88833	221
3.89200	219
3.89567	217
3.89933	215
3.90300	207
3.90667	196
3.91033	187
3.91400	183
3.91767	184
3.92133	189
3.92500	196
3.92867	206
3.93233	215
3.93600	221
3.93967	223
3.94333	226
3.94700	225
3.95067	218
3.95433	211
3.95800	205
3.96167	202
3.96533	200
3.96900	198
3.97267	197
3.97633	198
3.98000	198
3.98367	199
3.98733	200
3.99100	199
3.99467	198
3.99833	202

[Chromatogram (Ch2)]
Interval(msec)	220
# of Points	1091
Start Time(min)	0.002
End Time(min)	3.998
R.Time (min)	Intensity
0.00167	0
0.00533	-0
0.00900	-0
0.01267	-1
0.01633	-1
0.02000	-1
0.02367	-1
0.02733	-1
0.03100	-1
0.03467	-1
0.03833	-1
0.04200	-1
0.04567	-1
0.04933	-1
0.05300	-2
0.05667	-2
0.06033	-2
0.06400	-2
0.06767	-2
0.07133	-2
0.07500	-2
0.07867	-2
0.08233	-2
0.08600	-2
0.08967	-2
0.09333	-1
0.09700	-1
0.10067	-1
0.10433	-0
0.10800	0
0.11167	1
0.11533	1
0.11900	1
0.12267	1
0.12633	1
0.13000	0
0.13367	0
0.13733	0
0.14100	0
0.14467	0
0.14833	0
0.15200	0
0.15567	0
0.15933	0
0.16300	0
0.16667	-0
0.17033	-0
0.17400	-0
0.17767	-0
0.18133	-0
0.18500	-1
0.18867	-1
0.19233	-1
0.19600	-2
0.19967	-2
0.20333	-2
0.20700	-2
0.21067	-3
0.21433	-3
0.21800	-2
0.22167	-2
0.22533	-2
0.22900	-2
0.23267	-2
0.23633	-2
0.24000	-2
0.24367	-2
0.24733	-1
0.25100	-1
0.25467	-0
0.25833	0
0.26200	0
0.26567	1
0.26933	1
0.27300	1
0.27667	2
0.28033	2
0.28400	2
0.28767	2
0.29133	2
0.29500	2
0.29867	2
0.30233	1
0.30600	1
0.30967	0
0.31333	-0
0.31700	-1
0.32067	-1
0.32433	-1
0.32800	-1
0.33167	-2
0.33533	-2
0.33900	-2
0.34267	-2
0.34633	-2
0.35000	-2
0.35367	-2
0.35733	-2
0.36100	-1
0.36467	-1
0.36833	-0
0.37200	0
0.37567	0
0.37933	1
0.38300	1
0.38667	2
0.39033	2
0.39400	3
0.39767	3
0.40133	3
0.40500	3
0.40867	3
0.41233	3
0.41600	3
0.41967	2
0.42333	2
0.42700	2
0.43067	2
0.43433	2
0.43800	2
0.44167	2
0.44533	2
0.44900	1
0.45267	1
0.45633	1
0.46000	0
0.46367	-0
0.46733	-0
0.47100	-0
0.47467	-0
0.47833	-0
0.48200	-0
0.48567	-0
0.48933	-0
0.49300	-0
0.49667	-0
0.50033	-0
0.50400	-0
0.50767	-0
0.51133	-0
0.51500	-1
0.51867	-1
0.52233	-1
0.52600	-1
0.52967	-2
0.53333	-2
0.53700	-2
0.54067	-2
0.54433	-2
0.54800	-2
0.55167	-2
0.55533	-2
0.55900	-2
0.56267	-1
0.56633	-1
0.57000	-1
0.57367	-1
0.57733	-1
0.58100	-1
0.58467	-0
0.58833	0
0.59200	0
0.59567	1
0.59933	1
0.60300	1
0.60667	1
0.61033	1
0.61400	1
0.61767	1
0.62133	1
0.62500	0
0.62867	-0
0.63233	-0
0.63600	-1
0.63967	-1
0.64333	-1
0.64700	-2
0.65067	-2
0.65433	-2
0.65800	-2
0.66167	-2
0.66533	-2
0.66900	-1
0.67267	-1
0.67633	-1
0.68000	-1
0.68367	-1
0.68733	-1
0.69100	-1
0.69467	-0
0.69833	-0
0.70200	-0
0.70567	-0
0.70933	-0
0.71300	-0
0.71667	-0
0.72033	0
0.72400	0
0.72767	0
0.73133	0
0.73500	1
0.73867	1
0.74233	0
0.74600	0
0.74967	-0
0.75333	-0
0.75700	-1
0.76067	-1
0.76433	-1
0.76800	-1
0.77167	-1
0.77533	-2
0.77900	-2
0.78267	-2
0.78633	-2
0.79000	-3
0.79367	-3
0.79733	-3
0.80100	-3
0.80467	-3
0.80833	-3
0.81200	-3
0.81567	-3
0.81933	-3
0.82300	-3
0.82667	-3
0.83033	-3
0.83400	-3
0.83767	-2
0.84133	-2
0.84500	-1
0.84867	-1
0.85233	-1
0.85600	-1
0.85967	-1
0.86333	-1
0.86700	-1
0.87067	-0
0.87433	-0
0.87800	0
0.88167	0
0.88533	0
0.88900	0
0.89267	0
0.89633	0
0.90000	1
0.90367	1
0.90733	0
0.91100	0
0.91467	0
0.91833	-0
0.92200	-0
0.92567	-0
0.92933	-1
0.93300	-1
0.93667	-1
0.94033	-1
0.94400	-1
0.94767	-1
0.95133	-1
0.95500	-1
0.95867	-1
0.96233	-1
0.96600	-1
0.96967	-2
0.97333	-2
0.97700	-2
0.98067	-2
0.98433	-3
0.98800	-3
0.99167	-3
0.99533	-3
0.99900	-3
1.00267	-3
1.00633	-3
1.01000	-3
1.01367	-3
1.01733	-2
1.02100	-2
1.02467	-2
1.02833	-2
1.03200	-2
1.03567	-2
1.03933	-2
1.04300	-2
1.04667	-2
1.05033	-2
1.05400	-3
1.05767	-3
1.06133	-3
1.06500	-3
1.06867	-3
1.07233	-3
1.07600	-3
1.07967	-3
1.08333	-3
1.08700	-2
1.09067	-2
1.09433	-2
1.09800	-2
1.10167	-2
1.10533	-2
1.10900	-1
1.11267	-1
1.11633	-1
1.12000	-1
1.12367	-1
1.12733	-1
1.13100	-1
1.13467	-1
1.13833	-1
1.14200	-1
1.14567	-2
1.14933	-2
1.15300	-2
1.15667	-2
1.16033	-2
1.16400	-2
1.16767	-2
1.17133	-2
1.17500	-2
1.17867	-2
1.18233	-2
1.18600	-2
1.18967	-2
1.19333	-2
1.19700	-3
1.20067	-3
1.20433	-3
1.20800	-3
1.21167	-4
1.21533	-4
1.21900	-3
1.22267	-3
1.22633	-3
1.23000	-3
1.23367	-3
1.23733	-3
1.24100	-3
1.24467	-3
1.24833	-3
1.25200	-3
1.25567	-3
1.25933	-3
1.26300	-3
1.26667	-3
1.27033	-3
1.27400	-3
1.27767	-3
1.28133	-3
1.28500	-3
1.28867	-2
1.29233	-2
1.29600	-2
1.29967	-2
1.30333	-2
1.30700	-1
1.31067	-1
1.31433	-2
1.31800	-2
1.32167	-2
1.32533	-2
1.32900	-2
1.33267	-2
1.33633	-2
1.34000	-2
1.34367	-2
1.34733	-2
1.35100	-2
1.35467	-2
1.35833	-2
1.36200	-1
1.36567	-1
1.36933	-1
1.37300	-1
1.37667	-0
1.38033	0
1.38400	0
1.38767	0
1.39133	0
1.39500	0
1.39867	0
1.40233	0
1.40600	-0
1.40967	0
1.41333	0
1.41700	0
1.42067	0
1.42433	-0
1.42800	-0
1.43167	-1
1.43533	-1
1.43900	-1
1.44267	-1
1.44633	-2
1.45000	-2
1.45367	-2
1.45733	-3
1.46100	-3
1.46467	-3
1.46833	-4
1.47200	-4
1.47567	-4
1.47933	-4
1.48300	-4
1.48667	-4
1.49033	-5
1.49400	-5
1.49767	-5
1.50133	-6
1.50500	-6
1.50867	-6
1.51233	-6
1.51600	-5
1.51967	-5
1.52333	-5
1.52700	-5
1.53067	-5
1.53433	-5
1.53800	-4
1.54167	-4
1.54533	-4
1.54900	-4
1.55267	-4
1.55633	-3
1.56000	-3
1.56367	-2
1.56733	-2
1.57100	-1
1.57467	-1
1.57833	-1
1.58200	-1
1.58567	-1
1.58933	-1
1.59300	-2
1.59667	-2
1.60033	-3
1.60400	-4
1.60767	-6
1.61133	-7
1.61500	-9
1.61867	-11
1.62233	-14
1.62600	-17
1.62967	-20
1.63333	-24
1.63700	-27
1.64067	-31
1.64433	-35
1.64800	-38
1.65167	-42
1.65533	-46
1.65900	-50
1.66267	-54
1.66633	-58
1.67000	-63
1.67367	-68
1.67733	-73
1.68100	-78
1.68467	-83
1.68833	-87
1.69200	-91
1.69567	-94
1.69933	-97
1.70300	-100
1.70667	-102
1.71033	-104
1.71400	-106
1.71767	-107
1.72133	-108
1.72500	-108
1.72867	-108
1.73233	-109
1.73600	-109
1.73967	-109
1.74333	-109
1.74700	-109
1.75067	-110
1.75433	-111
1.75800	-112
1.76167	-112
1.76533	-113
1.76900	-113
1.77267	-113
1.77633	-112
1.78000	-112
1.78367	-111
1.78733	-111
1.79100	-110
1.79467	-110
1.79833	-110
1.80200	-111
1.80567	-112
1.80933	-113
1.81300	-114
1.81667	-115
1.82033	-115
1.82400	-115
1.82767	-116
1.83133	-116
1.83500	-116
1.83867	-116
1.84233	-116
1.84600	-116
1.84967	-116
1.85333	-116
1.85700	-116
1.86067	-115
1.86433	-115
1.86800	-115
1.87167	-115
1.87533	-116
1.87900	-116
1.88267	-116
1.88633	-116
1.89000	-116
1.89367	-115
1.89733	-115
1.90100	-114
1.90467	-114
1.90833	-113
1.91200	-113
1.91567	-113
1.91933	-113
1.92300	-112
1.92667	-112
1.93033	-112
1.93400	-112
1.93767	-112
1.94133	-112
1.94500	-112
1.94867	-111
1.95233	-111
1.95600	-111
1.95967	-111
1.96333	-111
1.96700	-110
1.97067	-110
1.97433	-110
1.97800	-109
1.98167	-109
1.98533	-109
1.98900	-109
1.99267	-108
1.99633	-108
2.00000	-107
2.00367	-107
2.00733	-106
2.01100	-106
2.01467	-105
2.01833	-105
2.02200	-104
2.02567	-104
2.02933	-104
2.03300	-104
2.03667	-103
2.04033	-103
2.04400	-103
2.04767	-103
2.05133	-103
2.05500	-102
2.05867	-102
2.06233	-101
2.06600	-101
2.06967	-101
2.07333	-101
2.07700	-101
2.08067	-101
2.08433	-102
2.08800	-102
2.09167	-102
2.09533	-102
2.09900	-101
2.10267	-100
2.10633	-100
2.11000	-99
2.11367	-99
2.11733	-98
2.12100	-98
2.12467	-98
2.12833	-98
2.13200	-97
2.13567	-97
2.13933	-97
2.14300	-96
2.14667	-96
2.15033	-96
2.15400	-95
2.15767	-94
2.16133	-94
2.16500	-93
2.16867	-93
2.17233	-93
2.17600	-92
2.17967	-92
2.18333	-92
2.18700	-91
2.19067	-91
2.19433	-91
2.19800	-91
2.20167	-91
2.20533	-92
2.20900	-91
2.21267	-91
2.21633	-90
2.22000	-89
2.22367	-88
2.22733	-87
2.23100	-86
2.23467	-86
2.23833	-85
2.24200	-85
2.24567	-85
2.24933	-85
2.25300	-86
2.25667	-86
2.26033	-86
2.26400	-87
2.26767	-87
2.27133	-87
2.27500	-86
2.27867	-86
2.28233	-85
2.28600	-85
2.28967	-85
2.29333	-84
2.29700	-84
2.30067	-83
2.30433	-83
2.30800	-82
2.31167	-82
2.31533	-81
2.31900	-81
2.32267	-81
2.32633	-82
2.33000	-82
2.33367	-83
2.33733	-83
2.34100	-83
2.34467	-82
2.34833	-81
2.35200	-80
2.35567	-79
2.35933	-77
2.36300	-75
2.36667	-73
2.37033	-70
2.37400	-67
2.37767	-63
2.38133	-59
2.38500	-55
2.38867	-51
2.39233	-46
2.39600	-41
2.39967	-37
2.40333	-32
2.40700	-28
2.41067	-24
2.41433	-20
2.41800	-18
2.42167	-15
2.42533	-13
2.42900	-12
2.43267	-10
2.43633	-8
2.44000	-7
2.44367	-6
2.44733	-6
2.45100	-5
2.45467	-5
2.45833	-5
2.46200	-4
2.46567	-4
2.46933	-3
2.47300	-2
2.47667	-1
2.48033	-0
2.48400	1
2.48767	2
2.49133	3
2.49500	4
2.49867	4
2.50233	4
2.50600	5
2.50967	5
2.51333	6
2.51700	8
2.52067	9
2.52433	10
2.52800	11
2.53167	12
2.53533	12
2.53900	12
2.54267	12
2.54633	12
2.55000	12
2.55367	13
2.55733	13
2.56100	13
2.56467	14
2.56833	14
2.57200	15
2.57567	15
2.57933	16
2.58300	16
2.58667	16
2.59033	17
2.59400	17
2.59767	17
2.60133	17
2.60500	17
2.60867	17
2.61233	17
2.61600	17
2.61967	17
2.62333	17
2.62700	17
2.63067	17
2.63433	17
2.63800	17
2.64167	17
2.64533	17
2.64900	17
2.65267	18
2.65633	18
2.66000	18
2.66367	18
2.66733	18
2.67100	19
2.67467	19
2.67833	19
2.68200	20
2.68567	20
2.68933	21
2.69300	21
2.69667	21
2.70033	21
2.70400	21
2.70767	21
2.71133	20
2.71500	20
2.71867	21
2.72233	21
2.72600	21
2.72967	22
2.73333	22
2.73700	23
2.74067	23
2.74433	23
2.74800	23
2.75167	23
2.75533	24
2.75900	24
2.76267	24
2.76633	24
2.77000	24
2.77367	24
2.77733	25
2.78100	25
2.78467	25
2.78833	25
2.79200	25
2.79567	25
2.79933	25
2.80300	25
2.80667	25
2.81033	25
2.81400	24
2.81767	24
2.82133	24
2.82500	25
2.82867	25
2.83233	25
2.83600	25
2.83967	24
2.84333	23
2.84700	20
2.85067	15
2.85433	8
2.85800	-3
2.86167	-18
2.86533	-37
2.86900	-62
2.87267	-92
2.87633	-128
2.88000	-169
2.88367	-216
2.88733	-268
2.89100	-326
2.89467	-388
2.89833	-454
2.90200	-525
2.90567	-600
2.90933	-678
2.91300	-759
2.91667	-843
2.92033	-931
2.92400	-1021
2.92767	-1113
2.93133	-1207
2.93500	-1303
2.93867	-1399
2.94233	-1485
2.94600	-1548
2.94967	-1577
2.95333	-1569
2.95700	-1525
2.96067	-1452
2.96433	-1357
2.96800	-1250
2.97167	-1137
2.97533	-1023
2.97900	-912
2.98267	-807
2.98633	-709
2.99000	-620
2.99367	-539
2.99733	-467
3.00100	-403
3.00467	-347
3.00833	-298
3.01200	-255
3.01567	-218
3.01933	-186
3.02300	-159
3.02667	-135
3.03033	-115
3.03400	-98
3.03767	-83
3.04133	-70
3.04500	-60
3.04867	-50
3.05233	-42
3.05600	-36
3.05967	-30
3.06333	-25
3.06700	-21
3.07067	-17
3.07433	-13
3.07800	-10
3.08167	-7
3.08533	-5
3.08900	-2
3.09267	-1
3.09633	1
3.10000	2
3.10367	3
3.10733	5
3.11100	5
3.11467	6
3.11833	7
3.12200	7
3.12567	8
3.12933	8
3.13300	8
3.13667	9
3.14033	9
3.14400	10
3.14767	10
3.15133	11
3.15500	11
3.15867	12
3.16233	12
3.16600	13
3.16967	13
3.17333	14
3.17700	14
3.18067	15
3.18433	15
3.18800	15
3.19167	15
3.19533	16
3.19900	16
3.20267	16
3.20633	17
3.21000	17
3.21367	18
3.21733	18
3.22100	18
3.22467	18
3.22833	18
3.23200	18
3.23567	18
3.23933	18
3.24300	18
3.24667	18
3.25033	18
3.25400	18
3.25767	18
3.26133	18
3.26500	18
3.26867	18
3.27233	18
3.27600	19
3.27967	19
3.28333	19
3.28700	20
3.29067	20
3.29433	20
3.29800	20
3.30167	20
3.30533	21
3.30900	21
3.31267	21
3.31633	21
3.32000	21
3.32367	22
3.32733	22
3.33100	22
3.33467	23
3.33833	23
3.34200	23
3.34567	23
3.34933	24
3.35300	24
3.35667	24
3.36033	25
3.36400	25
3.36767	25
3.37133	25
3.37500	25
3.37867	26
3.38233	26
3.38600	26
3.38967	26
3.39333	26
3.39700	27
3.40067	27
3.40433	27
3.40800	27
3.41167	27
3.41533	27
3.41900	27
3.42267	27
3.42633	27
3.43000	26
3.43367	26
3.43733	26
3.44100	26
3.44467	26
3.44833	25
3.45200	25
3.45567	25
3.45933	25
3.46300	25
3.46667	25
3.47033	24
3.47400	24
3.47767	24
3.48133	24
3.48500	24
3.48867	24
3.49233	24
3.49600	24
3.49967	24
3.50333	24
3.50700	24
3.51067	23
3.51433	23
3.51800	23
3.52167	23
3.52533	23
3.52900	23
3.53267	23
3.53633	23
3.54000	23
3.54367	23
3.54733	23
3.55100	23
3.55467	23
3.55833	23
3.56200	23
3.56567	23
3.56933	24
3.57300	24
3.57667	24
3.58033	25
3.58400	25
3.58767	25
3.59133	25
3.59500	25
3.59867	25
3.60233	25
3.60600	25
3.60967	25
3.61333	25
3.61700	25
3.62067	25
3.62433	25
3.62800	24
3.63167	24
3.63533	24
3.63900	24
3.64267	24
3.64633	24
3.65000	24
3.65367	24
3.65733	24
3.66100	24
3.66467	24
3.66833	24
3.67200	24
3.67567	24
3.67933	24
3.68300	24
3.68667	24
3.69033	24
3.69400	24
3.69767	24
3.70133	24
3.70500	24
3.70867	24
3.71233	24
3.71600	24
3.71967	24
3.72333	24
3.72700	24
3.73067	24
3.73433	24
3.73800	24
3.74167	24
3.74533	24
3.74900	24
3.75267	24
3.75633	24
3.76000	24
3.76367	24
3.76733	24
3.77100	24
3.77467	24
3.77833	24
3.78200	24
3.78567	24
3.78933	24
3.79300	24
3.79667	24
3.80033	24
3.80400	24
3.80767	24
3.81133	24
3.81500	24
3.81867	24
3.82233	23
3.82600	23
3.82967	23
3.83333	24
3.83700	24
3.84067	24
3.84433	24
3.84800	24
3.85167	24
3.85533	25
3.85900	25
3.86267	25
3.86633	25
3.87000	26
3.87367	26
3.87733	26
3.88100	26
3.88467	26
3.88833	26
3.89200	26
3.89567	26
3.89933	26
3.90300	26
3.90667	26
3.91033	26
3.91400	26
3.91767	26
3.92133	26
3.92500	26
3.92867	26
3.93233	26
3.93600	26
3.93967	26
3.94333	26
3.94700	26
3.95067	26
3.95433	26
3.95800	26
3.96167	26
3.96533	26
3.96900	26
3.97267	26
3.97633	26
3.98000	26
3.98367	26
3.98733	26
3.99100	26
3.99467	25
3.99833	25

[Chromatogram (Ch3)]
Interval(msec)	220
# of Points	1091
Start Time(min)	0.002
End Time(min)	3.998
R.Time (min)	Intensity
0.00167	-1
0.00533	-1
0.00900	-3
0.01267	-5
0.01633	-5
0.02000	-4
0.02367	-3
0.02733	-3
0.03100	-3
0.03467	-4
0.03833	-7
0.04200	-8
0.04567	-6
0.04933	-6
0.05300	-8
0.05667	-10
0.06033	-12
0.06400	-12
0.06767	-9
0.07133	-10
0.07500	-9
0.07867	-10
0.08233	-10
0.08600	-9
0.08967	-9
0.09333	-9
0.09700	-10
0.10067	-11
0.10433	-11
0.10800	-9
0.11167	-10
0.11533	-12
0.11900	-13
0.12267	-14
0.12633	-11
0.13000	-9
0.13367	-7
0.13733	-6
0.14100	-5
0.14467	-4
0.14833	-5
0.15200	-6
0.15567	-5
0.15933	-7
0.16300	-11
0.16667	-13
0.17033	-15
0.17400	-15
0.17767	-16
0.18133	-18
0.18500	-18
0.18867	-17
0.19233	-17
0.19600	-16
0.19967	-15
0.20333	-14
0.20700	-14
0.21067	-12
0.21433	-11
0.21800	-10
0.22167	-12
0.22533	-13
0.22900	-12
0.23267	-9
0.23633	-9
0.24000	-11
0.24367	-12
0.24733	-12
0.25100	-13
0.25467	-13
0.25833	-13
0.26200	-15
0.26567	-16
0.26933	-15
0.27300	-14
0.27667	-12
0.28033	-8
0.28400	-8
0.28767	-10
0.29133	-12
0.29500	-14
0.29867	-16
0.30233	-15
0.30600	-13
0.30967	-12
0.31333	-12
0.31700	-12
0.32067	-12
0.32433	-12
0.32800	-13
0.33167	-14
0.33533	-14
0.33900	-15
0.34267	-14
0.34633	-12
0.35000	-12
0.35367	-12
0.35733	-12
0.36100	-12
0.36467	-11
0.36833	-10
0.37200	-8
0.37567	-8
0.37933	-7
0.38300	-7
0.38667	-7
0.39033	-7
0.39400	-7
0.39767	-7
0.40133	-7
0.40500	-6
0.40867	-7
0.41233	-8
0.41600	-8
0.41967	-6
0.42333	-5
0.42700	-7
0.43067	-5
0.43433	-4
0.43800	-5
0.44167	-6
0.44533	-5
0.44900	-5
0.45267	-5
0.45633	-6
0.46000	-6
0.46367	-5
0.46733	-5
0.47100	-6
0.47467	-8
0.47833	-8
0.48200	-9
0.48567	-7
0.48933	-5
0.49300	-5
0.49667	-4
0.50033	-1
0.50400	1
0.50767	2
0.51133	3
0.51500	2
0.51867	1
0.52233	-0
0.52600	-2
0.52967	-4
0.53333	-7
0.53700	-9
0.54067	-10
0.54433	-8
0.54800	-4
0.55167	-2
0.55533	-3
0.55900	-4
0.56267	-4
0.56633	-4
0.57000	-4
0.57367	-2
0.57733	-1
0.58100	-1
0.58467	-1
0.58833	0
0.59200	1
0.59567	2
0.59933	3
0.60300	3
0.60667	4
0.61033	2
0.61400	1
0.61767	0
0.62133	-1
0.62500	-0
0.62867	2
0.63233	4
0.63600	4
0.63967	3
0.64333	1
0.64700	-2
0.65067	-2
0.65433	-2
0.65800	-2
0.66167	-4
0.66533	-4
0.66900	-2
0.67267	-1
0.67633	0
0.68000	-1
0.68367	-4
0.68733	-4
0.69100	-3
0.69467	-3
0.69833	-4
0.70200	-3
0.70567	-1
0.70933	-0
0.71300	-1
0.71667	-1
0.72033	-1
0.72400	-2
0.72767	-1
0.73133	-0
0.73500	0
0.73867	-1
0.74233	-2
0.74600	-3
0.74967	-3
0.75333	-5
0.75700	-3
0.76067	-3
0.76433	-4
0.76800	-4
0.77167	-4
0.77533	-5
0.77900	-5
0.78267	-4
0.78633	-3
0.79000	-3
0.79367	-4
0.79733	-4
0.80100	-4
0.80467	-5
0.80833	-4
0.81200	-4
0.81567	-5
0.81933	-5
0.82300	-4
0.82667	-6
0.83033	-9
0.83400	-10
0.83767	-12
0.84133	-9
0.84500	-8
0.84867	-8
0.85233	-7
0.85600	-7
0.85967	-7
0.86333	-7
0.86700	-7
0.87067	-6
0.87433	-4
0.87800	-1
0.88167	1
0.88533	0
0.88900	-1
0.89267	-3
0.89633	-3
0.90000	-1
0.90367	-1
0.90733	-2
0.91100	-1
0.91467	-0
0.91833	1
0.92200	-1
0.92567	-2
0.92933	-0
0.93300	2
0.93667	1
0.94033	1
0.94400	2
0.94767	-0
0.95133	-2
0.95500	-2
0.95867	-2
0.96233	0
0.96600	3
0.96967	4
0.97333	2
0.97700	2
0.98067	1
0.98433	2
0.98800	1
0.99167	-0
0.99533	-1
0.99900	-3
1.00267	-2
1.00633	-3
1.01000	-2
1.01367	-0
1.01733	1
1.02100	2
1.02467	2
1.02833	3
1.03200	3
1.03567	2
1.03933	-0
1.04300	-2
1.04667	-2
1.05033	-0
1.05400	2
1.05767	4
1.06133	4
1.06500	3
1.06867	2
1.07233	1
1.07600	1
1.07967	3
1.08333	3
1.08700	4
1.09067	6
1.09433	7
1.09800	7
1.10167	8
1.10533	7
1.10900	5
1.11267	3
1.11633	1
1.12000	-1
1.12367	-3
1.12733	-3
1.13100	-1
1.13467	-0
1.13833	1
1.14200	1
1.14567	0
1.14933	1
1.15300	2
1.15667	2
1.16033	5
1.16400	7
1.16767	8
1.17133	7
1.17500	6
1.17867	5
1.18233	6
1.18600	6
1.18967	5
1.19333	6
1.19700	8
1.20067	8
1.20433	5
1.20800	2
1.21167	2
1.21533	4
1.21900	5
1.22267	3
1.22633	3
1.23000	3
1.23367	1
1.23733	1
1.24100	1
1.24467	4
1.24833	6
1.25200	6
1.25567	5
1.25933	6
1.26300	8
1.26667	11
1.27033	12
1.27400	12
1.27767	11
1.28133	10
1.28500	7
1.28867	4
1.29233	1
1.29600	1
1.29967	4
1.30333	6
1.30700	8
1.31067	9
1.31433	9
1.31800	8
1.32167	7
1.32533	8
1.32900	8
1.33267	9
1.33633	9
1.34000	9
1.34367	9
1.34733	10
1.35100	9
1.35467	10
1.35833	11
1.36200	10
1.36567	12
1.36933	11
1.37300	11
1.37667	13
1.38033	13
1.38400	13
1.38767	13
1.39133	12
1.39500	12
1.39867	10
1.40233	8
1.40600	8
1.40967	9
1.41333	9
1.41700	11
1.42067	13
1.42433	12
1.42800	12
1.43167	11
1.43533	10
1.43900	9
1.44267	9
1.44633	10
1.45000	12
1.45367	14
1.45733	14
1.46100	13
1.46467	13
1.46833	13
1.47200	13
1.47567	13
1.47933	13
1.48300	12
1.48667	13
1.49033	13
1.49400	14
1.49767	15
1.50133	14
1.50500	14
1.50867	15
1.51233	16
1.51600	17
1.51967	17
1.52333	16
1.52700	15
1.53067	15
1.53433	15
1.53800	15
1.54167	15
1.54533	17
1.54900	19
1.55267	19
1.55633	20
1.56000	21
1.56367	20
1.56733	20
1.57100	18
1.57467	15
1.57833	14
1.58200	12
1.58567	12
1.58933	14
1.59300	14
1.59667	13
1.60033	14
1.60400	14
1.60767	16
1.61133	16
1.61500	18
1.61867	19
1.62233	20
1.62600	20
1.62967	22
1.63333	22
1.63700	23
1.64067	23
1.64433	22
1.64800	24
1.65167	28
1.65533	30
1.65900	31
1.66267	33
1.66633	34
1.67000	32
1.67367	31
1.67733	31
1.68100	33
1.68467	33
1.68833	32
1.69200	29
1.69567	31
1.69933	31
1.70300	32
1.70667	32
1.71033	34
1.71400	37
1.71767	38
1.72133	39
1.72500	40
1.72867	43
1.73233	44
1.73600	44
1.73967	42
1.74333	41
1.74700	42
1.75067	43
1.75433	45
1.75800	46
1.76167	48
1.76533	49
1.76900	48
1.77267	49
1.77633	50
1.78000	50
1.78367	53
1.78733	54
1.79100	55
1.79467	56
1.79833	55
1.80200	55
1.80567	57
1.80933	60
1.81300	60
1.81667	62
1.82033	62
1.82400	61
1.82767	61
1.83133	63
1.83500	65
1.83867	68
1.84233	67
1.84600	67
1.84967	69
1.85333	71
1.85700	70
1.86067	68
1.86433	69
1.86800	69
1.87167	69
1.87533	69
1.87900	70
1.88267	71
1.88633	73
1.89000	71
1.89367	71
1.89733	73
1.90100	75
1.90467	76
1.90833	75
1.91200	76
1.91567	76
1.91933	79
1.92300	83
1.92667	84
1.93033	85
1.93400	85
1.93767	85
1.94133	85
1.94500	86
1.94867	87
1.95233	88
1.95600	89
1.95967	90
1.96333	90
1.96700	91
1.97067	93
1.97433	93
1.97800	93
1.98167	94
1.98533	97
1.98900	98
1.99267	100
1.99633	104
2.00000	107
2.00367	109
2.00733	109
2.01100	108
2.01467	108
2.01833	109
2.02200	109
2.02567	111
2.02933	115
2.03300	118
2.03667	119
2.04033	120
2.04400	120
2.04767	120
2.05133	120
2.05500	120
2.05867	119
2.06233	118
2.06600	120
2.06967	123
2.07333	125
2.07700	125
2.08067	127
2.08433	128
2.08800	129
2.09167	130
2.09533	129
2.09900	129
2.10267	130
2.10633	130
2.11000	129
2.11367	129
2.11733	129
2.12100	131
2.12467	133
2.12833	136
2.13200	139
2.13567	140
2.13933	140
2.14300	141
2.14667	143
2.15033	144
2.15400	145
2.15767	147
2.16133	146
2.16500	144
2.16867	145
2.17233	148
2.17600	149
2.17967	149
2.18333	150
2.18700	151
2.19067	150
2.19433	151
2.19800	155
2.20167	157
2.20533	157
2.20900	156
2.21267	156
2.21633	157
2.22000	159
2.22367	160
2.22733	162
2.23100	166
2.23467	167
2.23833	168
2.24200	171
2.24567	172
2.24933	172
2.25300	174
2.25667	176
2.26033	178
2.26400	177
2.26767	178
2.27133	179
2.27500	180
2.27867	179
2.28233	181
2.28600	184
2.28967	185
2.29333	185
2.29700	187
2.30067	188
2.30433	190
2.30800	192
2.31167	194
2.31533	195
2.31900	198
2.32267	199
2.32633	200
2.33000	202
2.33367	203
2.33733	205
2.34100	206
2.34467	205
2.34833	206
2.35200	206
2.35567	207
2.35933	209
2.36300	209
2.36667	208
2.37033	207
2.37400	207
2.37767	207
2.38133	209
2.38500	209
2.38867	207
2.39233	206
2.39600	210
2.39967	213
2.40333	214
2.40700	215
2.41067	217
2.41433	220
2.41800	224
2.42167	227
2.42533	229
2.42900	228
2.43267	225
2.43633	225
2.44000	230
2.44367	280
2.44733	418
2.45100	569
2.45467	694
2.45833	765
2.46200	773
2.46567	747
2.46933	714
2.47300	690
2.47667	675
2.48033	659
2.48400	629
2.48767	585
2.49133	536
2.49500	492
2.49867	458
2.50233	436
2.50600	422
2.50967	419
2.51333	425
2.51700	438
2.52067	456
2.52433	473
2.52800	485
2.53167	484
2.53533	473
2.53900	453
2.54267	426
2.54633	397
2.55000	369
2.55367	345
2.55733	324
2.56100	309
2.56467	296
2.56833	288
2.57200	283
2.57567	279
2.57933	277
2.58300	276
2.58667	279
2.59033	281
2.59400	283
2.59767	287
2.60133	290
2.60500	292
2.60867	292
2.61233	290
2.61600	286
2.61967	279
2.62333	270
2.62700	259
2.63067	249
2.63433	241
2.63800	236
2.64167	230
2.64533	221
2.64900	213
2.65267	205
2.65633	194
2.66000	184
2.66367	175
2.66733	168
2.67100	161
2.67467	154
2.67833	149
2.68200	144
2.68567	139
2.68933	135
2.69300	133
2.69667	132
2.70033	133
2.70400	135
2.70767	140
2.71133	147
2.71500	152
2.71867	156
2.72233	158
2.72600	159
2.72967	160
2.73333	161
2.73700	164
2.74067	169
2.74433	173
2.74800	176
2.75167	179
2.75533	179
2.75900	181
2.76267	183
2.76633	185
2.77000	187
2.77367	189
2.77733	190
2.78100	194
2.78467	199
2.78833	200
2.79200	203
2.79567	206
2.79933	211
2.80300	216
2.80667	222
2.81033	227
2.81400	233
2.81767	245
2.82133	268
2.82500	320
2.82867	437
2.83233	669
2.83600	1080
2.83967	1738
2.84333	2686
2.84700	3945
2.85067	5488
2.85433	7237
2.85800	9083
2.86167	10894
2.86533	12523
2.86900	13846
2.87267	14781
2.87633	15282
2.88000	15352
2.88367	15041
2.88733	14425
2.89100	13587
2.89467	12612
2.89833	11566
2.90200	10504
2.90567	9467
2.90933	8479
2.91300	7554
2.91667	6703
2.92033	5932
2.92400	5238
2.92767	4615
2.93133	4062
2.93500	3573
2.93867	3142
2.94233	2760
2.94600	2427
2.94967	2133
2.95333	1875
2.95700	1651
2.96067	1455
2.96433	1283
2.96800	1137
2.97167	1010
2.97533	900
2.97900	804
2.98267	720
2.98633	648
2.99000	586
2.99367	530
2.99733	483
3.00100	445
3.00467	410
3.00833	379
3.01200	353
3.01567	329
3.01933	309
3.02300	292
3.02667	280
3.03033	270
3.03400	260
3.03767	252
3.04133	244
3.04500	236
3.04867	230
3.05233	226
3.05600	224
3.05967	222
3.06333	218
3.06700	215
3.07067	211
3.07433	208
3.07800	207
3.08167	205
3.08533	201
3.08900	198
3.09267	192
3.09633	171
3.10000	148
3.10367	140
3.10733	149
3.11100	166
3.11467	192
3.11833	226
3.12200	267
3.12567	314
3.12933	363
3.13300	411
3.13667	456
3.14033	498
3.14400	536
3.14767	569
3.15133	595
3.15500	616
3.15867	634
3.16233	650
3.16600	668
3.16967	684
3.17333	698
3.17700	709
3.18067	718
3.18433	727
3.18800	737
3.19167	745
3.19533	751
3.19900	755
3.20267	759
3.20633	766
3.21000	773
3.21367	779
3.21733	785
3.22100	792
3.22467	798
3.22833	802
3.23200	807
3.23567	812
3.23933	817
3.24300	823
3.24667	830
3.25033	839
3.25400	846
3.25767	853
3.26133	860
3.26500	865
3.26867	870
3.27233	877
3.27600	884
3.27967	889
3.28333	893
3.28700	897
3.29067	902
3.29433	905
3.29800	907
3.30167	909
3.30533	915
3.30900	920
3.31267	921
3.31633	922
3.32000	922
3.32367	923
3.32733	922
3.33100	920
3.33467	918
3.33833	917
3.34200	915
3.34567	912
3.34933	910
3.35300	907
3.35667	905
3.36033	904
3.36400	902
3.36767	898
3.37133	894
3.37500	891
3.37867	887
3.38233	883
3.38600	880
3.38967	878
3.39333	874
3.39700	873
3.40067	875
3.40433	872
3.40800	870
3.41167	866
3.41533	863
3.41900	862
3.42267	861
3.42633	858
3.43000	855
3.43367	852
3.43733	850
3.44100	849
3.44467	847
3.44833	844
3.45200	842
3.45567	840
3.45933	837
3.46300	835
3.46667	834
3.47033	833
3.47400	833
3.47767	834
3.48133	832
3.48500	829
3.48867	825
3.49233	824
3.49600	824
3.49967	822
3.50333	820
3.50700	817
3.51067	816
3.51433	815
3.51800	814
3.52167	812
3.52533	810
3.52900	808
3.53267	806
3.53633	806
3.54000	807
3.54367	806
3.54733	804
3.55100	803
3.55467	803
3.55833	804
3.56200	804
3.56567	805
3.56933	803
3.57300	802
3.57667	802
3.58033	800
3.58400	798
3.58767	795
3.59133	793
3.59500	790
3.59867	790
3.60233	790
3.60600	788
3.60967	788
3.61333	787
3.61700	787
3.62067	786
3.62433	784
3.62800	783
3.63167	783
3.63533	781
3.63900	779
3.64267	778
3.64633	778
3.65000	776
3.65367	772
3.65733	770
3.66100	769
3.66467	768
3.66833	766
3.67200	763
3.67567	760
3.67933	758
3.68300	754
3.68667	750
3.69033	746
3.69400	743
3.69767	743
3.70133	742
3.70500	738
3.70867	734
3.71233	731
3.71600	728
3.71967	725
3.72333	722
3.72700	718
3.73067	714
3.73433	713
3.73800	714
3.74167	715
3.74533	713
3.74900	711
3.75267	708
3.75633	706
3.76000	705
3.76367	703
3.76733	698
3.77100	695
3.77467	692
3.77833	688
3.78200	688
3.78567	687
3.78933	686
3.79300	684
3.79667	683
3.80033	683
3.80400	684
3.80767	684
3.81133	681
3.81500	678
3.81867	675
3.82233	672
3.82600	669
3.82967	665
3.83333	663
3.83700	662
3.84067	661
3.84433	661
3.84800	658
3.85167	656
3.85533	651
3.85900	649
3.86267	647
3.86633	644
3.87000	642
3.87367	641
3.87733	639
3.88100	635
3.88467	632
3.88833	627
3.89200	623
3.89567	621
3.89933	618
3.90300	616
3.90667	614
3.91033	613
3.91400	609
3.91767	606
3.92133	606
3.92500	607
3.92867	608
3.93233	608
3.93600	608
3.93967	606
3.94333	603
3.94700	601
3.95067	601
3.95433	600
3.95800	597
3.96167	595
3.96533	595
3.96900	596
3.97267	595
3.97633	595
3.98000	593
3.98367	592
3.98733	591
3.99100	586
3.99467	581
3.99833	578

[Status Trace (Column Oven Temperature)]
Interval(msec)	1000
# of Points	239
Start Time(min)	0.011
End Time(min)	3.978
Intensity Units	
Intensity Multiplier	1
R.Time (min)	Intensity
0.01130	35.04
0.02797	35.04
0.04463	35.05
0.06130	35.05
0.07797	35.05
0.09463	35.04
0.11130	35.04
0.12797	35.04
0.14463	35.04
0.16130	35.05
0.17797	35.05
0.19463	35.05
0.21130	35.06
0.22797	35.06
0.24463	35.05
0.26130	35.04
0.27797	35.02
0.29463	35.02
0.31130	35.02
0.32797	35.03
0.34463	35.03
0.36130	35.04
0.37797	35.02
0.39463	35.00
0.41130	35.00
0.42797	35.00
0.44463	34.99
0.46130	35.00
0.47797	34.99
0.49463	34.99
0.51130	34.99
0.52797	34.99
0.54463	35.00
0.56130	35.01
0.57797	35.00
0.59463	34.99
0.61130	34.99
0.62797	34.99
0.64463	35.00
0.66130	35.00
0.67797	35.00
0.69463	35.00
0.71130	34.99
0.72797	34.98
0.74463	34.98
0.76130	34.99
0.77797	34.99
0.79463	35.00
0.81130	35.01
0.82797	35.01
0.84463	35.01
0.86130	35.00
0.87797	35.00
0.89463	34.99
0.91130	34.99
0.92797	34.99
0.94463	34.99
0.96130	34.99
0.97797	35.00
0.99463	35.01
1.01130	35.00
1.02797	35.00
1.04463	35.00
1.06130	35.01
1.07797	35.01
1.09463	35.01
1.11130	35.00
1.12797	34.99
1.14463	34.99
1.16130	34.99
1.17797	34.99
1.19463	35.00
1.21130	35.01
1.22797	35.01
1.24463	35.01
1.26130	35.01
1.27797	35.02
1.29463	35.01
1.31130	35.02
1.32797	35.02
1.34463	35.01
1.36130	35.00
1.37797	34.99
1.39463	34.98
1.41130	34.97
1.42797	34.96
1.44463	34.98
1.46130	34.99
1.47797	35.00
1.49463	35.02
1.51130	35.02
1.52797	35.02
1.54463	35.02
1.56130	35.01
1.57797	35.01
1.59463	35.01
1.61130	35.08
1.62797	35.21
1.64463	35.41
1.66130	35.68
1.67797	36.03
1.69463	36.40
1.71130	36.75
1.72797	37.08
1.74463	37.42
1.76130	37.76
1.77797	38.07
1.79463	38.39
1.81130	38.74
1.82797	39.07
1.84463	39.39
1.86130	39.71
1.87797	40.07
1.89463	40.39
1.91130	40.73
1.92797	41.04
1.94463	41.37
1.96130	41.70
1.97797	42.03
1.99463	42.35
2.01130	42.67
2.02797	42.99
2.04463	43.32
2.06130	43.65
2.07797	43.99
2.09463	44.31
2.11130	44.63
2.12797	44.95
2.14463	45.30
2.16130	45.61
2.17797	45.93
2.19463	46.26
2.21130	46.59
2.22797	46.90
2.24463	47.21
2.26130	47.56
2.27797	47.89
2.29463	48.22
2.31130	48.54
2.32797	48.92
2.34463	49.24
2.36130	49.49
2.37797	49.62
2.39463	49.66
2.41130	49.64
2.42797	49.64
2.44463	49.65
2.46130	49.67
2.47797	49.65
2.49463	49.68
2.51130	49.70
2.52797	49.69
2.54463	49.72
2.56130	49.73
2.57797	49.73
2.59463	49.75
2.61130	49.76
2.62797	49.77
2.64463	49.80
2.66130	49.82
2.67797	49.82
2.69463	49.82
2.71130	49.84
2.72797	49.84
2.74463	49.85
2.76130	49.85
2.77797	49.86
2.79463	49.86
2.81130	49.87
2.82797	49.86
2.84463	49.86
2.86130	49.86
2.87797	49.86
2.89463	49.86
2.91130	49.88
2.92797	49.91
2.94463	49.93
2.96130	49.94
2.97797	49.95
2.99463	49.96
3.01130	49.97
3.02797	49.99
3.04463	50.00
3.06130	50.02
3.07797	50.02
3.09463	50.03
3.11130	50.04
3.12797	50.06
3.14463	50.06
3.16130	50.07
3.17797	50.07
3.19463	50.06
3.21130	50.07
3.22797	50.08
3.24463	50.09
3.26130	50.09
3.27797	50.10
3.29463	50.10
3.31130	50.10
3.32797	50.10
3.34463	50.10
3.36130	50.08
3.37797	50.07
3.39463	50.05
3.41130	50.03
3.42797	50.03
3.44463	50.03
3.46130	50.03
3.47797	50.03
3.49463	50.03
3.51130	50.04
3.52797	50.04
3.54463	50.05
3.56130	50.04
3.57797	50.04
3.59463	50.04
3.61130	50.03
3.62797	50.04
3.64463	50.04
3.66130	50.05
3.67797	50.05
3.69463	50.06
3.71130	50.06
3.72797	50.06
3.74463	50.06
3.76130	50.07
3.77797	50.08
3.79463	50.09
3.81130	50.08
3.82797	50.09
3.84463	50.07
3.86130	50.06
3.87797	50.04
3.89463	50.05
3.91130	50.05
3.92797	50.04
3.94463	50.04
3.96130	50.03
3.97797	50.05

[Status Trace (Injection Unit Temperature)]
Interval(msec)	1000
# of Points	239
Start Time(min)	0.011
End Time(min)	3.978
Intensity Units	
Intensity Multiplier	1
R.Time (min)	Intensity
0.01130	99.98
0.02797	99.97
0.04463	99.98
0.06130	99.98
0.07797	99.98
0.09463	99.98
0.11130	99.98
0.12797	99.98
0.14463	99.98
0.16130	99.98
0.17797	99.99
0.19463	99.98
0.21130	99.98
0.22797	99.99
0.24463	99.98
0.26130	99.98
0.27797	99.99
0.29463	99.99
0.31130	99.99
0.32797	99.99
0.34463	99.99
0.36130	99.99
0.37797	99.99
0.39463	99.99
0.41130	99.99
0.42797	99.99
0.44463	99.99
0.46130	99.99
0.47797	99.99
0.49463	99.99
0.51130	99.99
0.52797	99.99
0.54463	99.99
0.56130	99.99
0.57797	99.99
0.59463	99.99
0.61130	99.99
0.62797	99.99
0.64463	99.98
0.66130	99.98
0.67797	99.99
0.69463	99.98
0.71130	99.99
0.72797	99.98
0.74463	99.99
0.76130	99.98
0.77797	99.99
0.79463	99.99
0.81130	99.99
0.82797	99.98
0.84463	99.99
0.86130	99.99
0.87797	99.99
0.89463	99.99
0.91130	99.99
0.92797	99.98
0.94463	99.99
0.96130	99.98
0.97797	99.99
0.99463	99.98
1.01130	99.98
1.02797	99.99
1.04463	99.99
1.06130	99.98
1.07797	99.99
1.09463	99.99
1.11130	99.98
1.12797	99.98
1.14463	99.98
1.16130	99.99
1.17797	99.98
1.19463	99.98
1.21130	99.99
1.22797	99.98
1.24463	99.99
1.26130	99.99
1.27797	99.99
1.29463	99.99
1.31130	99.99
1.32797	99.99
1.34463	99.99
1.36130	99.99
1.37797	99.99
1.39463	99.98
1.41130	99.99
1.42797	99.98
1.44463	99.98
1.46130	99.99
1.47797	99.98
1.49463	99.98
1.51130	99.98
1.52797	99.98
1.54463	99.99
1.56130	99.98
1.57797	99.99
1.59463	99.99
1.61130	99.99
1.62797	99.99
1.64463	99.98
1.66130	99.99
1.67797	99.99
1.69463	99.99
1.71130	99.98
1.72797	99.98
1.74463	99.98
1.76130	99.99
1.77797	99.98
1.79463	99.98
1.81130	99.98
1.82797	99.98
1.84463	99.98
1.86130	99.98
1.87797	99.98
1.89463	99.98
1.91130	99.98
1.92797	99.97
1.94463	99.98
1.96130	99.97
1.97797	99.98
1.99463	99.97
2.01130	99.97
2.02797	99.97
2.04463	99.97
2.06130	99.97
2.07797	99.97
2.09463	99.97
2.11130	99.97
2.12797	99.97
2.14463	99.97
2.16130	99.97
2.17797	99.97
2.19463	99.96
2.21130	99.97
2.22797	99.97
2.24463	99.97
2.26130	99.97
2.27797	99.97
2.29463	99.97
2.31130	99.97
2.32797	99.97
2.34463	99.97
2.36130	99.97
2.37797	99.97
2.39463	99.97
2.41130	99.97
2.42797	99.97
2.44463	99.97
2.46130	99.97
2.47797	99.97
2.49463	99.97
2.51130	99.97
2.52797	99.98
2.54463	99.98
2.56130	99.97
2.57797	99.98
2.59463	99.98
2.61130	99.98
2.62797	99.98
2.64463	99.98
2.66130	99.98
2.67797	99.98
2.69463	99.98
2.71130	99.99
2.72797	99.99
2.74463	99.99
2.76130	99.99
2.77797	99.99
2.79463	100.00
2.81130	100.00
2.82797	99.99
2.84463	100.00
2.86130	100.00
2.87797	100.00
2.89463	100.00
2.91130	100.00
2.92797	100.01
2.94463	100.00
2.96130	100.01
2.97797	100.01
2.99463	100.01
3.01130	100.01
3.02797	100.01
3.04463	100.01
3.06130	100.01
3.07797	100.02
3.09463	100.02
3.11130	100.01
3.12797	100.02
3.14463	100.02
3.16130	100.02
3.17797	100.02
3.19463	100.02
3.21130	100.02
3.22797	100.02
3.24463	100.02
3.26130	100.02
3.27797	100.03
3.29463	100.03
3.31130	100.03
3.32797	100.03
3.34463	100.02
3.36130	100.03
3.37797	100.03
3.39463	100.03
3.41130	100.03
3.42797	100.03
3.44463	100.03
3.46130	100.03
3.47797	100.03
3.49463	100.03
3.51130	100.04
3.52797	100.04
3.54463	100.04
3.56130	100.04
3.57797	100.04
3.59463	100.04
3.61130	100.03
3.62797	100.04
3.64463	100.04
3.66130	100.04
3.67797	100.04
3.69463	100.04
3.71130	100.04
3.72797	100.04
3.74463	100.04
3.76130	100.04
3.77797	100.04
3.79463	100.04
3.81130	100.05
3.82797	100.05
3.84463	100.04
3.86130	100.05
3.87797	100.05
3.89463	100.05
3.91130	100.04
3.92797	100.05
3.94463	100.05
3.96130	100.04
3.97797	100.05

[Status Trace (Carrier Gas Pressure)]
Interval(msec)	1000
# of Points	239
Start Time(min)	0.011
End Time(min)	3.978
Intensity Units	
Intensity Multiplier	1
R.Time (min)	Intensity
0.01130	58.00
0.02797	54.98
0.04463	57.56
0.06130	59.65
0.07797	58.92
0.09463	58.00
0.11130	57.99
0.12797	58.01
0.14463	58.01
0.16130	58.00
0.17797	58.00
0.19463	58.00
0.21130	58.00
0.22797	58.00
0.24463	58.00
0.26130	58.00
0.27797	58.00
0.29463	58.00
0.31130	58.00
0.32797	58.00
0.34463	58.00
0.36130	58.00
0.37797	58.00
0.39463	58.00
0.41130	58.00
0.42797	58.00
0.44463	58.00
0.46130	58.00
0.47797	58.00
0.49463	58.00
0.51130	58.00
0.52797	58.00
0.54463	58.00
0.56130	58.00
0.57797	58.00
0.59463	58.00
0.61130	58.00
0.62797	58.00
0.64463	58.00
0.66130	58.00
0.67797	58.00
0.69463	58.00
0.71130	58.00
0.72797	58.00
0.74463	58.00
0.76130	58.00
0.77797	58.00
0.79463	58.00
0.81130	58.00
0.82797	58.00
0.84463	58.00
0.86130	58.00
0.87797	58.00
0.89463	58.00
0.91130	58.00
0.92797	58.00
0.94463	58.00
0.96130	58.00
0.97797	58.00
0.99463	58.00
1.01130	58.00
1.02797	58.00
1.04463	58.00
1.06130	58.00
1.07797	58.00
1.09463	58.00
1.11130	58.00
1.12797	58.00
1.14463	58.00
1.16130	58.00
1.17797	58.00
1.19463	58.00
1.21130	58.00
1.22797	58.00
1.24463	58.00
1.26130	58.00
1.27797	58.00
1.29463	58.00
1.31130	58.00
1.32797	58.00
1.34463	58.00
1.36130	58.00
1.37797	58.00
1.39463	58.00
1.41130	58.00
1.42797	58.00
1.44463	58.00
1.46130	58.00
1.47797	58.00
1.49463	58.00
1.51130	58.00
1.52797	58.00
1.54463	58.00
1.56130	58.00
1.57797	58.00
1.59463	58.00
1.61130	58.00
1.62797	58.00
1.64463	58.00
1.66130	58.01
1.67797	58.01
1.69463	58.00
1.71130	58.00
1.72797	58.00
1.74463	58.00
1.76130	58.00
1.77797	58.00
1.79463	58.00
1.81130	58.00
1.82797	58.00
1.84463	58.00
1.86130	58.00
1.87797	58.00
1.89463	58.00
1.91130	58.00
1.92797	58.00
1.94463	58.00
1.96130	58.00
1.97797	58.00
1.99463	58.00
2.01130	58.00
2.02797	58.00
2.04463	58.00
2.06130	58.00
2.07797	58.00
2.09463	58.00
2.11130	58.00
2.12797	58.00
2.14463	58.00
2.16130	58.00
2.17797	58.00
2.19463	58.00
2.21130	58.00
2.22797	58.00
2.24463	58.00
2.26130	58.00
2.27797	58.00
2.29463	58.00
2.31130	58.00
2.32797	58.00
2.34463	58.00
2.36130	58.00
2.37797	57.99
2.39463	57.99
2.41130	58.00
2.42797	58.00
2.44463	58.00
2.46130	58.00
2.47797	58.00
2.49463	58.00
2.51130	57.99
2.52797	57.98
2.54463	58.00
2.56130	58.00
2.57797	58.00
2.59463	58.00
2.61130	58.00
2.62797	58.00
2.64463	58.00
2.66130	58.00
2.67797	58.00
2.69463	58.00
2.71130	58.00
2.72797	58.00
2.74463	58.00
2.76130	58.00
2.77797	58.00
2.79463	58.00
2.81130	58.00
2.82797	58.00
2.84463	58.00
2.86130	58.00
2.87797	58.00
2.89463	58.00
2.91130	58.00
2.92797	58.00
2.94463	58.00
2.96130	58.00
2.97797	58.00
2.99463	58.00
3.01130	58.00
3.02797	58.00
3.04463	58.00
3.06130	58.00
3.07797	58.00
3.09463	58.00
3.11130	58.00
3.12797	58.00
3.14463	58.00
3.16130	58.00
3.17797	58.00
3.19463	58.00
3.21130	58.00
3.22797	58.00
3.24463	58.00
3.26130	58.00
3.27797	58.00
3.29463	58.00
3.31130	58.00
3.32797	58.00
3.34463	58.00
3.36130	58.00
3.37797	58.00
3.39463	58.00
3.41130	58.00
3.42797	58.00
3.44463	58.00
3.46130	58.00
3.47797	58.00
3.49463	58.00
3.51130	58.00
3.52797	58.00
3.54463	58.00
3.56130	58.00
3.57797	58.00
3.59463	58.00
3.61130	58.00
3.62797	58.00
3.64463	58.00
3.66130	58.00
3.67797	58.00
3.69463	58.00
3.71130	58.00
3.72797	58.00
3.74463	58.00
3.76130	58.00
3.77797	58.00
3.79463	58.00
3.81130	58.00
3.82797	58.00
3.84463	58.00
3.86130	58.00
3.87797	58.00
3.89463	58.00
3.91130	58.00
3.92797	58.00
3.94463	58.00
3.96130	58.00
3.97797	58.00

[Status Trace (Carrier Gas Flow)]
Interval(msec)	1000
# of Points	239
Start Time(min)	0.011
End Time(min)	3.978
Intensity Units	
Intensity Multiplier	1
R.Time (min)	Intensity
0.01130	34.52
0.02797	34.54
0.04463	34.54
0.06130	34.53
0.07797	34.51
0.09463	34.52
0.11130	34.52
0.12797	34.52
0.14463	34.52
0.16130	34.52
0.17797	34.52
0.19463	34.52
0.21130	34.52
0.22797	34.52
0.24463	34.52
0.26130	34.51
0.27797	34.52
0.29463	34.52
0.31130	34.52
0.32797	34.52
0.34463	34.52
0.36130	34.52
0.37797	34.52
0.39463	34.52
0.41130	34.52
0.42797	34.53
0.44463	34.52
0.46130	34.52
0.47797	34.52
0.49463	34.52
0.51130	34.52
0.52797	34.52
0.54463	34.52
0.56130	34.52
0.57797	34.52
0.59463	34.52
0.61130	34.52
0.62797	34.52
0.64463	34.52
0.66130	34.52
0.67797	34.52
0.69463	34.52
0.71130	34.52
0.72797	34.52
0.74463	34.52
0.76130	34.52
0.77797	34.52
0.79463	34.52
0.81130	34.52
0.82797	34.52
0.84463	34.52
0.86130	34.51
0.87797	34.52
0.89463	34.52
0.91130	34.52
0.92797	34.52
0.94463	34.51
0.96130	34.52
0.97797	34.52
0.99463	34.52
1.01130	34.52
1.02797	34.52
1.04463	34.52
1.06130	34.52
1.07797	34.52
1.09463	34.52
1.11130	34.52
1.12797	34.52
1.14463	34.52
1.16130	34.53
1.17797	34.51
1.19463	34.52
1.21130	34.51
1.22797	34.51
1.24463	34.52
1.26130	34.53
1.27797	34.52
1.29463	34.52
1.31130	34.51
1.32797	34.51
1.34463	34.52
1.36130	34.52
1.37797	34.52
1.39463	34.52
1.41130	34.52
1.42797	34.52
1.44463	34.52
1.46130	34.52
1.47797	34.51
1.49463	34.52
1.51130	34.52
1.52797	34.51
1.54463	34.52
1.56130	34.52
1.57797	34.52
1.59463	34.52
1.61130	34.52
1.62797	34.53
1.64463	34.52
1.66130	34.52
1.67797	34.52
1.69463	34.52
1.71130	34.52
1.72797	34.52
1.74463	34.52
1.76130	34.52
1.77797	34.52
1.79463	34.52
1.81130	34.52
1.82797	34.52
1.84463	34.52
1.86130	34.52
1.87797	34.52
1.89463	34.52
1.91130	34.51
1.92797	34.52
1.94463	34.52
1.96130	34.52
1.97797	34.52
1.99463	34.51
2.01130	34.52
2.02797	34.52
2.04463	34.52
2.06130	34.52
2.07797	34.52
2.09463	34.52
2.11130	34.52
2.12797	34.52
2.14463	34.52
2.16130	34.52
2.17797	34.52
2.19463	34.52
2.21130	34.52
2.22797	34.52
2.24463	34.52
2.26130	34.52
2.27797	34.52
2.29463	34.52
2.31130	34.52
2.32797	34.52
2.34463	34.51
2.36130	34.52
2.37797	34.52
2.39463	34.52
2.41130	34.52
2.42797	34.52
2.44463	34.52
2.46130	34.52
2.47797	34.52
2.49463	34.52
2.51130	34.51
2.52797	34.52
2.54463	34.51
2.56130	34.52
2.57797	34.52
2.59463	34.52
2.61130	34.52
2.62797	34.52
2.64463	34.52
2.66130	34.52
2.67797	34.52
2.69463	34.52
2.71130	34.52
2.72797	34.52
2.74463	34.52
2.76130	34.52
2.77797	34.52
2.79463	34.52
2.81130	34.52
2.82797	34.52
2.84463	34.52
2.86130	34.52
2.87797	34.52
2.89463	34.52
2.91130	34.52
2.92797	34.52
2.94463	34.51
2.96130	34.51
2.97797	34.53
2.99463	34.51
3.01130	34.51
3.02797	34.51
3.04463	34.52
3.06130	34.52
3.07797	34.52
3.09463	34.53
3.11130	34.52
3.12797	34.52
3.14463	34.52
3.16130	34.52
3.17797	34.52
3.19463	34.53
3.21130	34.52
3.22797	34.52
3.24463	34.52
3.26130	34.52
3.27797	34.52
3.29463	34.52
3.31130	34.52
3.32797	34.52
3.34463	34.52
3.36130	34.52
3.37797	34.52
3.39463	34.52
3.41130	34.52
3.42797	34.52
3.44463	34.52
3.46130	34.52
3.47797	34.52
3.49463	34.51
3.51130	34.52
3.52797	34.52
3.54463	34.52
3.56130	34.52
3.57797	34.52
3.59463	34.52
3.61130	34.52
3.62797	34.52
3.64463	34.52
3.66130	34.52
3.67797	34.52
3.69463	34.51
3.71130	34.52
3.72797	34.52
3.74463	34.51
3.76130	34.51
3.77797	34.52
3.79463	34.52
3.81130	34.52
3.82797	34.52
3.84463	34.52
3.86130	34.52
3.87797	34.52
3.89463	34.52
3.91130	34.52
3.92797	34.52
3.94463	34.52
3.96130	34.52
3.97797	34.52

[Status Trace (Column Flow)]
Interval(msec)	1000
# of Points	239
Start Time(min)	0.011
End Time(min)	3.978
Intensity Units	
Intensity Multiplier	1
R.Time (min)	Intensity
0.01130	5.53
0.02797	5.18
0.04463	5.48
0.06130	5.73
0.07797	5.64
0.09463	5.53
0.11130	5.53
0.12797	5.54
0.14463	5.53
0.16130	5.53
0.17797	5.53
0.19463	5.53
0.21130	5.53
0.22797	5.53
0.24463	5.53
0.26130	5.53
0.27797	5.53
0.29463	5.54
0.31130	5.54
0.32797	5.53
0.34463	5.53
0.36130	5.53
0.37797	5.53
0.39463	5.54
0.41130	5.54
0.42797	5.54
0.44463	5.54
0.46130	5.54
0.47797	5.54
0.49463	5.54
0.51130	5.54
0.52797	5.54
0.54463	5.54
0.56130	5.54
0.57797	5.54
0.59463	5.54
0.61130	5.54
0.62797	5.54
0.64463	5.54
0.66130	5.54
0.67797	5.54
0.69463	5.54
0.71130	5.54
0.72797	5.54
0.74463	5.54
0.76130	5.54
0.77797	5.54
0.79463	5.54
0.81130	5.54
0.82797	5.54
0.84463	5.54
0.86130	5.54
0.87797	5.54
0.89463	5.54
0.91130	5.54
0.92797	5.54
0.94463	5.54
0.96130	5.54
0.97797	5.54
0.99463	5.54
1.01130	5.54
1.02797	5.54
1.04463	5.54
1.06130	5.54
1.07797	5.54
1.09463	5.54
1.11130	5.54
1.12797	5.54
1.14463	5.54
1.16130	5.54
1.17797	5.54
1.19463	5.54
1.21130	5.54
1.22797	5.54
1.24463	5.54
1.26130	5.54
1.27797	5.54
1.29463	5.54
1.31130	5.54
1.32797	5.54
1.34463	5.54
1.36130	5.54
1.37797	5.54
1.39463	5.54
1.41130	5.54
1.42797	5.54
1.44463	5.54
1.46130	5.54
1.47797	5.54
1.49463	5.53
1.51130	5.53
1.52797	5.53
1.54463	5.53
1.56130	5.53
1.57797	5.54
1.59463	5.54
1.61130	5.53
1.62797	5.53
1.64463	5.52
1.66130	5.51
1.67797	5.50
1.69463	5.49
1.71130	5.48
1.72797	5.47
1.74463	5.46
1.76130	5.45
1.77797	5.44
1.79463	5.43
1.81130	5.42
1.82797	5.41
1.84463	5.40
1.86130	5.39
1.87797	5.38
1.89463	5.37
1.91130	5.36
1.92797	5.35
1.94463	5.34
1.96130	5.33
1.97797	5.32
1.99463	5.31
2.01130	5.30
2.02797	5.29
2.04463	5.28
2.06130	5.27
2.07797	5.26
2.09463	5.25
2.11130	5.24
2.12797	5.23
2.14463	5.22
2.16130	5.22
2.17797	5.21
2.19463	5.20
2.21130	5.19
2.22797	5.18
2.24463	5.17
2.26130	5.16
2.27797	5.15
2.29463	5.14
2.31130	5.13
2.32797	5.12
2.34463	5.11
2.36130	5.10
2.37797	5.10
2.39463	5.10
2.41130	5.10
2.42797	5.10
2.44463	5.10
2.46130	5.10
2.47797	5.10
2.49463	5.10
2.51130	5.10
2.52797	5.10
2.54463	5.10
2.56130	5.10
2.57797	5.10
2.59463	5.10
2.61130	5.10
2.62797	5.10
2.64463	5.10
2.66130	5.10
2.67797	5.10
2.69463	5.10
2.71130	5.10
2.72797	5.10
2.74463	5.10
2.76130	5.10
2.77797	5.10
2.79463	5.09
2.81130	5.10
2.82797	5.10
2.84463	5.09
2.86130	5.09
2.87797	5.10
2.89463	5.09
2.91130	5.09
2.92797	5.09
2.94463	5.09
2.96130	5.09
2.97797	5.09
2.99463	5.09
3.01130	5.09
3.02797	5.09
3.04463	5.09
3.06130	5.09
3.07797	5.09
3.09463	5.09
3.11130	5.09
3.12797	5.09
3.14463	5.09
3.16130	5.09
3.17797	5.09
3.19463	5.09
3.21130	5.09
3.22797	5.09
3.24463	5.09
3.26130	5.09
3.27797	5.09
3.29463	5.09
3.31130	5.09
3.32797	5.09
3.34463	5.09
3.36130	5.09
3.37797	5.09
3.39463	5.09
3.41130	5.09
3.42797	5.09
3.44463	5.09
3.46130	5.09
3.47797	5.09
3.49463	5.09
3.51130	5.09
3.52797	5.09
3.54463	5.09
3.56130	5.09
3.57797	5.09
3.59463	5.09
3.61130	5.09
3.62797	5.09
3.64463	5.09
3.66130	5.09
3.67797	5.09
3.69463	5.09
3.71130	5.09
3.72797	5.09
3.74463	5.09
3.76130	5.09
3.77797	5.09
3.79463	5.09
3.81130	5.09
3.82797	5.09
3.84463	5.09
3.86130	5.09
3.87797	5.09
3.89463	5.09
3.91130	5.09
3.92797	5.09
3.94463	5.09
3.96130	5.09
3.97797	5.09

[Status Trace (Linear Velocity)]
Interval(msec)	1000
# of Points	239
Start Time(min)	0.011
End Time(min)	3.978
Intensity Units	
Intensity Multiplier	1
R.Time (min)	Intensity
0.01130	39.02
0.02797	37.04
0.04463	38.73
0.06130	40.09
0.07797	39.62
0.09463	39.02
0.11130	39.01
0.12797	39.02
0.14463	39.02
0.16130	39.02
0.17797	39.02
0.19463	39.02
0.21130	39.02
0.22797	39.02
0.24463	39.02
0.26130	39.02
0.27797	39.02
0.29463	39.02
0.31130	39.02
0.32797	39.02
0.34463	39.02
0.36130	39.02
0.37797	39.02
0.39463	39.02
0.41130	39.02
0.42797	39.02
0.44463	39.02
0.46130	39.02
0.47797	39.02
0.49463	39.02
0.51130	39.02
0.52797	39.02
0.54463	39.02
0.56130	39.02
0.57797	39.02
0.59463	39.02
0.61130	39.02
0.62797	39.02
0.64463	39.02
0.66130	39.02
0.67797	39.02
0.69463	39.02
0.71130	39.02
0.72797	39.02
0.74463	39.02
0.76130	39.02
0.77797	39.02
0.79463	39.02
0.81130	39.02
0.82797	39.02
0.84463	39.02
0.86130	39.02
0.87797	39.02
0.89463	39.02
0.91130	39.02
0.92797	39.02
0.94463	39.02
0.96130	39.02
0.97797	39.02
0.99463	39.02
1.01130	39.02
1.02797	39.02
1.04463	39.02
1.06130	39.02
1.07797	39.02
1.09463	39.02
1.11130	39.02
1.12797	39.02
1.14463	39.02
1.16130	39.02
1.17797	39.02
1.19463	39.02
1.21130	39.02
1.22797	39.02
1.24463	39.02
1.26130	39.02
1.27797	39.02
1.29463	39.02
1.31130	39.02
1.32797	39.02
1.34463	39.02
1.36130	39.02
1.37797	39.02
1.39463	39.02
1.41130	39.02
1.42797	39.02
1.44463	39.02
1.46130	39.02
1.47797	39.02
1.49463	39.02
1.51130	39.02
1.52797	39.02
1.54463	39.02
1.56130	39.02
1.57797	39.02
1.59463	39.02
1.61130	39.01
1.62797	39.00
1.64463	38.98
1.66130	38.96
1.67797	38.92
1.69463	38.89
1.71130	38.85
1.72797	38.82
1.74463	38.79
1.76130	38.76
1.77797	38.73
1.79463	38.70
1.81130	38.67
1.82797	38.63
1.84463	38.60
1.86130	38.57
1.87797	38.54
1.89463	38.51
1.91130	38.48
1.92797	38.45
1.94463	38.42
1.96130	38.39
1.97797	38.36
1.99463	38.33
2.01130	38.30
2.02797	38.27
2.04463	38.24
2.06130	38.21
2.07797	38.18
2.09463	38.15
2.11130	38.12
2.12797	38.09
2.14463	38.06
2.16130	38.03
2.17797	38.00
2.19463	37.97
2.21130	37.94
2.22797	37.91
2.24463	37.88
2.26130	37.85
2.27797	37.82
2.29463	37.79
2.31130	37.77
2.32797	37.73
2.34463	37.70
2.36130	37.68
2.37797	37.67
2.39463	37.66
2.41130	37.66
2.42797	37.67
2.44463	37.67
2.46130	37.66
2.47797	37.67
2.49463	37.66
2.51130	37.66
2.52797	37.65
2.54463	37.66
2.56130	37.66
2.57797	37.66
2.59463	37.66
2.61130	37.66
2.62797	37.66
2.64463	37.65
2.66130	37.65
2.67797	37.65
2.69463	37.65
2.71130	37.65
2.72797	37.65
2.74463	37.65
2.76130	37.65
2.77797	37.65
2.79463	37.65
2.81130	37.65
2.82797	37.65
2.84463	37.65
2.86130	37.65
2.87797	37.65
2.89463	37.65
2.91130	37.65
2.92797	37.64
2.94463	37.64
2.96130	37.64
2.97797	37.64
2.99463	37.64
3.01130	37.64
3.02797	37.64
3.04463	37.64
3.06130	37.63
3.07797	37.63
3.09463	37.63
3.11130	37.63
3.12797	37.63
3.14463	37.63
3.16130	37.63
3.17797	37.63
3.19463	37.63
3.21130	37.63
3.22797	37.63
3.24463	37.63
3.26130	37.63
3.27797	37.63
3.29463	37.63
3.31130	37.63
3.32797	37.63
3.34463	37.63
3.36130	37.63
3.37797	37.63
3.39463	37.63
3.41130	37.63
3.42797	37.63
3.44463	37.63
3.46130	37.63
3.47797	37.63
3.49463	37.63
3.51130	37.63
3.52797	37.63
3.54463	37.63
3.56130	37.63
3.57797	37.63
3.59463	37.63
3.61130	37.63
3.62797	37.63
3.64463	37.63
3.66130	37.63
3.67797	37.63
3.69463	37.63
3.71130	37.63
3.72797	37.63
3.74463	37.63
3.76130	37.63
3.77797	37.63
3.79463	37.63
3.81130	37.63
3.82797	37.63
3.84463	37.63
3.86130	37.63
3.87797	37.63
3.89463	37.63
3.91130	37.63
3.92797	37.63
3.94463	37.63
3.96130	37.63
3.97797	37.63

