[Header]
Application Name	LabSolutions
Version	5.110
Data File Name	C:\Users\User\Desktop\GC Analyses\Jack\Nachusa Grasslands Sampling\T3 Timepoint July 12th\T3_07122022_035.gcd
Output Date	3/14/2023
Output Time	3:43:32 PM

[File Information]
Type	Data File
Generated	3/13/2023 6:19:50 PM
Generated by	System Administrator
Modified	3/13/2023 6:26:23 PM
Modified by	System Administrator

[Sample Information]
Operator Name	System Administrator
Acquired	3/13/2023 6:22:22 PM
Sample Type	0:Unknown
Level	0
Sample Name	035
Sample ID	035
ISTD Amount1	1
ISTD Amount2	1
ISTD Amount3	1
ISTD Amount4	1
ISTD Amount5	1
ISTD Amount6	1
ISTD Amount7	1
ISTD Amount8	1
ISTD Amount9	1
ISTD Amount10	1
ISTD Amount11	1
ISTD Amount12	1
ISTD Amount13	1
ISTD Amount14	1
ISTD Amount15	1
ISTD Amount16	1
ISTD Amount17	1
ISTD Amount18	1
ISTD Amount19	1
ISTD Amount20	1
ISTD Amount21	1
ISTD Amount22	1
ISTD Amount23	1
ISTD Amount24	1
ISTD Amount25	1
ISTD Amount26	1
ISTD Amount27	1
ISTD Amount28	1
ISTD Amount29	1
ISTD Amount30	1
ISTD Amount31	1
ISTD Amount32	1
Sample Amount	1
Dilution Factor	1
Vial#	34
Injection Volume	1
Injection Count	1
Bar Code	

[Original Files]
Data File	C:\Users\User\Desktop\GC Analyses\Jack\Nachusa Grasslands Sampling\T3 Timepoint July 12th\T3_07122022_035.gcd
Method File	C:\LabSolutions\Data\GHG_4min_2022\ghg3_togas_w_acet_4 min_new_int.gcm
Batch File	C:\LabSolutions\Data\AutoSamplerTesting\T3_07122022.gcb
Report Format File	c:\LabSolutions\System\DEFAULT.lsr

[File Description]


[Configuration]
Instrument Name	C0B7VH3-Instrument1
Instrument #	1
Line #	1
# of Detectors	3
Detector ID	DET#1	DET#2	DET#3
Detector Name	FID	PTCD	ECD
# of Channels	1	1	1

[Peak Table(Ch1)]
# of Peaks	3
Peak#	R.Time	I.Time	F.Time	Area	Height	A/H	Conc.	Mark	ID#	Name	k'	Plate #	Plate Ht.	Tailing	Resolution	Sep.Factor	Area Ratio	Height Ratio	Conc. %	Norm Conc.
1	1.457	1.443	1.479	634	582	1.088	4.474	   	1	CO	0.000	31844	4.710	1.176	0.000	0.000	0	0	0.488	0.488
2	1.571	1.538	1.622	19955	10213	1.954	385.854	   	2	CH4	0.078	11671	12.852	1.137	2.503	0.000	0	0	42.051	42.051
3	2.000	1.952	2.297	2100863	1011028	2.078	527.260	   	3	CO2	0.372	17495	8.574	1.188	7.231	4.774	0	0	57.462	57.462

[Peak Table(Ch2)]
# of Peaks	0

[Peak Table(Ch3)]
# of Peaks	5
Peak#	R.Time	I.Time	F.Time	Area	Height	A/H	Conc.	Mark	ID#	Name	k'	Plate #	Plate Ht.	Tailing	Resolution	Sep.Factor	Area Ratio	Height Ratio	Conc. %	Norm Conc.
1	2.462	2.264	2.510	2213	596	3.713	0.000	   			0.000	9731	15.415	0.000	0.000	0.000	0	0	0.000	0.000
2	2.528	2.510	2.587	1041	330	3.157	0.000	 V 			0.027	4900	30.609	0.000	0.540	0.000	0	0	0.000	0.000
3	2.601	2.587	2.686	479	139	3.447	0.000	 V 			0.057	702	213.776	0.000	0.273	2.111	0	0	0.000	0.000
4	2.880	2.704	3.133	58034	14960	3.879	1.482	   	1	N2O	0.170	12644	11.863	1.557	1.125	3.000	0	0	100.000	100.000
5	3.430	3.298	3.995	14523	629	23.104	0.000	   	2	SF6	0.393	295	508.930	2.624	1.220	2.316	0	0	0.000	0.000

[Compound Results(Ch1)]
# of IDs	6
ID#	Name	R.Time	Area	Height	Conc.	Curve	3rd	2nd	1st	Constant	Area Ratio	Height Ratio	Conc. %	Norm Conc.
1	CO	1.457	634	582	4.474	Linear	0.000000e+00	0.000000e+00	1.416423e+002	0.000000e+00	0	0	0.488	0.488
2	CH4	1.571	19955	10213	385.854	Linear	0.000000e+00	0.000000e+00	5.171738e+001	0.000000e+00	0	0	42.051	42.051
3	CO2	2.000	2100863	1011028	527.260	Linear	0.000000e+00	0.000000e+00	3.984494e+003	0.000000e+00	0	0	57.462	57.462
4	Ethylene	0.000	0	0	0.000	Linear	0.000000e+00	0.000000e+00	0.000000e+00	0.000000e+00	0	0	0.000	0.000
5	Acetylene	0.000	0	0	0.000	Linear	0.000000e+00	0.000000e+00	0.000000e+00	0.000000e+00	0	0	0.000	0.000
6	Ethane	0.000	0	0	0.000	Linear	0.000000e+00	0.000000e+00	0.000000e+00	0.000000e+00	0	0	0.000	0.000

[Compound Results(Ch2)]
# of IDs	5
ID#	Name	R.Time	Area	Height	Conc.	Curve	3rd	2nd	1st	Constant	Area Ratio	Height Ratio	Conc. %	Norm Conc.
1	Hydrogen	0.000	0	0	0.000	Linear	0.000000e+00	0.000000e+00	0.000000e+00	0.000000e+00	0	0	0.000	0.000
2	Oxygen	0.000	0	0	0.000	Linear	0.000000e+00	0.000000e+00	0.000000e+00	0.000000e+00	0	0	0.000	0.000
3	Nitrogen	0.000	0	0	0.000	Linear	0.000000e+00	0.000000e+00	0.000000e+00	0.000000e+00	0	0	0.000	0.000
4	Methane	0.000	0	0	0.000	Linear	0.000000e+00	0.000000e+00	0.000000e+00	0.000000e+00	0	0	0.000	0.000
5	Carbon Monoxide	0.000	0	0	0.000	Linear	0.000000e+00	0.000000e+00	0.000000e+00	0.000000e+00	0	0	0.000	0.000

[Compound Results(Ch3)]
# of IDs	2
ID#	Name	R.Time	Area	Height	Conc.	Curve	3rd	2nd	1st	Constant	Area Ratio	Height Ratio	Conc. %	Norm Conc.
1	N2O	2.880	58034	14960	1.482	Linear	0.000000e+00	0.000000e+00	3.915173e+004	0.000000e+00	0	0	100.000	100.000
2	SF6	3.430	14523	629	0.000	Linear	0.000000e+00	0.000000e+00	0.000000e+00	0.000000e+00	0	0	0.000	0.000

[Group Results(Ch1)]
# of Groups	0

[Group Results(Ch2)]
# of Groups	0

[Group Results(Ch3)]
# of Groups	0

[Chromatogram (Ch1)]
Interval(msec)	220
# of Points	1091
Start Time(min)	0.002
End Time(min)	3.998
R.Time (min)	Intensity
0.00167	21
0.00533	25
0.00900	28
0.01267	24
0.01633	12
0.02000	-4
0.02367	-15
0.02733	-16
0.03100	-11
0.03467	-7
0.03833	-6
0.04200	-8
0.04567	-8
0.04933	-11
0.05300	-11
0.05667	-8
0.06033	-3
0.06400	3
0.06767	8
0.07133	10
0.07500	6
0.07867	-0
0.08233	-6
0.08600	-10
0.08967	-15
0.09333	-20
0.09700	-22
0.10067	-22
0.10433	-17
0.10800	-13
0.11167	-7
0.11533	-0
0.11900	8
0.12267	12
0.12633	5
0.13000	1
0.13367	5
0.13733	14
0.14100	17
0.14467	8
0.14833	0
0.15200	-4
0.15567	-5
0.15933	-3
0.16300	0
0.16667	6
0.17033	12
0.17400	17
0.17767	21
0.18133	23
0.18500	21
0.18867	15
0.19233	10
0.19600	1
0.19967	-6
0.20333	-10
0.20700	-8
0.21067	1
0.21433	9
0.21800	12
0.22167	14
0.22533	14
0.22900	12
0.23267	9
0.23633	7
0.24000	5
0.24367	2
0.24733	-2
0.25100	-9
0.25467	-12
0.25833	-11
0.26200	-10
0.26567	-13
0.26933	-17
0.27300	-23
0.27667	-27
0.28033	-27
0.28400	-22
0.28767	-12
0.29133	1
0.29500	13
0.29867	20
0.30233	28
0.30600	35
0.30967	35
0.31333	29
0.31700	23
0.32067	19
0.32433	20
0.32800	22
0.33167	24
0.33533	28
0.33900	35
0.34267	46
0.34633	54
0.35000	57
0.35367	56
0.35733	55
0.36100	53
0.36467	53
0.36833	51
0.37200	47
0.37567	49
0.37933	51
0.38300	58
0.38667	66
0.39033	73
0.39400	78
0.39767	80
0.40133	80
0.40500	83
0.40867	89
0.41233	92
0.41600	93
0.41967	92
0.42333	89
0.42700	85
0.43067	82
0.43433	80
0.43800	80
0.44167	79
0.44533	80
0.44900	80
0.45267	81
0.45633	81
0.46000	79
0.46367	78
0.46733	79
0.47100	79
0.47467	73
0.47833	64
0.48200	54
0.48567	49
0.48933	47
0.49300	41
0.49667	34
0.50033	29
0.50400	28
0.50767	29
0.51133	31
0.51500	33
0.51867	33
0.52233	32
0.52600	26
0.52967	16
0.53333	3
0.53700	-7
0.54067	-13
0.54433	-14
0.54800	-13
0.55167	-12
0.55533	-9
0.55900	-9
0.56267	-12
0.56633	-11
0.57000	-7
0.57367	-3
0.57733	2
0.58100	9
0.58467	15
0.58833	20
0.59200	22
0.59567	19
0.59933	13
0.60300	10
0.60667	10
0.61033	12
0.61400	15
0.61767	14
0.62133	10
0.62500	3
0.62867	-4
0.63233	-8
0.63600	-6
0.63967	3
0.64333	12
0.64700	14
0.65067	9
0.65433	0
0.65800	-4
0.66167	-6
0.66533	-10
0.66900	-12
0.67267	-10
0.67633	-10
0.68000	-14
0.68367	-16
0.68733	-10
0.69100	2
0.69467	8
0.69833	11
0.70200	12
0.70567	14
0.70933	9
0.71300	1
0.71667	-5
0.72033	-6
0.72400	-6
0.72767	-4
0.73133	-3
0.73500	-1
0.73867	3
0.74233	6
0.74600	3
0.74967	-3
0.75333	-12
0.75700	-17
0.76067	-13
0.76433	-8
0.76800	-4
0.77167	-3
0.77533	-5
0.77900	-7
0.78267	-6
0.78633	-4
0.79000	-5
0.79367	-9
0.79733	-8
0.80100	-12
0.80467	-20
0.80833	-24
0.81200	-22
0.81567	-20
0.81933	-18
0.82300	-13
0.82667	-1
0.83033	14
0.83400	24
0.83767	27
0.84133	24
0.84500	18
0.84867	7
0.85233	-6
0.85600	-16
0.85967	-22
0.86333	-21
0.86700	-15
0.87067	-12
0.87433	-13
0.87800	-9
0.88167	-9
0.88533	-8
0.88900	-9
0.89267	-11
0.89633	-12
0.90000	-12
0.90367	-14
0.90733	-21
0.91100	-25
0.91467	-23
0.91833	-20
0.92200	-18
0.92567	-16
0.92933	-16
0.93300	-15
0.93667	-16
0.94033	-20
0.94400	-26
0.94767	-28
0.95133	-25
0.95500	-18
0.95867	-12
0.96233	-12
0.96600	-17
0.96967	-22
0.97333	-26
0.97700	-30
0.98067	-29
0.98433	-26
0.98800	-23
0.99167	-18
0.99533	-12
0.99900	-13
1.00267	-15
1.00633	-14
1.01000	-14
1.01367	-14
1.01733	-17
1.02100	-21
1.02467	-21
1.02833	-21
1.03200	-22
1.03567	-18
1.03933	-15
1.04300	-14
1.04667	-11
1.05033	-6
1.05400	1
1.05767	15
1.06133	27
1.06500	27
1.06867	21
1.07233	11
1.07600	0
1.07967	-13
1.08333	-27
1.08700	-40
1.09067	-46
1.09433	-44
1.09800	-38
1.10167	-38
1.10533	-41
1.10900	-43
1.11267	-40
1.11633	-37
1.12000	-36
1.12367	-33
1.12733	-28
1.13100	-28
1.13467	-29
1.13833	-29
1.14200	-28
1.14567	-27
1.14933	-28
1.15300	-26
1.15667	-20
1.16033	-10
1.16400	1
1.16767	10
1.17133	13
1.17500	8
1.17867	2
1.18233	-5
1.18600	-14
1.18967	-22
1.19333	-34
1.19700	-43
1.20067	-44
1.20433	-41
1.20800	-34
1.21167	-30
1.21533	-27
1.21900	-27
1.22267	-27
1.22633	-23
1.23000	-17
1.23367	-13
1.23733	-13
1.24100	-20
1.24467	-26
1.24833	-31
1.25200	-32
1.25567	-29
1.25933	-26
1.26300	-26
1.26667	-32
1.27033	-41
1.27400	-47
1.27767	-48
1.28133	-44
1.28500	-40
1.28867	-34
1.29233	-28
1.29600	-23
1.29967	-24
1.30333	-25
1.30700	-25
1.31067	-27
1.31433	-30
1.31800	-28
1.32167	-22
1.32533	-14
1.32900	-4
1.33267	1
1.33633	2
1.34000	-2
1.34367	-9
1.34733	-17
1.35100	-24
1.35467	-27
1.35833	-25
1.36200	-19
1.36567	-19
1.36933	-25
1.37300	-33
1.37667	-38
1.38033	-38
1.38400	-37
1.38767	-40
1.39133	-46
1.39500	-50
1.39867	-48
1.40233	-49
1.40600	-48
1.40967	-46
1.41333	-42
1.41700	-35
1.42067	-26
1.42433	-18
1.42800	-14
1.43167	-13
1.43533	-14
1.43900	-12
1.44267	12
1.44633	124
1.45000	334
1.45367	494
1.45733	520
1.46100	434
1.46467	281
1.46833	114
1.47200	-28
1.47567	-123
1.47933	-174
1.48300	-207
1.48667	-231
1.49033	-257
1.49400	-287
1.49767	-314
1.50133	-337
1.50500	-355
1.50867	-369
1.51233	-380
1.51600	-386
1.51967	-384
1.52333	-377
1.52700	-363
1.53067	-342
1.53433	-313
1.53800	-252
1.54167	-28
1.54533	633
1.54900	1960
1.55267	3845
1.55633	5880
1.56000	7682
1.56367	9049
1.56733	9883
1.57100	10059
1.57467	9471
1.57833	8207
1.58200	6576
1.58567	4927
1.58933	3499
1.59300	2379
1.59667	1562
1.60033	995
1.60400	614
1.60767	365
1.61133	206
1.61500	104
1.61867	40
1.62233	-2
1.62600	-31
1.62967	-52
1.63333	-68
1.63700	-81
1.64067	-88
1.64433	-91
1.64800	-86
1.65167	-78
1.65533	-76
1.65900	-75
1.66267	-77
1.66633	-84
1.67000	-92
1.67367	-96
1.67733	-102
1.68100	-105
1.68467	-104
1.68833	-106
1.69200	-108
1.69567	-106
1.69933	-107
1.70300	-104
1.70667	-95
1.71033	-84
1.71400	-76
1.71767	-76
1.72133	-80
1.72500	-84
1.72867	-88
1.73233	-90
1.73600	-87
1.73967	-79
1.74333	-71
1.74700	-63
1.75067	-58
1.75433	-59
1.75800	-59
1.76167	-58
1.76533	-64
1.76900	-68
1.77267	-63
1.77633	-52
1.78000	-42
1.78367	-35
1.78733	-35
1.79100	-39
1.79467	-47
1.79833	-54
1.80200	-60
1.80567	-64
1.80933	-67
1.81300	-68
1.81667	-66
1.82033	-65
1.82400	-66
1.82767	-68
1.83133	-73
1.83500	-74
1.83867	-75
1.84233	-78
1.84600	-79
1.84967	-78
1.85333	-76
1.85700	-70
1.86067	-64
1.86433	-54
1.86800	-46
1.87167	-45
1.87533	-46
1.87900	-50
1.88267	-57
1.88633	-63
1.89000	-64
1.89367	-64
1.89733	-67
1.90100	-66
1.90467	-60
1.90833	-54
1.91200	-51
1.91567	-45
1.91933	-32
1.92300	-21
1.92667	-14
1.93033	-11
1.93400	-14
1.93767	-23
1.94133	-32
1.94500	-38
1.94867	-40
1.95233	-30
1.95600	47
1.95967	536
1.96333	3028
1.96700	12743
1.97067	41700
1.97433	108393
1.97800	227738
1.98167	396457
1.98533	589681
1.98900	773098
1.99267	916518
1.99633	999263
2.00000	1011038
2.00367	953461
2.00733	840845
2.01100	696547
2.01467	545802
2.01833	408316
2.02200	294686
2.02567	207321
2.02933	143566
2.03300	98705
2.03667	67896
2.04033	47051
2.04400	33048
2.04767	23647
2.05133	17305
2.05500	12988
2.05867	10008
2.06233	7918
2.06600	6419
2.06967	5319
2.07333	4495
2.07700	3866
2.08067	3372
2.08433	2979
2.08800	2658
2.09167	2394
2.09533	2173
2.09900	1987
2.10267	1826
2.10633	1687
2.11000	1563
2.11367	1445
2.11733	1340
2.12100	1253
2.12467	1180
2.12833	1114
2.13200	1056
2.13567	1006
2.13933	956
2.14300	904
2.14667	852
2.15033	806
2.15400	767
2.15767	737
2.16133	709
2.16500	683
2.16867	662
2.17233	643
2.17600	621
2.17967	598
2.18333	577
2.18700	562
2.19067	549
2.19433	536
2.19800	526
2.20167	517
2.20533	504
2.20900	489
2.21267	472
2.21633	453
2.22000	431
2.22367	416
2.22733	409
2.23100	407
2.23467	405
2.23833	400
2.24200	390
2.24567	376
2.24933	363
2.25300	352
2.25667	343
2.26033	337
2.26400	336
2.26767	341
2.27133	349
2.27500	354
2.27867	351
2.28233	339
2.28600	322
2.28967	302
2.29333	281
2.29700	263
2.30067	251
2.30433	246
2.30800	248
2.31167	252
2.31533	256
2.31900	260
2.32267	267
2.32633	275
2.33000	281
2.33367	278
2.33733	272
2.34100	265
2.34467	257
2.34833	246
2.35200	235
2.35567	229
2.35933	229
2.36300	228
2.36667	230
2.37033	235
2.37400	241
2.37767	243
2.38133	245
2.38500	243
2.38867	238
2.39233	230
2.39600	223
2.39967	219
2.40333	218
2.40700	223
2.41067	227
2.41433	228
2.41800	230
2.42167	231
2.42533	234
2.42900	233
2.43267	232
2.43633	228
2.44000	222
2.44367	215
2.44733	211
2.45100	206
2.45467	203
2.45833	205
2.46200	207
2.46567	206
2.46933	202
2.47300	197
2.47667	194
2.48033	194
2.48400	191
2.48767	184
2.49133	177
2.49500	173
2.49867	171
2.50233	171
2.50600	175
2.50967	179
2.51333	181
2.51700	179
2.52067	176
2.52433	175
2.52800	176
2.53167	177
2.53533	180
2.53900	182
2.54267	184
2.54633	188
2.55000	191
2.55367	188
2.55733	184
2.56100	178
2.56467	175
2.56833	175
2.57200	178
2.57567	183
2.57933	190
2.58300	197
2.58667	205
2.59033	211
2.59400	212
2.59767	205
2.60133	191
2.60500	174
2.60867	162
2.61233	155
2.61600	149
2.61967	143
2.62333	138
2.62700	135
2.63067	137
2.63433	145
2.63800	158
2.64167	167
2.64533	165
2.64900	161
2.65267	159
2.65633	161
2.66000	170
2.66367	181
2.66733	191
2.67100	196
2.67467	198
2.67833	198
2.68200	193
2.68567	185
2.68933	178
2.69300	174
2.69667	166
2.70033	160
2.70400	159
2.70767	158
2.71133	158
2.71500	158
2.71867	162
2.72233	168
2.72600	174
2.72967	179
2.73333	185
2.73700	192
2.74067	198
2.74433	202
2.74800	199
2.75167	195
2.75533	195
2.75900	197
2.76267	196
2.76633	193
2.77000	188
2.77367	182
2.77733	177
2.78100	174
2.78467	172
2.78833	174
2.79200	178
2.79567	181
2.79933	179
2.80300	177
2.80667	177
2.81033	178
2.81400	183
2.81767	192
2.82133	196
2.82500	197
2.82867	195
2.83233	194
2.83600	198
2.83967	207
2.84333	214
2.84700	215
2.85067	212
2.85433	205
2.85800	195
2.86167	185
2.86533	177
2.86900	175
2.87267	175
2.87633	179
2.88000	191
2.88367	205
2.88733	215
2.89100	222
2.89467	222
2.89833	221
2.90200	218
2.90567	208
2.90933	195
2.91300	185
2.91667	180
2.92033	180
2.92400	180
2.92767	182
2.93133	184
2.93500	181
2.93867	178
2.94233	175
2.94600	175
2.94967	177
2.95333	183
2.95700	190
2.96067	195
2.96433	199
2.96800	201
2.97167	200
2.97533	201
2.97900	208
2.98267	213
2.98633	214
2.99000	209
2.99367	199
2.99733	192
3.00100	193
3.00467	199
3.00833	200
3.01200	201
3.01567	202
3.01933	203
3.02300	200
3.02667	192
3.03033	183
3.03400	176
3.03767	172
3.04133	168
3.04500	170
3.04867	175
3.05233	178
3.05600	182
3.05967	190
3.06333	197
3.06700	203
3.07067	207
3.07433	211
3.07800	214
3.08167	217
3.08533	218
3.08900	215
3.09267	213
3.09633	211
3.10000	206
3.10367	196
3.10733	184
3.11100	176
3.11467	172
3.11833	173
3.12200	177
3.12567	179
3.12933	178
3.13300	175
3.13667	172
3.14033	172
3.14400	179
3.14767	186
3.15133	189
3.15500	189
3.15867	187
3.16233	188
3.16600	190
3.16967	194
3.17333	194
3.17700	192
3.18067	191
3.18433	187
3.18800	179
3.19167	167
3.19533	162
3.19900	159
3.20267	157
3.20633	156
3.21000	162
3.21367	172
3.21733	180
3.22100	185
3.22467	186
3.22833	182
3.23200	166
3.23567	152
3.23933	144
3.24300	144
3.24667	154
3.25033	168
3.25400	178
3.25767	189
3.26133	204
3.26500	211
3.26867	208
3.27233	199
3.27600	186
3.27967	170
3.28333	155
3.28700	149
3.29067	145
3.29433	141
3.29800	138
3.30167	134
3.30533	130
3.30900	129
3.31267	133
3.31633	142
3.32000	151
3.32367	157
3.32733	163
3.33100	170
3.33467	180
3.33833	190
3.34200	192
3.34567	186
3.34933	177
3.35300	170
3.35667	166
3.36033	165
3.36400	164
3.36767	165
3.37133	164
3.37500	164
3.37867	164
3.38233	161
3.38600	158
3.38967	158
3.39333	153
3.39700	147
3.40067	142
3.40433	140
3.40800	140
3.41167	139
3.41533	140
3.41900	141
3.42267	143
3.42633	147
3.43000	150
3.43367	151
3.43733	155
3.44100	161
3.44467	168
3.44833	171
3.45200	166
3.45567	160
3.45933	151
3.46300	140
3.46667	133
3.47033	129
3.47400	129
3.47767	129
3.48133	133
3.48500	135
3.48867	136
3.49233	141
3.49600	147
3.49967	154
3.50333	164
3.50700	168
3.51067	164
3.51433	155
3.51800	146
3.52167	140
3.52533	136
3.52900	136
3.53267	139
3.53633	143
3.54000	147
3.54367	149
3.54733	146
3.55100	137
3.55467	131
3.55833	130
3.56200	133
3.56567	136
3.56933	138
3.57300	141
3.57667	140
3.58033	139
3.58400	141
3.58767	143
3.59133	142
3.59500	141
3.59867	141
3.60233	139
3.60600	133
3.60967	125
3.61333	119
3.61700	119
3.62067	118
3.62433	113
3.62800	112
3.63167	117
3.63533	124
3.63900	129
3.64267	130
3.64633	130
3.65000	131
3.65367	138
3.65733	145
3.66100	147
3.66467	145
3.66833	144
3.67200	137
3.67567	127
3.67933	122
3.68300	123
3.68667	124
3.69033	120
3.69400	112
3.69767	105
3.70133	102
3.70500	99
3.70867	96
3.71233	99
3.71600	110
3.71967	117
3.72333	118
3.72700	116
3.73067	114
3.73433	113
3.73800	114
3.74167	119
3.74533	123
3.74900	127
3.75267	128
3.75633	127
3.76000	123
3.76367	117
3.76733	109
3.77100	98
3.77467	89
3.77833	85
3.78200	81
3.78567	82
3.78933	90
3.79300	96
3.79667	98
3.80033	99
3.80400	100
3.80767	101
3.81133	104
3.81500	111
3.81867	117
3.82233	120
3.82600	119
3.82967	117
3.83333	116
3.83700	115
3.84067	117
3.84433	118
3.84800	116
3.85167	114
3.85533	111
3.85900	107
3.86267	102
3.86633	96
3.87000	95
3.87367	100
3.87733	109
3.88100	115
3.88467	118
3.88833	116
3.89200	109
3.89567	102
3.89933	96
3.90300	96
3.90667	100
3.91033	100
3.91400	92
3.91767	80
3.92133	74
3.92500	72
3.92867	73
3.93233	77
3.93600	81
3.93967	88
3.94333	95
3.94700	101
3.95067	105
3.95433	107
3.95800	106
3.96167	103
3.96533	98
3.96900	93
3.97267	88
3.97633	90
3.98000	94
3.98367	97
3.98733	97
3.99100	93
3.99467	85
3.99833	79

[Chromatogram (Ch2)]
Interval(msec)	220
# of Points	1091
Start Time(min)	0.002
End Time(min)	3.998
R.Time (min)	Intensity
0.00167	0
0.00533	-0
0.00900	-0
0.01267	-1
0.01633	-1
0.02000	-1
0.02367	-1
0.02733	-1
0.03100	-1
0.03467	-1
0.03833	-1
0.04200	-1
0.04567	-1
0.04933	-1
0.05300	-1
0.05667	-1
0.06033	-1
0.06400	-1
0.06767	-1
0.07133	-1
0.07500	-1
0.07867	-0
0.08233	0
0.08600	0
0.08967	1
0.09333	1
0.09700	2
0.10067	2
0.10433	3
0.10800	3
0.11167	3
0.11533	3
0.11900	3
0.12267	3
0.12633	3
0.13000	3
0.13367	3
0.13733	3
0.14100	3
0.14467	3
0.14833	3
0.15200	3
0.15567	3
0.15933	3
0.16300	3
0.16667	3
0.17033	3
0.17400	3
0.17767	3
0.18133	3
0.18500	2
0.18867	2
0.19233	2
0.19600	2
0.19967	2
0.20333	2
0.20700	2
0.21067	1
0.21433	1
0.21800	1
0.22167	1
0.22533	-0
0.22900	-1
0.23267	-2
0.23633	-3
0.24000	-3
0.24367	-4
0.24733	-4
0.25100	-5
0.25467	-5
0.25833	-5
0.26200	-5
0.26567	-5
0.26933	-5
0.27300	-5
0.27667	-5
0.28033	-5
0.28400	-4
0.28767	-4
0.29133	-4
0.29500	-3
0.29867	-3
0.30233	-3
0.30600	-2
0.30967	-2
0.31333	-2
0.31700	-1
0.32067	-1
0.32433	-1
0.32800	-1
0.33167	-1
0.33533	-1
0.33900	-0
0.34267	-0
0.34633	0
0.35000	0
0.35367	1
0.35733	1
0.36100	1
0.36467	1
0.36833	0
0.37200	-0
0.37567	-0
0.37933	-1
0.38300	-1
0.38667	-1
0.39033	-1
0.39400	-1
0.39767	-0
0.40133	-0
0.40500	-0
0.40867	0
0.41233	0
0.41600	0
0.41967	0
0.42333	0
0.42700	0
0.43067	0
0.43433	0
0.43800	0
0.44167	0
0.44533	1
0.44900	1
0.45267	1
0.45633	2
0.46000	2
0.46367	2
0.46733	2
0.47100	2
0.47467	2
0.47833	1
0.48200	1
0.48567	1
0.48933	1
0.49300	0
0.49667	0
0.50033	-0
0.50400	-0
0.50767	-1
0.51133	-1
0.51500	-1
0.51867	-1
0.52233	-1
0.52600	-2
0.52967	-2
0.53333	-2
0.53700	-3
0.54067	-3
0.54433	-3
0.54800	-3
0.55167	-3
0.55533	-3
0.55900	-3
0.56267	-3
0.56633	-2
0.57000	-2
0.57367	-2
0.57733	-2
0.58100	-2
0.58467	-2
0.58833	-2
0.59200	-2
0.59567	-2
0.59933	-2
0.60300	-2
0.60667	-1
0.61033	-1
0.61400	-1
0.61767	-1
0.62133	-1
0.62500	-1
0.62867	-1
0.63233	-1
0.63600	-0
0.63967	-0
0.64333	0
0.64700	0
0.65067	0
0.65433	0
0.65800	0
0.66167	0
0.66533	0
0.66900	0
0.67267	0
0.67633	-0
0.68000	-0
0.68367	-0
0.68733	-1
0.69100	-1
0.69467	-1
0.69833	-1
0.70200	-2
0.70567	-2
0.70933	-2
0.71300	-2
0.71667	-2
0.72033	-3
0.72400	-3
0.72767	-3
0.73133	-3
0.73500	-3
0.73867	-3
0.74233	-3
0.74600	-4
0.74967	-4
0.75333	-4
0.75700	-4
0.76067	-4
0.76433	-4
0.76800	-4
0.77167	-4
0.77533	-4
0.77900	-4
0.78267	-4
0.78633	-4
0.79000	-4
0.79367	-4
0.79733	-3
0.80100	-3
0.80467	-3
0.80833	-3
0.81200	-3
0.81567	-2
0.81933	-2
0.82300	-1
0.82667	-0
0.83033	0
0.83400	1
0.83767	1
0.84133	2
0.84500	2
0.84867	2
0.85233	3
0.85600	3
0.85967	3
0.86333	2
0.86700	2
0.87067	2
0.87433	2
0.87800	2
0.88167	1
0.88533	1
0.88900	1
0.89267	0
0.89633	0
0.90000	-0
0.90367	-1
0.90733	-1
0.91100	-2
0.91467	-3
0.91833	-3
0.92200	-3
0.92567	-4
0.92933	-4
0.93300	-4
0.93667	-4
0.94033	-4
0.94400	-4
0.94767	-4
0.95133	-3
0.95500	-3
0.95867	-3
0.96233	-3
0.96600	-2
0.96967	-2
0.97333	-2
0.97700	-2
0.98067	-1
0.98433	-1
0.98800	-1
0.99167	-1
0.99533	-0
0.99900	-0
1.00267	-0
1.00633	0
1.01000	0
1.01367	0
1.01733	-0
1.02100	0
1.02467	0
1.02833	0
1.03200	0
1.03567	0
1.03933	-0
1.04300	-0
1.04667	-0
1.05033	-1
1.05400	-1
1.05767	-1
1.06133	-1
1.06500	-2
1.06867	-2
1.07233	-2
1.07600	-2
1.07967	-2
1.08333	-2
1.08700	-2
1.09067	-2
1.09433	-2
1.09800	-2
1.10167	-1
1.10533	-1
1.10900	-1
1.11267	-1
1.11633	-1
1.12000	-1
1.12367	-1
1.12733	-1
1.13100	-1
1.13467	-1
1.13833	-1
1.14200	-2
1.14567	-2
1.14933	-2
1.15300	-2
1.15667	-2
1.16033	-2
1.16400	-2
1.16767	-2
1.17133	-2
1.17500	-2
1.17867	-2
1.18233	-1
1.18600	-1
1.18967	-1
1.19333	-1
1.19700	-1
1.20067	-1
1.20433	-0
1.20800	-0
1.21167	-0
1.21533	-0
1.21900	0
1.22267	0
1.22633	0
1.23000	1
1.23367	1
1.23733	1
1.24100	0
1.24467	0
1.24833	1
1.25200	1
1.25567	1
1.25933	1
1.26300	0
1.26667	0
1.27033	0
1.27400	-0
1.27767	-0
1.28133	-0
1.28500	-0
1.28867	-1
1.29233	-1
1.29600	-1
1.29967	-2
1.30333	-2
1.30700	-3
1.31067	-4
1.31433	-5
1.31800	-5
1.32167	-5
1.32533	-5
1.32900	-5
1.33267	-5
1.33633	-5
1.34000	-5
1.34367	-5
1.34733	-5
1.35100	-5
1.35467	-5
1.35833	-5
1.36200	-5
1.36567	-5
1.36933	-5
1.37300	-4
1.37667	-4
1.38033	-4
1.38400	-3
1.38767	-3
1.39133	-3
1.39500	-3
1.39867	-3
1.40233	-3
1.40600	-3
1.40967	-3
1.41333	-3
1.41700	-3
1.42067	-3
1.42433	-3
1.42800	-3
1.43167	-3
1.43533	-3
1.43900	-3
1.44267	-3
1.44633	-3
1.45000	-3
1.45367	-3
1.45733	-2
1.46100	-2
1.46467	-1
1.46833	-1
1.47200	-1
1.47567	-0
1.47933	-0
1.48300	-0
1.48667	-0
1.49033	-0
1.49400	-0
1.49767	-0
1.50133	-0
1.50500	-1
1.50867	-1
1.51233	-1
1.51600	-1
1.51967	-1
1.52333	-1
1.52700	-1
1.53067	-1
1.53433	-1
1.53800	-0
1.54167	-0
1.54533	-0
1.54900	-0
1.55267	-0
1.55633	0
1.56000	0
1.56367	1
1.56733	1
1.57100	1
1.57467	1
1.57833	1
1.58200	1
1.58567	0
1.58933	0
1.59300	-0
1.59667	-1
1.60033	-2
1.60400	-3
1.60767	-4
1.61133	-6
1.61500	-8
1.61867	-10
1.62233	-13
1.62600	-16
1.62967	-19
1.63333	-23
1.63700	-26
1.64067	-29
1.64433	-33
1.64800	-36
1.65167	-40
1.65533	-43
1.65900	-47
1.66267	-51
1.66633	-55
1.67000	-60
1.67367	-64
1.67733	-70
1.68100	-75
1.68467	-80
1.68833	-85
1.69200	-89
1.69567	-93
1.69933	-97
1.70300	-99
1.70667	-102
1.71033	-103
1.71400	-105
1.71767	-105
1.72133	-106
1.72500	-106
1.72867	-106
1.73233	-106
1.73600	-106
1.73967	-106
1.74333	-106
1.74700	-105
1.75067	-105
1.75433	-106
1.75800	-106
1.76167	-107
1.76533	-108
1.76900	-109
1.77267	-110
1.77633	-110
1.78000	-111
1.78367	-112
1.78733	-113
1.79100	-114
1.79467	-114
1.79833	-115
1.80200	-115
1.80567	-115
1.80933	-115
1.81300	-114
1.81667	-113
1.82033	-113
1.82400	-113
1.82767	-112
1.83133	-112
1.83500	-112
1.83867	-112
1.84233	-113
1.84600	-113
1.84967	-114
1.85333	-114
1.85700	-114
1.86067	-114
1.86433	-114
1.86800	-113
1.87167	-113
1.87533	-113
1.87900	-113
1.88267	-113
1.88633	-112
1.89000	-112
1.89367	-111
1.89733	-111
1.90100	-111
1.90467	-111
1.90833	-112
1.91200	-112
1.91567	-112
1.91933	-113
1.92300	-113
1.92667	-113
1.93033	-113
1.93400	-112
1.93767	-112
1.94133	-112
1.94500	-111
1.94867	-111
1.95233	-111
1.95600	-111
1.95967	-111
1.96333	-111
1.96700	-111
1.97067	-110
1.97433	-110
1.97800	-109
1.98167	-109
1.98533	-109
1.98900	-109
1.99267	-108
1.99633	-108
2.00000	-107
2.00367	-106
2.00733	-106
2.01100	-106
2.01467	-105
2.01833	-105
2.02200	-105
2.02567	-105
2.02933	-105
2.03300	-105
2.03667	-105
2.04033	-105
2.04400	-105
2.04767	-105
2.05133	-104
2.05500	-104
2.05867	-103
2.06233	-101
2.06600	-100
2.06967	-99
2.07333	-99
2.07700	-98
2.08067	-98
2.08433	-98
2.08800	-98
2.09167	-98
2.09533	-98
2.09900	-98
2.10267	-99
2.10633	-99
2.11000	-98
2.11367	-98
2.11733	-98
2.12100	-97
2.12467	-96
2.12833	-96
2.13200	-96
2.13567	-96
2.13933	-95
2.14300	-95
2.14667	-94
2.15033	-94
2.15400	-93
2.15767	-93
2.16133	-93
2.16500	-92
2.16867	-92
2.17233	-92
2.17600	-92
2.17967	-91
2.18333	-91
2.18700	-91
2.19067	-90
2.19433	-90
2.19800	-89
2.20167	-88
2.20533	-88
2.20900	-89
2.21267	-89
2.21633	-89
2.22000	-88
2.22367	-88
2.22733	-87
2.23100	-87
2.23467	-86
2.23833	-86
2.24200	-85
2.24567	-85
2.24933	-84
2.25300	-84
2.25667	-83
2.26033	-83
2.26400	-83
2.26767	-83
2.27133	-83
2.27500	-83
2.27867	-83
2.28233	-83
2.28600	-82
2.28967	-82
2.29333	-81
2.29700	-81
2.30067	-80
2.30433	-80
2.30800	-79
2.31167	-79
2.31533	-78
2.31900	-78
2.32267	-77
2.32633	-77
2.33000	-77
2.33367	-76
2.33733	-76
2.34100	-75
2.34467	-75
2.34833	-75
2.35200	-74
2.35567	-74
2.35933	-74
2.36300	-73
2.36667	-72
2.37033	-71
2.37400	-69
2.37767	-66
2.38133	-63
2.38500	-60
2.38867	-56
2.39233	-52
2.39600	-47
2.39967	-43
2.40333	-38
2.40700	-33
2.41067	-29
2.41433	-25
2.41800	-21
2.42167	-18
2.42533	-16
2.42900	-13
2.43267	-11
2.43633	-10
2.44000	-9
2.44367	-8
2.44733	-7
2.45100	-7
2.45467	-6
2.45833	-5
2.46200	-5
2.46567	-4
2.46933	-4
2.47300	-3
2.47667	-2
2.48033	-1
2.48400	0
2.48767	1
2.49133	2
2.49500	3
2.49867	4
2.50233	5
2.50600	6
2.50967	7
2.51333	7
2.51700	8
2.52067	9
2.52433	10
2.52800	11
2.53167	11
2.53533	12
2.53900	13
2.54267	13
2.54633	13
2.55000	13
2.55367	13
2.55733	14
2.56100	14
2.56467	15
2.56833	16
2.57200	17
2.57567	17
2.57933	18
2.58300	18
2.58667	17
2.59033	17
2.59400	17
2.59767	16
2.60133	16
2.60500	17
2.60867	17
2.61233	18
2.61600	18
2.61967	19
2.62333	20
2.62700	20
2.63067	20
2.63433	20
2.63800	21
2.64167	21
2.64533	21
2.64900	21
2.65267	21
2.65633	21
2.66000	22
2.66367	22
2.66733	21
2.67100	21
2.67467	21
2.67833	21
2.68200	21
2.68567	21
2.68933	21
2.69300	22
2.69667	22
2.70033	23
2.70400	24
2.70767	24
2.71133	24
2.71500	24
2.71867	24
2.72233	24
2.72600	24
2.72967	24
2.73333	24
2.73700	24
2.74067	24
2.74433	24
2.74800	25
2.75167	25
2.75533	25
2.75900	26
2.76267	26
2.76633	26
2.77000	26
2.77367	27
2.77733	27
2.78100	27
2.78467	27
2.78833	27
2.79200	28
2.79567	28
2.79933	28
2.80300	28
2.80667	28
2.81033	28
2.81400	28
2.81767	28
2.82133	28
2.82500	27
2.82867	27
2.83233	27
2.83600	27
2.83967	26
2.84333	24
2.84700	22
2.85067	17
2.85433	10
2.85800	-1
2.86167	-16
2.86533	-35
2.86900	-60
2.87267	-90
2.87633	-126
2.88000	-168
2.88367	-215
2.88733	-268
2.89100	-326
2.89467	-388
2.89833	-455
2.90200	-526
2.90567	-601
2.90933	-679
2.91300	-760
2.91667	-844
2.92033	-931
2.92400	-1020
2.92767	-1111
2.93133	-1203
2.93500	-1298
2.93867	-1392
2.94233	-1476
2.94600	-1538
2.94967	-1567
2.95333	-1558
2.95700	-1514
2.96067	-1441
2.96433	-1347
2.96800	-1240
2.97167	-1127
2.97533	-1013
2.97900	-902
2.98267	-797
2.98633	-700
2.99000	-611
2.99367	-531
2.99733	-460
3.00100	-396
3.00467	-340
3.00833	-292
3.01200	-249
3.01567	-212
3.01933	-180
3.02300	-153
3.02667	-129
3.03033	-109
3.03400	-92
3.03767	-77
3.04133	-64
3.04500	-54
3.04867	-45
3.05233	-37
3.05600	-31
3.05967	-25
3.06333	-20
3.06700	-17
3.07067	-13
3.07433	-10
3.07800	-7
3.08167	-5
3.08533	-2
3.08900	-0
3.09267	2
3.09633	3
3.10000	5
3.10367	6
3.10733	7
3.11100	8
3.11467	9
3.11833	10
3.12200	10
3.12567	11
3.12933	11
3.13300	12
3.13667	12
3.14033	13
3.14400	14
3.14767	14
3.15133	15
3.15500	15
3.15867	16
3.16233	16
3.16600	17
3.16967	18
3.17333	18
3.17700	18
3.18067	19
3.18433	19
3.18800	20
3.19167	20
3.19533	20
3.19900	20
3.20267	21
3.20633	21
3.21000	21
3.21367	21
3.21733	21
3.22100	21
3.22467	21
3.22833	22
3.23200	22
3.23567	22
3.23933	22
3.24300	22
3.24667	23
3.25033	23
3.25400	22
3.25767	22
3.26133	22
3.26500	22
3.26867	22
3.27233	23
3.27600	23
3.27967	23
3.28333	23
3.28700	23
3.29067	24
3.29433	24
3.29800	24
3.30167	24
3.30533	24
3.30900	24
3.31267	24
3.31633	24
3.32000	24
3.32367	24
3.32733	24
3.33100	24
3.33467	24
3.33833	24
3.34200	24
3.34567	24
3.34933	24
3.35300	24
3.35667	24
3.36033	24
3.36400	24
3.36767	24
3.37133	24
3.37500	24
3.37867	24
3.38233	24
3.38600	24
3.38967	24
3.39333	25
3.39700	25
3.40067	25
3.40433	25
3.40800	25
3.41167	25
3.41533	25
3.41900	25
3.42267	26
3.42633	26
3.43000	27
3.43367	27
3.43733	28
3.44100	28
3.44467	28
3.44833	29
3.45200	29
3.45567	29
3.45933	29
3.46300	30
3.46667	30
3.47033	30
3.47400	30
3.47767	30
3.48133	30
3.48500	30
3.48867	30
3.49233	30
3.49600	30
3.49967	30
3.50333	29
3.50700	29
3.51067	29
3.51433	29
3.51800	29
3.52167	29
3.52533	28
3.52900	28
3.53267	28
3.53633	28
3.54000	28
3.54367	27
3.54733	27
3.55100	27
3.55467	27
3.55833	27
3.56200	27
3.56567	27
3.56933	27
3.57300	28
3.57667	28
3.58033	28
3.58400	28
3.58767	29
3.59133	29
3.59500	29
3.59867	28
3.60233	28
3.60600	28
3.60967	28
3.61333	28
3.61700	27
3.62067	27
3.62433	27
3.62800	27
3.63167	27
3.63533	27
3.63900	27
3.64267	28
3.64633	28
3.65000	28
3.65367	28
3.65733	28
3.66100	27
3.66467	27
3.66833	27
3.67200	27
3.67567	27
3.67933	27
3.68300	27
3.68667	27
3.69033	27
3.69400	27
3.69767	26
3.70133	26
3.70500	25
3.70867	25
3.71233	25
3.71600	25
3.71967	25
3.72333	26
3.72700	26
3.73067	26
3.73433	27
3.73800	27
3.74167	27
3.74533	27
3.74900	27
3.75267	28
3.75633	28
3.76000	27
3.76367	27
3.76733	27
3.77100	27
3.77467	27
3.77833	27
3.78200	26
3.78567	26
3.78933	26
3.79300	27
3.79667	27
3.80033	27
3.80400	27
3.80767	27
3.81133	27
3.81500	27
3.81867	27
3.82233	26
3.82600	26
3.82967	26
3.83333	26
3.83700	26
3.84067	26
3.84433	25
3.84800	25
3.85167	26
3.85533	26
3.85900	26
3.86267	26
3.86633	26
3.87000	26
3.87367	26
3.87733	26
3.88100	26
3.88467	26
3.88833	26
3.89200	26
3.89567	26
3.89933	26
3.90300	26
3.90667	27
3.91033	27
3.91400	26
3.91767	26
3.92133	26
3.92500	26
3.92867	26
3.93233	26
3.93600	26
3.93967	26
3.94333	26
3.94700	26
3.95067	26
3.95433	27
3.95800	27
3.96167	27
3.96533	27
3.96900	27
3.97267	27
3.97633	27
3.98000	27
3.98367	27
3.98733	27
3.99100	27
3.99467	27
3.99833	27

[Chromatogram (Ch3)]
Interval(msec)	220
# of Points	1091
Start Time(min)	0.002
End Time(min)	3.998
R.Time (min)	Intensity
0.00167	0
0.00533	2
0.00900	4
0.01267	7
0.01633	10
0.02000	11
0.02367	10
0.02733	9
0.03100	10
0.03467	9
0.03833	6
0.04200	2
0.04567	1
0.04933	0
0.05300	1
0.05667	1
0.06033	1
0.06400	2
0.06767	2
0.07133	2
0.07500	3
0.07867	4
0.08233	6
0.08600	9
0.08967	10
0.09333	10
0.09700	10
0.10067	10
0.10433	7
0.10800	5
0.11167	4
0.11533	4
0.11900	6
0.12267	8
0.12633	9
0.13000	9
0.13367	8
0.13733	6
0.14100	5
0.14467	4
0.14833	6
0.15200	7
0.15567	8
0.15933	6
0.16300	4
0.16667	5
0.17033	6
0.17400	7
0.17767	7
0.18133	5
0.18500	4
0.18867	3
0.19233	0
0.19600	0
0.19967	1
0.20333	1
0.20700	3
0.21067	5
0.21433	6
0.21800	5
0.22167	3
0.22533	1
0.22900	0
0.23267	0
0.23633	0
0.24000	3
0.24367	6
0.24733	6
0.25100	5
0.25467	4
0.25833	4
0.26200	4
0.26567	4
0.26933	4
0.27300	4
0.27667	3
0.28033	1
0.28400	2
0.28767	5
0.29133	5
0.29500	5
0.29867	5
0.30233	5
0.30600	4
0.30967	4
0.31333	3
0.31700	2
0.32067	2
0.32433	3
0.32800	5
0.33167	4
0.33533	4
0.33900	5
0.34267	6
0.34633	4
0.35000	2
0.35367	-0
0.35733	-1
0.36100	-0
0.36467	-1
0.36833	-0
0.37200	2
0.37567	4
0.37933	4
0.38300	3
0.38667	4
0.39033	4
0.39400	3
0.39767	3
0.40133	3
0.40500	2
0.40867	2
0.41233	3
0.41600	1
0.41967	-0
0.42333	-1
0.42700	-0
0.43067	-1
0.43433	-1
0.43800	1
0.44167	2
0.44533	-0
0.44900	-2
0.45267	-2
0.45633	-1
0.46000	0
0.46367	-0
0.46733	-1
0.47100	1
0.47467	1
0.47833	1
0.48200	1
0.48567	2
0.48933	3
0.49300	3
0.49667	4
0.50033	4
0.50400	3
0.50767	0
0.51133	-2
0.51500	-2
0.51867	-1
0.52233	2
0.52600	5
0.52967	6
0.53333	7
0.53700	7
0.54067	6
0.54433	5
0.54800	4
0.55167	2
0.55533	1
0.55900	-0
0.56267	1
0.56633	3
0.57000	4
0.57367	4
0.57733	4
0.58100	2
0.58467	2
0.58833	2
0.59200	2
0.59567	3
0.59933	3
0.60300	1
0.60667	0
0.61033	2
0.61400	4
0.61767	5
0.62133	3
0.62500	1
0.62867	2
0.63233	3
0.63600	6
0.63967	8
0.64333	8
0.64700	8
0.65067	7
0.65433	8
0.65800	8
0.66167	8
0.66533	8
0.66900	7
0.67267	7
0.67633	6
0.68000	5
0.68367	6
0.68733	6
0.69100	7
0.69467	8
0.69833	8
0.70200	10
0.70567	11
0.70933	12
0.71300	13
0.71667	13
0.72033	12
0.72400	11
0.72767	10
0.73133	8
0.73500	7
0.73867	8
0.74233	10
0.74600	9
0.74967	9
0.75333	8
0.75700	6
0.76067	5
0.76433	8
0.76800	13
0.77167	16
0.77533	16
0.77900	14
0.78267	11
0.78633	9
0.79000	8
0.79367	9
0.79733	10
0.80100	10
0.80467	10
0.80833	10
0.81200	12
0.81567	14
0.81933	15
0.82300	15
0.82667	12
0.83033	11
0.83400	11
0.83767	12
0.84133	12
0.84500	10
0.84867	10
0.85233	10
0.85600	11
0.85967	12
0.86333	12
0.86700	13
0.87067	14
0.87433	14
0.87800	16
0.88167	17
0.88533	14
0.88900	11
0.89267	10
0.89633	12
0.90000	13
0.90367	13
0.90733	12
0.91100	9
0.91467	9
0.91833	10
0.92200	11
0.92567	12
0.92933	14
0.93300	13
0.93667	11
0.94033	11
0.94400	11
0.94767	13
0.95133	15
0.95500	16
0.95867	15
0.96233	13
0.96600	11
0.96967	10
0.97333	11
0.97700	13
0.98067	14
0.98433	15
0.98800	16
0.99167	16
0.99533	17
0.99900	16
1.00267	14
1.00633	13
1.01000	13
1.01367	14
1.01733	16
1.02100	17
1.02467	19
1.02833	19
1.03200	18
1.03567	19
1.03933	18
1.04300	15
1.04667	12
1.05033	10
1.05400	10
1.05767	11
1.06133	11
1.06500	12
1.06867	14
1.07233	15
1.07600	15
1.07967	15
1.08333	14
1.08700	13
1.09067	13
1.09433	11
1.09800	10
1.10167	10
1.10533	12
1.10900	15
1.11267	15
1.11633	17
1.12000	17
1.12367	18
1.12733	16
1.13100	15
1.13467	14
1.13833	14
1.14200	13
1.14567	13
1.14933	13
1.15300	13
1.15667	12
1.16033	12
1.16400	11
1.16767	9
1.17133	10
1.17500	12
1.17867	13
1.18233	13
1.18600	14
1.18967	14
1.19333	12
1.19700	10
1.20067	10
1.20433	12
1.20800	14
1.21167	15
1.21533	15
1.21900	14
1.22267	14
1.22633	16
1.23000	19
1.23367	18
1.23733	16
1.24100	14
1.24467	13
1.24833	13
1.25200	13
1.25567	13
1.25933	14
1.26300	14
1.26667	14
1.27033	14
1.27400	14
1.27767	15
1.28133	13
1.28500	12
1.28867	12
1.29233	13
1.29600	11
1.29967	12
1.30333	14
1.30700	14
1.31067	15
1.31433	15
1.31800	15
1.32167	15
1.32533	15
1.32900	17
1.33267	18
1.33633	18
1.34000	17
1.34367	16
1.34733	16
1.35100	16
1.35467	15
1.35833	13
1.36200	13
1.36567	15
1.36933	16
1.37300	17
1.37667	17
1.38033	18
1.38400	18
1.38767	18
1.39133	17
1.39500	16
1.39867	18
1.40233	19
1.40600	18
1.40967	18
1.41333	18
1.41700	17
1.42067	17
1.42433	17
1.42800	16
1.43167	17
1.43533	18
1.43900	19
1.44267	19
1.44633	19
1.45000	17
1.45367	17
1.45733	17
1.46100	20
1.46467	22
1.46833	23
1.47200	24
1.47567	23
1.47933	23
1.48300	23
1.48667	23
1.49033	21
1.49400	19
1.49767	17
1.50133	17
1.50500	19
1.50867	19
1.51233	17
1.51600	16
1.51967	16
1.52333	17
1.52700	17
1.53067	17
1.53433	18
1.53800	20
1.54167	21
1.54533	21
1.54900	20
1.55267	20
1.55633	19
1.56000	18
1.56367	17
1.56733	17
1.57100	18
1.57467	19
1.57833	20
1.58200	22
1.58567	20
1.58933	19
1.59300	18
1.59667	18
1.60033	18
1.60400	20
1.60767	22
1.61133	23
1.61500	22
1.61867	22
1.62233	21
1.62600	22
1.62967	22
1.63333	22
1.63700	22
1.64067	22
1.64433	24
1.64800	26
1.65167	27
1.65533	28
1.65900	31
1.66267	34
1.66633	35
1.67000	35
1.67367	34
1.67733	34
1.68100	34
1.68467	35
1.68833	37
1.69200	36
1.69567	34
1.69933	34
1.70300	36
1.70667	37
1.71033	37
1.71400	37
1.71767	38
1.72133	37
1.72500	34
1.72867	33
1.73233	33
1.73600	34
1.73967	37
1.74333	38
1.74700	38
1.75067	37
1.75433	36
1.75800	36
1.76167	37
1.76533	38
1.76900	37
1.77267	37
1.77633	38
1.78000	39
1.78367	38
1.78733	39
1.79100	42
1.79467	42
1.79833	42
1.80200	45
1.80567	47
1.80933	49
1.81300	50
1.81667	49
1.82033	50
1.82400	50
1.82767	51
1.83133	51
1.83500	52
1.83867	52
1.84233	50
1.84600	50
1.84967	51
1.85333	52
1.85700	53
1.86067	53
1.86433	53
1.86800	53
1.87167	54
1.87533	55
1.87900	55
1.88267	56
1.88633	57
1.89000	58
1.89367	59
1.89733	61
1.90100	60
1.90467	59
1.90833	61
1.91200	64
1.91567	66
1.91933	66
1.92300	69
1.92667	72
1.93033	73
1.93400	74
1.93767	73
1.94133	73
1.94500	73
1.94867	74
1.95233	76
1.95600	78
1.95967	78
1.96333	78
1.96700	81
1.97067	83
1.97433	83
1.97800	85
1.98167	86
1.98533	87
1.98900	87
1.99267	86
1.99633	86
2.00000	87
2.00367	88
2.00733	90
2.01100	90
2.01467	91
2.01833	91
2.02200	92
2.02567	93
2.02933	95
2.03300	97
2.03667	96
2.04033	95
2.04400	98
2.04767	102
2.05133	104
2.05500	105
2.05867	106
2.06233	106
2.06600	106
2.06967	108
2.07333	112
2.07700	115
2.08067	115
2.08433	113
2.08800	112
2.09167	114
2.09533	116
2.09900	117
2.10267	118
2.10633	122
2.11000	125
2.11367	127
2.11733	129
2.12100	130
2.12467	131
2.12833	134
2.13200	136
2.13567	138
2.13933	139
2.14300	141
2.14667	141
2.15033	140
2.15400	142
2.15767	145
2.16133	145
2.16500	145
2.16867	146
2.17233	148
2.17600	149
2.17967	147
2.18333	147
2.18700	147
2.19067	146
2.19433	145
2.19800	146
2.20167	147
2.20533	150
2.20900	151
2.21267	153
2.21633	156
2.22000	159
2.22367	163
2.22733	163
2.23100	162
2.23467	161
2.23833	162
2.24200	164
2.24567	167
2.24933	169
2.25300	172
2.25667	171
2.26033	170
2.26400	171
2.26767	174
2.27133	176
2.27500	178
2.27867	179
2.28233	177
2.28600	177
2.28967	179
2.29333	179
2.29700	181
2.30067	184
2.30433	187
2.30800	190
2.31167	189
2.31533	188
2.31900	188
2.32267	191
2.32633	195
2.33000	198
2.33367	199
2.33733	200
2.34100	199
2.34467	201
2.34833	202
2.35200	203
2.35567	204
2.35933	207
2.36300	211
2.36667	213
2.37033	214
2.37400	214
2.37767	215
2.38133	214
2.38500	215
2.38867	214
2.39233	214
2.39600	216
2.39967	217
2.40333	220
2.40700	222
2.41067	226
2.41433	229
2.41800	231
2.42167	232
2.42533	231
2.42900	233
2.43267	236
2.43633	235
2.44000	237
2.44367	289
2.44733	420
2.45100	559
2.45467	671
2.45833	732
2.46200	735
2.46567	706
2.46933	675
2.47300	651
2.47667	639
2.48033	625
2.48400	596
2.48767	554
2.49133	510
2.49500	469
2.49867	438
2.50233	416
2.50600	402
2.50967	398
2.51333	405
2.51700	419
2.52067	436
2.52433	450
2.52800	458
2.53167	456
2.53533	441
2.53900	417
2.54267	393
2.54633	367
2.55000	340
2.55367	317
2.55733	297
2.56100	283
2.56467	272
2.56833	263
2.57200	256
2.57567	254
2.57933	254
2.58300	253
2.58667	252
2.59033	252
2.59400	254
2.59767	255
2.60133	255
2.60500	252
2.60867	248
2.61233	245
2.61600	240
2.61967	234
2.62333	227
2.62700	219
2.63067	211
2.63433	204
2.63800	194
2.64167	185
2.64533	177
2.64900	169
2.65267	159
2.65633	152
2.66000	144
2.66367	134
2.66733	126
2.67100	119
2.67467	115
2.67833	111
2.68200	106
2.68567	103
2.68933	100
2.69300	98
2.69667	97
2.70033	98
2.70400	103
2.70767	106
2.71133	107
2.71500	111
2.71867	113
2.72233	113
2.72600	115
2.72967	118
2.73333	121
2.73700	124
2.74067	127
2.74433	130
2.74800	133
2.75167	136
2.75533	137
2.75900	139
2.76267	140
2.76633	142
2.77000	144
2.77367	145
2.77733	147
2.78100	149
2.78467	153
2.78833	155
2.79200	159
2.79567	162
2.79933	165
2.80300	170
2.80667	175
2.81033	179
2.81400	185
2.81767	196
2.82133	218
2.82500	265
2.82867	371
2.83233	582
2.83600	960
2.83967	1570
2.84333	2465
2.84700	3666
2.85067	5152
2.85433	6851
2.85800	8663
2.86167	10454
2.86533	12084
2.86900	13433
2.87267	14406
2.87633	14958
2.88000	15086
2.88367	14833
2.88733	14272
2.89100	13478
2.89467	12536
2.89833	11510
2.90200	10465
2.90567	9439
2.90933	8456
2.91300	7538
2.91667	6689
2.92033	5918
2.92400	5222
2.92767	4601
2.93133	4046
2.93500	3554
2.93867	3122
2.94233	2741
2.94600	2405
2.94967	2110
2.95333	1853
2.95700	1631
2.96067	1436
2.96433	1266
2.96800	1117
2.97167	987
2.97533	875
2.97900	776
2.98267	691
2.98633	618
2.99000	557
2.99367	504
2.99733	458
3.00100	418
3.00467	383
3.00833	353
3.01200	328
3.01567	306
3.01933	287
3.02300	270
3.02667	257
3.03033	246
3.03400	236
3.03767	228
3.04133	220
3.04500	213
3.04867	206
3.05233	198
3.05600	193
3.05967	187
3.06333	180
3.06700	177
3.07067	175
3.07433	175
3.07800	175
3.08167	175
3.08533	176
3.08900	176
3.09267	174
3.09633	171
3.10000	168
3.10367	165
3.10733	162
3.11100	162
3.11467	161
3.11833	161
3.12200	161
3.12567	161
3.12933	162
3.13300	160
3.13667	159
3.14033	160
3.14400	162
3.14767	163
3.15133	163
3.15500	164
3.15867	162
3.16233	160
3.16600	160
3.16967	165
3.17333	167
3.17700	170
3.18067	171
3.18433	171
3.18800	173
3.19167	175
3.19533	177
3.19900	177
3.20267	177
3.20633	176
3.21000	177
3.21367	178
3.21733	178
3.22100	179
3.22467	178
3.22833	179
3.23200	181
3.23567	184
3.23933	185
3.24300	187
3.24667	186
3.25033	185
3.25400	185
3.25767	186
3.26133	192
3.26500	196
3.26867	200
3.27233	203
3.27600	205
3.27967	205
3.28333	196
3.28700	173
3.29067	151
3.29433	146
3.29800	159
3.30167	186
3.30533	221
3.30900	263
3.31267	309
3.31633	357
3.32000	404
3.32367	448
3.32733	489
3.33100	526
3.33467	562
3.33833	596
3.34200	626
3.34567	654
3.34933	678
3.35300	699
3.35667	714
3.36033	726
3.36400	740
3.36767	753
3.37133	765
3.37500	776
3.37867	785
3.38233	795
3.38600	804
3.38967	813
3.39333	822
3.39700	829
3.40067	837
3.40433	843
3.40800	847
3.41167	850
3.41533	855
3.41900	858
3.42267	863
3.42633	867
3.43000	870
3.43367	872
3.43733	874
3.44100	875
3.44467	876
3.44833	874
3.45200	873
3.45567	873
3.45933	870
3.46300	866
3.46667	863
3.47033	859
3.47400	857
3.47767	855
3.48133	853
3.48500	851
3.48867	849
3.49233	845
3.49600	838
3.49967	832
3.50333	827
3.50700	824
3.51067	820
3.51433	818
3.51800	817
3.52167	816
3.52533	815
3.52900	812
3.53267	808
3.53633	806
3.54000	803
3.54367	802
3.54733	801
3.55100	799
3.55467	798
3.55833	796
3.56200	793
3.56567	791
3.56933	790
3.57300	790
3.57667	790
3.58033	786
3.58400	783
3.58767	780
3.59133	779
3.59500	779
3.59867	781
3.60233	782
3.60600	781
3.60967	780
3.61333	778
3.61700	777
3.62067	774
3.62433	773
3.62800	770
3.63167	770
3.63533	770
3.63900	772
3.64267	775
3.64633	774
3.65000	772
3.65367	771
3.65733	769
3.66100	768
3.66467	768
3.66833	768
3.67200	769
3.67567	769
3.67933	769
3.68300	770
3.68667	768
3.69033	764
3.69400	762
3.69767	762
3.70133	760
3.70500	759
3.70867	758
3.71233	755
3.71600	752
3.71967	752
3.72333	751
3.72700	747
3.73067	745
3.73433	745
3.73800	746
3.74167	745
3.74533	744
3.74900	741
3.75267	739
3.75633	735
3.76000	731
3.76367	728
3.76733	726
3.77100	727
3.77467	729
3.77833	727
3.78200	723
3.78567	720
3.78933	717
3.79300	714
3.79667	713
3.80033	715
3.80400	715
3.80767	714
3.81133	709
3.81500	703
3.81867	698
3.82233	694
3.82600	693
3.82967	691
3.83333	688
3.83700	688
3.84067	689
3.84433	687
3.84800	685
3.85167	682
3.85533	679
3.85900	674
3.86267	671
3.86633	671
3.87000	670
3.87367	669
3.87733	667
3.88100	665
3.88467	660
3.88833	658
3.89200	655
3.89567	653
3.89933	650
3.90300	648
3.90667	645
3.91033	643
3.91400	642
3.91767	637
3.92133	632
3.92500	630
3.92867	629
3.93233	627
3.93600	626
3.93967	624
3.94333	621
3.94700	621
3.95067	622
3.95433	623
3.95800	621
3.96167	621
3.96533	620
3.96900	617
3.97267	614
3.97633	612
3.98000	611
3.98367	608
3.98733	604
3.99100	601
3.99467	597
3.99833	593

[Status Trace (Column Oven Temperature)]
Interval(msec)	1000
# of Points	240
Start Time(min)	0.010
End Time(min)	3.993
Intensity Units	
Intensity Multiplier	1
R.Time (min)	Intensity
0.00953	35.03
0.02620	35.03
0.04287	35.03
0.05953	35.03
0.07620	35.03
0.09287	35.01
0.10953	34.99
0.12620	34.99
0.14287	34.97
0.15953	34.97
0.17620	34.96
0.19287	34.96
0.20953	34.95
0.22620	34.96
0.24287	34.99
0.25953	35.00
0.27620	35.01
0.29287	35.00
0.30953	35.01
0.32620	35.01
0.34287	35.00
0.35953	34.99
0.37620	35.00
0.39287	34.99
0.40953	34.99
0.42620	35.00
0.44287	34.99
0.45953	34.97
0.47620	34.97
0.49287	34.97
0.50953	34.98
0.52620	34.99
0.54287	35.00
0.55953	35.00
0.57620	35.00
0.59287	35.00
0.60953	35.00
0.62620	34.99
0.64287	34.98
0.65953	34.97
0.67620	34.97
0.69287	34.99
0.70953	35.00
0.72620	35.01
0.74287	35.02
0.75953	35.03
0.77620	35.04
0.79287	35.05
0.80953	35.04
0.82620	35.02
0.84287	35.00
0.85953	34.99
0.87620	34.98
0.89287	34.98
0.90953	35.00
0.92620	35.01
0.94287	35.02
0.95953	35.02
0.97620	35.02
0.99287	35.01
1.00953	35.00
1.02620	34.99
1.04287	35.00
1.05953	35.00
1.07620	35.00
1.09287	35.00
1.10953	35.00
1.12620	34.99
1.14287	35.00
1.15953	35.01
1.17620	34.99
1.19287	34.99
1.20953	34.97
1.22620	34.96
1.24287	34.96
1.25953	34.96
1.27620	34.96
1.29287	34.97
1.30953	34.99
1.32620	35.01
1.34287	35.01
1.35953	35.01
1.37620	35.02
1.39287	35.02
1.40953	35.02
1.42620	35.03
1.44287	35.03
1.45953	35.02
1.47620	35.00
1.49287	35.00
1.50953	35.00
1.52620	35.01
1.54287	35.01
1.55953	35.00
1.57620	35.01
1.59287	35.01
1.60953	35.08
1.62620	35.21
1.64287	35.39
1.65953	35.64
1.67620	35.99
1.69287	36.37
1.70953	36.73
1.72620	37.05
1.74287	37.36
1.75953	37.70
1.77620	38.02
1.79287	38.38
1.80953	38.70
1.82620	39.02
1.84287	39.37
1.85953	39.69
1.87620	40.03
1.89287	40.35
1.90953	40.70
1.92620	41.02
1.94287	41.35
1.95953	41.68
1.97620	42.00
1.99287	42.33
2.00953	42.65
2.02620	42.98
2.04287	43.32
2.05953	43.62
2.07620	43.95
2.09287	44.27
2.10953	44.61
2.12620	44.92
2.14287	45.26
2.15953	45.58
2.17620	45.91
2.19287	46.22
2.20953	46.55
2.22620	46.88
2.24287	47.20
2.25953	47.54
2.27620	47.86
2.29287	48.20
2.30953	48.52
2.32620	48.84
2.34287	49.16
2.35953	49.47
2.37620	49.66
2.39287	49.72
2.40953	49.71
2.42620	49.71
2.44287	49.72
2.45953	49.71
2.47620	49.72
2.49287	49.73
2.50953	49.75
2.52620	49.75
2.54287	49.76
2.55953	49.78
2.57620	49.78
2.59287	49.82
2.60953	49.82
2.62620	49.83
2.64287	49.83
2.65953	49.84
2.67620	49.85
2.69287	49.84
2.70953	49.85
2.72620	49.86
2.74287	49.86
2.75953	49.86
2.77620	49.86
2.79287	49.85
2.80953	49.86
2.82620	49.87
2.84287	49.87
2.85953	49.88
2.87620	49.88
2.89287	49.90
2.90953	49.93
2.92620	49.95
2.94287	49.96
2.95953	49.96
2.97620	49.97
2.99287	49.98
3.00953	49.99
3.02620	49.99
3.04287	50.00
3.05953	50.02
3.07620	50.03
3.09287	50.04
3.10953	50.05
3.12620	50.06
3.14287	50.07
3.15953	50.06
3.17620	50.04
3.19287	50.04
3.20953	50.04
3.22620	50.04
3.24287	50.05
3.25953	50.06
3.27620	50.06
3.29287	50.06
3.30953	50.09
3.32620	50.09
3.34287	50.10
3.35953	50.10
3.37620	50.12
3.39287	50.12
3.40953	50.11
3.42620	50.10
3.44287	50.08
3.45953	50.06
3.47620	50.04
3.49287	50.03
3.50953	50.03
3.52620	50.03
3.54287	50.03
3.55953	50.02
3.57620	50.02
3.59287	50.02
3.60953	50.03
3.62620	50.03
3.64287	50.02
3.65953	50.03
3.67620	50.03
3.69287	50.04
3.70953	50.04
3.72620	50.04
3.74287	50.03
3.75953	50.05
3.77620	50.05
3.79287	50.05
3.80953	50.05
3.82620	50.06
3.84287	50.06
3.85953	50.05
3.87620	50.05
3.89287	50.05
3.90953	50.05
3.92620	50.05
3.94287	50.06
3.95953	50.06
3.97620	50.06
3.99287	50.06

[Status Trace (Injection Unit Temperature)]
Interval(msec)	1000
# of Points	240
Start Time(min)	0.010
End Time(min)	3.993
Intensity Units	
Intensity Multiplier	1
R.Time (min)	Intensity
0.00953	99.98
0.02620	99.98
0.04287	99.98
0.05953	99.98
0.07620	99.98
0.09287	99.98
0.10953	99.98
0.12620	99.98
0.14287	99.98
0.15953	99.98
0.17620	99.98
0.19287	99.98
0.20953	99.98
0.22620	99.98
0.24287	99.98
0.25953	99.98
0.27620	99.98
0.29287	99.98
0.30953	99.98
0.32620	99.98
0.34287	99.98
0.35953	99.99
0.37620	99.99
0.39287	99.99
0.40953	99.98
0.42620	99.99
0.44287	99.99
0.45953	99.98
0.47620	99.99
0.49287	99.99
0.50953	99.99
0.52620	99.99
0.54287	99.99
0.55953	99.99
0.57620	99.99
0.59287	99.98
0.60953	99.98
0.62620	99.98
0.64287	99.99
0.65953	99.98
0.67620	99.98
0.69287	99.98
0.70953	99.98
0.72620	99.98
0.74287	99.98
0.75953	99.98
0.77620	99.98
0.79287	99.98
0.80953	99.98
0.82620	99.98
0.84287	99.98
0.85953	99.98
0.87620	99.98
0.89287	99.97
0.90953	99.98
0.92620	99.98
0.94287	99.98
0.95953	99.98
0.97620	99.98
0.99287	99.98
1.00953	99.98
1.02620	99.98
1.04287	99.98
1.05953	99.98
1.07620	99.98
1.09287	99.98
1.10953	99.97
1.12620	99.98
1.14287	99.97
1.15953	99.98
1.17620	99.98
1.19287	99.98
1.20953	99.98
1.22620	99.98
1.24287	99.96
1.25953	99.97
1.27620	99.98
1.29287	99.97
1.30953	99.98
1.32620	99.98
1.34287	99.98
1.35953	99.98
1.37620	99.98
1.39287	99.97
1.40953	99.98
1.42620	99.98
1.44287	99.98
1.45953	99.98
1.47620	99.98
1.49287	99.98
1.50953	99.98
1.52620	99.98
1.54287	99.98
1.55953	99.98
1.57620	99.98
1.59287	99.98
1.60953	99.98
1.62620	99.98
1.64287	99.98
1.65953	99.98
1.67620	99.99
1.69287	99.99
1.70953	99.98
1.72620	99.98
1.74287	99.98
1.75953	99.98
1.77620	99.98
1.79287	99.99
1.80953	99.98
1.82620	99.98
1.84287	99.98
1.85953	99.98
1.87620	99.98
1.89287	99.98
1.90953	99.98
1.92620	99.98
1.94287	99.97
1.95953	99.97
1.97620	99.97
1.99287	99.98
2.00953	99.98
2.02620	99.98
2.04287	99.96
2.05953	99.98
2.07620	99.97
2.09287	99.97
2.10953	99.97
2.12620	99.98
2.14287	99.98
2.15953	99.97
2.17620	99.97
2.19287	99.97
2.20953	99.97
2.22620	99.96
2.24287	99.97
2.25953	99.97
2.27620	99.97
2.29287	99.97
2.30953	99.97
2.32620	99.97
2.34287	99.97
2.35953	99.96
2.37620	99.97
2.39287	99.97
2.40953	99.97
2.42620	99.97
2.44287	99.97
2.45953	99.97
2.47620	99.97
2.49287	99.97
2.50953	99.96
2.52620	99.97
2.54287	99.98
2.55953	99.97
2.57620	99.97
2.59287	99.97
2.60953	99.98
2.62620	99.97
2.64287	99.97
2.65953	99.98
2.67620	99.98
2.69287	99.98
2.70953	99.98
2.72620	99.98
2.74287	99.99
2.75953	99.99
2.77620	99.99
2.79287	99.99
2.80953	99.99
2.82620	99.99
2.84287	99.99
2.85953	100.00
2.87620	100.00
2.89287	100.00
2.90953	100.00
2.92620	100.00
2.94287	100.00
2.95953	100.00
2.97620	100.00
2.99287	100.00
3.00953	100.00
3.02620	100.01
3.04287	100.01
3.05953	100.01
3.07620	100.01
3.09287	100.01
3.10953	100.01
3.12620	100.01
3.14287	100.01
3.15953	100.02
3.17620	100.01
3.19287	100.02
3.20953	100.02
3.22620	100.02
3.24287	100.02
3.25953	100.02
3.27620	100.02
3.29287	100.02
3.30953	100.02
3.32620	100.02
3.34287	100.03
3.35953	100.02
3.37620	100.03
3.39287	100.02
3.40953	100.03
3.42620	100.03
3.44287	100.03
3.45953	100.03
3.47620	100.04
3.49287	100.04
3.50953	100.04
3.52620	100.04
3.54287	100.04
3.55953	100.04
3.57620	100.03
3.59287	100.04
3.60953	100.04
3.62620	100.05
3.64287	100.04
3.65953	100.04
3.67620	100.04
3.69287	100.05
3.70953	100.05
3.72620	100.05
3.74287	100.04
3.75953	100.05
3.77620	100.05
3.79287	100.05
3.80953	100.05
3.82620	100.05
3.84287	100.05
3.85953	100.05
3.87620	100.05
3.89287	100.05
3.90953	100.05
3.92620	100.04
3.94287	100.05
3.95953	100.05
3.97620	100.05
3.99287	100.05

[Status Trace (Carrier Gas Pressure)]
Interval(msec)	1000
# of Points	240
Start Time(min)	0.010
End Time(min)	3.993
Intensity Units	
Intensity Multiplier	1
R.Time (min)	Intensity
0.00953	58.00
0.02620	55.22
0.04287	57.34
0.05953	59.49
0.07620	59.27
0.09287	58.03
0.10953	57.99
0.12620	58.01
0.14287	58.01
0.15953	58.00
0.17620	58.00
0.19287	58.00
0.20953	58.00
0.22620	58.00
0.24287	58.00
0.25953	58.00
0.27620	58.00
0.29287	58.00
0.30953	58.00
0.32620	58.00
0.34287	58.00
0.35953	58.00
0.37620	58.00
0.39287	58.00
0.40953	58.00
0.42620	58.00
0.44287	58.00
0.45953	58.00
0.47620	58.00
0.49287	58.00
0.50953	58.00
0.52620	58.00
0.54287	58.00
0.55953	58.00
0.57620	58.00
0.59287	58.00
0.60953	58.00
0.62620	58.00
0.64287	58.00
0.65953	58.00
0.67620	58.00
0.69287	58.00
0.70953	58.00
0.72620	58.00
0.74287	58.00
0.75953	58.00
0.77620	58.00
0.79287	58.00
0.80953	58.00
0.82620	58.00
0.84287	58.00
0.85953	58.00
0.87620	58.00
0.89287	58.00
0.90953	58.00
0.92620	58.00
0.94287	58.00
0.95953	58.00
0.97620	58.00
0.99287	58.00
1.00953	58.00
1.02620	58.00
1.04287	58.00
1.05953	58.00
1.07620	58.00
1.09287	58.00
1.10953	58.00
1.12620	58.00
1.14287	58.00
1.15953	58.00
1.17620	58.00
1.19287	58.00
1.20953	58.00
1.22620	58.00
1.24287	58.00
1.25953	58.00
1.27620	58.00
1.29287	58.00
1.30953	58.00
1.32620	58.00
1.34287	58.00
1.35953	58.00
1.37620	58.00
1.39287	58.00
1.40953	58.00
1.42620	58.00
1.44287	58.00
1.45953	58.00
1.47620	58.00
1.49287	58.00
1.50953	58.00
1.52620	58.00
1.54287	58.00
1.55953	58.00
1.57620	58.00
1.59287	58.00
1.60953	58.00
1.62620	58.00
1.64287	58.00
1.65953	58.01
1.67620	58.01
1.69287	58.00
1.70953	58.00
1.72620	58.00
1.74287	58.00
1.75953	58.00
1.77620	58.00
1.79287	58.00
1.80953	58.00
1.82620	58.00
1.84287	58.00
1.85953	58.00
1.87620	58.00
1.89287	58.00
1.90953	58.00
1.92620	58.00
1.94287	58.00
1.95953	58.00
1.97620	58.00
1.99287	58.00
2.00953	58.00
2.02620	58.00
2.04287	58.00
2.05953	58.00
2.07620	58.00
2.09287	58.00
2.10953	58.00
2.12620	58.00
2.14287	58.00
2.15953	58.00
2.17620	58.00
2.19287	58.00
2.20953	58.00
2.22620	58.00
2.24287	58.00
2.25953	58.00
2.27620	58.00
2.29287	58.00
2.30953	58.00
2.32620	58.00
2.34287	58.00
2.35953	58.00
2.37620	58.00
2.39287	57.99
2.40953	57.99
2.42620	58.00
2.44287	58.00
2.45953	58.00
2.47620	58.00
2.49287	58.00
2.50953	58.00
2.52620	57.99
2.54287	58.00
2.55953	58.00
2.57620	58.00
2.59287	58.00
2.60953	58.00
2.62620	58.00
2.64287	58.00
2.65953	58.00
2.67620	58.00
2.69287	58.00
2.70953	58.00
2.72620	58.00
2.74287	58.00
2.75953	58.00
2.77620	58.00
2.79287	58.00
2.80953	58.00
2.82620	58.00
2.84287	58.00
2.85953	58.00
2.87620	58.00
2.89287	58.00
2.90953	58.00
2.92620	58.00
2.94287	58.00
2.95953	58.00
2.97620	58.00
2.99287	58.00
3.00953	58.00
3.02620	58.00
3.04287	58.00
3.05953	58.00
3.07620	58.00
3.09287	58.00
3.10953	58.00
3.12620	58.00
3.14287	58.00
3.15953	58.00
3.17620	58.00
3.19287	58.00
3.20953	58.00
3.22620	58.00
3.24287	58.00
3.25953	58.00
3.27620	58.00
3.29287	58.00
3.30953	58.00
3.32620	58.00
3.34287	58.00
3.35953	58.00
3.37620	58.00
3.39287	58.00
3.40953	58.00
3.42620	58.00
3.44287	58.00
3.45953	58.00
3.47620	58.00
3.49287	58.00
3.50953	58.00
3.52620	58.00
3.54287	58.00
3.55953	58.00
3.57620	58.00
3.59287	58.00
3.60953	58.00
3.62620	58.00
3.64287	58.00
3.65953	58.00
3.67620	58.00
3.69287	58.00
3.70953	58.00
3.72620	58.00
3.74287	58.00
3.75953	58.00
3.77620	58.00
3.79287	58.00
3.80953	58.00
3.82620	58.00
3.84287	58.00
3.85953	58.00
3.87620	58.00
3.89287	58.00
3.90953	58.00
3.92620	58.00
3.94287	58.00
3.95953	58.00
3.97620	58.00
3.99287	58.00

[Status Trace (Carrier Gas Flow)]
Interval(msec)	1000
# of Points	240
Start Time(min)	0.010
End Time(min)	3.993
Intensity Units	
Intensity Multiplier	1
R.Time (min)	Intensity
0.00953	34.52
0.02620	34.54
0.04287	34.54
0.05953	34.55
0.07620	34.50
0.09287	34.52
0.10953	34.52
0.12620	34.52
0.14287	34.52
0.15953	34.52
0.17620	34.52
0.19287	34.52
0.20953	34.52
0.22620	34.52
0.24287	34.52
0.25953	34.52
0.27620	34.52
0.29287	34.52
0.30953	34.52
0.32620	34.52
0.34287	34.52
0.35953	34.52
0.37620	34.52
0.39287	34.52
0.40953	34.52
0.42620	34.52
0.44287	34.52
0.45953	34.53
0.47620	34.52
0.49287	34.52
0.50953	34.52
0.52620	34.53
0.54287	34.51
0.55953	34.53
0.57620	34.52
0.59287	34.52
0.60953	34.51
0.62620	34.52
0.64287	34.52
0.65953	34.52
0.67620	34.51
0.69287	34.52
0.70953	34.52
0.72620	34.52
0.74287	34.51
0.75953	34.51
0.77620	34.52
0.79287	34.52
0.80953	34.52
0.82620	34.52
0.84287	34.52
0.85953	34.52
0.87620	34.52
0.89287	34.52
0.90953	34.52
0.92620	34.52
0.94287	34.52
0.95953	34.52
0.97620	34.51
0.99287	34.52
1.00953	34.52
1.02620	34.52
1.04287	34.52
1.05953	34.52
1.07620	34.52
1.09287	34.52
1.10953	34.52
1.12620	34.51
1.14287	34.52
1.15953	34.52
1.17620	34.52
1.19287	34.52
1.20953	34.52
1.22620	34.52
1.24287	34.52
1.25953	34.52
1.27620	34.52
1.29287	34.52
1.30953	34.52
1.32620	34.52
1.34287	34.51
1.35953	34.52
1.37620	34.52
1.39287	34.52
1.40953	34.52
1.42620	34.52
1.44287	34.52
1.45953	34.52
1.47620	34.52
1.49287	34.52
1.50953	34.51
1.52620	34.52
1.54287	34.52
1.55953	34.52
1.57620	34.52
1.59287	34.52
1.60953	34.52
1.62620	34.52
1.64287	34.52
1.65953	34.52
1.67620	34.52
1.69287	34.52
1.70953	34.52
1.72620	34.52
1.74287	34.52
1.75953	34.52
1.77620	34.52
1.79287	34.51
1.80953	34.51
1.82620	34.52
1.84287	34.52
1.85953	34.52
1.87620	34.52
1.89287	34.52
1.90953	34.52
1.92620	34.52
1.94287	34.52
1.95953	34.52
1.97620	34.52
1.99287	34.52
2.00953	34.52
2.02620	34.52
2.04287	34.52
2.05953	34.52
2.07620	34.52
2.09287	34.51
2.10953	34.52
2.12620	34.52
2.14287	34.51
2.15953	34.52
2.17620	34.52
2.19287	34.52
2.20953	34.52
2.22620	34.52
2.24287	34.52
2.25953	34.52
2.27620	34.52
2.29287	34.52
2.30953	34.52
2.32620	34.52
2.34287	34.52
2.35953	34.52
2.37620	34.52
2.39287	34.52
2.40953	34.52
2.42620	34.52
2.44287	34.52
2.45953	34.52
2.47620	34.52
2.49287	34.52
2.50953	34.51
2.52620	34.52
2.54287	34.52
2.55953	34.52
2.57620	34.52
2.59287	34.51
2.60953	34.51
2.62620	34.51
2.64287	34.52
2.65953	34.51
2.67620	34.51
2.69287	34.51
2.70953	34.53
2.72620	34.52
2.74287	34.52
2.75953	34.51
2.77620	34.52
2.79287	34.52
2.80953	34.52
2.82620	34.52
2.84287	34.52
2.85953	34.51
2.87620	34.52
2.89287	34.52
2.90953	34.53
2.92620	34.53
2.94287	34.52
2.95953	34.52
2.97620	34.51
2.99287	34.52
3.00953	34.52
3.02620	34.52
3.04287	34.53
3.05953	34.52
3.07620	34.52
3.09287	34.52
3.10953	34.52
3.12620	34.52
3.14287	34.52
3.15953	34.52
3.17620	34.52
3.19287	34.52
3.20953	34.51
3.22620	34.52
3.24287	34.52
3.25953	34.52
3.27620	34.52
3.29287	34.52
3.30953	34.52
3.32620	34.52
3.34287	34.52
3.35953	34.52
3.37620	34.52
3.39287	34.52
3.40953	34.52
3.42620	34.52
3.44287	34.52
3.45953	34.52
3.47620	34.52
3.49287	34.52
3.50953	34.52
3.52620	34.52
3.54287	34.52
3.55953	34.52
3.57620	34.52
3.59287	34.52
3.60953	34.53
3.62620	34.52
3.64287	34.52
3.65953	34.51
3.67620	34.52
3.69287	34.52
3.70953	34.52
3.72620	34.52
3.74287	34.53
3.75953	34.52
3.77620	34.52
3.79287	34.51
3.80953	34.52
3.82620	34.52
3.84287	34.52
3.85953	34.51
3.87620	34.52
3.89287	34.52
3.90953	34.52
3.92620	34.52
3.94287	34.52
3.95953	34.52
3.97620	34.51
3.99287	34.53

[Status Trace (Column Flow)]
Interval(msec)	1000
# of Points	240
Start Time(min)	0.010
End Time(min)	3.993
Intensity Units	
Intensity Multiplier	1
R.Time (min)	Intensity
0.00953	5.53
0.02620	5.21
0.04287	5.45
0.05953	5.70
0.07620	5.68
0.09287	5.53
0.10953	5.53
0.12620	5.53
0.14287	5.53
0.15953	5.53
0.17620	5.53
0.19287	5.53
0.20953	5.53
0.22620	5.53
0.24287	5.53
0.25953	5.53
0.27620	5.53
0.29287	5.53
0.30953	5.53
0.32620	5.53
0.34287	5.53
0.35953	5.53
0.37620	5.53
0.39287	5.53
0.40953	5.53
0.42620	5.53
0.44287	5.53
0.45953	5.53
0.47620	5.53
0.49287	5.53
0.50953	5.53
0.52620	5.53
0.54287	5.53
0.55953	5.53
0.57620	5.53
0.59287	5.53
0.60953	5.53
0.62620	5.53
0.64287	5.53
0.65953	5.53
0.67620	5.53
0.69287	5.53
0.70953	5.53
0.72620	5.53
0.74287	5.53
0.75953	5.53
0.77620	5.53
0.79287	5.53
0.80953	5.53
0.82620	5.53
0.84287	5.53
0.85953	5.53
0.87620	5.53
0.89287	5.53
0.90953	5.53
0.92620	5.53
0.94287	5.53
0.95953	5.53
0.97620	5.53
0.99287	5.53
1.00953	5.53
1.02620	5.53
1.04287	5.53
1.05953	5.53
1.07620	5.53
1.09287	5.53
1.10953	5.53
1.12620	5.53
1.14287	5.53
1.15953	5.53
1.17620	5.53
1.19287	5.53
1.20953	5.53
1.22620	5.53
1.24287	5.53
1.25953	5.53
1.27620	5.53
1.29287	5.53
1.30953	5.53
1.32620	5.53
1.34287	5.53
1.35953	5.53
1.37620	5.53
1.39287	5.53
1.40953	5.53
1.42620	5.53
1.44287	5.53
1.45953	5.53
1.47620	5.53
1.49287	5.53
1.50953	5.53
1.52620	5.53
1.54287	5.53
1.55953	5.53
1.57620	5.53
1.59287	5.53
1.60953	5.53
1.62620	5.52
1.64287	5.52
1.65953	5.51
1.67620	5.50
1.69287	5.49
1.70953	5.48
1.72620	5.47
1.74287	5.46
1.75953	5.45
1.77620	5.44
1.79287	5.43
1.80953	5.41
1.82620	5.40
1.84287	5.39
1.85953	5.38
1.87620	5.37
1.89287	5.36
1.90953	5.35
1.92620	5.34
1.94287	5.33
1.95953	5.33
1.97620	5.32
1.99287	5.31
2.00953	5.30
2.02620	5.29
2.04287	5.28
2.05953	5.27
2.07620	5.26
2.09287	5.25
2.10953	5.24
2.12620	5.23
2.14287	5.22
2.15953	5.21
2.17620	5.20
2.19287	5.19
2.20953	5.18
2.22620	5.17
2.24287	5.16
2.25953	5.16
2.27620	5.15
2.29287	5.14
2.30953	5.13
2.32620	5.12
2.34287	5.11
2.35953	5.10
2.37620	5.10
2.39287	5.09
2.40953	5.09
2.42620	5.09
2.44287	5.09
2.45953	5.09
2.47620	5.09
2.49287	5.09
2.50953	5.09
2.52620	5.09
2.54287	5.09
2.55953	5.09
2.57620	5.09
2.59287	5.09
2.60953	5.09
2.62620	5.09
2.64287	5.09
2.65953	5.09
2.67620	5.09
2.69287	5.09
2.70953	5.09
2.72620	5.09
2.74287	5.09
2.75953	5.09
2.77620	5.09
2.79287	5.09
2.80953	5.09
2.82620	5.09
2.84287	5.09
2.85953	5.09
2.87620	5.09
2.89287	5.09
2.90953	5.09
2.92620	5.09
2.94287	5.09
2.95953	5.09
2.97620	5.09
2.99287	5.09
3.00953	5.09
3.02620	5.09
3.04287	5.09
3.05953	5.09
3.07620	5.09
3.09287	5.09
3.10953	5.08
3.12620	5.08
3.14287	5.08
3.15953	5.08
3.17620	5.08
3.19287	5.08
3.20953	5.08
3.22620	5.08
3.24287	5.08
3.25953	5.08
3.27620	5.08
3.29287	5.08
3.30953	5.08
3.32620	5.08
3.34287	5.08
3.35953	5.08
3.37620	5.08
3.39287	5.08
3.40953	5.08
3.42620	5.08
3.44287	5.08
3.45953	5.08
3.47620	5.08
3.49287	5.09
3.50953	5.09
3.52620	5.09
3.54287	5.09
3.55953	5.09
3.57620	5.09
3.59287	5.09
3.60953	5.09
3.62620	5.09
3.64287	5.09
3.65953	5.09
3.67620	5.09
3.69287	5.09
3.70953	5.08
3.72620	5.09
3.74287	5.09
3.75953	5.08
3.77620	5.08
3.79287	5.08
3.80953	5.08
3.82620	5.08
3.84287	5.08
3.85953	5.08
3.87620	5.08
3.89287	5.08
3.90953	5.08
3.92620	5.08
3.94287	5.08
3.95953	5.08
3.97620	5.08
3.99287	5.08

[Status Trace (Linear Velocity)]
Interval(msec)	1000
# of Points	240
Start Time(min)	0.010
End Time(min)	3.993
Intensity Units	
Intensity Multiplier	1
R.Time (min)	Intensity
0.00953	39.02
0.02620	37.19
0.04287	38.58
0.05953	39.99
0.07620	39.85
0.09287	39.04
0.10953	39.01
0.12620	39.03
0.14287	39.03
0.15953	39.02
0.17620	39.03
0.19287	39.02
0.20953	39.02
0.22620	39.02
0.24287	39.02
0.25953	39.02
0.27620	39.02
0.29287	39.02
0.30953	39.02
0.32620	39.02
0.34287	39.02
0.35953	39.02
0.37620	39.02
0.39287	39.02
0.40953	39.02
0.42620	39.02
0.44287	39.02
0.45953	39.02
0.47620	39.02
0.49287	39.02
0.50953	39.02
0.52620	39.02
0.54287	39.02
0.55953	39.02
0.57620	39.02
0.59287	39.02
0.60953	39.02
0.62620	39.02
0.64287	39.02
0.65953	39.02
0.67620	39.02
0.69287	39.02
0.70953	39.02
0.72620	39.02
0.74287	39.02
0.75953	39.02
0.77620	39.01
0.79287	39.01
0.80953	39.01
0.82620	39.02
0.84287	39.02
0.85953	39.02
0.87620	39.02
0.89287	39.02
0.90953	39.02
0.92620	39.02
0.94287	39.02
0.95953	39.02
0.97620	39.02
0.99287	39.02
1.00953	39.02
1.02620	39.02
1.04287	39.02
1.05953	39.02
1.07620	39.02
1.09287	39.02
1.10953	39.02
1.12620	39.02
1.14287	39.02
1.15953	39.02
1.17620	39.02
1.19287	39.02
1.20953	39.02
1.22620	39.02
1.24287	39.02
1.25953	39.02
1.27620	39.02
1.29287	39.02
1.30953	39.02
1.32620	39.02
1.34287	39.02
1.35953	39.02
1.37620	39.02
1.39287	39.02
1.40953	39.02
1.42620	39.02
1.44287	39.02
1.45953	39.02
1.47620	39.02
1.49287	39.02
1.50953	39.02
1.52620	39.02
1.54287	39.02
1.55953	39.02
1.57620	39.02
1.59287	39.02
1.60953	39.01
1.62620	39.00
1.64287	38.98
1.65953	38.96
1.67620	38.93
1.69287	38.89
1.70953	38.85
1.72620	38.82
1.74287	38.79
1.75953	38.76
1.77620	38.73
1.79287	38.70
1.80953	38.67
1.82620	38.63
1.84287	38.60
1.85953	38.57
1.87620	38.54
1.89287	38.51
1.90953	38.48
1.92620	38.45
1.94287	38.42
1.95953	38.39
1.97620	38.36
1.99287	38.33
2.00953	38.30
2.02620	38.27
2.04287	38.24
2.05953	38.21
2.07620	38.18
2.09287	38.15
2.10953	38.12
2.12620	38.09
2.14287	38.06
2.15953	38.03
2.17620	38.00
2.19287	37.97
2.20953	37.94
2.22620	37.91
2.24287	37.88
2.25953	37.85
2.27620	37.82
2.29287	37.79
2.30953	37.77
2.32620	37.74
2.34287	37.71
2.35953	37.68
2.37620	37.66
2.39287	37.65
2.40953	37.66
2.42620	37.66
2.44287	37.66
2.45953	37.66
2.47620	37.66
2.49287	37.66
2.50953	37.65
2.52620	37.65
2.54287	37.65
2.55953	37.65
2.57620	37.65
2.59287	37.65
2.60953	37.65
2.62620	37.65
2.64287	37.65
2.65953	37.65
2.67620	37.65
2.69287	37.65
2.70953	37.65
2.72620	37.65
2.74287	37.65
2.75953	37.65
2.77620	37.65
2.79287	37.65
2.80953	37.65
2.82620	37.65
2.84287	37.65
2.85953	37.64
2.87620	37.64
2.89287	37.64
2.90953	37.64
2.92620	37.64
2.94287	37.64
2.95953	37.64
2.97620	37.64
2.99287	37.64
3.00953	37.64
3.02620	37.64
3.04287	37.63
3.05953	37.63
3.07620	37.63
3.09287	37.63
3.10953	37.63
3.12620	37.63
3.14287	37.63
3.15953	37.63
3.17620	37.63
3.19287	37.63
3.20953	37.63
3.22620	37.63
3.24287	37.63
3.25953	37.63
3.27620	37.63
3.29287	37.63
3.30953	37.63
3.32620	37.63
3.34287	37.63
3.35953	37.63
3.37620	37.62
3.39287	37.62
3.40953	37.62
3.42620	37.63
3.44287	37.63
3.45953	37.63
3.47620	37.63
3.49287	37.63
3.50953	37.63
3.52620	37.63
3.54287	37.63
3.55953	37.63
3.57620	37.63
3.59287	37.63
3.60953	37.63
3.62620	37.63
3.64287	37.63
3.65953	37.63
3.67620	37.63
3.69287	37.63
3.70953	37.63
3.72620	37.63
3.74287	37.63
3.75953	37.63
3.77620	37.63
3.79287	37.63
3.80953	37.63
3.82620	37.63
3.84287	37.63
3.85953	37.63
3.87620	37.63
3.89287	37.63
3.90953	37.63
3.92620	37.63
3.94287	37.63
3.95953	37.63
3.97620	37.63
3.99287	37.63

