[Header]
Application Name	LabSolutions
Version	5.110
Data File Name	C:\Users\User\Desktop\GC Analyses\Jack\Nachusa Grasslands Sampling\T4 Timepoint July 12th\T4_07122022_018.gcd
Output Date	3/17/2023
Output Time	12:04:51 PM

[File Information]
Type	Data File
Generated	3/14/2023 5:18:33 PM
Generated by	System Administrator
Modified	3/14/2023 5:25:05 PM
Modified by	System Administrator

[Sample Information]
Operator Name	System Administrator
Acquired	3/14/2023 5:21:04 PM
Sample Type	0:Unknown
Level	0
Sample Name	018
Sample ID	018
ISTD Amount1	1
ISTD Amount2	1
ISTD Amount3	1
ISTD Amount4	1
ISTD Amount5	1
ISTD Amount6	1
ISTD Amount7	1
ISTD Amount8	1
ISTD Amount9	1
ISTD Amount10	1
ISTD Amount11	1
ISTD Amount12	1
ISTD Amount13	1
ISTD Amount14	1
ISTD Amount15	1
ISTD Amount16	1
ISTD Amount17	1
ISTD Amount18	1
ISTD Amount19	1
ISTD Amount20	1
ISTD Amount21	1
ISTD Amount22	1
ISTD Amount23	1
ISTD Amount24	1
ISTD Amount25	1
ISTD Amount26	1
ISTD Amount27	1
ISTD Amount28	1
ISTD Amount29	1
ISTD Amount30	1
ISTD Amount31	1
ISTD Amount32	1
Sample Amount	1
Dilution Factor	1
Vial#	17
Injection Volume	1
Injection Count	1
Bar Code	

[Original Files]
Data File	C:\Users\User\Desktop\GC Analyses\Jack\Nachusa Grasslands Sampling\T4 Timepoint July 12th\T4_07122022_018.gcd
Method File	C:\LabSolutions\Data\GHG_4min_2022\ghg3_togas_w_acet_4 min_new_int.gcm
Batch File	C:\LabSolutions\Data\AutoSamplerTesting\T4_07122022.gcb
Report Format File	c:\LabSolutions\System\DEFAULT.lsr

[File Description]


[Configuration]
Instrument Name	C0B7VH3-Instrument1
Instrument #	1
Line #	1
# of Detectors	3
Detector ID	DET#1	DET#2	DET#3
Detector Name	FID	PTCD	ECD
# of Channels	1	1	1

[Peak Table(Ch1)]
# of Peaks	3
Peak#	R.Time	I.Time	F.Time	Area	Height	A/H	Conc.	Mark	ID#	Name	k'	Plate #	Plate Ht.	Tailing	Resolution	Sep.Factor	Area Ratio	Height Ratio	Conc. %	Norm Conc.
1	1.479	1.443	1.538	26980	13315	2.026	190.482	   	1	CO	0.000	9808	15.294	1.141	0.000	0.000	0	0	20.473	20.473
2	1.571	1.538	1.615	3541	1851	1.913	68.467	   	2	CH4	0.062	11964	12.537	1.123	1.564	0.000	0	0	7.359	7.359
3	2.000	1.952	2.374	2675338	1282009	2.087	671.437	   	3	CO2	0.352	17466	8.588	1.194	7.272	5.680	0	0	72.168	72.168

[Peak Table(Ch2)]
# of Peaks	0

[Peak Table(Ch3)]
# of Peaks	5
Peak#	R.Time	I.Time	F.Time	Area	Height	A/H	Conc.	Mark	ID#	Name	k'	Plate #	Plate Ht.	Tailing	Resolution	Sep.Factor	Area Ratio	Height Ratio	Conc. %	Norm Conc.
1	2.462	2.242	2.510	2448	652	3.752	0.000	   			0.000	7881	19.034	0.000	0.000	0.000	0	0	0.000	0.000
2	2.528	2.510	2.583	1306	399	3.276	0.000	 V 			0.027	3550	42.254	0.000	0.470	0.000	0	0	0.000	0.000
3	2.598	2.583	2.682	701	209	3.350	0.000	 V 			0.055	1287	116.547	0.000	0.303	2.056	0	0	0.000	0.000
4	2.880	2.700	3.071	18864	4879	3.866	0.482	   	1	N2O	0.170	13126	11.427	1.519	1.447	3.081	0	0	100.000	100.000
5	3.434	3.199	3.624	696	49	14.278	0.000	   	2	SF6	0.395	1347	111.343	0.920	2.332	2.325	0	0	0.000	0.000

[Compound Results(Ch1)]
# of IDs	6
ID#	Name	R.Time	Area	Height	Conc.	Curve	3rd	2nd	1st	Constant	Area Ratio	Height Ratio	Conc. %	Norm Conc.
1	CO	1.479	26980	13315	190.482	Linear	0.000000e+00	0.000000e+00	1.416423e+002	0.000000e+00	0	0	20.473	20.473
2	CH4	1.571	3541	1851	68.467	Linear	0.000000e+00	0.000000e+00	5.171738e+001	0.000000e+00	0	0	7.359	7.359
3	CO2	2.000	2675338	1282009	671.437	Linear	0.000000e+00	0.000000e+00	3.984494e+003	0.000000e+00	0	0	72.168	72.168
4	Ethylene	0.000	0	0	0.000	Linear	0.000000e+00	0.000000e+00	0.000000e+00	0.000000e+00	0	0	0.000	0.000
5	Acetylene	0.000	0	0	0.000	Linear	0.000000e+00	0.000000e+00	0.000000e+00	0.000000e+00	0	0	0.000	0.000
6	Ethane	0.000	0	0	0.000	Linear	0.000000e+00	0.000000e+00	0.000000e+00	0.000000e+00	0	0	0.000	0.000

[Compound Results(Ch2)]
# of IDs	5
ID#	Name	R.Time	Area	Height	Conc.	Curve	3rd	2nd	1st	Constant	Area Ratio	Height Ratio	Conc. %	Norm Conc.
1	Hydrogen	0.000	0	0	0.000	Linear	0.000000e+00	0.000000e+00	0.000000e+00	0.000000e+00	0	0	0.000	0.000
2	Oxygen	0.000	0	0	0.000	Linear	0.000000e+00	0.000000e+00	0.000000e+00	0.000000e+00	0	0	0.000	0.000
3	Nitrogen	0.000	0	0	0.000	Linear	0.000000e+00	0.000000e+00	0.000000e+00	0.000000e+00	0	0	0.000	0.000
4	Methane	0.000	0	0	0.000	Linear	0.000000e+00	0.000000e+00	0.000000e+00	0.000000e+00	0	0	0.000	0.000
5	Carbon Monoxide	0.000	0	0	0.000	Linear	0.000000e+00	0.000000e+00	0.000000e+00	0.000000e+00	0	0	0.000	0.000

[Compound Results(Ch3)]
# of IDs	2
ID#	Name	R.Time	Area	Height	Conc.	Curve	3rd	2nd	1st	Constant	Area Ratio	Height Ratio	Conc. %	Norm Conc.
1	N2O	2.880	18864	4879	0.482	Linear	0.000000e+00	0.000000e+00	3.915173e+004	0.000000e+00	0	0	100.000	100.000
2	SF6	3.434	696	49	0.000	Linear	0.000000e+00	0.000000e+00	0.000000e+00	0.000000e+00	0	0	0.000	0.000

[Group Results(Ch1)]
# of Groups	0

[Group Results(Ch2)]
# of Groups	0

[Group Results(Ch3)]
# of Groups	0

[Chromatogram (Ch1)]
Interval(msec)	220
# of Points	1091
Start Time(min)	0.002
End Time(min)	3.998
R.Time (min)	Intensity
0.00167	14
0.00533	12
0.00900	17
0.01267	24
0.01633	28
0.02000	30
0.02367	18
0.02733	14
0.03100	14
0.03467	13
0.03833	8
0.04200	5
0.04567	7
0.04933	14
0.05300	14
0.05667	9
0.06033	8
0.06400	15
0.06767	27
0.07133	22
0.07500	20
0.07867	27
0.08233	22
0.08600	19
0.08967	19
0.09333	14
0.09700	10
0.10067	8
0.10433	9
0.10800	8
0.11167	10
0.11533	13
0.11900	17
0.12267	23
0.12633	25
0.13000	21
0.13367	19
0.13733	22
0.14100	21
0.14467	16
0.14833	15
0.15200	16
0.15567	19
0.15933	18
0.16300	24
0.16667	25
0.17033	23
0.17400	25
0.17767	35
0.18133	38
0.18500	38
0.18867	42
0.19233	41
0.19600	38
0.19967	31
0.20333	18
0.20700	2
0.21067	-7
0.21433	-10
0.21800	-3
0.22167	16
0.22533	31
0.22900	37
0.23267	38
0.23633	32
0.24000	23
0.24367	14
0.24733	11
0.25100	10
0.25467	5
0.25833	-2
0.26200	-7
0.26567	-5
0.26933	-1
0.27300	8
0.27667	13
0.28033	16
0.28400	18
0.28767	30
0.29133	32
0.29500	24
0.29867	15
0.30233	11
0.30600	15
0.30967	18
0.31333	22
0.31700	30
0.32067	36
0.32433	37
0.32800	34
0.33167	29
0.33533	29
0.33900	26
0.34267	22
0.34633	20
0.35000	16
0.35367	14
0.35733	15
0.36100	19
0.36467	26
0.36833	32
0.37200	37
0.37567	43
0.37933	51
0.38300	46
0.38667	40
0.39033	40
0.39400	42
0.39767	45
0.40133	46
0.40500	39
0.40867	36
0.41233	36
0.41600	37
0.41967	43
0.42333	46
0.42700	49
0.43067	52
0.43433	52
0.43800	53
0.44167	44
0.44533	37
0.44900	30
0.45267	26
0.45633	24
0.46000	27
0.46367	29
0.46733	30
0.47100	31
0.47467	34
0.47833	38
0.48200	46
0.48567	49
0.48933	45
0.49300	40
0.49667	35
0.50033	29
0.50400	25
0.50767	18
0.51133	12
0.51500	10
0.51867	9
0.52233	13
0.52600	21
0.52967	37
0.53333	43
0.53700	35
0.54067	32
0.54433	35
0.54800	26
0.55167	25
0.55533	43
0.55900	50
0.56267	49
0.56633	41
0.57000	33
0.57367	24
0.57733	18
0.58100	15
0.58467	18
0.58833	23
0.59200	22
0.59567	27
0.59933	38
0.60300	47
0.60667	42
0.61033	30
0.61400	17
0.61767	11
0.62133	15
0.62500	19
0.62867	23
0.63233	25
0.63600	26
0.63967	21
0.64333	19
0.64700	22
0.65067	24
0.65433	36
0.65800	35
0.66167	25
0.66533	26
0.66900	25
0.67267	17
0.67633	8
0.68000	1
0.68367	-1
0.68733	-2
0.69100	-0
0.69467	7
0.69833	20
0.70200	34
0.70567	42
0.70933	41
0.71300	31
0.71667	16
0.72033	7
0.72400	9
0.72767	17
0.73133	28
0.73500	42
0.73867	52
0.74233	56
0.74600	60
0.74967	51
0.75333	36
0.75700	28
0.76067	27
0.76433	24
0.76800	17
0.77167	12
0.77533	12
0.77900	12
0.78267	14
0.78633	22
0.79000	34
0.79367	44
0.79733	48
0.80100	44
0.80467	36
0.80833	32
0.81200	27
0.81567	21
0.81933	16
0.82300	12
0.82667	8
0.83033	5
0.83400	2
0.83767	1
0.84133	5
0.84500	10
0.84867	13
0.85233	14
0.85600	14
0.85967	18
0.86333	25
0.86700	29
0.87067	29
0.87433	26
0.87800	17
0.88167	11
0.88533	12
0.88900	16
0.89267	16
0.89633	15
0.90000	17
0.90367	19
0.90733	22
0.91100	23
0.91467	19
0.91833	13
0.92200	8
0.92567	3
0.92933	-0
0.93300	-5
0.93667	-6
0.94033	-7
0.94400	-4
0.94767	0
0.95133	1
0.95500	4
0.95867	5
0.96233	7
0.96600	14
0.96967	20
0.97333	18
0.97700	11
0.98067	6
0.98433	2
0.98800	-0
0.99167	-5
0.99533	-12
0.99900	-15
1.00267	-16
1.00633	-15
1.01000	-9
1.01367	-2
1.01733	7
1.02100	16
1.02467	19
1.02833	17
1.03200	14
1.03567	10
1.03933	7
1.04300	3
1.04667	3
1.05033	4
1.05400	7
1.05767	12
1.06133	17
1.06500	23
1.06867	29
1.07233	28
1.07600	22
1.07967	13
1.08333	8
1.08700	4
1.09067	-4
1.09433	-9
1.09800	-13
1.10167	-14
1.10533	-13
1.10900	-11
1.11267	-7
1.11633	2
1.12000	11
1.12367	17
1.12733	26
1.13100	32
1.13467	25
1.13833	15
1.14200	12
1.14567	4
1.14933	-5
1.15300	-12
1.15667	-18
1.16033	-18
1.16400	-13
1.16767	-7
1.17133	-4
1.17500	-0
1.17867	3
1.18233	3
1.18600	0
1.18967	-9
1.19333	-20
1.19700	-20
1.20067	-19
1.20433	-18
1.20800	-17
1.21167	-19
1.21533	-16
1.21900	-8
1.22267	-0
1.22633	3
1.23000	7
1.23367	11
1.23733	21
1.24100	27
1.24467	19
1.24833	7
1.25200	-5
1.25567	-5
1.25933	-8
1.26300	-12
1.26667	-14
1.27033	-17
1.27400	-21
1.27767	-15
1.28133	-2
1.28500	6
1.28867	11
1.29233	21
1.29600	18
1.29967	5
1.30333	-2
1.30700	-7
1.31067	-10
1.31433	-7
1.31800	-7
1.32167	-8
1.32533	-6
1.32900	-5
1.33267	-1
1.33633	-3
1.34000	-5
1.34367	-3
1.34733	11
1.35100	17
1.35467	20
1.35833	21
1.36200	19
1.36567	17
1.36933	10
1.37300	-7
1.37667	-21
1.38033	-28
1.38400	-29
1.38767	-18
1.39133	-14
1.39500	-15
1.39867	-15
1.40233	-25
1.40600	-27
1.40967	-20
1.41333	-7
1.41700	3
1.42067	6
1.42433	7
1.42800	20
1.43167	31
1.43533	31
1.43900	19
1.44267	42
1.44633	140
1.45000	484
1.45367	1459
1.45733	3365
1.46100	5929
1.46467	8555
1.46833	10787
1.47200	12409
1.47567	13308
1.47933	13341
1.48300	12446
1.48667	10785
1.49033	8723
1.49400	6654
1.49767	4851
1.50133	3418
1.50500	2335
1.50867	1565
1.51233	1030
1.51600	663
1.51967	412
1.52333	250
1.52700	144
1.53067	79
1.53433	25
1.53800	-0
1.54167	22
1.54533	136
1.54900	361
1.55267	692
1.55633	1058
1.56000	1394
1.56367	1653
1.56733	1815
1.57100	1857
1.57467	1757
1.57833	1530
1.58200	1231
1.58567	924
1.58933	655
1.59300	447
1.59667	296
1.60033	192
1.60400	115
1.60767	64
1.61133	32
1.61500	14
1.61867	-2
1.62233	-2
1.62600	-8
1.62967	-15
1.63333	-19
1.63700	-23
1.64067	-32
1.64433	-42
1.64800	-46
1.65167	-38
1.65533	-45
1.65900	-55
1.66267	-56
1.66633	-52
1.67000	-42
1.67367	-34
1.67733	-35
1.68100	-38
1.68467	-34
1.68833	-12
1.69200	2
1.69567	-4
1.69933	-20
1.70300	-29
1.70667	-36
1.71033	-42
1.71400	-38
1.71767	-26
1.72133	-16
1.72500	-14
1.72867	-20
1.73233	-21
1.73600	-24
1.73967	-28
1.74333	-30
1.74700	-29
1.75067	-23
1.75433	-15
1.75800	-5
1.76167	1
1.76533	-5
1.76900	-9
1.77267	-10
1.77633	-10
1.78000	-9
1.78367	-5
1.78733	2
1.79100	5
1.79467	3
1.79833	1
1.80200	-1
1.80567	1
1.80933	4
1.81300	6
1.81667	5
1.82033	-0
1.82400	-5
1.82767	-7
1.83133	-7
1.83500	-3
1.83867	-1
1.84233	2
1.84600	24
1.84967	39
1.85333	53
1.85700	53
1.86067	40
1.86433	22
1.86800	9
1.87167	2
1.87533	-0
1.87900	-2
1.88267	0
1.88633	7
1.89000	15
1.89367	18
1.89733	17
1.90100	14
1.90467	11
1.90833	7
1.91200	5
1.91567	4
1.91933	1
1.92300	-1
1.92667	3
1.93033	11
1.93400	16
1.93767	20
1.94133	27
1.94500	30
1.94867	31
1.95233	40
1.95600	120
1.95967	668
1.96333	3581
1.96700	15300
1.97067	51206
1.97433	135571
1.97800	288302
1.98167	505442
1.98533	754150
1.98900	988583
1.99267	1169242
1.99633	1270782
2.00000	1282085
2.00367	1207006
2.00733	1064022
2.01100	882124
2.01467	692322
2.01833	518963
2.02200	375394
2.02567	264805
2.02933	183964
2.03300	126986
2.03667	87785
2.04033	61207
2.04400	43313
2.04767	31271
2.05133	23124
2.05500	17553
2.05867	13685
2.06233	10949
2.06600	8971
2.06967	7507
2.07333	6393
2.07700	5532
2.08067	4854
2.08433	4314
2.08800	3873
2.09167	3503
2.09533	3192
2.09900	2922
2.10267	2688
2.10633	2489
2.11000	2318
2.11367	2170
2.11733	2042
2.12100	1927
2.12467	1815
2.12833	1710
2.13200	1615
2.13567	1530
2.13933	1455
2.14300	1392
2.14667	1335
2.15033	1283
2.15400	1235
2.15767	1193
2.16133	1150
2.16500	1107
2.16867	1063
2.17233	1021
2.17600	989
2.17967	959
2.18333	931
2.18700	898
2.19067	859
2.19433	822
2.19800	796
2.20167	772
2.20533	749
2.20900	728
2.21267	709
2.21633	690
2.22000	672
2.22367	669
2.22733	666
2.23100	660
2.23467	650
2.23833	632
2.24200	613
2.24567	593
2.24933	576
2.25300	561
2.25667	544
2.26033	527
2.26400	516
2.26767	515
2.27133	509
2.27500	502
2.27867	495
2.28233	490
2.28600	486
2.28967	484
2.29333	480
2.29700	473
2.30067	464
2.30433	460
2.30800	463
2.31167	462
2.31533	463
2.31900	463
2.32267	455
2.32633	440
2.33000	424
2.33367	417
2.33733	411
2.34100	408
2.34467	402
2.34833	391
2.35200	378
2.35567	369
2.35933	358
2.36300	356
2.36667	358
2.37033	362
2.37400	364
2.37767	363
2.38133	366
2.38500	371
2.38867	372
2.39233	368
2.39600	361
2.39967	353
2.40333	347
2.40700	344
2.41067	344
2.41433	343
2.41800	340
2.42167	338
2.42533	339
2.42900	337
2.43267	335
2.43633	331
2.44000	326
2.44367	323
2.44733	324
2.45100	323
2.45467	315
2.45833	305
2.46200	300
2.46567	302
2.46933	305
2.47300	304
2.47667	298
2.48033	298
2.48400	300
2.48767	300
2.49133	299
2.49500	301
2.49867	300
2.50233	301
2.50600	301
2.50967	302
2.51333	305
2.51700	305
2.52067	301
2.52433	295
2.52800	292
2.53167	293
2.53533	293
2.53900	293
2.54267	289
2.54633	285
2.55000	281
2.55367	282
2.55733	289
2.56100	292
2.56467	291
2.56833	288
2.57200	285
2.57567	284
2.57933	280
2.58300	269
2.58667	254
2.59033	248
2.59400	243
2.59767	237
2.60133	245
2.60500	253
2.60867	261
2.61233	267
2.61600	270
2.61967	270
2.62333	270
2.62700	262
2.63067	247
2.63433	235
2.63800	228
2.64167	227
2.64533	232
2.64900	237
2.65267	238
2.65633	235
2.66000	233
2.66367	233
2.66733	235
2.67100	237
2.67467	240
2.67833	248
2.68200	264
2.68567	279
2.68933	283
2.69300	274
2.69667	259
2.70033	245
2.70400	232
2.70767	227
2.71133	231
2.71500	236
2.71867	238
2.72233	239
2.72600	238
2.72967	238
2.73333	244
2.73700	251
2.74067	258
2.74433	266
2.74800	264
2.75167	256
2.75533	251
2.75900	251
2.76267	258
2.76633	261
2.77000	258
2.77367	257
2.77733	257
2.78100	256
2.78467	255
2.78833	254
2.79200	255
2.79567	257
2.79933	256
2.80300	251
2.80667	245
2.81033	241
2.81400	241
2.81767	243
2.82133	246
2.82500	254
2.82867	260
2.83233	257
2.83600	255
2.83967	256
2.84333	259
2.84700	260
2.85067	260
2.85433	259
2.85800	256
2.86167	254
2.86533	254
2.86900	271
2.87267	285
2.87633	281
2.88000	272
2.88367	266
2.88733	264
2.89100	260
2.89467	252
2.89833	238
2.90200	226
2.90567	225
2.90933	229
2.91300	238
2.91667	249
2.92033	254
2.92400	258
2.92767	268
2.93133	279
2.93500	288
2.93867	290
2.94233	281
2.94600	268
2.94967	255
2.95333	244
2.95700	236
2.96067	235
2.96433	241
2.96800	252
2.97167	267
2.97533	280
2.97900	286
2.98267	283
2.98633	274
2.99000	257
2.99367	251
2.99733	246
3.00100	244
3.00467	238
3.00833	229
3.01200	218
3.01567	214
3.01933	219
3.02300	226
3.02667	233
3.03033	241
3.03400	245
3.03767	246
3.04133	242
3.04500	240
3.04867	242
3.05233	250
3.05600	259
3.05967	257
3.06333	244
3.06700	231
3.07067	222
3.07433	224
3.07800	229
3.08167	230
3.08533	232
3.08900	238
3.09267	246
3.09633	247
3.10000	255
3.10367	262
3.10733	268
3.11100	269
3.11467	259
3.11833	244
3.12200	237
3.12567	235
3.12933	239
3.13300	249
3.13667	255
3.14033	253
3.14400	250
3.14767	245
3.15133	239
3.15500	235
3.15867	232
3.16233	229
3.16600	229
3.16967	229
3.17333	231
3.17700	231
3.18067	224
3.18433	222
3.18800	230
3.19167	235
3.19533	232
3.19900	229
3.20267	227
3.20633	226
3.21000	226
3.21367	225
3.21733	226
3.22100	229
3.22467	228
3.22833	221
3.23200	214
3.23567	214
3.23933	221
3.24300	225
3.24667	227
3.25033	229
3.25400	237
3.25767	245
3.26133	244
3.26500	234
3.26867	225
3.27233	215
3.27600	211
3.27967	217
3.28333	223
3.28700	232
3.29067	244
3.29433	250
3.29800	246
3.30167	233
3.30533	216
3.30900	200
3.31267	193
3.31633	196
3.32000	201
3.32367	206
3.32733	208
3.33100	207
3.33467	207
3.33833	210
3.34200	208
3.34567	205
3.34933	198
3.35300	196
3.35667	199
3.36033	204
3.36400	202
3.36767	196
3.37133	193
3.37500	191
3.37867	191
3.38233	194
3.38600	200
3.38967	206
3.39333	204
3.39700	205
3.40067	208
3.40433	212
3.40800	217
3.41167	219
3.41533	218
3.41900	222
3.42267	226
3.42633	231
3.43000	229
3.43367	222
3.43733	230
3.44100	230
3.44467	219
3.44833	216
3.45200	214
3.45567	215
3.45933	213
3.46300	206
3.46667	196
3.47033	184
3.47400	175
3.47767	173
3.48133	176
3.48500	187
3.48867	194
3.49233	202
3.49600	216
3.49967	222
3.50333	226
3.50700	226
3.51067	219
3.51433	207
3.51800	197
3.52167	190
3.52533	184
3.52900	180
3.53267	180
3.53633	181
3.54000	179
3.54367	173
3.54733	168
3.55100	168
3.55467	167
3.55833	164
3.56200	166
3.56567	173
3.56933	182
3.57300	190
3.57667	194
3.58033	200
3.58400	206
3.58767	203
3.59133	194
3.59500	187
3.59867	178
3.60233	171
3.60600	162
3.60967	153
3.61333	150
3.61700	152
3.62067	154
3.62433	165
3.62800	175
3.63167	181
3.63533	184
3.63900	189
3.64267	191
3.64633	186
3.65000	178
3.65367	172
3.65733	169
3.66100	165
3.66467	163
3.66833	162
3.67200	162
3.67567	166
3.67933	170
3.68300	171
3.68667	169
3.69033	170
3.69400	169
3.69767	167
3.70133	162
3.70500	159
3.70867	159
3.71233	160
3.71600	164
3.71967	171
3.72333	175
3.72700	173
3.73067	171
3.73433	172
3.73800	169
3.74167	174
3.74533	177
3.74900	178
3.75267	178
3.75633	180
3.76000	185
3.76367	183
3.76733	178
3.77100	178
3.77467	172
3.77833	156
3.78200	138
3.78567	130
3.78933	117
3.79300	108
3.79667	102
3.80033	99
3.80400	103
3.80767	112
3.81133	123
3.81500	132
3.81867	141
3.82233	142
3.82600	138
3.82967	137
3.83333	141
3.83700	143
3.84067	144
3.84433	149
3.84800	155
3.85167	153
3.85533	145
3.85900	138
3.86267	136
3.86633	138
3.87000	141
3.87367	145
3.87733	147
3.88100	144
3.88467	137
3.88833	132
3.89200	133
3.89567	135
3.89933	137
3.90300	142
3.90667	145
3.91033	144
3.91400	141
3.91767	141
3.92133	144
3.92500	146
3.92867	164
3.93233	157
3.93600	133
3.93967	121
3.94333	118
3.94700	122
3.95067	129
3.95433	135
3.95800	139
3.96167	139
3.96533	140
3.96900	138
3.97267	129
3.97633	119
3.98000	116
3.98367	118
3.98733	122
3.99100	126
3.99467	126
3.99833	121

[Chromatogram (Ch2)]
Interval(msec)	220
# of Points	1091
Start Time(min)	0.002
End Time(min)	3.998
R.Time (min)	Intensity
0.00167	0
0.00533	0
0.00900	0
0.01267	0
0.01633	0
0.02000	-0
0.02367	-0
0.02733	-1
0.03100	-1
0.03467	-2
0.03833	-2
0.04200	-2
0.04567	-2
0.04933	-3
0.05300	-3
0.05667	-3
0.06033	-3
0.06400	-3
0.06767	-3
0.07133	-4
0.07500	-4
0.07867	-4
0.08233	-5
0.08600	-5
0.08967	-5
0.09333	-5
0.09700	-5
0.10067	-5
0.10433	-5
0.10800	-6
0.11167	-5
0.11533	-5
0.11900	-5
0.12267	-5
0.12633	-5
0.13000	-5
0.13367	-4
0.13733	-4
0.14100	-4
0.14467	-3
0.14833	-3
0.15200	-2
0.15567	-2
0.15933	-2
0.16300	-1
0.16667	-1
0.17033	-1
0.17400	-1
0.17767	-2
0.18133	-2
0.18500	-2
0.18867	-2
0.19233	-2
0.19600	-2
0.19967	-3
0.20333	-2
0.20700	-2
0.21067	-2
0.21433	-2
0.21800	-2
0.22167	-2
0.22533	-2
0.22900	-2
0.23267	-2
0.23633	-2
0.24000	-2
0.24367	-2
0.24733	-2
0.25100	-2
0.25467	-2
0.25833	-3
0.26200	-3
0.26567	-3
0.26933	-3
0.27300	-3
0.27667	-4
0.28033	-4
0.28400	-4
0.28767	-4
0.29133	-3
0.29500	-3
0.29867	-3
0.30233	-3
0.30600	-3
0.30967	-3
0.31333	-2
0.31700	-2
0.32067	-2
0.32433	-3
0.32800	-3
0.33167	-4
0.33533	-4
0.33900	-5
0.34267	-5
0.34633	-5
0.35000	-5
0.35367	-5
0.35733	-4
0.36100	-4
0.36467	-4
0.36833	-4
0.37200	-4
0.37567	-4
0.37933	-4
0.38300	-4
0.38667	-4
0.39033	-3
0.39400	-3
0.39767	-3
0.40133	-4
0.40500	-4
0.40867	-4
0.41233	-4
0.41600	-4
0.41967	-4
0.42333	-4
0.42700	-4
0.43067	-4
0.43433	-4
0.43800	-4
0.44167	-4
0.44533	-4
0.44900	-3
0.45267	-3
0.45633	-3
0.46000	-3
0.46367	-3
0.46733	-3
0.47100	-3
0.47467	-3
0.47833	-3
0.48200	-3
0.48567	-3
0.48933	-2
0.49300	-2
0.49667	-2
0.50033	-2
0.50400	-2
0.50767	-2
0.51133	-2
0.51500	-3
0.51867	-3
0.52233	-3
0.52600	-3
0.52967	-3
0.53333	-4
0.53700	-4
0.54067	-4
0.54433	-4
0.54800	-4
0.55167	-4
0.55533	-5
0.55900	-5
0.56267	-4
0.56633	-4
0.57000	-4
0.57367	-4
0.57733	-4
0.58100	-4
0.58467	-4
0.58833	-4
0.59200	-4
0.59567	-4
0.59933	-3
0.60300	-3
0.60667	-3
0.61033	-3
0.61400	-3
0.61767	-3
0.62133	-2
0.62500	-2
0.62867	-2
0.63233	-2
0.63600	-2
0.63967	-2
0.64333	-3
0.64700	-3
0.65067	-3
0.65433	-3
0.65800	-3
0.66167	-3
0.66533	-3
0.66900	-3
0.67267	-3
0.67633	-3
0.68000	-2
0.68367	-2
0.68733	-2
0.69100	-2
0.69467	-1
0.69833	-1
0.70200	-1
0.70567	-0
0.70933	-0
0.71300	0
0.71667	0
0.72033	0
0.72400	0
0.72767	1
0.73133	1
0.73500	1
0.73867	1
0.74233	1
0.74600	1
0.74967	-0
0.75333	-1
0.75700	-1
0.76067	-2
0.76433	-3
0.76800	-3
0.77167	-4
0.77533	-4
0.77900	-5
0.78267	-5
0.78633	-6
0.79000	-6
0.79367	-7
0.79733	-7
0.80100	-7
0.80467	-7
0.80833	-7
0.81200	-7
0.81567	-7
0.81933	-6
0.82300	-6
0.82667	-6
0.83033	-5
0.83400	-5
0.83767	-4
0.84133	-3
0.84500	-3
0.84867	-2
0.85233	-2
0.85600	-2
0.85967	-2
0.86333	-3
0.86700	-3
0.87067	-3
0.87433	-3
0.87800	-3
0.88167	-4
0.88533	-4
0.88900	-3
0.89267	-3
0.89633	-3
0.90000	-3
0.90367	-2
0.90733	-2
0.91100	-2
0.91467	-2
0.91833	-2
0.92200	-2
0.92567	-2
0.92933	-2
0.93300	-2
0.93667	-2
0.94033	-2
0.94400	-2
0.94767	-2
0.95133	-2
0.95500	-2
0.95867	-2
0.96233	-2
0.96600	-2
0.96967	-3
0.97333	-3
0.97700	-3
0.98067	-4
0.98433	-4
0.98800	-4
0.99167	-4
0.99533	-4
0.99900	-4
1.00267	-4
1.00633	-4
1.01000	-4
1.01367	-3
1.01733	-3
1.02100	-3
1.02467	-2
1.02833	-2
1.03200	-2
1.03567	-2
1.03933	-1
1.04300	-1
1.04667	-1
1.05033	-1
1.05400	-1
1.05767	-1
1.06133	-1
1.06500	-1
1.06867	-1
1.07233	-1
1.07600	-1
1.07967	-2
1.08333	-2
1.08700	-2
1.09067	-2
1.09433	-2
1.09800	-3
1.10167	-3
1.10533	-3
1.10900	-3
1.11267	-3
1.11633	-4
1.12000	-4
1.12367	-4
1.12733	-5
1.13100	-5
1.13467	-5
1.13833	-5
1.14200	-5
1.14567	-5
1.14933	-5
1.15300	-5
1.15667	-4
1.16033	-4
1.16400	-4
1.16767	-4
1.17133	-4
1.17500	-4
1.17867	-3
1.18233	-3
1.18600	-3
1.18967	-3
1.19333	-3
1.19700	-3
1.20067	-3
1.20433	-3
1.20800	-2
1.21167	-2
1.21533	-2
1.21900	-1
1.22267	-1
1.22633	-1
1.23000	-1
1.23367	-1
1.23733	-1
1.24100	-1
1.24467	-1
1.24833	-1
1.25200	-2
1.25567	-2
1.25933	-3
1.26300	-3
1.26667	-4
1.27033	-4
1.27400	-4
1.27767	-4
1.28133	-4
1.28500	-4
1.28867	-4
1.29233	-4
1.29600	-4
1.29967	-4
1.30333	-4
1.30700	-4
1.31067	-3
1.31433	-3
1.31800	-4
1.32167	-4
1.32533	-4
1.32900	-4
1.33267	-4
1.33633	-4
1.34000	-4
1.34367	-4
1.34733	-3
1.35100	-3
1.35467	-3
1.35833	-3
1.36200	-3
1.36567	-2
1.36933	-2
1.37300	-2
1.37667	-2
1.38033	-2
1.38400	-2
1.38767	-2
1.39133	-2
1.39500	-2
1.39867	-2
1.40233	-3
1.40600	-3
1.40967	-4
1.41333	-4
1.41700	-5
1.42067	-5
1.42433	-5
1.42800	-6
1.43167	-6
1.43533	-6
1.43900	-5
1.44267	-5
1.44633	-4
1.45000	-4
1.45367	-3
1.45733	-3
1.46100	-3
1.46467	-3
1.46833	-3
1.47200	-4
1.47567	-4
1.47933	-4
1.48300	-5
1.48667	-5
1.49033	-5
1.49400	-6
1.49767	-6
1.50133	-6
1.50500	-6
1.50867	-6
1.51233	-6
1.51600	-6
1.51967	-5
1.52333	-5
1.52700	-5
1.53067	-5
1.53433	-4
1.53800	-4
1.54167	-4
1.54533	-3
1.54900	-3
1.55267	-2
1.55633	-2
1.56000	-2
1.56367	-2
1.56733	-2
1.57100	-2
1.57467	-1
1.57833	-1
1.58200	-2
1.58567	-2
1.58933	-2
1.59300	-3
1.59667	-3
1.60033	-4
1.60400	-6
1.60767	-7
1.61133	-9
1.61500	-11
1.61867	-14
1.62233	-17
1.62600	-20
1.62967	-23
1.63333	-26
1.63700	-30
1.64067	-33
1.64433	-37
1.64800	-40
1.65167	-44
1.65533	-47
1.65900	-50
1.66267	-54
1.66633	-58
1.67000	-61
1.67367	-65
1.67733	-70
1.68100	-75
1.68467	-80
1.68833	-85
1.69200	-90
1.69567	-94
1.69933	-98
1.70300	-101
1.70667	-103
1.71033	-104
1.71400	-106
1.71767	-106
1.72133	-107
1.72500	-108
1.72867	-108
1.73233	-109
1.73600	-110
1.73967	-110
1.74333	-110
1.74700	-111
1.75067	-111
1.75433	-111
1.75800	-110
1.76167	-110
1.76533	-110
1.76900	-110
1.77267	-111
1.77633	-111
1.78000	-112
1.78367	-113
1.78733	-114
1.79100	-114
1.79467	-115
1.79833	-114
1.80200	-114
1.80567	-114
1.80933	-114
1.81300	-115
1.81667	-115
1.82033	-115
1.82400	-116
1.82767	-116
1.83133	-116
1.83500	-116
1.83867	-116
1.84233	-116
1.84600	-116
1.84967	-116
1.85333	-116
1.85700	-116
1.86067	-116
1.86433	-116
1.86800	-116
1.87167	-116
1.87533	-116
1.87900	-115
1.88267	-115
1.88633	-115
1.89000	-115
1.89367	-114
1.89733	-114
1.90100	-114
1.90467	-114
1.90833	-114
1.91200	-113
1.91567	-113
1.91933	-112
1.92300	-112
1.92667	-111
1.93033	-110
1.93400	-110
1.93767	-110
1.94133	-110
1.94500	-110
1.94867	-110
1.95233	-111
1.95600	-111
1.95967	-111
1.96333	-111
1.96700	-111
1.97067	-111
1.97433	-111
1.97800	-110
1.98167	-110
1.98533	-110
1.98900	-110
1.99267	-110
1.99633	-109
2.00000	-109
2.00367	-108
2.00733	-108
2.01100	-107
2.01467	-107
2.01833	-106
2.02200	-106
2.02567	-106
2.02933	-106
2.03300	-106
2.03667	-106
2.04033	-106
2.04400	-106
2.04767	-106
2.05133	-106
2.05500	-106
2.05867	-106
2.06233	-105
2.06600	-104
2.06967	-103
2.07333	-102
2.07700	-102
2.08067	-101
2.08433	-101
2.08800	-100
2.09167	-100
2.09533	-100
2.09900	-101
2.10267	-101
2.10633	-101
2.11000	-101
2.11367	-101
2.11733	-101
2.12100	-101
2.12467	-101
2.12833	-101
2.13200	-101
2.13567	-101
2.13933	-100
2.14300	-99
2.14667	-98
2.15033	-97
2.15400	-97
2.15767	-97
2.16133	-96
2.16500	-96
2.16867	-95
2.17233	-95
2.17600	-94
2.17967	-93
2.18333	-93
2.18700	-93
2.19067	-93
2.19433	-93
2.19800	-93
2.20167	-93
2.20533	-92
2.20900	-92
2.21267	-92
2.21633	-92
2.22000	-91
2.22367	-91
2.22733	-91
2.23100	-91
2.23467	-91
2.23833	-91
2.24200	-91
2.24567	-90
2.24933	-90
2.25300	-90
2.25667	-90
2.26033	-90
2.26400	-89
2.26767	-88
2.27133	-88
2.27500	-87
2.27867	-87
2.28233	-86
2.28600	-86
2.28967	-86
2.29333	-86
2.29700	-86
2.30067	-86
2.30433	-85
2.30800	-85
2.31167	-84
2.31533	-83
2.31900	-82
2.32267	-81
2.32633	-81
2.33000	-80
2.33367	-80
2.33733	-79
2.34100	-79
2.34467	-78
2.34833	-77
2.35200	-76
2.35567	-75
2.35933	-74
2.36300	-72
2.36667	-70
2.37033	-68
2.37400	-66
2.37767	-63
2.38133	-59
2.38500	-55
2.38867	-51
2.39233	-46
2.39600	-41
2.39967	-37
2.40333	-33
2.40700	-28
2.41067	-24
2.41433	-21
2.41800	-18
2.42167	-16
2.42533	-14
2.42900	-12
2.43267	-11
2.43633	-10
2.44000	-9
2.44367	-8
2.44733	-8
2.45100	-7
2.45467	-7
2.45833	-6
2.46200	-6
2.46567	-5
2.46933	-4
2.47300	-3
2.47667	-2
2.48033	-2
2.48400	-0
2.48767	1
2.49133	2
2.49500	3
2.49867	4
2.50233	5
2.50600	6
2.50967	6
2.51333	7
2.51700	8
2.52067	8
2.52433	9
2.52800	9
2.53167	10
2.53533	10
2.53900	10
2.54267	10
2.54633	11
2.55000	11
2.55367	11
2.55733	12
2.56100	12
2.56467	13
2.56833	13
2.57200	13
2.57567	13
2.57933	13
2.58300	13
2.58667	13
2.59033	13
2.59400	13
2.59767	13
2.60133	13
2.60500	13
2.60867	13
2.61233	13
2.61600	14
2.61967	14
2.62333	14
2.62700	15
2.63067	15
2.63433	15
2.63800	15
2.64167	15
2.64533	15
2.64900	15
2.65267	15
2.65633	15
2.66000	16
2.66367	16
2.66733	17
2.67100	17
2.67467	17
2.67833	17
2.68200	18
2.68567	18
2.68933	18
2.69300	19
2.69667	19
2.70033	20
2.70400	20
2.70767	20
2.71133	21
2.71500	21
2.71867	21
2.72233	22
2.72600	22
2.72967	23
2.73333	23
2.73700	23
2.74067	23
2.74433	23
2.74800	23
2.75167	23
2.75533	23
2.75900	23
2.76267	22
2.76633	22
2.77000	22
2.77367	21
2.77733	21
2.78100	21
2.78467	21
2.78833	21
2.79200	22
2.79567	22
2.79933	22
2.80300	22
2.80667	23
2.81033	23
2.81400	24
2.81767	24
2.82133	25
2.82500	25
2.82867	25
2.83233	26
2.83600	26
2.83967	26
2.84333	25
2.84700	23
2.85067	20
2.85433	15
2.85800	7
2.86167	-5
2.86533	-20
2.86900	-39
2.87267	-63
2.87633	-91
2.88000	-123
2.88367	-160
2.88733	-200
2.89100	-244
2.89467	-292
2.89833	-342
2.90200	-394
2.90567	-448
2.90933	-503
2.91300	-559
2.91667	-614
2.92033	-670
2.92400	-725
2.92767	-778
2.93133	-830
2.93500	-882
2.93867	-938
2.94233	-997
2.94600	-1052
2.94967	-1092
2.95333	-1108
2.95700	-1099
2.96067	-1064
2.96433	-1010
2.96800	-942
2.97167	-866
2.97533	-785
2.97900	-704
2.98267	-626
2.98633	-552
2.99000	-484
2.99367	-422
2.99733	-366
3.00100	-316
3.00467	-272
3.00833	-233
3.01200	-199
3.01567	-169
3.01933	-144
3.02300	-122
3.02667	-103
3.03033	-87
3.03400	-73
3.03767	-60
3.04133	-50
3.04500	-41
3.04867	-34
3.05233	-27
3.05600	-21
3.05967	-16
3.06333	-12
3.06700	-9
3.07067	-5
3.07433	-3
3.07800	-0
3.08167	2
3.08533	4
3.08900	5
3.09267	6
3.09633	7
3.10000	8
3.10367	9
3.10733	9
3.11100	10
3.11467	10
3.11833	11
3.12200	11
3.12567	12
3.12933	12
3.13300	12
3.13667	12
3.14033	13
3.14400	13
3.14767	13
3.15133	14
3.15500	14
3.15867	15
3.16233	15
3.16600	15
3.16967	15
3.17333	15
3.17700	16
3.18067	16
3.18433	17
3.18800	17
3.19167	17
3.19533	18
3.19900	18
3.20267	18
3.20633	19
3.21000	19
3.21367	19
3.21733	19
3.22100	20
3.22467	20
3.22833	20
3.23200	20
3.23567	20
3.23933	21
3.24300	21
3.24667	21
3.25033	21
3.25400	21
3.25767	21
3.26133	21
3.26500	21
3.26867	21
3.27233	21
3.27600	21
3.27967	21
3.28333	21
3.28700	21
3.29067	21
3.29433	21
3.29800	21
3.30167	21
3.30533	21
3.30900	21
3.31267	21
3.31633	21
3.32000	21
3.32367	22
3.32733	22
3.33100	22
3.33467	22
3.33833	22
3.34200	23
3.34567	23
3.34933	23
3.35300	23
3.35667	24
3.36033	24
3.36400	25
3.36767	25
3.37133	25
3.37500	25
3.37867	25
3.38233	26
3.38600	26
3.38967	26
3.39333	26
3.39700	26
3.40067	26
3.40433	27
3.40800	27
3.41167	26
3.41533	26
3.41900	26
3.42267	26
3.42633	26
3.43000	25
3.43367	25
3.43733	25
3.44100	25
3.44467	24
3.44833	24
3.45200	24
3.45567	24
3.45933	24
3.46300	24
3.46667	25
3.47033	25
3.47400	25
3.47767	25
3.48133	25
3.48500	25
3.48867	25
3.49233	25
3.49600	25
3.49967	25
3.50333	26
3.50700	26
3.51067	26
3.51433	26
3.51800	26
3.52167	25
3.52533	26
3.52900	26
3.53267	26
3.53633	26
3.54000	26
3.54367	26
3.54733	26
3.55100	26
3.55467	26
3.55833	26
3.56200	25
3.56567	25
3.56933	25
3.57300	25
3.57667	25
3.58033	25
3.58400	25
3.58767	25
3.59133	25
3.59500	25
3.59867	25
3.60233	25
3.60600	24
3.60967	24
3.61333	24
3.61700	24
3.62067	24
3.62433	23
3.62800	23
3.63167	23
3.63533	23
3.63900	23
3.64267	24
3.64633	24
3.65000	24
3.65367	24
3.65733	25
3.66100	25
3.66467	25
3.66833	25
3.67200	26
3.67567	26
3.67933	26
3.68300	26
3.68667	26
3.69033	26
3.69400	26
3.69767	26
3.70133	26
3.70500	26
3.70867	26
3.71233	26
3.71600	26
3.71967	26
3.72333	26
3.72700	26
3.73067	26
3.73433	27
3.73800	27
3.74167	27
3.74533	27
3.74900	27
3.75267	27
3.75633	27
3.76000	27
3.76367	27
3.76733	27
3.77100	27
3.77467	27
3.77833	26
3.78200	26
3.78567	25
3.78933	25
3.79300	25
3.79667	25
3.80033	24
3.80400	24
3.80767	24
3.81133	24
3.81500	24
3.81867	24
3.82233	24
3.82600	24
3.82967	23
3.83333	23
3.83700	23
3.84067	23
3.84433	23
3.84800	23
3.85167	23
3.85533	24
3.85900	24
3.86267	24
3.86633	24
3.87000	24
3.87367	24
3.87733	24
3.88100	24
3.88467	24
3.88833	24
3.89200	24
3.89567	24
3.89933	24
3.90300	24
3.90667	24
3.91033	24
3.91400	25
3.91767	25
3.92133	25
3.92500	26
3.92867	26
3.93233	26
3.93600	27
3.93967	27
3.94333	27
3.94700	27
3.95067	26
3.95433	26
3.95800	26
3.96167	26
3.96533	25
3.96900	25
3.97267	25
3.97633	25
3.98000	25
3.98367	25
3.98733	25
3.99100	25
3.99467	24
3.99833	24

[Chromatogram (Ch3)]
Interval(msec)	220
# of Points	1091
Start Time(min)	0.002
End Time(min)	3.998
R.Time (min)	Intensity
0.00167	-1
0.00533	-1
0.00900	1
0.01267	2
0.01633	1
0.02000	0
0.02367	0
0.02733	-2
0.03100	-3
0.03467	-2
0.03833	-1
0.04200	-2
0.04567	-3
0.04933	-6
0.05300	-7
0.05667	-6
0.06033	-4
0.06400	-3
0.06767	-5
0.07133	-5
0.07500	-5
0.07867	-6
0.08233	-3
0.08600	1
0.08967	4
0.09333	5
0.09700	4
0.10067	4
0.10433	5
0.10800	4
0.11167	3
0.11533	2
0.11900	-1
0.12267	-1
0.12633	-2
0.13000	-2
0.13367	-2
0.13733	-1
0.14100	0
0.14467	3
0.14833	6
0.15200	6
0.15567	4
0.15933	1
0.16300	1
0.16667	0
0.17033	1
0.17400	1
0.17767	1
0.18133	3
0.18500	4
0.18867	4
0.19233	4
0.19600	3
0.19967	3
0.20333	1
0.20700	-1
0.21067	-1
0.21433	-1
0.21800	-1
0.22167	-2
0.22533	-5
0.22900	-4
0.23267	-2
0.23633	-2
0.24000	-2
0.24367	-1
0.24733	-0
0.25100	-0
0.25467	-0
0.25833	3
0.26200	7
0.26567	10
0.26933	9
0.27300	6
0.27667	2
0.28033	0
0.28400	1
0.28767	1
0.29133	-0
0.29500	-1
0.29867	-2
0.30233	0
0.30600	-0
0.30967	-2
0.31333	-2
0.31700	-1
0.32067	-0
0.32433	0
0.32800	-0
0.33167	-2
0.33533	-1
0.33900	1
0.34267	1
0.34633	0
0.35000	-0
0.35367	0
0.35733	-2
0.36100	-5
0.36467	-7
0.36833	-6
0.37200	-6
0.37567	-7
0.37933	-4
0.38300	-3
0.38667	-3
0.39033	-3
0.39400	-2
0.39767	-3
0.40133	-4
0.40500	-3
0.40867	-1
0.41233	1
0.41600	3
0.41967	3
0.42333	3
0.42700	2
0.43067	-1
0.43433	-1
0.43800	1
0.44167	4
0.44533	4
0.44900	5
0.45267	4
0.45633	4
0.46000	4
0.46367	2
0.46733	1
0.47100	1
0.47467	2
0.47833	3
0.48200	3
0.48567	3
0.48933	3
0.49300	4
0.49667	4
0.50033	2
0.50400	1
0.50767	-1
0.51133	-2
0.51500	-1
0.51867	-1
0.52233	-1
0.52600	1
0.52967	3
0.53333	2
0.53700	3
0.54067	4
0.54433	2
0.54800	-0
0.55167	-2
0.55533	-4
0.55900	-6
0.56267	-5
0.56633	-3
0.57000	-2
0.57367	-3
0.57733	-4
0.58100	-3
0.58467	-3
0.58833	-2
0.59200	-1
0.59567	-2
0.59933	-1
0.60300	-0
0.60667	2
0.61033	4
0.61400	2
0.61767	0
0.62133	-0
0.62500	1
0.62867	0
0.63233	-1
0.63600	-0
0.63967	1
0.64333	1
0.64700	0
0.65067	-2
0.65433	-5
0.65800	-6
0.66167	-6
0.66533	-6
0.66900	-5
0.67267	-5
0.67633	-5
0.68000	-7
0.68367	-5
0.68733	-2
0.69100	2
0.69467	5
0.69833	7
0.70200	7
0.70567	6
0.70933	7
0.71300	7
0.71667	5
0.72033	5
0.72400	6
0.72767	6
0.73133	6
0.73500	4
0.73867	3
0.74233	4
0.74600	4
0.74967	4
0.75333	3
0.75700	2
0.76067	3
0.76433	4
0.76800	4
0.77167	6
0.77533	8
0.77900	11
0.78267	11
0.78633	10
0.79000	10
0.79367	12
0.79733	13
0.80100	11
0.80467	11
0.80833	11
0.81200	9
0.81567	8
0.81933	8
0.82300	10
0.82667	13
0.83033	12
0.83400	11
0.83767	10
0.84133	10
0.84500	10
0.84867	10
0.85233	8
0.85600	11
0.85967	12
0.86333	12
0.86700	11
0.87067	12
0.87433	12
0.87800	12
0.88167	11
0.88533	10
0.88900	11
0.89267	12
0.89633	12
0.90000	12
0.90367	13
0.90733	12
0.91100	8
0.91467	8
0.91833	7
0.92200	7
0.92567	7
0.92933	8
0.93300	8
0.93667	7
0.94033	7
0.94400	9
0.94767	10
0.95133	10
0.95500	11
0.95867	11
0.96233	10
0.96600	8
0.96967	7
0.97333	7
0.97700	6
0.98067	8
0.98433	8
0.98800	7
0.99167	8
0.99533	10
0.99900	11
1.00267	8
1.00633	8
1.01000	8
1.01367	9
1.01733	10
1.02100	11
1.02467	12
1.02833	13
1.03200	14
1.03567	15
1.03933	15
1.04300	15
1.04667	14
1.05033	12
1.05400	11
1.05767	14
1.06133	16
1.06500	15
1.06867	14
1.07233	14
1.07600	14
1.07967	15
1.08333	13
1.08700	12
1.09067	12
1.09433	11
1.09800	10
1.10167	10
1.10533	12
1.10900	13
1.11267	15
1.11633	16
1.12000	16
1.12367	16
1.12733	15
1.13100	14
1.13467	14
1.13833	13
1.14200	15
1.14567	16
1.14933	17
1.15300	16
1.15667	17
1.16033	16
1.16400	16
1.16767	16
1.17133	17
1.17500	16
1.17867	16
1.18233	15
1.18600	15
1.18967	14
1.19333	13
1.19700	12
1.20067	12
1.20433	12
1.20800	13
1.21167	14
1.21533	14
1.21900	14
1.22267	16
1.22633	15
1.23000	16
1.23367	14
1.23733	12
1.24100	13
1.24467	14
1.24833	14
1.25200	13
1.25567	12
1.25933	13
1.26300	13
1.26667	12
1.27033	12
1.27400	12
1.27767	11
1.28133	12
1.28500	13
1.28867	14
1.29233	15
1.29600	16
1.29967	15
1.30333	15
1.30700	15
1.31067	14
1.31433	13
1.31800	12
1.32167	13
1.32533	13
1.32900	13
1.33267	13
1.33633	13
1.34000	10
1.34367	9
1.34733	9
1.35100	11
1.35467	12
1.35833	11
1.36200	9
1.36567	8
1.36933	10
1.37300	10
1.37667	12
1.38033	13
1.38400	15
1.38767	16
1.39133	15
1.39500	14
1.39867	12
1.40233	10
1.40600	10
1.40967	10
1.41333	11
1.41700	12
1.42067	12
1.42433	13
1.42800	14
1.43167	17
1.43533	17
1.43900	15
1.44267	13
1.44633	13
1.45000	13
1.45367	13
1.45733	14
1.46100	15
1.46467	16
1.46833	16
1.47200	15
1.47567	14
1.47933	13
1.48300	14
1.48667	14
1.49033	14
1.49400	17
1.49767	17
1.50133	16
1.50500	17
1.50867	16
1.51233	15
1.51600	13
1.51967	12
1.52333	12
1.52700	13
1.53067	13
1.53433	13
1.53800	13
1.54167	13
1.54533	15
1.54900	16
1.55267	17
1.55633	16
1.56000	16
1.56367	13
1.56733	10
1.57100	11
1.57467	14
1.57833	17
1.58200	17
1.58567	17
1.58933	17
1.59300	15
1.59667	10
1.60033	8
1.60400	8
1.60767	10
1.61133	11
1.61500	12
1.61867	13
1.62233	14
1.62600	15
1.62967	17
1.63333	19
1.63700	19
1.64067	17
1.64433	17
1.64800	16
1.65167	15
1.65533	15
1.65900	17
1.66267	18
1.66633	19
1.67000	20
1.67367	20
1.67733	18
1.68100	19
1.68467	20
1.68833	19
1.69200	20
1.69567	22
1.69933	25
1.70300	25
1.70667	24
1.71033	26
1.71400	28
1.71767	29
1.72133	29
1.72500	28
1.72867	27
1.73233	29
1.73600	33
1.73967	35
1.74333	37
1.74700	37
1.75067	36
1.75433	35
1.75800	34
1.76167	33
1.76533	33
1.76900	34
1.77267	36
1.77633	37
1.78000	37
1.78367	35
1.78733	35
1.79100	34
1.79467	34
1.79833	36
1.80200	35
1.80567	36
1.80933	37
1.81300	40
1.81667	42
1.82033	43
1.82400	43
1.82767	42
1.83133	44
1.83500	46
1.83867	48
1.84233	48
1.84600	47
1.84967	46
1.85333	44
1.85700	45
1.86067	48
1.86433	51
1.86800	52
1.87167	52
1.87533	51
1.87900	50
1.88267	50
1.88633	51
1.89000	54
1.89367	53
1.89733	51
1.90100	50
1.90467	53
1.90833	55
1.91200	57
1.91567	58
1.91933	57
1.92300	57
1.92667	57
1.93033	58
1.93400	60
1.93767	61
1.94133	63
1.94500	63
1.94867	65
1.95233	65
1.95600	64
1.95967	62
1.96333	62
1.96700	64
1.97067	66
1.97433	69
1.97800	70
1.98167	71
1.98533	73
1.98900	75
1.99267	77
1.99633	78
2.00000	79
2.00367	80
2.00733	81
2.01100	81
2.01467	80
2.01833	81
2.02200	83
2.02567	84
2.02933	85
2.03300	87
2.03667	88
2.04033	88
2.04400	89
2.04767	91
2.05133	93
2.05500	93
2.05867	93
2.06233	92
2.06600	93
2.06967	95
2.07333	95
2.07700	95
2.08067	95
2.08433	96
2.08800	97
2.09167	101
2.09533	105
2.09900	107
2.10267	107
2.10633	106
2.11000	105
2.11367	106
2.11733	109
2.12100	115
2.12467	118
2.12833	117
2.13200	116
2.13567	117
2.13933	119
2.14300	119
2.14667	120
2.15033	120
2.15400	122
2.15767	123
2.16133	125
2.16500	128
2.16867	130
2.17233	133
2.17600	133
2.17967	132
2.18333	134
2.18700	137
2.19067	139
2.19433	141
2.19800	142
2.20167	143
2.20533	144
2.20900	146
2.21267	148
2.21633	150
2.22000	151
2.22367	152
2.22733	153
2.23100	153
2.23467	153
2.23833	155
2.24200	157
2.24567	158
2.24933	159
2.25300	160
2.25667	163
2.26033	164
2.26400	165
2.26767	166
2.27133	167
2.27500	170
2.27867	173
2.28233	174
2.28600	175
2.28967	175
2.29333	175
2.29700	175
2.30067	174
2.30433	175
2.30800	180
2.31167	183
2.31533	185
2.31900	189
2.32267	190
2.32633	191
2.33000	193
2.33367	197
2.33733	201
2.34100	202
2.34467	200
2.34833	199
2.35200	200
2.35567	202
2.35933	205
2.36300	207
2.36667	210
2.37033	211
2.37400	213
2.37767	215
2.38133	215
2.38500	214
2.38867	212
2.39233	212
2.39600	214
2.39967	217
2.40333	218
2.40700	220
2.41067	222
2.41433	222
2.41800	224
2.42167	228
2.42533	231
2.42900	233
2.43267	233
2.43633	233
2.44000	237
2.44367	290
2.44733	428
2.45100	581
2.45467	708
2.45833	785
2.46200	799
2.46567	775
2.46933	743
2.47300	715
2.47667	701
2.48033	690
2.48400	669
2.48767	635
2.49133	593
2.49500	552
2.49867	520
2.50233	498
2.50600	483
2.50967	476
2.51333	480
2.51700	493
2.52067	512
2.52433	530
2.52800	542
2.53167	541
2.53533	527
2.53900	504
2.54267	478
2.54633	451
2.55000	425
2.55367	403
2.55733	386
2.56100	371
2.56467	359
2.56833	350
2.57200	345
2.57567	340
2.57933	337
2.58300	336
2.58667	338
2.59033	342
2.59400	346
2.59767	349
2.60133	348
2.60500	344
2.60867	337
2.61233	327
2.61600	316
2.61967	304
2.62333	292
2.62700	280
2.63067	270
2.63433	258
2.63800	246
2.64167	233
2.64533	221
2.64900	207
2.65267	196
2.65633	186
2.66000	176
2.66367	165
2.66733	158
2.67100	151
2.67467	145
2.67833	141
2.68200	136
2.68567	134
2.68933	134
2.69300	135
2.69667	136
2.70033	138
2.70400	140
2.70767	144
2.71133	148
2.71500	152
2.71867	154
2.72233	157
2.72600	161
2.72967	164
2.73333	167
2.73700	169
2.74067	173
2.74433	177
2.74800	181
2.75167	184
2.75533	186
2.75900	188
2.76267	192
2.76633	196
2.77000	199
2.77367	203
2.77733	205
2.78100	207
2.78467	210
2.78833	214
2.79200	218
2.79567	220
2.79933	223
2.80300	228
2.80667	234
2.81033	238
2.81400	244
2.81767	250
2.82133	259
2.82500	276
2.82867	307
2.83233	364
2.83600	467
2.83967	639
2.84333	900
2.84700	1264
2.85067	1729
2.85433	2276
2.85800	2869
2.86167	3464
2.86533	4013
2.86900	4473
2.87267	4812
2.87633	5004
2.88000	5051
2.88367	4969
2.88733	4783
2.89100	4518
2.89467	4204
2.89833	3861
2.90200	3510
2.90567	3165
2.90933	2836
2.91300	2530
2.91667	2251
2.92033	1999
2.92400	1774
2.92767	1575
2.93133	1398
2.93500	1242
2.93867	1105
2.94233	987
2.94600	882
2.94967	791
2.95333	712
2.95700	644
2.96067	584
2.96433	534
2.96800	491
2.97167	455
2.97533	422
2.97900	393
2.98267	367
2.98633	344
2.99000	325
2.99367	308
2.99733	295
3.00100	284
3.00467	274
3.00833	264
3.01200	254
3.01567	247
3.01933	242
3.02300	236
3.02667	233
3.03033	231
3.03400	229
3.03767	227
3.04133	224
3.04500	222
3.04867	220
3.05233	219
3.05600	219
3.05967	218
3.06333	216
3.06700	212
3.07067	208
3.07433	206
3.07800	208
3.08167	211
3.08533	213
3.08900	214
3.09267	216
3.09633	218
3.10000	219
3.10367	219
3.10733	219
3.11100	219
3.11467	219
3.11833	218
3.12200	219
3.12567	219
3.12933	219
3.13300	220
3.13667	220
3.14033	221
3.14400	221
3.14767	222
3.15133	221
3.15500	221
3.15867	222
3.16233	223
3.16600	225
3.16967	226
3.17333	225
3.17700	226
3.18067	227
3.18433	228
3.18800	230
3.19167	231
3.19533	231
3.19900	233
3.20267	236
3.20633	237
3.21000	238
3.21367	239
3.21733	240
3.22100	242
3.22467	243
3.22833	246
3.23200	248
3.23567	250
3.23933	252
3.24300	254
3.24667	256
3.25033	257
3.25400	258
3.25767	259
3.26133	260
3.26500	259
3.26867	261
3.27233	262
3.27600	265
3.27967	268
3.28333	273
3.28700	278
3.29067	279
3.29433	279
3.29800	278
3.30167	278
3.30533	280
3.30900	283
3.31267	285
3.31633	286
3.32000	287
3.32367	286
3.32733	287
3.33100	289
3.33467	291
3.33833	294
3.34200	297
3.34567	298
3.34933	299
3.35300	302
3.35667	302
3.36033	303
3.36400	304
3.36767	302
3.37133	302
3.37500	302
3.37867	303
3.38233	306
3.38600	309
3.38967	312
3.39333	315
3.39700	318
3.40067	320
3.40433	320
3.40800	321
3.41167	321
3.41533	322
3.41900	323
3.42267	323
3.42633	325
3.43000	327
3.43367	328
3.43733	328
3.44100	329
3.44467	329
3.44833	329
3.45200	328
3.45567	327
3.45933	330
3.46300	333
3.46667	334
3.47033	333
3.47400	333
3.47767	333
3.48133	332
3.48500	332
3.48867	331
3.49233	329
3.49600	328
3.49967	328
3.50333	328
3.50700	327
3.51067	327
3.51433	326
3.51800	326
3.52167	327
3.52533	328
3.52900	328
3.53267	328
3.53633	326
3.54000	327
3.54367	326
3.54733	325
3.55100	325
3.55467	323
3.55833	321
3.56200	322
3.56567	322
3.56933	321
3.57300	320
3.57667	320
3.58033	321
3.58400	320
3.58767	321
3.59133	322
3.59500	324
3.59867	321
3.60233	319
3.60600	319
3.60967	320
3.61333	321
3.61700	320
3.62067	318
3.62433	317
3.62800	316
3.63167	317
3.63533	318
3.63900	318
3.64267	320
3.64633	319
3.65000	318
3.65367	318
3.65733	318
3.66100	317
3.66467	316
3.66833	316
3.67200	317
3.67567	317
3.67933	316
3.68300	315
3.68667	315
3.69033	316
3.69400	315
3.69767	316
3.70133	316
3.70500	317
3.70867	316
3.71233	313
3.71600	312
3.71967	311
3.72333	307
3.72700	296
3.73067	278
3.73433	265
3.73800	261
3.74167	266
3.74533	280
3.74900	298
3.75267	320
3.75633	343
3.76000	366
3.76367	389
3.76733	415
3.77100	439
3.77467	458
3.77833	476
3.78200	493
3.78567	506
3.78933	518
3.79300	530
3.79667	542
3.80033	553
3.80400	560
3.80767	567
3.81133	574
3.81500	580
3.81867	586
3.82233	592
3.82600	596
3.82967	600
3.83333	601
3.83700	603
3.84067	605
3.84433	605
3.84800	607
3.85167	609
3.85533	611
3.85900	613
3.86267	615
3.86633	616
3.87000	618
3.87367	617
3.87733	616
3.88100	616
3.88467	617
3.88833	619
3.89200	621
3.89567	621
3.89933	622
3.90300	621
3.90667	619
3.91033	618
3.91400	620
3.91767	622
3.92133	621
3.92500	623
3.92867	623
3.93233	623
3.93600	623
3.93967	625
3.94333	626
3.94700	627
3.95067	628
3.95433	629
3.95800	627
3.96167	625
3.96533	623
3.96900	622
3.97267	620
3.97633	618
3.98000	615
3.98367	615
3.98733	614
3.99100	615
3.99467	615
3.99833	616

[Status Trace (Column Oven Temperature)]
Interval(msec)	1000
# of Points	240
Start Time(min)	0.014
End Time(min)	3.998
Intensity Units	
Intensity Multiplier	1
R.Time (min)	Intensity
0.01447	34.99
0.03113	34.99
0.04780	34.98
0.06447	34.99
0.08113	35.00
0.09780	35.02
0.11447	35.02
0.13113	35.02
0.14780	35.02
0.16447	35.01
0.18113	35.00
0.19780	35.00
0.21447	35.00
0.23113	35.00
0.24780	35.00
0.26447	35.00
0.28113	35.01
0.29780	35.00
0.31447	35.00
0.33113	35.02
0.34780	35.01
0.36447	35.02
0.38113	35.02
0.39780	35.02
0.41447	35.02
0.43113	35.02
0.44780	35.02
0.46447	35.01
0.48113	35.01
0.49780	35.01
0.51447	35.01
0.53113	35.01
0.54780	35.02
0.56447	35.02
0.58113	35.01
0.59780	35.01
0.61447	35.01
0.63113	35.01
0.64780	35.01
0.66447	35.00
0.68113	34.99
0.69780	34.98
0.71447	34.98
0.73113	34.97
0.74780	34.97
0.76447	35.00
0.78113	35.02
0.79780	35.03
0.81447	35.03
0.83113	35.03
0.84780	35.02
0.86447	35.02
0.88113	35.02
0.89780	35.01
0.91447	35.00
0.93113	35.00
0.94780	34.99
0.96447	35.00
0.98113	35.01
0.99780	35.01
1.01447	35.01
1.03113	34.98
1.04780	34.98
1.06447	34.98
1.08113	34.98
1.09780	35.00
1.11447	35.00
1.13113	35.02
1.14780	35.02
1.16447	35.01
1.18113	35.01
1.19780	35.01
1.21447	35.00
1.23113	34.99
1.24780	34.99
1.26447	35.00
1.28113	35.00
1.29780	35.00
1.31447	35.00
1.33113	35.00
1.34780	35.00
1.36447	34.99
1.38113	34.98
1.39780	34.99
1.41447	35.00
1.43113	35.00
1.44780	34.99
1.46447	35.00
1.48113	35.02
1.49780	35.02
1.51447	35.02
1.53113	35.02
1.54780	35.01
1.56447	35.01
1.58113	34.99
1.59780	35.02
1.61447	35.10
1.63113	35.26
1.64780	35.46
1.66447	35.72
1.68113	36.08
1.69780	36.46
1.71447	36.81
1.73113	37.15
1.74780	37.48
1.76447	37.80
1.78113	38.14
1.79780	38.46
1.81447	38.79
1.83113	39.12
1.84780	39.45
1.86447	39.77
1.88113	40.11
1.89780	40.44
1.91447	40.77
1.93113	41.09
1.94780	41.42
1.96447	41.75
1.98113	42.08
1.99780	42.39
2.01447	42.71
2.03113	43.03
2.04780	43.38
2.06447	43.69
2.08113	44.03
2.09780	44.36
2.11447	44.70
2.13113	45.04
2.14780	45.36
2.16447	45.69
2.18113	46.00
2.19780	46.33
2.21447	46.67
2.23113	47.01
2.24780	47.36
2.26447	47.67
2.28113	47.99
2.29780	48.34
2.31447	48.65
2.33113	48.98
2.34780	49.28
2.36447	49.52
2.38113	49.63
2.39780	49.65
2.41447	49.64
2.43113	49.65
2.44780	49.66
2.46447	49.66
2.48113	49.67
2.49780	49.68
2.51447	49.71
2.53113	49.72
2.54780	49.74
2.56447	49.75
2.58113	49.77
2.59780	49.78
2.61447	49.80
2.63113	49.81
2.64780	49.82
2.66447	49.84
2.68113	49.85
2.69780	49.86
2.71447	49.85
2.73113	49.84
2.74780	49.85
2.76447	49.87
2.78113	49.88
2.79780	49.88
2.81447	49.88
2.83113	49.87
2.84780	49.86
2.86447	49.86
2.88113	49.86
2.89780	49.88
2.91447	49.90
2.93113	49.91
2.94780	49.93
2.96447	49.95
2.98113	49.97
2.99780	49.98
3.01447	49.99
3.03113	50.01
3.04780	50.01
3.06447	50.01
3.08113	50.02
3.09780	50.03
3.11447	50.04
3.13113	50.06
3.14780	50.08
3.16447	50.08
3.18113	50.09
3.19780	50.09
3.21447	50.08
3.23113	50.07
3.24780	50.07
3.26447	50.08
3.28113	50.09
3.29780	50.10
3.31447	50.11
3.33113	50.11
3.34780	50.09
3.36447	50.08
3.38113	50.07
3.39780	50.06
3.41447	50.05
3.43113	50.05
3.44780	50.05
3.46447	50.05
3.48113	50.05
3.49780	50.03
3.51447	50.04
3.53113	50.04
3.54780	50.04
3.56447	50.04
3.58113	50.04
3.59780	50.04
3.61447	50.05
3.63113	50.06
3.64780	50.06
3.66447	50.06
3.68113	50.05
3.69780	50.05
3.71447	50.05
3.73113	50.05
3.74780	50.04
3.76447	50.04
3.78113	50.04
3.79780	50.04
3.81447	50.05
3.83113	50.06
3.84780	50.06
3.86447	50.06
3.88113	50.07
3.89780	50.06
3.91447	50.05
3.93113	50.04
3.94780	50.05
3.96447	50.06
3.98113	50.06
3.99780	50.06

[Status Trace (Injection Unit Temperature)]
Interval(msec)	1000
# of Points	240
Start Time(min)	0.014
End Time(min)	3.998
Intensity Units	
Intensity Multiplier	1
R.Time (min)	Intensity
0.01447	99.97
0.03113	99.98
0.04780	99.97
0.06447	99.98
0.08113	99.97
0.09780	99.98
0.11447	99.98
0.13113	99.98
0.14780	99.98
0.16447	99.98
0.18113	99.98
0.19780	99.98
0.21447	99.99
0.23113	99.99
0.24780	99.99
0.26447	99.99
0.28113	99.98
0.29780	99.98
0.31447	99.99
0.33113	99.98
0.34780	99.99
0.36447	99.99
0.38113	99.99
0.39780	99.99
0.41447	99.98
0.43113	99.98
0.44780	99.99
0.46447	99.98
0.48113	99.98
0.49780	99.99
0.51447	99.98
0.53113	99.98
0.54780	99.98
0.56447	99.98
0.58113	99.99
0.59780	99.98
0.61447	99.99
0.63113	99.98
0.64780	99.98
0.66447	99.98
0.68113	99.98
0.69780	99.99
0.71447	99.99
0.73113	99.98
0.74780	99.99
0.76447	99.99
0.78113	99.99
0.79780	99.99
0.81447	99.98
0.83113	99.98
0.84780	99.99
0.86447	99.98
0.88113	99.98
0.89780	99.98
0.91447	99.99
0.93113	99.98
0.94780	99.98
0.96447	99.98
0.98113	99.99
0.99780	99.98
1.01447	99.98
1.03113	99.99
1.04780	99.99
1.06447	99.98
1.08113	99.98
1.09780	99.98
1.11447	99.99
1.13113	99.98
1.14780	99.98
1.16447	99.98
1.18113	99.99
1.19780	99.99
1.21447	99.99
1.23113	99.99
1.24780	99.99
1.26447	99.99
1.28113	99.99
1.29780	99.98
1.31447	99.98
1.33113	99.98
1.34780	99.99
1.36447	99.99
1.38113	99.98
1.39780	99.98
1.41447	99.98
1.43113	99.98
1.44780	99.98
1.46447	99.98
1.48113	99.98
1.49780	99.98
1.51447	99.98
1.53113	99.99
1.54780	99.98
1.56447	99.98
1.58113	99.98
1.59780	99.98
1.61447	99.98
1.63113	99.98
1.64780	99.98
1.66447	99.98
1.68113	99.98
1.69780	99.98
1.71447	99.98
1.73113	99.98
1.74780	99.98
1.76447	99.98
1.78113	99.98
1.79780	99.98
1.81447	99.98
1.83113	99.98
1.84780	99.98
1.86447	99.98
1.88113	99.98
1.89780	99.98
1.91447	99.97
1.93113	99.98
1.94780	99.98
1.96447	99.98
1.98113	99.98
1.99780	99.97
2.01447	99.97
2.03113	99.97
2.04780	99.97
2.06447	99.97
2.08113	99.97
2.09780	99.97
2.11447	99.97
2.13113	99.97
2.14780	99.97
2.16447	99.97
2.18113	99.97
2.19780	99.97
2.21447	99.97
2.23113	99.97
2.24780	99.97
2.26447	99.97
2.28113	99.97
2.29780	99.96
2.31447	99.97
2.33113	99.96
2.34780	99.96
2.36447	99.96
2.38113	99.96
2.39780	99.97
2.41447	99.97
2.43113	99.97
2.44780	99.97
2.46447	99.97
2.48113	99.97
2.49780	99.97
2.51447	99.97
2.53113	99.97
2.54780	99.97
2.56447	99.97
2.58113	99.97
2.59780	99.98
2.61447	99.97
2.63113	99.97
2.64780	99.98
2.66447	99.98
2.68113	99.98
2.69780	99.98
2.71447	99.98
2.73113	99.98
2.74780	99.99
2.76447	99.99
2.78113	99.99
2.79780	99.99
2.81447	99.99
2.83113	99.99
2.84780	100.00
2.86447	99.99
2.88113	100.00
2.89780	100.00
2.91447	100.00
2.93113	100.00
2.94780	100.01
2.96447	100.01
2.98113	100.00
2.99780	100.01
3.01447	100.01
3.03113	100.01
3.04780	100.01
3.06447	100.02
3.08113	100.02
3.09780	100.02
3.11447	100.02
3.13113	100.02
3.14780	100.02
3.16447	100.02
3.18113	100.02
3.19780	100.02
3.21447	100.03
3.23113	100.02
3.24780	100.03
3.26447	100.03
3.28113	100.03
3.29780	100.03
3.31447	100.03
3.33113	100.03
3.34780	100.03
3.36447	100.03
3.38113	100.03
3.39780	100.04
3.41447	100.03
3.43113	100.04
3.44780	100.03
3.46447	100.04
3.48113	100.04
3.49780	100.04
3.51447	100.04
3.53113	100.04
3.54780	100.04
3.56447	100.04
3.58113	100.04
3.59780	100.04
3.61447	100.04
3.63113	100.04
3.64780	100.04
3.66447	100.04
3.68113	100.04
3.69780	100.05
3.71447	100.04
3.73113	100.04
3.74780	100.04
3.76447	100.05
3.78113	100.04
3.79780	100.05
3.81447	100.04
3.83113	100.05
3.84780	100.05
3.86447	100.05
3.88113	100.04
3.89780	100.04
3.91447	100.04
3.93113	100.05
3.94780	100.05
3.96447	100.05
3.98113	100.04
3.99780	100.04

[Status Trace (Carrier Gas Pressure)]
Interval(msec)	1000
# of Points	240
Start Time(min)	0.014
End Time(min)	3.998
Intensity Units	
Intensity Multiplier	1
R.Time (min)	Intensity
0.01447	57.48
0.03113	55.57
0.04780	58.03
0.06447	59.84
0.08113	58.66
0.09780	57.98
0.11447	57.99
0.13113	58.01
0.14780	58.01
0.16447	58.00
0.18113	58.00
0.19780	58.00
0.21447	58.00
0.23113	58.00
0.24780	58.00
0.26447	58.00
0.28113	58.00
0.29780	58.00
0.31447	58.00
0.33113	58.00
0.34780	58.00
0.36447	58.00
0.38113	58.00
0.39780	58.00
0.41447	58.00
0.43113	58.00
0.44780	58.00
0.46447	58.00
0.48113	58.00
0.49780	58.00
0.51447	58.00
0.53113	58.00
0.54780	58.00
0.56447	58.00
0.58113	58.00
0.59780	58.00
0.61447	58.00
0.63113	58.00
0.64780	58.00
0.66447	58.00
0.68113	58.00
0.69780	58.00
0.71447	58.00
0.73113	58.00
0.74780	58.00
0.76447	58.00
0.78113	58.00
0.79780	58.00
0.81447	58.00
0.83113	58.00
0.84780	58.00
0.86447	58.00
0.88113	58.00
0.89780	58.00
0.91447	58.00
0.93113	58.00
0.94780	58.00
0.96447	58.00
0.98113	58.00
0.99780	58.00
1.01447	58.00
1.03113	58.00
1.04780	58.00
1.06447	58.00
1.08113	58.00
1.09780	58.00
1.11447	58.00
1.13113	58.00
1.14780	58.00
1.16447	58.00
1.18113	58.00
1.19780	58.00
1.21447	58.00
1.23113	58.00
1.24780	58.00
1.26447	58.00
1.28113	58.00
1.29780	58.00
1.31447	58.00
1.33113	58.00
1.34780	58.00
1.36447	58.00
1.38113	58.00
1.39780	58.00
1.41447	58.00
1.43113	58.00
1.44780	58.00
1.46447	58.00
1.48113	58.00
1.49780	58.00
1.51447	58.00
1.53113	58.00
1.54780	58.00
1.56447	58.00
1.58113	58.00
1.59780	58.00
1.61447	58.00
1.63113	58.00
1.64780	58.00
1.66447	58.00
1.68113	58.01
1.69780	58.00
1.71447	58.00
1.73113	58.00
1.74780	58.00
1.76447	58.00
1.78113	58.00
1.79780	58.00
1.81447	58.00
1.83113	58.00
1.84780	58.00
1.86447	58.00
1.88113	58.00
1.89780	58.00
1.91447	58.00
1.93113	58.00
1.94780	58.00
1.96447	58.00
1.98113	58.00
1.99780	58.00
2.01447	58.00
2.03113	58.00
2.04780	58.00
2.06447	58.00
2.08113	58.00
2.09780	58.00
2.11447	58.00
2.13113	58.00
2.14780	58.00
2.16447	58.00
2.18113	58.00
2.19780	58.00
2.21447	58.00
2.23113	58.00
2.24780	58.00
2.26447	58.00
2.28113	58.00
2.29780	58.00
2.31447	58.00
2.33113	58.00
2.34780	58.00
2.36447	58.00
2.38113	57.99
2.39780	57.99
2.41447	58.00
2.43113	58.00
2.44780	58.00
2.46447	58.00
2.48113	58.00
2.49780	58.00
2.51447	57.99
2.53113	57.99
2.54780	58.00
2.56447	58.00
2.58113	58.00
2.59780	58.00
2.61447	58.00
2.63113	58.00
2.64780	58.00
2.66447	58.00
2.68113	58.00
2.69780	58.00
2.71447	58.00
2.73113	58.00
2.74780	58.00
2.76447	58.00
2.78113	58.00
2.79780	58.00
2.81447	58.00
2.83113	58.00
2.84780	58.00
2.86447	58.00
2.88113	58.00
2.89780	58.00
2.91447	58.00
2.93113	58.00
2.94780	58.00
2.96447	58.00
2.98113	58.00
2.99780	58.00
3.01447	58.00
3.03113	58.00
3.04780	58.00
3.06447	58.00
3.08113	58.00
3.09780	58.00
3.11447	58.00
3.13113	58.00
3.14780	58.00
3.16447	58.00
3.18113	58.00
3.19780	58.00
3.21447	58.00
3.23113	58.00
3.24780	58.00
3.26447	58.00
3.28113	58.00
3.29780	58.00
3.31447	58.00
3.33113	58.00
3.34780	58.00
3.36447	58.00
3.38113	58.00
3.39780	58.00
3.41447	58.00
3.43113	58.00
3.44780	58.00
3.46447	58.00
3.48113	58.00
3.49780	58.00
3.51447	58.00
3.53113	58.00
3.54780	58.00
3.56447	58.00
3.58113	58.00
3.59780	58.00
3.61447	58.00
3.63113	58.00
3.64780	58.00
3.66447	58.00
3.68113	58.00
3.69780	58.00
3.71447	58.00
3.73113	58.00
3.74780	58.00
3.76447	58.00
3.78113	58.00
3.79780	58.00
3.81447	58.00
3.83113	58.00
3.84780	58.00
3.86447	58.00
3.88113	58.00
3.89780	58.00
3.91447	58.00
3.93113	58.00
3.94780	58.00
3.96447	58.00
3.98113	58.00
3.99780	58.00

[Status Trace (Carrier Gas Flow)]
Interval(msec)	1000
# of Points	240
Start Time(min)	0.014
End Time(min)	3.998
Intensity Units	
Intensity Multiplier	1
R.Time (min)	Intensity
0.01447	34.10
0.03113	34.54
0.04780	34.55
0.06447	34.51
0.08113	34.51
0.09780	34.52
0.11447	34.52
0.13113	34.52
0.14780	34.51
0.16447	34.52
0.18113	34.53
0.19780	34.51
0.21447	34.51
0.23113	34.52
0.24780	34.52
0.26447	34.52
0.28113	34.52
0.29780	34.52
0.31447	34.52
0.33113	34.52
0.34780	34.52
0.36447	34.52
0.38113	34.52
0.39780	34.52
0.41447	34.52
0.43113	34.52
0.44780	34.52
0.46447	34.52
0.48113	34.52
0.49780	34.51
0.51447	34.52
0.53113	34.52
0.54780	34.52
0.56447	34.52
0.58113	34.52
0.59780	34.52
0.61447	34.52
0.63113	34.52
0.64780	34.52
0.66447	34.52
0.68113	34.52
0.69780	34.52
0.71447	34.52
0.73113	34.52
0.74780	34.52
0.76447	34.52
0.78113	34.52
0.79780	34.52
0.81447	34.52
0.83113	34.52
0.84780	34.52
0.86447	34.52
0.88113	34.52
0.89780	34.53
0.91447	34.52
0.93113	34.52
0.94780	34.52
0.96447	34.52
0.98113	34.52
0.99780	34.52
1.01447	34.52
1.03113	34.51
1.04780	34.52
1.06447	34.52
1.08113	34.51
1.09780	34.52
1.11447	34.51
1.13113	34.51
1.14780	34.53
1.16447	34.51
1.18113	34.51
1.19780	34.53
1.21447	34.53
1.23113	34.53
1.24780	34.51
1.26447	34.51
1.28113	34.51
1.29780	34.52
1.31447	34.52
1.33113	34.52
1.34780	34.53
1.36447	34.52
1.38113	34.52
1.39780	34.52
1.41447	34.52
1.43113	34.52
1.44780	34.51
1.46447	34.52
1.48113	34.52
1.49780	34.52
1.51447	34.51
1.53113	34.52
1.54780	34.52
1.56447	34.52
1.58113	34.52
1.59780	34.51
1.61447	34.52
1.63113	34.52
1.64780	34.51
1.66447	34.52
1.68113	34.52
1.69780	34.52
1.71447	34.52
1.73113	34.51
1.74780	34.52
1.76447	34.52
1.78113	34.52
1.79780	34.52
1.81447	34.52
1.83113	34.52
1.84780	34.52
1.86447	34.52
1.88113	34.51
1.89780	34.52
1.91447	34.52
1.93113	34.51
1.94780	34.52
1.96447	34.52
1.98113	34.52
1.99780	34.52
2.01447	34.53
2.03113	34.52
2.04780	34.52
2.06447	34.52
2.08113	34.52
2.09780	34.52
2.11447	34.52
2.13113	34.52
2.14780	34.52
2.16447	34.52
2.18113	34.52
2.19780	34.52
2.21447	34.52
2.23113	34.51
2.24780	34.52
2.26447	34.52
2.28113	34.51
2.29780	34.52
2.31447	34.52
2.33113	34.52
2.34780	34.52
2.36447	34.52
2.38113	34.51
2.39780	34.53
2.41447	34.51
2.43113	34.51
2.44780	34.52
2.46447	34.52
2.48113	34.52
2.49780	34.52
2.51447	34.51
2.53113	34.52
2.54780	34.52
2.56447	34.52
2.58113	34.52
2.59780	34.52
2.61447	34.52
2.63113	34.51
2.64780	34.52
2.66447	34.52
2.68113	34.52
2.69780	34.52
2.71447	34.51
2.73113	34.52
2.74780	34.52
2.76447	34.52
2.78113	34.52
2.79780	34.52
2.81447	34.52
2.83113	34.52
2.84780	34.52
2.86447	34.52
2.88113	34.52
2.89780	34.52
2.91447	34.52
2.93113	34.52
2.94780	34.52
2.96447	34.52
2.98113	34.51
2.99780	34.52
3.01447	34.52
3.03113	34.52
3.04780	34.52
3.06447	34.52
3.08113	34.52
3.09780	34.52
3.11447	34.51
3.13113	34.52
3.14780	34.52
3.16447	34.52
3.18113	34.51
3.19780	34.52
3.21447	34.52
3.23113	34.52
3.24780	34.52
3.26447	34.52
3.28113	34.52
3.29780	34.52
3.31447	34.52
3.33113	34.52
3.34780	34.52
3.36447	34.52
3.38113	34.52
3.39780	34.52
3.41447	34.52
3.43113	34.52
3.44780	34.52
3.46447	34.52
3.48113	34.51
3.49780	34.52
3.51447	34.51
3.53113	34.52
3.54780	34.51
3.56447	34.52
3.58113	34.52
3.59780	34.52
3.61447	34.51
3.63113	34.52
3.64780	34.52
3.66447	34.52
3.68113	34.51
3.69780	34.52
3.71447	34.52
3.73113	34.52
3.74780	34.52
3.76447	34.52
3.78113	34.52
3.79780	34.52
3.81447	34.52
3.83113	34.52
3.84780	34.52
3.86447	34.52
3.88113	34.52
3.89780	34.52
3.91447	34.52
3.93113	34.52
3.94780	34.52
3.96447	34.52
3.98113	34.52
3.99780	34.52

[Status Trace (Column Flow)]
Interval(msec)	1000
# of Points	240
Start Time(min)	0.014
End Time(min)	3.998
Intensity Units	
Intensity Multiplier	1
R.Time (min)	Intensity
0.01447	5.49
0.03113	5.27
0.04780	5.56
0.06447	5.77
0.08113	5.63
0.09780	5.55
0.11447	5.55
0.13113	5.56
0.14780	5.56
0.16447	5.56
0.18113	5.56
0.19780	5.56
0.21447	5.56
0.23113	5.56
0.24780	5.56
0.26447	5.56
0.28113	5.56
0.29780	5.56
0.31447	5.56
0.33113	5.56
0.34780	5.56
0.36447	5.55
0.38113	5.55
0.39780	5.56
0.41447	5.56
0.43113	5.55
0.44780	5.55
0.46447	5.56
0.48113	5.56
0.49780	5.56
0.51447	5.56
0.53113	5.56
0.54780	5.55
0.56447	5.55
0.58113	5.56
0.59780	5.56
0.61447	5.56
0.63113	5.56
0.64780	5.56
0.66447	5.56
0.68113	5.56
0.69780	5.56
0.71447	5.56
0.73113	5.56
0.74780	5.56
0.76447	5.56
0.78113	5.56
0.79780	5.55
0.81447	5.55
0.83113	5.55
0.84780	5.56
0.86447	5.56
0.88113	5.56
0.89780	5.56
0.91447	5.56
0.93113	5.56
0.94780	5.56
0.96447	5.56
0.98113	5.56
0.99780	5.56
1.01447	5.56
1.03113	5.56
1.04780	5.56
1.06447	5.56
1.08113	5.56
1.09780	5.56
1.11447	5.56
1.13113	5.56
1.14780	5.55
1.16447	5.56
1.18113	5.56
1.19780	5.56
1.21447	5.56
1.23113	5.56
1.24780	5.56
1.26447	5.56
1.28113	5.56
1.29780	5.56
1.31447	5.56
1.33113	5.56
1.34780	5.56
1.36447	5.56
1.38113	5.56
1.39780	5.56
1.41447	5.56
1.43113	5.56
1.44780	5.56
1.46447	5.56
1.48113	5.56
1.49780	5.56
1.51447	5.55
1.53113	5.55
1.54780	5.56
1.56447	5.56
1.58113	5.56
1.59780	5.56
1.61447	5.55
1.63113	5.55
1.64780	5.54
1.66447	5.53
1.68113	5.52
1.69780	5.51
1.71447	5.50
1.73113	5.49
1.74780	5.48
1.76447	5.47
1.78113	5.46
1.79780	5.45
1.81447	5.44
1.83113	5.43
1.84780	5.42
1.86447	5.41
1.88113	5.40
1.89780	5.39
1.91447	5.38
1.93113	5.37
1.94780	5.36
1.96447	5.35
1.98113	5.34
1.99780	5.33
2.01447	5.32
2.03113	5.31
2.04780	5.30
2.06447	5.29
2.08113	5.28
2.09780	5.27
2.11447	5.26
2.13113	5.25
2.14780	5.24
2.16447	5.23
2.18113	5.22
2.19780	5.21
2.21447	5.20
2.23113	5.19
2.24780	5.18
2.26447	5.18
2.28113	5.17
2.29780	5.16
2.31447	5.15
2.33113	5.14
2.34780	5.13
2.36447	5.12
2.38113	5.12
2.39780	5.12
2.41447	5.12
2.43113	5.12
2.44780	5.12
2.46447	5.12
2.48113	5.12
2.49780	5.12
2.51447	5.12
2.53113	5.12
2.54780	5.12
2.56447	5.12
2.58113	5.12
2.59780	5.12
2.61447	5.12
2.63113	5.12
2.64780	5.11
2.66447	5.11
2.68113	5.11
2.69780	5.11
2.71447	5.11
2.73113	5.11
2.74780	5.11
2.76447	5.11
2.78113	5.11
2.79780	5.11
2.81447	5.11
2.83113	5.11
2.84780	5.11
2.86447	5.11
2.88113	5.11
2.89780	5.11
2.91447	5.11
2.93113	5.11
2.94780	5.11
2.96447	5.11
2.98113	5.11
2.99780	5.11
3.01447	5.11
3.03113	5.11
3.04780	5.11
3.06447	5.11
3.08113	5.11
3.09780	5.11
3.11447	5.11
3.13113	5.11
3.14780	5.11
3.16447	5.11
3.18113	5.11
3.19780	5.11
3.21447	5.11
3.23113	5.11
3.24780	5.11
3.26447	5.11
3.28113	5.11
3.29780	5.11
3.31447	5.11
3.33113	5.11
3.34780	5.11
3.36447	5.11
3.38113	5.11
3.39780	5.11
3.41447	5.11
3.43113	5.11
3.44780	5.11
3.46447	5.11
3.48113	5.11
3.49780	5.11
3.51447	5.11
3.53113	5.11
3.54780	5.11
3.56447	5.11
3.58113	5.11
3.59780	5.11
3.61447	5.11
3.63113	5.11
3.64780	5.11
3.66447	5.11
3.68113	5.11
3.69780	5.11
3.71447	5.11
3.73113	5.11
3.74780	5.11
3.76447	5.11
3.78113	5.11
3.79780	5.11
3.81447	5.11
3.83113	5.11
3.84780	5.11
3.86447	5.11
3.88113	5.11
3.89780	5.11
3.91447	5.11
3.93113	5.11
3.94780	5.11
3.96447	5.11
3.98113	5.11
3.99780	5.11

[Status Trace (Linear Velocity)]
Interval(msec)	1000
# of Points	240
Start Time(min)	0.014
End Time(min)	3.998
Intensity Units	
Intensity Multiplier	1
R.Time (min)	Intensity
0.01447	38.68
0.03113	37.43
0.04780	39.05
0.06447	40.23
0.08113	39.46
0.09780	39.01
0.11447	39.02
0.13113	39.03
0.14780	39.03
0.16447	39.03
0.18113	39.03
0.19780	39.03
0.21447	39.03
0.23113	39.03
0.24780	39.03
0.26447	39.03
0.28113	39.02
0.29780	39.02
0.31447	39.03
0.33113	39.02
0.34780	39.02
0.36447	39.02
0.38113	39.02
0.39780	39.02
0.41447	39.02
0.43113	39.02
0.44780	39.02
0.46447	39.02
0.48113	39.02
0.49780	39.02
0.51447	39.02
0.53113	39.02
0.54780	39.02
0.56447	39.02
0.58113	39.02
0.59780	39.02
0.61447	39.02
0.63113	39.02
0.64780	39.02
0.66447	39.02
0.68113	39.02
0.69780	39.03
0.71447	39.03
0.73113	39.03
0.74780	39.03
0.76447	39.03
0.78113	39.02
0.79780	39.02
0.81447	39.02
0.83113	39.02
0.84780	39.02
0.86447	39.02
0.88113	39.02
0.89780	39.02
0.91447	39.02
0.93113	39.02
0.94780	39.03
0.96447	39.02
0.98113	39.02
0.99780	39.02
1.01447	39.02
1.03113	39.03
1.04780	39.03
1.06447	39.03
1.08113	39.03
1.09780	39.03
1.11447	39.02
1.13113	39.02
1.14780	39.02
1.16447	39.02
1.18113	39.02
1.19780	39.02
1.21447	39.02
1.23113	39.03
1.24780	39.03
1.26447	39.03
1.28113	39.02
1.29780	39.02
1.31447	39.02
1.33113	39.02
1.34780	39.02
1.36447	39.03
1.38113	39.03
1.39780	39.03
1.41447	39.02
1.43113	39.02
1.44780	39.02
1.46447	39.02
1.48113	39.02
1.49780	39.02
1.51447	39.02
1.53113	39.02
1.54780	39.02
1.56447	39.02
1.58113	39.03
1.59780	39.02
1.61447	39.02
1.63113	39.00
1.64780	38.98
1.66447	38.96
1.68113	38.93
1.69780	38.89
1.71447	38.85
1.73113	38.82
1.74780	38.79
1.76447	38.76
1.78113	38.73
1.79780	38.69
1.81447	38.66
1.83113	38.63
1.84780	38.60
1.86447	38.57
1.88113	38.54
1.89780	38.51
1.91447	38.48
1.93113	38.45
1.94780	38.42
1.96447	38.39
1.98113	38.36
1.99780	38.33
2.01447	38.30
2.03113	38.27
2.04780	38.24
2.06447	38.21
2.08113	38.18
2.09780	38.15
2.11447	38.12
2.13113	38.08
2.14780	38.06
2.16447	38.03
2.18113	38.00
2.19780	37.97
2.21447	37.94
2.23113	37.91
2.24780	37.88
2.26447	37.85
2.28113	37.82
2.29780	37.79
2.31447	37.76
2.33113	37.73
2.34780	37.70
2.36447	37.68
2.38113	37.67
2.39780	37.67
2.41447	37.67
2.43113	37.67
2.44780	37.67
2.46447	37.67
2.48113	37.67
2.49780	37.67
2.51447	37.66
2.53113	37.66
2.54780	37.66
2.56447	37.66
2.58113	37.66
2.59780	37.66
2.61447	37.66
2.63113	37.66
2.64780	37.66
2.66447	37.65
2.68113	37.65
2.69780	37.65
2.71447	37.65
2.73113	37.65
2.74780	37.65
2.76447	37.65
2.78113	37.65
2.79780	37.65
2.81447	37.65
2.83113	37.65
2.84780	37.65
2.86447	37.65
2.88113	37.65
2.89780	37.65
2.91447	37.65
2.93113	37.65
2.94780	37.65
2.96447	37.65
2.98113	37.64
2.99780	37.64
3.01447	37.64
3.03113	37.64
3.04780	37.64
3.06447	37.64
3.08113	37.64
3.09780	37.64
3.11447	37.64
3.13113	37.64
3.14780	37.63
3.16447	37.63
3.18113	37.63
3.19780	37.63
3.21447	37.63
3.23113	37.63
3.24780	37.63
3.26447	37.63
3.28113	37.63
3.29780	37.63
3.31447	37.63
3.33113	37.63
3.34780	37.63
3.36447	37.63
3.38113	37.63
3.39780	37.64
3.41447	37.64
3.43113	37.64
3.44780	37.64
3.46447	37.64
3.48113	37.64
3.49780	37.64
3.51447	37.64
3.53113	37.64
3.54780	37.64
3.56447	37.64
3.58113	37.64
3.59780	37.64
3.61447	37.64
3.63113	37.64
3.64780	37.63
3.66447	37.63
3.68113	37.64
3.69780	37.64
3.71447	37.64
3.73113	37.64
3.74780	37.64
3.76447	37.64
3.78113	37.64
3.79780	37.64
3.81447	37.64
3.83113	37.64
3.84780	37.63
3.86447	37.63
3.88113	37.63
3.89780	37.63
3.91447	37.64
3.93113	37.64
3.94780	37.64
3.96447	37.64
3.98113	37.63
3.99780	37.64

