[Header]
Application Name	LabSolutions
Version	5.110
Data File Name	C:\Users\User\Desktop\GC Analyses\Jack\Nachusa Grasslands Sampling\T4 Timepoint July 12th\T4_07122022_024.gcd
Output Date	3/17/2023
Output Time	12:04:52 PM

[File Information]
Type	Data File
Generated	3/14/2023 5:59:37 PM
Generated by	System Administrator
Modified	3/14/2023 6:06:13 PM
Modified by	System Administrator

[Sample Information]
Operator Name	System Administrator
Acquired	3/14/2023 6:02:12 PM
Sample Type	0:Unknown
Level	0
Sample Name	024
Sample ID	024
ISTD Amount1	1
ISTD Amount2	1
ISTD Amount3	1
ISTD Amount4	1
ISTD Amount5	1
ISTD Amount6	1
ISTD Amount7	1
ISTD Amount8	1
ISTD Amount9	1
ISTD Amount10	1
ISTD Amount11	1
ISTD Amount12	1
ISTD Amount13	1
ISTD Amount14	1
ISTD Amount15	1
ISTD Amount16	1
ISTD Amount17	1
ISTD Amount18	1
ISTD Amount19	1
ISTD Amount20	1
ISTD Amount21	1
ISTD Amount22	1
ISTD Amount23	1
ISTD Amount24	1
ISTD Amount25	1
ISTD Amount26	1
ISTD Amount27	1
ISTD Amount28	1
ISTD Amount29	1
ISTD Amount30	1
ISTD Amount31	1
ISTD Amount32	1
Sample Amount	1
Dilution Factor	1
Vial#	23
Injection Volume	1
Injection Count	1
Bar Code	

[Original Files]
Data File	C:\Users\User\Desktop\GC Analyses\Jack\Nachusa Grasslands Sampling\T4 Timepoint July 12th\T4_07122022_024.gcd
Method File	C:\LabSolutions\Data\GHG_4min_2022\ghg3_togas_w_acet_4 min_new_int.gcm
Batch File	C:\LabSolutions\Data\AutoSamplerTesting\T4_07122022.gcb
Report Format File	c:\LabSolutions\System\DEFAULT.lsr

[File Description]


[Configuration]
Instrument Name	C0B7VH3-Instrument1
Instrument #	1
Line #	1
# of Detectors	3
Detector ID	DET#1	DET#2	DET#3
Detector Name	FID	PTCD	ECD
# of Channels	1	1	1

[Peak Table(Ch1)]
# of Peaks	3
Peak#	R.Time	I.Time	F.Time	Area	Height	A/H	Conc.	Mark	ID#	Name	k'	Plate #	Plate Ht.	Tailing	Resolution	Sep.Factor	Area Ratio	Height Ratio	Conc. %	Norm Conc.
1	1.476	1.435	1.538	42621	20905	2.039	300.907	   	1	CO	0.000	9711	15.447	1.323	0.000	0.000	0	0	29.534	29.534
2	1.571	1.538	1.615	4147	2116	1.959	80.181	 V 	2	CH4	0.065	11493	13.052	1.034	1.609	0.000	0	0	7.870	7.870
3	2.000	1.952	2.407	2541142	1217051	2.088	637.758	   	3	CO2	0.355	17418	8.612	1.194	7.196	5.500	0	0	62.596	62.596

[Peak Table(Ch2)]
# of Peaks	0

[Peak Table(Ch3)]
# of Peaks	5
Peak#	R.Time	I.Time	F.Time	Area	Height	A/H	Conc.	Mark	ID#	Name	k'	Plate #	Plate Ht.	Tailing	Resolution	Sep.Factor	Area Ratio	Height Ratio	Conc. %	Norm Conc.
1	2.462	2.337	2.510	1963	603	3.257	0.000	   			0.000	9380	15.992	0.000	0.000	0.000	0	0	0.000	0.000
2	2.532	2.510	2.579	1073	350	3.068	0.000	 V 			0.028	5022	29.869	0.000	0.570	0.000	0	0	0.000	0.000
3	2.601	2.579	2.682	643	178	3.608	0.000	 V 			0.057	1600	93.726	0.000	0.346	2.000	0	0	0.000	0.000
4	2.880	2.697	3.085	18543	4771	3.887	0.474	   	1	N2O	0.170	13135	11.420	1.507	1.546	3.000	0	0	100.000	100.000
5	3.404	3.195	3.569	471	38	12.247	0.000	   	2	SF6	0.383	2037	73.630	0.902	2.607	2.254	0	0	0.000	0.000

[Compound Results(Ch1)]
# of IDs	6
ID#	Name	R.Time	Area	Height	Conc.	Curve	3rd	2nd	1st	Constant	Area Ratio	Height Ratio	Conc. %	Norm Conc.
1	CO	1.476	42621	20905	300.907	Linear	0.000000e+00	0.000000e+00	1.416423e+002	0.000000e+00	0	0	29.534	29.534
2	CH4	1.571	4147	2116	80.181	Linear	0.000000e+00	0.000000e+00	5.171738e+001	0.000000e+00	0	0	7.870	7.870
3	CO2	2.000	2541142	1217051	637.758	Linear	0.000000e+00	0.000000e+00	3.984494e+003	0.000000e+00	0	0	62.596	62.596
4	Ethylene	0.000	0	0	0.000	Linear	0.000000e+00	0.000000e+00	0.000000e+00	0.000000e+00	0	0	0.000	0.000
5	Acetylene	0.000	0	0	0.000	Linear	0.000000e+00	0.000000e+00	0.000000e+00	0.000000e+00	0	0	0.000	0.000
6	Ethane	0.000	0	0	0.000	Linear	0.000000e+00	0.000000e+00	0.000000e+00	0.000000e+00	0	0	0.000	0.000

[Compound Results(Ch2)]
# of IDs	5
ID#	Name	R.Time	Area	Height	Conc.	Curve	3rd	2nd	1st	Constant	Area Ratio	Height Ratio	Conc. %	Norm Conc.
1	Hydrogen	0.000	0	0	0.000	Linear	0.000000e+00	0.000000e+00	0.000000e+00	0.000000e+00	0	0	0.000	0.000
2	Oxygen	0.000	0	0	0.000	Linear	0.000000e+00	0.000000e+00	0.000000e+00	0.000000e+00	0	0	0.000	0.000
3	Nitrogen	0.000	0	0	0.000	Linear	0.000000e+00	0.000000e+00	0.000000e+00	0.000000e+00	0	0	0.000	0.000
4	Methane	0.000	0	0	0.000	Linear	0.000000e+00	0.000000e+00	0.000000e+00	0.000000e+00	0	0	0.000	0.000
5	Carbon Monoxide	0.000	0	0	0.000	Linear	0.000000e+00	0.000000e+00	0.000000e+00	0.000000e+00	0	0	0.000	0.000

[Compound Results(Ch3)]
# of IDs	2
ID#	Name	R.Time	Area	Height	Conc.	Curve	3rd	2nd	1st	Constant	Area Ratio	Height Ratio	Conc. %	Norm Conc.
1	N2O	2.880	18543	4771	0.474	Linear	0.000000e+00	0.000000e+00	3.915173e+004	0.000000e+00	0	0	100.000	100.000
2	SF6	3.404	471	38	0.000	Linear	0.000000e+00	0.000000e+00	0.000000e+00	0.000000e+00	0	0	0.000	0.000

[Group Results(Ch1)]
# of Groups	0

[Group Results(Ch2)]
# of Groups	0

[Group Results(Ch3)]
# of Groups	0

[Chromatogram (Ch1)]
Interval(msec)	220
# of Points	1091
Start Time(min)	0.002
End Time(min)	3.998
R.Time (min)	Intensity
0.00167	27
0.00533	35
0.00900	39
0.01267	41
0.01633	42
0.02000	41
0.02367	38
0.02733	33
0.03100	30
0.03467	32
0.03833	32
0.04200	28
0.04567	19
0.04933	9
0.05300	2
0.05667	-1
0.06033	-1
0.06400	-2
0.06767	-4
0.07133	5
0.07500	24
0.07867	42
0.08233	51
0.08600	48
0.08967	36
0.09333	25
0.09700	16
0.10067	11
0.10433	7
0.10800	3
0.11167	1
0.11533	3
0.11900	12
0.12267	16
0.12633	13
0.13000	10
0.13367	6
0.13733	3
0.14100	-0
0.14467	-1
0.14833	0
0.15200	2
0.15567	4
0.15933	10
0.16300	19
0.16667	24
0.17033	22
0.17400	19
0.17767	14
0.18133	10
0.18500	7
0.18867	9
0.19233	15
0.19600	18
0.19967	18
0.20333	15
0.20700	11
0.21067	7
0.21433	-0
0.21800	-7
0.22167	-15
0.22533	-17
0.22900	-10
0.23267	-4
0.23633	3
0.24000	9
0.24367	10
0.24733	13
0.25100	20
0.25467	25
0.25833	22
0.26200	20
0.26567	22
0.26933	25
0.27300	30
0.27667	34
0.28033	36
0.28400	36
0.28767	35
0.29133	35
0.29500	31
0.29867	24
0.30233	14
0.30600	8
0.30967	6
0.31333	8
0.31700	10
0.32067	12
0.32433	20
0.32800	30
0.33167	38
0.33533	43
0.33900	43
0.34267	46
0.34633	48
0.35000	47
0.35367	45
0.35733	45
0.36100	39
0.36467	27
0.36833	13
0.37200	4
0.37567	3
0.37933	8
0.38300	16
0.38667	18
0.39033	21
0.39400	18
0.39767	19
0.40133	16
0.40500	11
0.40867	12
0.41233	21
0.41600	31
0.41967	39
0.42333	45
0.42700	44
0.43067	38
0.43433	31
0.43800	24
0.44167	22
0.44533	19
0.44900	16
0.45267	21
0.45633	24
0.46000	27
0.46367	26
0.46733	21
0.47100	16
0.47467	10
0.47833	4
0.48200	-1
0.48567	-4
0.48933	-3
0.49300	2
0.49667	5
0.50033	9
0.50400	13
0.50767	19
0.51133	23
0.51500	27
0.51867	27
0.52233	26
0.52600	29
0.52967	30
0.53333	26
0.53700	20
0.54067	19
0.54433	22
0.54800	25
0.55167	24
0.55533	16
0.55900	10
0.56267	8
0.56633	5
0.57000	3
0.57367	4
0.57733	7
0.58100	8
0.58467	6
0.58833	2
0.59200	3
0.59567	7
0.59933	6
0.60300	-2
0.60667	-11
0.61033	-17
0.61400	-18
0.61767	-14
0.62133	-13
0.62500	-15
0.62867	-13
0.63233	-7
0.63600	1
0.63967	8
0.64333	10
0.64700	9
0.65067	8
0.65433	7
0.65800	4
0.66167	-4
0.66533	-5
0.66900	-3
0.67267	1
0.67633	3
0.68000	-2
0.68367	-5
0.68733	-9
0.69100	-14
0.69467	-10
0.69833	-1
0.70200	7
0.70567	8
0.70933	9
0.71300	10
0.71667	14
0.72033	15
0.72400	12
0.72767	6
0.73133	6
0.73500	6
0.73867	1
0.74233	-4
0.74600	-8
0.74967	-9
0.75333	-5
0.75700	-0
0.76067	2
0.76433	2
0.76800	2
0.77167	3
0.77533	3
0.77900	4
0.78267	5
0.78633	1
0.79000	-3
0.79367	-7
0.79733	-9
0.80100	-12
0.80467	-11
0.80833	-12
0.81200	-12
0.81567	-13
0.81933	-14
0.82300	-16
0.82667	-15
0.83033	-14
0.83400	-11
0.83767	-5
0.84133	-0
0.84500	3
0.84867	4
0.85233	3
0.85600	4
0.85967	6
0.86333	6
0.86700	7
0.87067	3
0.87433	-0
0.87800	-5
0.88167	-9
0.88533	-12
0.88900	-11
0.89267	-7
0.89633	-4
0.90000	1
0.90367	-0
0.90733	-3
0.91100	-8
0.91467	-15
0.91833	-14
0.92200	-8
0.92567	-4
0.92933	-2
0.93300	-1
0.93667	2
0.94033	3
0.94400	-3
0.94767	-9
0.95133	-16
0.95500	-23
0.95867	-29
0.96233	-26
0.96600	-26
0.96967	-30
0.97333	-32
0.97700	-26
0.98067	-17
0.98433	-11
0.98800	-13
0.99167	-21
0.99533	-25
0.99900	-25
1.00267	-18
1.00633	-7
1.01000	1
1.01367	2
1.01733	-2
1.02100	-8
1.02467	-13
1.02833	-20
1.03200	-32
1.03567	-39
1.03933	-44
1.04300	-45
1.04667	-37
1.05033	-29
1.05400	-30
1.05767	-29
1.06133	-17
1.06500	-5
1.06867	-0
1.07233	-6
1.07600	-23
1.07967	-33
1.08333	-37
1.08700	-39
1.09067	-40
1.09433	-35
1.09800	-27
1.10167	-22
1.10533	-20
1.10900	-17
1.11267	-21
1.11633	-28
1.12000	-31
1.12367	-36
1.12733	-40
1.13100	-38
1.13467	-38
1.13833	-38
1.14200	-36
1.14567	-29
1.14933	-26
1.15300	-29
1.15667	-29
1.16033	-30
1.16400	-31
1.16767	-33
1.17133	-35
1.17500	-33
1.17867	-33
1.18233	-36
1.18600	-38
1.18967	-36
1.19333	-29
1.19700	-25
1.20067	-29
1.20433	-31
1.20800	-25
1.21167	-17
1.21533	-11
1.21900	-12
1.22267	-14
1.22633	-18
1.23000	-26
1.23367	-33
1.23733	-39
1.24100	-42
1.24467	-44
1.24833	-45
1.25200	-44
1.25567	-41
1.25933	-32
1.26300	-20
1.26667	-1
1.27033	9
1.27400	11
1.27767	6
1.28133	-2
1.28500	-8
1.28867	-16
1.29233	-25
1.29600	-38
1.29967	-47
1.30333	-45
1.30700	-43
1.31067	-42
1.31433	-39
1.31800	-36
1.32167	-32
1.32533	-27
1.32900	-21
1.33267	-20
1.33633	-23
1.34000	-25
1.34367	-25
1.34733	-24
1.35100	-23
1.35467	-25
1.35833	-28
1.36200	-30
1.36567	-29
1.36933	-26
1.37300	-25
1.37667	-26
1.38033	-29
1.38400	-29
1.38767	-24
1.39133	-18
1.39500	-11
1.39867	-8
1.40233	-7
1.40600	-5
1.40967	-2
1.41333	-3
1.41700	-6
1.42067	-8
1.42433	-11
1.42800	-14
1.43167	-15
1.43533	-12
1.43900	-5
1.44267	24
1.44633	164
1.45000	697
1.45367	2283
1.45733	5357
1.46100	9435
1.46467	13559
1.46833	17037
1.47200	19548
1.47567	20883
1.47933	20838
1.48300	19361
1.48667	16727
1.49033	13502
1.49400	10288
1.49767	7494
1.50133	5281
1.50500	3631
1.50867	2452
1.51233	1635
1.51600	1079
1.51967	708
1.52333	459
1.52700	293
1.53067	182
1.53433	109
1.53800	67
1.54167	73
1.54533	184
1.54900	438
1.55267	807
1.55633	1216
1.56000	1581
1.56367	1863
1.56733	2034
1.57100	2071
1.57467	1950
1.57833	1689
1.58200	1345
1.58567	995
1.58933	693
1.59300	453
1.59667	277
1.60033	153
1.60400	70
1.60767	9
1.61133	-33
1.61500	-56
1.61867	-65
1.62233	-65
1.62600	-61
1.62967	-57
1.63333	-53
1.63700	-50
1.64067	-50
1.64433	-53
1.64800	-54
1.65167	-48
1.65533	-46
1.65900	-43
1.66267	-40
1.66633	-44
1.67000	-50
1.67367	-53
1.67733	-54
1.68100	-56
1.68467	-61
1.68833	-61
1.69200	-60
1.69567	-57
1.69933	-53
1.70300	-55
1.70667	-62
1.71033	-65
1.71400	-59
1.71767	-48
1.72133	-41
1.72500	-39
1.72867	-40
1.73233	-43
1.73600	-48
1.73967	-50
1.74333	-50
1.74700	-48
1.75067	-45
1.75433	-45
1.75800	-42
1.76167	-39
1.76533	-33
1.76900	-27
1.77267	-28
1.77633	-34
1.78000	-39
1.78367	-39
1.78733	-37
1.79100	-41
1.79467	-48
1.79833	-50
1.80200	-52
1.80567	-54
1.80933	-54
1.81300	-47
1.81667	-40
1.82033	-38
1.82400	-35
1.82767	-34
1.83133	-31
1.83500	-31
1.83867	-36
1.84233	-40
1.84600	-35
1.84967	-29
1.85333	-29
1.85700	-32
1.86067	-24
1.86433	-18
1.86800	-22
1.87167	-31
1.87533	-33
1.87900	-27
1.88267	-21
1.88633	-12
1.89000	-9
1.89367	-12
1.89733	-17
1.90100	-17
1.90467	-15
1.90833	-19
1.91200	-21
1.91567	-19
1.91933	-18
1.92300	-23
1.92667	-30
1.93033	-34
1.93400	-33
1.93767	-26
1.94133	-18
1.94500	-12
1.94867	-9
1.95233	1
1.95600	79
1.95967	608
1.96333	3440
1.96700	14742
1.97067	49027
1.97433	128953
1.97800	273287
1.98167	478167
1.98533	712537
1.98900	933640
1.99267	1105677
1.99633	1204111
2.00000	1217077
2.00367	1147519
2.00733	1012782
2.01100	840280
2.01467	659731
2.01833	494624
2.02200	357832
2.02567	252434
2.02933	175370
2.03300	121044
2.03667	83672
2.04033	58348
2.04400	41293
2.04767	29813
2.05133	22044
2.05500	16730
2.05867	13042
2.06233	10427
2.06600	8532
2.06967	7131
2.07333	6078
2.07700	5266
2.08067	4624
2.08433	4107
2.08800	3685
2.09167	3330
2.09533	3028
2.09900	2768
2.10267	2544
2.10633	2351
2.11000	2184
2.11367	2040
2.11733	1913
2.12100	1795
2.12467	1686
2.12833	1583
2.13200	1497
2.13567	1421
2.13933	1353
2.14300	1291
2.14667	1236
2.15033	1185
2.15400	1134
2.15767	1084
2.16133	1037
2.16500	993
2.16867	951
2.17233	911
2.17600	883
2.17967	855
2.18333	829
2.18700	799
2.19067	771
2.19433	742
2.19800	716
2.20167	693
2.20533	672
2.20900	651
2.21267	635
2.21633	621
2.22000	606
2.22367	590
2.22733	580
2.23100	570
2.23467	553
2.23833	533
2.24200	517
2.24567	508
2.24933	501
2.25300	500
2.25667	501
2.26033	498
2.26400	487
2.26767	465
2.27133	443
2.27500	426
2.27867	412
2.28233	405
2.28600	400
2.28967	392
2.29333	388
2.29700	382
2.30067	367
2.30433	356
2.30800	347
2.31167	340
2.31533	329
2.31900	322
2.32267	322
2.32633	325
2.33000	325
2.33367	322
2.33733	319
2.34100	314
2.34467	309
2.34833	306
2.35200	308
2.35567	310
2.35933	309
2.36300	304
2.36667	297
2.37033	294
2.37400	292
2.37767	286
2.38133	275
2.38500	260
2.38867	248
2.39233	246
2.39600	248
2.39967	246
2.40333	243
2.40700	238
2.41067	235
2.41433	235
2.41800	239
2.42167	241
2.42533	240
2.42900	236
2.43267	233
2.43633	231
2.44000	225
2.44367	220
2.44733	217
2.45100	216
2.45467	221
2.45833	229
2.46200	232
2.46567	224
2.46933	212
2.47300	205
2.47667	204
2.48033	210
2.48400	218
2.48767	226
2.49133	227
2.49500	217
2.49867	198
2.50233	181
2.50600	172
2.50967	170
2.51333	165
2.51700	161
2.52067	168
2.52433	180
2.52800	191
2.53167	200
2.53533	208
2.53900	211
2.54267	206
2.54633	200
2.55000	197
2.55367	192
2.55733	187
2.56100	182
2.56467	180
2.56833	181
2.57200	185
2.57567	188
2.57933	185
2.58300	180
2.58667	172
2.59033	165
2.59400	159
2.59767	155
2.60133	155
2.60500	153
2.60867	148
2.61233	145
2.61600	146
2.61967	151
2.62333	155
2.62700	151
2.63067	142
2.63433	137
2.63800	138
2.64167	139
2.64533	135
2.64900	135
2.65267	137
2.65633	135
2.66000	131
2.66367	130
2.66733	132
2.67100	136
2.67467	143
2.67833	144
2.68200	143
2.68567	147
2.68933	152
2.69300	152
2.69667	145
2.70033	133
2.70400	129
2.70767	133
2.71133	137
2.71500	143
2.71867	146
2.72233	147
2.72600	146
2.72967	147
2.73333	153
2.73700	160
2.74067	161
2.74433	153
2.74800	143
2.75167	135
2.75533	128
2.75900	122
2.76267	118
2.76633	117
2.77000	121
2.77367	129
2.77733	140
2.78100	150
2.78467	152
2.78833	146
2.79200	145
2.79567	147
2.79933	144
2.80300	137
2.80667	132
2.81033	131
2.81400	127
2.81767	126
2.82133	130
2.82500	136
2.82867	142
2.83233	145
2.83600	141
2.83967	134
2.84333	128
2.84700	126
2.85067	125
2.85433	123
2.85800	128
2.86167	138
2.86533	149
2.86900	153
2.87267	143
2.87633	125
2.88000	110
2.88367	101
2.88733	99
2.89100	99
2.89467	100
2.89833	104
2.90200	110
2.90567	117
2.90933	122
2.91300	127
2.91667	131
2.92033	130
2.92400	127
2.92767	123
2.93133	117
2.93500	116
2.93867	123
2.94233	129
2.94600	132
2.94967	131
2.95333	130
2.95700	132
2.96067	135
2.96433	129
2.96800	121
2.97167	115
2.97533	122
2.97900	131
2.98267	138
2.98633	141
2.99000	142
2.99367	145
2.99733	148
3.00100	149
3.00467	151
3.00833	155
3.01200	150
3.01567	142
3.01933	134
3.02300	130
3.02667	131
3.03033	137
3.03400	139
3.03767	137
3.04133	137
3.04500	135
3.04867	132
3.05233	129
3.05600	132
3.05967	139
3.06333	144
3.06700	143
3.07067	135
3.07433	128
3.07800	122
3.08167	120
3.08533	124
3.08900	128
3.09267	123
3.09633	117
3.10000	114
3.10367	121
3.10733	130
3.11100	132
3.11467	128
3.11833	125
3.12200	124
3.12567	130
3.12933	135
3.13300	134
3.13667	129
3.14033	128
3.14400	127
3.14767	126
3.15133	125
3.15500	125
3.15867	125
3.16233	121
3.16600	112
3.16967	96
3.17333	82
3.17700	77
3.18067	77
3.18433	82
3.18800	88
3.19167	95
3.19533	101
3.19900	105
3.20267	106
3.20633	108
3.21000	108
3.21367	105
3.21733	102
3.22100	104
3.22467	103
3.22833	103
3.23200	107
3.23567	110
3.23933	113
3.24300	115
3.24667	109
3.25033	101
3.25400	95
3.25767	94
3.26133	99
3.26500	104
3.26867	107
3.27233	105
3.27600	102
3.27967	102
3.28333	107
3.28700	111
3.29067	113
3.29433	115
3.29800	116
3.30167	115
3.30533	114
3.30900	116
3.31267	122
3.31633	129
3.32000	130
3.32367	125
3.32733	121
3.33100	116
3.33467	110
3.33833	108
3.34200	108
3.34567	106
3.34933	104
3.35300	103
3.35667	104
3.36033	107
3.36400	108
3.36767	105
3.37133	102
3.37500	100
3.37867	102
3.38233	105
3.38600	107
3.38967	110
3.39333	113
3.39700	110
3.40067	106
3.40433	101
3.40800	98
3.41167	96
3.41533	97
3.41900	96
3.42267	97
3.42633	106
3.43000	111
3.43367	107
3.43733	102
3.44100	101
3.44467	105
3.44833	107
3.45200	110
3.45567	115
3.45933	120
3.46300	125
3.46667	126
3.47033	118
3.47400	107
3.47767	96
3.48133	80
3.48500	70
3.48867	68
3.49233	72
3.49600	78
3.49967	88
3.50333	93
3.50700	98
3.51067	102
3.51433	102
3.51800	97
3.52167	88
3.52533	86
3.52900	88
3.53267	91
3.53633	94
3.54000	95
3.54367	94
3.54733	89
3.55100	81
3.55467	68
3.55833	60
3.56200	65
3.56567	74
3.56933	83
3.57300	90
3.57667	89
3.58033	82
3.58400	78
3.58767	76
3.59133	73
3.59500	68
3.59867	69
3.60233	65
3.60600	60
3.60967	57
3.61333	63
3.61700	70
3.62067	78
3.62433	83
3.62800	89
3.63167	97
3.63533	99
3.63900	96
3.64267	93
3.64633	91
3.65000	88
3.65367	81
3.65733	78
3.66100	77
3.66467	77
3.66833	72
3.67200	64
3.67567	57
3.67933	56
3.68300	57
3.68667	54
3.69033	51
3.69400	48
3.69767	39
3.70133	34
3.70500	31
3.70867	30
3.71233	35
3.71600	47
3.71967	60
3.72333	66
3.72700	70
3.73067	72
3.73433	73
3.73800	73
3.74167	71
3.74533	67
3.74900	70
3.75267	72
3.75633	73
3.76000	73
3.76367	69
3.76733	65
3.77100	57
3.77467	48
3.77833	39
3.78200	34
3.78567	29
3.78933	26
3.79300	28
3.79667	32
3.80033	38
3.80400	41
3.80767	40
3.81133	36
3.81500	34
3.81867	39
3.82233	41
3.82600	38
3.82967	37
3.83333	48
3.83700	61
3.84067	71
3.84433	73
3.84800	73
3.85167	72
3.85533	68
3.85900	57
3.86267	43
3.86633	30
3.87000	24
3.87367	24
3.87733	27
3.88100	33
3.88467	39
3.88833	40
3.89200	39
3.89567	38
3.89933	32
3.90300	26
3.90667	24
3.91033	23
3.91400	23
3.91767	20
3.92133	19
3.92500	17
3.92867	16
3.93233	17
3.93600	17
3.93967	17
3.94333	19
3.94700	22
3.95067	29
3.95433	39
3.95800	49
3.96167	55
3.96533	57
3.96900	58
3.97267	53
3.97633	40
3.98000	26
3.98367	19
3.98733	11
3.99100	1
3.99467	-8
3.99833	-11

[Chromatogram (Ch2)]
Interval(msec)	220
# of Points	1091
Start Time(min)	0.002
End Time(min)	3.998
R.Time (min)	Intensity
0.00167	1
0.00533	1
0.00900	1
0.01267	1
0.01633	1
0.02000	1
0.02367	1
0.02733	0
0.03100	0
0.03467	0
0.03833	0
0.04200	1
0.04567	1
0.04933	1
0.05300	1
0.05667	1
0.06033	1
0.06400	1
0.06767	1
0.07133	1
0.07500	1
0.07867	2
0.08233	2
0.08600	3
0.08967	3
0.09333	3
0.09700	3
0.10067	3
0.10433	3
0.10800	3
0.11167	3
0.11533	3
0.11900	3
0.12267	3
0.12633	3
0.13000	3
0.13367	3
0.13733	3
0.14100	3
0.14467	2
0.14833	2
0.15200	2
0.15567	2
0.15933	2
0.16300	2
0.16667	1
0.17033	1
0.17400	1
0.17767	1
0.18133	1
0.18500	0
0.18867	-0
0.19233	-0
0.19600	-1
0.19967	-1
0.20333	-1
0.20700	-1
0.21067	-0
0.21433	-0
0.21800	-0
0.22167	-0
0.22533	-0
0.22900	-1
0.23267	-1
0.23633	-1
0.24000	-1
0.24367	-1
0.24733	-1
0.25100	-0
0.25467	-0
0.25833	-1
0.26200	-1
0.26567	-1
0.26933	-2
0.27300	-2
0.27667	-3
0.28033	-3
0.28400	-3
0.28767	-4
0.29133	-4
0.29500	-3
0.29867	-3
0.30233	-3
0.30600	-3
0.30967	-3
0.31333	-2
0.31700	-1
0.32067	-1
0.32433	-1
0.32800	-1
0.33167	-1
0.33533	-0
0.33900	-0
0.34267	-0
0.34633	-0
0.35000	-1
0.35367	-1
0.35733	-1
0.36100	-2
0.36467	-2
0.36833	-2
0.37200	-2
0.37567	-2
0.37933	-2
0.38300	-2
0.38667	-3
0.39033	-3
0.39400	-3
0.39767	-3
0.40133	-4
0.40500	-4
0.40867	-4
0.41233	-4
0.41600	-3
0.41967	-3
0.42333	-3
0.42700	-3
0.43067	-3
0.43433	-3
0.43800	-3
0.44167	-3
0.44533	-3
0.44900	-3
0.45267	-3
0.45633	-3
0.46000	-3
0.46367	-3
0.46733	-2
0.47100	-2
0.47467	-2
0.47833	-1
0.48200	-1
0.48567	-1
0.48933	-2
0.49300	-2
0.49667	-2
0.50033	-2
0.50400	-2
0.50767	-3
0.51133	-3
0.51500	-3
0.51867	-3
0.52233	-3
0.52600	-3
0.52967	-2
0.53333	-2
0.53700	-1
0.54067	-1
0.54433	-0
0.54800	-0
0.55167	0
0.55533	1
0.55900	1
0.56267	1
0.56633	2
0.57000	2
0.57367	2
0.57733	2
0.58100	1
0.58467	1
0.58833	1
0.59200	1
0.59567	1
0.59933	1
0.60300	1
0.60667	1
0.61033	0
0.61400	-0
0.61767	-1
0.62133	-1
0.62500	-1
0.62867	-1
0.63233	-2
0.63600	-2
0.63967	-2
0.64333	-3
0.64700	-3
0.65067	-4
0.65433	-4
0.65800	-4
0.66167	-4
0.66533	-4
0.66900	-4
0.67267	-4
0.67633	-4
0.68000	-4
0.68367	-4
0.68733	-3
0.69100	-3
0.69467	-3
0.69833	-2
0.70200	-1
0.70567	-1
0.70933	-0
0.71300	0
0.71667	0
0.72033	0
0.72400	1
0.72767	1
0.73133	1
0.73500	1
0.73867	1
0.74233	1
0.74600	1
0.74967	1
0.75333	0
0.75700	-0
0.76067	-1
0.76433	-1
0.76800	-2
0.77167	-2
0.77533	-3
0.77900	-3
0.78267	-3
0.78633	-3
0.79000	-4
0.79367	-4
0.79733	-4
0.80100	-4
0.80467	-4
0.80833	-3
0.81200	-3
0.81567	-3
0.81933	-2
0.82300	-2
0.82667	-2
0.83033	-2
0.83400	-2
0.83767	-2
0.84133	-3
0.84500	-3
0.84867	-3
0.85233	-2
0.85600	-2
0.85967	-2
0.86333	-2
0.86700	-2
0.87067	-2
0.87433	-2
0.87800	-2
0.88167	-2
0.88533	-1
0.88900	-1
0.89267	-1
0.89633	-0
0.90000	-0
0.90367	0
0.90733	0
0.91100	0
0.91467	0
0.91833	1
0.92200	1
0.92567	0
0.92933	0
0.93300	0
0.93667	-0
0.94033	-0
0.94400	-0
0.94767	-0
0.95133	-0
0.95500	-0
0.95867	-0
0.96233	-0
0.96600	-0
0.96967	-1
0.97333	-1
0.97700	-1
0.98067	-1
0.98433	-2
0.98800	-2
0.99167	-2
0.99533	-2
0.99900	-2
1.00267	-2
1.00633	-2
1.01000	-2
1.01367	-2
1.01733	-2
1.02100	-2
1.02467	-2
1.02833	-2
1.03200	-2
1.03567	-2
1.03933	-1
1.04300	-1
1.04667	-1
1.05033	-2
1.05400	-2
1.05767	-2
1.06133	-2
1.06500	-1
1.06867	-1
1.07233	-1
1.07600	-1
1.07967	-1
1.08333	-1
1.08700	-1
1.09067	-0
1.09433	-0
1.09800	-0
1.10167	-0
1.10533	-0
1.10900	-0
1.11267	-1
1.11633	-1
1.12000	-1
1.12367	-1
1.12733	-2
1.13100	-2
1.13467	-2
1.13833	-1
1.14200	-1
1.14567	-1
1.14933	-1
1.15300	-1
1.15667	-1
1.16033	-1
1.16400	-1
1.16767	-1
1.17133	-1
1.17500	-1
1.17867	-1
1.18233	-2
1.18600	-2
1.18967	-2
1.19333	-2
1.19700	-2
1.20067	-2
1.20433	-2
1.20800	-2
1.21167	-2
1.21533	-1
1.21900	-1
1.22267	-1
1.22633	-1
1.23000	-1
1.23367	-1
1.23733	-0
1.24100	-0
1.24467	0
1.24833	0
1.25200	0
1.25567	-0
1.25933	-1
1.26300	-1
1.26667	-1
1.27033	-1
1.27400	-1
1.27767	-1
1.28133	-1
1.28500	-2
1.28867	-2
1.29233	-2
1.29600	-2
1.29967	-2
1.30333	-2
1.30700	-3
1.31067	-3
1.31433	-3
1.31800	-4
1.32167	-4
1.32533	-4
1.32900	-4
1.33267	-4
1.33633	-4
1.34000	-3
1.34367	-3
1.34733	-3
1.35100	-3
1.35467	-3
1.35833	-2
1.36200	-2
1.36567	-2
1.36933	-2
1.37300	-1
1.37667	-1
1.38033	-1
1.38400	-1
1.38767	-1
1.39133	-1
1.39500	-1
1.39867	-1
1.40233	-1
1.40600	-1
1.40967	-1
1.41333	-1
1.41700	-1
1.42067	-1
1.42433	-0
1.42800	-0
1.43167	0
1.43533	0
1.43900	0
1.44267	-0
1.44633	-0
1.45000	-1
1.45367	-1
1.45733	-2
1.46100	-2
1.46467	-2
1.46833	-3
1.47200	-3
1.47567	-4
1.47933	-4
1.48300	-4
1.48667	-4
1.49033	-4
1.49400	-4
1.49767	-4
1.50133	-4
1.50500	-4
1.50867	-5
1.51233	-5
1.51600	-5
1.51967	-5
1.52333	-5
1.52700	-4
1.53067	-4
1.53433	-4
1.53800	-4
1.54167	-4
1.54533	-3
1.54900	-3
1.55267	-3
1.55633	-3
1.56000	-3
1.56367	-3
1.56733	-3
1.57100	-2
1.57467	-2
1.57833	-2
1.58200	-2
1.58567	-2
1.58933	-2
1.59300	-2
1.59667	-3
1.60033	-3
1.60400	-4
1.60767	-5
1.61133	-7
1.61500	-8
1.61867	-10
1.62233	-13
1.62600	-15
1.62967	-18
1.63333	-21
1.63700	-24
1.64067	-28
1.64433	-31
1.64800	-35
1.65167	-39
1.65533	-43
1.65900	-47
1.66267	-52
1.66633	-56
1.67000	-62
1.67367	-67
1.67733	-72
1.68100	-77
1.68467	-82
1.68833	-86
1.69200	-90
1.69567	-93
1.69933	-96
1.70300	-98
1.70667	-100
1.71033	-102
1.71400	-103
1.71767	-104
1.72133	-105
1.72500	-106
1.72867	-107
1.73233	-108
1.73600	-109
1.73967	-109
1.74333	-110
1.74700	-110
1.75067	-110
1.75433	-109
1.75800	-109
1.76167	-108
1.76533	-108
1.76900	-109
1.77267	-109
1.77633	-109
1.78000	-110
1.78367	-110
1.78733	-110
1.79100	-110
1.79467	-110
1.79833	-111
1.80200	-112
1.80567	-113
1.80933	-114
1.81300	-115
1.81667	-115
1.82033	-116
1.82400	-116
1.82767	-115
1.83133	-114
1.83500	-112
1.83867	-111
1.84233	-110
1.84600	-110
1.84967	-109
1.85333	-110
1.85700	-110
1.86067	-111
1.86433	-112
1.86800	-113
1.87167	-113
1.87533	-113
1.87900	-113
1.88267	-114
1.88633	-114
1.89000	-114
1.89367	-114
1.89733	-114
1.90100	-114
1.90467	-113
1.90833	-113
1.91200	-113
1.91567	-113
1.91933	-113
1.92300	-113
1.92667	-112
1.93033	-112
1.93400	-112
1.93767	-112
1.94133	-112
1.94500	-112
1.94867	-112
1.95233	-112
1.95600	-112
1.95967	-112
1.96333	-112
1.96700	-111
1.97067	-110
1.97433	-109
1.97800	-108
1.98167	-108
1.98533	-107
1.98900	-107
1.99267	-106
1.99633	-106
2.00000	-106
2.00367	-106
2.00733	-106
2.01100	-106
2.01467	-106
2.01833	-107
2.02200	-107
2.02567	-107
2.02933	-108
2.03300	-107
2.03667	-107
2.04033	-106
2.04400	-105
2.04767	-104
2.05133	-103
2.05500	-102
2.05867	-102
2.06233	-101
2.06600	-101
2.06967	-101
2.07333	-100
2.07700	-100
2.08067	-99
2.08433	-99
2.08800	-98
2.09167	-97
2.09533	-97
2.09900	-98
2.10267	-98
2.10633	-97
2.11000	-97
2.11367	-96
2.11733	-95
2.12100	-95
2.12467	-94
2.12833	-94
2.13200	-94
2.13567	-94
2.13933	-94
2.14300	-93
2.14667	-93
2.15033	-93
2.15400	-93
2.15767	-92
2.16133	-92
2.16500	-92
2.16867	-92
2.17233	-92
2.17600	-92
2.17967	-92
2.18333	-92
2.18700	-91
2.19067	-91
2.19433	-91
2.19800	-91
2.20167	-91
2.20533	-91
2.20900	-91
2.21267	-91
2.21633	-90
2.22000	-90
2.22367	-89
2.22733	-89
2.23100	-88
2.23467	-88
2.23833	-89
2.24200	-89
2.24567	-89
2.24933	-90
2.25300	-89
2.25667	-89
2.26033	-88
2.26400	-87
2.26767	-86
2.27133	-85
2.27500	-84
2.27867	-84
2.28233	-83
2.28600	-83
2.28967	-83
2.29333	-83
2.29700	-83
2.30067	-82
2.30433	-82
2.30800	-81
2.31167	-81
2.31533	-80
2.31900	-80
2.32267	-80
2.32633	-80
2.33000	-80
2.33367	-79
2.33733	-79
2.34100	-78
2.34467	-78
2.34833	-77
2.35200	-77
2.35567	-77
2.35933	-76
2.36300	-75
2.36667	-74
2.37033	-71
2.37400	-69
2.37767	-66
2.38133	-62
2.38500	-58
2.38867	-53
2.39233	-49
2.39600	-44
2.39967	-39
2.40333	-34
2.40700	-30
2.41067	-26
2.41433	-23
2.41800	-20
2.42167	-18
2.42533	-15
2.42900	-13
2.43267	-11
2.43633	-9
2.44000	-8
2.44367	-6
2.44733	-6
2.45100	-5
2.45467	-5
2.45833	-4
2.46200	-4
2.46567	-3
2.46933	-2
2.47300	-1
2.47667	0
2.48033	1
2.48400	2
2.48767	3
2.49133	3
2.49500	4
2.49867	5
2.50233	6
2.50600	7
2.50967	8
2.51333	9
2.51700	10
2.52067	10
2.52433	11
2.52800	11
2.53167	11
2.53533	11
2.53900	11
2.54267	12
2.54633	12
2.55000	13
2.55367	13
2.55733	14
2.56100	15
2.56467	15
2.56833	15
2.57200	15
2.57567	15
2.57933	15
2.58300	15
2.58667	15
2.59033	15
2.59400	15
2.59767	15
2.60133	15
2.60500	15
2.60867	15
2.61233	15
2.61600	15
2.61967	15
2.62333	15
2.62700	15
2.63067	16
2.63433	16
2.63800	16
2.64167	16
2.64533	17
2.64900	17
2.65267	17
2.65633	18
2.66000	18
2.66367	18
2.66733	19
2.67100	20
2.67467	20
2.67833	21
2.68200	22
2.68567	22
2.68933	23
2.69300	23
2.69667	23
2.70033	22
2.70400	22
2.70767	21
2.71133	21
2.71500	22
2.71867	22
2.72233	22
2.72600	23
2.72967	23
2.73333	24
2.73700	24
2.74067	24
2.74433	25
2.74800	25
2.75167	26
2.75533	26
2.75900	27
2.76267	27
2.76633	28
2.77000	28
2.77367	28
2.77733	27
2.78100	27
2.78467	26
2.78833	25
2.79200	25
2.79567	24
2.79933	23
2.80300	23
2.80667	23
2.81033	22
2.81400	22
2.81767	23
2.82133	23
2.82500	23
2.82867	24
2.83233	24
2.83600	25
2.83967	25
2.84333	25
2.84700	23
2.85067	20
2.85433	15
2.85800	6
2.86167	-5
2.86533	-21
2.86900	-40
2.87267	-64
2.87633	-93
2.88000	-126
2.88367	-163
2.88733	-204
2.89100	-248
2.89467	-295
2.89833	-345
2.90200	-397
2.90567	-451
2.90933	-505
2.91300	-560
2.91667	-616
2.92033	-671
2.92400	-725
2.92767	-778
2.93133	-828
2.93500	-880
2.93867	-934
2.94233	-993
2.94600	-1047
2.94967	-1086
2.95333	-1102
2.95700	-1092
2.96067	-1058
2.96433	-1004
2.96800	-936
2.97167	-859
2.97533	-779
2.97900	-698
2.98267	-620
2.98633	-546
2.99000	-478
2.99367	-416
2.99733	-360
3.00100	-310
3.00467	-266
3.00833	-228
3.01200	-194
3.01567	-164
3.01933	-139
3.02300	-117
3.02667	-99
3.03033	-83
3.03400	-69
3.03767	-57
3.04133	-47
3.04500	-38
3.04867	-31
3.05233	-25
3.05600	-19
3.05967	-14
3.06333	-10
3.06700	-7
3.07067	-4
3.07433	-1
3.07800	2
3.08167	4
3.08533	6
3.08900	7
3.09267	9
3.09633	10
3.10000	11
3.10367	12
3.10733	13
3.11100	14
3.11467	14
3.11833	15
3.12200	16
3.12567	16
3.12933	17
3.13300	18
3.13667	18
3.14033	19
3.14400	19
3.14767	20
3.15133	20
3.15500	20
3.15867	20
3.16233	20
3.16600	21
3.16967	21
3.17333	21
3.17700	21
3.18067	21
3.18433	21
3.18800	21
3.19167	21
3.19533	21
3.19900	21
3.20267	21
3.20633	21
3.21000	21
3.21367	22
3.21733	22
3.22100	22
3.22467	22
3.22833	22
3.23200	22
3.23567	22
3.23933	23
3.24300	23
3.24667	23
3.25033	23
3.25400	24
3.25767	24
3.26133	24
3.26500	24
3.26867	24
3.27233	24
3.27600	24
3.27967	24
3.28333	24
3.28700	24
3.29067	25
3.29433	25
3.29800	25
3.30167	25
3.30533	26
3.30900	26
3.31267	26
3.31633	26
3.32000	26
3.32367	26
3.32733	26
3.33100	26
3.33467	26
3.33833	26
3.34200	26
3.34567	26
3.34933	26
3.35300	26
3.35667	26
3.36033	26
3.36400	26
3.36767	26
3.37133	25
3.37500	25
3.37867	25
3.38233	25
3.38600	26
3.38967	26
3.39333	26
3.39700	26
3.40067	26
3.40433	26
3.40800	26
3.41167	26
3.41533	26
3.41900	26
3.42267	27
3.42633	27
3.43000	27
3.43367	27
3.43733	27
3.44100	27
3.44467	27
3.44833	27
3.45200	27
3.45567	27
3.45933	27
3.46300	27
3.46667	27
3.47033	27
3.47400	27
3.47767	28
3.48133	28
3.48500	28
3.48867	29
3.49233	29
3.49600	29
3.49967	29
3.50333	30
3.50700	30
3.51067	30
3.51433	30
3.51800	31
3.52167	31
3.52533	31
3.52900	31
3.53267	31
3.53633	32
3.54000	32
3.54367	32
3.54733	32
3.55100	32
3.55467	32
3.55833	32
3.56200	32
3.56567	32
3.56933	32
3.57300	32
3.57667	32
3.58033	32
3.58400	31
3.58767	31
3.59133	31
3.59500	31
3.59867	30
3.60233	30
3.60600	29
3.60967	29
3.61333	28
3.61700	28
3.62067	28
3.62433	28
3.62800	27
3.63167	27
3.63533	27
3.63900	27
3.64267	27
3.64633	26
3.65000	26
3.65367	26
3.65733	26
3.66100	26
3.66467	26
3.66833	26
3.67200	26
3.67567	26
3.67933	26
3.68300	26
3.68667	27
3.69033	27
3.69400	27
3.69767	27
3.70133	27
3.70500	28
3.70867	28
3.71233	28
3.71600	28
3.71967	28
3.72333	28
3.72700	28
3.73067	28
3.73433	28
3.73800	28
3.74167	28
3.74533	28
3.74900	28
3.75267	28
3.75633	28
3.76000	28
3.76367	28
3.76733	28
3.77100	28
3.77467	28
3.77833	28
3.78200	28
3.78567	28
3.78933	27
3.79300	27
3.79667	27
3.80033	27
3.80400	27
3.80767	26
3.81133	26
3.81500	26
3.81867	26
3.82233	26
3.82600	26
3.82967	26
3.83333	26
3.83700	26
3.84067	26
3.84433	27
3.84800	27
3.85167	27
3.85533	27
3.85900	27
3.86267	27
3.86633	27
3.87000	27
3.87367	28
3.87733	28
3.88100	28
3.88467	28
3.88833	29
3.89200	29
3.89567	29
3.89933	29
3.90300	29
3.90667	29
3.91033	29
3.91400	29
3.91767	29
3.92133	29
3.92500	29
3.92867	29
3.93233	29
3.93600	29
3.93967	29
3.94333	29
3.94700	28
3.95067	28
3.95433	28
3.95800	28
3.96167	27
3.96533	27
3.96900	27
3.97267	27
3.97633	27
3.98000	27
3.98367	27
3.98733	26
3.99100	26
3.99467	26
3.99833	26

[Chromatogram (Ch3)]
Interval(msec)	220
# of Points	1091
Start Time(min)	0.002
End Time(min)	3.998
R.Time (min)	Intensity
0.00167	-0
0.00533	-2
0.00900	-3
0.01267	-2
0.01633	-2
0.02000	-2
0.02367	-4
0.02733	-6
0.03100	-5
0.03467	-4
0.03833	-4
0.04200	-4
0.04567	-4
0.04933	-4
0.05300	-4
0.05667	-4
0.06033	-3
0.06400	-4
0.06767	-5
0.07133	-7
0.07500	-5
0.07867	-4
0.08233	-3
0.08600	-0
0.08967	0
0.09333	-1
0.09700	-3
0.10067	-3
0.10433	-3
0.10800	-2
0.11167	-1
0.11533	-2
0.11900	-4
0.12267	-3
0.12633	1
0.13000	2
0.13367	4
0.13733	4
0.14100	2
0.14467	-3
0.14833	-5
0.15200	-4
0.15567	-4
0.15933	-4
0.16300	-4
0.16667	-6
0.17033	-4
0.17400	-4
0.17767	-2
0.18133	-1
0.18500	-1
0.18867	0
0.19233	1
0.19600	1
0.19967	0
0.20333	0
0.20700	-1
0.21067	-3
0.21433	-5
0.21800	-5
0.22167	-3
0.22533	-3
0.22900	-4
0.23267	-5
0.23633	-5
0.24000	-5
0.24367	-4
0.24733	-3
0.25100	-3
0.25467	-3
0.25833	-4
0.26200	-4
0.26567	-3
0.26933	-2
0.27300	-1
0.27667	-1
0.28033	-2
0.28400	-2
0.28767	-3
0.29133	-2
0.29500	-2
0.29867	-4
0.30233	-6
0.30600	-7
0.30967	-6
0.31333	-4
0.31700	-4
0.32067	-4
0.32433	-3
0.32800	-1
0.33167	-0
0.33533	0
0.33900	-0
0.34267	-1
0.34633	-2
0.35000	-2
0.35367	-4
0.35733	-4
0.36100	-5
0.36467	-5
0.36833	-5
0.37200	-3
0.37567	-1
0.37933	-1
0.38300	-1
0.38667	-2
0.39033	-1
0.39400	-1
0.39767	-3
0.40133	-5
0.40500	-6
0.40867	-5
0.41233	-3
0.41600	-1
0.41967	1
0.42333	3
0.42700	3
0.43067	3
0.43433	4
0.43800	5
0.44167	6
0.44533	4
0.44900	3
0.45267	3
0.45633	3
0.46000	3
0.46367	2
0.46733	1
0.47100	-1
0.47467	-1
0.47833	-0
0.48200	2
0.48567	0
0.48933	0
0.49300	1
0.49667	2
0.50033	2
0.50400	2
0.50767	2
0.51133	3
0.51500	3
0.51867	3
0.52233	2
0.52600	-0
0.52967	-1
0.53333	-2
0.53700	-3
0.54067	-1
0.54433	0
0.54800	-1
0.55167	-2
0.55533	-2
0.55900	-3
0.56267	-2
0.56633	-2
0.57000	-0
0.57367	1
0.57733	1
0.58100	-0
0.58467	-1
0.58833	0
0.59200	2
0.59567	2
0.59933	1
0.60300	-1
0.60667	-1
0.61033	-1
0.61400	-1
0.61767	-1
0.62133	0
0.62500	1
0.62867	3
0.63233	2
0.63600	-1
0.63967	-3
0.64333	-3
0.64700	1
0.65067	3
0.65433	4
0.65800	5
0.66167	4
0.66533	2
0.66900	-0
0.67267	-2
0.67633	-2
0.68000	-2
0.68367	-1
0.68733	-1
0.69100	-1
0.69467	-1
0.69833	-5
0.70200	-8
0.70567	-8
0.70933	-6
0.71300	-4
0.71667	-2
0.72033	0
0.72400	2
0.72767	3
0.73133	4
0.73500	6
0.73867	7
0.74233	7
0.74600	6
0.74967	6
0.75333	6
0.75700	7
0.76067	8
0.76433	9
0.76800	8
0.77167	8
0.77533	7
0.77900	6
0.78267	6
0.78633	4
0.79000	4
0.79367	5
0.79733	5
0.80100	3
0.80467	3
0.80833	4
0.81200	6
0.81567	8
0.81933	9
0.82300	9
0.82667	10
0.83033	9
0.83400	8
0.83767	7
0.84133	6
0.84500	4
0.84867	3
0.85233	4
0.85600	7
0.85967	7
0.86333	7
0.86700	7
0.87067	8
0.87433	7
0.87800	7
0.88167	9
0.88533	9
0.88900	8
0.89267	6
0.89633	4
0.90000	2
0.90367	2
0.90733	1
0.91100	2
0.91467	5
0.91833	8
0.92200	8
0.92567	7
0.92933	6
0.93300	4
0.93667	6
0.94033	6
0.94400	6
0.94767	6
0.95133	7
0.95500	7
0.95867	7
0.96233	8
0.96600	9
0.96967	9
0.97333	9
0.97700	10
0.98067	11
0.98433	9
0.98800	8
0.99167	8
0.99533	9
0.99900	10
1.00267	11
1.00633	10
1.01000	9
1.01367	9
1.01733	9
1.02100	8
1.02467	6
1.02833	6
1.03200	5
1.03567	4
1.03933	2
1.04300	3
1.04667	4
1.05033	4
1.05400	6
1.05767	7
1.06133	7
1.06500	8
1.06867	11
1.07233	14
1.07600	14
1.07967	14
1.08333	14
1.08700	13
1.09067	11
1.09433	9
1.09800	9
1.10167	11
1.10533	13
1.10900	14
1.11267	15
1.11633	15
1.12000	14
1.12367	14
1.12733	14
1.13100	13
1.13467	13
1.13833	11
1.14200	10
1.14567	11
1.14933	11
1.15300	10
1.15667	8
1.16033	9
1.16400	11
1.16767	12
1.17133	12
1.17500	12
1.17867	12
1.18233	10
1.18600	9
1.18967	9
1.19333	8
1.19700	9
1.20067	8
1.20433	8
1.20800	10
1.21167	10
1.21533	9
1.21900	10
1.22267	10
1.22633	8
1.23000	6
1.23367	5
1.23733	5
1.24100	4
1.24467	6
1.24833	9
1.25200	10
1.25567	11
1.25933	12
1.26300	14
1.26667	14
1.27033	13
1.27400	11
1.27767	10
1.28133	10
1.28500	10
1.28867	11
1.29233	10
1.29600	10
1.29967	9
1.30333	8
1.30700	7
1.31067	8
1.31433	10
1.31800	14
1.32167	14
1.32533	11
1.32900	9
1.33267	10
1.33633	8
1.34000	7
1.34367	10
1.34733	12
1.35100	14
1.35467	17
1.35833	18
1.36200	16
1.36567	15
1.36933	12
1.37300	9
1.37667	6
1.38033	5
1.38400	5
1.38767	5
1.39133	8
1.39500	10
1.39867	12
1.40233	13
1.40600	13
1.40967	10
1.41333	6
1.41700	4
1.42067	4
1.42433	4
1.42800	4
1.43167	5
1.43533	3
1.43900	3
1.44267	5
1.44633	7
1.45000	7
1.45367	8
1.45733	11
1.46100	11
1.46467	11
1.46833	11
1.47200	9
1.47567	7
1.47933	6
1.48300	6
1.48667	4
1.49033	3
1.49400	2
1.49767	5
1.50133	7
1.50500	7
1.50867	7
1.51233	8
1.51600	9
1.51967	10
1.52333	9
1.52700	10
1.53067	13
1.53433	15
1.53800	15
1.54167	12
1.54533	12
1.54900	11
1.55267	9
1.55633	9
1.56000	10
1.56367	13
1.56733	16
1.57100	17
1.57467	19
1.57833	19
1.58200	18
1.58567	17
1.58933	14
1.59300	13
1.59667	14
1.60033	15
1.60400	15
1.60767	14
1.61133	12
1.61500	12
1.61867	13
1.62233	13
1.62600	14
1.62967	14
1.63333	15
1.63700	14
1.64067	14
1.64433	13
1.64800	12
1.65167	13
1.65533	15
1.65900	16
1.66267	15
1.66633	16
1.67000	15
1.67367	13
1.67733	13
1.68100	13
1.68467	15
1.68833	16
1.69200	15
1.69567	14
1.69933	14
1.70300	15
1.70667	17
1.71033	18
1.71400	18
1.71767	20
1.72133	22
1.72500	23
1.72867	23
1.73233	24
1.73600	25
1.73967	23
1.74333	25
1.74700	26
1.75067	26
1.75433	25
1.75800	24
1.76167	23
1.76533	22
1.76900	26
1.77267	28
1.77633	28
1.78000	25
1.78367	22
1.78733	22
1.79100	22
1.79467	24
1.79833	24
1.80200	26
1.80567	28
1.80933	30
1.81300	33
1.81667	35
1.82033	36
1.82400	38
1.82767	38
1.83133	36
1.83500	34
1.83867	33
1.84233	31
1.84600	32
1.84967	32
1.85333	33
1.85700	36
1.86067	38
1.86433	40
1.86800	40
1.87167	40
1.87533	40
1.87900	40
1.88267	42
1.88633	42
1.89000	43
1.89367	44
1.89733	44
1.90100	45
1.90467	46
1.90833	48
1.91200	48
1.91567	47
1.91933	46
1.92300	47
1.92667	47
1.93033	46
1.93400	47
1.93767	48
1.94133	50
1.94500	52
1.94867	54
1.95233	56
1.95600	59
1.95967	61
1.96333	61
1.96700	62
1.97067	63
1.97433	65
1.97800	66
1.98167	67
1.98533	67
1.98900	66
1.99267	66
1.99633	66
2.00000	67
2.00367	69
2.00733	67
2.01100	67
2.01467	67
2.01833	68
2.02200	70
2.02567	73
2.02933	75
2.03300	76
2.03667	77
2.04033	76
2.04400	76
2.04767	76
2.05133	77
2.05500	79
2.05867	79
2.06233	80
2.06600	84
2.06967	87
2.07333	89
2.07700	90
2.08067	90
2.08433	92
2.08800	93
2.09167	96
2.09533	97
2.09900	96
2.10267	98
2.10633	97
2.11000	97
2.11367	99
2.11733	102
2.12100	104
2.12467	106
2.12833	106
2.13200	105
2.13567	103
2.13933	104
2.14300	107
2.14667	110
2.15033	113
2.15400	117
2.15767	120
2.16133	123
2.16500	123
2.16867	125
2.17233	126
2.17600	125
2.17967	126
2.18333	127
2.18700	126
2.19067	125
2.19433	123
2.19800	124
2.20167	127
2.20533	131
2.20900	135
2.21267	137
2.21633	136
2.22000	137
2.22367	140
2.22733	142
2.23100	145
2.23467	148
2.23833	149
2.24200	150
2.24567	150
2.24933	151
2.25300	152
2.25667	152
2.26033	152
2.26400	155
2.26767	158
2.27133	159
2.27500	161
2.27867	163
2.28233	166
2.28600	167
2.28967	167
2.29333	168
2.29700	171
2.30067	172
2.30433	173
2.30800	174
2.31167	177
2.31533	182
2.31900	185
2.32267	187
2.32633	187
2.33000	188
2.33367	188
2.33733	189
2.34100	191
2.34467	192
2.34833	193
2.35200	194
2.35567	196
2.35933	199
2.36300	200
2.36667	202
2.37033	204
2.37400	204
2.37767	202
2.38133	202
2.38500	201
2.38867	199
2.39233	198
2.39600	200
2.39967	205
2.40333	210
2.40700	214
2.41067	217
2.41433	220
2.41800	224
2.42167	227
2.42533	228
2.42900	229
2.43267	228
2.43633	229
2.44000	234
2.44367	286
2.44733	415
2.45100	555
2.45467	669
2.45833	735
2.46200	743
2.46567	715
2.46933	678
2.47300	650
2.47667	634
2.48033	620
2.48400	594
2.48767	556
2.49133	513
2.49500	472
2.49867	438
2.50233	414
2.50600	401
2.50967	397
2.51333	400
2.51700	414
2.52067	434
2.52433	452
2.52800	463
2.53167	463
2.53533	450
2.53900	428
2.54267	403
2.54633	377
2.55000	349
2.55367	326
2.55733	305
2.56100	288
2.56467	276
2.56833	267
2.57200	262
2.57567	256
2.57933	253
2.58300	254
2.58667	257
2.59033	258
2.59400	261
2.59767	263
2.60133	265
2.60500	262
2.60867	257
2.61233	249
2.61600	238
2.61967	227
2.62333	213
2.62700	199
2.63067	188
2.63433	178
2.63800	166
2.64167	154
2.64533	142
2.64900	131
2.65267	119
2.65633	109
2.66000	101
2.66367	92
2.66733	82
2.67100	75
2.67467	68
2.67833	61
2.68200	55
2.68567	52
2.68933	49
2.69300	49
2.69667	53
2.70033	57
2.70400	61
2.70767	65
2.71133	69
2.71500	71
2.71867	72
2.72233	75
2.72600	79
2.72967	84
2.73333	87
2.73700	90
2.74067	93
2.74433	99
2.74800	102
2.75167	105
2.75533	106
2.75900	107
2.76267	108
2.76633	111
2.77000	116
2.77367	121
2.77733	126
2.78100	128
2.78467	130
2.78833	135
2.79200	140
2.79567	143
2.79933	143
2.80300	144
2.80667	148
2.81033	153
2.81400	156
2.81767	162
2.82133	175
2.82500	195
2.82867	229
2.83233	291
2.83600	399
2.83967	577
2.84333	842
2.84700	1207
2.85067	1671
2.85433	2210
2.85800	2792
2.86167	3370
2.86533	3899
2.86900	4336
2.87267	4648
2.87633	4823
2.88000	4859
2.88367	4769
2.88733	4576
2.89100	4309
2.89467	3996
2.89833	3657
2.90200	3314
2.90567	2979
2.90933	2660
2.91300	2366
2.91667	2098
2.92033	1856
2.92400	1641
2.92767	1449
2.93133	1277
2.93500	1127
2.93867	995
2.94233	881
2.94600	781
2.94967	692
2.95333	615
2.95700	550
2.96067	495
2.96433	448
2.96800	406
2.97167	368
2.97533	335
2.97900	306
2.98267	283
2.98633	264
2.99000	247
2.99367	230
2.99733	216
3.00100	204
3.00467	194
3.00833	184
3.01200	176
3.01567	169
3.01933	163
3.02300	158
3.02667	156
3.03033	155
3.03400	152
3.03767	147
3.04133	141
3.04500	138
3.04867	135
3.05233	134
3.05600	134
3.05967	135
3.06333	133
3.06700	131
3.07067	129
3.07433	127
3.07800	127
3.08167	128
3.08533	127
3.08900	129
3.09267	131
3.09633	131
3.10000	130
3.10367	128
3.10733	128
3.11100	130
3.11467	131
3.11833	130
3.12200	129
3.12567	129
3.12933	129
3.13300	129
3.13667	127
3.14033	126
3.14400	126
3.14767	126
3.15133	128
3.15500	131
3.15867	133
3.16233	133
3.16600	134
3.16967	134
3.17333	133
3.17700	135
3.18067	136
3.18433	135
3.18800	137
3.19167	140
3.19533	140
3.19900	141
3.20267	143
3.20633	144
3.21000	147
3.21367	151
3.21733	155
3.22100	158
3.22467	157
3.22833	156
3.23200	157
3.23567	159
3.23933	161
3.24300	163
3.24667	164
3.25033	163
3.25400	164
3.25767	167
3.26133	170
3.26500	173
3.26867	174
3.27233	174
3.27600	175
3.27967	177
3.28333	176
3.28700	175
3.29067	177
3.29433	180
3.29800	182
3.30167	184
3.30533	188
3.30900	192
3.31267	193
3.31633	192
3.32000	193
3.32367	194
3.32733	197
3.33100	200
3.33467	199
3.33833	197
3.34200	197
3.34567	198
3.34933	199
3.35300	202
3.35667	205
3.36033	207
3.36400	207
3.36767	209
3.37133	210
3.37500	211
3.37867	214
3.38233	216
3.38600	217
3.38967	220
3.39333	222
3.39700	223
3.40067	225
3.40433	226
3.40800	226
3.41167	225
3.41533	223
3.41900	223
3.42267	224
3.42633	226
3.43000	227
3.43367	227
3.43733	227
3.44100	226
3.44467	225
3.44833	227
3.45200	230
3.45567	230
3.45933	229
3.46300	228
3.46667	228
3.47033	227
3.47400	228
3.47767	229
3.48133	229
3.48500	230
3.48867	230
3.49233	230
3.49600	232
3.49967	232
3.50333	232
3.50700	231
3.51067	230
3.51433	229
3.51800	228
3.52167	229
3.52533	228
3.52900	228
3.53267	226
3.53633	226
3.54000	226
3.54367	226
3.54733	227
3.55100	229
3.55467	230
3.55833	227
3.56200	225
3.56567	223
3.56933	224
3.57300	225
3.57667	224
3.58033	222
3.58400	220
3.58767	221
3.59133	222
3.59500	223
3.59867	225
3.60233	225
3.60600	224
3.60967	223
3.61333	224
3.61700	226
3.62067	226
3.62433	226
3.62800	227
3.63167	229
3.63533	231
3.63900	230
3.64267	228
3.64633	228
3.65000	229
3.65367	227
3.65733	226
3.66100	224
3.66467	221
3.66833	214
3.67200	203
3.67567	190
3.67933	182
3.68300	179
3.68667	187
3.69033	203
3.69400	222
3.69767	242
3.70133	264
3.70500	287
3.70867	311
3.71233	332
3.71600	352
3.71967	373
3.72333	392
3.72700	410
3.73067	423
3.73433	436
3.73800	447
3.74167	456
3.74533	463
3.74900	470
3.75267	476
3.75633	484
3.76000	491
3.76367	499
3.76733	505
3.77100	510
3.77467	512
3.77833	514
3.78200	517
3.78567	519
3.78933	521
3.79300	522
3.79667	525
3.80033	528
3.80400	534
3.80767	537
3.81133	539
3.81500	541
3.81867	542
3.82233	544
3.82600	546
3.82967	546
3.83333	548
3.83700	550
3.84067	549
3.84433	546
3.84800	545
3.85167	543
3.85533	542
3.85900	543
3.86267	544
3.86633	544
3.87000	547
3.87367	548
3.87733	548
3.88100	547
3.88467	547
3.88833	546
3.89200	544
3.89567	545
3.89933	547
3.90300	545
3.90667	543
3.91033	541
3.91400	540
3.91767	538
3.92133	537
3.92500	538
3.92867	537
3.93233	539
3.93600	541
3.93967	542
3.94333	542
3.94700	540
3.95067	537
3.95433	536
3.95800	535
3.96167	536
3.96533	537
3.96900	538
3.97267	537
3.97633	536
3.98000	534
3.98367	534
3.98733	533
3.99100	533
3.99467	533
3.99833	531

[Status Trace (Column Oven Temperature)]
Interval(msec)	1000
# of Points	240
Start Time(min)	0.006
End Time(min)	3.989
Intensity Units	
Intensity Multiplier	1
R.Time (min)	Intensity
0.00607	35.02
0.02273	35.02
0.03940	35.02
0.05607	35.02
0.07273	35.00
0.08940	34.99
0.10607	34.98
0.12273	34.98
0.13940	34.96
0.15607	34.97
0.17273	34.97
0.18940	34.97
0.20607	34.97
0.22273	34.97
0.23940	34.97
0.25607	34.97
0.27273	34.98
0.28940	34.99
0.30607	34.99
0.32273	34.99
0.33940	34.99
0.35607	34.98
0.37273	34.99
0.38940	35.01
0.40607	35.01
0.42273	35.02
0.43940	35.02
0.45607	35.02
0.47273	35.02
0.48940	35.02
0.50607	35.04
0.52273	35.04
0.53940	35.03
0.55607	35.02
0.57273	35.01
0.58940	34.99
0.60607	34.97
0.62273	34.98
0.63940	35.00
0.65607	35.01
0.67273	35.01
0.68940	35.02
0.70607	35.01
0.72273	35.00
0.73940	34.99
0.75607	35.00
0.77273	35.01
0.78940	35.01
0.80607	35.02
0.82273	35.03
0.83940	35.03
0.85607	35.02
0.87273	35.01
0.88940	35.01
0.90607	35.00
0.92273	35.00
0.93940	35.00
0.95607	35.00
0.97273	35.00
0.98940	35.00
1.00607	35.00
1.02273	35.00
1.03940	34.99
1.05607	34.99
1.07273	34.99
1.08940	34.99
1.10607	34.99
1.12273	35.00
1.13940	34.99
1.15607	34.99
1.17273	34.99
1.18940	34.98
1.20607	34.99
1.22273	34.98
1.23940	34.97
1.25607	34.96
1.27273	34.97
1.28940	34.98
1.30607	34.99
1.32273	34.99
1.33940	35.00
1.35607	34.99
1.37273	34.98
1.38940	34.97
1.40607	34.98
1.42273	34.97
1.43940	34.97
1.45607	34.98
1.47273	34.99
1.48940	35.00
1.50607	35.01
1.52273	35.03
1.53940	35.02
1.55607	35.02
1.57273	35.00
1.58940	35.00
1.60607	35.05
1.62273	35.15
1.63940	35.33
1.65607	35.58
1.67273	35.92
1.68940	36.29
1.70607	36.64
1.72273	36.98
1.73940	37.31
1.75607	37.63
1.77273	37.97
1.78940	38.28
1.80607	38.64
1.82273	38.98
1.83940	39.27
1.85607	39.61
1.87273	39.93
1.88940	40.26
1.90607	40.59
1.92273	40.93
1.93940	41.25
1.95607	41.60
1.97273	41.91
1.98940	42.25
2.00607	42.57
2.02273	42.91
2.03940	43.22
2.05607	43.54
2.07273	43.86
2.08940	44.21
2.10607	44.53
2.12273	44.83
2.13940	45.17
2.15607	45.48
2.17273	45.82
2.18940	46.13
2.20607	46.48
2.22273	46.78
2.23940	47.14
2.25607	47.48
2.27273	47.80
2.28940	48.14
2.30607	48.45
2.32273	48.78
2.33940	49.10
2.35607	49.42
2.37273	49.61
2.38940	49.69
2.40607	49.69
2.42273	49.70
2.43940	49.70
2.45607	49.69
2.47273	49.69
2.48940	49.71
2.50607	49.71
2.52273	49.72
2.53940	49.75
2.55607	49.76
2.57273	49.80
2.58940	49.80
2.60607	49.83
2.62273	49.84
2.63940	49.85
2.65607	49.85
2.67273	49.85
2.68940	49.84
2.70607	49.87
2.72273	49.87
2.73940	49.86
2.75607	49.85
2.77273	49.85
2.78940	49.89
2.80607	49.90
2.82273	49.91
2.83940	49.91
2.85607	49.91
2.87273	49.90
2.88940	49.90
2.90607	49.91
2.92273	49.91
2.93940	49.91
2.95607	49.93
2.97273	49.93
2.98940	49.95
3.00607	49.97
3.02273	49.99
3.03940	50.01
3.05607	50.03
3.07273	50.04
3.08940	50.05
3.10607	50.05
3.12273	50.06
3.13940	50.05
3.15607	50.05
3.17273	50.06
3.18940	50.07
3.20607	50.08
3.22273	50.08
3.23940	50.09
3.25607	50.09
3.27273	50.09
3.28940	50.09
3.30607	50.09
3.32273	50.09
3.33940	50.09
3.35607	50.09
3.37273	50.09
3.38940	50.09
3.40607	50.10
3.42273	50.11
3.43940	50.12
3.45607	50.12
3.47273	50.11
3.48940	50.09
3.50607	50.07
3.52273	50.05
3.53940	50.03
3.55607	50.01
3.57273	49.99
3.58940	49.99
3.60607	50.00
3.62273	50.01
3.63940	50.03
3.65607	50.04
3.67273	50.04
3.68940	50.05
3.70607	50.04
3.72273	50.04
3.73940	50.04
3.75607	50.04
3.77273	50.03
3.78940	50.04
3.80607	50.06
3.82273	50.05
3.83940	50.05
3.85607	50.04
3.87273	50.04
3.88940	50.03
3.90607	50.02
3.92273	50.01
3.93940	50.01
3.95607	50.03
3.97273	50.03
3.98940	50.04

[Status Trace (Injection Unit Temperature)]
Interval(msec)	1000
# of Points	240
Start Time(min)	0.006
End Time(min)	3.989
Intensity Units	
Intensity Multiplier	1
R.Time (min)	Intensity
0.00607	99.98
0.02273	99.98
0.03940	99.98
0.05607	99.99
0.07273	99.98
0.08940	99.99
0.10607	99.98
0.12273	99.98
0.13940	99.98
0.15607	99.98
0.17273	99.98
0.18940	99.98
0.20607	99.98
0.22273	99.99
0.23940	99.98
0.25607	99.98
0.27273	99.98
0.28940	99.98
0.30607	99.98
0.32273	99.98
0.33940	99.97
0.35607	99.98
0.37273	99.98
0.38940	99.98
0.40607	99.98
0.42273	99.98
0.43940	99.98
0.45607	99.97
0.47273	99.98
0.48940	99.98
0.50607	99.97
0.52273	99.98
0.53940	99.98
0.55607	99.98
0.57273	99.98
0.58940	99.98
0.60607	99.98
0.62273	99.98
0.63940	99.97
0.65607	99.98
0.67273	99.98
0.68940	99.97
0.70607	99.97
0.72273	99.98
0.73940	99.97
0.75607	99.98
0.77273	99.98
0.78940	99.97
0.80607	99.97
0.82273	99.98
0.83940	99.98
0.85607	99.98
0.87273	99.97
0.88940	99.98
0.90607	99.98
0.92273	99.98
0.93940	99.98
0.95607	99.98
0.97273	99.98
0.98940	99.98
1.00607	99.98
1.02273	99.98
1.03940	99.98
1.05607	99.98
1.07273	99.98
1.08940	99.98
1.10607	99.99
1.12273	99.98
1.13940	99.98
1.15607	99.99
1.17273	99.98
1.18940	99.98
1.20607	99.98
1.22273	99.99
1.23940	99.99
1.25607	99.98
1.27273	99.99
1.28940	99.99
1.30607	99.98
1.32273	99.99
1.33940	99.98
1.35607	99.98
1.37273	99.99
1.38940	99.99
1.40607	99.98
1.42273	99.99
1.43940	99.98
1.45607	99.99
1.47273	99.98
1.48940	99.98
1.50607	99.99
1.52273	99.99
1.53940	99.99
1.55607	99.98
1.57273	99.99
1.58940	99.99
1.60607	99.98
1.62273	99.98
1.63940	99.99
1.65607	99.98
1.67273	99.98
1.68940	99.98
1.70607	99.98
1.72273	99.99
1.73940	99.98
1.75607	99.98
1.77273	99.98
1.78940	99.98
1.80607	99.98
1.82273	99.97
1.83940	99.97
1.85607	99.97
1.87273	99.97
1.88940	99.97
1.90607	99.97
1.92273	99.97
1.93940	99.97
1.95607	99.97
1.97273	99.97
1.98940	99.97
2.00607	99.97
2.02273	99.96
2.03940	99.97
2.05607	99.96
2.07273	99.96
2.08940	99.96
2.10607	99.96
2.12273	99.95
2.13940	99.96
2.15607	99.96
2.17273	99.96
2.18940	99.96
2.20607	99.96
2.22273	99.96
2.23940	99.95
2.25607	99.96
2.27273	99.96
2.28940	99.96
2.30607	99.95
2.32273	99.95
2.33940	99.96
2.35607	99.96
2.37273	99.96
2.38940	99.96
2.40607	99.96
2.42273	99.96
2.43940	99.95
2.45607	99.96
2.47273	99.96
2.48940	99.96
2.50607	99.96
2.52273	99.97
2.53940	99.96
2.55607	99.97
2.57273	99.97
2.58940	99.97
2.60607	99.97
2.62273	99.97
2.63940	99.97
2.65607	99.97
2.67273	99.97
2.68940	99.98
2.70607	99.98
2.72273	99.98
2.73940	99.99
2.75607	99.99
2.77273	99.99
2.78940	99.99
2.80607	99.99
2.82273	99.99
2.83940	100.00
2.85607	100.00
2.87273	100.00
2.88940	100.01
2.90607	100.00
2.92273	100.01
2.93940	100.00
2.95607	100.01
2.97273	100.01
2.98940	100.01
3.00607	100.01
3.02273	100.01
3.03940	100.02
3.05607	100.02
3.07273	100.02
3.08940	100.01
3.10607	100.02
3.12273	100.02
3.13940	100.02
3.15607	100.03
3.17273	100.03
3.18940	100.03
3.20607	100.03
3.22273	100.03
3.23940	100.03
3.25607	100.03
3.27273	100.03
3.28940	100.03
3.30607	100.03
3.32273	100.03
3.33940	100.03
3.35607	100.03
3.37273	100.03
3.38940	100.04
3.40607	100.03
3.42273	100.04
3.43940	100.03
3.45607	100.03
3.47273	100.04
3.48940	100.04
3.50607	100.04
3.52273	100.04
3.53940	100.04
3.55607	100.04
3.57273	100.04
3.58940	100.04
3.60607	100.04
3.62273	100.04
3.63940	100.04
3.65607	100.04
3.67273	100.04
3.68940	100.04
3.70607	100.04
3.72273	100.05
3.73940	100.04
3.75607	100.04
3.77273	100.04
3.78940	100.04
3.80607	100.04
3.82273	100.04
3.83940	100.05
3.85607	100.04
3.87273	100.04
3.88940	100.04
3.90607	100.04
3.92273	100.05
3.93940	100.04
3.95607	100.04
3.97273	100.04
3.98940	100.03

[Status Trace (Carrier Gas Pressure)]
Interval(msec)	1000
# of Points	240
Start Time(min)	0.006
End Time(min)	3.989
Intensity Units	
Intensity Multiplier	1
R.Time (min)	Intensity
0.00607	58.00
0.02273	55.71
0.03940	56.84
0.05607	59.06
0.07273	59.66
0.08940	58.13
0.10607	57.98
0.12273	58.01
0.13940	58.01
0.15607	58.00
0.17273	58.00
0.18940	58.00
0.20607	58.00
0.22273	58.00
0.23940	58.00
0.25607	58.00
0.27273	58.00
0.28940	58.00
0.30607	58.00
0.32273	58.00
0.33940	58.00
0.35607	58.00
0.37273	58.00
0.38940	58.00
0.40607	58.00
0.42273	58.00
0.43940	58.00
0.45607	58.00
0.47273	58.00
0.48940	58.00
0.50607	58.00
0.52273	58.00
0.53940	58.00
0.55607	58.00
0.57273	58.00
0.58940	58.00
0.60607	58.00
0.62273	58.00
0.63940	58.00
0.65607	58.00
0.67273	58.00
0.68940	58.00
0.70607	58.00
0.72273	58.00
0.73940	58.00
0.75607	58.00
0.77273	58.00
0.78940	58.00
0.80607	58.00
0.82273	58.00
0.83940	58.00
0.85607	58.00
0.87273	58.00
0.88940	58.00
0.90607	58.00
0.92273	58.00
0.93940	58.00
0.95607	58.00
0.97273	58.00
0.98940	58.00
1.00607	58.00
1.02273	58.00
1.03940	58.00
1.05607	58.00
1.07273	58.00
1.08940	58.00
1.10607	58.00
1.12273	58.00
1.13940	58.00
1.15607	58.00
1.17273	58.00
1.18940	58.00
1.20607	58.00
1.22273	58.00
1.23940	58.00
1.25607	58.00
1.27273	58.00
1.28940	58.00
1.30607	58.00
1.32273	58.00
1.33940	58.00
1.35607	58.00
1.37273	58.00
1.38940	58.00
1.40607	58.00
1.42273	58.00
1.43940	58.00
1.45607	58.00
1.47273	58.00
1.48940	58.00
1.50607	58.00
1.52273	58.00
1.53940	58.00
1.55607	58.00
1.57273	58.00
1.58940	58.00
1.60607	58.00
1.62273	58.00
1.63940	58.00
1.65607	58.01
1.67273	58.01
1.68940	58.00
1.70607	58.00
1.72273	58.00
1.73940	58.00
1.75607	58.00
1.77273	58.00
1.78940	58.00
1.80607	58.00
1.82273	58.00
1.83940	58.00
1.85607	58.00
1.87273	58.00
1.88940	58.00
1.90607	58.00
1.92273	58.00
1.93940	58.00
1.95607	58.00
1.97273	58.00
1.98940	58.00
2.00607	58.00
2.02273	58.00
2.03940	58.00
2.05607	58.00
2.07273	58.00
2.08940	58.00
2.10607	58.00
2.12273	58.00
2.13940	58.00
2.15607	58.00
2.17273	58.00
2.18940	58.00
2.20607	58.00
2.22273	58.00
2.23940	58.00
2.25607	58.00
2.27273	58.00
2.28940	58.00
2.30607	58.00
2.32273	58.00
2.33940	58.00
2.35607	58.00
2.37273	58.00
2.38940	57.99
2.40607	57.99
2.42273	58.00
2.43940	58.00
2.45607	58.00
2.47273	58.00
2.48940	58.00
2.50607	57.99
2.52273	57.99
2.53940	58.00
2.55607	58.00
2.57273	58.00
2.58940	58.00
2.60607	58.00
2.62273	58.00
2.63940	58.00
2.65607	58.00
2.67273	58.00
2.68940	58.00
2.70607	58.00
2.72273	58.00
2.73940	58.00
2.75607	58.00
2.77273	58.00
2.78940	58.00
2.80607	58.00
2.82273	58.00
2.83940	58.00
2.85607	58.00
2.87273	58.00
2.88940	58.00
2.90607	58.00
2.92273	58.00
2.93940	58.00
2.95607	58.00
2.97273	58.00
2.98940	58.00
3.00607	58.00
3.02273	58.00
3.03940	58.00
3.05607	58.00
3.07273	58.00
3.08940	58.00
3.10607	58.00
3.12273	58.00
3.13940	58.00
3.15607	58.00
3.17273	58.00
3.18940	58.00
3.20607	58.00
3.22273	58.00
3.23940	58.00
3.25607	58.00
3.27273	58.00
3.28940	58.00
3.30607	58.00
3.32273	58.00
3.33940	58.00
3.35607	58.00
3.37273	58.00
3.38940	58.00
3.40607	58.00
3.42273	58.00
3.43940	58.00
3.45607	58.00
3.47273	58.00
3.48940	58.00
3.50607	58.00
3.52273	58.00
3.53940	58.00
3.55607	58.00
3.57273	58.00
3.58940	58.00
3.60607	58.00
3.62273	58.00
3.63940	58.00
3.65607	58.00
3.67273	58.00
3.68940	58.00
3.70607	58.00
3.72273	58.00
3.73940	58.00
3.75607	58.00
3.77273	58.00
3.78940	58.00
3.80607	58.00
3.82273	58.00
3.83940	58.00
3.85607	58.00
3.87273	58.00
3.88940	58.00
3.90607	58.00
3.92273	58.00
3.93940	58.00
3.95607	58.00
3.97273	58.00
3.98940	58.00

[Status Trace (Carrier Gas Flow)]
Interval(msec)	1000
# of Points	240
Start Time(min)	0.006
End Time(min)	3.989
Intensity Units	
Intensity Multiplier	1
R.Time (min)	Intensity
0.00607	34.52
0.02273	34.54
0.03940	34.55
0.05607	34.56
0.07273	34.50
0.08940	34.51
0.10607	34.52
0.12273	34.52
0.13940	34.52
0.15607	34.52
0.17273	34.52
0.18940	34.52
0.20607	34.52
0.22273	34.52
0.23940	34.52
0.25607	34.51
0.27273	34.52
0.28940	34.52
0.30607	34.52
0.32273	34.51
0.33940	34.51
0.35607	34.52
0.37273	34.52
0.38940	34.52
0.40607	34.52
0.42273	34.52
0.43940	34.52
0.45607	34.52
0.47273	34.52
0.48940	34.52
0.50607	34.51
0.52273	34.52
0.53940	34.52
0.55607	34.52
0.57273	34.53
0.58940	34.52
0.60607	34.52
0.62273	34.52
0.63940	34.52
0.65607	34.52
0.67273	34.52
0.68940	34.51
0.70607	34.52
0.72273	34.52
0.73940	34.52
0.75607	34.52
0.77273	34.52
0.78940	34.52
0.80607	34.51
0.82273	34.52
0.83940	34.52
0.85607	34.52
0.87273	34.52
0.88940	34.52
0.90607	34.52
0.92273	34.51
0.93940	34.52
0.95607	34.52
0.97273	34.52
0.98940	34.52
1.00607	34.53
1.02273	34.52
1.03940	34.52
1.05607	34.52
1.07273	34.52
1.08940	34.52
1.10607	34.52
1.12273	34.52
1.13940	34.52
1.15607	34.51
1.17273	34.52
1.18940	34.52
1.20607	34.52
1.22273	34.52
1.23940	34.52
1.25607	34.52
1.27273	34.52
1.28940	34.52
1.30607	34.52
1.32273	34.52
1.33940	34.52
1.35607	34.52
1.37273	34.51
1.38940	34.52
1.40607	34.52
1.42273	34.52
1.43940	34.52
1.45607	34.52
1.47273	34.52
1.48940	34.52
1.50607	34.52
1.52273	34.51
1.53940	34.52
1.55607	34.52
1.57273	34.52
1.58940	34.52
1.60607	34.51
1.62273	34.52
1.63940	34.51
1.65607	34.52
1.67273	34.52
1.68940	34.53
1.70607	34.51
1.72273	34.52
1.73940	34.52
1.75607	34.52
1.77273	34.52
1.78940	34.52
1.80607	34.51
1.82273	34.52
1.83940	34.52
1.85607	34.52
1.87273	34.52
1.88940	34.52
1.90607	34.51
1.92273	34.51
1.93940	34.52
1.95607	34.52
1.97273	34.52
1.98940	34.52
2.00607	34.52
2.02273	34.52
2.03940	34.52
2.05607	34.52
2.07273	34.51
2.08940	34.52
2.10607	34.52
2.12273	34.52
2.13940	34.51
2.15607	34.51
2.17273	34.52
2.18940	34.52
2.20607	34.52
2.22273	34.51
2.23940	34.52
2.25607	34.52
2.27273	34.51
2.28940	34.51
2.30607	34.51
2.32273	34.52
2.33940	34.51
2.35607	34.51
2.37273	34.52
2.38940	34.52
2.40607	34.52
2.42273	34.52
2.43940	34.52
2.45607	34.52
2.47273	34.52
2.48940	34.52
2.50607	34.44
2.52273	34.52
2.53940	34.52
2.55607	34.52
2.57273	34.52
2.58940	34.52
2.60607	34.52
2.62273	34.51
2.63940	34.52
2.65607	34.52
2.67273	34.52
2.68940	34.52
2.70607	34.52
2.72273	34.52
2.73940	34.51
2.75607	34.52
2.77273	34.53
2.78940	34.51
2.80607	34.51
2.82273	34.53
2.83940	34.52
2.85607	34.51
2.87273	34.52
2.88940	34.51
2.90607	34.52
2.92273	34.52
2.93940	34.52
2.95607	34.51
2.97273	34.53
2.98940	34.53
3.00607	34.51
3.02273	34.51
3.03940	34.52
3.05607	34.52
3.07273	34.52
3.08940	34.51
3.10607	34.51
3.12273	34.51
3.13940	34.51
3.15607	34.52
3.17273	34.52
3.18940	34.52
3.20607	34.52
3.22273	34.51
3.23940	34.51
3.25607	34.52
3.27273	34.52
3.28940	34.52
3.30607	34.51
3.32273	34.52
3.33940	34.52
3.35607	34.52
3.37273	34.52
3.38940	34.52
3.40607	34.52
3.42273	34.52
3.43940	34.51
3.45607	34.52
3.47273	34.52
3.48940	34.52
3.50607	34.52
3.52273	34.52
3.53940	34.52
3.55607	34.52
3.57273	34.52
3.58940	34.51
3.60607	34.52
3.62273	34.52
3.63940	34.52
3.65607	34.51
3.67273	34.52
3.68940	34.52
3.70607	34.52
3.72273	34.52
3.73940	34.52
3.75607	34.52
3.77273	34.52
3.78940	34.52
3.80607	34.51
3.82273	34.52
3.83940	34.52
3.85607	34.52
3.87273	34.52
3.88940	34.52
3.90607	34.52
3.92273	34.52
3.93940	34.52
3.95607	34.52
3.97273	34.51
3.98940	34.52

[Status Trace (Column Flow)]
Interval(msec)	1000
# of Points	240
Start Time(min)	0.006
End Time(min)	3.989
Intensity Units	
Intensity Multiplier	1
R.Time (min)	Intensity
0.00607	5.55
0.02273	5.29
0.03940	5.42
0.05607	5.68
0.07273	5.75
0.08940	5.57
0.10607	5.55
0.12273	5.56
0.13940	5.56
0.15607	5.56
0.17273	5.56
0.18940	5.56
0.20607	5.56
0.22273	5.56
0.23940	5.56
0.25607	5.56
0.27273	5.56
0.28940	5.56
0.30607	5.56
0.32273	5.56
0.33940	5.56
0.35607	5.56
0.37273	5.55
0.38940	5.55
0.40607	5.55
0.42273	5.55
0.43940	5.55
0.45607	5.55
0.47273	5.55
0.48940	5.55
0.50607	5.55
0.52273	5.55
0.53940	5.55
0.55607	5.55
0.57273	5.55
0.58940	5.55
0.60607	5.56
0.62273	5.56
0.63940	5.55
0.65607	5.55
0.67273	5.55
0.68940	5.55
0.70607	5.55
0.72273	5.55
0.73940	5.55
0.75607	5.55
0.77273	5.55
0.78940	5.55
0.80607	5.55
0.82273	5.55
0.83940	5.55
0.85607	5.55
0.87273	5.55
0.88940	5.55
0.90607	5.55
0.92273	5.55
0.93940	5.55
0.95607	5.55
0.97273	5.55
0.98940	5.55
1.00607	5.55
1.02273	5.55
1.03940	5.55
1.05607	5.55
1.07273	5.55
1.08940	5.55
1.10607	5.55
1.12273	5.55
1.13940	5.55
1.15607	5.55
1.17273	5.55
1.18940	5.55
1.20607	5.55
1.22273	5.55
1.23940	5.56
1.25607	5.56
1.27273	5.56
1.28940	5.56
1.30607	5.55
1.32273	5.55
1.33940	5.55
1.35607	5.55
1.37273	5.56
1.38940	5.56
1.40607	5.56
1.42273	5.56
1.43940	5.56
1.45607	5.56
1.47273	5.56
1.48940	5.55
1.50607	5.55
1.52273	5.55
1.53940	5.55
1.55607	5.55
1.57273	5.55
1.58940	5.55
1.60607	5.55
1.62273	5.55
1.63940	5.54
1.65607	5.54
1.67273	5.53
1.68940	5.51
1.70607	5.50
1.72273	5.49
1.73940	5.48
1.75607	5.47
1.77273	5.46
1.78940	5.45
1.80607	5.44
1.82273	5.43
1.83940	5.42
1.85607	5.41
1.87273	5.40
1.88940	5.39
1.90607	5.38
1.92273	5.37
1.93940	5.36
1.95607	5.35
1.97273	5.34
1.98940	5.33
2.00607	5.32
2.02273	5.31
2.03940	5.30
2.05607	5.29
2.07273	5.28
2.08940	5.27
2.10607	5.26
2.12273	5.26
2.13940	5.25
2.15607	5.24
2.17273	5.23
2.18940	5.22
2.20607	5.21
2.22273	5.20
2.23940	5.19
2.25607	5.18
2.27273	5.17
2.28940	5.16
2.30607	5.15
2.32273	5.14
2.33940	5.13
2.35607	5.12
2.37273	5.12
2.38940	5.12
2.40607	5.12
2.42273	5.12
2.43940	5.12
2.45607	5.12
2.47273	5.12
2.48940	5.12
2.50607	5.12
2.52273	5.12
2.53940	5.12
2.55607	5.12
2.57273	5.11
2.58940	5.11
2.60607	5.11
2.62273	5.11
2.63940	5.11
2.65607	5.11
2.67273	5.11
2.68940	5.11
2.70607	5.11
2.72273	5.11
2.73940	5.11
2.75607	5.11
2.77273	5.11
2.78940	5.11
2.80607	5.11
2.82273	5.11
2.83940	5.11
2.85607	5.11
2.87273	5.11
2.88940	5.11
2.90607	5.11
2.92273	5.11
2.93940	5.11
2.95607	5.11
2.97273	5.11
2.98940	5.11
3.00607	5.11
3.02273	5.11
3.03940	5.11
3.05607	5.11
3.07273	5.11
3.08940	5.11
3.10607	5.11
3.12273	5.11
3.13940	5.11
3.15607	5.11
3.17273	5.11
3.18940	5.11
3.20607	5.11
3.22273	5.11
3.23940	5.11
3.25607	5.11
3.27273	5.11
3.28940	5.11
3.30607	5.11
3.32273	5.11
3.33940	5.11
3.35607	5.11
3.37273	5.11
3.38940	5.11
3.40607	5.11
3.42273	5.11
3.43940	5.11
3.45607	5.11
3.47273	5.11
3.48940	5.11
3.50607	5.11
3.52273	5.11
3.53940	5.11
3.55607	5.11
3.57273	5.11
3.58940	5.11
3.60607	5.11
3.62273	5.11
3.63940	5.11
3.65607	5.11
3.67273	5.11
3.68940	5.11
3.70607	5.11
3.72273	5.11
3.73940	5.11
3.75607	5.11
3.77273	5.11
3.78940	5.11
3.80607	5.11
3.82273	5.11
3.83940	5.11
3.85607	5.11
3.87273	5.11
3.88940	5.11
3.90607	5.11
3.92273	5.11
3.93940	5.11
3.95607	5.11
3.97273	5.11
3.98940	5.11

[Status Trace (Linear Velocity)]
Interval(msec)	1000
# of Points	240
Start Time(min)	0.006
End Time(min)	3.989
Intensity Units	
Intensity Multiplier	1
R.Time (min)	Intensity
0.00607	39.02
0.02273	37.52
0.03940	38.26
0.05607	39.71
0.07273	40.11
0.08940	39.11
0.10607	39.01
0.12273	39.03
0.13940	39.03
0.15607	39.03
0.17273	39.03
0.18940	39.03
0.20607	39.03
0.22273	39.03
0.23940	39.03
0.25607	39.03
0.27273	39.03
0.28940	39.03
0.30607	39.03
0.32273	39.03
0.33940	39.03
0.35607	39.03
0.37273	39.02
0.38940	39.02
0.40607	39.02
0.42273	39.02
0.43940	39.02
0.45607	39.02
0.47273	39.02
0.48940	39.02
0.50607	39.02
0.52273	39.02
0.53940	39.02
0.55607	39.02
0.57273	39.02
0.58940	39.03
0.60607	39.03
0.62273	39.03
0.63940	39.03
0.65607	39.02
0.67273	39.02
0.68940	39.02
0.70607	39.02
0.72273	39.02
0.73940	39.03
0.75607	39.03
0.77273	39.02
0.78940	39.02
0.80607	39.02
0.82273	39.02
0.83940	39.02
0.85607	39.02
0.87273	39.02
0.88940	39.02
0.90607	39.02
0.92273	39.02
0.93940	39.02
0.95607	39.02
0.97273	39.02
0.98940	39.02
1.00607	39.02
1.02273	39.02
1.03940	39.03
1.05607	39.03
1.07273	39.02
1.08940	39.03
1.10607	39.02
1.12273	39.02
1.13940	39.02
1.15607	39.03
1.17273	39.03
1.18940	39.03
1.20607	39.03
1.22273	39.03
1.23940	39.03
1.25607	39.03
1.27273	39.03
1.28940	39.03
1.30607	39.03
1.32273	39.03
1.33940	39.02
1.35607	39.02
1.37273	39.03
1.38940	39.03
1.40607	39.03
1.42273	39.03
1.43940	39.03
1.45607	39.03
1.47273	39.03
1.48940	39.02
1.50607	39.02
1.52273	39.02
1.53940	39.02
1.55607	39.02
1.57273	39.02
1.58940	39.02
1.60607	39.02
1.62273	39.01
1.63940	39.00
1.65607	38.97
1.67273	38.94
1.68940	38.90
1.70607	38.87
1.72273	38.84
1.73940	38.80
1.75607	38.77
1.77273	38.74
1.78940	38.71
1.80607	38.68
1.82273	38.65
1.83940	38.62
1.85607	38.59
1.87273	38.56
1.88940	38.52
1.90607	38.49
1.92273	38.46
1.93940	38.43
1.95607	38.40
1.97273	38.37
1.98940	38.34
2.00607	38.31
2.02273	38.28
2.03940	38.25
2.05607	38.22
2.07273	38.19
2.08940	38.16
2.10607	38.13
2.12273	38.10
2.13940	38.07
2.15607	38.04
2.17273	38.01
2.18940	37.99
2.20607	37.95
2.22273	37.93
2.23940	37.90
2.25607	37.86
2.27273	37.84
2.28940	37.81
2.30607	37.78
2.32273	37.75
2.33940	37.72
2.35607	37.69
2.37273	37.67
2.38940	37.66
2.40607	37.66
2.42273	37.67
2.43940	37.67
2.45607	37.67
2.47273	37.67
2.48940	37.66
2.50607	37.66
2.52273	37.66
2.53940	37.66
2.55607	37.66
2.57273	37.66
2.58940	37.66
2.60607	37.66
2.62273	37.65
2.63940	37.65
2.65607	37.65
2.67273	37.65
2.68940	37.65
2.70607	37.65
2.72273	37.65
2.73940	37.65
2.75607	37.65
2.77273	37.65
2.78940	37.65
2.80607	37.65
2.82273	37.65
2.83940	37.65
2.85607	37.65
2.87273	37.65
2.88940	37.65
2.90607	37.65
2.92273	37.65
2.93940	37.65
2.95607	37.65
2.97273	37.65
2.98940	37.64
3.00607	37.64
3.02273	37.64
3.03940	37.64
3.05607	37.64
3.07273	37.64
3.08940	37.64
3.10607	37.64
3.12273	37.63
3.13940	37.64
3.15607	37.64
3.17273	37.63
3.18940	37.63
3.20607	37.63
3.22273	37.63
3.23940	37.63
3.25607	37.63
3.27273	37.63
3.28940	37.63
3.30607	37.63
3.32273	37.63
3.33940	37.63
3.35607	37.63
3.37273	37.63
3.38940	37.63
3.40607	37.63
3.42273	37.63
3.43940	37.63
3.45607	37.63
3.47273	37.63
3.48940	37.63
3.50607	37.63
3.52273	37.64
3.53940	37.64
3.55607	37.64
3.57273	37.64
3.58940	37.64
3.60607	37.64
3.62273	37.64
3.63940	37.64
3.65607	37.64
3.67273	37.64
3.68940	37.64
3.70607	37.64
3.72273	37.64
3.73940	37.64
3.75607	37.64
3.77273	37.64
3.78940	37.64
3.80607	37.63
3.82273	37.64
3.83940	37.64
3.85607	37.64
3.87273	37.64
3.88940	37.64
3.90607	37.64
3.92273	37.64
3.93940	37.64
3.95607	37.64
3.97273	37.64
3.98940	37.64

