[Header]
Application Name	LabSolutions
Version	5.110
Data File Name	C:\Users\User\Desktop\GC Analyses\Jack\Nachusa Grasslands Sampling\T4 Timepoint July 12th\T4_07122022_041.gcd
Output Date	3/17/2023
Output Time	12:04:53 PM

[File Information]
Type	Data File
Generated	3/14/2023 7:55:24 PM
Generated by	System Administrator
Modified	3/14/2023 8:01:57 PM
Modified by	System Administrator

[Sample Information]
Operator Name	System Administrator
Acquired	3/14/2023 7:57:57 PM
Sample Type	0:Unknown
Level	0
Sample Name	041
Sample ID	041
ISTD Amount1	1
ISTD Amount2	1
ISTD Amount3	1
ISTD Amount4	1
ISTD Amount5	1
ISTD Amount6	1
ISTD Amount7	1
ISTD Amount8	1
ISTD Amount9	1
ISTD Amount10	1
ISTD Amount11	1
ISTD Amount12	1
ISTD Amount13	1
ISTD Amount14	1
ISTD Amount15	1
ISTD Amount16	1
ISTD Amount17	1
ISTD Amount18	1
ISTD Amount19	1
ISTD Amount20	1
ISTD Amount21	1
ISTD Amount22	1
ISTD Amount23	1
ISTD Amount24	1
ISTD Amount25	1
ISTD Amount26	1
ISTD Amount27	1
ISTD Amount28	1
ISTD Amount29	1
ISTD Amount30	1
ISTD Amount31	1
ISTD Amount32	1
Sample Amount	1
Dilution Factor	1
Vial#	40
Injection Volume	1
Injection Count	1
Bar Code	

[Original Files]
Data File	C:\Users\User\Desktop\GC Analyses\Jack\Nachusa Grasslands Sampling\T4 Timepoint July 12th\T4_07122022_041.gcd
Method File	C:\LabSolutions\Data\GHG_4min_2022\ghg3_togas_w_acet_4 min_new_int.gcm
Batch File	C:\LabSolutions\Data\AutoSamplerTesting\T4_07122022.gcb
Report Format File	c:\LabSolutions\System\DEFAULT.lsr

[File Description]


[Configuration]
Instrument Name	C0B7VH3-Instrument1
Instrument #	1
Line #	1
# of Detectors	3
Detector ID	DET#1	DET#2	DET#3
Detector Name	FID	PTCD	ECD
# of Channels	1	1	1

[Peak Table(Ch1)]
# of Peaks	3
Peak#	R.Time	I.Time	F.Time	Area	Height	A/H	Conc.	Mark	ID#	Name	k'	Plate #	Plate Ht.	Tailing	Resolution	Sep.Factor	Area Ratio	Height Ratio	Conc. %	Norm Conc.
1	1.457	1.410	1.516	1234	451	2.739	8.715	   	1	CO	0.000	6474	23.170	1.154	0.000	0.000	0	0	0.941	0.941
2	1.571	1.534	1.626	19920	10119	1.969	385.163	   	2	CH4	0.078	11565	12.970	1.135	1.737	0.000	0	0	41.580	41.580
3	2.000	1.952	2.370	2121542	1013407	2.093	532.449	   	3	CO2	0.372	17427	8.607	1.182	7.208	4.774	0	0	57.480	57.480

[Peak Table(Ch2)]
# of Peaks	0

[Peak Table(Ch3)]
# of Peaks	5
Peak#	R.Time	I.Time	F.Time	Area	Height	A/H	Conc.	Mark	ID#	Name	k'	Plate #	Plate Ht.	Tailing	Resolution	Sep.Factor	Area Ratio	Height Ratio	Conc. %	Norm Conc.
1	2.462	2.334	2.510	1975	620	3.185	0.000	   			0.000	9517	15.762	0.000	0.000	0.000	0	0	0.000	0.000
2	2.532	2.510	2.587	1120	359	3.118	0.000	 V 			0.028	6292	23.840	0.000	0.609	0.000	0	0	0.000	0.000
3	2.609	2.587	2.686	609	167	3.654	0.000	 V 			0.060	2129	70.447	0.000	0.435	2.105	0	0	0.000	0.000
4	2.880	2.708	3.126	56811	14664	3.874	1.451	   	1	N2O	0.170	12644	11.863	1.544	1.652	2.850	0	0	100.000	100.000
5	3.393	3.236	3.995	16021	609	26.310	0.000	   	2	SF6	0.378	348	431.066	2.378	1.237	2.228	0	0	0.000	0.000

[Compound Results(Ch1)]
# of IDs	6
ID#	Name	R.Time	Area	Height	Conc.	Curve	3rd	2nd	1st	Constant	Area Ratio	Height Ratio	Conc. %	Norm Conc.
1	CO	1.457	1234	451	8.715	Linear	0.000000e+00	0.000000e+00	1.416423e+002	0.000000e+00	0	0	0.941	0.941
2	CH4	1.571	19920	10119	385.163	Linear	0.000000e+00	0.000000e+00	5.171738e+001	0.000000e+00	0	0	41.580	41.580
3	CO2	2.000	2121542	1013407	532.449	Linear	0.000000e+00	0.000000e+00	3.984494e+003	0.000000e+00	0	0	57.480	57.480
4	Ethylene	0.000	0	0	0.000	Linear	0.000000e+00	0.000000e+00	0.000000e+00	0.000000e+00	0	0	0.000	0.000
5	Acetylene	0.000	0	0	0.000	Linear	0.000000e+00	0.000000e+00	0.000000e+00	0.000000e+00	0	0	0.000	0.000
6	Ethane	0.000	0	0	0.000	Linear	0.000000e+00	0.000000e+00	0.000000e+00	0.000000e+00	0	0	0.000	0.000

[Compound Results(Ch2)]
# of IDs	5
ID#	Name	R.Time	Area	Height	Conc.	Curve	3rd	2nd	1st	Constant	Area Ratio	Height Ratio	Conc. %	Norm Conc.
1	Hydrogen	0.000	0	0	0.000	Linear	0.000000e+00	0.000000e+00	0.000000e+00	0.000000e+00	0	0	0.000	0.000
2	Oxygen	0.000	0	0	0.000	Linear	0.000000e+00	0.000000e+00	0.000000e+00	0.000000e+00	0	0	0.000	0.000
3	Nitrogen	0.000	0	0	0.000	Linear	0.000000e+00	0.000000e+00	0.000000e+00	0.000000e+00	0	0	0.000	0.000
4	Methane	0.000	0	0	0.000	Linear	0.000000e+00	0.000000e+00	0.000000e+00	0.000000e+00	0	0	0.000	0.000
5	Carbon Monoxide	0.000	0	0	0.000	Linear	0.000000e+00	0.000000e+00	0.000000e+00	0.000000e+00	0	0	0.000	0.000

[Compound Results(Ch3)]
# of IDs	2
ID#	Name	R.Time	Area	Height	Conc.	Curve	3rd	2nd	1st	Constant	Area Ratio	Height Ratio	Conc. %	Norm Conc.
1	N2O	2.880	56811	14664	1.451	Linear	0.000000e+00	0.000000e+00	3.915173e+004	0.000000e+00	0	0	100.000	100.000
2	SF6	3.393	16021	609	0.000	Linear	0.000000e+00	0.000000e+00	0.000000e+00	0.000000e+00	0	0	0.000	0.000

[Group Results(Ch1)]
# of Groups	0

[Group Results(Ch2)]
# of Groups	0

[Group Results(Ch3)]
# of Groups	0

[Chromatogram (Ch1)]
Interval(msec)	220
# of Points	1091
Start Time(min)	0.002
End Time(min)	3.998
R.Time (min)	Intensity
0.00167	25
0.00533	28
0.00900	28
0.01267	27
0.01633	25
0.02000	21
0.02367	18
0.02733	15
0.03100	15
0.03467	19
0.03833	26
0.04200	31
0.04567	36
0.04933	36
0.05300	31
0.05667	24
0.06033	19
0.06400	19
0.06767	22
0.07133	26
0.07500	30
0.07867	32
0.08233	36
0.08600	38
0.08967	34
0.09333	24
0.09700	17
0.10067	13
0.10433	10
0.10800	8
0.11167	8
0.11533	5
0.11900	1
0.12267	-3
0.12633	-4
0.13000	-5
0.13367	-5
0.13733	1
0.14100	4
0.14467	4
0.14833	1
0.15200	0
0.15567	5
0.15933	9
0.16300	12
0.16667	15
0.17033	15
0.17400	17
0.17767	22
0.18133	26
0.18500	27
0.18867	27
0.19233	25
0.19600	22
0.19967	25
0.20333	28
0.20700	26
0.21067	20
0.21433	19
0.21800	19
0.22167	16
0.22533	12
0.22900	13
0.23267	13
0.23633	11
0.24000	10
0.24367	12
0.24733	15
0.25100	15
0.25467	14
0.25833	17
0.26200	20
0.26567	24
0.26933	33
0.27300	40
0.27667	42
0.28033	45
0.28400	43
0.28767	40
0.29133	41
0.29500	44
0.29867	46
0.30233	45
0.30600	40
0.30967	35
0.31333	31
0.31700	27
0.32067	27
0.32433	27
0.32800	26
0.33167	24
0.33533	21
0.33900	22
0.34267	30
0.34633	41
0.35000	52
0.35367	63
0.35733	72
0.36100	77
0.36467	86
0.36833	88
0.37200	82
0.37567	75
0.37933	68
0.38300	67
0.38667	75
0.39033	85
0.39400	84
0.39767	81
0.40133	81
0.40500	83
0.40867	83
0.41233	81
0.41600	79
0.41967	78
0.42333	75
0.42700	71
0.43067	69
0.43433	65
0.43800	62
0.44167	62
0.44533	67
0.44900	78
0.45267	85
0.45633	87
0.46000	86
0.46367	81
0.46733	72
0.47100	61
0.47467	50
0.47833	41
0.48200	39
0.48567	43
0.48933	51
0.49300	56
0.49667	48
0.50033	35
0.50400	25
0.50767	20
0.51133	22
0.51500	27
0.51867	31
0.52233	30
0.52600	25
0.52967	22
0.53333	23
0.53700	25
0.54067	29
0.54433	28
0.54800	20
0.55167	6
0.55533	-9
0.55900	-18
0.56267	-19
0.56633	-12
0.57000	0
0.57367	9
0.57733	8
0.58100	3
0.58467	2
0.58833	7
0.59200	12
0.59567	14
0.59933	18
0.60300	22
0.60667	23
0.61033	21
0.61400	22
0.61767	22
0.62133	22
0.62500	22
0.62867	20
0.63233	15
0.63600	14
0.63967	19
0.64333	27
0.64700	32
0.65067	32
0.65433	32
0.65800	32
0.66167	31
0.66533	32
0.66900	30
0.67267	24
0.67633	14
0.68000	7
0.68367	7
0.68733	10
0.69100	12
0.69467	12
0.69833	16
0.70200	21
0.70567	26
0.70933	29
0.71300	28
0.71667	24
0.72033	16
0.72400	12
0.72767	4
0.73133	-1
0.73500	-5
0.73867	-2
0.74233	2
0.74600	3
0.74967	2
0.75333	4
0.75700	11
0.76067	15
0.76433	16
0.76800	18
0.77167	20
0.77533	21
0.77900	23
0.78267	21
0.78633	19
0.79000	17
0.79367	15
0.79733	13
0.80100	15
0.80467	20
0.80833	24
0.81200	27
0.81567	28
0.81933	23
0.82300	15
0.82667	11
0.83033	11
0.83400	12
0.83767	17
0.84133	18
0.84500	17
0.84867	18
0.85233	22
0.85600	23
0.85967	18
0.86333	16
0.86700	17
0.87067	17
0.87433	20
0.87800	21
0.88167	21
0.88533	22
0.88900	24
0.89267	19
0.89633	15
0.90000	11
0.90367	8
0.90733	6
0.91100	6
0.91467	1
0.91833	-4
0.92200	-1
0.92567	8
0.92933	19
0.93300	24
0.93667	24
0.94033	12
0.94400	-3
0.94767	-13
0.95133	-15
0.95500	-9
0.95867	5
0.96233	19
0.96600	27
0.96967	27
0.97333	20
0.97700	14
0.98067	7
0.98433	3
0.98800	-2
0.99167	-6
0.99533	-8
0.99900	-8
1.00267	-9
1.00633	-11
1.01000	-12
1.01367	-12
1.01733	-12
1.02100	-8
1.02467	0
1.02833	6
1.03200	8
1.03567	9
1.03933	10
1.04300	9
1.04667	7
1.05033	7
1.05400	7
1.05767	5
1.06133	5
1.06500	2
1.06867	-1
1.07233	-2
1.07600	-7
1.07967	-12
1.08333	-13
1.08700	-13
1.09067	-12
1.09433	-14
1.09800	-10
1.10167	-2
1.10533	-1
1.10900	-2
1.11267	-5
1.11633	-5
1.12000	-2
1.12367	3
1.12733	10
1.13100	18
1.13467	24
1.13833	27
1.14200	27
1.14567	24
1.14933	16
1.15300	6
1.15667	-2
1.16033	-6
1.16400	-2
1.16767	6
1.17133	10
1.17500	-0
1.17867	-16
1.18233	-28
1.18600	-36
1.18967	-38
1.19333	-30
1.19700	-17
1.20067	-9
1.20433	-6
1.20800	-5
1.21167	-4
1.21533	-4
1.21900	-2
1.22267	1
1.22633	5
1.23000	9
1.23367	12
1.23733	10
1.24100	8
1.24467	6
1.24833	7
1.25200	13
1.25567	21
1.25933	25
1.26300	19
1.26667	13
1.27033	8
1.27400	1
1.27767	-6
1.28133	-9
1.28500	-10
1.28867	-14
1.29233	-19
1.29600	-21
1.29967	-15
1.30333	-1
1.30700	13
1.31067	20
1.31433	21
1.31800	24
1.32167	27
1.32533	28
1.32900	28
1.33267	25
1.33633	24
1.34000	28
1.34367	34
1.34733	35
1.35100	30
1.35467	25
1.35833	27
1.36200	31
1.36567	33
1.36933	35
1.37300	40
1.37667	46
1.38033	48
1.38400	43
1.38767	35
1.39133	30
1.39500	29
1.39867	24
1.40233	15
1.40600	9
1.40967	6
1.41333	10
1.41700	17
1.42067	21
1.42433	22
1.42800	25
1.43167	29
1.43533	35
1.43900	48
1.44267	83
1.44633	175
1.45000	296
1.45367	373
1.45733	398
1.46100	393
1.46467	363
1.46833	320
1.47200	290
1.47567	283
1.47933	289
1.48300	273
1.48667	226
1.49033	161
1.49400	91
1.49767	27
1.50133	-26
1.50500	-66
1.50867	-93
1.51233	-111
1.51600	-124
1.51967	-135
1.52333	-144
1.52700	-148
1.53067	-147
1.53433	-137
1.53800	-79
1.54167	152
1.54533	828
1.54900	2165
1.55267	4035
1.55633	6031
1.56000	7789
1.56367	9117
1.56733	9914
1.57100	10054
1.57467	9442
1.57833	8171
1.58200	6546
1.58567	4915
1.58933	3509
1.59300	2415
1.59667	1618
1.60033	1063
1.60400	689
1.60767	443
1.61133	281
1.61500	173
1.61867	102
1.62233	60
1.62600	44
1.62967	37
1.63333	28
1.63700	17
1.64067	7
1.64433	-1
1.64800	-7
1.65167	-14
1.65533	-21
1.65900	-27
1.66267	-34
1.66633	-38
1.67000	-39
1.67367	-37
1.67733	-35
1.68100	-30
1.68467	-20
1.68833	-12
1.69200	-8
1.69567	-9
1.69933	-11
1.70300	-15
1.70667	-22
1.71033	-31
1.71400	-37
1.71767	-37
1.72133	-35
1.72500	-34
1.72867	-31
1.73233	-22
1.73600	-14
1.73967	-9
1.74333	-1
1.74700	-1
1.75067	-10
1.75433	-17
1.75800	-24
1.76167	-27
1.76533	-25
1.76900	-24
1.77267	-26
1.77633	-29
1.78000	-29
1.78367	-24
1.78733	-19
1.79100	-15
1.79467	-16
1.79833	-16
1.80200	-9
1.80567	-1
1.80933	3
1.81300	2
1.81667	-5
1.82033	-9
1.82400	-9
1.82767	-11
1.83133	-11
1.83500	-6
1.83867	1
1.84233	5
1.84600	5
1.84967	6
1.85333	2
1.85700	-4
1.86067	-7
1.86433	-7
1.86800	-4
1.87167	-2
1.87533	-2
1.87900	2
1.88267	7
1.88633	10
1.89000	16
1.89367	21
1.89733	22
1.90100	19
1.90467	19
1.90833	17
1.91200	12
1.91567	7
1.91933	5
1.92300	9
1.92667	17
1.93033	20
1.93400	24
1.93767	26
1.94133	28
1.94500	25
1.94867	19
1.95233	26
1.95600	115
1.95967	694
1.96333	3592
1.96700	14626
1.97067	46636
1.97433	118297
1.97800	243400
1.98167	416517
1.98533	610984
1.98900	792615
1.99267	931639
1.99633	1008220
2.00000	1013460
2.00367	950119
2.00733	833402
2.01100	687297
2.01467	536726
2.01833	400652
2.02200	288938
2.02567	203462
2.02933	141289
2.03300	97622
2.03667	67654
2.04033	47363
2.04400	33699
2.04767	24494
2.05133	18253
2.05500	13967
2.05867	10977
2.06233	8853
2.06600	7309
2.06967	6157
2.07333	5278
2.07700	4594
2.08067	4049
2.08433	3604
2.08800	3236
2.09167	2929
2.09533	2668
2.09900	2448
2.10267	2258
2.10633	2095
2.11000	1956
2.11367	1828
2.11733	1710
2.12100	1602
2.12467	1507
2.12833	1422
2.13200	1345
2.13567	1283
2.13933	1231
2.14300	1181
2.14667	1127
2.15033	1075
2.15400	1026
2.15767	985
2.16133	949
2.16500	911
2.16867	876
2.17233	845
2.17600	813
2.17967	785
2.18333	762
2.18700	742
2.19067	719
2.19433	694
2.19800	676
2.20167	661
2.20533	641
2.20900	621
2.21267	600
2.21633	583
2.22000	569
2.22367	560
2.22733	549
2.23100	536
2.23467	519
2.23833	505
2.24200	500
2.24567	497
2.24933	487
2.25300	478
2.25667	470
2.26033	462
2.26400	457
2.26767	450
2.27133	441
2.27500	431
2.27867	420
2.28233	410
2.28600	401
2.28967	394
2.29333	391
2.29700	387
2.30067	378
2.30433	367
2.30800	358
2.31167	352
2.31533	345
2.31900	340
2.32267	333
2.32633	325
2.33000	319
2.33367	320
2.33733	326
2.34100	336
2.34467	343
2.34833	342
2.35200	334
2.35567	323
2.35933	311
2.36300	295
2.36667	278
2.37033	268
2.37400	262
2.37767	257
2.38133	258
2.38500	262
2.38867	268
2.39233	274
2.39600	277
2.39967	278
2.40333	274
2.40700	273
2.41067	273
2.41433	273
2.41800	272
2.42167	269
2.42533	270
2.42900	274
2.43267	278
2.43633	276
2.44000	267
2.44367	256
2.44733	249
2.45100	244
2.45467	236
2.45833	229
2.46200	222
2.46567	211
2.46933	202
2.47300	204
2.47667	206
2.48033	205
2.48400	204
2.48767	203
2.49133	202
2.49500	203
2.49867	205
2.50233	211
2.50600	218
2.50967	217
2.51333	212
2.51700	209
2.52067	205
2.52433	199
2.52800	194
2.53167	187
2.53533	178
2.53900	174
2.54267	176
2.54633	185
2.55000	194
2.55367	199
2.55733	199
2.56100	193
2.56467	182
2.56833	172
2.57200	171
2.57567	174
2.57933	174
2.58300	176
2.58667	179
2.59033	183
2.59400	188
2.59767	189
2.60133	185
2.60500	180
2.60867	181
2.61233	187
2.61600	184
2.61967	173
2.62333	164
2.62700	163
2.63067	170
2.63433	174
2.63800	175
2.64167	173
2.64533	169
2.64900	165
2.65267	166
2.65633	171
2.66000	175
2.66367	177
2.66733	176
2.67100	171
2.67467	168
2.67833	166
2.68200	160
2.68567	154
2.68933	153
2.69300	156
2.69667	162
2.70033	165
2.70400	164
2.70767	159
2.71133	155
2.71500	155
2.71867	156
2.72233	157
2.72600	157
2.72967	157
2.73333	155
2.73700	151
2.74067	148
2.74433	147
2.74800	154
2.75167	161
2.75533	163
2.75900	158
2.76267	151
2.76633	150
2.77000	153
2.77367	157
2.77733	159
2.78100	159
2.78467	156
2.78833	152
2.79200	146
2.79567	144
2.79933	144
2.80300	148
2.80667	152
2.81033	154
2.81400	155
2.81767	156
2.82133	153
2.82500	152
2.82867	154
2.83233	157
2.83600	159
2.83967	162
2.84333	162
2.84700	163
2.85067	167
2.85433	167
2.85800	167
2.86167	169
2.86533	169
2.86900	165
2.87267	158
2.87633	145
2.88000	138
2.88367	137
2.88733	139
2.89100	141
2.89467	136
2.89833	134
2.90200	137
2.90567	137
2.90933	133
2.91300	139
2.91667	145
2.92033	145
2.92400	142
2.92767	138
2.93133	136
2.93500	135
2.93867	139
2.94233	146
2.94600	154
2.94967	155
2.95333	153
2.95700	153
2.96067	155
2.96433	154
2.96800	150
2.97167	138
2.97533	129
2.97900	128
2.98267	130
2.98633	134
2.99000	133
2.99367	131
2.99733	133
3.00100	144
3.00467	157
3.00833	164
3.01200	161
3.01567	153
3.01933	146
3.02300	141
3.02667	141
3.03033	147
3.03400	145
3.03767	141
3.04133	141
3.04500	142
3.04867	144
3.05233	145
3.05600	142
3.05967	136
3.06333	128
3.06700	122
3.07067	118
3.07433	114
3.07800	115
3.08167	119
3.08533	119
3.08900	122
3.09267	132
3.09633	143
3.10000	143
3.10367	137
3.10733	130
3.11100	128
3.11467	125
3.11833	118
3.12200	114
3.12567	118
3.12933	121
3.13300	123
3.13667	126
3.14033	123
3.14400	119
3.14767	117
3.15133	119
3.15500	124
3.15867	128
3.16233	127
3.16600	123
3.16967	124
3.17333	127
3.17700	132
3.18067	134
3.18433	137
3.18800	141
3.19167	142
3.19533	140
3.19900	140
3.20267	142
3.20633	143
3.21000	143
3.21367	145
3.21733	144
3.22100	137
3.22467	132
3.22833	132
3.23200	127
3.23567	120
3.23933	111
3.24300	107
3.24667	107
3.25033	108
3.25400	109
3.25767	113
3.26133	114
3.26500	109
3.26867	103
3.27233	100
3.27600	99
3.27967	100
3.28333	102
3.28700	102
3.29067	99
3.29433	96
3.29800	100
3.30167	114
3.30533	131
3.30900	142
3.31267	146
3.31633	137
3.32000	122
3.32367	111
3.32733	104
3.33100	101
3.33467	110
3.33833	125
3.34200	135
3.34567	139
3.34933	140
3.35300	137
3.35667	128
3.36033	116
3.36400	105
3.36767	94
3.37133	86
3.37500	85
3.37867	88
3.38233	91
3.38600	89
3.38967	88
3.39333	94
3.39700	102
3.40067	115
3.40433	121
3.40800	121
3.41167	117
3.41533	112
3.41900	106
3.42267	101
3.42633	103
3.43000	106
3.43367	105
3.43733	100
3.44100	96
3.44467	95
3.44833	91
3.45200	92
3.45567	95
3.45933	91
3.46300	85
3.46667	85
3.47033	87
3.47400	87
3.47767	85
3.48133	80
3.48500	74
3.48867	75
3.49233	85
3.49600	93
3.49967	98
3.50333	103
3.50700	107
3.51067	111
3.51433	110
3.51800	109
3.52167	108
3.52533	108
3.52900	109
3.53267	108
3.53633	104
3.54000	100
3.54367	95
3.54733	90
3.55100	82
3.55467	76
3.55833	75
3.56200	75
3.56567	75
3.56933	79
3.57300	86
3.57667	90
3.58033	91
3.58400	88
3.58767	82
3.59133	82
3.59500	86
3.59867	89
3.60233	93
3.60600	94
3.60967	91
3.61333	88
3.61700	83
3.62067	76
3.62433	71
3.62800	72
3.63167	72
3.63533	68
3.63900	70
3.64267	70
3.64633	71
3.65000	72
3.65367	75
3.65733	81
3.66100	82
3.66467	80
3.66833	84
3.67200	89
3.67567	92
3.67933	97
3.68300	98
3.68667	93
3.69033	90
3.69400	85
3.69767	82
3.70133	86
3.70500	91
3.70867	90
3.71233	86
3.71600	79
3.71967	71
3.72333	66
3.72700	62
3.73067	60
3.73433	62
3.73800	67
3.74167	65
3.74533	63
3.74900	68
3.75267	75
3.75633	80
3.76000	80
3.76367	80
3.76733	79
3.77100	75
3.77467	71
3.77833	69
3.78200	60
3.78567	51
3.78933	46
3.79300	49
3.79667	56
3.80033	63
3.80400	68
3.80767	69
3.81133	67
3.81500	62
3.81867	57
3.82233	53
3.82600	54
3.82967	58
3.83333	66
3.83700	66
3.84067	57
3.84433	48
3.84800	44
3.85167	44
3.85533	48
3.85900	58
3.86267	70
3.86633	77
3.87000	77
3.87367	72
3.87733	64
3.88100	59
3.88467	61
3.88833	61
3.89200	60
3.89567	58
3.89933	60
3.90300	60
3.90667	61
3.91033	64
3.91400	62
3.91767	60
3.92133	63
3.92500	66
3.92867	65
3.93233	64
3.93600	65
3.93967	65
3.94333	63
3.94700	58
3.95067	52
3.95433	48
3.95800	45
3.96167	45
3.96533	50
3.96900	57
3.97267	58
3.97633	57
3.98000	57
3.98367	60
3.98733	60
3.99100	53
3.99467	43
3.99833	38

[Chromatogram (Ch2)]
Interval(msec)	220
# of Points	1091
Start Time(min)	0.002
End Time(min)	3.998
R.Time (min)	Intensity
0.00167	1
0.00533	1
0.00900	1
0.01267	1
0.01633	1
0.02000	0
0.02367	0
0.02733	-0
0.03100	-1
0.03467	-1
0.03833	-1
0.04200	-1
0.04567	-2
0.04933	-2
0.05300	-1
0.05667	-1
0.06033	-1
0.06400	-1
0.06767	-1
0.07133	-1
0.07500	-1
0.07867	-2
0.08233	-2
0.08600	-2
0.08967	-2
0.09333	-2
0.09700	-2
0.10067	-2
0.10433	-2
0.10800	-2
0.11167	-2
0.11533	-2
0.11900	-1
0.12267	-1
0.12633	-1
0.13000	-1
0.13367	-1
0.13733	-1
0.14100	-0
0.14467	-0
0.14833	-0
0.15200	0
0.15567	0
0.15933	0
0.16300	0
0.16667	0
0.17033	0
0.17400	0
0.17767	0
0.18133	0
0.18500	0
0.18867	0
0.19233	0
0.19600	0
0.19967	-0
0.20333	-0
0.20700	-0
0.21067	-1
0.21433	-1
0.21800	-1
0.22167	-1
0.22533	-1
0.22900	-1
0.23267	-2
0.23633	-2
0.24000	-1
0.24367	-1
0.24733	-1
0.25100	-1
0.25467	-1
0.25833	-1
0.26200	-1
0.26567	-0
0.26933	0
0.27300	0
0.27667	0
0.28033	0
0.28400	1
0.28767	1
0.29133	1
0.29500	1
0.29867	1
0.30233	1
0.30600	0
0.30967	0
0.31333	-0
0.31700	-0
0.32067	-0
0.32433	-0
0.32800	-0
0.33167	-0
0.33533	0
0.33900	0
0.34267	0
0.34633	0
0.35000	0
0.35367	0
0.35733	-0
0.36100	-0
0.36467	-0
0.36833	-0
0.37200	-0
0.37567	-0
0.37933	-0
0.38300	-0
0.38667	-1
0.39033	-1
0.39400	-1
0.39767	-1
0.40133	-1
0.40500	-1
0.40867	-1
0.41233	-1
0.41600	-1
0.41967	-1
0.42333	-1
0.42700	-0
0.43067	-0
0.43433	-0
0.43800	0
0.44167	0
0.44533	1
0.44900	1
0.45267	1
0.45633	1
0.46000	1
0.46367	1
0.46733	2
0.47100	2
0.47467	2
0.47833	2
0.48200	2
0.48567	2
0.48933	1
0.49300	1
0.49667	1
0.50033	1
0.50400	0
0.50767	1
0.51133	1
0.51500	1
0.51867	2
0.52233	3
0.52600	3
0.52967	3
0.53333	4
0.53700	4
0.54067	3
0.54433	3
0.54800	3
0.55167	2
0.55533	1
0.55900	0
0.56267	-0
0.56633	-1
0.57000	-1
0.57367	-1
0.57733	-1
0.58100	-1
0.58467	-1
0.58833	-1
0.59200	-1
0.59567	-1
0.59933	-1
0.60300	-0
0.60667	-0
0.61033	0
0.61400	0
0.61767	1
0.62133	1
0.62500	0
0.62867	0
0.63233	-0
0.63600	-1
0.63967	-1
0.64333	-1
0.64700	-2
0.65067	-2
0.65433	-2
0.65800	-2
0.66167	-2
0.66533	-2
0.66900	-2
0.67267	-2
0.67633	-3
0.68000	-3
0.68367	-3
0.68733	-3
0.69100	-2
0.69467	-2
0.69833	-2
0.70200	-2
0.70567	-1
0.70933	-1
0.71300	-1
0.71667	-1
0.72033	-1
0.72400	-1
0.72767	-1
0.73133	-0
0.73500	-0
0.73867	-0
0.74233	-0
0.74600	-1
0.74967	-1
0.75333	-1
0.75700	-1
0.76067	-1
0.76433	-1
0.76800	-1
0.77167	-1
0.77533	-1
0.77900	-1
0.78267	-1
0.78633	-1
0.79000	-1
0.79367	-1
0.79733	-1
0.80100	-1
0.80467	-1
0.80833	-1
0.81200	-1
0.81567	-1
0.81933	-0
0.82300	0
0.82667	1
0.83033	1
0.83400	1
0.83767	2
0.84133	2
0.84500	2
0.84867	2
0.85233	2
0.85600	2
0.85967	2
0.86333	2
0.86700	1
0.87067	1
0.87433	1
0.87800	1
0.88167	1
0.88533	1
0.88900	1
0.89267	1
0.89633	1
0.90000	1
0.90367	1
0.90733	1
0.91100	1
0.91467	1
0.91833	1
0.92200	1
0.92567	1
0.92933	1
0.93300	1
0.93667	1
0.94033	1
0.94400	1
0.94767	0
0.95133	0
0.95500	0
0.95867	-0
0.96233	-0
0.96600	-1
0.96967	-1
0.97333	-1
0.97700	-1
0.98067	-1
0.98433	-1
0.98800	-1
0.99167	-1
0.99533	-0
0.99900	-0
1.00267	-0
1.00633	-0
1.01000	-1
1.01367	-1
1.01733	-1
1.02100	-1
1.02467	-1
1.02833	-1
1.03200	-2
1.03567	-2
1.03933	-2
1.04300	-2
1.04667	-3
1.05033	-3
1.05400	-3
1.05767	-3
1.06133	-3
1.06500	-2
1.06867	-2
1.07233	-2
1.07600	-2
1.07967	-2
1.08333	-1
1.08700	-2
1.09067	-2
1.09433	-2
1.09800	-2
1.10167	-2
1.10533	-1
1.10900	-1
1.11267	-1
1.11633	-1
1.12000	-0
1.12367	-0
1.12733	-0
1.13100	0
1.13467	0
1.13833	-0
1.14200	-0
1.14567	-0
1.14933	-1
1.15300	-1
1.15667	-1
1.16033	-1
1.16400	-1
1.16767	-1
1.17133	-1
1.17500	-2
1.17867	-2
1.18233	-2
1.18600	-2
1.18967	-2
1.19333	-2
1.19700	-2
1.20067	-2
1.20433	-1
1.20800	-1
1.21167	-1
1.21533	-1
1.21900	-1
1.22267	-1
1.22633	-2
1.23000	-2
1.23367	-2
1.23733	-2
1.24100	-2
1.24467	-2
1.24833	-2
1.25200	-2
1.25567	-1
1.25933	-1
1.26300	-1
1.26667	-1
1.27033	-1
1.27400	-0
1.27767	-0
1.28133	-0
1.28500	-0
1.28867	-0
1.29233	-0
1.29600	-0
1.29967	-0
1.30333	-1
1.30700	-1
1.31067	-1
1.31433	-1
1.31800	-1
1.32167	-2
1.32533	-2
1.32900	-2
1.33267	-2
1.33633	-2
1.34000	-2
1.34367	-1
1.34733	-1
1.35100	-1
1.35467	-1
1.35833	-0
1.36200	-0
1.36567	-0
1.36933	-1
1.37300	-1
1.37667	-1
1.38033	-1
1.38400	-1
1.38767	-1
1.39133	-2
1.39500	-2
1.39867	-2
1.40233	-2
1.40600	-2
1.40967	-2
1.41333	-2
1.41700	-2
1.42067	-2
1.42433	-2
1.42800	-1
1.43167	-1
1.43533	-1
1.43900	-1
1.44267	-1
1.44633	-0
1.45000	-0
1.45367	-0
1.45733	-0
1.46100	-0
1.46467	-0
1.46833	-0
1.47200	-0
1.47567	-1
1.47933	-1
1.48300	-1
1.48667	-1
1.49033	-1
1.49400	-1
1.49767	-1
1.50133	-1
1.50500	-2
1.50867	-2
1.51233	-1
1.51600	-1
1.51967	-1
1.52333	-1
1.52700	-1
1.53067	-2
1.53433	-2
1.53800	-2
1.54167	-2
1.54533	-2
1.54900	-2
1.55267	-2
1.55633	-2
1.56000	-3
1.56367	-3
1.56733	-3
1.57100	-3
1.57467	-3
1.57833	-3
1.58200	-3
1.58567	-3
1.58933	-4
1.59300	-4
1.59667	-5
1.60033	-6
1.60400	-7
1.60767	-8
1.61133	-9
1.61500	-11
1.61867	-13
1.62233	-15
1.62600	-17
1.62967	-20
1.63333	-22
1.63700	-25
1.64067	-29
1.64433	-32
1.64800	-36
1.65167	-40
1.65533	-44
1.65900	-47
1.66267	-51
1.66633	-56
1.67000	-60
1.67367	-65
1.67733	-70
1.68100	-75
1.68467	-80
1.68833	-85
1.69200	-89
1.69567	-93
1.69933	-96
1.70300	-99
1.70667	-101
1.71033	-103
1.71400	-104
1.71767	-105
1.72133	-106
1.72500	-107
1.72867	-107
1.73233	-107
1.73600	-107
1.73967	-107
1.74333	-108
1.74700	-109
1.75067	-109
1.75433	-110
1.75800	-111
1.76167	-112
1.76533	-113
1.76900	-113
1.77267	-114
1.77633	-114
1.78000	-113
1.78367	-113
1.78733	-112
1.79100	-112
1.79467	-111
1.79833	-110
1.80200	-110
1.80567	-109
1.80933	-109
1.81300	-109
1.81667	-110
1.82033	-110
1.82400	-111
1.82767	-112
1.83133	-113
1.83500	-113
1.83867	-114
1.84233	-114
1.84600	-114
1.84967	-114
1.85333	-113
1.85700	-113
1.86067	-113
1.86433	-113
1.86800	-114
1.87167	-114
1.87533	-114
1.87900	-114
1.88267	-114
1.88633	-114
1.89000	-114
1.89367	-114
1.89733	-114
1.90100	-114
1.90467	-113
1.90833	-113
1.91200	-113
1.91567	-112
1.91933	-111
1.92300	-110
1.92667	-110
1.93033	-109
1.93400	-108
1.93767	-108
1.94133	-108
1.94500	-107
1.94867	-108
1.95233	-108
1.95600	-108
1.95967	-108
1.96333	-108
1.96700	-108
1.97067	-108
1.97433	-109
1.97800	-109
1.98167	-110
1.98533	-110
1.98900	-110
1.99267	-110
1.99633	-110
2.00000	-110
2.00367	-109
2.00733	-109
2.01100	-109
2.01467	-109
2.01833	-108
2.02200	-108
2.02567	-107
2.02933	-106
2.03300	-106
2.03667	-105
2.04033	-104
2.04400	-103
2.04767	-103
2.05133	-103
2.05500	-103
2.05867	-103
2.06233	-102
2.06600	-102
2.06967	-102
2.07333	-102
2.07700	-102
2.08067	-101
2.08433	-101
2.08800	-101
2.09167	-101
2.09533	-101
2.09900	-101
2.10267	-101
2.10633	-101
2.11000	-101
2.11367	-101
2.11733	-100
2.12100	-99
2.12467	-98
2.12833	-97
2.13200	-96
2.13567	-95
2.13933	-94
2.14300	-93
2.14667	-93
2.15033	-92
2.15400	-92
2.15767	-92
2.16133	-92
2.16500	-92
2.16867	-92
2.17233	-92
2.17600	-92
2.17967	-93
2.18333	-93
2.18700	-93
2.19067	-93
2.19433	-92
2.19800	-92
2.20167	-91
2.20533	-91
2.20900	-90
2.21267	-89
2.21633	-88
2.22000	-87
2.22367	-86
2.22733	-86
2.23100	-86
2.23467	-86
2.23833	-85
2.24200	-85
2.24567	-85
2.24933	-85
2.25300	-85
2.25667	-85
2.26033	-85
2.26400	-84
2.26767	-84
2.27133	-84
2.27500	-83
2.27867	-82
2.28233	-82
2.28600	-82
2.28967	-82
2.29333	-83
2.29700	-84
2.30067	-85
2.30433	-85
2.30800	-85
2.31167	-84
2.31533	-84
2.31900	-83
2.32267	-82
2.32633	-81
2.33000	-80
2.33367	-79
2.33733	-79
2.34100	-78
2.34467	-77
2.34833	-77
2.35200	-76
2.35567	-74
2.35933	-73
2.36300	-71
2.36667	-69
2.37033	-66
2.37400	-63
2.37767	-60
2.38133	-56
2.38500	-53
2.38867	-49
2.39233	-44
2.39600	-40
2.39967	-35
2.40333	-31
2.40700	-27
2.41067	-23
2.41433	-20
2.41800	-17
2.42167	-15
2.42533	-13
2.42900	-11
2.43267	-10
2.43633	-9
2.44000	-8
2.44367	-8
2.44733	-7
2.45100	-6
2.45467	-5
2.45833	-4
2.46200	-4
2.46567	-3
2.46933	-2
2.47300	-1
2.47667	0
2.48033	1
2.48400	2
2.48767	3
2.49133	3
2.49500	4
2.49867	4
2.50233	5
2.50600	6
2.50967	7
2.51333	8
2.51700	9
2.52067	9
2.52433	10
2.52800	11
2.53167	11
2.53533	12
2.53900	12
2.54267	13
2.54633	13
2.55000	13
2.55367	13
2.55733	13
2.56100	13
2.56467	14
2.56833	15
2.57200	16
2.57567	16
2.57933	16
2.58300	16
2.58667	15
2.59033	15
2.59400	15
2.59767	15
2.60133	15
2.60500	16
2.60867	16
2.61233	16
2.61600	17
2.61967	17
2.62333	18
2.62700	19
2.63067	19
2.63433	20
2.63800	20
2.64167	20
2.64533	20
2.64900	20
2.65267	20
2.65633	20
2.66000	20
2.66367	20
2.66733	21
2.67100	21
2.67467	21
2.67833	20
2.68200	20
2.68567	20
2.68933	19
2.69300	19
2.69667	20
2.70033	20
2.70400	20
2.70767	21
2.71133	21
2.71500	22
2.71867	23
2.72233	23
2.72600	23
2.72967	24
2.73333	24
2.73700	24
2.74067	25
2.74433	26
2.74800	26
2.75167	26
2.75533	27
2.75900	27
2.76267	27
2.76633	26
2.77000	26
2.77367	26
2.77733	25
2.78100	25
2.78467	25
2.78833	25
2.79200	25
2.79567	25
2.79933	25
2.80300	25
2.80667	25
2.81033	25
2.81400	26
2.81767	26
2.82133	26
2.82500	26
2.82867	26
2.83233	26
2.83600	26
2.83967	26
2.84333	24
2.84700	22
2.85067	17
2.85433	10
2.85800	-0
2.86167	-15
2.86533	-34
2.86900	-58
2.87267	-88
2.87633	-123
2.88000	-164
2.88367	-210
2.88733	-262
2.89100	-319
2.89467	-381
2.89833	-448
2.90200	-518
2.90567	-592
2.90933	-669
2.91300	-749
2.91667	-832
2.92033	-917
2.92400	-1005
2.92767	-1095
2.93133	-1186
2.93500	-1279
2.93867	-1373
2.94233	-1458
2.94600	-1521
2.94967	-1552
2.95333	-1546
2.95700	-1505
2.96067	-1434
2.96433	-1343
2.96800	-1238
2.97167	-1127
2.97533	-1014
2.97900	-904
2.98267	-799
2.98633	-703
2.99000	-614
2.99367	-534
2.99733	-463
3.00100	-399
3.00467	-343
3.00833	-294
3.01200	-251
3.01567	-214
3.01933	-182
3.02300	-155
3.02667	-131
3.03033	-111
3.03400	-93
3.03767	-78
3.04133	-66
3.04500	-54
3.04867	-45
3.05233	-37
3.05600	-30
3.05967	-24
3.06333	-19
3.06700	-15
3.07067	-11
3.07433	-8
3.07800	-5
3.08167	-2
3.08533	0
3.08900	2
3.09267	4
3.09633	5
3.10000	7
3.10367	8
3.10733	9
3.11100	10
3.11467	11
3.11833	12
3.12200	12
3.12567	13
3.12933	14
3.13300	14
3.13667	15
3.14033	15
3.14400	15
3.14767	16
3.15133	16
3.15500	16
3.15867	17
3.16233	17
3.16600	17
3.16967	17
3.17333	18
3.17700	18
3.18067	18
3.18433	18
3.18800	18
3.19167	19
3.19533	19
3.19900	19
3.20267	19
3.20633	20
3.21000	20
3.21367	20
3.21733	20
3.22100	20
3.22467	20
3.22833	20
3.23200	20
3.23567	19
3.23933	19
3.24300	19
3.24667	19
3.25033	20
3.25400	20
3.25767	20
3.26133	20
3.26500	21
3.26867	21
3.27233	21
3.27600	22
3.27967	22
3.28333	23
3.28700	23
3.29067	24
3.29433	24
3.29800	25
3.30167	25
3.30533	26
3.30900	26
3.31267	26
3.31633	27
3.32000	27
3.32367	27
3.32733	28
3.33100	28
3.33467	28
3.33833	28
3.34200	28
3.34567	28
3.34933	29
3.35300	29
3.35667	28
3.36033	28
3.36400	28
3.36767	28
3.37133	28
3.37500	28
3.37867	27
3.38233	27
3.38600	27
3.38967	27
3.39333	26
3.39700	26
3.40067	26
3.40433	26
3.40800	26
3.41167	26
3.41533	26
3.41900	26
3.42267	26
3.42633	26
3.43000	25
3.43367	25
3.43733	25
3.44100	25
3.44467	25
3.44833	25
3.45200	25
3.45567	25
3.45933	25
3.46300	25
3.46667	25
3.47033	25
3.47400	25
3.47767	26
3.48133	26
3.48500	26
3.48867	26
3.49233	26
3.49600	26
3.49967	26
3.50333	26
3.50700	26
3.51067	26
3.51433	26
3.51800	26
3.52167	26
3.52533	26
3.52900	26
3.53267	27
3.53633	27
3.54000	27
3.54367	27
3.54733	27
3.55100	27
3.55467	27
3.55833	26
3.56200	26
3.56567	26
3.56933	26
3.57300	27
3.57667	27
3.58033	27
3.58400	27
3.58767	27
3.59133	27
3.59500	27
3.59867	27
3.60233	27
3.60600	27
3.60967	27
3.61333	26
3.61700	27
3.62067	27
3.62433	27
3.62800	27
3.63167	27
3.63533	27
3.63900	27
3.64267	27
3.64633	27
3.65000	27
3.65367	27
3.65733	27
3.66100	27
3.66467	27
3.66833	27
3.67200	28
3.67567	28
3.67933	28
3.68300	28
3.68667	28
3.69033	28
3.69400	28
3.69767	28
3.70133	28
3.70500	28
3.70867	28
3.71233	27
3.71600	27
3.71967	26
3.72333	26
3.72700	26
3.73067	26
3.73433	26
3.73800	26
3.74167	26
3.74533	26
3.74900	26
3.75267	26
3.75633	26
3.76000	26
3.76367	26
3.76733	26
3.77100	26
3.77467	26
3.77833	26
3.78200	25
3.78567	25
3.78933	25
3.79300	25
3.79667	25
3.80033	25
3.80400	25
3.80767	25
3.81133	25
3.81500	25
3.81867	25
3.82233	25
3.82600	25
3.82967	25
3.83333	25
3.83700	25
3.84067	25
3.84433	26
3.84800	26
3.85167	26
3.85533	26
3.85900	26
3.86267	26
3.86633	26
3.87000	27
3.87367	27
3.87733	27
3.88100	27
3.88467	27
3.88833	27
3.89200	27
3.89567	27
3.89933	27
3.90300	27
3.90667	27
3.91033	27
3.91400	27
3.91767	27
3.92133	27
3.92500	27
3.92867	27
3.93233	27
3.93600	27
3.93967	27
3.94333	27
3.94700	27
3.95067	27
3.95433	27
3.95800	27
3.96167	27
3.96533	26
3.96900	26
3.97267	26
3.97633	25
3.98000	25
3.98367	25
3.98733	25
3.99100	25
3.99467	25
3.99833	25

[Chromatogram (Ch3)]
Interval(msec)	220
# of Points	1091
Start Time(min)	0.002
End Time(min)	3.998
R.Time (min)	Intensity
0.00167	-0
0.00533	0
0.00900	-0
0.01267	1
0.01633	2
0.02000	0
0.02367	-2
0.02733	-4
0.03100	-3
0.03467	-2
0.03833	-1
0.04200	-1
0.04567	-0
0.04933	1
0.05300	5
0.05667	5
0.06033	4
0.06400	4
0.06767	1
0.07133	-1
0.07500	-3
0.07867	-5
0.08233	-4
0.08600	-3
0.08967	-2
0.09333	-0
0.09700	-0
0.10067	-0
0.10433	2
0.10800	3
0.11167	3
0.11533	2
0.11900	2
0.12267	2
0.12633	3
0.13000	5
0.13367	5
0.13733	3
0.14100	2
0.14467	1
0.14833	1
0.15200	1
0.15567	-0
0.15933	-1
0.16300	0
0.16667	1
0.17033	2
0.17400	2
0.17767	2
0.18133	3
0.18500	2
0.18867	1
0.19233	2
0.19600	3
0.19967	1
0.20333	-0
0.20700	-2
0.21067	-2
0.21433	-2
0.21800	1
0.22167	1
0.22533	2
0.22900	5
0.23267	6
0.23633	5
0.24000	5
0.24367	4
0.24733	1
0.25100	-0
0.25467	1
0.25833	1
0.26200	3
0.26567	3
0.26933	3
0.27300	2
0.27667	1
0.28033	-0
0.28400	1
0.28767	3
0.29133	3
0.29500	2
0.29867	3
0.30233	3
0.30600	3
0.30967	2
0.31333	0
0.31700	-2
0.32067	-2
0.32433	-1
0.32800	-1
0.33167	-2
0.33533	-2
0.33900	0
0.34267	2
0.34633	1
0.35000	1
0.35367	1
0.35733	2
0.36100	1
0.36467	-0
0.36833	0
0.37200	1
0.37567	0
0.37933	0
0.38300	-2
0.38667	-4
0.39033	-5
0.39400	-4
0.39767	-2
0.40133	1
0.40500	2
0.40867	0
0.41233	-2
0.41600	-2
0.41967	-2
0.42333	-0
0.42700	1
0.43067	2
0.43433	2
0.43800	1
0.44167	1
0.44533	1
0.44900	1
0.45267	2
0.45633	1
0.46000	-0
0.46367	1
0.46733	-1
0.47100	-3
0.47467	-2
0.47833	-0
0.48200	1
0.48567	-0
0.48933	-2
0.49300	-2
0.49667	-2
0.50033	-2
0.50400	-3
0.50767	0
0.51133	3
0.51500	5
0.51867	4
0.52233	4
0.52600	3
0.52967	1
0.53333	-1
0.53700	-1
0.54067	1
0.54433	4
0.54800	6
0.55167	5
0.55533	4
0.55900	5
0.56267	5
0.56633	0
0.57000	-4
0.57367	-4
0.57733	-2
0.58100	-1
0.58467	2
0.58833	6
0.59200	6
0.59567	5
0.59933	5
0.60300	3
0.60667	3
0.61033	3
0.61400	3
0.61767	4
0.62133	4
0.62500	3
0.62867	3
0.63233	2
0.63600	1
0.63967	1
0.64333	1
0.64700	0
0.65067	2
0.65433	1
0.65800	2
0.66167	5
0.66533	6
0.66900	7
0.67267	5
0.67633	5
0.68000	5
0.68367	5
0.68733	5
0.69100	5
0.69467	5
0.69833	4
0.70200	3
0.70567	1
0.70933	-0
0.71300	-2
0.71667	-1
0.72033	1
0.72400	2
0.72767	5
0.73133	7
0.73500	8
0.73867	6
0.74233	4
0.74600	3
0.74967	3
0.75333	4
0.75700	3
0.76067	2
0.76433	2
0.76800	6
0.77167	7
0.77533	7
0.77900	7
0.78267	6
0.78633	4
0.79000	5
0.79367	6
0.79733	8
0.80100	10
0.80467	10
0.80833	12
0.81200	13
0.81567	13
0.81933	10
0.82300	9
0.82667	10
0.83033	11
0.83400	11
0.83767	12
0.84133	13
0.84500	11
0.84867	9
0.85233	10
0.85600	10
0.85967	10
0.86333	10
0.86700	10
0.87067	10
0.87433	10
0.87800	8
0.88167	5
0.88533	4
0.88900	3
0.89267	3
0.89633	3
0.90000	4
0.90367	4
0.90733	4
0.91100	5
0.91467	6
0.91833	7
0.92200	6
0.92567	8
0.92933	10
0.93300	11
0.93667	10
0.94033	10
0.94400	9
0.94767	8
0.95133	7
0.95500	7
0.95867	6
0.96233	5
0.96600	5
0.96967	6
0.97333	9
0.97700	12
0.98067	14
0.98433	16
0.98800	19
0.99167	19
0.99533	17
0.99900	15
1.00267	13
1.00633	10
1.01000	9
1.01367	10
1.01733	11
1.02100	11
1.02467	11
1.02833	11
1.03200	11
1.03567	12
1.03933	12
1.04300	15
1.04667	15
1.05033	12
1.05400	13
1.05767	13
1.06133	14
1.06500	14
1.06867	13
1.07233	13
1.07600	14
1.07967	15
1.08333	16
1.08700	14
1.09067	12
1.09433	11
1.09800	11
1.10167	10
1.10533	10
1.10900	9
1.11267	8
1.11633	10
1.12000	13
1.12367	14
1.12733	14
1.13100	14
1.13467	13
1.13833	12
1.14200	13
1.14567	14
1.14933	15
1.15300	17
1.15667	16
1.16033	15
1.16400	14
1.16767	13
1.17133	10
1.17500	8
1.17867	8
1.18233	8
1.18600	9
1.18967	10
1.19333	12
1.19700	14
1.20067	15
1.20433	15
1.20800	13
1.21167	14
1.21533	15
1.21900	16
1.22267	16
1.22633	15
1.23000	14
1.23367	14
1.23733	15
1.24100	14
1.24467	13
1.24833	12
1.25200	12
1.25567	12
1.25933	13
1.26300	13
1.26667	11
1.27033	10
1.27400	10
1.27767	12
1.28133	13
1.28500	15
1.28867	15
1.29233	14
1.29600	12
1.29967	11
1.30333	11
1.30700	11
1.31067	11
1.31433	10
1.31800	10
1.32167	11
1.32533	11
1.32900	10
1.33267	11
1.33633	11
1.34000	11
1.34367	13
1.34733	12
1.35100	10
1.35467	10
1.35833	11
1.36200	13
1.36567	12
1.36933	12
1.37300	13
1.37667	13
1.38033	12
1.38400	13
1.38767	12
1.39133	13
1.39500	14
1.39867	14
1.40233	16
1.40600	16
1.40967	13
1.41333	13
1.41700	12
1.42067	11
1.42433	11
1.42800	12
1.43167	12
1.43533	14
1.43900	16
1.44267	17
1.44633	17
1.45000	15
1.45367	12
1.45733	11
1.46100	11
1.46467	11
1.46833	13
1.47200	13
1.47567	13
1.47933	13
1.48300	12
1.48667	11
1.49033	11
1.49400	12
1.49767	13
1.50133	14
1.50500	13
1.50867	12
1.51233	12
1.51600	13
1.51967	13
1.52333	13
1.52700	12
1.53067	10
1.53433	9
1.53800	9
1.54167	10
1.54533	9
1.54900	11
1.55267	14
1.55633	15
1.56000	15
1.56367	14
1.56733	13
1.57100	13
1.57467	15
1.57833	18
1.58200	21
1.58567	21
1.58933	20
1.59300	19
1.59667	16
1.60033	16
1.60400	16
1.60767	18
1.61133	20
1.61500	20
1.61867	19
1.62233	18
1.62600	17
1.62967	15
1.63333	15
1.63700	19
1.64067	22
1.64433	24
1.64800	27
1.65167	27
1.65533	28
1.65900	27
1.66267	25
1.66633	28
1.67000	32
1.67367	35
1.67733	38
1.68100	42
1.68467	43
1.68833	42
1.69200	40
1.69567	37
1.69933	35
1.70300	33
1.70667	33
1.71033	33
1.71400	33
1.71767	34
1.72133	33
1.72500	34
1.72867	34
1.73233	35
1.73600	38
1.73967	41
1.74333	40
1.74700	38
1.75067	37
1.75433	39
1.75800	41
1.76167	42
1.76533	43
1.76900	44
1.77267	41
1.77633	38
1.78000	36
1.78367	35
1.78733	36
1.79100	38
1.79467	40
1.79833	41
1.80200	41
1.80567	41
1.80933	41
1.81300	40
1.81667	41
1.82033	42
1.82400	45
1.82767	47
1.83133	47
1.83500	47
1.83867	47
1.84233	46
1.84600	45
1.84967	47
1.85333	51
1.85700	53
1.86067	56
1.86433	59
1.86800	60
1.87167	60
1.87533	61
1.87900	62
1.88267	62
1.88633	64
1.89000	64
1.89367	61
1.89733	60
1.90100	60
1.90467	61
1.90833	60
1.91200	60
1.91567	59
1.91933	60
1.92300	61
1.92667	64
1.93033	65
1.93400	67
1.93767	66
1.94133	68
1.94500	69
1.94867	72
1.95233	73
1.95600	74
1.95967	75
1.96333	76
1.96700	77
1.97067	76
1.97433	73
1.97800	71
1.98167	72
1.98533	74
1.98900	77
1.99267	78
1.99633	79
2.00000	82
2.00367	84
2.00733	86
2.01100	87
2.01467	88
2.01833	89
2.02200	90
2.02567	91
2.02933	92
2.03300	92
2.03667	94
2.04033	94
2.04400	96
2.04767	96
2.05133	99
2.05500	101
2.05867	102
2.06233	103
2.06600	105
2.06967	106
2.07333	105
2.07700	105
2.08067	104
2.08433	104
2.08800	104
2.09167	106
2.09533	109
2.09900	114
2.10267	118
2.10633	120
2.11000	118
2.11367	116
2.11733	117
2.12100	115
2.12467	115
2.12833	116
2.13200	118
2.13567	120
2.13933	122
2.14300	125
2.14667	129
2.15033	132
2.15400	133
2.15767	133
2.16133	135
2.16500	135
2.16867	136
2.17233	136
2.17600	137
2.17967	139
2.18333	143
2.18700	146
2.19067	149
2.19433	152
2.19800	155
2.20167	159
2.20533	163
2.20900	164
2.21267	164
2.21633	162
2.22000	162
2.22367	162
2.22733	163
2.23100	166
2.23467	167
2.23833	168
2.24200	171
2.24567	172
2.24933	175
2.25300	177
2.25667	178
2.26033	177
2.26400	177
2.26767	177
2.27133	178
2.27500	179
2.27867	179
2.28233	182
2.28600	184
2.28967	187
2.29333	190
2.29700	194
2.30067	196
2.30433	201
2.30800	204
2.31167	204
2.31533	205
2.31900	206
2.32267	206
2.32633	205
2.33000	206
2.33367	208
2.33733	210
2.34100	211
2.34467	213
2.34833	216
2.35200	217
2.35567	218
2.35933	220
2.36300	222
2.36667	225
2.37033	226
2.37400	228
2.37767	229
2.38133	229
2.38500	229
2.38867	228
2.39233	228
2.39600	230
2.39967	233
2.40333	236
2.40700	238
2.41067	241
2.41433	246
2.41800	247
2.42167	247
2.42533	246
2.42900	248
2.43267	249
2.43633	249
2.44000	251
2.44367	302
2.44733	441
2.45100	594
2.45467	721
2.45833	792
2.46200	799
2.46567	770
2.46933	733
2.47300	704
2.47667	687
2.48033	672
2.48400	647
2.48767	611
2.49133	569
2.49500	528
2.49867	492
2.50233	464
2.50600	445
2.50967	437
2.51333	443
2.51700	461
2.52067	483
2.52433	505
2.52800	520
2.53167	522
2.53533	508
2.53900	482
2.54267	453
2.54633	422
2.55000	392
2.55367	367
2.55733	348
2.56100	332
2.56467	320
2.56833	310
2.57200	303
2.57567	297
2.57933	294
2.58300	294
2.58667	294
2.59033	296
2.59400	299
2.59767	303
2.60133	306
2.60500	309
2.60867	311
2.61233	309
2.61600	305
2.61967	297
2.62333	290
2.62700	283
2.63067	274
2.63433	265
2.63800	257
2.64167	247
2.64533	234
2.64900	221
2.65267	209
2.65633	197
2.66000	186
2.66367	171
2.66733	159
2.67100	150
2.67467	143
2.67833	137
2.68200	131
2.68567	127
2.68933	123
2.69300	122
2.69667	123
2.70033	125
2.70400	126
2.70767	127
2.71133	128
2.71500	132
2.71867	133
2.72233	135
2.72600	135
2.72967	137
2.73333	140
2.73700	143
2.74067	148
2.74433	152
2.74800	153
2.75167	154
2.75533	157
2.75900	162
2.76267	167
2.76633	172
2.77000	176
2.77367	182
2.77733	186
2.78100	187
2.78467	188
2.78833	191
2.79200	194
2.79567	195
2.79933	199
2.80300	203
2.80667	206
2.81033	210
2.81400	217
2.81767	229
2.82133	251
2.82500	300
2.82867	405
2.83233	615
2.83600	993
2.83967	1599
2.84333	2484
2.84700	3670
2.85067	5131
2.85433	6799
2.85800	8569
2.86167	10317
2.86533	11911
2.86900	13227
2.87267	14171
2.87633	14700
2.88000	14814
2.88367	14556
2.88733	13993
2.89100	13210
2.89467	12284
2.89833	11280
2.90200	10254
2.90567	9244
2.90933	8283
2.91300	7385
2.91667	6557
2.92033	5803
2.92400	5123
2.92767	4514
2.93133	3972
2.93500	3492
2.93867	3066
2.94233	2691
2.94600	2361
2.94967	2072
2.95333	1819
2.95700	1598
2.96067	1406
2.96433	1239
2.96800	1096
2.97167	971
2.97533	862
2.97900	768
2.98267	688
2.98633	618
2.99000	558
2.99367	505
2.99733	459
3.00100	421
3.00467	389
3.00833	361
3.01200	334
3.01567	311
3.01933	295
3.02300	282
3.02667	272
3.03033	262
3.03400	251
3.03767	242
3.04133	234
3.04500	229
3.04867	222
3.05233	216
3.05600	211
3.05967	208
3.06333	205
3.06700	202
3.07067	201
3.07433	198
3.07800	194
3.08167	191
3.08533	190
3.08900	190
3.09267	191
3.09633	191
3.10000	191
3.10367	189
3.10733	187
3.11100	184
3.11467	183
3.11833	184
3.12200	184
3.12567	184
3.12933	184
3.13300	184
3.13667	184
3.14033	184
3.14400	184
3.14767	187
3.15133	191
3.15500	192
3.15867	192
3.16233	191
3.16600	192
3.16967	193
3.17333	193
3.17700	194
3.18067	194
3.18433	193
3.18800	192
3.19167	191
3.19533	191
3.19900	192
3.20267	193
3.20633	194
3.21000	196
3.21367	198
3.21733	199
3.22100	200
3.22467	189
3.22833	163
3.23200	151
3.23567	162
3.23933	192
3.24300	237
3.24667	289
3.25033	340
3.25400	390
3.25767	436
3.26133	479
3.26500	512
3.26867	543
3.27233	571
3.27600	595
3.27967	616
3.28333	635
3.28700	653
3.29067	669
3.29433	685
3.29800	699
3.30167	712
3.30533	723
3.30900	735
3.31267	747
3.31633	756
3.32000	763
3.32367	768
3.32733	773
3.33100	781
3.33467	788
3.33833	796
3.34200	802
3.34567	808
3.34933	814
3.35300	819
3.35667	823
3.36033	828
3.36400	835
3.36767	841
3.37133	845
3.37500	851
3.37867	855
3.38233	857
3.38600	861
3.38967	865
3.39333	869
3.39700	870
3.40067	871
3.40433	871
3.40800	873
3.41167	877
3.41533	882
3.41900	882
3.42267	883
3.42633	882
3.43000	880
3.43367	878
3.43733	875
3.44100	872
3.44467	869
3.44833	868
3.45200	869
3.45567	868
3.45933	866
3.46300	863
3.46667	859
3.47033	856
3.47400	852
3.47767	847
3.48133	844
3.48500	843
3.48867	842
3.49233	840
3.49600	838
3.49967	833
3.50333	829
3.50700	827
3.51067	823
3.51433	821
3.51800	820
3.52167	818
3.52533	815
3.52900	813
3.53267	813
3.53633	813
3.54000	812
3.54367	811
3.54733	810
3.55100	809
3.55467	807
3.55833	805
3.56200	804
3.56567	804
3.56933	802
3.57300	803
3.57667	804
3.58033	805
3.58400	806
3.58767	805
3.59133	803
3.59500	800
3.59867	800
3.60233	801
3.60600	802
3.60967	804
3.61333	807
3.61700	809
3.62067	811
3.62433	810
3.62800	807
3.63167	803
3.63533	802
3.63900	800
3.64267	798
3.64633	796
3.65000	795
3.65367	793
3.65733	791
3.66100	790
3.66467	789
3.66833	786
3.67200	786
3.67567	786
3.67933	785
3.68300	785
3.68667	785
3.69033	784
3.69400	784
3.69767	782
3.70133	780
3.70500	778
3.70867	779
3.71233	778
3.71600	776
3.71967	775
3.72333	774
3.72700	774
3.73067	772
3.73433	770
3.73800	766
3.74167	763
3.74533	761
3.74900	762
3.75267	762
3.75633	760
3.76000	760
3.76367	760
3.76733	760
3.77100	759
3.77467	758
3.77833	755
3.78200	749
3.78567	745
3.78933	741
3.79300	739
3.79667	738
3.80033	735
3.80400	733
3.80767	732
3.81133	733
3.81500	733
3.81867	732
3.82233	728
3.82600	725
3.82967	723
3.83333	720
3.83700	717
3.84067	714
3.84433	710
3.84800	705
3.85167	702
3.85533	701
3.85900	698
3.86267	695
3.86633	691
3.87000	690
3.87367	690
3.87733	691
3.88100	691
3.88467	688
3.88833	686
3.89200	685
3.89567	684
3.89933	684
3.90300	682
3.90667	681
3.91033	676
3.91400	671
3.91767	668
3.92133	669
3.92500	669
3.92867	667
3.93233	665
3.93600	662
3.93967	659
3.94333	658
3.94700	658
3.95067	658
3.95433	658
3.95800	655
3.96167	653
3.96533	651
3.96900	650
3.97267	647
3.97633	645
3.98000	644
3.98367	642
3.98733	640
3.99100	636
3.99467	633
3.99833	629

[Status Trace (Column Oven Temperature)]
Interval(msec)	1000
# of Points	240
Start Time(min)	0.009
End Time(min)	3.993
Intensity Units	
Intensity Multiplier	1
R.Time (min)	Intensity
0.00937	35.03
0.02603	35.03
0.04270	35.03
0.05937	35.04
0.07603	35.05
0.09270	35.06
0.10937	35.06
0.12603	35.07
0.14270	35.07
0.15937	35.07
0.17603	35.05
0.19270	35.06
0.20937	35.06
0.22603	35.06
0.24270	35.06
0.25937	35.06
0.27603	35.06
0.29270	35.05
0.30937	35.05
0.32603	35.03
0.34270	35.03
0.35937	35.04
0.37603	35.03
0.39270	35.04
0.40937	35.03
0.42603	35.03
0.44270	35.03
0.45937	35.02
0.47603	35.00
0.49270	35.00
0.50937	34.99
0.52603	34.98
0.54270	34.99
0.55937	34.99
0.57603	34.99
0.59270	34.99
0.60937	34.99
0.62603	34.99
0.64270	35.01
0.65937	35.02
0.67603	35.03
0.69270	35.03
0.70937	35.03
0.72603	35.02
0.74270	35.02
0.75937	35.02
0.77603	35.02
0.79270	35.01
0.80937	35.02
0.82603	35.01
0.84270	35.00
0.85937	35.00
0.87603	34.99
0.89270	34.98
0.90937	34.97
0.92603	34.98
0.94270	34.99
0.95937	34.98
0.97603	34.99
0.99270	34.99
1.00937	34.98
1.02603	34.99
1.04270	34.99
1.05937	35.01
1.07603	35.01
1.09270	35.00
1.10937	35.00
1.12603	34.99
1.14270	34.99
1.15937	35.00
1.17603	35.00
1.19270	35.00
1.20937	35.01
1.22603	35.01
1.24270	35.01
1.25937	35.00
1.27603	35.00
1.29270	35.00
1.30937	35.01
1.32603	35.01
1.34270	35.00
1.35937	35.00
1.37603	35.00
1.39270	35.00
1.40937	35.00
1.42603	34.99
1.44270	34.98
1.45937	34.98
1.47603	34.97
1.49270	34.98
1.50937	34.99
1.52603	34.99
1.54270	34.99
1.55937	35.01
1.57603	35.01
1.59270	35.03
1.60937	35.09
1.62603	35.21
1.64270	35.40
1.65937	35.65
1.67603	35.99
1.69270	36.36
1.70937	36.71
1.72603	37.04
1.74270	37.37
1.75937	37.72
1.77603	38.05
1.79270	38.36
1.80937	38.67
1.82603	39.01
1.84270	39.35
1.85937	39.67
1.87603	40.00
1.89270	40.33
1.90937	40.67
1.92603	40.98
1.94270	41.31
1.95937	41.64
1.97603	41.97
1.99270	42.30
2.00937	42.63
2.02603	42.96
2.04270	43.29
2.05937	43.61
2.07603	43.93
2.09270	44.27
2.10937	44.61
2.12603	44.93
2.14270	45.25
2.15937	45.57
2.17603	45.91
2.19270	46.23
2.20937	46.55
2.22603	46.88
2.24270	47.20
2.25937	47.52
2.27603	47.84
2.29270	48.22
2.30937	48.56
2.32603	48.88
2.34270	49.20
2.35937	49.45
2.37603	49.60
2.39270	49.64
2.40937	49.64
2.42603	49.65
2.44270	49.65
2.45937	49.66
2.47603	49.65
2.49270	49.68
2.50937	49.68
2.52603	49.70
2.54270	49.73
2.55937	49.73
2.57603	49.76
2.59270	49.78
2.60937	49.81
2.62603	49.82
2.64270	49.83
2.65937	49.83
2.67603	49.85
2.69270	49.86
2.70937	49.86
2.72603	49.86
2.74270	49.85
2.75937	49.86
2.77603	49.88
2.79270	49.89
2.80937	49.89
2.82603	49.90
2.84270	49.90
2.85937	49.91
2.87603	49.91
2.89270	49.93
2.90937	49.94
2.92603	49.95
2.94270	49.98
2.95937	50.00
2.97603	50.01
2.99270	50.03
3.00937	50.04
3.02603	50.04
3.04270	50.04
3.05937	50.04
3.07603	50.05
3.09270	50.05
3.10937	50.06
3.12603	50.06
3.14270	50.06
3.15937	50.07
3.17603	50.06
3.19270	50.07
3.20937	50.08
3.22603	50.10
3.24270	50.11
3.25937	50.11
3.27603	50.10
3.29270	50.09
3.30937	50.08
3.32603	50.05
3.34270	50.04
3.35937	50.04
3.37603	50.04
3.39270	50.04
3.40937	50.04
3.42603	50.04
3.44270	50.05
3.45937	50.06
3.47603	50.06
3.49270	50.06
3.50937	50.06
3.52603	50.06
3.54270	50.07
3.55937	50.07
3.57603	50.07
3.59270	50.08
3.60937	50.07
3.62603	50.07
3.64270	50.07
3.65937	50.06
3.67603	50.05
3.69270	50.05
3.70937	50.07
3.72603	50.07
3.74270	50.07
3.75937	50.07
3.77603	50.07
3.79270	50.08
3.80937	50.08
3.82603	50.09
3.84270	50.08
3.85937	50.08
3.87603	50.07
3.89270	50.07
3.90937	50.07
3.92603	50.07
3.94270	50.06
3.95937	50.07
3.97603	50.08
3.99270	50.08

[Status Trace (Injection Unit Temperature)]
Interval(msec)	1000
# of Points	240
Start Time(min)	0.009
End Time(min)	3.993
Intensity Units	
Intensity Multiplier	1
R.Time (min)	Intensity
0.00937	99.98
0.02603	99.97
0.04270	99.98
0.05937	99.97
0.07603	99.98
0.09270	99.98
0.10937	99.98
0.12603	99.98
0.14270	99.97
0.15937	99.98
0.17603	99.98
0.19270	99.98
0.20937	99.98
0.22603	99.98
0.24270	99.98
0.25937	99.98
0.27603	99.98
0.29270	99.98
0.30937	99.98
0.32603	99.97
0.34270	99.99
0.35937	99.98
0.37603	99.98
0.39270	99.98
0.40937	99.98
0.42603	99.98
0.44270	99.98
0.45937	99.98
0.47603	99.98
0.49270	99.98
0.50937	99.98
0.52603	99.98
0.54270	99.98
0.55937	99.98
0.57603	99.98
0.59270	99.98
0.60937	99.98
0.62603	99.98
0.64270	99.99
0.65937	99.97
0.67603	99.98
0.69270	99.98
0.70937	99.99
0.72603	99.98
0.74270	99.98
0.75937	99.98
0.77603	99.98
0.79270	99.98
0.80937	99.99
0.82603	99.99
0.84270	99.98
0.85937	99.98
0.87603	99.99
0.89270	99.99
0.90937	99.98
0.92603	99.98
0.94270	99.98
0.95937	99.98
0.97603	99.98
0.99270	99.98
1.00937	99.98
1.02603	99.98
1.04270	99.97
1.05937	99.98
1.07603	99.98
1.09270	99.99
1.10937	99.99
1.12603	99.98
1.14270	99.99
1.15937	99.98
1.17603	99.97
1.19270	99.98
1.20937	99.98
1.22603	99.98
1.24270	99.98
1.25937	99.98
1.27603	99.98
1.29270	99.98
1.30937	99.98
1.32603	99.98
1.34270	99.98
1.35937	99.98
1.37603	99.98
1.39270	99.98
1.40937	99.98
1.42603	99.98
1.44270	99.98
1.45937	99.98
1.47603	99.98
1.49270	99.99
1.50937	99.99
1.52603	99.98
1.54270	99.98
1.55937	99.98
1.57603	99.98
1.59270	99.98
1.60937	99.98
1.62603	99.98
1.64270	99.98
1.65937	99.98
1.67603	99.98
1.69270	99.98
1.70937	99.98
1.72603	99.99
1.74270	99.99
1.75937	99.98
1.77603	99.98
1.79270	99.98
1.80937	99.98
1.82603	99.98
1.84270	99.97
1.85937	99.98
1.87603	99.98
1.89270	99.98
1.90937	99.98
1.92603	99.98
1.94270	99.98
1.95937	99.98
1.97603	99.97
1.99270	99.97
2.00937	99.97
2.02603	99.98
2.04270	99.97
2.05937	99.97
2.07603	99.97
2.09270	99.97
2.10937	99.97
2.12603	99.97
2.14270	99.97
2.15937	99.96
2.17603	99.97
2.19270	99.97
2.20937	99.96
2.22603	99.96
2.24270	99.96
2.25937	99.95
2.27603	99.96
2.29270	99.96
2.30937	99.96
2.32603	99.96
2.34270	99.95
2.35937	99.96
2.37603	99.96
2.39270	99.95
2.40937	99.96
2.42603	99.96
2.44270	99.96
2.45937	99.96
2.47603	99.96
2.49270	99.96
2.50937	99.96
2.52603	99.96
2.54270	99.96
2.55937	99.97
2.57603	99.97
2.59270	99.97
2.60937	99.97
2.62603	99.98
2.64270	99.98
2.65937	99.97
2.67603	99.98
2.69270	99.98
2.70937	99.98
2.72603	99.99
2.74270	99.99
2.75937	99.99
2.77603	99.99
2.79270	99.99
2.80937	100.00
2.82603	100.00
2.84270	100.00
2.85937	100.00
2.87603	100.01
2.89270	100.01
2.90937	100.01
2.92603	100.01
2.94270	100.01
2.95937	100.02
2.97603	100.02
2.99270	100.02
3.00937	100.02
3.02603	100.02
3.04270	100.02
3.05937	100.02
3.07603	100.02
3.09270	100.02
3.10937	100.03
3.12603	100.03
3.14270	100.03
3.15937	100.03
3.17603	100.03
3.19270	100.03
3.20937	100.03
3.22603	100.03
3.24270	100.03
3.25937	100.03
3.27603	100.04
3.29270	100.03
3.30937	100.03
3.32603	100.04
3.34270	100.04
3.35937	100.04
3.37603	100.03
3.39270	100.03
3.40937	100.04
3.42603	100.04
3.44270	100.04
3.45937	100.04
3.47603	100.04
3.49270	100.03
3.50937	100.03
3.52603	100.04
3.54270	100.04
3.55937	100.03
3.57603	100.03
3.59270	100.04
3.60937	100.04
3.62603	100.04
3.64270	100.04
3.65937	100.04
3.67603	100.04
3.69270	100.04
3.70937	100.04
3.72603	100.04
3.74270	100.04
3.75937	100.04
3.77603	100.04
3.79270	100.04
3.80937	100.04
3.82603	100.04
3.84270	100.04
3.85937	100.05
3.87603	100.05
3.89270	100.05
3.90937	100.05
3.92603	100.05
3.94270	100.05
3.95937	100.05
3.97603	100.05
3.99270	100.05

[Status Trace (Carrier Gas Pressure)]
Interval(msec)	1000
# of Points	240
Start Time(min)	0.009
End Time(min)	3.993
Intensity Units	
Intensity Multiplier	1
R.Time (min)	Intensity
0.00937	58.00
0.02603	55.25
0.04270	57.32
0.05937	59.47
0.07603	59.27
0.09270	58.03
0.10937	57.99
0.12603	58.01
0.14270	58.01
0.15937	58.00
0.17603	58.00
0.19270	58.00
0.20937	58.00
0.22603	58.00
0.24270	58.00
0.25937	58.00
0.27603	58.00
0.29270	58.00
0.30937	58.00
0.32603	58.00
0.34270	58.00
0.35937	58.00
0.37603	58.00
0.39270	58.00
0.40937	58.00
0.42603	58.00
0.44270	58.00
0.45937	58.00
0.47603	58.00
0.49270	58.00
0.50937	58.00
0.52603	58.00
0.54270	58.00
0.55937	58.00
0.57603	58.00
0.59270	58.00
0.60937	58.00
0.62603	58.00
0.64270	58.00
0.65937	58.00
0.67603	58.00
0.69270	58.00
0.70937	58.00
0.72603	58.00
0.74270	58.00
0.75937	58.00
0.77603	58.00
0.79270	58.00
0.80937	58.00
0.82603	58.00
0.84270	58.00
0.85937	58.00
0.87603	58.00
0.89270	58.00
0.90937	58.00
0.92603	58.00
0.94270	58.00
0.95937	58.00
0.97603	58.00
0.99270	58.00
1.00937	58.00
1.02603	58.00
1.04270	58.00
1.05937	58.00
1.07603	58.00
1.09270	58.00
1.10937	58.00
1.12603	58.00
1.14270	58.00
1.15937	58.00
1.17603	58.00
1.19270	58.00
1.20937	58.00
1.22603	58.00
1.24270	58.00
1.25937	58.00
1.27603	58.00
1.29270	58.00
1.30937	58.00
1.32603	58.00
1.34270	58.00
1.35937	58.00
1.37603	58.00
1.39270	58.00
1.40937	58.00
1.42603	58.00
1.44270	58.00
1.45937	58.00
1.47603	58.00
1.49270	58.00
1.50937	58.00
1.52603	58.00
1.54270	58.00
1.55937	58.00
1.57603	58.00
1.59270	58.00
1.60937	58.00
1.62603	58.00
1.64270	58.00
1.65937	58.00
1.67603	58.01
1.69270	58.01
1.70937	58.00
1.72603	58.00
1.74270	58.00
1.75937	58.00
1.77603	58.00
1.79270	58.00
1.80937	58.00
1.82603	58.00
1.84270	58.00
1.85937	58.00
1.87603	58.00
1.89270	58.00
1.90937	58.00
1.92603	58.00
1.94270	58.00
1.95937	58.00
1.97603	58.00
1.99270	58.00
2.00937	58.00
2.02603	58.00
2.04270	58.00
2.05937	58.00
2.07603	58.00
2.09270	58.00
2.10937	58.00
2.12603	58.00
2.14270	58.00
2.15937	58.00
2.17603	58.00
2.19270	58.00
2.20937	58.00
2.22603	58.00
2.24270	58.00
2.25937	58.00
2.27603	58.00
2.29270	58.00
2.30937	58.00
2.32603	58.00
2.34270	58.00
2.35937	58.00
2.37603	57.99
2.39270	57.99
2.40937	57.99
2.42603	58.00
2.44270	58.00
2.45937	58.00
2.47603	58.00
2.49270	58.00
2.50937	57.99
2.52603	57.99
2.54270	58.00
2.55937	58.00
2.57603	58.00
2.59270	58.00
2.60937	58.00
2.62603	58.00
2.64270	58.00
2.65937	58.00
2.67603	58.00
2.69270	58.00
2.70937	58.00
2.72603	58.00
2.74270	58.00
2.75937	58.00
2.77603	58.00
2.79270	58.00
2.80937	58.00
2.82603	58.00
2.84270	58.00
2.85937	58.00
2.87603	58.00
2.89270	58.00
2.90937	58.00
2.92603	58.00
2.94270	58.00
2.95937	58.00
2.97603	58.00
2.99270	58.00
3.00937	58.00
3.02603	58.00
3.04270	58.00
3.05937	58.00
3.07603	58.00
3.09270	58.00
3.10937	58.00
3.12603	58.00
3.14270	58.00
3.15937	58.00
3.17603	58.00
3.19270	58.00
3.20937	58.00
3.22603	58.00
3.24270	58.00
3.25937	58.00
3.27603	58.00
3.29270	58.00
3.30937	58.00
3.32603	58.00
3.34270	58.00
3.35937	58.00
3.37603	58.00
3.39270	58.00
3.40937	58.00
3.42603	58.00
3.44270	58.00
3.45937	58.00
3.47603	58.00
3.49270	58.00
3.50937	58.00
3.52603	58.00
3.54270	58.00
3.55937	58.00
3.57603	58.00
3.59270	58.00
3.60937	58.00
3.62603	58.00
3.64270	58.00
3.65937	58.00
3.67603	58.00
3.69270	58.00
3.70937	58.00
3.72603	58.00
3.74270	58.00
3.75937	58.00
3.77603	58.00
3.79270	58.00
3.80937	58.00
3.82603	58.00
3.84270	58.00
3.85937	58.00
3.87603	58.00
3.89270	58.00
3.90937	58.00
3.92603	58.00
3.94270	58.00
3.95937	58.00
3.97603	58.00
3.99270	58.00

[Status Trace (Carrier Gas Flow)]
Interval(msec)	1000
# of Points	240
Start Time(min)	0.009
End Time(min)	3.993
Intensity Units	
Intensity Multiplier	1
R.Time (min)	Intensity
0.00937	34.52
0.02603	34.54
0.04270	34.55
0.05937	34.55
0.07603	34.51
0.09270	34.52
0.10937	34.52
0.12603	34.52
0.14270	34.52
0.15937	34.52
0.17603	34.52
0.19270	34.52
0.20937	34.52
0.22603	34.52
0.24270	34.52
0.25937	34.52
0.27603	34.51
0.29270	34.52
0.30937	34.52
0.32603	34.52
0.34270	34.52
0.35937	34.52
0.37603	34.52
0.39270	34.51
0.40937	34.52
0.42603	34.52
0.44270	34.52
0.45937	34.52
0.47603	34.52
0.49270	34.52
0.50937	34.52
0.52603	34.52
0.54270	34.52
0.55937	34.52
0.57603	34.52
0.59270	34.52
0.60937	34.52
0.62603	34.52
0.64270	34.52
0.65937	34.52
0.67603	34.52
0.69270	34.52
0.70937	34.52
0.72603	34.52
0.74270	34.52
0.75937	34.52
0.77603	34.52
0.79270	34.52
0.80937	34.52
0.82603	34.52
0.84270	34.52
0.85937	34.52
0.87603	34.52
0.89270	34.52
0.90937	34.52
0.92603	34.52
0.94270	34.53
0.95937	34.52
0.97603	34.53
0.99270	34.51
1.00937	34.52
1.02603	34.52
1.04270	34.52
1.05937	34.52
1.07603	34.52
1.09270	34.52
1.10937	34.52
1.12603	34.51
1.14270	34.52
1.15937	34.52
1.17603	34.52
1.19270	34.52
1.20937	34.52
1.22603	34.52
1.24270	34.52
1.25937	34.52
1.27603	34.52
1.29270	34.51
1.30937	34.52
1.32603	34.52
1.34270	34.52
1.35937	34.52
1.37603	34.52
1.39270	34.52
1.40937	34.51
1.42603	34.52
1.44270	34.52
1.45937	34.52
1.47603	34.52
1.49270	34.52
1.50937	34.52
1.52603	34.53
1.54270	34.52
1.55937	34.51
1.57603	34.52
1.59270	34.52
1.60937	34.52
1.62603	34.52
1.64270	34.52
1.65937	34.52
1.67603	34.52
1.69270	34.52
1.70937	34.52
1.72603	34.52
1.74270	34.51
1.75937	34.51
1.77603	34.52
1.79270	34.52
1.80937	34.52
1.82603	34.52
1.84270	34.52
1.85937	34.52
1.87603	34.52
1.89270	34.52
1.90937	34.52
1.92603	34.52
1.94270	34.52
1.95937	34.52
1.97603	34.52
1.99270	34.52
2.00937	34.51
2.02603	34.52
2.04270	34.53
2.05937	34.52
2.07603	34.52
2.09270	34.52
2.10937	34.52
2.12603	34.52
2.14270	34.52
2.15937	34.52
2.17603	34.52
2.19270	34.52
2.20937	34.52
2.22603	34.52
2.24270	34.52
2.25937	34.51
2.27603	34.51
2.29270	34.52
2.30937	34.52
2.32603	34.52
2.34270	34.53
2.35937	34.53
2.37603	34.52
2.39270	34.52
2.40937	34.52
2.42603	34.52
2.44270	34.51
2.45937	34.51
2.47603	34.52
2.49270	34.51
2.50937	34.52
2.52603	34.51
2.54270	34.52
2.55937	34.52
2.57603	34.52
2.59270	34.51
2.60937	34.52
2.62603	34.52
2.64270	34.52
2.65937	34.51
2.67603	34.52
2.69270	34.52
2.70937	34.52
2.72603	34.52
2.74270	34.52
2.75937	34.52
2.77603	34.51
2.79270	34.52
2.80937	34.52
2.82603	34.52
2.84270	34.51
2.85937	34.52
2.87603	34.52
2.89270	34.52
2.90937	34.52
2.92603	34.52
2.94270	34.52
2.95937	34.52
2.97603	34.52
2.99270	34.52
3.00937	34.52
3.02603	34.52
3.04270	34.52
3.05937	34.52
3.07603	34.52
3.09270	34.52
3.10937	34.52
3.12603	34.52
3.14270	34.52
3.15937	34.52
3.17603	34.52
3.19270	34.52
3.20937	34.51
3.22603	34.53
3.24270	34.51
3.25937	34.52
3.27603	34.52
3.29270	34.52
3.30937	34.52
3.32603	34.52
3.34270	34.52
3.35937	34.52
3.37603	34.52
3.39270	34.51
3.40937	34.51
3.42603	34.52
3.44270	34.52
3.45937	34.52
3.47603	34.52
3.49270	34.52
3.50937	34.52
3.52603	34.52
3.54270	34.51
3.55937	34.52
3.57603	34.52
3.59270	34.52
3.60937	34.52
3.62603	34.52
3.64270	34.52
3.65937	34.51
3.67603	34.52
3.69270	34.52
3.70937	34.52
3.72603	34.52
3.74270	34.52
3.75937	34.52
3.77603	34.52
3.79270	34.51
3.80937	34.51
3.82603	34.53
3.84270	34.51
3.85937	34.52
3.87603	34.52
3.89270	34.52
3.90937	34.52
3.92603	34.51
3.94270	34.52
3.95937	34.53
3.97603	34.51
3.99270	34.53

[Status Trace (Column Flow)]
Interval(msec)	1000
# of Points	240
Start Time(min)	0.009
End Time(min)	3.993
Intensity Units	
Intensity Multiplier	1
R.Time (min)	Intensity
0.00937	5.55
0.02603	5.23
0.04270	5.47
0.05937	5.72
0.07603	5.70
0.09270	5.55
0.10937	5.55
0.12603	5.55
0.14270	5.55
0.15937	5.55
0.17603	5.55
0.19270	5.55
0.20937	5.55
0.22603	5.55
0.24270	5.55
0.25937	5.55
0.27603	5.55
0.29270	5.55
0.30937	5.55
0.32603	5.55
0.34270	5.55
0.35937	5.55
0.37603	5.55
0.39270	5.55
0.40937	5.55
0.42603	5.55
0.44270	5.55
0.45937	5.55
0.47603	5.55
0.49270	5.55
0.50937	5.55
0.52603	5.55
0.54270	5.55
0.55937	5.55
0.57603	5.55
0.59270	5.55
0.60937	5.55
0.62603	5.55
0.64270	5.55
0.65937	5.55
0.67603	5.55
0.69270	5.55
0.70937	5.55
0.72603	5.55
0.74270	5.55
0.75937	5.55
0.77603	5.55
0.79270	5.55
0.80937	5.55
0.82603	5.55
0.84270	5.55
0.85937	5.55
0.87603	5.55
0.89270	5.55
0.90937	5.55
0.92603	5.55
0.94270	5.55
0.95937	5.55
0.97603	5.55
0.99270	5.55
1.00937	5.55
1.02603	5.55
1.04270	5.55
1.05937	5.55
1.07603	5.55
1.09270	5.55
1.10937	5.55
1.12603	5.55
1.14270	5.55
1.15937	5.55
1.17603	5.55
1.19270	5.55
1.20937	5.55
1.22603	5.55
1.24270	5.55
1.25937	5.55
1.27603	5.55
1.29270	5.55
1.30937	5.55
1.32603	5.55
1.34270	5.55
1.35937	5.55
1.37603	5.55
1.39270	5.55
1.40937	5.55
1.42603	5.55
1.44270	5.55
1.45937	5.55
1.47603	5.55
1.49270	5.55
1.50937	5.55
1.52603	5.55
1.54270	5.55
1.55937	5.55
1.57603	5.55
1.59270	5.55
1.60937	5.55
1.62603	5.55
1.64270	5.54
1.65937	5.53
1.67603	5.52
1.69270	5.51
1.70937	5.50
1.72603	5.49
1.74270	5.48
1.75937	5.47
1.77603	5.46
1.79270	5.45
1.80937	5.44
1.82603	5.43
1.84270	5.42
1.85937	5.41
1.87603	5.40
1.89270	5.39
1.90937	5.38
1.92603	5.37
1.94270	5.36
1.95937	5.35
1.97603	5.34
1.99270	5.33
2.00937	5.32
2.02603	5.31
2.04270	5.30
2.05937	5.29
2.07603	5.28
2.09270	5.27
2.10937	5.26
2.12603	5.25
2.14270	5.24
2.15937	5.23
2.17603	5.22
2.19270	5.21
2.20937	5.20
2.22603	5.19
2.24270	5.19
2.25937	5.18
2.27603	5.17
2.29270	5.16
2.30937	5.15
2.32603	5.14
2.34270	5.13
2.35937	5.12
2.37603	5.12
2.39270	5.12
2.40937	5.12
2.42603	5.12
2.44270	5.12
2.45937	5.12
2.47603	5.12
2.49270	5.12
2.50937	5.11
2.52603	5.11
2.54270	5.11
2.55937	5.11
2.57603	5.11
2.59270	5.11
2.60937	5.11
2.62603	5.11
2.64270	5.11
2.65937	5.11
2.67603	5.11
2.69270	5.11
2.70937	5.11
2.72603	5.11
2.74270	5.11
2.75937	5.11
2.77603	5.11
2.79270	5.11
2.80937	5.11
2.82603	5.11
2.84270	5.11
2.85937	5.11
2.87603	5.11
2.89270	5.11
2.90937	5.11
2.92603	5.11
2.94270	5.11
2.95937	5.11
2.97603	5.11
2.99270	5.11
3.00937	5.10
3.02603	5.10
3.04270	5.10
3.05937	5.10
3.07603	5.10
3.09270	5.10
3.10937	5.10
3.12603	5.10
3.14270	5.10
3.15937	5.10
3.17603	5.10
3.19270	5.10
3.20937	5.10
3.22603	5.10
3.24270	5.10
3.25937	5.10
3.27603	5.10
3.29270	5.10
3.30937	5.10
3.32603	5.10
3.34270	5.10
3.35937	5.10
3.37603	5.10
3.39270	5.11
3.40937	5.11
3.42603	5.11
3.44270	5.10
3.45937	5.10
3.47603	5.10
3.49270	5.10
3.50937	5.10
3.52603	5.10
3.54270	5.10
3.55937	5.10
3.57603	5.10
3.59270	5.10
3.60937	5.10
3.62603	5.10
3.64270	5.10
3.65937	5.10
3.67603	5.10
3.69270	5.10
3.70937	5.10
3.72603	5.10
3.74270	5.10
3.75937	5.10
3.77603	5.10
3.79270	5.10
3.80937	5.10
3.82603	5.10
3.84270	5.10
3.85937	5.10
3.87603	5.10
3.89270	5.10
3.90937	5.10
3.92603	5.10
3.94270	5.10
3.95937	5.10
3.97603	5.10
3.99270	5.10

[Status Trace (Linear Velocity)]
Interval(msec)	1000
# of Points	240
Start Time(min)	0.009
End Time(min)	3.993
Intensity Units	
Intensity Multiplier	1
R.Time (min)	Intensity
0.00937	39.02
0.02603	37.21
0.04270	38.58
0.05937	39.98
0.07603	39.85
0.09270	39.04
0.10937	39.01
0.12603	39.02
0.14270	39.02
0.15937	39.02
0.17603	39.02
0.19270	39.02
0.20937	39.02
0.22603	39.02
0.24270	39.02
0.25937	39.02
0.27603	39.02
0.29270	39.02
0.30937	39.02
0.32603	39.02
0.34270	39.02
0.35937	39.02
0.37603	39.02
0.39270	39.02
0.40937	39.02
0.42603	39.02
0.44270	39.02
0.45937	39.02
0.47603	39.02
0.49270	39.02
0.50937	39.02
0.52603	39.03
0.54270	39.03
0.55937	39.02
0.57603	39.02
0.59270	39.02
0.60937	39.03
0.62603	39.02
0.64270	39.02
0.65937	39.02
0.67603	39.02
0.69270	39.02
0.70937	39.02
0.72603	39.02
0.74270	39.02
0.75937	39.02
0.77603	39.02
0.79270	39.02
0.80937	39.02
0.82603	39.02
0.84270	39.02
0.85937	39.02
0.87603	39.03
0.89270	39.03
0.90937	39.03
0.92603	39.03
0.94270	39.02
0.95937	39.03
0.97603	39.02
0.99270	39.03
1.00937	39.03
1.02603	39.03
1.04270	39.02
1.05937	39.02
1.07603	39.02
1.09270	39.02
1.10937	39.02
1.12603	39.02
1.14270	39.03
1.15937	39.02
1.17603	39.02
1.19270	39.02
1.20937	39.02
1.22603	39.02
1.24270	39.02
1.25937	39.02
1.27603	39.02
1.29270	39.02
1.30937	39.02
1.32603	39.02
1.34270	39.02
1.35937	39.02
1.37603	39.02
1.39270	39.02
1.40937	39.02
1.42603	39.02
1.44270	39.02
1.45937	39.03
1.47603	39.03
1.49270	39.03
1.50937	39.03
1.52603	39.02
1.54270	39.02
1.55937	39.02
1.57603	39.02
1.59270	39.02
1.60937	39.02
1.62603	39.01
1.64270	38.99
1.65937	38.96
1.67603	38.93
1.69270	38.90
1.70937	38.86
1.72603	38.83
1.74270	38.80
1.75937	38.77
1.77603	38.73
1.79270	38.70
1.80937	38.67
1.82603	38.64
1.84270	38.61
1.85937	38.58
1.87603	38.55
1.89270	38.52
1.90937	38.49
1.92603	38.46
1.94270	38.43
1.95937	38.40
1.97603	38.37
1.99270	38.34
2.00937	38.30
2.02603	38.27
2.04270	38.24
2.05937	38.21
2.07603	38.18
2.09270	38.16
2.10937	38.12
2.12603	38.09
2.14270	38.06
2.15937	38.04
2.17603	38.01
2.19270	37.98
2.20937	37.95
2.22603	37.92
2.24270	37.89
2.25937	37.86
2.27603	37.83
2.29270	37.80
2.30937	37.77
2.32603	37.74
2.34270	37.71
2.35937	37.69
2.37603	37.67
2.39270	37.67
2.40937	37.67
2.42603	37.67
2.44270	37.67
2.45937	37.67
2.47603	37.67
2.49270	37.67
2.50937	37.66
2.52603	37.66
2.54270	37.66
2.55937	37.66
2.57603	37.66
2.59270	37.66
2.60937	37.66
2.62603	37.65
2.64270	37.65
2.65937	37.65
2.67603	37.65
2.69270	37.65
2.70937	37.65
2.72603	37.65
2.74270	37.65
2.75937	37.65
2.77603	37.65
2.79270	37.65
2.80937	37.65
2.82603	37.65
2.84270	37.65
2.85937	37.65
2.87603	37.65
2.89270	37.65
2.90937	37.65
2.92603	37.64
2.94270	37.64
2.95937	37.64
2.97603	37.64
2.99270	37.64
3.00937	37.64
3.02603	37.64
3.04270	37.64
3.05937	37.64
3.07603	37.64
3.09270	37.63
3.10937	37.63
3.12603	37.63
3.14270	37.63
3.15937	37.63
3.17603	37.63
3.19270	37.63
3.20937	37.63
3.22603	37.63
3.24270	37.63
3.25937	37.63
3.27603	37.63
3.29270	37.63
3.30937	37.63
3.32603	37.63
3.34270	37.64
3.35937	37.64
3.37603	37.64
3.39270	37.64
3.40937	37.64
3.42603	37.64
3.44270	37.64
3.45937	37.63
3.47603	37.63
3.49270	37.63
3.50937	37.63
3.52603	37.63
3.54270	37.63
3.55937	37.63
3.57603	37.63
3.59270	37.63
3.60937	37.63
3.62603	37.63
3.64270	37.63
3.65937	37.63
3.67603	37.63
3.69270	37.63
3.70937	37.63
3.72603	37.63
3.74270	37.63
3.75937	37.63
3.77603	37.63
3.79270	37.63
3.80937	37.63
3.82603	37.63
3.84270	37.63
3.85937	37.63
3.87603	37.63
3.89270	37.63
3.90937	37.63
3.92603	37.63
3.94270	37.63
3.95937	37.63
3.97603	37.63
3.99270	37.63

