[Header]
Application Name	LabSolutions
Version	5.110
Data File Name	C:\Users\User\Desktop\GC Analyses\Jack\Nachusa Grasslands Sampling\T4 Timepoint July 12th\T4_07122022_045.gcd
Output Date	3/17/2023
Output Time	12:04:53 PM

[File Information]
Type	Data File
Generated	3/14/2023 8:22:44 PM
Generated by	System Administrator
Modified	3/14/2023 8:29:38 PM
Modified by	System Administrator

[Sample Information]
Operator Name	System Administrator
Acquired	3/14/2023 8:25:37 PM
Sample Type	0:Unknown
Level	0
Sample Name	045
Sample ID	045
ISTD Amount1	1
ISTD Amount2	1
ISTD Amount3	1
ISTD Amount4	1
ISTD Amount5	1
ISTD Amount6	1
ISTD Amount7	1
ISTD Amount8	1
ISTD Amount9	1
ISTD Amount10	1
ISTD Amount11	1
ISTD Amount12	1
ISTD Amount13	1
ISTD Amount14	1
ISTD Amount15	1
ISTD Amount16	1
ISTD Amount17	1
ISTD Amount18	1
ISTD Amount19	1
ISTD Amount20	1
ISTD Amount21	1
ISTD Amount22	1
ISTD Amount23	1
ISTD Amount24	1
ISTD Amount25	1
ISTD Amount26	1
ISTD Amount27	1
ISTD Amount28	1
ISTD Amount29	1
ISTD Amount30	1
ISTD Amount31	1
ISTD Amount32	1
Sample Amount	1
Dilution Factor	1
Vial#	44
Injection Volume	1
Injection Count	1
Bar Code	

[Original Files]
Data File	C:\Users\User\Desktop\GC Analyses\Jack\Nachusa Grasslands Sampling\T4 Timepoint July 12th\T4_07122022_045.gcd
Method File	C:\LabSolutions\Data\GHG_4min_2022\ghg3_togas_w_acet_4 min_new_int.gcm
Batch File	C:\LabSolutions\Data\AutoSamplerTesting\T4_07122022.gcb
Report Format File	c:\LabSolutions\System\DEFAULT.lsr

[File Description]


[Configuration]
Instrument Name	C0B7VH3-Instrument1
Instrument #	1
Line #	1
# of Detectors	3
Detector ID	DET#1	DET#2	DET#3
Detector Name	FID	PTCD	ECD
# of Channels	1	1	1

[Peak Table(Ch1)]
# of Peaks	3
Peak#	R.Time	I.Time	F.Time	Area	Height	A/H	Conc.	Mark	ID#	Name	k'	Plate #	Plate Ht.	Tailing	Resolution	Sep.Factor	Area Ratio	Height Ratio	Conc. %	Norm Conc.
1	1.476	1.439	1.538	23302	11508	2.025	164.510	   	1	CO	0.000	9662	15.525	1.272	0.000	0.000	0	0	20.426	20.426
2	1.571	1.538	1.622	3343	1741	1.920	64.635	   	2	CH4	0.065	12048	12.450	1.104	1.625	0.000	0	0	8.025	8.025
3	1.996	1.952	2.381	2296102	1099988	2.087	576.259	   	3	CO2	0.353	17402	8.620	1.329	7.222	5.462	0	0	71.549	71.549

[Peak Table(Ch2)]
# of Peaks	0

[Peak Table(Ch3)]
# of Peaks	6
Peak#	R.Time	I.Time	F.Time	Area	Height	A/H	Conc.	Mark	ID#	Name	k'	Plate #	Plate Ht.	Tailing	Resolution	Sep.Factor	Area Ratio	Height Ratio	Conc. %	Norm Conc.
1	0.504	0.192	0.735	337	18	18.627	0.000	   			0.000	254	589.508	0.870	0.000	0.000	0	0	0.000	0.000
2	2.462	2.268	2.510	2316	671	3.453	0.000	   			3.885	9862	15.210	0.000	17.362	0.000	0	0	0.000	0.000
3	2.532	2.510	2.583	1128	367	3.071	0.000	 V 			4.023	5179	28.963	0.000	0.581	1.036	0	0	0.000	0.000
4	2.601	2.583	2.693	629	163	3.854	0.000	 V 			4.161	2605	57.589	0.000	0.404	1.034	0	0	0.000	0.000
5	2.880	2.708	3.023	19102	4880	3.915	0.488	   	1	N2O	4.714	12992	11.545	1.524	1.828	1.133	0	0	100.000	100.000
6	3.261	3.023	3.995	21488	620	34.638	0.000	   	2	SF6	5.471	167	895.842	2.002	0.688	1.160	0	0	0.000	0.000

[Compound Results(Ch1)]
# of IDs	6
ID#	Name	R.Time	Area	Height	Conc.	Curve	3rd	2nd	1st	Constant	Area Ratio	Height Ratio	Conc. %	Norm Conc.
1	CO	1.476	23302	11508	164.510	Linear	0.000000e+00	0.000000e+00	1.416423e+002	0.000000e+00	0	0	20.426	20.426
2	CH4	1.571	3343	1741	64.635	Linear	0.000000e+00	0.000000e+00	5.171738e+001	0.000000e+00	0	0	8.025	8.025
3	CO2	1.996	2296102	1099988	576.259	Linear	0.000000e+00	0.000000e+00	3.984494e+003	0.000000e+00	0	0	71.549	71.549
4	Ethylene	0.000	0	0	0.000	Linear	0.000000e+00	0.000000e+00	0.000000e+00	0.000000e+00	0	0	0.000	0.000
5	Acetylene	0.000	0	0	0.000	Linear	0.000000e+00	0.000000e+00	0.000000e+00	0.000000e+00	0	0	0.000	0.000
6	Ethane	0.000	0	0	0.000	Linear	0.000000e+00	0.000000e+00	0.000000e+00	0.000000e+00	0	0	0.000	0.000

[Compound Results(Ch2)]
# of IDs	5
ID#	Name	R.Time	Area	Height	Conc.	Curve	3rd	2nd	1st	Constant	Area Ratio	Height Ratio	Conc. %	Norm Conc.
1	Hydrogen	0.000	0	0	0.000	Linear	0.000000e+00	0.000000e+00	0.000000e+00	0.000000e+00	0	0	0.000	0.000
2	Oxygen	0.000	0	0	0.000	Linear	0.000000e+00	0.000000e+00	0.000000e+00	0.000000e+00	0	0	0.000	0.000
3	Nitrogen	0.000	0	0	0.000	Linear	0.000000e+00	0.000000e+00	0.000000e+00	0.000000e+00	0	0	0.000	0.000
4	Methane	0.000	0	0	0.000	Linear	0.000000e+00	0.000000e+00	0.000000e+00	0.000000e+00	0	0	0.000	0.000
5	Carbon Monoxide	0.000	0	0	0.000	Linear	0.000000e+00	0.000000e+00	0.000000e+00	0.000000e+00	0	0	0.000	0.000

[Compound Results(Ch3)]
# of IDs	2
ID#	Name	R.Time	Area	Height	Conc.	Curve	3rd	2nd	1st	Constant	Area Ratio	Height Ratio	Conc. %	Norm Conc.
1	N2O	2.880	19102	4880	0.488	Linear	0.000000e+00	0.000000e+00	3.915173e+004	0.000000e+00	0	0	100.000	100.000
2	SF6	3.261	21488	620	0.000	Linear	0.000000e+00	0.000000e+00	0.000000e+00	0.000000e+00	0	0	0.000	0.000

[Group Results(Ch1)]
# of Groups	0

[Group Results(Ch2)]
# of Groups	0

[Group Results(Ch3)]
# of Groups	0

[Chromatogram (Ch1)]
Interval(msec)	220
# of Points	1091
Start Time(min)	0.002
End Time(min)	3.998
R.Time (min)	Intensity
0.00167	-8
0.00533	-11
0.00900	-6
0.01267	7
0.01633	20
0.02000	30
0.02367	38
0.02733	43
0.03100	48
0.03467	52
0.03833	57
0.04200	61
0.04567	64
0.04933	67
0.05300	68
0.05667	72
0.06033	79
0.06400	85
0.06767	86
0.07133	82
0.07500	79
0.07867	78
0.08233	84
0.08600	89
0.08967	87
0.09333	82
0.09700	75
0.10067	70
0.10433	69
0.10800	67
0.11167	63
0.11533	58
0.11900	55
0.12267	53
0.12633	51
0.13000	54
0.13367	57
0.13733	55
0.14100	46
0.14467	33
0.14833	23
0.15200	17
0.15567	16
0.15933	17
0.16300	15
0.16667	9
0.17033	1
0.17400	-5
0.17767	-9
0.18133	-12
0.18500	-15
0.18867	-16
0.19233	-17
0.19600	-20
0.19967	-26
0.20333	-30
0.20700	-31
0.21067	-30
0.21433	-23
0.21800	-15
0.22167	-9
0.22533	-2
0.22900	2
0.23267	0
0.23633	-4
0.24000	-8
0.24367	-12
0.24733	-22
0.25100	-35
0.25467	-42
0.25833	-45
0.26200	-44
0.26567	-39
0.26933	-33
0.27300	-29
0.27667	-30
0.28033	-29
0.28400	-24
0.28767	-21
0.29133	-19
0.29500	-16
0.29867	-9
0.30233	-1
0.30600	8
0.30967	13
0.31333	11
0.31700	1
0.32067	-10
0.32433	-20
0.32800	-25
0.33167	-20
0.33533	-14
0.33900	-9
0.34267	-8
0.34633	-9
0.35000	-12
0.35367	-13
0.35733	-12
0.36100	-12
0.36467	-16
0.36833	-23
0.37200	-27
0.37567	-28
0.37933	-26
0.38300	-20
0.38667	-13
0.39033	-7
0.39400	-4
0.39767	-7
0.40133	-11
0.40500	-11
0.40867	-8
0.41233	-5
0.41600	-3
0.41967	-3
0.42333	-4
0.42700	-6
0.43067	-11
0.43433	-16
0.43800	-18
0.44167	-16
0.44533	-16
0.44900	-17
0.45267	-16
0.45633	-12
0.46000	-13
0.46367	-15
0.46733	-16
0.47100	-16
0.47467	-15
0.47833	-11
0.48200	-3
0.48567	4
0.48933	11
0.49300	12
0.49667	10
0.50033	3
0.50400	-8
0.50767	-17
0.51133	-13
0.51500	-3
0.51867	5
0.52233	8
0.52600	5
0.52967	-2
0.53333	-14
0.53700	-24
0.54067	-35
0.54433	-43
0.54800	-52
0.55167	-60
0.55533	-58
0.55900	-49
0.56267	-41
0.56633	-40
0.57000	-45
0.57367	-50
0.57733	-49
0.58100	-35
0.58467	-23
0.58833	-16
0.59200	-12
0.59567	-12
0.59933	-16
0.60300	-13
0.60667	-6
0.61033	4
0.61400	12
0.61767	11
0.62133	3
0.62500	-10
0.62867	-20
0.63233	-30
0.63600	-37
0.63967	-41
0.64333	-45
0.64700	-46
0.65067	-43
0.65433	-41
0.65800	-43
0.66167	-44
0.66533	-45
0.66900	-41
0.67267	-31
0.67633	-24
0.68000	-20
0.68367	-21
0.68733	-28
0.69100	-40
0.69467	-51
0.69833	-54
0.70200	-55
0.70567	-54
0.70933	-50
0.71300	-46
0.71667	-42
0.72033	-36
0.72400	-29
0.72767	-27
0.73133	-29
0.73500	-34
0.73867	-37
0.74233	-38
0.74600	-35
0.74967	-33
0.75333	-31
0.75700	-31
0.76067	-28
0.76433	-21
0.76800	-16
0.77167	-16
0.77533	-18
0.77900	-22
0.78267	-31
0.78633	-38
0.79000	-33
0.79367	-25
0.79733	-18
0.80100	-18
0.80467	-19
0.80833	-22
0.81200	-30
0.81567	-38
0.81933	-46
0.82300	-55
0.82667	-62
0.83033	-70
0.83400	-73
0.83767	-65
0.84133	-53
0.84500	-45
0.84867	-39
0.85233	-36
0.85600	-34
0.85967	-34
0.86333	-31
0.86700	-29
0.87067	-27
0.87433	-25
0.87800	-24
0.88167	-23
0.88533	-18
0.88900	-17
0.89267	-20
0.89633	-26
0.90000	-30
0.90367	-29
0.90733	-22
0.91100	-10
0.91467	1
0.91833	7
0.92200	7
0.92567	5
0.92933	2
0.93300	-2
0.93667	-5
0.94033	-10
0.94400	-10
0.94767	-8
0.95133	-10
0.95500	-8
0.95867	-8
0.96233	-10
0.96600	-14
0.96967	-16
0.97333	-18
0.97700	-20
0.98067	-21
0.98433	-22
0.98800	-21
0.99167	-16
0.99533	-10
0.99900	-1
1.00267	8
1.00633	16
1.01000	24
1.01367	29
1.01733	23
1.02100	10
1.02467	-0
1.02833	-9
1.03200	-17
1.03567	-20
1.03933	-23
1.04300	-30
1.04667	-36
1.05033	-40
1.05400	-38
1.05767	-34
1.06133	-34
1.06500	-37
1.06867	-39
1.07233	-41
1.07600	-41
1.07967	-40
1.08333	-37
1.08700	-33
1.09067	-28
1.09433	-23
1.09800	-20
1.10167	-18
1.10533	-19
1.10900	-25
1.11267	-31
1.11633	-31
1.12000	-27
1.12367	-26
1.12733	-22
1.13100	-14
1.13467	-6
1.13833	-6
1.14200	-9
1.14567	-12
1.14933	-17
1.15300	-22
1.15667	-26
1.16033	-31
1.16400	-38
1.16767	-42
1.17133	-41
1.17500	-34
1.17867	-20
1.18233	-8
1.18600	-6
1.18967	-11
1.19333	-19
1.19700	-29
1.20067	-33
1.20433	-30
1.20800	-28
1.21167	-33
1.21533	-41
1.21900	-53
1.22267	-64
1.22633	-73
1.23000	-76
1.23367	-72
1.23733	-68
1.24100	-61
1.24467	-49
1.24833	-38
1.25200	-33
1.25567	-32
1.25933	-37
1.26300	-41
1.26667	-42
1.27033	-44
1.27400	-37
1.27767	-30
1.28133	-28
1.28500	-27
1.28867	-25
1.29233	-27
1.29600	-29
1.29967	-31
1.30333	-31
1.30700	-30
1.31067	-34
1.31433	-37
1.31800	-43
1.32167	-48
1.32533	-52
1.32900	-53
1.33267	-55
1.33633	-56
1.34000	-59
1.34367	-58
1.34733	-56
1.35100	-55
1.35467	-58
1.35833	-62
1.36200	-67
1.36567	-72
1.36933	-75
1.37300	-73
1.37667	-67
1.38033	-62
1.38400	-56
1.38767	-48
1.39133	-45
1.39500	-46
1.39867	-44
1.40233	-40
1.40600	-35
1.40967	-33
1.41333	-32
1.41700	-29
1.42067	-27
1.42433	-32
1.42800	-44
1.43167	-57
1.43533	-65
1.43900	-61
1.44267	-23
1.44633	116
1.45000	494
1.45367	1466
1.45733	3230
1.46100	5479
1.46467	7690
1.46833	9517
1.47200	10802
1.47567	11439
1.47933	11313
1.48300	10402
1.48667	8885
1.49033	7084
1.49400	5328
1.49767	3826
1.50133	2649
1.50500	1774
1.50867	1158
1.51233	730
1.51600	435
1.51967	236
1.52333	105
1.52700	22
1.53067	-28
1.53433	-63
1.53800	-81
1.54167	-55
1.54533	59
1.54900	296
1.55267	624
1.55633	970
1.56000	1281
1.56367	1511
1.56733	1643
1.57100	1651
1.57467	1523
1.57833	1293
1.58200	1006
1.58567	717
1.58933	468
1.59300	279
1.59667	145
1.60033	53
1.60400	-11
1.60767	-48
1.61133	-71
1.61500	-86
1.61867	-95
1.62233	-105
1.62600	-110
1.62967	-112
1.63333	-112
1.63700	-112
1.64067	-115
1.64433	-121
1.64800	-124
1.65167	-125
1.65533	-121
1.65900	-120
1.66267	-120
1.66633	-115
1.67000	-112
1.67367	-113
1.67733	-112
1.68100	-107
1.68467	-101
1.68833	-104
1.69200	-111
1.69567	-119
1.69933	-123
1.70300	-119
1.70667	-110
1.71033	-96
1.71400	-83
1.71767	-89
1.72133	-100
1.72500	-107
1.72867	-111
1.73233	-113
1.73600	-112
1.73967	-117
1.74333	-121
1.74700	-125
1.75067	-129
1.75433	-125
1.75800	-121
1.76167	-117
1.76533	-118
1.76900	-116
1.77267	-113
1.77633	-110
1.78000	-105
1.78367	-103
1.78733	-99
1.79100	-100
1.79467	-106
1.79833	-105
1.80200	-94
1.80567	-79
1.80933	-67
1.81300	-68
1.81667	-82
1.82033	-94
1.82400	-101
1.82767	-108
1.83133	-116
1.83500	-129
1.83867	-141
1.84233	-147
1.84600	-147
1.84967	-143
1.85333	-135
1.85700	-128
1.86067	-126
1.86433	-123
1.86800	-120
1.87167	-119
1.87533	-118
1.87900	-113
1.88267	-112
1.88633	-112
1.89000	-111
1.89367	-111
1.89733	-110
1.90100	-110
1.90467	-107
1.90833	-103
1.91200	-98
1.91567	-89
1.91933	-82
1.92300	-76
1.92667	-74
1.93033	-81
1.93400	-88
1.93767	-93
1.94133	-97
1.94500	-96
1.94867	-96
1.95233	-95
1.95600	5
1.95967	739
1.96333	4400
1.96700	18034
1.97067	56745
1.97433	141557
1.97800	285924
1.98167	480262
1.98533	693144
1.98900	886622
1.99267	1028837
1.99633	1099919
2.00000	1092882
2.00367	1013466
2.00733	880077
2.01100	719178
2.01467	557220
2.01833	413347
2.02200	296712
2.02567	208274
2.02933	144344
2.03300	99632
2.03667	69020
2.04033	48317
2.04400	34388
2.04767	25004
2.05133	18635
2.05500	14255
2.05867	11195
2.06233	9019
2.06600	7442
2.06967	6271
2.07333	5379
2.07700	4676
2.08067	4110
2.08433	3652
2.08800	3275
2.09167	2962
2.09533	2698
2.09900	2474
2.10267	2284
2.10633	2119
2.11000	1974
2.11367	1839
2.11733	1715
2.12100	1604
2.12467	1509
2.12833	1430
2.13200	1354
2.13567	1275
2.13933	1194
2.14300	1121
2.14667	1054
2.15033	990
2.15400	931
2.15767	881
2.16133	845
2.16500	821
2.16867	797
2.17233	769
2.17600	739
2.17967	708
2.18333	680
2.18700	653
2.19067	630
2.19433	611
2.19800	596
2.20167	582
2.20533	566
2.20900	550
2.21267	535
2.21633	517
2.22000	498
2.22367	483
2.22733	467
2.23100	445
2.23467	426
2.23833	407
2.24200	389
2.24567	372
2.24933	358
2.25300	346
2.25667	336
2.26033	331
2.26400	326
2.26767	319
2.27133	310
2.27500	303
2.27867	294
2.28233	279
2.28600	266
2.28967	261
2.29333	259
2.29700	255
2.30067	254
2.30433	250
2.30800	244
2.31167	234
2.31533	233
2.31900	238
2.32267	235
2.32633	227
2.33000	216
2.33367	205
2.33733	196
2.34100	185
2.34467	181
2.34833	178
2.35200	180
2.35567	182
2.35933	177
2.36300	169
2.36667	165
2.37033	165
2.37400	162
2.37767	159
2.38133	151
2.38500	143
2.38867	143
2.39233	148
2.39600	155
2.39967	158
2.40333	159
2.40700	160
2.41067	155
2.41433	147
2.41800	136
2.42167	131
2.42533	132
2.42900	132
2.43267	128
2.43633	121
2.44000	116
2.44367	115
2.44733	114
2.45100	109
2.45467	100
2.45833	94
2.46200	89
2.46567	84
2.46933	82
2.47300	85
2.47667	87
2.48033	84
2.48400	81
2.48767	79
2.49133	82
2.49500	83
2.49867	77
2.50233	71
2.50600	74
2.50967	79
2.51333	82
2.51700	78
2.52067	70
2.52433	71
2.52800	80
2.53167	89
2.53533	88
2.53900	79
2.54267	66
2.54633	58
2.55000	55
2.55367	55
2.55733	51
2.56100	48
2.56467	47
2.56833	45
2.57200	40
2.57567	35
2.57933	32
2.58300	30
2.58667	29
2.59033	31
2.59400	37
2.59767	47
2.60133	54
2.60500	54
2.60867	52
2.61233	48
2.61600	40
2.61967	31
2.62333	25
2.62700	23
2.63067	24
2.63433	26
2.63800	32
2.64167	38
2.64533	39
2.64900	38
2.65267	34
2.65633	29
2.66000	25
2.66367	26
2.66733	26
2.67100	28
2.67467	26
2.67833	21
2.68200	19
2.68567	18
2.68933	18
2.69300	22
2.69667	30
2.70033	38
2.70400	42
2.70767	38
2.71133	27
2.71500	16
2.71867	13
2.72233	14
2.72600	10
2.72967	-2
2.73333	-14
2.73700	-19
2.74067	-20
2.74433	-16
2.74800	-3
2.75167	9
2.75533	15
2.75900	13
2.76267	11
2.76633	14
2.77000	18
2.77367	18
2.77733	12
2.78100	8
2.78467	11
2.78833	19
2.79200	26
2.79567	28
2.79933	26
2.80300	24
2.80667	23
2.81033	20
2.81400	15
2.81767	9
2.82133	6
2.82500	4
2.82867	7
2.83233	12
2.83600	12
2.83967	14
2.84333	16
2.84700	17
2.85067	18
2.85433	17
2.85800	12
2.86167	8
2.86533	5
2.86900	4
2.87267	5
2.87633	4
2.88000	-5
2.88367	-14
2.88733	-18
2.89100	-19
2.89467	-16
2.89833	-8
2.90200	1
2.90567	2
2.90933	-3
2.91300	-9
2.91667	-11
2.92033	-13
2.92400	-15
2.92767	-13
2.93133	-11
2.93500	-10
2.93867	-7
2.94233	-6
2.94600	-1
2.94967	0
2.95333	-1
2.95700	-5
2.96067	-15
2.96433	-24
2.96800	-28
2.97167	-26
2.97533	-24
2.97900	-20
2.98267	-14
2.98633	-12
2.99000	-10
2.99367	-9
2.99733	-11
3.00100	-11
3.00467	-9
3.00833	-6
3.01200	-4
3.01567	-3
3.01933	-2
3.02300	1
3.02667	-2
3.03033	-5
3.03400	-3
3.03767	4
3.04133	17
3.04500	24
3.04867	17
3.05233	-0
3.05600	-19
3.05967	-31
3.06333	-34
3.06700	-32
3.07067	-26
3.07433	-19
3.07800	-18
3.08167	-19
3.08533	-17
3.08900	-12
3.09267	-7
3.09633	-7
3.10000	-12
3.10367	-18
3.10733	-24
3.11100	-24
3.11467	-24
3.11833	-26
3.12200	-27
3.12567	-24
3.12933	-21
3.13300	-20
3.13667	-22
3.14033	-21
3.14400	-18
3.14767	-12
3.15133	-8
3.15500	-6
3.15867	-3
3.16233	-1
3.16600	-1
3.16967	-3
3.17333	-6
3.17700	-5
3.18067	-6
3.18433	-10
3.18800	-19
3.19167	-29
3.19533	-36
3.19900	-42
3.20267	-44
3.20633	-39
3.21000	-37
3.21367	-37
3.21733	-40
3.22100	-46
3.22467	-50
3.22833	-51
3.23200	-50
3.23567	-46
3.23933	-41
3.24300	-29
3.24667	-15
3.25033	-9
3.25400	-10
3.25767	-10
3.26133	-8
3.26500	-11
3.26867	-19
3.27233	-29
3.27600	-36
3.27967	-38
3.28333	-33
3.28700	-26
3.29067	-22
3.29433	-22
3.29800	-25
3.30167	-28
3.30533	-31
3.30900	-30
3.31267	-25
3.31633	-22
3.32000	-21
3.32367	-20
3.32733	-16
3.33100	-22
3.33467	-32
3.33833	-40
3.34200	-46
3.34567	-49
3.34933	-48
3.35300	-47
3.35667	-46
3.36033	-48
3.36400	-50
3.36767	-50
3.37133	-48
3.37500	-44
3.37867	-42
3.38233	-45
3.38600	-45
3.38967	-41
3.39333	-40
3.39700	-37
3.40067	-33
3.40433	-35
3.40800	-36
3.41167	-33
3.41533	-31
3.41900	-34
3.42267	-33
3.42633	-30
3.43000	-30
3.43367	-31
3.43733	-33
3.44100	-34
3.44467	-36
3.44833	-39
3.45200	-40
3.45567	-43
3.45933	-46
3.46300	-49
3.46667	-51
3.47033	-54
3.47400	-59
3.47767	-62
3.48133	-62
3.48500	-60
3.48867	-54
3.49233	-48
3.49600	-45
3.49967	-49
3.50333	-55
3.50700	-59
3.51067	-64
3.51433	-67
3.51800	-64
3.52167	-59
3.52533	-54
3.52900	-52
3.53267	-55
3.53633	-59
3.54000	-57
3.54367	-53
3.54733	-52
3.55100	-53
3.55467	-53
3.55833	-54
3.56200	-52
3.56567	-49
3.56933	-46
3.57300	-42
3.57667	-42
3.58033	-41
3.58400	-42
3.58767	-44
3.59133	-48
3.59500	-53
3.59867	-52
3.60233	-47
3.60600	-42
3.60967	-46
3.61333	-55
3.61700	-65
3.62067	-73
3.62433	-80
3.62800	-85
3.63167	-82
3.63533	-70
3.63900	-62
3.64267	-60
3.64633	-62
3.65000	-65
3.65367	-64
3.65733	-61
3.66100	-57
3.66467	-53
3.66833	-57
3.67200	-62
3.67567	-64
3.67933	-68
3.68300	-70
3.68667	-71
3.69033	-75
3.69400	-80
3.69767	-82
3.70133	-81
3.70500	-79
3.70867	-77
3.71233	-74
3.71600	-67
3.71967	-60
3.72333	-61
3.72700	-69
3.73067	-77
3.73433	-81
3.73800	-80
3.74167	-78
3.74533	-76
3.74900	-78
3.75267	-79
3.75633	-80
3.76000	-80
3.76367	-80
3.76733	-76
3.77100	-74
3.77467	-80
3.77833	-84
3.78200	-83
3.78567	-85
3.78933	-85
3.79300	-87
3.79667	-90
3.80033	-91
3.80400	-91
3.80767	-87
3.81133	-80
3.81500	-74
3.81867	-70
3.82233	-68
3.82600	-68
3.82967	-64
3.83333	-58
3.83700	-55
3.84067	-54
3.84433	-59
3.84800	-72
3.85167	-82
3.85533	-87
3.85900	-88
3.86267	-92
3.86633	-103
3.87000	-112
3.87367	-116
3.87733	-120
3.88100	-121
3.88467	-119
3.88833	-114
3.89200	-108
3.89567	-98
3.89933	-92
3.90300	-85
3.90667	-85
3.91033	-87
3.91400	-90
3.91767	-91
3.92133	-85
3.92500	-80
3.92867	-77
3.93233	-72
3.93600	-68
3.93967	-68
3.94333	-75
3.94700	-82
3.95067	-90
3.95433	-99
3.95800	-105
3.96167	-108
3.96533	-109
3.96900	-109
3.97267	-109
3.97633	-107
3.98000	-104
3.98367	-99
3.98733	-100
3.99100	-106
3.99467	-117
3.99833	-126

[Chromatogram (Ch2)]
Interval(msec)	220
# of Points	1091
Start Time(min)	0.002
End Time(min)	3.998
R.Time (min)	Intensity
0.00167	-0
0.00533	-1
0.00900	-1
0.01267	-1
0.01633	-1
0.02000	-1
0.02367	-2
0.02733	-2
0.03100	-2
0.03467	-2
0.03833	-2
0.04200	-3
0.04567	-3
0.04933	-3
0.05300	-3
0.05667	-4
0.06033	-4
0.06400	-4
0.06767	-4
0.07133	-4
0.07500	-3
0.07867	-3
0.08233	-3
0.08600	-3
0.08967	-3
0.09333	-3
0.09700	-3
0.10067	-2
0.10433	-2
0.10800	-2
0.11167	-2
0.11533	-2
0.11900	-2
0.12267	-2
0.12633	-2
0.13000	-2
0.13367	-2
0.13733	-2
0.14100	-2
0.14467	-2
0.14833	-2
0.15200	-2
0.15567	-2
0.15933	-2
0.16300	-2
0.16667	-2
0.17033	-2
0.17400	-2
0.17767	-2
0.18133	-2
0.18500	-2
0.18867	-1
0.19233	-1
0.19600	-1
0.19967	-1
0.20333	-1
0.20700	-1
0.21067	-1
0.21433	-1
0.21800	-1
0.22167	-1
0.22533	-1
0.22900	-1
0.23267	-1
0.23633	-1
0.24000	-1
0.24367	-1
0.24733	-1
0.25100	-1
0.25467	-1
0.25833	-1
0.26200	-0
0.26567	0
0.26933	1
0.27300	1
0.27667	1
0.28033	2
0.28400	2
0.28767	2
0.29133	2
0.29500	2
0.29867	2
0.30233	3
0.30600	3
0.30967	3
0.31333	2
0.31700	2
0.32067	2
0.32433	1
0.32800	1
0.33167	0
0.33533	0
0.33900	-0
0.34267	-1
0.34633	-1
0.35000	-1
0.35367	-2
0.35733	-2
0.36100	-2
0.36467	-3
0.36833	-3
0.37200	-3
0.37567	-4
0.37933	-4
0.38300	-4
0.38667	-4
0.39033	-4
0.39400	-4
0.39767	-4
0.40133	-4
0.40500	-4
0.40867	-4
0.41233	-4
0.41600	-4
0.41967	-4
0.42333	-4
0.42700	-4
0.43067	-3
0.43433	-3
0.43800	-2
0.44167	-2
0.44533	-2
0.44900	-2
0.45267	-1
0.45633	-1
0.46000	-1
0.46367	-1
0.46733	-1
0.47100	-1
0.47467	-1
0.47833	-1
0.48200	-1
0.48567	-1
0.48933	-0
0.49300	-0
0.49667	-0
0.50033	-0
0.50400	-0
0.50767	-1
0.51133	-1
0.51500	-1
0.51867	-1
0.52233	-2
0.52600	-2
0.52967	-3
0.53333	-3
0.53700	-3
0.54067	-3
0.54433	-3
0.54800	-3
0.55167	-3
0.55533	-3
0.55900	-3
0.56267	-3
0.56633	-3
0.57000	-3
0.57367	-3
0.57733	-3
0.58100	-3
0.58467	-2
0.58833	-2
0.59200	-2
0.59567	-2
0.59933	-2
0.60300	-1
0.60667	-1
0.61033	-1
0.61400	-1
0.61767	-1
0.62133	-0
0.62500	-0
0.62867	-0
0.63233	0
0.63600	0
0.63967	1
0.64333	1
0.64700	0
0.65067	0
0.65433	-0
0.65800	-0
0.66167	-0
0.66533	-1
0.66900	-1
0.67267	-2
0.67633	-3
0.68000	-3
0.68367	-4
0.68733	-4
0.69100	-5
0.69467	-5
0.69833	-5
0.70200	-5
0.70567	-5
0.70933	-5
0.71300	-5
0.71667	-5
0.72033	-5
0.72400	-5
0.72767	-4
0.73133	-4
0.73500	-4
0.73867	-3
0.74233	-3
0.74600	-3
0.74967	-3
0.75333	-3
0.75700	-3
0.76067	-3
0.76433	-3
0.76800	-3
0.77167	-3
0.77533	-3
0.77900	-3
0.78267	-3
0.78633	-3
0.79000	-3
0.79367	-3
0.79733	-3
0.80100	-3
0.80467	-3
0.80833	-3
0.81200	-3
0.81567	-4
0.81933	-4
0.82300	-4
0.82667	-4
0.83033	-4
0.83400	-4
0.83767	-4
0.84133	-4
0.84500	-4
0.84867	-3
0.85233	-3
0.85600	-3
0.85967	-3
0.86333	-3
0.86700	-4
0.87067	-4
0.87433	-4
0.87800	-5
0.88167	-5
0.88533	-5
0.88900	-5
0.89267	-5
0.89633	-5
0.90000	-5
0.90367	-5
0.90733	-4
0.91100	-4
0.91467	-3
0.91833	-3
0.92200	-3
0.92567	-3
0.92933	-2
0.93300	-2
0.93667	-2
0.94033	-1
0.94400	-1
0.94767	-1
0.95133	-1
0.95500	-1
0.95867	-1
0.96233	-0
0.96600	-0
0.96967	-1
0.97333	-1
0.97700	-1
0.98067	-1
0.98433	-1
0.98800	-1
0.99167	-2
0.99533	-2
0.99900	-2
1.00267	-2
1.00633	-3
1.01000	-3
1.01367	-3
1.01733	-4
1.02100	-4
1.02467	-4
1.02833	-4
1.03200	-4
1.03567	-5
1.03933	-5
1.04300	-5
1.04667	-5
1.05033	-5
1.05400	-6
1.05767	-6
1.06133	-6
1.06500	-6
1.06867	-6
1.07233	-6
1.07600	-6
1.07967	-6
1.08333	-6
1.08700	-6
1.09067	-7
1.09433	-7
1.09800	-7
1.10167	-8
1.10533	-8
1.10900	-8
1.11267	-8
1.11633	-8
1.12000	-7
1.12367	-7
1.12733	-7
1.13100	-6
1.13467	-6
1.13833	-6
1.14200	-6
1.14567	-6
1.14933	-6
1.15300	-5
1.15667	-5
1.16033	-5
1.16400	-5
1.16767	-5
1.17133	-5
1.17500	-5
1.17867	-5
1.18233	-5
1.18600	-5
1.18967	-5
1.19333	-5
1.19700	-5
1.20067	-5
1.20433	-5
1.20800	-5
1.21167	-5
1.21533	-5
1.21900	-5
1.22267	-5
1.22633	-5
1.23000	-5
1.23367	-5
1.23733	-5
1.24100	-5
1.24467	-5
1.24833	-5
1.25200	-5
1.25567	-5
1.25933	-5
1.26300	-5
1.26667	-5
1.27033	-5
1.27400	-5
1.27767	-5
1.28133	-5
1.28500	-5
1.28867	-5
1.29233	-5
1.29600	-5
1.29967	-5
1.30333	-5
1.30700	-5
1.31067	-5
1.31433	-5
1.31800	-5
1.32167	-5
1.32533	-5
1.32900	-5
1.33267	-5
1.33633	-5
1.34000	-5
1.34367	-5
1.34733	-5
1.35100	-5
1.35467	-5
1.35833	-4
1.36200	-4
1.36567	-4
1.36933	-4
1.37300	-4
1.37667	-3
1.38033	-3
1.38400	-3
1.38767	-2
1.39133	-2
1.39500	-2
1.39867	-2
1.40233	-2
1.40600	-2
1.40967	-1
1.41333	-1
1.41700	-1
1.42067	-1
1.42433	-1
1.42800	-1
1.43167	-2
1.43533	-2
1.43900	-2
1.44267	-2
1.44633	-3
1.45000	-3
1.45367	-3
1.45733	-3
1.46100	-3
1.46467	-3
1.46833	-3
1.47200	-3
1.47567	-3
1.47933	-3
1.48300	-4
1.48667	-4
1.49033	-4
1.49400	-4
1.49767	-4
1.50133	-4
1.50500	-4
1.50867	-4
1.51233	-4
1.51600	-4
1.51967	-4
1.52333	-4
1.52700	-5
1.53067	-5
1.53433	-5
1.53800	-6
1.54167	-6
1.54533	-6
1.54900	-7
1.55267	-7
1.55633	-7
1.56000	-7
1.56367	-7
1.56733	-6
1.57100	-6
1.57467	-6
1.57833	-6
1.58200	-6
1.58567	-6
1.58933	-6
1.59300	-6
1.59667	-7
1.60033	-8
1.60400	-9
1.60767	-10
1.61133	-12
1.61500	-13
1.61867	-15
1.62233	-17
1.62600	-20
1.62967	-23
1.63333	-26
1.63700	-29
1.64067	-32
1.64433	-36
1.64800	-39
1.65167	-42
1.65533	-46
1.65900	-49
1.66267	-53
1.66633	-57
1.67000	-62
1.67367	-67
1.67733	-72
1.68100	-77
1.68467	-81
1.68833	-86
1.69200	-90
1.69567	-94
1.69933	-97
1.70300	-100
1.70667	-102
1.71033	-104
1.71400	-105
1.71767	-107
1.72133	-108
1.72500	-109
1.72867	-109
1.73233	-110
1.73600	-110
1.73967	-110
1.74333	-111
1.74700	-111
1.75067	-112
1.75433	-112
1.75800	-113
1.76167	-114
1.76533	-114
1.76900	-115
1.77267	-115
1.77633	-115
1.78000	-115
1.78367	-115
1.78733	-115
1.79100	-115
1.79467	-115
1.79833	-116
1.80200	-116
1.80567	-117
1.80933	-118
1.81300	-118
1.81667	-118
1.82033	-118
1.82400	-117
1.82767	-116
1.83133	-115
1.83500	-115
1.83867	-114
1.84233	-113
1.84600	-113
1.84967	-113
1.85333	-114
1.85700	-114
1.86067	-115
1.86433	-116
1.86800	-117
1.87167	-117
1.87533	-116
1.87900	-116
1.88267	-115
1.88633	-115
1.89000	-114
1.89367	-114
1.89733	-114
1.90100	-114
1.90467	-115
1.90833	-115
1.91200	-115
1.91567	-115
1.91933	-115
1.92300	-115
1.92667	-115
1.93033	-114
1.93400	-114
1.93767	-113
1.94133	-113
1.94500	-112
1.94867	-112
1.95233	-112
1.95600	-112
1.95967	-112
1.96333	-113
1.96700	-113
1.97067	-113
1.97433	-112
1.97800	-112
1.98167	-111
1.98533	-110
1.98900	-110
1.99267	-109
1.99633	-109
2.00000	-109
2.00367	-109
2.00733	-109
2.01100	-108
2.01467	-108
2.01833	-108
2.02200	-108
2.02567	-109
2.02933	-109
2.03300	-108
2.03667	-108
2.04033	-107
2.04400	-106
2.04767	-106
2.05133	-106
2.05500	-105
2.05867	-105
2.06233	-105
2.06600	-104
2.06967	-104
2.07333	-104
2.07700	-104
2.08067	-103
2.08433	-102
2.08800	-102
2.09167	-101
2.09533	-101
2.09900	-100
2.10267	-100
2.10633	-100
2.11000	-101
2.11367	-101
2.11733	-102
2.12100	-102
2.12467	-101
2.12833	-101
2.13200	-100
2.13567	-99
2.13933	-98
2.14300	-97
2.14667	-97
2.15033	-96
2.15400	-96
2.15767	-97
2.16133	-97
2.16500	-98
2.16867	-98
2.17233	-98
2.17600	-98
2.17967	-98
2.18333	-97
2.18700	-97
2.19067	-97
2.19433	-96
2.19800	-96
2.20167	-95
2.20533	-94
2.20900	-94
2.21267	-93
2.21633	-92
2.22000	-92
2.22367	-91
2.22733	-91
2.23100	-90
2.23467	-90
2.23833	-90
2.24200	-90
2.24567	-91
2.24933	-91
2.25300	-91
2.25667	-92
2.26033	-92
2.26400	-92
2.26767	-92
2.27133	-91
2.27500	-91
2.27867	-90
2.28233	-89
2.28600	-88
2.28967	-87
2.29333	-86
2.29700	-86
2.30067	-86
2.30433	-86
2.30800	-86
2.31167	-86
2.31533	-86
2.31900	-85
2.32267	-85
2.32633	-84
2.33000	-83
2.33367	-83
2.33733	-82
2.34100	-82
2.34467	-81
2.34833	-81
2.35200	-80
2.35567	-79
2.35933	-77
2.36300	-76
2.36667	-74
2.37033	-72
2.37400	-69
2.37767	-66
2.38133	-62
2.38500	-58
2.38867	-54
2.39233	-49
2.39600	-44
2.39967	-40
2.40333	-35
2.40700	-30
2.41067	-26
2.41433	-23
2.41800	-20
2.42167	-17
2.42533	-16
2.42900	-14
2.43267	-13
2.43633	-12
2.44000	-11
2.44367	-11
2.44733	-10
2.45100	-9
2.45467	-9
2.45833	-8
2.46200	-8
2.46567	-7
2.46933	-6
2.47300	-5
2.47667	-3
2.48033	-2
2.48400	-1
2.48767	0
2.49133	1
2.49500	1
2.49867	2
2.50233	2
2.50600	2
2.50967	2
2.51333	3
2.51700	3
2.52067	4
2.52433	5
2.52800	6
2.53167	7
2.53533	7
2.53900	8
2.54267	8
2.54633	9
2.55000	9
2.55367	9
2.55733	9
2.56100	9
2.56467	10
2.56833	10
2.57200	11
2.57567	11
2.57933	11
2.58300	11
2.58667	11
2.59033	11
2.59400	11
2.59767	11
2.60133	11
2.60500	12
2.60867	12
2.61233	12
2.61600	13
2.61967	13
2.62333	13
2.62700	13
2.63067	14
2.63433	14
2.63800	14
2.64167	14
2.64533	15
2.64900	15
2.65267	16
2.65633	16
2.66000	16
2.66367	16
2.66733	16
2.67100	16
2.67467	17
2.67833	17
2.68200	17
2.68567	17
2.68933	17
2.69300	17
2.69667	17
2.70033	17
2.70400	18
2.70767	18
2.71133	18
2.71500	18
2.71867	18
2.72233	18
2.72600	18
2.72967	19
2.73333	19
2.73700	20
2.74067	21
2.74433	21
2.74800	22
2.75167	22
2.75533	23
2.75900	23
2.76267	23
2.76633	23
2.77000	23
2.77367	23
2.77733	22
2.78100	22
2.78467	22
2.78833	21
2.79200	21
2.79567	21
2.79933	21
2.80300	21
2.80667	21
2.81033	22
2.81400	22
2.81767	22
2.82133	23
2.82500	23
2.82867	23
2.83233	23
2.83600	23
2.83967	23
2.84333	22
2.84700	20
2.85067	17
2.85433	12
2.85800	3
2.86167	-9
2.86533	-24
2.86900	-44
2.87267	-68
2.87633	-96
2.88000	-129
2.88367	-167
2.88733	-208
2.89100	-253
2.89467	-300
2.89833	-351
2.90200	-403
2.90567	-458
2.90933	-513
2.91300	-568
2.91667	-624
2.92033	-680
2.92400	-735
2.92767	-788
2.93133	-839
2.93500	-892
2.93867	-948
2.94233	-1006
2.94600	-1060
2.94967	-1097
2.95333	-1111
2.95700	-1099
2.96067	-1063
2.96433	-1007
2.96800	-938
2.97167	-860
2.97533	-779
2.97900	-699
2.98267	-621
2.98633	-547
2.99000	-479
2.99367	-417
2.99733	-362
3.00100	-312
3.00467	-268
3.00833	-230
3.01200	-196
3.01567	-167
3.01933	-142
3.02300	-120
3.02667	-102
3.03033	-85
3.03400	-72
3.03767	-60
3.04133	-50
3.04500	-41
3.04867	-33
3.05233	-27
3.05600	-21
3.05967	-17
3.06333	-13
3.06700	-10
3.07067	-7
3.07433	-4
3.07800	-2
3.08167	-0
3.08533	1
3.08900	2
3.09267	3
3.09633	4
3.10000	5
3.10367	6
3.10733	7
3.11100	8
3.11467	8
3.11833	9
3.12200	9
3.12567	10
3.12933	10
3.13300	10
3.13667	11
3.14033	11
3.14400	11
3.14767	11
3.15133	11
3.15500	11
3.15867	11
3.16233	11
3.16600	12
3.16967	12
3.17333	13
3.17700	13
3.18067	14
3.18433	14
3.18800	14
3.19167	14
3.19533	15
3.19900	15
3.20267	16
3.20633	16
3.21000	16
3.21367	16
3.21733	16
3.22100	17
3.22467	17
3.22833	17
3.23200	18
3.23567	18
3.23933	18
3.24300	18
3.24667	19
3.25033	19
3.25400	19
3.25767	18
3.26133	18
3.26500	18
3.26867	19
3.27233	19
3.27600	19
3.27967	19
3.28333	19
3.28700	20
3.29067	20
3.29433	20
3.29800	20
3.30167	20
3.30533	21
3.30900	21
3.31267	21
3.31633	21
3.32000	21
3.32367	21
3.32733	21
3.33100	22
3.33467	22
3.33833	22
3.34200	22
3.34567	22
3.34933	22
3.35300	22
3.35667	22
3.36033	22
3.36400	22
3.36767	22
3.37133	22
3.37500	22
3.37867	22
3.38233	22
3.38600	22
3.38967	22
3.39333	21
3.39700	21
3.40067	21
3.40433	21
3.40800	21
3.41167	21
3.41533	21
3.41900	21
3.42267	21
3.42633	21
3.43000	21
3.43367	21
3.43733	21
3.44100	21
3.44467	21
3.44833	22
3.45200	22
3.45567	22
3.45933	23
3.46300	23
3.46667	23
3.47033	23
3.47400	23
3.47767	24
3.48133	24
3.48500	24
3.48867	24
3.49233	24
3.49600	24
3.49967	24
3.50333	24
3.50700	24
3.51067	24
3.51433	24
3.51800	24
3.52167	24
3.52533	24
3.52900	24
3.53267	24
3.53633	24
3.54000	23
3.54367	23
3.54733	23
3.55100	23
3.55467	23
3.55833	23
3.56200	23
3.56567	23
3.56933	23
3.57300	23
3.57667	23
3.58033	24
3.58400	24
3.58767	24
3.59133	24
3.59500	25
3.59867	25
3.60233	25
3.60600	25
3.60967	25
3.61333	25
3.61700	25
3.62067	25
3.62433	25
3.62800	25
3.63167	25
3.63533	24
3.63900	24
3.64267	23
3.64633	23
3.65000	23
3.65367	23
3.65733	23
3.66100	23
3.66467	24
3.66833	24
3.67200	24
3.67567	24
3.67933	24
3.68300	24
3.68667	23
3.69033	23
3.69400	23
3.69767	23
3.70133	23
3.70500	23
3.70867	22
3.71233	22
3.71600	22
3.71967	21
3.72333	21
3.72700	21
3.73067	20
3.73433	20
3.73800	20
3.74167	20
3.74533	20
3.74900	20
3.75267	20
3.75633	20
3.76000	20
3.76367	20
3.76733	20
3.77100	20
3.77467	21
3.77833	21
3.78200	21
3.78567	21
3.78933	21
3.79300	21
3.79667	21
3.80033	21
3.80400	21
3.80767	21
3.81133	21
3.81500	21
3.81867	21
3.82233	21
3.82600	21
3.82967	21
3.83333	21
3.83700	22
3.84067	22
3.84433	22
3.84800	22
3.85167	22
3.85533	23
3.85900	23
3.86267	23
3.86633	23
3.87000	23
3.87367	23
3.87733	24
3.88100	24
3.88467	24
3.88833	24
3.89200	24
3.89567	24
3.89933	24
3.90300	24
3.90667	24
3.91033	24
3.91400	25
3.91767	25
3.92133	25
3.92500	25
3.92867	25
3.93233	25
3.93600	25
3.93967	24
3.94333	24
3.94700	24
3.95067	23
3.95433	23
3.95800	23
3.96167	23
3.96533	24
3.96900	24
3.97267	24
3.97633	24
3.98000	24
3.98367	24
3.98733	24
3.99100	24
3.99467	24
3.99833	24

[Chromatogram (Ch3)]
Interval(msec)	220
# of Points	1091
Start Time(min)	0.002
End Time(min)	3.998
R.Time (min)	Intensity
0.00167	-1
0.00533	-1
0.00900	-1
0.01267	0
0.01633	1
0.02000	-1
0.02367	-3
0.02733	-3
0.03100	-4
0.03467	-4
0.03833	-3
0.04200	-3
0.04567	-3
0.04933	-2
0.05300	-2
0.05667	-2
0.06033	-3
0.06400	-5
0.06767	-5
0.07133	-2
0.07500	-1
0.07867	-2
0.08233	-3
0.08600	-2
0.08967	-0
0.09333	0
0.09700	1
0.10067	-0
0.10433	-1
0.10800	-3
0.11167	-2
0.11533	-2
0.11900	-1
0.12267	0
0.12633	0
0.13000	-0
0.13367	2
0.13733	3
0.14100	3
0.14467	4
0.14833	5
0.15200	7
0.15567	5
0.15933	4
0.16300	2
0.16667	-0
0.17033	-1
0.17400	-2
0.17767	-3
0.18133	-4
0.18500	-3
0.18867	-1
0.19233	0
0.19600	2
0.19967	3
0.20333	3
0.20700	3
0.21067	4
0.21433	6
0.21800	9
0.22167	10
0.22533	10
0.22900	10
0.23267	10
0.23633	9
0.24000	9
0.24367	8
0.24733	8
0.25100	9
0.25467	9
0.25833	11
0.26200	14
0.26567	15
0.26933	15
0.27300	15
0.27667	16
0.28033	15
0.28400	13
0.28767	11
0.29133	10
0.29500	10
0.29867	9
0.30233	9
0.30600	9
0.30967	11
0.31333	12
0.31700	12
0.32067	11
0.32433	11
0.32800	12
0.33167	15
0.33533	17
0.33900	17
0.34267	16
0.34633	14
0.35000	15
0.35367	13
0.35733	12
0.36100	12
0.36467	13
0.36833	14
0.37200	15
0.37567	18
0.37933	18
0.38300	17
0.38667	18
0.39033	19
0.39400	19
0.39767	19
0.40133	18
0.40500	18
0.40867	19
0.41233	19
0.41600	19
0.41967	18
0.42333	17
0.42700	17
0.43067	16
0.43433	15
0.43800	14
0.44167	15
0.44533	13
0.44900	11
0.45267	9
0.45633	7
0.46000	7
0.46367	8
0.46733	11
0.47100	14
0.47467	15
0.47833	15
0.48200	15
0.48567	17
0.48933	19
0.49300	21
0.49667	20
0.50033	20
0.50400	22
0.50767	22
0.51133	21
0.51500	20
0.51867	18
0.52233	18
0.52600	17
0.52967	14
0.53333	13
0.53700	13
0.54067	14
0.54433	14
0.54800	16
0.55167	16
0.55533	15
0.55900	15
0.56267	16
0.56633	17
0.57000	15
0.57367	16
0.57733	16
0.58100	17
0.58467	16
0.58833	16
0.59200	16
0.59567	17
0.59933	20
0.60300	19
0.60667	18
0.61033	17
0.61400	18
0.61767	18
0.62133	18
0.62500	20
0.62867	17
0.63233	12
0.63600	10
0.63967	10
0.64333	10
0.64700	12
0.65067	14
0.65433	15
0.65800	13
0.66167	12
0.66533	12
0.66900	12
0.67267	13
0.67633	12
0.68000	11
0.68367	10
0.68733	11
0.69100	10
0.69467	10
0.69833	9
0.70200	8
0.70567	9
0.70933	11
0.71300	12
0.71667	14
0.72033	15
0.72400	14
0.72767	11
0.73133	8
0.73500	6
0.73867	6
0.74233	8
0.74600	10
0.74967	10
0.75333	9
0.75700	8
0.76067	6
0.76433	8
0.76800	9
0.77167	10
0.77533	11
0.77900	11
0.78267	10
0.78633	9
0.79000	7
0.79367	6
0.79733	9
0.80100	9
0.80467	8
0.80833	8
0.81200	6
0.81567	6
0.81933	8
0.82300	9
0.82667	8
0.83033	8
0.83400	8
0.83767	9
0.84133	5
0.84500	3
0.84867	3
0.85233	2
0.85600	3
0.85967	7
0.86333	7
0.86700	5
0.87067	3
0.87433	4
0.87800	5
0.88167	6
0.88533	7
0.88900	10
0.89267	11
0.89633	11
0.90000	9
0.90367	7
0.90733	5
0.91100	3
0.91467	3
0.91833	3
0.92200	2
0.92567	3
0.92933	4
0.93300	4
0.93667	6
0.94033	6
0.94400	6
0.94767	6
0.95133	8
0.95500	10
0.95867	10
0.96233	10
0.96600	9
0.96967	8
0.97333	8
0.97700	8
0.98067	7
0.98433	8
0.98800	9
0.99167	8
0.99533	8
0.99900	9
1.00267	7
1.00633	7
1.01000	7
1.01367	10
1.01733	12
1.02100	12
1.02467	10
1.02833	8
1.03200	7
1.03567	9
1.03933	12
1.04300	13
1.04667	11
1.05033	9
1.05400	8
1.05767	8
1.06133	9
1.06500	11
1.06867	11
1.07233	11
1.07600	12
1.07967	14
1.08333	16
1.08700	14
1.09067	12
1.09433	12
1.09800	11
1.10167	10
1.10533	11
1.10900	11
1.11267	13
1.11633	15
1.12000	17
1.12367	17
1.12733	14
1.13100	11
1.13467	10
1.13833	10
1.14200	9
1.14567	10
1.14933	12
1.15300	12
1.15667	11
1.16033	11
1.16400	11
1.16767	12
1.17133	13
1.17500	13
1.17867	12
1.18233	11
1.18600	11
1.18967	11
1.19333	11
1.19700	12
1.20067	13
1.20433	14
1.20800	13
1.21167	13
1.21533	14
1.21900	13
1.22267	12
1.22633	12
1.23000	12
1.23367	13
1.23733	16
1.24100	17
1.24467	17
1.24833	18
1.25200	17
1.25567	15
1.25933	13
1.26300	12
1.26667	13
1.27033	13
1.27400	13
1.27767	13
1.28133	14
1.28500	15
1.28867	15
1.29233	15
1.29600	15
1.29967	14
1.30333	16
1.30700	17
1.31067	17
1.31433	17
1.31800	16
1.32167	17
1.32533	18
1.32900	19
1.33267	20
1.33633	20
1.34000	21
1.34367	23
1.34733	23
1.35100	24
1.35467	25
1.35833	25
1.36200	25
1.36567	24
1.36933	25
1.37300	26
1.37667	25
1.38033	25
1.38400	24
1.38767	22
1.39133	22
1.39500	23
1.39867	24
1.40233	29
1.40600	33
1.40967	32
1.41333	30
1.41700	29
1.42067	30
1.42433	33
1.42800	35
1.43167	35
1.43533	35
1.43900	35
1.44267	33
1.44633	31
1.45000	30
1.45367	28
1.45733	27
1.46100	28
1.46467	29
1.46833	30
1.47200	30
1.47567	31
1.47933	31
1.48300	31
1.48667	28
1.49033	25
1.49400	26
1.49767	26
1.50133	26
1.50500	28
1.50867	28
1.51233	28
1.51600	29
1.51967	32
1.52333	33
1.52700	31
1.53067	29
1.53433	30
1.53800	30
1.54167	29
1.54533	28
1.54900	27
1.55267	28
1.55633	29
1.56000	30
1.56367	32
1.56733	33
1.57100	33
1.57467	32
1.57833	31
1.58200	32
1.58567	33
1.58933	32
1.59300	30
1.59667	31
1.60033	32
1.60400	31
1.60767	30
1.61133	30
1.61500	29
1.61867	31
1.62233	32
1.62600	32
1.62967	33
1.63333	33
1.63700	32
1.64067	34
1.64433	35
1.64800	33
1.65167	33
1.65533	35
1.65900	36
1.66267	36
1.66633	34
1.67000	32
1.67367	33
1.67733	34
1.68100	34
1.68467	35
1.68833	36
1.69200	38
1.69567	40
1.69933	41
1.70300	42
1.70667	42
1.71033	43
1.71400	42
1.71767	42
1.72133	42
1.72500	42
1.72867	41
1.73233	40
1.73600	39
1.73967	40
1.74333	41
1.74700	40
1.75067	41
1.75433	41
1.75800	43
1.76167	45
1.76533	46
1.76900	47
1.77267	46
1.77633	45
1.78000	44
1.78367	44
1.78733	43
1.79100	44
1.79467	45
1.79833	46
1.80200	48
1.80567	51
1.80933	52
1.81300	52
1.81667	52
1.82033	51
1.82400	51
1.82767	52
1.83133	53
1.83500	54
1.83867	55
1.84233	58
1.84600	60
1.84967	61
1.85333	62
1.85700	61
1.86067	60
1.86433	61
1.86800	61
1.87167	60
1.87533	59
1.87900	59
1.88267	61
1.88633	62
1.89000	64
1.89367	66
1.89733	70
1.90100	71
1.90467	72
1.90833	72
1.91200	70
1.91567	68
1.91933	68
1.92300	70
1.92667	73
1.93033	72
1.93400	71
1.93767	72
1.94133	73
1.94500	75
1.94867	77
1.95233	79
1.95600	80
1.95967	82
1.96333	82
1.96700	82
1.97067	81
1.97433	81
1.97800	85
1.98167	88
1.98533	89
1.98900	90
1.99267	91
1.99633	91
2.00000	91
2.00367	93
2.00733	95
2.01100	97
2.01467	97
2.01833	96
2.02200	96
2.02567	98
2.02933	101
2.03300	104
2.03667	107
2.04033	107
2.04400	106
2.04767	108
2.05133	110
2.05500	114
2.05867	115
2.06233	116
2.06600	115
2.06967	116
2.07333	116
2.07700	115
2.08067	115
2.08433	116
2.08800	117
2.09167	118
2.09533	120
2.09900	122
2.10267	120
2.10633	120
2.11000	123
2.11367	126
2.11733	127
2.12100	127
2.12467	127
2.12833	128
2.13200	129
2.13567	129
2.13933	131
2.14300	133
2.14667	135
2.15033	137
2.15400	138
2.15767	140
2.16133	141
2.16500	141
2.16867	143
2.17233	147
2.17600	149
2.17967	150
2.18333	151
2.18700	152
2.19067	155
2.19433	158
2.19800	158
2.20167	160
2.20533	161
2.20900	160
2.21267	159
2.21633	160
2.22000	161
2.22367	163
2.22733	165
2.23100	166
2.23467	169
2.23833	170
2.24200	172
2.24567	175
2.24933	175
2.25300	177
2.25667	178
2.26033	179
2.26400	178
2.26767	178
2.27133	178
2.27500	178
2.27867	178
2.28233	181
2.28600	182
2.28967	184
2.29333	185
2.29700	184
2.30067	185
2.30433	187
2.30800	190
2.31167	192
2.31533	193
2.31900	192
2.32267	192
2.32633	193
2.33000	195
2.33367	199
2.33733	203
2.34100	207
2.34467	208
2.34833	210
2.35200	210
2.35567	210
2.35933	208
2.36300	209
2.36667	211
2.37033	214
2.37400	215
2.37767	214
2.38133	213
2.38500	213
2.38867	213
2.39233	213
2.39600	212
2.39967	213
2.40333	217
2.40700	220
2.41067	223
2.41433	228
2.41800	232
2.42167	233
2.42533	231
2.42900	230
2.43267	230
2.43633	230
2.44000	233
2.44367	287
2.44733	435
2.45100	597
2.45467	731
2.45833	807
2.46200	817
2.46567	786
2.46933	746
2.47300	714
2.47667	695
2.48033	678
2.48400	650
2.48767	608
2.49133	559
2.49500	513
2.49867	478
2.50233	452
2.50600	437
2.50967	432
2.51333	437
2.51700	451
2.52067	472
2.52433	491
2.52800	502
2.53167	502
2.53533	489
2.53900	467
2.54267	437
2.54633	405
2.55000	373
2.55367	345
2.55733	322
2.56100	306
2.56467	295
2.56833	288
2.57200	282
2.57567	277
2.57933	275
2.58300	275
2.58667	279
2.59033	283
2.59400	285
2.59767	286
2.60133	286
2.60500	283
2.60867	279
2.61233	273
2.61600	268
2.61967	262
2.62333	256
2.62700	248
2.63067	241
2.63433	235
2.63800	229
2.64167	220
2.64533	210
2.64900	199
2.65267	188
2.65633	178
2.66000	167
2.66367	155
2.66733	144
2.67100	135
2.67467	127
2.67833	121
2.68200	116
2.68567	112
2.68933	110
2.69300	108
2.69667	106
2.70033	106
2.70400	106
2.70767	109
2.71133	112
2.71500	117
2.71867	122
2.72233	126
2.72600	129
2.72967	132
2.73333	133
2.73700	136
2.74067	140
2.74433	144
2.74800	148
2.75167	152
2.75533	154
2.75900	156
2.76267	158
2.76633	162
2.77000	166
2.77367	172
2.77733	177
2.78100	180
2.78467	182
2.78833	183
2.79200	184
2.79567	187
2.79933	193
2.80300	200
2.80667	206
2.81033	210
2.81400	215
2.81767	224
2.82133	236
2.82500	255
2.82867	291
2.83233	361
2.83600	484
2.83967	685
2.84333	981
2.84700	1380
2.85067	1874
2.85433	2440
2.85800	3039
2.86167	3624
2.86533	4150
2.86900	4573
2.87267	4864
2.87633	5008
2.88000	5014
2.88367	4898
2.88733	4684
2.89100	4400
2.89467	4075
2.89833	3730
2.90200	3384
2.90567	3048
2.90933	2729
2.91300	2434
2.91667	2165
2.92033	1921
2.92400	1704
2.92767	1513
2.93133	1345
2.93500	1195
2.93867	1064
2.94233	950
2.94600	850
2.94967	764
2.95333	688
2.95700	620
2.96067	562
2.96433	513
2.96800	471
2.97167	436
2.97533	405
2.97900	377
2.98267	352
2.98633	331
2.99000	311
2.99367	295
2.99733	282
3.00100	272
3.00467	263
3.00833	253
3.01200	241
3.01567	209
3.01933	170
3.02300	156
3.02667	170
3.03033	203
3.03400	247
3.03767	296
3.04133	348
3.04500	396
3.04867	440
3.05233	477
3.05600	510
3.05967	538
3.06333	563
3.06700	585
3.07067	603
3.07433	618
3.07800	633
3.08167	645
3.08533	655
3.08900	665
3.09267	674
3.09633	683
3.10000	691
3.10367	698
3.10733	705
3.11100	707
3.11467	710
3.11833	714
3.12200	719
3.12567	724
3.12933	728
3.13300	731
3.13667	737
3.14033	745
3.14400	752
3.14767	756
3.15133	758
3.15500	762
3.15867	765
3.16233	770
3.16600	775
3.16967	779
3.17333	784
3.17700	790
3.18067	798
3.18433	803
3.18800	808
3.19167	813
3.19533	818
3.19900	820
3.20267	824
3.20633	830
3.21000	837
3.21367	843
3.21733	849
3.22100	854
3.22467	859
3.22833	863
3.23200	866
3.23567	867
3.23933	869
3.24300	873
3.24667	876
3.25033	879
3.25400	881
3.25767	883
3.26133	887
3.26500	888
3.26867	889
3.27233	887
3.27600	888
3.27967	890
3.28333	891
3.28700	892
3.29067	893
3.29433	892
3.29800	891
3.30167	890
3.30533	889
3.30900	889
3.31267	890
3.31633	888
3.32000	884
3.32367	882
3.32733	883
3.33100	882
3.33467	884
3.33833	884
3.34200	886
3.34567	886
3.34933	885
3.35300	885
3.35667	884
3.36033	881
3.36400	877
3.36767	874
3.37133	873
3.37500	871
3.37867	870
3.38233	868
3.38600	866
3.38967	865
3.39333	861
3.39700	856
3.40067	855
3.40433	854
3.40800	852
3.41167	850
3.41533	848
3.41900	846
3.42267	846
3.42633	846
3.43000	846
3.43367	844
3.43733	842
3.44100	841
3.44467	840
3.44833	839
3.45200	838
3.45567	837
3.45933	838
3.46300	837
3.46667	837
3.47033	837
3.47400	838
3.47767	839
3.48133	840
3.48500	839
3.48867	834
3.49233	829
3.49600	824
3.49967	822
3.50333	822
3.50700	823
3.51067	823
3.51433	822
3.51800	821
3.52167	821
3.52533	820
3.52900	819
3.53267	818
3.53633	816
3.54000	818
3.54367	817
3.54733	815
3.55100	812
3.55467	811
3.55833	808
3.56200	806
3.56567	804
3.56933	802
3.57300	801
3.57667	801
3.58033	799
3.58400	797
3.58767	794
3.59133	793
3.59500	792
3.59867	793
3.60233	792
3.60600	792
3.60967	793
3.61333	791
3.61700	789
3.62067	786
3.62433	783
3.62800	782
3.63167	782
3.63533	782
3.63900	780
3.64267	778
3.64633	777
3.65000	775
3.65367	772
3.65733	769
3.66100	765
3.66467	763
3.66833	762
3.67200	761
3.67567	759
3.67933	758
3.68300	756
3.68667	752
3.69033	750
3.69400	749
3.69767	746
3.70133	744
3.70500	743
3.70867	743
3.71233	743
3.71600	741
3.71967	738
3.72333	735
3.72700	731
3.73067	730
3.73433	730
3.73800	730
3.74167	729
3.74533	727
3.74900	724
3.75267	721
3.75633	719
3.76000	716
3.76367	714
3.76733	713
3.77100	710
3.77467	706
3.77833	704
3.78200	703
3.78567	701
3.78933	700
3.79300	698
3.79667	694
3.80033	692
3.80400	691
3.80767	690
3.81133	688
3.81500	687
3.81867	685
3.82233	683
3.82600	679
3.82967	677
3.83333	676
3.83700	675
3.84067	672
3.84433	671
3.84800	671
3.85167	670
3.85533	668
3.85900	665
3.86267	662
3.86633	660
3.87000	659
3.87367	656
3.87733	650
3.88100	646
3.88467	645
3.88833	646
3.89200	646
3.89567	645
3.89933	643
3.90300	642
3.90667	640
3.91033	639
3.91400	638
3.91767	638
3.92133	636
3.92500	634
3.92867	633
3.93233	633
3.93600	631
3.93967	629
3.94333	627
3.94700	626
3.95067	625
3.95433	624
3.95800	623
3.96167	622
3.96533	620
3.96900	618
3.97267	613
3.97633	612
3.98000	611
3.98367	608
3.98733	607
3.99100	607
3.99467	608
3.99833	607

[Status Trace (Column Oven Temperature)]
Interval(msec)	1000
# of Points	239
Start Time(min)	0.014
End Time(min)	3.981
Intensity Units	
Intensity Multiplier	1
R.Time (min)	Intensity
0.01447	35.06
0.03113	35.06
0.04780	35.06
0.06447	35.06
0.08113	35.06
0.09780	35.07
0.11447	35.08
0.13113	35.07
0.14780	35.07
0.16447	35.06
0.18113	35.05
0.19780	35.05
0.21447	35.06
0.23113	35.04
0.24780	35.03
0.26447	35.01
0.28113	34.99
0.29780	34.98
0.31447	34.98
0.33113	34.99
0.34780	34.99
0.36447	35.01
0.38113	35.02
0.39780	35.04
0.41447	35.04
0.43113	35.03
0.44780	35.02
0.46447	35.01
0.48113	35.00
0.49780	35.00
0.51447	34.99
0.53113	35.00
0.54780	35.01
0.56447	35.01
0.58113	35.01
0.59780	34.99
0.61447	34.98
0.63113	34.96
0.64780	34.97
0.66447	34.97
0.68113	34.98
0.69780	34.99
0.71447	35.00
0.73113	34.99
0.74780	34.99
0.76447	34.99
0.78113	34.99
0.79780	34.99
0.81447	34.99
0.83113	34.99
0.84780	34.99
0.86447	35.00
0.88113	35.00
0.89780	35.00
0.91447	34.99
0.93113	34.98
0.94780	34.97
0.96447	34.96
0.98113	34.96
0.99780	34.97
1.01447	34.97
1.03113	34.97
1.04780	34.98
1.06447	35.00
1.08113	35.00
1.09780	35.01
1.11447	35.02
1.13113	35.02
1.14780	35.02
1.16447	35.03
1.18113	35.03
1.19780	35.03
1.21447	35.03
1.23113	35.02
1.24780	35.03
1.26447	35.04
1.28113	35.03
1.29780	35.02
1.31447	35.02
1.33113	35.03
1.34780	35.03
1.36447	35.02
1.38113	35.02
1.39780	35.01
1.41447	34.99
1.43113	34.99
1.44780	34.98
1.46447	34.97
1.48113	34.97
1.49780	34.97
1.51447	34.98
1.53113	34.99
1.54780	35.00
1.56447	35.00
1.58113	35.01
1.59780	35.03
1.61447	35.11
1.63113	35.26
1.64780	35.46
1.66447	35.74
1.68113	36.09
1.69780	36.46
1.71447	36.80
1.73113	37.14
1.74780	37.47
1.76447	37.81
1.78113	38.13
1.79780	38.47
1.81447	38.81
1.83113	39.11
1.84780	39.43
1.86447	39.77
1.88113	40.09
1.89780	40.41
1.91447	40.75
1.93113	41.07
1.94780	41.40
1.96447	41.73
1.98113	42.05
1.99780	42.37
2.01447	42.71
2.03113	43.03
2.04780	43.37
2.06447	43.69
2.08113	44.01
2.09780	44.33
2.11447	44.68
2.13113	44.99
2.14780	45.30
2.16447	45.64
2.18113	45.98
2.19780	46.30
2.21447	46.61
2.23113	46.94
2.24780	47.31
2.26447	47.64
2.28113	47.96
2.29780	48.30
2.31447	48.62
2.33113	48.94
2.34780	49.26
2.36447	49.50
2.38113	49.62
2.39780	49.63
2.41447	49.62
2.43113	49.63
2.44780	49.64
2.46447	49.65
2.48113	49.64
2.49780	49.69
2.51447	49.71
2.53113	49.72
2.54780	49.74
2.56447	49.75
2.58113	49.79
2.59780	49.79
2.61447	49.81
2.63113	49.81
2.64780	49.81
2.66447	49.83
2.68113	49.84
2.69780	49.84
2.71447	49.86
2.73113	49.85
2.74780	49.85
2.76447	49.86
2.78113	49.87
2.79780	49.88
2.81447	49.88
2.83113	49.87
2.84780	49.87
2.86447	49.88
2.88113	49.89
2.89780	49.91
2.91447	49.92
2.93113	49.93
2.94780	49.94
2.96447	49.95
2.98113	49.96
2.99780	49.96
3.01447	49.97
3.03113	49.98
3.04780	49.98
3.06447	49.99
3.08113	50.01
3.09780	50.02
3.11447	50.03
3.13113	50.05
3.14780	50.07
3.16447	50.08
3.18113	50.08
3.19780	50.08
3.21447	50.09
3.23113	50.08
3.24780	50.09
3.26447	50.10
3.28113	50.10
3.29780	50.09
3.31447	50.09
3.33113	50.08
3.34780	50.08
3.36447	50.09
3.38113	50.09
3.39780	50.10
3.41447	50.10
3.43113	50.11
3.44780	50.10
3.46447	50.09
3.48113	50.07
3.49780	50.07
3.51447	50.06
3.53113	50.06
3.54780	50.06
3.56447	50.05
3.58113	50.04
3.59780	50.03
3.61447	50.02
3.63113	50.02
3.64780	50.02
3.66447	50.01
3.68113	50.01
3.69780	50.01
3.71447	50.03
3.73113	50.05
3.74780	50.06
3.76447	50.07
3.78113	50.08
3.79780	50.08
3.81447	50.09
3.83113	50.08
3.84780	50.07
3.86447	50.08
3.88113	50.07
3.89780	50.07
3.91447	50.06
3.93113	50.05
3.94780	50.05
3.96447	50.04
3.98113	50.04

[Status Trace (Injection Unit Temperature)]
Interval(msec)	1000
# of Points	239
Start Time(min)	0.014
End Time(min)	3.981
Intensity Units	
Intensity Multiplier	1
R.Time (min)	Intensity
0.01447	99.97
0.03113	99.97
0.04780	99.97
0.06447	99.98
0.08113	99.98
0.09780	99.97
0.11447	99.98
0.13113	99.98
0.14780	99.98
0.16447	99.98
0.18113	99.98
0.19780	99.98
0.21447	99.98
0.23113	99.98
0.24780	99.98
0.26447	99.98
0.28113	99.98
0.29780	99.98
0.31447	99.99
0.33113	99.99
0.34780	99.98
0.36447	99.99
0.38113	99.98
0.39780	99.98
0.41447	99.99
0.43113	99.98
0.44780	99.98
0.46447	99.98
0.48113	99.99
0.49780	99.99
0.51447	99.99
0.53113	99.99
0.54780	99.98
0.56447	99.99
0.58113	99.99
0.59780	99.99
0.61447	99.99
0.63113	99.98
0.64780	99.98
0.66447	99.99
0.68113	99.98
0.69780	99.98
0.71447	99.98
0.73113	99.98
0.74780	99.98
0.76447	99.98
0.78113	99.98
0.79780	99.98
0.81447	99.98
0.83113	99.98
0.84780	99.97
0.86447	99.98
0.88113	99.98
0.89780	99.98
0.91447	99.98
0.93113	99.98
0.94780	99.98
0.96447	99.97
0.98113	99.98
0.99780	99.98
1.01447	99.98
1.03113	99.98
1.04780	99.98
1.06447	99.98
1.08113	99.98
1.09780	99.98
1.11447	99.98
1.13113	99.98
1.14780	99.98
1.16447	99.98
1.18113	99.99
1.19780	99.98
1.21447	99.98
1.23113	99.98
1.24780	99.98
1.26447	99.98
1.28113	99.98
1.29780	99.99
1.31447	99.99
1.33113	99.99
1.34780	99.99
1.36447	99.98
1.38113	99.99
1.39780	99.99
1.41447	99.99
1.43113	99.99
1.44780	99.99
1.46447	99.99
1.48113	99.99
1.49780	99.99
1.51447	99.99
1.53113	99.99
1.54780	99.99
1.56447	99.99
1.58113	99.99
1.59780	99.99
1.61447	99.99
1.63113	99.99
1.64780	99.99
1.66447	99.99
1.68113	99.99
1.69780	99.99
1.71447	99.99
1.73113	99.99
1.74780	99.99
1.76447	99.98
1.78113	99.99
1.79780	99.99
1.81447	99.99
1.83113	99.98
1.84780	99.99
1.86447	99.99
1.88113	99.98
1.89780	99.98
1.91447	99.98
1.93113	99.98
1.94780	99.98
1.96447	99.98
1.98113	99.98
1.99780	99.98
2.01447	99.98
2.03113	99.97
2.04780	99.97
2.06447	99.97
2.08113	99.97
2.09780	99.97
2.11447	99.97
2.13113	99.97
2.14780	99.97
2.16447	99.97
2.18113	99.97
2.19780	99.97
2.21447	99.96
2.23113	99.97
2.24780	99.97
2.26447	99.97
2.28113	99.97
2.29780	99.96
2.31447	99.96
2.33113	99.96
2.34780	99.96
2.36447	99.96
2.38113	99.96
2.39780	99.96
2.41447	99.96
2.43113	99.96
2.44780	99.96
2.46447	99.97
2.48113	99.97
2.49780	99.96
2.51447	99.97
2.53113	99.97
2.54780	99.97
2.56447	99.97
2.58113	99.97
2.59780	99.98
2.61447	99.97
2.63113	99.98
2.64780	99.98
2.66447	99.97
2.68113	99.98
2.69780	99.98
2.71447	99.98
2.73113	99.98
2.74780	99.99
2.76447	99.99
2.78113	99.99
2.79780	100.00
2.81447	99.99
2.83113	100.00
2.84780	100.00
2.86447	100.00
2.88113	100.00
2.89780	100.00
2.91447	100.00
2.93113	100.00
2.94780	100.01
2.96447	100.01
2.98113	100.01
2.99780	100.01
3.01447	100.01
3.03113	100.02
3.04780	100.02
3.06447	100.02
3.08113	100.02
3.09780	100.02
3.11447	100.02
3.13113	100.02
3.14780	100.03
3.16447	100.03
3.18113	100.03
3.19780	100.03
3.21447	100.03
3.23113	100.03
3.24780	100.03
3.26447	100.03
3.28113	100.04
3.29780	100.04
3.31447	100.03
3.33113	100.04
3.34780	100.04
3.36447	100.04
3.38113	100.04
3.39780	100.04
3.41447	100.04
3.43113	100.04
3.44780	100.04
3.46447	100.04
3.48113	100.04
3.49780	100.04
3.51447	100.04
3.53113	100.04
3.54780	100.04
3.56447	100.04
3.58113	100.04
3.59780	100.04
3.61447	100.04
3.63113	100.04
3.64780	100.04
3.66447	100.05
3.68113	100.05
3.69780	100.04
3.71447	100.05
3.73113	100.05
3.74780	100.05
3.76447	100.04
3.78113	100.04
3.79780	100.04
3.81447	100.04
3.83113	100.05
3.84780	100.04
3.86447	100.04
3.88113	100.04
3.89780	100.05
3.91447	100.05
3.93113	100.04
3.94780	100.04
3.96447	100.05
3.98113	100.05

[Status Trace (Carrier Gas Pressure)]
Interval(msec)	1000
# of Points	239
Start Time(min)	0.014
End Time(min)	3.981
Intensity Units	
Intensity Multiplier	1
R.Time (min)	Intensity
0.01447	57.36
0.03113	55.64
0.04780	57.96
0.06447	59.85
0.08113	58.61
0.09780	57.98
0.11447	58.00
0.13113	58.01
0.14780	58.01
0.16447	58.00
0.18113	58.00
0.19780	58.00
0.21447	58.00
0.23113	58.00
0.24780	58.00
0.26447	58.00
0.28113	58.00
0.29780	58.00
0.31447	58.00
0.33113	58.00
0.34780	58.00
0.36447	58.00
0.38113	58.00
0.39780	58.00
0.41447	58.00
0.43113	58.00
0.44780	58.00
0.46447	58.00
0.48113	58.00
0.49780	58.00
0.51447	58.00
0.53113	58.00
0.54780	58.00
0.56447	58.00
0.58113	58.00
0.59780	58.00
0.61447	58.00
0.63113	58.00
0.64780	58.00
0.66447	58.00
0.68113	58.00
0.69780	58.00
0.71447	58.00
0.73113	58.00
0.74780	58.00
0.76447	58.00
0.78113	58.00
0.79780	58.00
0.81447	58.00
0.83113	58.00
0.84780	58.00
0.86447	58.00
0.88113	58.00
0.89780	58.00
0.91447	58.00
0.93113	58.00
0.94780	58.00
0.96447	58.00
0.98113	58.00
0.99780	58.00
1.01447	58.00
1.03113	58.00
1.04780	58.00
1.06447	58.00
1.08113	58.00
1.09780	58.00
1.11447	58.00
1.13113	58.00
1.14780	58.00
1.16447	58.00
1.18113	58.00
1.19780	58.00
1.21447	58.00
1.23113	58.00
1.24780	58.00
1.26447	58.00
1.28113	58.00
1.29780	58.00
1.31447	58.00
1.33113	58.00
1.34780	58.00
1.36447	58.00
1.38113	58.00
1.39780	58.00
1.41447	58.00
1.43113	58.00
1.44780	58.00
1.46447	58.00
1.48113	58.00
1.49780	58.00
1.51447	58.00
1.53113	58.00
1.54780	58.00
1.56447	58.00
1.58113	58.00
1.59780	58.00
1.61447	58.00
1.63113	58.00
1.64780	58.00
1.66447	58.01
1.68113	58.01
1.69780	58.00
1.71447	58.00
1.73113	58.00
1.74780	58.00
1.76447	58.00
1.78113	58.00
1.79780	58.00
1.81447	58.00
1.83113	58.00
1.84780	58.00
1.86447	58.00
1.88113	58.00
1.89780	58.00
1.91447	58.00
1.93113	58.00
1.94780	58.00
1.96447	58.00
1.98113	58.00
1.99780	58.00
2.01447	58.00
2.03113	58.00
2.04780	58.00
2.06447	58.00
2.08113	58.00
2.09780	58.00
2.11447	58.00
2.13113	58.00
2.14780	58.00
2.16447	58.00
2.18113	58.00
2.19780	58.00
2.21447	58.00
2.23113	58.00
2.24780	58.00
2.26447	58.00
2.28113	58.00
2.29780	58.00
2.31447	58.00
2.33113	58.00
2.34780	58.00
2.36447	58.00
2.38113	57.99
2.39780	57.99
2.41447	58.00
2.43113	58.00
2.44780	58.00
2.46447	58.00
2.48113	58.00
2.49780	58.00
2.51447	57.99
2.53113	57.99
2.54780	58.00
2.56447	58.00
2.58113	58.00
2.59780	58.00
2.61447	58.00
2.63113	58.00
2.64780	58.00
2.66447	58.00
2.68113	58.00
2.69780	58.00
2.71447	58.00
2.73113	58.00
2.74780	58.00
2.76447	58.00
2.78113	58.00
2.79780	58.00
2.81447	58.00
2.83113	58.00
2.84780	58.00
2.86447	58.00
2.88113	58.00
2.89780	58.00
2.91447	58.00
2.93113	58.00
2.94780	58.00
2.96447	58.00
2.98113	58.00
2.99780	58.00
3.01447	58.00
3.03113	58.00
3.04780	58.00
3.06447	58.00
3.08113	58.00
3.09780	58.00
3.11447	58.00
3.13113	58.00
3.14780	58.00
3.16447	58.00
3.18113	58.00
3.19780	58.00
3.21447	58.00
3.23113	58.00
3.24780	58.00
3.26447	58.00
3.28113	58.00
3.29780	58.00
3.31447	58.00
3.33113	58.00
3.34780	58.00
3.36447	58.00
3.38113	58.00
3.39780	58.00
3.41447	58.00
3.43113	58.00
3.44780	58.00
3.46447	58.00
3.48113	58.00
3.49780	58.00
3.51447	58.00
3.53113	58.00
3.54780	58.00
3.56447	58.00
3.58113	58.00
3.59780	58.00
3.61447	58.00
3.63113	58.00
3.64780	58.00
3.66447	58.00
3.68113	58.00
3.69780	58.00
3.71447	58.00
3.73113	58.00
3.74780	58.00
3.76447	58.00
3.78113	58.00
3.79780	58.00
3.81447	58.00
3.83113	58.00
3.84780	58.00
3.86447	58.00
3.88113	58.00
3.89780	58.00
3.91447	58.00
3.93113	58.00
3.94780	58.00
3.96447	58.00
3.98113	58.00

[Status Trace (Carrier Gas Flow)]
Interval(msec)	1000
# of Points	239
Start Time(min)	0.014
End Time(min)	3.981
Intensity Units	
Intensity Multiplier	1
R.Time (min)	Intensity
0.01447	33.95
0.03113	34.54
0.04780	34.54
0.06447	34.51
0.08113	34.51
0.09780	34.51
0.11447	34.52
0.13113	34.52
0.14780	34.52
0.16447	34.52
0.18113	34.52
0.19780	34.52
0.21447	34.52
0.23113	34.52
0.24780	34.52
0.26447	34.52
0.28113	34.52
0.29780	34.51
0.31447	34.52
0.33113	34.52
0.34780	34.52
0.36447	34.52
0.38113	34.52
0.39780	34.52
0.41447	34.52
0.43113	34.52
0.44780	34.51
0.46447	34.52
0.48113	34.52
0.49780	34.52
0.51447	34.52
0.53113	34.52
0.54780	34.52
0.56447	34.52
0.58113	34.52
0.59780	34.52
0.61447	34.51
0.63113	34.52
0.64780	34.51
0.66447	34.52
0.68113	34.52
0.69780	34.52
0.71447	34.52
0.73113	34.52
0.74780	34.52
0.76447	34.52
0.78113	34.51
0.79780	34.52
0.81447	34.52
0.83113	34.52
0.84780	34.52
0.86447	34.52
0.88113	34.52
0.89780	34.52
0.91447	34.52
0.93113	34.52
0.94780	34.52
0.96447	34.52
0.98113	34.52
0.99780	34.52
1.01447	34.52
1.03113	34.52
1.04780	34.52
1.06447	34.52
1.08113	34.52
1.09780	34.52
1.11447	34.52
1.13113	34.52
1.14780	34.52
1.16447	34.52
1.18113	34.51
1.19780	34.52
1.21447	34.52
1.23113	34.52
1.24780	34.52
1.26447	34.52
1.28113	34.52
1.29780	34.52
1.31447	34.52
1.33113	34.52
1.34780	34.52
1.36447	34.52
1.38113	34.52
1.39780	34.52
1.41447	34.52
1.43113	34.52
1.44780	34.52
1.46447	34.51
1.48113	34.52
1.49780	34.52
1.51447	34.52
1.53113	34.52
1.54780	34.52
1.56447	34.52
1.58113	34.52
1.59780	34.52
1.61447	34.52
1.63113	34.52
1.64780	34.52
1.66447	34.52
1.68113	34.52
1.69780	34.52
1.71447	34.52
1.73113	34.52
1.74780	34.52
1.76447	34.52
1.78113	34.52
1.79780	34.52
1.81447	34.52
1.83113	34.52
1.84780	34.52
1.86447	34.52
1.88113	34.52
1.89780	34.52
1.91447	34.52
1.93113	34.52
1.94780	34.52
1.96447	34.52
1.98113	34.52
1.99780	34.52
2.01447	34.52
2.03113	34.52
2.04780	34.52
2.06447	34.52
2.08113	34.52
2.09780	34.52
2.11447	34.51
2.13113	34.52
2.14780	34.52
2.16447	34.52
2.18113	34.52
2.19780	34.52
2.21447	34.52
2.23113	34.52
2.24780	34.52
2.26447	34.52
2.28113	34.53
2.29780	34.52
2.31447	34.52
2.33113	34.52
2.34780	34.52
2.36447	34.52
2.38113	34.52
2.39780	34.52
2.41447	34.52
2.43113	34.52
2.44780	34.51
2.46447	34.52
2.48113	34.52
2.49780	34.52
2.51447	34.52
2.53113	34.52
2.54780	34.52
2.56447	34.52
2.58113	34.52
2.59780	34.52
2.61447	34.51
2.63113	34.52
2.64780	34.52
2.66447	34.52
2.68113	34.52
2.69780	34.52
2.71447	34.52
2.73113	34.52
2.74780	34.52
2.76447	34.52
2.78113	34.51
2.79780	34.52
2.81447	34.52
2.83113	34.52
2.84780	34.52
2.86447	34.51
2.88113	34.52
2.89780	34.52
2.91447	34.52
2.93113	34.52
2.94780	34.52
2.96447	34.52
2.98113	34.52
2.99780	34.52
3.01447	34.52
3.03113	34.52
3.04780	34.52
3.06447	34.51
3.08113	34.52
3.09780	34.52
3.11447	34.52
3.13113	34.51
3.14780	34.52
3.16447	34.52
3.18113	34.52
3.19780	34.52
3.21447	34.52
3.23113	34.52
3.24780	34.52
3.26447	34.51
3.28113	34.52
3.29780	34.52
3.31447	34.51
3.33113	34.52
3.34780	34.52
3.36447	34.52
3.38113	34.52
3.39780	34.52
3.41447	34.52
3.43113	34.52
3.44780	34.51
3.46447	34.52
3.48113	34.52
3.49780	34.52
3.51447	34.51
3.53113	34.52
3.54780	34.52
3.56447	34.52
3.58113	34.52
3.59780	34.52
3.61447	34.52
3.63113	34.52
3.64780	34.52
3.66447	34.52
3.68113	34.52
3.69780	34.52
3.71447	34.52
3.73113	34.52
3.74780	34.52
3.76447	34.52
3.78113	34.52
3.79780	34.52
3.81447	34.52
3.83113	34.52
3.84780	34.52
3.86447	34.51
3.88113	34.52
3.89780	34.52
3.91447	34.52
3.93113	34.52
3.94780	34.52
3.96447	34.52
3.98113	34.52

[Status Trace (Column Flow)]
Interval(msec)	1000
# of Points	239
Start Time(min)	0.014
End Time(min)	3.981
Intensity Units	
Intensity Multiplier	1
R.Time (min)	Intensity
0.01447	5.48
0.03113	5.28
0.04780	5.55
0.06447	5.77
0.08113	5.62
0.09780	5.55
0.11447	5.55
0.13113	5.55
0.14780	5.55
0.16447	5.55
0.18113	5.55
0.19780	5.55
0.21447	5.55
0.23113	5.55
0.24780	5.55
0.26447	5.55
0.28113	5.55
0.29780	5.55
0.31447	5.55
0.33113	5.55
0.34780	5.55
0.36447	5.55
0.38113	5.55
0.39780	5.55
0.41447	5.55
0.43113	5.55
0.44780	5.55
0.46447	5.55
0.48113	5.55
0.49780	5.55
0.51447	5.55
0.53113	5.55
0.54780	5.55
0.56447	5.55
0.58113	5.55
0.59780	5.55
0.61447	5.55
0.63113	5.55
0.64780	5.55
0.66447	5.55
0.68113	5.55
0.69780	5.55
0.71447	5.55
0.73113	5.55
0.74780	5.55
0.76447	5.55
0.78113	5.55
0.79780	5.55
0.81447	5.55
0.83113	5.55
0.84780	5.55
0.86447	5.55
0.88113	5.55
0.89780	5.55
0.91447	5.55
0.93113	5.55
0.94780	5.55
0.96447	5.56
0.98113	5.55
0.99780	5.55
1.01447	5.55
1.03113	5.55
1.04780	5.55
1.06447	5.55
1.08113	5.55
1.09780	5.55
1.11447	5.55
1.13113	5.55
1.14780	5.55
1.16447	5.55
1.18113	5.55
1.19780	5.55
1.21447	5.55
1.23113	5.55
1.24780	5.55
1.26447	5.55
1.28113	5.55
1.29780	5.55
1.31447	5.55
1.33113	5.55
1.34780	5.55
1.36447	5.55
1.38113	5.55
1.39780	5.55
1.41447	5.55
1.43113	5.55
1.44780	5.55
1.46447	5.55
1.48113	5.55
1.49780	5.55
1.51447	5.55
1.53113	5.55
1.54780	5.55
1.56447	5.55
1.58113	5.55
1.59780	5.55
1.61447	5.55
1.63113	5.55
1.64780	5.54
1.66447	5.53
1.68113	5.52
1.69780	5.51
1.71447	5.50
1.73113	5.49
1.74780	5.48
1.76447	5.47
1.78113	5.46
1.79780	5.45
1.81447	5.43
1.83113	5.43
1.84780	5.42
1.86447	5.41
1.88113	5.40
1.89780	5.39
1.91447	5.38
1.93113	5.37
1.94780	5.36
1.96447	5.35
1.98113	5.34
1.99780	5.33
2.01447	5.32
2.03113	5.31
2.04780	5.30
2.06447	5.29
2.08113	5.28
2.09780	5.27
2.11447	5.26
2.13113	5.25
2.14780	5.24
2.16447	5.23
2.18113	5.22
2.19780	5.21
2.21447	5.20
2.23113	5.19
2.24780	5.18
2.26447	5.17
2.28113	5.17
2.29780	5.16
2.31447	5.15
2.33113	5.14
2.34780	5.13
2.36447	5.12
2.38113	5.12
2.39780	5.12
2.41447	5.12
2.43113	5.12
2.44780	5.12
2.46447	5.12
2.48113	5.12
2.49780	5.12
2.51447	5.12
2.53113	5.11
2.54780	5.12
2.56447	5.12
2.58113	5.11
2.59780	5.11
2.61447	5.11
2.63113	5.11
2.64780	5.11
2.66447	5.11
2.68113	5.11
2.69780	5.11
2.71447	5.11
2.73113	5.11
2.74780	5.11
2.76447	5.11
2.78113	5.11
2.79780	5.11
2.81447	5.11
2.83113	5.11
2.84780	5.11
2.86447	5.11
2.88113	5.11
2.89780	5.11
2.91447	5.11
2.93113	5.11
2.94780	5.11
2.96447	5.11
2.98113	5.11
2.99780	5.11
3.01447	5.11
3.03113	5.11
3.04780	5.11
3.06447	5.11
3.08113	5.11
3.09780	5.11
3.11447	5.11
3.13113	5.11
3.14780	5.11
3.16447	5.11
3.18113	5.11
3.19780	5.11
3.21447	5.11
3.23113	5.11
3.24780	5.11
3.26447	5.11
3.28113	5.11
3.29780	5.11
3.31447	5.11
3.33113	5.11
3.34780	5.11
3.36447	5.11
3.38113	5.11
3.39780	5.11
3.41447	5.11
3.43113	5.11
3.44780	5.11
3.46447	5.11
3.48113	5.11
3.49780	5.11
3.51447	5.11
3.53113	5.11
3.54780	5.11
3.56447	5.11
3.58113	5.11
3.59780	5.11
3.61447	5.11
3.63113	5.11
3.64780	5.11
3.66447	5.11
3.68113	5.11
3.69780	5.11
3.71447	5.11
3.73113	5.11
3.74780	5.11
3.76447	5.11
3.78113	5.11
3.79780	5.11
3.81447	5.11
3.83113	5.11
3.84780	5.11
3.86447	5.11
3.88113	5.11
3.89780	5.11
3.91447	5.11
3.93113	5.11
3.94780	5.11
3.96447	5.11
3.98113	5.11

[Status Trace (Linear Velocity)]
Interval(msec)	1000
# of Points	239
Start Time(min)	0.014
End Time(min)	3.981
Intensity Units	
Intensity Multiplier	1
R.Time (min)	Intensity
0.01447	38.60
0.03113	37.47
0.04780	38.99
0.06447	40.23
0.08113	39.42
0.09780	39.00
0.11447	39.01
0.13113	39.02
0.14780	39.02
0.16447	39.02
0.18113	39.02
0.19780	39.02
0.21447	39.02
0.23113	39.02
0.24780	39.02
0.26447	39.02
0.28113	39.03
0.29780	39.03
0.31447	39.03
0.33113	39.03
0.34780	39.03
0.36447	39.02
0.38113	39.02
0.39780	39.02
0.41447	39.02
0.43113	39.02
0.44780	39.02
0.46447	39.02
0.48113	39.02
0.49780	39.03
0.51447	39.03
0.53113	39.02
0.54780	39.02
0.56447	39.02
0.58113	39.02
0.59780	39.02
0.61447	39.03
0.63113	39.03
0.64780	39.03
0.66447	39.03
0.68113	39.03
0.69780	39.02
0.71447	39.02
0.73113	39.02
0.74780	39.03
0.76447	39.03
0.78113	39.02
0.79780	39.03
0.81447	39.03
0.83113	39.02
0.84780	39.03
0.86447	39.02
0.88113	39.02
0.89780	39.02
0.91447	39.02
0.93113	39.03
0.94780	39.03
0.96447	39.03
0.98113	39.03
0.99780	39.03
1.01447	39.03
1.03113	39.03
1.04780	39.03
1.06447	39.02
1.08113	39.02
1.09780	39.02
1.11447	39.02
1.13113	39.02
1.14780	39.02
1.16447	39.02
1.18113	39.02
1.19780	39.02
1.21447	39.02
1.23113	39.02
1.24780	39.02
1.26447	39.02
1.28113	39.02
1.29780	39.02
1.31447	39.02
1.33113	39.02
1.34780	39.02
1.36447	39.02
1.38113	39.02
1.39780	39.02
1.41447	39.02
1.43113	39.03
1.44780	39.03
1.46447	39.03
1.48113	39.03
1.49780	39.03
1.51447	39.03
1.53113	39.03
1.54780	39.02
1.56447	39.02
1.58113	39.02
1.59780	39.02
1.61447	39.02
1.63113	39.00
1.64780	38.98
1.66447	38.96
1.68113	38.92
1.69780	38.89
1.71447	38.85
1.73113	38.82
1.74780	38.79
1.76447	38.76
1.78113	38.73
1.79780	38.69
1.81447	38.66
1.83113	38.63
1.84780	38.60
1.86447	38.57
1.88113	38.54
1.89780	38.51
1.91447	38.48
1.93113	38.45
1.94780	38.42
1.96447	38.39
1.98113	38.36
1.99780	38.33
2.01447	38.30
2.03113	38.27
2.04780	38.24
2.06447	38.21
2.08113	38.18
2.09780	38.15
2.11447	38.12
2.13113	38.09
2.14780	38.06
2.16447	38.03
2.18113	38.00
2.19780	37.97
2.21447	37.94
2.23113	37.91
2.24780	37.88
2.26447	37.85
2.28113	37.82
2.29780	37.79
2.31447	37.76
2.33113	37.73
2.34780	37.70
2.36447	37.68
2.38113	37.67
2.39780	37.67
2.41447	37.67
2.43113	37.67
2.44780	37.67
2.46447	37.67
2.48113	37.67
2.49780	37.67
2.51447	37.66
2.53113	37.66
2.54780	37.66
2.56447	37.66
2.58113	37.66
2.59780	37.66
2.61447	37.66
2.63113	37.66
2.64780	37.66
2.66447	37.66
2.68113	37.65
2.69780	37.65
2.71447	37.65
2.73113	37.65
2.74780	37.65
2.76447	37.65
2.78113	37.65
2.79780	37.65
2.81447	37.65
2.83113	37.65
2.84780	37.65
2.86447	37.65
2.88113	37.65
2.89780	37.65
2.91447	37.65
2.93113	37.65
2.94780	37.64
2.96447	37.64
2.98113	37.64
2.99780	37.64
3.01447	37.64
3.03113	37.64
3.04780	37.64
3.06447	37.64
3.08113	37.64
3.09780	37.64
3.11447	37.64
3.13113	37.63
3.14780	37.63
3.16447	37.63
3.18113	37.63
3.19780	37.63
3.21447	37.63
3.23113	37.63
3.24780	37.63
3.26447	37.63
3.28113	37.63
3.29780	37.63
3.31447	37.63
3.33113	37.63
3.34780	37.63
3.36447	37.63
3.38113	37.63
3.39780	37.63
3.41447	37.63
3.43113	37.63
3.44780	37.63
3.46447	37.63
3.48113	37.63
3.49780	37.63
3.51447	37.63
3.53113	37.63
3.54780	37.63
3.56447	37.63
3.58113	37.64
3.59780	37.64
3.61447	37.64
3.63113	37.64
3.64780	37.64
3.66447	37.64
3.68113	37.64
3.69780	37.64
3.71447	37.64
3.73113	37.64
3.74780	37.64
3.76447	37.63
3.78113	37.63
3.79780	37.63
3.81447	37.63
3.83113	37.63
3.84780	37.63
3.86447	37.63
3.88113	37.63
3.89780	37.63
3.91447	37.63
3.93113	37.64
3.94780	37.64
3.96447	37.64
3.98113	37.64

