[Header]
Application Name	LabSolutions
Version	5.110
Data File Name	C:\Users\User\Desktop\GC Analyses\Jack\Nachusa Grasslands Sampling\T4 Timepoint July 12th\T4_07122022_036.gcd
Output Date	3/17/2023
Output Time	12:04:53 PM

[File Information]
Type	Data File
Generated	3/14/2023 7:21:07 PM
Generated by	System Administrator
Modified	3/14/2023 7:27:56 PM
Modified by	System Administrator

[Sample Information]
Operator Name	System Administrator
Acquired	3/14/2023 7:23:55 PM
Sample Type	0:Unknown
Level	0
Sample Name	036
Sample ID	036
ISTD Amount1	1
ISTD Amount2	1
ISTD Amount3	1
ISTD Amount4	1
ISTD Amount5	1
ISTD Amount6	1
ISTD Amount7	1
ISTD Amount8	1
ISTD Amount9	1
ISTD Amount10	1
ISTD Amount11	1
ISTD Amount12	1
ISTD Amount13	1
ISTD Amount14	1
ISTD Amount15	1
ISTD Amount16	1
ISTD Amount17	1
ISTD Amount18	1
ISTD Amount19	1
ISTD Amount20	1
ISTD Amount21	1
ISTD Amount22	1
ISTD Amount23	1
ISTD Amount24	1
ISTD Amount25	1
ISTD Amount26	1
ISTD Amount27	1
ISTD Amount28	1
ISTD Amount29	1
ISTD Amount30	1
ISTD Amount31	1
ISTD Amount32	1
Sample Amount	1
Dilution Factor	1
Vial#	35
Injection Volume	1
Injection Count	1
Bar Code	

[Original Files]
Data File	C:\Users\User\Desktop\GC Analyses\Jack\Nachusa Grasslands Sampling\T4 Timepoint July 12th\T4_07122022_036.gcd
Method File	C:\LabSolutions\Data\GHG_4min_2022\ghg3_togas_w_acet_4 min_new_int.gcm
Batch File	C:\LabSolutions\Data\AutoSamplerTesting\T4_07122022.gcb
Report Format File	c:\LabSolutions\System\DEFAULT.lsr

[File Description]


[Configuration]
Instrument Name	C0B7VH3-Instrument1
Instrument #	1
Line #	1
# of Detectors	3
Detector ID	DET#1	DET#2	DET#3
Detector Name	FID	PTCD	ECD
# of Channels	1	1	1

[Peak Table(Ch1)]
# of Peaks	3
Peak#	R.Time	I.Time	F.Time	Area	Height	A/H	Conc.	Mark	ID#	Name	k'	Plate #	Plate Ht.	Tailing	Resolution	Sep.Factor	Area Ratio	Height Ratio	Conc. %	Norm Conc.
1	1.476	1.410	1.534	24978	12307	2.030	176.349	   	1	CO	0.000	9684	15.490	1.271	0.000	0.000	0	0	27.859	27.859
2	1.571	1.538	1.619	3866	2000	1.933	74.752	   	2	CH4	0.065	11930	12.574	1.159	1.622	0.000	0	0	11.809	11.809
3	2.000	1.938	2.249	1521667	732198	2.078	381.897	   	3	CO2	0.355	17601	8.522	1.182	7.281	5.500	0	0	60.331	60.331

[Peak Table(Ch2)]
# of Peaks	0

[Peak Table(Ch3)]
# of Peaks	4
Peak#	R.Time	I.Time	F.Time	Area	Height	A/H	Conc.	Mark	ID#	Name	k'	Plate #	Plate Ht.	Tailing	Resolution	Sep.Factor	Area Ratio	Height Ratio	Conc. %	Norm Conc.
1	2.462	2.326	2.510	1950	633	3.079	0.000	   			0.000	10556	14.210	0.000	0.000	0.000	0	0	0.000	0.000
2	2.528	2.510	2.587	1040	337	3.084	0.000	 V 			0.027	6693	22.411	0.000	0.602	0.000	0	0	0.000	0.000
3	2.612	2.587	2.686	606	156	3.896	0.000	 V 			0.061	3422	43.829	0.000	0.558	2.278	0	0	0.000	0.000
4	2.880	2.715	3.078	18551	4831	3.840	0.474	   	1	N2O	0.170	13196	11.367	1.501	1.919	2.780	0	0	100.000	100.000

[Compound Results(Ch1)]
# of IDs	6
ID#	Name	R.Time	Area	Height	Conc.	Curve	3rd	2nd	1st	Constant	Area Ratio	Height Ratio	Conc. %	Norm Conc.
1	CO	1.476	24978	12307	176.349	Linear	0.000000e+00	0.000000e+00	1.416423e+002	0.000000e+00	0	0	27.859	27.859
2	CH4	1.571	3866	2000	74.752	Linear	0.000000e+00	0.000000e+00	5.171738e+001	0.000000e+00	0	0	11.809	11.809
3	CO2	2.000	1521667	732198	381.897	Linear	0.000000e+00	0.000000e+00	3.984494e+003	0.000000e+00	0	0	60.331	60.331
4	Ethylene	0.000	0	0	0.000	Linear	0.000000e+00	0.000000e+00	0.000000e+00	0.000000e+00	0	0	0.000	0.000
5	Acetylene	0.000	0	0	0.000	Linear	0.000000e+00	0.000000e+00	0.000000e+00	0.000000e+00	0	0	0.000	0.000
6	Ethane	0.000	0	0	0.000	Linear	0.000000e+00	0.000000e+00	0.000000e+00	0.000000e+00	0	0	0.000	0.000

[Compound Results(Ch2)]
# of IDs	5
ID#	Name	R.Time	Area	Height	Conc.	Curve	3rd	2nd	1st	Constant	Area Ratio	Height Ratio	Conc. %	Norm Conc.
1	Hydrogen	0.000	0	0	0.000	Linear	0.000000e+00	0.000000e+00	0.000000e+00	0.000000e+00	0	0	0.000	0.000
2	Oxygen	0.000	0	0	0.000	Linear	0.000000e+00	0.000000e+00	0.000000e+00	0.000000e+00	0	0	0.000	0.000
3	Nitrogen	0.000	0	0	0.000	Linear	0.000000e+00	0.000000e+00	0.000000e+00	0.000000e+00	0	0	0.000	0.000
4	Methane	0.000	0	0	0.000	Linear	0.000000e+00	0.000000e+00	0.000000e+00	0.000000e+00	0	0	0.000	0.000
5	Carbon Monoxide	0.000	0	0	0.000	Linear	0.000000e+00	0.000000e+00	0.000000e+00	0.000000e+00	0	0	0.000	0.000

[Compound Results(Ch3)]
# of IDs	2
ID#	Name	R.Time	Area	Height	Conc.	Curve	3rd	2nd	1st	Constant	Area Ratio	Height Ratio	Conc. %	Norm Conc.
1	N2O	2.880	18551	4831	0.474	Linear	0.000000e+00	0.000000e+00	3.915173e+004	0.000000e+00	0	0	100.000	100.000
2	SF6	0.000	0	0	0.000	Linear	0.000000e+00	0.000000e+00	0.000000e+00	0.000000e+00	0	0	0.000	0.000

[Group Results(Ch1)]
# of Groups	0

[Group Results(Ch2)]
# of Groups	0

[Group Results(Ch3)]
# of Groups	0

[Chromatogram (Ch1)]
Interval(msec)	220
# of Points	1091
Start Time(min)	0.002
End Time(min)	3.998
R.Time (min)	Intensity
0.00167	11
0.00533	9
0.00900	9
0.01267	9
0.01633	11
0.02000	13
0.02367	11
0.02733	7
0.03100	6
0.03467	8
0.03833	19
0.04200	34
0.04567	43
0.04933	40
0.05300	31
0.05667	21
0.06033	13
0.06400	9
0.06767	2
0.07133	-9
0.07500	-18
0.07867	-18
0.08233	-14
0.08600	-9
0.08967	-3
0.09333	3
0.09700	8
0.10067	15
0.10433	22
0.10800	21
0.11167	14
0.11533	8
0.11900	4
0.12267	1
0.12633	3
0.13000	9
0.13367	16
0.13733	23
0.14100	33
0.14467	47
0.14833	59
0.15200	62
0.15567	57
0.15933	48
0.16300	41
0.16667	33
0.17033	26
0.17400	18
0.17767	11
0.18133	2
0.18500	-7
0.18867	-8
0.19233	-4
0.19600	3
0.19967	6
0.20333	8
0.20700	9
0.21067	7
0.21433	8
0.21800	13
0.22167	19
0.22533	23
0.22900	27
0.23267	28
0.23633	30
0.24000	29
0.24367	28
0.24733	30
0.25100	29
0.25467	25
0.25833	21
0.26200	15
0.26567	8
0.26933	4
0.27300	1
0.27667	1
0.28033	5
0.28400	10
0.28767	16
0.29133	20
0.29500	21
0.29867	19
0.30233	17
0.30600	15
0.30967	11
0.31333	7
0.31700	3
0.32067	-1
0.32433	-2
0.32800	2
0.33167	10
0.33533	22
0.33900	33
0.34267	34
0.34633	31
0.35000	25
0.35367	18
0.35733	14
0.36100	14
0.36467	17
0.36833	21
0.37200	24
0.37567	27
0.37933	29
0.38300	32
0.38667	27
0.39033	18
0.39400	13
0.39767	12
0.40133	13
0.40500	15
0.40867	15
0.41233	20
0.41600	28
0.41967	30
0.42333	26
0.42700	26
0.43067	32
0.43433	38
0.43800	40
0.44167	40
0.44533	37
0.44900	31
0.45267	23
0.45633	15
0.46000	11
0.46367	16
0.46733	16
0.47100	11
0.47467	7
0.47833	9
0.48200	14
0.48567	17
0.48933	18
0.49300	14
0.49667	9
0.50033	6
0.50400	7
0.50767	11
0.51133	13
0.51500	9
0.51867	9
0.52233	12
0.52600	12
0.52967	6
0.53333	1
0.53700	4
0.54067	9
0.54433	9
0.54800	11
0.55167	16
0.55533	23
0.55900	28
0.56267	29
0.56633	25
0.57000	18
0.57367	13
0.57733	10
0.58100	9
0.58467	6
0.58833	10
0.59200	20
0.59567	26
0.59933	20
0.60300	12
0.60667	6
0.61033	2
0.61400	-4
0.61767	-6
0.62133	-2
0.62500	4
0.62867	7
0.63233	11
0.63600	17
0.63967	20
0.64333	22
0.64700	23
0.65067	24
0.65433	28
0.65800	32
0.66167	32
0.66533	25
0.66900	19
0.67267	15
0.67633	13
0.68000	14
0.68367	15
0.68733	15
0.69100	15
0.69467	14
0.69833	12
0.70200	13
0.70567	16
0.70933	16
0.71300	15
0.71667	17
0.72033	17
0.72400	17
0.72767	18
0.73133	23
0.73500	27
0.73867	26
0.74233	22
0.74600	15
0.74967	9
0.75333	7
0.75700	13
0.76067	23
0.76433	31
0.76800	38
0.77167	40
0.77533	49
0.77900	61
0.78267	66
0.78633	66
0.79000	62
0.79367	54
0.79733	42
0.80100	33
0.80467	28
0.80833	25
0.81200	21
0.81567	13
0.81933	7
0.82300	5
0.82667	7
0.83033	10
0.83400	16
0.83767	20
0.84133	25
0.84500	30
0.84867	35
0.85233	39
0.85600	43
0.85967	46
0.86333	46
0.86700	44
0.87067	41
0.87433	42
0.87800	46
0.88167	46
0.88533	38
0.88900	29
0.89267	23
0.89633	20
0.90000	21
0.90367	25
0.90733	26
0.91100	26
0.91467	25
0.91833	28
0.92200	37
0.92567	46
0.92933	56
0.93300	61
0.93667	64
0.94033	65
0.94400	58
0.94767	45
0.95133	35
0.95500	28
0.95867	24
0.96233	25
0.96600	27
0.96967	28
0.97333	29
0.97700	31
0.98067	34
0.98433	38
0.98800	40
0.99167	38
0.99533	36
0.99900	32
1.00267	34
1.00633	33
1.01000	31
1.01367	29
1.01733	29
1.02100	29
1.02467	31
1.02833	30
1.03200	33
1.03567	40
1.03933	44
1.04300	44
1.04667	44
1.05033	42
1.05400	39
1.05767	35
1.06133	27
1.06500	21
1.06867	20
1.07233	19
1.07600	15
1.07967	10
1.08333	4
1.08700	3
1.09067	8
1.09433	13
1.09800	11
1.10167	4
1.10533	-1
1.10900	1
1.11267	5
1.11633	11
1.12000	14
1.12367	15
1.12733	6
1.13100	-5
1.13467	-9
1.13833	-8
1.14200	-3
1.14567	8
1.14933	21
1.15300	32
1.15667	40
1.16033	45
1.16400	40
1.16767	26
1.17133	18
1.17500	14
1.17867	11
1.18233	8
1.18600	6
1.18967	6
1.19333	5
1.19700	8
1.20067	14
1.20433	16
1.20800	15
1.21167	14
1.21533	12
1.21900	9
1.22267	8
1.22633	3
1.23000	-1
1.23367	-3
1.23733	-6
1.24100	-10
1.24467	-8
1.24833	-6
1.25200	-4
1.25567	0
1.25933	4
1.26300	8
1.26667	10
1.27033	10
1.27400	7
1.27767	3
1.28133	1
1.28500	4
1.28867	10
1.29233	19
1.29600	25
1.29967	30
1.30333	31
1.30700	30
1.31067	25
1.31433	14
1.31800	2
1.32167	-9
1.32533	-14
1.32900	-19
1.33267	-17
1.33633	-15
1.34000	-16
1.34367	-16
1.34733	-17
1.35100	-18
1.35467	-20
1.35833	-20
1.36200	-20
1.36567	-18
1.36933	-14
1.37300	-8
1.37667	-6
1.38033	-8
1.38400	-5
1.38767	-6
1.39133	-8
1.39500	-13
1.39867	-18
1.40233	-18
1.40600	-16
1.40967	-13
1.41333	-6
1.41700	5
1.42067	13
1.42433	18
1.42800	24
1.43167	29
1.43533	30
1.43900	33
1.44267	64
1.44633	190
1.45000	577
1.45367	1585
1.45733	3450
1.46100	5851
1.46467	8228
1.46833	10201
1.47200	11591
1.47567	12283
1.47933	12163
1.48300	11210
1.48667	9601
1.49033	7678
1.49400	5789
1.49767	4163
1.50133	2888
1.50500	1950
1.50867	1286
1.51233	827
1.51600	514
1.51967	303
1.52333	163
1.52700	71
1.53067	9
1.53433	-33
1.53800	-50
1.54167	-21
1.54533	105
1.54900	367
1.55267	737
1.55633	1138
1.56000	1497
1.56367	1770
1.56733	1929
1.57100	1946
1.57467	1810
1.57833	1545
1.58200	1220
1.58567	896
1.58933	617
1.59300	398
1.59667	251
1.60033	156
1.60400	87
1.60767	31
1.61133	-12
1.61500	-43
1.61867	-60
1.62233	-65
1.62600	-65
1.62967	-66
1.63333	-64
1.63700	-64
1.64067	-64
1.64433	-67
1.64800	-70
1.65167	-71
1.65533	-69
1.65900	-68
1.66267	-69
1.66633	-68
1.67000	-63
1.67367	-62
1.67733	-65
1.68100	-65
1.68467	-62
1.68833	-60
1.69200	-59
1.69567	-57
1.69933	-53
1.70300	-51
1.70667	-54
1.71033	-55
1.71400	-58
1.71767	-63
1.72133	-69
1.72500	-71
1.72867	-70
1.73233	-71
1.73600	-75
1.73967	-76
1.74333	-72
1.74700	-66
1.75067	-65
1.75433	-67
1.75800	-64
1.76167	-58
1.76533	-53
1.76900	-53
1.77267	-53
1.77633	-52
1.78000	-47
1.78367	-42
1.78733	-39
1.79100	-40
1.79467	-39
1.79833	-35
1.80200	-35
1.80567	-36
1.80933	-29
1.81300	-28
1.81667	-32
1.82033	-37
1.82400	-41
1.82767	-44
1.83133	-53
1.83500	-61
1.83867	-66
1.84233	-67
1.84600	-62
1.84967	-55
1.85333	-46
1.85700	-35
1.86067	-27
1.86433	-22
1.86800	-23
1.87167	-27
1.87533	-31
1.87900	-36
1.88267	-40
1.88633	-48
1.89000	-57
1.89367	-62
1.89733	-63
1.90100	-62
1.90467	-59
1.90833	-57
1.91200	-58
1.91567	-55
1.91933	-50
1.92300	-46
1.92667	-43
1.93033	-43
1.93400	-40
1.93767	-34
1.94133	-24
1.94500	-12
1.94867	-4
1.95233	8
1.95600	84
1.95967	503
1.96333	2568
1.96700	10410
1.97067	33069
1.97433	83551
1.97800	171640
1.98167	294239
1.98533	433726
1.98900	565953
1.99267	668751
1.99633	726640
2.00000	732226
2.00367	687117
2.00733	602393
2.01100	495940
2.01467	386436
2.01833	287863
2.02200	207271
2.02567	145816
2.02933	101215
2.03300	69938
2.03667	48483
2.04033	33957
2.04400	24183
2.04767	17594
2.05133	13120
2.05500	10049
2.05867	7904
2.06233	6377
2.06600	5266
2.06967	4440
2.07333	3808
2.07700	3320
2.08067	2929
2.08433	2607
2.08800	2342
2.09167	2123
2.09533	1932
2.09900	1764
2.10267	1625
2.10633	1507
2.11000	1405
2.11367	1315
2.11733	1231
2.12100	1152
2.12467	1078
2.12833	1012
2.13200	951
2.13567	891
2.13933	861
2.14300	832
2.14667	800
2.15033	765
2.15400	730
2.15767	697
2.16133	669
2.16500	646
2.16867	623
2.17233	597
2.17600	572
2.17967	549
2.18333	530
2.18700	514
2.19067	498
2.19433	477
2.19800	457
2.20167	437
2.20533	420
2.20900	403
2.21267	380
2.21633	357
2.22000	336
2.22367	319
2.22733	307
2.23100	301
2.23467	298
2.23833	295
2.24200	291
2.24567	284
2.24933	278
2.25300	277
2.25667	280
2.26033	286
2.26400	290
2.26767	286
2.27133	283
2.27500	281
2.27867	270
2.28233	253
2.28600	237
2.28967	224
2.29333	216
2.29700	217
2.30067	224
2.30433	225
2.30800	221
2.31167	216
2.31533	210
2.31900	205
2.32267	203
2.32633	203
2.33000	202
2.33367	201
2.33733	199
2.34100	194
2.34467	189
2.34833	188
2.35200	184
2.35567	176
2.35933	174
2.36300	178
2.36667	179
2.37033	177
2.37400	179
2.37767	181
2.38133	182
2.38500	184
2.38867	188
2.39233	191
2.39600	189
2.39967	183
2.40333	175
2.40700	167
2.41067	163
2.41433	155
2.41800	142
2.42167	134
2.42533	127
2.42900	121
2.43267	120
2.43633	120
2.44000	123
2.44367	133
2.44733	138
2.45100	137
2.45467	134
2.45833	130
2.46200	129
2.46567	128
2.46933	123
2.47300	114
2.47667	112
2.48033	116
2.48400	124
2.48767	125
2.49133	118
2.49500	111
2.49867	111
2.50233	115
2.50600	122
2.50967	128
2.51333	128
2.51700	122
2.52067	115
2.52433	110
2.52800	109
2.53167	109
2.53533	112
2.53900	118
2.54267	121
2.54633	118
2.55000	112
2.55367	107
2.55733	104
2.56100	98
2.56467	90
2.56833	85
2.57200	81
2.57567	77
2.57933	78
2.58300	78
2.58667	73
2.59033	69
2.59400	70
2.59767	76
2.60133	83
2.60500	88
2.60867	86
2.61233	81
2.61600	76
2.61967	71
2.62333	75
2.62700	78
2.63067	78
2.63433	79
2.63800	79
2.64167	80
2.64533	83
2.64900	90
2.65267	102
2.65633	112
2.66000	116
2.66367	115
2.66733	107
2.67100	99
2.67467	94
2.67833	87
2.68200	75
2.68567	67
2.68933	66
2.69300	65
2.69667	66
2.70033	69
2.70400	74
2.70767	84
2.71133	89
2.71500	88
2.71867	87
2.72233	84
2.72600	84
2.72967	83
2.73333	87
2.73700	88
2.74067	86
2.74433	84
2.74800	79
2.75167	72
2.75533	66
2.75900	62
2.76267	61
2.76633	62
2.77000	61
2.77367	59
2.77733	60
2.78100	68
2.78467	79
2.78833	84
2.79200	84
2.79567	78
2.79933	68
2.80300	59
2.80667	58
2.81033	64
2.81400	73
2.81767	75
2.82133	77
2.82500	78
2.82867	74
2.83233	69
2.83600	64
2.83967	60
2.84333	55
2.84700	53
2.85067	55
2.85433	59
2.85800	64
2.86167	69
2.86533	74
2.86900	82
2.87267	87
2.87633	86
2.88000	84
2.88367	87
2.88733	91
2.89100	91
2.89467	88
2.89833	83
2.90200	79
2.90567	75
2.90933	69
2.91300	62
2.91667	55
2.92033	54
2.92400	57
2.92767	63
2.93133	72
2.93500	77
2.93867	81
2.94233	80
2.94600	78
2.94967	76
2.95333	75
2.95700	74
2.96067	76
2.96433	81
2.96800	82
2.97167	83
2.97533	85
2.97900	87
2.98267	86
2.98633	82
2.99000	74
2.99367	66
2.99733	62
3.00100	66
3.00467	74
3.00833	76
3.01200	73
3.01567	66
3.01933	67
3.02300	67
3.02667	73
3.03033	76
3.03400	74
3.03767	71
3.04133	70
3.04500	71
3.04867	70
3.05233	68
3.05600	65
3.05967	61
3.06333	60
3.06700	58
3.07067	58
3.07433	61
3.07800	68
3.08167	82
3.08533	92
3.08900	94
3.09267	91
3.09633	83
3.10000	73
3.10367	63
3.10733	52
3.11100	43
3.11467	40
3.11833	42
3.12200	48
3.12567	57
3.12933	66
3.13300	68
3.13667	69
3.14033	67
3.14400	63
3.14767	60
3.15133	61
3.15500	60
3.15867	61
3.16233	66
3.16600	68
3.16967	64
3.17333	62
3.17700	63
3.18067	68
3.18433	71
3.18800	74
3.19167	71
3.19533	64
3.19900	59
3.20267	62
3.20633	66
3.21000	65
3.21367	62
3.21733	58
3.22100	56
3.22467	54
3.22833	50
3.23200	40
3.23567	29
3.23933	22
3.24300	23
3.24667	27
3.25033	33
3.25400	39
3.25767	46
3.26133	46
3.26500	40
3.26867	35
3.27233	38
3.27600	47
3.27967	54
3.28333	58
3.28700	55
3.29067	48
3.29433	44
3.29800	44
3.30167	41
3.30533	43
3.30900	46
3.31267	49
3.31633	56
3.32000	62
3.32367	60
3.32733	50
3.33100	42
3.33467	42
3.33833	44
3.34200	43
3.34567	40
3.34933	40
3.35300	40
3.35667	34
3.36033	22
3.36400	17
3.36767	22
3.37133	29
3.37500	32
3.37867	32
3.38233	32
3.38600	33
3.38967	36
3.39333	43
3.39700	50
3.40067	53
3.40433	53
3.40800	47
3.41167	41
3.41533	36
3.41900	29
3.42267	24
3.42633	27
3.43000	36
3.43367	40
3.43733	37
3.44100	35
3.44467	35
3.44833	36
3.45200	37
3.45567	41
3.45933	45
3.46300	45
3.46667	41
3.47033	33
3.47400	24
3.47767	17
3.48133	13
3.48500	12
3.48867	11
3.49233	9
3.49600	12
3.49967	19
3.50333	26
3.50700	36
3.51067	44
3.51433	51
3.51800	52
3.52167	47
3.52533	38
3.52900	30
3.53267	28
3.53633	23
3.54000	16
3.54367	14
3.54733	12
3.55100	16
3.55467	26
3.55833	32
3.56200	30
3.56567	25
3.56933	19
3.57300	14
3.57667	15
3.58033	17
3.58400	20
3.58767	24
3.59133	24
3.59500	22
3.59867	18
3.60233	16
3.60600	16
3.60967	16
3.61333	15
3.61700	14
3.62067	14
3.62433	15
3.62800	14
3.63167	11
3.63533	8
3.63900	7
3.64267	6
3.64633	13
3.65000	22
3.65367	23
3.65733	21
3.66100	17
3.66467	14
3.66833	14
3.67200	14
3.67567	18
3.67933	21
3.68300	18
3.68667	13
3.69033	10
3.69400	8
3.69767	7
3.70133	7
3.70500	10
3.70867	15
3.71233	23
3.71600	25
3.71967	25
3.72333	22
3.72700	16
3.73067	14
3.73433	11
3.73800	13
3.74167	21
3.74533	28
3.74900	26
3.75267	20
3.75633	14
3.76000	4
3.76367	-1
3.76733	-1
3.77100	3
3.77467	7
3.77833	11
3.78200	9
3.78567	7
3.78933	3
3.79300	-3
3.79667	-11
3.80033	-21
3.80400	-29
3.80767	-31
3.81133	-28
3.81500	-21
3.81867	-13
3.82233	-4
3.82600	2
3.82967	2
3.83333	4
3.83700	10
3.84067	20
3.84433	28
3.84800	26
3.85167	16
3.85533	8
3.85900	4
3.86267	2
3.86633	1
3.87000	-0
3.87367	-2
3.87733	-0
3.88100	-3
3.88467	-7
3.88833	-9
3.89200	-14
3.89567	-17
3.89933	-11
3.90300	-2
3.90667	3
3.91033	1
3.91400	-4
3.91767	-10
3.92133	-16
3.92500	-21
3.92867	-22
3.93233	-22
3.93600	-21
3.93967	-20
3.94333	-20
3.94700	-20
3.95067	-18
3.95433	-14
3.95800	-14
3.96167	-18
3.96533	-18
3.96900	-16
3.97267	-10
3.97633	-3
3.98000	4
3.98367	12
3.98733	15
3.99100	12
3.99467	7
3.99833	-3

[Chromatogram (Ch2)]
Interval(msec)	220
# of Points	1091
Start Time(min)	0.002
End Time(min)	3.998
R.Time (min)	Intensity
0.00167	0
0.00533	0
0.00900	0
0.01267	1
0.01633	1
0.02000	1
0.02367	1
0.02733	2
0.03100	2
0.03467	2
0.03833	1
0.04200	1
0.04567	1
0.04933	1
0.05300	1
0.05667	1
0.06033	1
0.06400	2
0.06767	2
0.07133	2
0.07500	2
0.07867	2
0.08233	2
0.08600	2
0.08967	2
0.09333	2
0.09700	2
0.10067	2
0.10433	2
0.10800	2
0.11167	2
0.11533	2
0.11900	2
0.12267	2
0.12633	2
0.13000	2
0.13367	2
0.13733	2
0.14100	2
0.14467	2
0.14833	2
0.15200	2
0.15567	2
0.15933	2
0.16300	2
0.16667	2
0.17033	2
0.17400	2
0.17767	2
0.18133	1
0.18500	1
0.18867	1
0.19233	1
0.19600	0
0.19967	0
0.20333	0
0.20700	0
0.21067	0
0.21433	0
0.21800	1
0.22167	1
0.22533	1
0.22900	1
0.23267	1
0.23633	1
0.24000	1
0.24367	1
0.24733	1
0.25100	0
0.25467	0
0.25833	0
0.26200	-0
0.26567	-0
0.26933	0
0.27300	0
0.27667	0
0.28033	0
0.28400	-0
0.28767	-0
0.29133	-0
0.29500	-0
0.29867	-0
0.30233	-0
0.30600	-0
0.30967	-0
0.31333	-0
0.31700	-0
0.32067	-0
0.32433	-0
0.32800	-0
0.33167	-0
0.33533	0
0.33900	1
0.34267	1
0.34633	1
0.35000	1
0.35367	2
0.35733	2
0.36100	2
0.36467	2
0.36833	2
0.37200	2
0.37567	2
0.37933	2
0.38300	2
0.38667	2
0.39033	2
0.39400	2
0.39767	2
0.40133	2
0.40500	2
0.40867	2
0.41233	2
0.41600	2
0.41967	3
0.42333	3
0.42700	3
0.43067	3
0.43433	4
0.43800	4
0.44167	4
0.44533	4
0.44900	4
0.45267	3
0.45633	3
0.46000	3
0.46367	3
0.46733	3
0.47100	3
0.47467	2
0.47833	2
0.48200	1
0.48567	1
0.48933	0
0.49300	-0
0.49667	-1
0.50033	-1
0.50400	-1
0.50767	-1
0.51133	-1
0.51500	-1
0.51867	-1
0.52233	-1
0.52600	-1
0.52967	-1
0.53333	-1
0.53700	-1
0.54067	-1
0.54433	-0
0.54800	-0
0.55167	0
0.55533	0
0.55900	0
0.56267	0
0.56633	0
0.57000	0
0.57367	1
0.57733	1
0.58100	1
0.58467	1
0.58833	1
0.59200	1
0.59567	1
0.59933	1
0.60300	1
0.60667	1
0.61033	1
0.61400	1
0.61767	1
0.62133	1
0.62500	1
0.62867	1
0.63233	2
0.63600	2
0.63967	2
0.64333	2
0.64700	2
0.65067	2
0.65433	2
0.65800	2
0.66167	2
0.66533	2
0.66900	1
0.67267	1
0.67633	0
0.68000	-0
0.68367	-1
0.68733	-1
0.69100	-1
0.69467	-1
0.69833	-1
0.70200	-1
0.70567	-0
0.70933	-0
0.71300	0
0.71667	1
0.72033	1
0.72400	1
0.72767	1
0.73133	2
0.73500	2
0.73867	2
0.74233	1
0.74600	1
0.74967	1
0.75333	1
0.75700	0
0.76067	0
0.76433	0
0.76800	0
0.77167	0
0.77533	1
0.77900	1
0.78267	0
0.78633	0
0.79000	-0
0.79367	-0
0.79733	-1
0.80100	-1
0.80467	-0
0.80833	-0
0.81200	0
0.81567	0
0.81933	1
0.82300	1
0.82667	1
0.83033	2
0.83400	1
0.83767	1
0.84133	1
0.84500	1
0.84867	0
0.85233	0
0.85600	-0
0.85967	-0
0.86333	-1
0.86700	-1
0.87067	-1
0.87433	-1
0.87800	-1
0.88167	-0
0.88533	-0
0.88900	-0
0.89267	-1
0.89633	-1
0.90000	-1
0.90367	-2
0.90733	-2
0.91100	-2
0.91467	-3
0.91833	-3
0.92200	-2
0.92567	-2
0.92933	-2
0.93300	-2
0.93667	-2
0.94033	-2
0.94400	-2
0.94767	-2
0.95133	-2
0.95500	-2
0.95867	-2
0.96233	-2
0.96600	-3
0.96967	-3
0.97333	-3
0.97700	-3
0.98067	-4
0.98433	-4
0.98800	-3
0.99167	-3
0.99533	-3
0.99900	-3
1.00267	-2
1.00633	-2
1.01000	-2
1.01367	-1
1.01733	-1
1.02100	-1
1.02467	-1
1.02833	-1
1.03200	-0
1.03567	-1
1.03933	-1
1.04300	-1
1.04667	-1
1.05033	-1
1.05400	-1
1.05767	-1
1.06133	-1
1.06500	-1
1.06867	-1
1.07233	-1
1.07600	-1
1.07967	-2
1.08333	-2
1.08700	-1
1.09067	-1
1.09433	-1
1.09800	-1
1.10167	-1
1.10533	-1
1.10900	-1
1.11267	-1
1.11633	-0
1.12000	0
1.12367	0
1.12733	1
1.13100	1
1.13467	1
1.13833	1
1.14200	1
1.14567	1
1.14933	1
1.15300	1
1.15667	1
1.16033	1
1.16400	1
1.16767	1
1.17133	0
1.17500	-0
1.17867	-1
1.18233	-1
1.18600	-1
1.18967	-2
1.19333	-2
1.19700	-3
1.20067	-3
1.20433	-3
1.20800	-4
1.21167	-3
1.21533	-3
1.21900	-3
1.22267	-3
1.22633	-3
1.23000	-3
1.23367	-3
1.23733	-3
1.24100	-3
1.24467	-3
1.24833	-3
1.25200	-3
1.25567	-3
1.25933	-3
1.26300	-3
1.26667	-3
1.27033	-3
1.27400	-3
1.27767	-3
1.28133	-3
1.28500	-3
1.28867	-3
1.29233	-3
1.29600	-3
1.29967	-3
1.30333	-3
1.30700	-3
1.31067	-2
1.31433	-2
1.31800	-2
1.32167	-2
1.32533	-1
1.32900	-1
1.33267	-0
1.33633	-0
1.34000	-0
1.34367	-0
1.34733	-0
1.35100	-0
1.35467	-0
1.35833	-1
1.36200	-1
1.36567	-1
1.36933	-1
1.37300	-1
1.37667	-1
1.38033	-1
1.38400	-0
1.38767	-0
1.39133	-0
1.39500	-0
1.39867	-1
1.40233	-1
1.40600	-1
1.40967	-1
1.41333	-1
1.41700	-1
1.42067	-1
1.42433	-0
1.42800	-0
1.43167	-0
1.43533	-1
1.43900	-1
1.44267	-1
1.44633	-1
1.45000	-1
1.45367	-2
1.45733	-2
1.46100	-2
1.46467	-2
1.46833	-2
1.47200	-2
1.47567	-2
1.47933	-2
1.48300	-2
1.48667	-2
1.49033	-2
1.49400	-1
1.49767	-1
1.50133	-1
1.50500	-1
1.50867	-1
1.51233	-1
1.51600	-1
1.51967	-1
1.52333	-2
1.52700	-2
1.53067	-2
1.53433	-2
1.53800	-2
1.54167	-2
1.54533	-2
1.54900	-2
1.55267	-2
1.55633	-2
1.56000	-1
1.56367	-1
1.56733	-1
1.57100	-1
1.57467	-1
1.57833	-2
1.58200	-2
1.58567	-2
1.58933	-2
1.59300	-3
1.59667	-3
1.60033	-4
1.60400	-6
1.60767	-7
1.61133	-9
1.61500	-11
1.61867	-13
1.62233	-15
1.62600	-18
1.62967	-21
1.63333	-25
1.63700	-28
1.64067	-32
1.64433	-35
1.64800	-39
1.65167	-42
1.65533	-46
1.65900	-49
1.66267	-53
1.66633	-57
1.67000	-62
1.67367	-67
1.67733	-72
1.68100	-77
1.68467	-82
1.68833	-87
1.69200	-91
1.69567	-94
1.69933	-97
1.70300	-99
1.70667	-101
1.71033	-102
1.71400	-103
1.71767	-104
1.72133	-105
1.72500	-105
1.72867	-106
1.73233	-106
1.73600	-106
1.73967	-106
1.74333	-107
1.74700	-107
1.75067	-108
1.75433	-108
1.75800	-109
1.76167	-110
1.76533	-111
1.76900	-111
1.77267	-111
1.77633	-111
1.78000	-112
1.78367	-112
1.78733	-113
1.79100	-113
1.79467	-113
1.79833	-113
1.80200	-114
1.80567	-114
1.80933	-114
1.81300	-115
1.81667	-115
1.82033	-115
1.82400	-116
1.82767	-115
1.83133	-115
1.83500	-115
1.83867	-115
1.84233	-115
1.84600	-115
1.84967	-115
1.85333	-115
1.85700	-115
1.86067	-114
1.86433	-114
1.86800	-114
1.87167	-113
1.87533	-113
1.87900	-113
1.88267	-113
1.88633	-113
1.89000	-113
1.89367	-113
1.89733	-112
1.90100	-112
1.90467	-112
1.90833	-113
1.91200	-113
1.91567	-113
1.91933	-112
1.92300	-112
1.92667	-112
1.93033	-112
1.93400	-112
1.93767	-111
1.94133	-111
1.94500	-110
1.94867	-110
1.95233	-109
1.95600	-109
1.95967	-109
1.96333	-109
1.96700	-109
1.97067	-109
1.97433	-109
1.97800	-110
1.98167	-110
1.98533	-110
1.98900	-109
1.99267	-109
1.99633	-108
2.00000	-108
2.00367	-108
2.00733	-107
2.01100	-107
2.01467	-107
2.01833	-107
2.02200	-107
2.02567	-107
2.02933	-107
2.03300	-106
2.03667	-106
2.04033	-105
2.04400	-105
2.04767	-104
2.05133	-104
2.05500	-103
2.05867	-103
2.06233	-103
2.06600	-102
2.06967	-101
2.07333	-101
2.07700	-100
2.08067	-100
2.08433	-99
2.08800	-99
2.09167	-98
2.09533	-98
2.09900	-97
2.10267	-97
2.10633	-97
2.11000	-97
2.11367	-97
2.11733	-97
2.12100	-97
2.12467	-97
2.12833	-96
2.13200	-96
2.13567	-96
2.13933	-95
2.14300	-95
2.14667	-95
2.15033	-95
2.15400	-95
2.15767	-95
2.16133	-94
2.16500	-93
2.16867	-92
2.17233	-91
2.17600	-90
2.17967	-90
2.18333	-89
2.18700	-89
2.19067	-89
2.19433	-89
2.19800	-89
2.20167	-90
2.20533	-90
2.20900	-90
2.21267	-90
2.21633	-89
2.22000	-89
2.22367	-88
2.22733	-88
2.23100	-88
2.23467	-88
2.23833	-89
2.24200	-89
2.24567	-89
2.24933	-89
2.25300	-88
2.25667	-88
2.26033	-87
2.26400	-86
2.26767	-86
2.27133	-85
2.27500	-85
2.27867	-85
2.28233	-86
2.28600	-86
2.28967	-85
2.29333	-85
2.29700	-84
2.30067	-83
2.30433	-82
2.30800	-82
2.31167	-81
2.31533	-81
2.31900	-81
2.32267	-80
2.32633	-80
2.33000	-80
2.33367	-79
2.33733	-79
2.34100	-78
2.34467	-78
2.34833	-77
2.35200	-76
2.35567	-74
2.35933	-73
2.36300	-72
2.36667	-70
2.37033	-68
2.37400	-66
2.37767	-63
2.38133	-60
2.38500	-56
2.38867	-52
2.39233	-47
2.39600	-43
2.39967	-38
2.40333	-34
2.40700	-29
2.41067	-25
2.41433	-21
2.41800	-18
2.42167	-15
2.42533	-13
2.42900	-11
2.43267	-10
2.43633	-8
2.44000	-7
2.44367	-6
2.44733	-5
2.45100	-4
2.45467	-4
2.45833	-3
2.46200	-3
2.46567	-2
2.46933	-2
2.47300	-1
2.47667	-0
2.48033	1
2.48400	2
2.48767	3
2.49133	4
2.49500	5
2.49867	6
2.50233	6
2.50600	7
2.50967	7
2.51333	8
2.51700	8
2.52067	8
2.52433	8
2.52800	9
2.53167	9
2.53533	10
2.53900	11
2.54267	12
2.54633	13
2.55000	13
2.55367	14
2.55733	14
2.56100	14
2.56467	15
2.56833	15
2.57200	15
2.57567	15
2.57933	15
2.58300	15
2.58667	15
2.59033	15
2.59400	15
2.59767	15
2.60133	15
2.60500	15
2.60867	15
2.61233	16
2.61600	16
2.61967	17
2.62333	17
2.62700	18
2.63067	18
2.63433	18
2.63800	19
2.64167	19
2.64533	19
2.64900	19
2.65267	19
2.65633	19
2.66000	20
2.66367	20
2.66733	20
2.67100	20
2.67467	20
2.67833	21
2.68200	21
2.68567	21
2.68933	21
2.69300	21
2.69667	22
2.70033	22
2.70400	22
2.70767	22
2.71133	23
2.71500	23
2.71867	23
2.72233	23
2.72600	24
2.72967	24
2.73333	24
2.73700	25
2.74067	25
2.74433	25
2.74800	25
2.75167	25
2.75533	25
2.75900	26
2.76267	26
2.76633	26
2.77000	26
2.77367	26
2.77733	26
2.78100	26
2.78467	26
2.78833	25
2.79200	25
2.79567	25
2.79933	24
2.80300	24
2.80667	24
2.81033	24
2.81400	24
2.81767	24
2.82133	24
2.82500	25
2.82867	25
2.83233	25
2.83600	25
2.83967	25
2.84333	24
2.84700	23
2.85067	20
2.85433	15
2.85800	7
2.86167	-4
2.86533	-19
2.86900	-38
2.87267	-62
2.87633	-90
2.88000	-122
2.88367	-159
2.88733	-200
2.89100	-244
2.89467	-292
2.89833	-342
2.90200	-394
2.90567	-448
2.90933	-503
2.91300	-559
2.91667	-615
2.92033	-670
2.92400	-725
2.92767	-778
2.93133	-830
2.93500	-882
2.93867	-937
2.94233	-996
2.94600	-1050
2.94967	-1090
2.95333	-1107
2.95700	-1098
2.96067	-1065
2.96433	-1011
2.96800	-943
2.97167	-867
2.97533	-786
2.97900	-705
2.98267	-627
2.98633	-553
2.99000	-484
2.99367	-421
2.99733	-365
3.00100	-315
3.00467	-270
3.00833	-231
3.01200	-197
3.01567	-167
3.01933	-142
3.02300	-119
3.02667	-100
3.03033	-84
3.03400	-69
3.03767	-57
3.04133	-47
3.04500	-38
3.04867	-31
3.05233	-24
3.05600	-19
3.05967	-14
3.06333	-10
3.06700	-6
3.07067	-3
3.07433	-0
3.07800	2
3.08167	4
3.08533	5
3.08900	7
3.09267	8
3.09633	9
3.10000	10
3.10367	11
3.10733	12
3.11100	13
3.11467	14
3.11833	14
3.12200	14
3.12567	14
3.12933	14
3.13300	14
3.13667	14
3.14033	14
3.14400	14
3.14767	15
3.15133	15
3.15500	15
3.15867	16
3.16233	16
3.16600	17
3.16967	17
3.17333	18
3.17700	18
3.18067	19
3.18433	19
3.18800	19
3.19167	20
3.19533	20
3.19900	20
3.20267	20
3.20633	20
3.21000	20
3.21367	20
3.21733	21
3.22100	21
3.22467	21
3.22833	21
3.23200	21
3.23567	21
3.23933	21
3.24300	21
3.24667	21
3.25033	21
3.25400	21
3.25767	21
3.26133	21
3.26500	21
3.26867	22
3.27233	22
3.27600	22
3.27967	23
3.28333	23
3.28700	23
3.29067	24
3.29433	24
3.29800	24
3.30167	25
3.30533	25
3.30900	25
3.31267	25
3.31633	26
3.32000	26
3.32367	26
3.32733	26
3.33100	26
3.33467	26
3.33833	27
3.34200	27
3.34567	27
3.34933	27
3.35300	27
3.35667	28
3.36033	28
3.36400	28
3.36767	28
3.37133	28
3.37500	28
3.37867	28
3.38233	28
3.38600	28
3.38967	28
3.39333	27
3.39700	27
3.40067	27
3.40433	27
3.40800	27
3.41167	26
3.41533	26
3.41900	26
3.42267	26
3.42633	26
3.43000	26
3.43367	26
3.43733	26
3.44100	26
3.44467	26
3.44833	26
3.45200	26
3.45567	26
3.45933	25
3.46300	25
3.46667	25
3.47033	25
3.47400	25
3.47767	25
3.48133	25
3.48500	25
3.48867	25
3.49233	25
3.49600	25
3.49967	26
3.50333	26
3.50700	26
3.51067	26
3.51433	26
3.51800	26
3.52167	26
3.52533	26
3.52900	26
3.53267	26
3.53633	25
3.54000	25
3.54367	25
3.54733	25
3.55100	25
3.55467	25
3.55833	25
3.56200	25
3.56567	25
3.56933	25
3.57300	26
3.57667	26
3.58033	26
3.58400	26
3.58767	26
3.59133	26
3.59500	26
3.59867	26
3.60233	26
3.60600	26
3.60967	26
3.61333	26
3.61700	26
3.62067	26
3.62433	26
3.62800	26
3.63167	26
3.63533	26
3.63900	26
3.64267	26
3.64633	26
3.65000	26
3.65367	26
3.65733	27
3.66100	27
3.66467	27
3.66833	27
3.67200	27
3.67567	27
3.67933	27
3.68300	27
3.68667	27
3.69033	27
3.69400	27
3.69767	26
3.70133	26
3.70500	26
3.70867	26
3.71233	26
3.71600	26
3.71967	26
3.72333	26
3.72700	26
3.73067	26
3.73433	25
3.73800	25
3.74167	25
3.74533	25
3.74900	25
3.75267	25
3.75633	25
3.76000	25
3.76367	25
3.76733	24
3.77100	24
3.77467	24
3.77833	24
3.78200	25
3.78567	25
3.78933	25
3.79300	25
3.79667	25
3.80033	25
3.80400	25
3.80767	25
3.81133	25
3.81500	25
3.81867	25
3.82233	25
3.82600	26
3.82967	26
3.83333	26
3.83700	26
3.84067	26
3.84433	26
3.84800	26
3.85167	26
3.85533	26
3.85900	26
3.86267	26
3.86633	26
3.87000	26
3.87367	27
3.87733	27
3.88100	27
3.88467	27
3.88833	27
3.89200	27
3.89567	27
3.89933	27
3.90300	27
3.90667	27
3.91033	27
3.91400	27
3.91767	27
3.92133	27
3.92500	27
3.92867	27
3.93233	27
3.93600	27
3.93967	27
3.94333	27
3.94700	27
3.95067	27
3.95433	27
3.95800	27
3.96167	27
3.96533	27
3.96900	27
3.97267	26
3.97633	26
3.98000	26
3.98367	26
3.98733	26
3.99100	26
3.99467	25
3.99833	25

[Chromatogram (Ch3)]
Interval(msec)	220
# of Points	1091
Start Time(min)	0.002
End Time(min)	3.998
R.Time (min)	Intensity
0.00167	0
0.00533	-1
0.00900	-1
0.01267	-0
0.01633	0
0.02000	0
0.02367	2
0.02733	3
0.03100	2
0.03467	0
0.03833	-2
0.04200	-3
0.04567	-0
0.04933	1
0.05300	2
0.05667	1
0.06033	-1
0.06400	-0
0.06767	-2
0.07133	-3
0.07500	-5
0.07867	-4
0.08233	-3
0.08600	-2
0.08967	-0
0.09333	-1
0.09700	-0
0.10067	-0
0.10433	-2
0.10800	-2
0.11167	-2
0.11533	-1
0.11900	0
0.12267	1
0.12633	0
0.13000	1
0.13367	3
0.13733	6
0.14100	7
0.14467	6
0.14833	5
0.15200	4
0.15567	4
0.15933	3
0.16300	1
0.16667	1
0.17033	1
0.17400	1
0.17767	1
0.18133	1
0.18500	0
0.18867	-0
0.19233	1
0.19600	2
0.19967	2
0.20333	0
0.20700	0
0.21067	-0
0.21433	-0
0.21800	2
0.22167	3
0.22533	2
0.22900	1
0.23267	-0
0.23633	-0
0.24000	1
0.24367	2
0.24733	3
0.25100	3
0.25467	3
0.25833	4
0.26200	3
0.26567	4
0.26933	4
0.27300	3
0.27667	1
0.28033	1
0.28400	1
0.28767	1
0.29133	3
0.29500	3
0.29867	2
0.30233	-2
0.30600	-3
0.30967	-5
0.31333	-5
0.31700	-4
0.32067	-4
0.32433	-3
0.32800	0
0.33167	3
0.33533	4
0.33900	5
0.34267	6
0.34633	6
0.35000	5
0.35367	4
0.35733	3
0.36100	3
0.36467	4
0.36833	3
0.37200	2
0.37567	0
0.37933	0
0.38300	1
0.38667	1
0.39033	1
0.39400	2
0.39767	3
0.40133	2
0.40500	1
0.40867	-1
0.41233	-3
0.41600	-4
0.41967	-5
0.42333	-6
0.42700	-4
0.43067	-1
0.43433	2
0.43800	3
0.44167	3
0.44533	1
0.44900	-1
0.45267	-1
0.45633	-3
0.46000	-3
0.46367	-3
0.46733	-3
0.47100	-2
0.47467	-2
0.47833	-2
0.48200	-3
0.48567	-2
0.48933	-1
0.49300	-2
0.49667	-2
0.50033	-3
0.50400	-2
0.50767	-0
0.51133	1
0.51500	3
0.51867	3
0.52233	3
0.52600	2
0.52967	2
0.53333	2
0.53700	3
0.54067	4
0.54433	5
0.54800	6
0.55167	6
0.55533	4
0.55900	2
0.56267	1
0.56633	-0
0.57000	-2
0.57367	-3
0.57733	-2
0.58100	-1
0.58467	3
0.58833	5
0.59200	4
0.59567	3
0.59933	2
0.60300	0
0.60667	-2
0.61033	-4
0.61400	-5
0.61767	-4
0.62133	-4
0.62500	-3
0.62867	-1
0.63233	-1
0.63600	-2
0.63967	-2
0.64333	-0
0.64700	-0
0.65067	-1
0.65433	-2
0.65800	-2
0.66167	-0
0.66533	0
0.66900	2
0.67267	2
0.67633	3
0.68000	3
0.68367	3
0.68733	2
0.69100	1
0.69467	0
0.69833	1
0.70200	2
0.70567	4
0.70933	5
0.71300	5
0.71667	5
0.72033	4
0.72400	5
0.72767	4
0.73133	3
0.73500	1
0.73867	1
0.74233	2
0.74600	2
0.74967	1
0.75333	1
0.75700	2
0.76067	4
0.76433	5
0.76800	6
0.77167	6
0.77533	8
0.77900	6
0.78267	6
0.78633	7
0.79000	9
0.79367	8
0.79733	6
0.80100	3
0.80467	1
0.80833	1
0.81200	2
0.81567	4
0.81933	6
0.82300	7
0.82667	9
0.83033	10
0.83400	10
0.83767	10
0.84133	10
0.84500	9
0.84867	6
0.85233	4
0.85600	4
0.85967	4
0.86333	4
0.86700	3
0.87067	5
0.87433	6
0.87800	7
0.88167	9
0.88533	10
0.88900	9
0.89267	9
0.89633	9
0.90000	9
0.90367	10
0.90733	9
0.91100	9
0.91467	10
0.91833	8
0.92200	6
0.92567	4
0.92933	4
0.93300	3
0.93667	2
0.94033	2
0.94400	3
0.94767	5
0.95133	5
0.95500	5
0.95867	4
0.96233	6
0.96600	7
0.96967	8
0.97333	8
0.97700	8
0.98067	8
0.98433	8
0.98800	9
0.99167	9
0.99533	8
0.99900	7
1.00267	7
1.00633	7
1.01000	8
1.01367	9
1.01733	8
1.02100	7
1.02467	6
1.02833	7
1.03200	7
1.03567	8
1.03933	8
1.04300	9
1.04667	9
1.05033	10
1.05400	12
1.05767	13
1.06133	15
1.06500	18
1.06867	18
1.07233	15
1.07600	15
1.07967	16
1.08333	16
1.08700	15
1.09067	14
1.09433	13
1.09800	13
1.10167	12
1.10533	11
1.10900	13
1.11267	14
1.11633	14
1.12000	13
1.12367	12
1.12733	11
1.13100	12
1.13467	14
1.13833	12
1.14200	13
1.14567	14
1.14933	13
1.15300	10
1.15667	7
1.16033	6
1.16400	7
1.16767	7
1.17133	9
1.17500	11
1.17867	11
1.18233	11
1.18600	12
1.18967	13
1.19333	14
1.19700	14
1.20067	12
1.20433	12
1.20800	12
1.21167	11
1.21533	9
1.21900	8
1.22267	8
1.22633	9
1.23000	11
1.23367	12
1.23733	14
1.24100	15
1.24467	15
1.24833	16
1.25200	15
1.25567	14
1.25933	15
1.26300	15
1.26667	13
1.27033	13
1.27400	13
1.27767	13
1.28133	13
1.28500	14
1.28867	14
1.29233	15
1.29600	15
1.29967	16
1.30333	14
1.30700	14
1.31067	12
1.31433	12
1.31800	13
1.32167	15
1.32533	14
1.32900	14
1.33267	14
1.33633	14
1.34000	15
1.34367	15
1.34733	15
1.35100	16
1.35467	18
1.35833	19
1.36200	19
1.36567	17
1.36933	17
1.37300	17
1.37667	16
1.38033	14
1.38400	15
1.38767	15
1.39133	17
1.39500	18
1.39867	17
1.40233	15
1.40600	16
1.40967	18
1.41333	19
1.41700	20
1.42067	20
1.42433	18
1.42800	17
1.43167	17
1.43533	16
1.43900	15
1.44267	16
1.44633	17
1.45000	19
1.45367	20
1.45733	20
1.46100	22
1.46467	23
1.46833	24
1.47200	24
1.47567	24
1.47933	24
1.48300	22
1.48667	19
1.49033	18
1.49400	18
1.49767	19
1.50133	20
1.50500	21
1.50867	21
1.51233	21
1.51600	21
1.51967	22
1.52333	21
1.52700	19
1.53067	18
1.53433	18
1.53800	19
1.54167	19
1.54533	17
1.54900	17
1.55267	17
1.55633	19
1.56000	21
1.56367	23
1.56733	23
1.57100	23
1.57467	23
1.57833	23
1.58200	22
1.58567	20
1.58933	19
1.59300	19
1.59667	19
1.60033	19
1.60400	19
1.60767	20
1.61133	23
1.61500	24
1.61867	24
1.62233	22
1.62600	21
1.62967	22
1.63333	24
1.63700	24
1.64067	25
1.64433	26
1.64800	28
1.65167	29
1.65533	31
1.65900	31
1.66267	31
1.66633	31
1.67000	29
1.67367	27
1.67733	27
1.68100	27
1.68467	27
1.68833	28
1.69200	32
1.69567	35
1.69933	35
1.70300	35
1.70667	37
1.71033	36
1.71400	34
1.71767	34
1.72133	35
1.72500	34
1.72867	34
1.73233	35
1.73600	38
1.73967	41
1.74333	42
1.74700	41
1.75067	41
1.75433	42
1.75800	44
1.76167	45
1.76533	47
1.76900	48
1.77267	47
1.77633	47
1.78000	47
1.78367	48
1.78733	48
1.79100	48
1.79467	49
1.79833	51
1.80200	54
1.80567	56
1.80933	57
1.81300	57
1.81667	57
1.82033	56
1.82400	53
1.82767	50
1.83133	50
1.83500	51
1.83867	50
1.84233	51
1.84600	52
1.84967	53
1.85333	53
1.85700	54
1.86067	56
1.86433	59
1.86800	59
1.87167	59
1.87533	59
1.87900	58
1.88267	58
1.88633	57
1.89000	57
1.89367	56
1.89733	57
1.90100	59
1.90467	60
1.90833	61
1.91200	62
1.91567	66
1.91933	68
1.92300	69
1.92667	71
1.93033	70
1.93400	68
1.93767	67
1.94133	66
1.94500	67
1.94867	68
1.95233	71
1.95600	74
1.95967	77
1.96333	78
1.96700	80
1.97067	80
1.97433	81
1.97800	84
1.98167	87
1.98533	88
1.98900	89
1.99267	88
1.99633	88
2.00000	91
2.00367	95
2.00733	98
2.01100	101
2.01467	100
2.01833	100
2.02200	102
2.02567	103
2.02933	105
2.03300	108
2.03667	109
2.04033	110
2.04400	110
2.04767	112
2.05133	114
2.05500	115
2.05867	116
2.06233	118
2.06600	120
2.06967	123
2.07333	127
2.07700	129
2.08067	131
2.08433	132
2.08800	131
2.09167	131
2.09533	132
2.09900	130
2.10267	131
2.10633	132
2.11000	133
2.11367	135
2.11733	141
2.12100	143
2.12467	143
2.12833	143
2.13200	145
2.13567	146
2.13933	146
2.14300	148
2.14667	146
2.15033	145
2.15400	147
2.15767	149
2.16133	153
2.16500	156
2.16867	158
2.17233	157
2.17600	155
2.17967	155
2.18333	155
2.18700	154
2.19067	156
2.19433	158
2.19800	160
2.20167	162
2.20533	165
2.20900	168
2.21267	171
2.21633	173
2.22000	174
2.22367	175
2.22733	174
2.23100	173
2.23467	173
2.23833	172
2.24200	172
2.24567	173
2.24933	176
2.25300	177
2.25667	179
2.26033	179
2.26400	179
2.26767	178
2.27133	177
2.27500	178
2.27867	181
2.28233	184
2.28600	186
2.28967	189
2.29333	192
2.29700	194
2.30067	194
2.30433	193
2.30800	194
2.31167	194
2.31533	195
2.31900	194
2.32267	198
2.32633	202
2.33000	203
2.33367	205
2.33733	206
2.34100	209
2.34467	209
2.34833	209
2.35200	210
2.35567	212
2.35933	212
2.36300	211
2.36667	211
2.37033	211
2.37400	212
2.37767	212
2.38133	213
2.38500	214
2.38867	214
2.39233	216
2.39600	219
2.39967	223
2.40333	227
2.40700	231
2.41067	231
2.41433	232
2.41800	233
2.42167	235
2.42533	235
2.42900	236
2.43267	237
2.43633	237
2.44000	239
2.44367	294
2.44733	440
2.45100	598
2.45467	729
2.45833	801
2.46200	807
2.46567	775
2.46933	735
2.47300	704
2.47667	685
2.48033	668
2.48400	640
2.48767	600
2.49133	554
2.49500	510
2.49867	473
2.50233	445
2.50600	428
2.50967	423
2.51333	431
2.51700	449
2.52067	471
2.52433	488
2.52800	497
2.53167	496
2.53533	484
2.53900	461
2.54267	431
2.54633	398
2.55000	368
2.55367	343
2.55733	323
2.56100	307
2.56467	295
2.56833	289
2.57200	286
2.57567	282
2.57933	278
2.58300	277
2.58667	277
2.59033	281
2.59400	286
2.59767	291
2.60133	295
2.60500	296
2.60867	298
2.61233	299
2.61600	297
2.61967	294
2.62333	289
2.62700	282
2.63067	276
2.63433	268
2.63800	260
2.64167	251
2.64533	240
2.64900	230
2.65267	217
2.65633	204
2.66000	192
2.66367	181
2.66733	170
2.67100	160
2.67467	150
2.67833	140
2.68200	132
2.68567	128
2.68933	125
2.69300	123
2.69667	121
2.70033	121
2.70400	122
2.70767	124
2.71133	125
2.71500	127
2.71867	131
2.72233	136
2.72600	140
2.72967	144
2.73333	146
2.73700	148
2.74067	148
2.74433	149
2.74800	151
2.75167	153
2.75533	154
2.75900	156
2.76267	157
2.76633	158
2.77000	159
2.77367	163
2.77733	167
2.78100	171
2.78467	173
2.78833	174
2.79200	175
2.79567	180
2.79933	186
2.80300	190
2.80667	196
2.81033	202
2.81400	211
2.81767	219
2.82133	230
2.82500	247
2.82867	280
2.83233	343
2.83600	459
2.83967	651
2.84333	936
2.84700	1325
2.85067	1809
2.85433	2367
2.85800	2961
2.86167	3545
2.86533	4074
2.86900	4506
2.87267	4807
2.87633	4966
2.88000	4982
2.88367	4875
2.88733	4666
2.89100	4386
2.89467	4064
2.89833	3720
2.90200	3372
2.90567	3035
2.90933	2714
2.91300	2419
2.91667	2151
2.92033	1907
2.92400	1691
2.92767	1498
2.93133	1327
2.93500	1178
2.93867	1045
2.94233	929
2.94600	828
2.94967	740
2.95333	665
2.95700	601
2.96067	545
2.96433	496
2.96800	452
2.97167	415
2.97533	383
2.97900	357
2.98267	336
2.98633	317
2.99000	296
2.99367	277
2.99733	262
3.00100	249
3.00467	239
3.00833	230
3.01200	224
3.01567	219
3.01933	212
3.02300	207
3.02667	205
3.03033	202
3.03400	197
3.03767	194
3.04133	191
3.04500	189
3.04867	188
3.05233	186
3.05600	183
3.05967	181
3.06333	180
3.06700	179
3.07067	180
3.07433	180
3.07800	178
3.08167	176
3.08533	176
3.08900	179
3.09267	181
3.09633	182
3.10000	181
3.10367	180
3.10733	178
3.11100	177
3.11467	178
3.11833	180
3.12200	181
3.12567	179
3.12933	178
3.13300	178
3.13667	180
3.14033	182
3.14400	186
3.14767	189
3.15133	189
3.15500	190
3.15867	191
3.16233	192
3.16600	194
3.16967	196
3.17333	197
3.17700	197
3.18067	197
3.18433	199
3.18800	202
3.19167	204
3.19533	205
3.19900	206
3.20267	207
3.20633	207
3.21000	209
3.21367	212
3.21733	214
3.22100	214
3.22467	214
3.22833	216
3.23200	218
3.23567	221
3.23933	225
3.24300	229
3.24667	232
3.25033	233
3.25400	236
3.25767	237
3.26133	238
3.26500	240
3.26867	243
3.27233	245
3.27600	247
3.27967	248
3.28333	249
3.28700	249
3.29067	248
3.29433	249
3.29800	250
3.30167	252
3.30533	254
3.30900	257
3.31267	259
3.31633	260
3.32000	261
3.32367	263
3.32733	266
3.33100	270
3.33467	273
3.33833	273
3.34200	273
3.34567	275
3.34933	276
3.35300	278
3.35667	281
3.36033	282
3.36400	283
3.36767	284
3.37133	284
3.37500	286
3.37867	287
3.38233	289
3.38600	292
3.38967	294
3.39333	295
3.39700	296
3.40067	296
3.40433	295
3.40800	295
3.41167	296
3.41533	298
3.41900	298
3.42267	300
3.42633	301
3.43000	303
3.43367	305
3.43733	308
3.44100	311
3.44467	311
3.44833	310
3.45200	311
3.45567	313
3.45933	312
3.46300	310
3.46667	310
3.47033	306
3.47400	304
3.47767	302
3.48133	295
3.48500	280
3.48867	267
3.49233	263
3.49600	269
3.49967	286
3.50333	309
3.50700	334
3.51067	358
3.51433	383
3.51800	409
3.52167	432
3.52533	455
3.52900	478
3.53267	499
3.53633	517
3.54000	530
3.54367	540
3.54733	550
3.55100	560
3.55467	571
3.55833	582
3.56200	592
3.56567	597
3.56933	601
3.57300	605
3.57667	608
3.58033	611
3.58400	613
3.58767	618
3.59133	622
3.59500	625
3.59867	628
3.60233	628
3.60600	629
3.60967	633
3.61333	637
3.61700	639
3.62067	641
3.62433	641
3.62800	641
3.63167	641
3.63533	643
3.63900	644
3.64267	642
3.64633	642
3.65000	645
3.65367	646
3.65733	646
3.66100	645
3.66467	644
3.66833	645
3.67200	646
3.67567	646
3.67933	646
3.68300	645
3.68667	644
3.69033	643
3.69400	640
3.69767	640
3.70133	641
3.70500	643
3.70867	643
3.71233	643
3.71600	645
3.71967	645
3.72333	644
3.72700	643
3.73067	642
3.73433	641
3.73800	642
3.74167	643
3.74533	643
3.74900	643
3.75267	642
3.75633	641
3.76000	639
3.76367	638
3.76733	638
3.77100	640
3.77467	640
3.77833	640
3.78200	639
3.78567	639
3.78933	639
3.79300	642
3.79667	644
3.80033	647
3.80400	649
3.80767	649
3.81133	650
3.81500	646
3.81867	643
3.82233	644
3.82600	645
3.82967	644
3.83333	643
3.83700	642
3.84067	641
3.84433	641
3.84800	638
3.85167	635
3.85533	634
3.85900	634
3.86267	633
3.86633	633
3.87000	632
3.87367	631
3.87733	629
3.88100	627
3.88467	624
3.88833	622
3.89200	621
3.89567	622
3.89933	621
3.90300	619
3.90667	616
3.91033	615
3.91400	615
3.91767	616
3.92133	616
3.92500	617
3.92867	615
3.93233	612
3.93600	609
3.93967	605
3.94333	603
3.94700	601
3.95067	601
3.95433	600
3.95800	599
3.96167	595
3.96533	593
3.96900	593
3.97267	595
3.97633	594
3.98000	591
3.98367	590
3.98733	589
3.99100	588
3.99467	586
3.99833	583

[Status Trace (Column Oven Temperature)]
Interval(msec)	1000
# of Points	240
Start Time(min)	0.009
End Time(min)	3.993
Intensity Units	
Intensity Multiplier	1
R.Time (min)	Intensity
0.00947	35.06
0.02613	35.05
0.04280	35.05
0.05947	35.04
0.07613	35.04
0.09280	35.04
0.10947	35.04
0.12613	35.03
0.14280	35.03
0.15947	35.03
0.17613	35.04
0.19280	35.05
0.20947	35.05
0.22613	35.05
0.24280	35.05
0.25947	35.04
0.27613	35.05
0.29280	35.04
0.30947	35.04
0.32613	35.05
0.34280	35.04
0.35947	35.04
0.37613	35.03
0.39280	35.03
0.40947	35.02
0.42613	35.01
0.44280	34.99
0.45947	34.98
0.47613	34.98
0.49280	34.99
0.50947	35.01
0.52613	35.00
0.54280	35.00
0.55947	35.00
0.57613	35.01
0.59280	35.00
0.60947	35.01
0.62613	35.00
0.64280	34.99
0.65947	34.98
0.67613	35.00
0.69280	35.00
0.70947	34.99
0.72613	34.98
0.74280	34.99
0.75947	35.00
0.77613	34.99
0.79280	35.01
0.80947	34.98
0.82613	34.98
0.84280	34.98
0.85947	34.98
0.87613	34.98
0.89280	34.99
0.90947	34.99
0.92613	34.99
0.94280	34.99
0.95947	35.01
0.97613	35.01
0.99280	35.02
1.00947	35.01
1.02613	35.00
1.04280	35.00
1.05947	35.00
1.07613	35.00
1.09280	35.00
1.10947	35.00
1.12613	34.99
1.14280	34.98
1.15947	34.97
1.17613	34.97
1.19280	34.99
1.20947	35.00
1.22613	35.00
1.24280	35.01
1.25947	35.02
1.27613	35.03
1.29280	35.03
1.30947	35.03
1.32613	35.02
1.34280	35.00
1.35947	35.00
1.37613	35.00
1.39280	35.00
1.40947	35.00
1.42613	34.99
1.44280	35.00
1.45947	34.99
1.47613	34.99
1.49280	34.98
1.50947	34.98
1.52613	34.99
1.54280	34.99
1.55947	34.99
1.57613	34.99
1.59280	35.01
1.60947	35.07
1.62613	35.20
1.64280	35.40
1.65947	35.64
1.67613	36.00
1.69280	36.37
1.70947	36.71
1.72613	37.04
1.74280	37.37
1.75947	37.71
1.77613	38.04
1.79280	38.37
1.80947	38.71
1.82613	39.03
1.84280	39.37
1.85947	39.69
1.87613	40.02
1.89280	40.36
1.90947	40.69
1.92613	41.02
1.94280	41.35
1.95947	41.66
1.97613	42.00
1.99280	42.33
2.00947	42.65
2.02613	42.97
2.04280	43.29
2.05947	43.64
2.07613	43.95
2.09280	44.28
2.10947	44.60
2.12613	44.93
2.14280	45.25
2.15947	45.58
2.17613	45.88
2.19280	46.24
2.20947	46.56
2.22613	46.87
2.24280	47.23
2.25947	47.54
2.27613	47.88
2.29280	48.21
2.30947	48.53
2.32613	48.86
2.34280	49.18
2.35947	49.45
2.37613	49.63
2.39280	49.70
2.40947	49.69
2.42613	49.69
2.44280	49.68
2.45947	49.70
2.47613	49.72
2.49280	49.72
2.50947	49.74
2.52613	49.77
2.54280	49.76
2.55947	49.78
2.57613	49.80
2.59280	49.82
2.60947	49.82
2.62613	49.82
2.64280	49.82
2.65947	49.82
2.67613	49.84
2.69280	49.85
2.70947	49.86
2.72613	49.85
2.74280	49.85
2.75947	49.85
2.77613	49.86
2.79280	49.89
2.80947	49.89
2.82613	49.89
2.84280	49.90
2.85947	49.89
2.87613	49.89
2.89280	49.90
2.90947	49.91
2.92613	49.92
2.94280	49.93
2.95947	49.94
2.97613	49.94
2.99280	49.95
3.00947	49.96
3.02613	49.97
3.04280	49.97
3.05947	49.97
3.07613	49.98
3.09280	49.99
3.10947	50.00
3.12613	50.03
3.14280	50.05
3.15947	50.05
3.17613	50.06
3.19280	50.07
3.20947	50.07
3.22613	50.08
3.24280	50.10
3.25947	50.10
3.27613	50.11
3.29280	50.10
3.30947	50.08
3.32613	50.07
3.34280	50.05
3.35947	50.04
3.37613	50.03
3.39280	50.03
3.40947	50.03
3.42613	50.04
3.44280	50.04
3.45947	50.05
3.47613	50.06
3.49280	50.06
3.50947	50.06
3.52613	50.06
3.54280	50.07
3.55947	50.07
3.57613	50.07
3.59280	50.07
3.60947	50.07
3.62613	50.08
3.64280	50.08
3.65947	50.08
3.67613	50.07
3.69280	50.07
3.70947	50.07
3.72613	50.08
3.74280	50.09
3.75947	50.09
3.77613	50.09
3.79280	50.10
3.80947	50.10
3.82613	50.09
3.84280	50.08
3.85947	50.07
3.87613	50.06
3.89280	50.05
3.90947	50.05
3.92613	50.02
3.94280	50.02
3.95947	50.02
3.97613	50.01
3.99280	50.02

[Status Trace (Injection Unit Temperature)]
Interval(msec)	1000
# of Points	240
Start Time(min)	0.009
End Time(min)	3.993
Intensity Units	
Intensity Multiplier	1
R.Time (min)	Intensity
0.00947	99.98
0.02613	99.98
0.04280	99.98
0.05947	99.98
0.07613	99.98
0.09280	99.98
0.10947	99.98
0.12613	99.98
0.14280	99.98
0.15947	99.98
0.17613	99.99
0.19280	99.98
0.20947	99.98
0.22613	99.98
0.24280	99.98
0.25947	99.98
0.27613	99.98
0.29280	99.99
0.30947	99.98
0.32613	99.98
0.34280	99.98
0.35947	99.98
0.37613	99.98
0.39280	99.98
0.40947	99.98
0.42613	99.98
0.44280	99.98
0.45947	99.98
0.47613	99.98
0.49280	99.98
0.50947	99.98
0.52613	99.98
0.54280	99.98
0.55947	99.98
0.57613	99.98
0.59280	99.98
0.60947	99.98
0.62613	99.98
0.64280	99.98
0.65947	99.98
0.67613	99.98
0.69280	99.98
0.70947	99.98
0.72613	99.98
0.74280	99.98
0.75947	99.98
0.77613	99.98
0.79280	99.98
0.80947	99.98
0.82613	99.98
0.84280	99.98
0.85947	99.98
0.87613	99.98
0.89280	99.98
0.90947	99.98
0.92613	99.98
0.94280	99.98
0.95947	99.98
0.97613	99.98
0.99280	99.99
1.00947	99.99
1.02613	99.98
1.04280	99.97
1.05947	99.99
1.07613	99.98
1.09280	99.98
1.10947	99.98
1.12613	99.98
1.14280	99.98
1.15947	99.98
1.17613	99.98
1.19280	99.98
1.20947	99.99
1.22613	99.99
1.24280	99.98
1.25947	99.99
1.27613	99.98
1.29280	99.98
1.30947	99.99
1.32613	99.99
1.34280	99.98
1.35947	99.99
1.37613	99.98
1.39280	99.98
1.40947	99.99
1.42613	99.99
1.44280	99.98
1.45947	99.98
1.47613	99.99
1.49280	99.99
1.50947	99.98
1.52613	99.99
1.54280	99.98
1.55947	99.99
1.57613	99.99
1.59280	99.99
1.60947	99.99
1.62613	99.98
1.64280	99.98
1.65947	99.99
1.67613	99.99
1.69280	99.98
1.70947	99.99
1.72613	99.98
1.74280	99.99
1.75947	99.98
1.77613	99.98
1.79280	99.98
1.80947	99.99
1.82613	99.98
1.84280	99.99
1.85947	99.98
1.87613	99.98
1.89280	99.98
1.90947	99.98
1.92613	99.98
1.94280	99.98
1.95947	99.98
1.97613	99.98
1.99280	99.97
2.00947	99.98
2.02613	99.98
2.04280	99.97
2.05947	99.97
2.07613	99.97
2.09280	99.97
2.10947	99.97
2.12613	99.97
2.14280	99.97
2.15947	99.97
2.17613	99.97
2.19280	99.97
2.20947	99.97
2.22613	99.96
2.24280	99.96
2.25947	99.97
2.27613	99.96
2.29280	99.96
2.30947	99.97
2.32613	99.96
2.34280	99.96
2.35947	99.96
2.37613	99.97
2.39280	99.96
2.40947	99.96
2.42613	99.97
2.44280	99.97
2.45947	99.96
2.47613	99.97
2.49280	99.97
2.50947	99.97
2.52613	99.97
2.54280	99.97
2.55947	99.98
2.57613	99.98
2.59280	99.98
2.60947	99.98
2.62613	99.98
2.64280	99.98
2.65947	99.98
2.67613	99.98
2.69280	99.99
2.70947	99.99
2.72613	99.99
2.74280	99.99
2.75947	99.99
2.77613	99.99
2.79280	100.00
2.80947	100.00
2.82613	100.00
2.84280	100.00
2.85947	100.00
2.87613	100.01
2.89280	100.00
2.90947	100.01
2.92613	100.01
2.94280	100.01
2.95947	100.01
2.97613	100.02
2.99280	100.02
3.00947	100.02
3.02613	100.02
3.04280	100.02
3.05947	100.03
3.07613	100.02
3.09280	100.02
3.10947	100.03
3.12613	100.03
3.14280	100.03
3.15947	100.03
3.17613	100.03
3.19280	100.03
3.20947	100.03
3.22613	100.03
3.24280	100.03
3.25947	100.03
3.27613	100.03
3.29280	100.03
3.30947	100.04
3.32613	100.04
3.34280	100.04
3.35947	100.03
3.37613	100.03
3.39280	100.04
3.40947	100.04
3.42613	100.04
3.44280	100.04
3.45947	100.04
3.47613	100.04
3.49280	100.04
3.50947	100.04
3.52613	100.04
3.54280	100.03
3.55947	100.04
3.57613	100.04
3.59280	100.04
3.60947	100.04
3.62613	100.04
3.64280	100.04
3.65947	100.04
3.67613	100.04
3.69280	100.04
3.70947	100.04
3.72613	100.04
3.74280	100.04
3.75947	100.04
3.77613	100.04
3.79280	100.04
3.80947	100.04
3.82613	100.04
3.84280	100.04
3.85947	100.04
3.87613	100.04
3.89280	100.04
3.90947	100.04
3.92613	100.04
3.94280	100.04
3.95947	100.04
3.97613	100.04
3.99280	100.04

[Status Trace (Carrier Gas Pressure)]
Interval(msec)	1000
# of Points	240
Start Time(min)	0.009
End Time(min)	3.993
Intensity Units	
Intensity Multiplier	1
R.Time (min)	Intensity
0.00947	58.00
0.02613	55.20
0.04280	57.39
0.05947	59.41
0.07613	59.21
0.09280	58.02
0.10947	57.98
0.12613	58.01
0.14280	58.01
0.15947	58.00
0.17613	58.00
0.19280	58.00
0.20947	58.00
0.22613	58.00
0.24280	58.00
0.25947	58.00
0.27613	58.00
0.29280	58.00
0.30947	58.00
0.32613	58.00
0.34280	58.00
0.35947	58.00
0.37613	58.00
0.39280	58.00
0.40947	58.00
0.42613	58.00
0.44280	58.00
0.45947	58.00
0.47613	58.00
0.49280	58.00
0.50947	58.00
0.52613	58.00
0.54280	58.00
0.55947	58.00
0.57613	58.00
0.59280	58.00
0.60947	58.00
0.62613	58.00
0.64280	58.00
0.65947	58.00
0.67613	58.00
0.69280	58.00
0.70947	58.00
0.72613	58.00
0.74280	58.00
0.75947	58.00
0.77613	58.00
0.79280	58.00
0.80947	58.00
0.82613	58.00
0.84280	58.00
0.85947	58.00
0.87613	58.00
0.89280	58.00
0.90947	58.00
0.92613	58.00
0.94280	58.00
0.95947	58.00
0.97613	58.00
0.99280	58.00
1.00947	58.00
1.02613	58.00
1.04280	58.00
1.05947	58.00
1.07613	58.00
1.09280	58.00
1.10947	58.00
1.12613	58.00
1.14280	58.00
1.15947	58.00
1.17613	58.00
1.19280	58.00
1.20947	58.00
1.22613	58.00
1.24280	58.00
1.25947	58.00
1.27613	58.00
1.29280	58.00
1.30947	58.00
1.32613	58.00
1.34280	58.00
1.35947	58.00
1.37613	58.00
1.39280	58.00
1.40947	58.00
1.42613	58.00
1.44280	58.00
1.45947	58.00
1.47613	58.00
1.49280	58.00
1.50947	58.00
1.52613	58.00
1.54280	58.00
1.55947	58.00
1.57613	58.00
1.59280	58.00
1.60947	58.00
1.62613	58.00
1.64280	58.00
1.65947	58.00
1.67613	58.01
1.69280	58.00
1.70947	58.00
1.72613	58.00
1.74280	58.00
1.75947	58.00
1.77613	58.00
1.79280	58.00
1.80947	58.00
1.82613	58.00
1.84280	58.00
1.85947	58.00
1.87613	58.00
1.89280	58.00
1.90947	58.00
1.92613	58.00
1.94280	58.00
1.95947	58.00
1.97613	58.00
1.99280	58.00
2.00947	58.00
2.02613	58.00
2.04280	58.00
2.05947	58.00
2.07613	58.00
2.09280	58.00
2.10947	58.00
2.12613	58.00
2.14280	58.00
2.15947	58.00
2.17613	58.00
2.19280	58.00
2.20947	58.00
2.22613	58.00
2.24280	58.00
2.25947	58.00
2.27613	58.00
2.29280	58.00
2.30947	58.00
2.32613	58.00
2.34280	58.00
2.35947	58.00
2.37613	58.00
2.39280	57.99
2.40947	57.99
2.42613	58.00
2.44280	58.00
2.45947	58.00
2.47613	58.00
2.49280	58.00
2.50947	58.00
2.52613	57.98
2.54280	58.00
2.55947	58.00
2.57613	58.00
2.59280	58.00
2.60947	58.00
2.62613	58.00
2.64280	58.00
2.65947	58.00
2.67613	58.00
2.69280	58.00
2.70947	58.00
2.72613	58.00
2.74280	58.00
2.75947	58.00
2.77613	58.00
2.79280	58.00
2.80947	58.00
2.82613	58.00
2.84280	58.00
2.85947	58.00
2.87613	58.00
2.89280	58.00
2.90947	58.00
2.92613	58.00
2.94280	58.00
2.95947	58.00
2.97613	58.00
2.99280	58.00
3.00947	58.00
3.02613	58.00
3.04280	58.00
3.05947	58.00
3.07613	58.00
3.09280	58.00
3.10947	58.00
3.12613	58.00
3.14280	58.00
3.15947	58.00
3.17613	58.00
3.19280	58.00
3.20947	58.00
3.22613	58.00
3.24280	58.00
3.25947	58.00
3.27613	58.00
3.29280	58.00
3.30947	58.00
3.32613	58.00
3.34280	58.00
3.35947	58.00
3.37613	58.00
3.39280	58.00
3.40947	58.00
3.42613	58.00
3.44280	58.00
3.45947	58.00
3.47613	58.00
3.49280	58.00
3.50947	58.00
3.52613	58.00
3.54280	58.00
3.55947	58.00
3.57613	58.00
3.59280	58.00
3.60947	58.00
3.62613	58.00
3.64280	58.00
3.65947	58.00
3.67613	58.00
3.69280	58.00
3.70947	58.00
3.72613	58.00
3.74280	58.00
3.75947	58.00
3.77613	58.00
3.79280	58.00
3.80947	58.00
3.82613	58.00
3.84280	58.00
3.85947	58.00
3.87613	58.00
3.89280	58.00
3.90947	58.00
3.92613	58.00
3.94280	58.00
3.95947	58.00
3.97613	58.00
3.99280	58.00

[Status Trace (Carrier Gas Flow)]
Interval(msec)	1000
# of Points	240
Start Time(min)	0.009
End Time(min)	3.993
Intensity Units	
Intensity Multiplier	1
R.Time (min)	Intensity
0.00947	34.52
0.02613	34.54
0.04280	34.55
0.05947	34.55
0.07613	34.50
0.09280	34.52
0.10947	34.52
0.12613	34.52
0.14280	34.52
0.15947	34.52
0.17613	34.52
0.19280	34.52
0.20947	34.51
0.22613	34.52
0.24280	34.52
0.25947	34.51
0.27613	34.52
0.29280	34.52
0.30947	34.52
0.32613	34.52
0.34280	34.52
0.35947	34.52
0.37613	34.52
0.39280	34.52
0.40947	34.52
0.42613	34.52
0.44280	34.52
0.45947	34.52
0.47613	34.52
0.49280	34.52
0.50947	34.52
0.52613	34.52
0.54280	34.51
0.55947	34.52
0.57613	34.52
0.59280	34.52
0.60947	34.52
0.62613	34.52
0.64280	34.52
0.65947	34.51
0.67613	34.52
0.69280	34.52
0.70947	34.52
0.72613	34.52
0.74280	34.52
0.75947	34.52
0.77613	34.52
0.79280	34.52
0.80947	34.52
0.82613	34.52
0.84280	34.52
0.85947	34.52
0.87613	34.51
0.89280	34.52
0.90947	34.51
0.92613	34.52
0.94280	34.52
0.95947	34.52
0.97613	34.52
0.99280	34.52
1.00947	34.51
1.02613	34.52
1.04280	34.52
1.05947	34.52
1.07613	34.52
1.09280	34.52
1.10947	34.52
1.12613	34.52
1.14280	34.52
1.15947	34.52
1.17613	34.52
1.19280	34.52
1.20947	34.52
1.22613	34.52
1.24280	34.52
1.25947	34.52
1.27613	34.52
1.29280	34.52
1.30947	34.52
1.32613	34.52
1.34280	34.52
1.35947	34.52
1.37613	34.52
1.39280	34.52
1.40947	34.52
1.42613	34.52
1.44280	34.52
1.45947	34.52
1.47613	34.51
1.49280	34.52
1.50947	34.52
1.52613	34.52
1.54280	34.52
1.55947	34.51
1.57613	34.52
1.59280	34.52
1.60947	34.52
1.62613	34.51
1.64280	34.52
1.65947	34.52
1.67613	34.52
1.69280	34.52
1.70947	34.52
1.72613	34.52
1.74280	34.52
1.75947	34.52
1.77613	34.52
1.79280	34.52
1.80947	34.52
1.82613	34.52
1.84280	34.52
1.85947	34.52
1.87613	34.52
1.89280	34.52
1.90947	34.52
1.92613	34.52
1.94280	34.52
1.95947	34.52
1.97613	34.52
1.99280	34.52
2.00947	34.52
2.02613	34.51
2.04280	34.52
2.05947	34.52
2.07613	34.52
2.09280	34.52
2.10947	34.52
2.12613	34.51
2.14280	34.52
2.15947	34.51
2.17613	34.52
2.19280	34.52
2.20947	34.51
2.22613	34.52
2.24280	34.53
2.25947	34.51
2.27613	34.52
2.29280	34.52
2.30947	34.52
2.32613	34.52
2.34280	34.52
2.35947	34.52
2.37613	34.51
2.39280	34.52
2.40947	34.52
2.42613	34.52
2.44280	34.52
2.45947	34.52
2.47613	34.52
2.49280	34.52
2.50947	34.50
2.52613	34.52
2.54280	34.52
2.55947	34.52
2.57613	34.52
2.59280	34.52
2.60947	34.52
2.62613	34.52
2.64280	34.52
2.65947	34.51
2.67613	34.52
2.69280	34.52
2.70947	34.52
2.72613	34.52
2.74280	34.52
2.75947	34.53
2.77613	34.52
2.79280	34.52
2.80947	34.52
2.82613	34.52
2.84280	34.52
2.85947	34.52
2.87613	34.52
2.89280	34.52
2.90947	34.51
2.92613	34.52
2.94280	34.52
2.95947	34.52
2.97613	34.52
2.99280	34.52
3.00947	34.52
3.02613	34.52
3.04280	34.52
3.05947	34.52
3.07613	34.52
3.09280	34.51
3.10947	34.52
3.12613	34.52
3.14280	34.52
3.15947	34.52
3.17613	34.52
3.19280	34.52
3.20947	34.52
3.22613	34.52
3.24280	34.51
3.25947	34.52
3.27613	34.52
3.29280	34.52
3.30947	34.52
3.32613	34.52
3.34280	34.52
3.35947	34.52
3.37613	34.52
3.39280	34.52
3.40947	34.52
3.42613	34.52
3.44280	34.52
3.45947	34.52
3.47613	34.52
3.49280	34.52
3.50947	34.52
3.52613	34.52
3.54280	34.51
3.55947	34.52
3.57613	34.52
3.59280	34.52
3.60947	34.52
3.62613	34.52
3.64280	34.52
3.65947	34.51
3.67613	34.52
3.69280	34.52
3.70947	34.52
3.72613	34.51
3.74280	34.52
3.75947	34.52
3.77613	34.52
3.79280	34.51
3.80947	34.51
3.82613	34.52
3.84280	34.52
3.85947	34.52
3.87613	34.52
3.89280	34.52
3.90947	34.51
3.92613	34.51
3.94280	34.52
3.95947	34.52
3.97613	34.52
3.99280	34.52

[Status Trace (Column Flow)]
Interval(msec)	1000
# of Points	240
Start Time(min)	0.009
End Time(min)	3.993
Intensity Units	
Intensity Multiplier	1
R.Time (min)	Intensity
0.00947	5.55
0.02613	5.22
0.04280	5.48
0.05947	5.72
0.07613	5.69
0.09280	5.55
0.10947	5.55
0.12613	5.55
0.14280	5.55
0.15947	5.55
0.17613	5.55
0.19280	5.55
0.20947	5.55
0.22613	5.55
0.24280	5.55
0.25947	5.55
0.27613	5.55
0.29280	5.55
0.30947	5.55
0.32613	5.55
0.34280	5.55
0.35947	5.55
0.37613	5.55
0.39280	5.55
0.40947	5.55
0.42613	5.55
0.44280	5.55
0.45947	5.55
0.47613	5.55
0.49280	5.55
0.50947	5.55
0.52613	5.55
0.54280	5.55
0.55947	5.55
0.57613	5.55
0.59280	5.55
0.60947	5.55
0.62613	5.55
0.64280	5.55
0.65947	5.55
0.67613	5.55
0.69280	5.55
0.70947	5.55
0.72613	5.55
0.74280	5.55
0.75947	5.55
0.77613	5.55
0.79280	5.55
0.80947	5.55
0.82613	5.55
0.84280	5.55
0.85947	5.55
0.87613	5.55
0.89280	5.55
0.90947	5.55
0.92613	5.55
0.94280	5.55
0.95947	5.55
0.97613	5.55
0.99280	5.55
1.00947	5.55
1.02613	5.55
1.04280	5.55
1.05947	5.55
1.07613	5.55
1.09280	5.55
1.10947	5.55
1.12613	5.55
1.14280	5.55
1.15947	5.55
1.17613	5.55
1.19280	5.55
1.20947	5.55
1.22613	5.55
1.24280	5.55
1.25947	5.55
1.27613	5.55
1.29280	5.55
1.30947	5.55
1.32613	5.55
1.34280	5.55
1.35947	5.55
1.37613	5.55
1.39280	5.55
1.40947	5.55
1.42613	5.55
1.44280	5.55
1.45947	5.55
1.47613	5.55
1.49280	5.55
1.50947	5.55
1.52613	5.55
1.54280	5.55
1.55947	5.55
1.57613	5.55
1.59280	5.55
1.60947	5.55
1.62613	5.55
1.64280	5.54
1.65947	5.53
1.67613	5.52
1.69280	5.51
1.70947	5.50
1.72613	5.49
1.74280	5.48
1.75947	5.47
1.77613	5.46
1.79280	5.45
1.80947	5.44
1.82613	5.43
1.84280	5.42
1.85947	5.41
1.87613	5.40
1.89280	5.39
1.90947	5.38
1.92613	5.37
1.94280	5.36
1.95947	5.35
1.97613	5.34
1.99280	5.33
2.00947	5.32
2.02613	5.31
2.04280	5.30
2.05947	5.29
2.07613	5.28
2.09280	5.27
2.10947	5.26
2.12613	5.25
2.14280	5.24
2.15947	5.23
2.17613	5.22
2.19280	5.21
2.20947	5.20
2.22613	5.19
2.24280	5.18
2.25947	5.18
2.27613	5.17
2.29280	5.16
2.30947	5.15
2.32613	5.14
2.34280	5.13
2.35947	5.12
2.37613	5.12
2.39280	5.11
2.40947	5.11
2.42613	5.11
2.44280	5.11
2.45947	5.11
2.47613	5.11
2.49280	5.11
2.50947	5.11
2.52613	5.11
2.54280	5.11
2.55947	5.11
2.57613	5.11
2.59280	5.11
2.60947	5.11
2.62613	5.11
2.64280	5.11
2.65947	5.11
2.67613	5.11
2.69280	5.11
2.70947	5.11
2.72613	5.11
2.74280	5.11
2.75947	5.11
2.77613	5.11
2.79280	5.11
2.80947	5.11
2.82613	5.11
2.84280	5.11
2.85947	5.11
2.87613	5.11
2.89280	5.11
2.90947	5.11
2.92613	5.11
2.94280	5.11
2.95947	5.11
2.97613	5.11
2.99280	5.11
3.00947	5.11
3.02613	5.11
3.04280	5.11
3.05947	5.11
3.07613	5.11
3.09280	5.11
3.10947	5.11
3.12613	5.11
3.14280	5.11
3.15947	5.10
3.17613	5.10
3.19280	5.10
3.20947	5.10
3.22613	5.10
3.24280	5.10
3.25947	5.10
3.27613	5.10
3.29280	5.10
3.30947	5.10
3.32613	5.10
3.34280	5.10
3.35947	5.10
3.37613	5.11
3.39280	5.11
3.40947	5.11
3.42613	5.10
3.44280	5.10
3.45947	5.10
3.47613	5.10
3.49280	5.10
3.50947	5.10
3.52613	5.10
3.54280	5.10
3.55947	5.10
3.57613	5.10
3.59280	5.10
3.60947	5.10
3.62613	5.10
3.64280	5.10
3.65947	5.10
3.67613	5.10
3.69280	5.10
3.70947	5.10
3.72613	5.10
3.74280	5.10
3.75947	5.10
3.77613	5.10
3.79280	5.10
3.80947	5.10
3.82613	5.10
3.84280	5.10
3.85947	5.10
3.87613	5.10
3.89280	5.10
3.90947	5.11
3.92613	5.11
3.94280	5.11
3.95947	5.11
3.97613	5.11
3.99280	5.11

[Status Trace (Linear Velocity)]
Interval(msec)	1000
# of Points	240
Start Time(min)	0.009
End Time(min)	3.993
Intensity Units	
Intensity Multiplier	1
R.Time (min)	Intensity
0.00947	39.02
0.02613	37.18
0.04280	38.62
0.05947	39.94
0.07613	39.81
0.09280	39.03
0.10947	39.01
0.12613	39.03
0.14280	39.03
0.15947	39.02
0.17613	39.02
0.19280	39.02
0.20947	39.02
0.22613	39.02
0.24280	39.02
0.25947	39.02
0.27613	39.02
0.29280	39.02
0.30947	39.02
0.32613	39.02
0.34280	39.02
0.35947	39.02
0.37613	39.02
0.39280	39.02
0.40947	39.02
0.42613	39.02
0.44280	39.02
0.45947	39.03
0.47613	39.03
0.49280	39.03
0.50947	39.02
0.52613	39.02
0.54280	39.02
0.55947	39.02
0.57613	39.02
0.59280	39.02
0.60947	39.02
0.62613	39.02
0.64280	39.02
0.65947	39.03
0.67613	39.02
0.69280	39.02
0.70947	39.02
0.72613	39.03
0.74280	39.02
0.75947	39.02
0.77613	39.02
0.79280	39.02
0.80947	39.02
0.82613	39.03
0.84280	39.03
0.85947	39.03
0.87613	39.03
0.89280	39.03
0.90947	39.02
0.92613	39.02
0.94280	39.02
0.95947	39.02
0.97613	39.02
0.99280	39.02
1.00947	39.02
1.02613	39.02
1.04280	39.02
1.05947	39.02
1.07613	39.02
1.09280	39.02
1.10947	39.02
1.12613	39.02
1.14280	39.03
1.15947	39.03
1.17613	39.03
1.19280	39.03
1.20947	39.02
1.22613	39.02
1.24280	39.02
1.25947	39.02
1.27613	39.02
1.29280	39.02
1.30947	39.02
1.32613	39.02
1.34280	39.02
1.35947	39.02
1.37613	39.02
1.39280	39.02
1.40947	39.02
1.42613	39.02
1.44280	39.02
1.45947	39.02
1.47613	39.03
1.49280	39.03
1.50947	39.03
1.52613	39.03
1.54280	39.02
1.55947	39.02
1.57613	39.03
1.59280	39.02
1.60947	39.02
1.62613	39.01
1.64280	38.99
1.65947	38.96
1.67613	38.93
1.69280	38.89
1.70947	38.86
1.72613	38.83
1.74280	38.80
1.75947	38.77
1.77613	38.73
1.79280	38.70
1.80947	38.67
1.82613	38.64
1.84280	38.61
1.85947	38.58
1.87613	38.55
1.89280	38.52
1.90947	38.48
1.92613	38.45
1.94280	38.42
1.95947	38.39
1.97613	38.36
1.99280	38.33
2.00947	38.30
2.02613	38.27
2.04280	38.24
2.05947	38.21
2.07613	38.18
2.09280	38.15
2.10947	38.12
2.12613	38.09
2.14280	38.06
2.15947	38.03
2.17613	38.01
2.19280	37.98
2.20947	37.95
2.22613	37.92
2.24280	37.89
2.25947	37.86
2.27613	37.83
2.29280	37.80
2.30947	37.77
2.32613	37.74
2.34280	37.71
2.35947	37.69
2.37613	37.67
2.39280	37.66
2.40947	37.66
2.42613	37.67
2.44280	37.67
2.45947	37.67
2.47613	37.66
2.49280	37.66
2.50947	37.66
2.52613	37.65
2.54280	37.66
2.55947	37.66
2.57613	37.66
2.59280	37.66
2.60947	37.65
2.62613	37.66
2.64280	37.66
2.65947	37.66
2.67613	37.65
2.69280	37.65
2.70947	37.65
2.72613	37.65
2.74280	37.65
2.75947	37.65
2.77613	37.65
2.79280	37.65
2.80947	37.65
2.82613	37.65
2.84280	37.65
2.85947	37.65
2.87613	37.65
2.89280	37.65
2.90947	37.65
2.92613	37.65
2.94280	37.65
2.95947	37.65
2.97613	37.64
2.99280	37.64
3.00947	37.64
3.02613	37.64
3.04280	37.64
3.05947	37.64
3.07613	37.64
3.09280	37.64
3.10947	37.64
3.12613	37.64
3.14280	37.64
3.15947	37.63
3.17613	37.63
3.19280	37.63
3.20947	37.63
3.22613	37.63
3.24280	37.63
3.25947	37.63
3.27613	37.63
3.29280	37.63
3.30947	37.63
3.32613	37.63
3.34280	37.63
3.35947	37.64
3.37613	37.64
3.39280	37.64
3.40947	37.64
3.42613	37.64
3.44280	37.64
3.45947	37.64
3.47613	37.63
3.49280	37.63
3.50947	37.63
3.52613	37.63
3.54280	37.63
3.55947	37.63
3.57613	37.63
3.59280	37.63
3.60947	37.63
3.62613	37.63
3.64280	37.63
3.65947	37.63
3.67613	37.63
3.69280	37.63
3.70947	37.63
3.72613	37.63
3.74280	37.63
3.75947	37.63
3.77613	37.63
3.79280	37.63
3.80947	37.63
3.82613	37.63
3.84280	37.63
3.85947	37.63
3.87613	37.63
3.89280	37.63
3.90947	37.64
3.92613	37.64
3.94280	37.64
3.95947	37.64
3.97613	37.64
3.99280	37.64

