[Header]
Application Name	LabSolutions
Version	5.110
Data File Name	C:\Users\User\Desktop\GC Analyses\Jack\Nachusa Grasslands Sampling\T4 Timepoint July 12th\T4_07122022_010.gcd
Output Date	3/17/2023
Output Time	12:04:51 PM

[File Information]
Type	Data File
Generated	3/14/2023 4:24:12 PM
Generated by	System Administrator
Modified	3/14/2023 4:30:43 PM
Modified by	System Administrator

[Sample Information]
Operator Name	System Administrator
Acquired	3/14/2023 4:26:43 PM
Sample Type	0:Unknown
Level	0
Sample Name	010
Sample ID	010
ISTD Amount1	1
ISTD Amount2	1
ISTD Amount3	1
ISTD Amount4	1
ISTD Amount5	1
ISTD Amount6	1
ISTD Amount7	1
ISTD Amount8	1
ISTD Amount9	1
ISTD Amount10	1
ISTD Amount11	1
ISTD Amount12	1
ISTD Amount13	1
ISTD Amount14	1
ISTD Amount15	1
ISTD Amount16	1
ISTD Amount17	1
ISTD Amount18	1
ISTD Amount19	1
ISTD Amount20	1
ISTD Amount21	1
ISTD Amount22	1
ISTD Amount23	1
ISTD Amount24	1
ISTD Amount25	1
ISTD Amount26	1
ISTD Amount27	1
ISTD Amount28	1
ISTD Amount29	1
ISTD Amount30	1
ISTD Amount31	1
ISTD Amount32	1
Sample Amount	1
Dilution Factor	1
Vial#	9
Injection Volume	1
Injection Count	1
Bar Code	

[Original Files]
Data File	C:\Users\User\Desktop\GC Analyses\Jack\Nachusa Grasslands Sampling\T4 Timepoint July 12th\T4_07122022_010.gcd
Method File	C:\LabSolutions\Data\GHG_4min_2022\ghg3_togas_w_acet_4 min_new_int.gcm
Batch File	C:\LabSolutions\Data\AutoSamplerTesting\T4_07122022.gcb
Report Format File	c:\LabSolutions\System\DEFAULT.lsr

[File Description]


[Configuration]
Instrument Name	C0B7VH3-Instrument1
Instrument #	1
Line #	1
# of Detectors	3
Detector ID	DET#1	DET#2	DET#3
Detector Name	FID	PTCD	ECD
# of Channels	1	1	1

[Peak Table(Ch1)]
# of Peaks	3
Peak#	R.Time	I.Time	F.Time	Area	Height	A/H	Conc.	Mark	ID#	Name	k'	Plate #	Plate Ht.	Tailing	Resolution	Sep.Factor	Area Ratio	Height Ratio	Conc. %	Norm Conc.
1	1.479	1.443	1.534	24717	12193	2.027	174.506	   	1	CO	0.000	9781	15.336	1.133	0.000	0.000	0	0	22.318	22.318
2	1.571	1.538	1.619	3345	1740	1.923	64.676	   	2	CH4	0.062	11847	12.661	1.141	1.559	0.000	0	0	8.272	8.272
3	2.000	1.952	2.370	2162459	1039321	2.081	542.719	   	3	CO2	0.352	17514	8.565	1.194	7.260	5.680	0	0	69.410	69.410

[Peak Table(Ch2)]
# of Peaks	0

[Peak Table(Ch3)]
# of Peaks	5
Peak#	R.Time	I.Time	F.Time	Area	Height	A/H	Conc.	Mark	ID#	Name	k'	Plate #	Plate Ht.	Tailing	Resolution	Sep.Factor	Area Ratio	Height Ratio	Conc. %	Norm Conc.
1	2.462	2.312	2.506	1999	624	3.201	0.000	   			0.000	9180	16.340	0.000	0.000	0.000	0	0	0.000	0.000
2	2.528	2.506	2.576	1209	388	3.112	0.000	 V 			0.027	3870	38.761	0.000	0.497	0.000	0	0	0.000	0.000
3	2.609	2.576	2.678	805	204	3.937	0.000	 V 			0.060	1988	75.434	0.000	0.407	2.222	0	0	0.000	0.000
4	2.880	2.693	3.093	18888	4874	3.875	0.482	   	1	N2O	0.170	13157	11.401	1.499	1.623	2.850	0	0	100.000	100.000
5	3.419	3.269	3.995	13959	571	24.429	0.000	   	2	SF6	0.389	317	472.791	2.383	1.242	2.289	0	0	0.000	0.000

[Compound Results(Ch1)]
# of IDs	6
ID#	Name	R.Time	Area	Height	Conc.	Curve	3rd	2nd	1st	Constant	Area Ratio	Height Ratio	Conc. %	Norm Conc.
1	CO	1.479	24717	12193	174.506	Linear	0.000000e+00	0.000000e+00	1.416423e+002	0.000000e+00	0	0	22.318	22.318
2	CH4	1.571	3345	1740	64.676	Linear	0.000000e+00	0.000000e+00	5.171738e+001	0.000000e+00	0	0	8.272	8.272
3	CO2	2.000	2162459	1039321	542.719	Linear	0.000000e+00	0.000000e+00	3.984494e+003	0.000000e+00	0	0	69.410	69.410
4	Ethylene	0.000	0	0	0.000	Linear	0.000000e+00	0.000000e+00	0.000000e+00	0.000000e+00	0	0	0.000	0.000
5	Acetylene	0.000	0	0	0.000	Linear	0.000000e+00	0.000000e+00	0.000000e+00	0.000000e+00	0	0	0.000	0.000
6	Ethane	0.000	0	0	0.000	Linear	0.000000e+00	0.000000e+00	0.000000e+00	0.000000e+00	0	0	0.000	0.000

[Compound Results(Ch2)]
# of IDs	5
ID#	Name	R.Time	Area	Height	Conc.	Curve	3rd	2nd	1st	Constant	Area Ratio	Height Ratio	Conc. %	Norm Conc.
1	Hydrogen	0.000	0	0	0.000	Linear	0.000000e+00	0.000000e+00	0.000000e+00	0.000000e+00	0	0	0.000	0.000
2	Oxygen	0.000	0	0	0.000	Linear	0.000000e+00	0.000000e+00	0.000000e+00	0.000000e+00	0	0	0.000	0.000
3	Nitrogen	0.000	0	0	0.000	Linear	0.000000e+00	0.000000e+00	0.000000e+00	0.000000e+00	0	0	0.000	0.000
4	Methane	0.000	0	0	0.000	Linear	0.000000e+00	0.000000e+00	0.000000e+00	0.000000e+00	0	0	0.000	0.000
5	Carbon Monoxide	0.000	0	0	0.000	Linear	0.000000e+00	0.000000e+00	0.000000e+00	0.000000e+00	0	0	0.000	0.000

[Compound Results(Ch3)]
# of IDs	2
ID#	Name	R.Time	Area	Height	Conc.	Curve	3rd	2nd	1st	Constant	Area Ratio	Height Ratio	Conc. %	Norm Conc.
1	N2O	2.880	18888	4874	0.482	Linear	0.000000e+00	0.000000e+00	3.915173e+004	0.000000e+00	0	0	100.000	100.000
2	SF6	3.419	13959	571	0.000	Linear	0.000000e+00	0.000000e+00	0.000000e+00	0.000000e+00	0	0	0.000	0.000

[Group Results(Ch1)]
# of Groups	0

[Group Results(Ch2)]
# of Groups	0

[Group Results(Ch3)]
# of Groups	0

[Chromatogram (Ch1)]
Interval(msec)	220
# of Points	1091
Start Time(min)	0.002
End Time(min)	3.998
R.Time (min)	Intensity
0.00167	-18
0.00533	-30
0.00900	-36
0.01267	-40
0.01633	-42
0.02000	-44
0.02367	-41
0.02733	-42
0.03100	-42
0.03467	-36
0.03833	-28
0.04200	-27
0.04567	-27
0.04933	-26
0.05300	-16
0.05667	-4
0.06033	-2
0.06400	-4
0.06767	-3
0.07133	-1
0.07500	1
0.07867	3
0.08233	2
0.08600	2
0.08967	0
0.09333	-6
0.09700	-10
0.10067	-7
0.10433	-5
0.10800	-2
0.11167	3
0.11533	4
0.11900	-1
0.12267	-8
0.12633	-18
0.13000	-31
0.13367	-39
0.13733	-39
0.14100	-33
0.14467	-29
0.14833	-24
0.15200	-28
0.15567	-35
0.15933	-41
0.16300	-43
0.16667	-41
0.17033	-39
0.17400	-36
0.17767	-34
0.18133	-31
0.18500	-26
0.18867	-23
0.19233	-24
0.19600	-23
0.19967	-18
0.20333	-23
0.20700	-19
0.21067	-10
0.21433	-7
0.21800	-10
0.22167	-17
0.22533	-19
0.22900	-17
0.23267	-16
0.23633	-16
0.24000	-14
0.24367	-16
0.24733	-20
0.25100	-22
0.25467	-20
0.25833	-16
0.26200	-16
0.26567	-18
0.26933	-22
0.27300	-23
0.27667	-23
0.28033	-24
0.28400	-24
0.28767	-23
0.29133	-21
0.29500	-17
0.29867	-13
0.30233	-12
0.30600	-14
0.30967	-14
0.31333	-8
0.31700	1
0.32067	7
0.32433	11
0.32800	10
0.33167	6
0.33533	2
0.33900	-5
0.34267	-13
0.34633	-21
0.35000	-26
0.35367	-30
0.35733	-24
0.36100	-9
0.36467	-2
0.36833	-0
0.37200	5
0.37567	13
0.37933	22
0.38300	35
0.38667	47
0.39033	60
0.39400	70
0.39767	69
0.40133	59
0.40500	47
0.40867	36
0.41233	33
0.41600	41
0.41967	55
0.42333	65
0.42700	69
0.43067	67
0.43433	65
0.43800	65
0.44167	69
0.44533	76
0.44900	89
0.45267	102
0.45633	105
0.46000	99
0.46367	86
0.46733	72
0.47100	65
0.47467	67
0.47833	68
0.48200	64
0.48567	56
0.48933	52
0.49300	49
0.49667	43
0.50033	39
0.50400	36
0.50767	28
0.51133	19
0.51500	7
0.51867	-2
0.52233	-9
0.52600	-13
0.52967	-17
0.53333	-17
0.53700	-14
0.54067	-17
0.54433	-19
0.54800	-18
0.55167	-12
0.55533	2
0.55900	14
0.56267	6
0.56633	-1
0.57000	-2
0.57367	1
0.57733	-2
0.58100	-9
0.58467	-18
0.58833	-35
0.59200	-45
0.59567	-51
0.59933	-61
0.60300	-68
0.60667	-71
0.61033	-73
0.61400	-66
0.61767	-55
0.62133	-46
0.62500	-39
0.62867	-33
0.63233	-26
0.63600	-19
0.63967	-11
0.64333	-9
0.64700	-17
0.65067	-26
0.65433	-35
0.65800	-35
0.66167	-30
0.66533	-26
0.66900	-21
0.67267	-20
0.67633	-23
0.68000	-26
0.68367	-33
0.68733	-40
0.69100	-47
0.69467	-44
0.69833	-41
0.70200	-40
0.70567	-42
0.70933	-45
0.71300	-49
0.71667	-53
0.72033	-49
0.72400	-34
0.72767	-28
0.73133	-32
0.73500	-40
0.73867	-47
0.74233	-48
0.74600	-42
0.74967	-34
0.75333	-26
0.75700	-22
0.76067	-19
0.76433	-14
0.76800	-14
0.77167	-16
0.77533	-17
0.77900	-19
0.78267	-21
0.78633	-24
0.79000	-29
0.79367	-37
0.79733	-45
0.80100	-50
0.80467	-56
0.80833	-59
0.81200	-57
0.81567	-55
0.81933	-54
0.82300	-51
0.82667	-47
0.83033	-43
0.83400	-40
0.83767	-38
0.84133	-35
0.84500	-29
0.84867	-27
0.85233	-29
0.85600	-29
0.85967	-37
0.86333	-48
0.86700	-57
0.87067	-61
0.87433	-59
0.87800	-59
0.88167	-58
0.88533	-54
0.88900	-48
0.89267	-41
0.89633	-37
0.90000	-37
0.90367	-39
0.90733	-44
0.91100	-47
0.91467	-47
0.91833	-45
0.92200	-43
0.92567	-41
0.92933	-42
0.93300	-44
0.93667	-49
0.94033	-52
0.94400	-51
0.94767	-49
0.95133	-42
0.95500	-31
0.95867	-28
0.96233	-29
0.96600	-30
0.96967	-31
0.97333	-30
0.97700	-29
0.98067	-29
0.98433	-31
0.98800	-36
0.99167	-47
0.99533	-54
0.99900	-55
1.00267	-60
1.00633	-61
1.01000	-57
1.01367	-48
1.01733	-34
1.02100	-21
1.02467	-11
1.02833	-10
1.03200	-22
1.03567	-36
1.03933	-50
1.04300	-59
1.04667	-62
1.05033	-62
1.05400	-61
1.05767	-58
1.06133	-52
1.06500	-47
1.06867	-43
1.07233	-39
1.07600	-31
1.07967	-28
1.08333	-30
1.08700	-32
1.09067	-37
1.09433	-44
1.09800	-44
1.10167	-42
1.10533	-39
1.10900	-35
1.11267	-30
1.11633	-23
1.12000	-24
1.12367	-36
1.12733	-50
1.13100	-63
1.13467	-73
1.13833	-84
1.14200	-85
1.14567	-81
1.14933	-78
1.15300	-75
1.15667	-66
1.16033	-57
1.16400	-58
1.16767	-58
1.17133	-60
1.17500	-63
1.17867	-67
1.18233	-68
1.18600	-65
1.18967	-55
1.19333	-44
1.19700	-39
1.20067	-42
1.20433	-46
1.20800	-48
1.21167	-50
1.21533	-52
1.21900	-56
1.22267	-64
1.22633	-66
1.23000	-66
1.23367	-65
1.23733	-64
1.24100	-61
1.24467	-59
1.24833	-56
1.25200	-52
1.25567	-49
1.25933	-48
1.26300	-54
1.26667	-63
1.27033	-68
1.27400	-67
1.27767	-59
1.28133	-48
1.28500	-38
1.28867	-30
1.29233	-28
1.29600	-28
1.29967	-33
1.30333	-48
1.30700	-62
1.31067	-69
1.31433	-71
1.31800	-67
1.32167	-62
1.32533	-58
1.32900	-60
1.33267	-59
1.33633	-58
1.34000	-59
1.34367	-61
1.34733	-60
1.35100	-60
1.35467	-64
1.35833	-71
1.36200	-81
1.36567	-88
1.36933	-90
1.37300	-88
1.37667	-85
1.38033	-80
1.38400	-74
1.38767	-66
1.39133	-62
1.39500	-60
1.39867	-57
1.40233	-54
1.40600	-55
1.40967	-52
1.41333	-45
1.41700	-39
1.42067	-38
1.42433	-43
1.42800	-49
1.43167	-54
1.43533	-59
1.43900	-59
1.44267	-36
1.44633	66
1.45000	409
1.45367	1312
1.45733	3050
1.46100	5392
1.46467	7786
1.46833	9817
1.47200	11296
1.47567	12109
1.47933	12137
1.48300	11322
1.48667	9812
1.49033	7925
1.49400	6018
1.49767	4349
1.50133	3026
1.50500	2040
1.50867	1333
1.51233	841
1.51600	501
1.51967	269
1.52333	114
1.52700	12
1.53067	-51
1.53433	-86
1.53800	-95
1.54167	-68
1.54533	25
1.54900	232
1.55267	541
1.55633	886
1.56000	1200
1.56367	1446
1.56733	1605
1.57100	1652
1.57467	1563
1.57833	1352
1.58200	1072
1.58567	789
1.58933	547
1.59300	354
1.59667	210
1.60033	103
1.60400	25
1.60767	-22
1.61133	-54
1.61500	-71
1.61867	-78
1.62233	-85
1.62600	-89
1.62967	-89
1.63333	-83
1.63700	-79
1.64067	-76
1.64433	-75
1.64800	-79
1.65167	-83
1.65533	-84
1.65900	-81
1.66267	-82
1.66633	-83
1.67000	-86
1.67367	-87
1.67733	-90
1.68100	-93
1.68467	-97
1.68833	-97
1.69200	-92
1.69567	-91
1.69933	-92
1.70300	-94
1.70667	-98
1.71033	-100
1.71400	-98
1.71767	-90
1.72133	-77
1.72500	-66
1.72867	-57
1.73233	-55
1.73600	-60
1.73967	-65
1.74333	-73
1.74700	-77
1.75067	-80
1.75433	-81
1.75800	-78
1.76167	-74
1.76533	-64
1.76900	-53
1.77267	-47
1.77633	-49
1.78000	-54
1.78367	-68
1.78733	-90
1.79100	-105
1.79467	-110
1.79833	-101
1.80200	-87
1.80567	-79
1.80933	-77
1.81300	-74
1.81667	-71
1.82033	-71
1.82400	-78
1.82767	-89
1.83133	-92
1.83500	-87
1.83867	-86
1.84233	-86
1.84600	-79
1.84967	-64
1.85333	-50
1.85700	-40
1.86067	-31
1.86433	-33
1.86800	-42
1.87167	-53
1.87533	-64
1.87900	-74
1.88267	-87
1.88633	-98
1.89000	-104
1.89367	-106
1.89733	-99
1.90100	-85
1.90467	-75
1.90833	-68
1.91200	-64
1.91567	-68
1.91933	-76
1.92300	-84
1.92667	-88
1.93033	-85
1.93400	-79
1.93767	-75
1.94133	-82
1.94500	-96
1.94867	-105
1.95233	-98
1.95600	-23
1.95967	453
1.96333	2876
1.96700	12421
1.97067	41238
1.97433	108322
1.97800	229615
1.98167	402659
1.98533	602150
1.98900	792029
1.99267	940563
1.99633	1026423
2.00000	1039255
2.00367	980771
2.00733	865567
2.01100	717665
2.01467	562929
2.01833	421608
2.02200	304681
2.02567	214718
2.02933	149016
2.03300	102757
2.03667	70963
2.04033	49427
2.04400	34937
2.04767	25193
2.05133	18608
2.05500	14104
2.05867	10970
2.06233	8770
2.06600	7173
2.06967	5984
2.07333	5083
2.07700	4386
2.08067	3838
2.08433	3401
2.08800	3040
2.09167	2741
2.09533	2484
2.09900	2260
2.10267	2072
2.10633	1913
2.11000	1773
2.11367	1648
2.11733	1532
2.12100	1432
2.12467	1346
2.12833	1270
2.13200	1200
2.13567	1144
2.13933	1092
2.14300	1045
2.14667	996
2.15033	943
2.15400	891
2.15767	837
2.16133	785
2.16500	743
2.16867	710
2.17233	681
2.17600	652
2.17967	629
2.18333	611
2.18700	597
2.19067	584
2.19433	570
2.19800	555
2.20167	539
2.20533	527
2.20900	521
2.21267	513
2.21633	495
2.22000	470
2.22367	449
2.22733	428
2.23100	408
2.23467	390
2.23833	374
2.24200	360
2.24567	352
2.24933	351
2.25300	355
2.25667	357
2.26033	354
2.26400	348
2.26767	341
2.27133	332
2.27500	321
2.27867	311
2.28233	298
2.28600	289
2.28967	284
2.29333	284
2.29700	281
2.30067	275
2.30433	266
2.30800	253
2.31167	248
2.31533	242
2.31900	239
2.32267	242
2.32633	244
2.33000	240
2.33367	236
2.33733	235
2.34100	233
2.34467	226
2.34833	218
2.35200	208
2.35567	198
2.35933	189
2.36300	185
2.36667	182
2.37033	181
2.37400	177
2.37767	174
2.38133	172
2.38500	172
2.38867	172
2.39233	178
2.39600	187
2.39967	196
2.40333	200
2.40700	198
2.41067	191
2.41433	183
2.41800	176
2.42167	168
2.42533	169
2.42900	171
2.43267	171
2.43633	174
2.44000	173
2.44367	173
2.44733	168
2.45100	157
2.45467	149
2.45833	148
2.46200	145
2.46567	136
2.46933	128
2.47300	123
2.47667	120
2.48033	117
2.48400	122
2.48767	131
2.49133	140
2.49500	145
2.49867	144
2.50233	144
2.50600	142
2.50967	141
2.51333	141
2.51700	146
2.52067	148
2.52433	152
2.52800	154
2.53167	153
2.53533	148
2.53900	147
2.54267	143
2.54633	144
2.55000	145
2.55367	147
2.55733	147
2.56100	143
2.56467	136
2.56833	132
2.57200	132
2.57567	134
2.57933	134
2.58300	131
2.58667	128
2.59033	124
2.59400	123
2.59767	125
2.60133	128
2.60500	126
2.60867	120
2.61233	111
2.61600	100
2.61967	107
2.62333	118
2.62700	127
2.63067	131
2.63433	125
2.63800	116
2.64167	110
2.64533	107
2.64900	106
2.65267	103
2.65633	98
2.66000	99
2.66367	104
2.66733	108
2.67100	110
2.67467	111
2.67833	113
2.68200	116
2.68567	120
2.68933	119
2.69300	118
2.69667	118
2.70033	119
2.70400	118
2.70767	114
2.71133	112
2.71500	109
2.71867	110
2.72233	117
2.72600	121
2.72967	121
2.73333	119
2.73700	119
2.74067	125
2.74433	135
2.74800	145
2.75167	143
2.75533	135
2.75900	133
2.76267	132
2.76633	131
2.77000	133
2.77367	131
2.77733	132
2.78100	131
2.78467	127
2.78833	121
2.79200	124
2.79567	125
2.79933	117
2.80300	115
2.80667	121
2.81033	125
2.81400	131
2.81767	138
2.82133	139
2.82500	139
2.82867	137
2.83233	136
2.83600	133
2.83967	132
2.84333	131
2.84700	129
2.85067	127
2.85433	122
2.85800	122
2.86167	123
2.86533	123
2.86900	121
2.87267	120
2.87633	120
2.88000	123
2.88367	132
2.88733	143
2.89100	154
2.89467	165
2.89833	174
2.90200	178
2.90567	176
2.90933	170
2.91300	164
2.91667	162
2.92033	157
2.92400	146
2.92767	137
2.93133	136
2.93500	137
2.93867	141
2.94233	148
2.94600	157
2.94967	161
2.95333	160
2.95700	155
2.96067	149
2.96433	141
2.96800	134
2.97167	132
2.97533	133
2.97900	137
2.98267	140
2.98633	140
2.99000	139
2.99367	141
2.99733	144
3.00100	149
3.00467	156
3.00833	164
3.01200	169
3.01567	173
3.01933	173
3.02300	171
3.02667	168
3.03033	167
3.03400	165
3.03767	162
3.04133	159
3.04500	160
3.04867	165
3.05233	170
3.05600	176
3.05967	181
3.06333	182
3.06700	180
3.07067	175
3.07433	172
3.07800	170
3.08167	170
3.08533	171
3.08900	166
3.09267	159
3.09633	155
3.10000	157
3.10367	160
3.10733	161
3.11100	161
3.11467	160
3.11833	160
3.12200	163
3.12567	166
3.12933	166
3.13300	171
3.13667	182
3.14033	193
3.14400	197
3.14767	193
3.15133	186
3.15500	182
3.15867	183
3.16233	184
3.16600	187
3.16967	190
3.17333	187
3.17700	182
3.18067	175
3.18433	172
3.18800	169
3.19167	166
3.19533	166
3.19900	169
3.20267	174
3.20633	182
3.21000	187
3.21367	190
3.21733	191
3.22100	191
3.22467	191
3.22833	193
3.23200	197
3.23567	194
3.23933	189
3.24300	183
3.24667	178
3.25033	176
3.25400	179
3.25767	185
3.26133	190
3.26500	191
3.26867	185
3.27233	177
3.27600	174
3.27967	171
3.28333	168
3.28700	169
3.29067	172
3.29433	172
3.29800	166
3.30167	159
3.30533	161
3.30900	166
3.31267	175
3.31633	182
3.32000	180
3.32367	173
3.32733	166
3.33100	163
3.33467	168
3.33833	179
3.34200	190
3.34567	193
3.34933	191
3.35300	188
3.35667	186
3.36033	190
3.36400	194
3.36767	190
3.37133	181
3.37500	175
3.37867	175
3.38233	180
3.38600	181
3.38967	178
3.39333	174
3.39700	171
3.40067	170
3.40433	166
3.40800	165
3.41167	168
3.41533	167
3.41900	163
3.42267	161
3.42633	166
3.43000	171
3.43367	173
3.43733	172
3.44100	170
3.44467	167
3.44833	167
3.45200	171
3.45567	176
3.45933	181
3.46300	183
3.46667	180
3.47033	176
3.47400	175
3.47767	179
3.48133	181
3.48500	181
3.48867	182
3.49233	180
3.49600	174
3.49967	170
3.50333	167
3.50700	167
3.51067	172
3.51433	173
3.51800	173
3.52167	173
3.52533	168
3.52900	162
3.53267	157
3.53633	159
3.54000	161
3.54367	159
3.54733	156
3.55100	152
3.55467	150
3.55833	155
3.56200	161
3.56567	157
3.56933	152
3.57300	148
3.57667	148
3.58033	151
3.58400	154
3.58767	153
3.59133	148
3.59500	142
3.59867	136
3.60233	136
3.60600	139
3.60967	145
3.61333	146
3.61700	150
3.62067	151
3.62433	150
3.62800	152
3.63167	155
3.63533	157
3.63900	155
3.64267	153
3.64633	153
3.65000	155
3.65367	155
3.65733	153
3.66100	149
3.66467	145
3.66833	142
3.67200	144
3.67567	148
3.67933	150
3.68300	151
3.68667	148
3.69033	151
3.69400	160
3.69767	164
3.70133	164
3.70500	159
3.70867	156
3.71233	153
3.71600	150
3.71967	153
3.72333	156
3.72700	151
3.73067	140
3.73433	129
3.73800	121
3.74167	119
3.74533	117
3.74900	114
3.75267	117
3.75633	122
3.76000	129
3.76367	138
3.76733	145
3.77100	144
3.77467	139
3.77833	137
3.78200	135
3.78567	136
3.78933	137
3.79300	139
3.79667	142
3.80033	147
3.80400	153
3.80767	151
3.81133	141
3.81500	132
3.81867	133
3.82233	138
3.82600	144
3.82967	149
3.83333	145
3.83700	134
3.84067	121
3.84433	113
3.84800	111
3.85167	114
3.85533	118
3.85900	120
3.86267	120
3.86633	118
3.87000	119
3.87367	126
3.87733	132
3.88100	133
3.88467	132
3.88833	132
3.89200	134
3.89567	140
3.89933	145
3.90300	144
3.90667	136
3.91033	124
3.91400	115
3.91767	111
3.92133	105
3.92500	103
3.92867	101
3.93233	98
3.93600	102
3.93967	112
3.94333	120
3.94700	136
3.95067	154
3.95433	158
3.95800	146
3.96167	127
3.96533	114
3.96900	106
3.97267	103
3.97633	110
3.98000	118
3.98367	125
3.98733	126
3.99100	118
3.99467	112
3.99833	107

[Chromatogram (Ch2)]
Interval(msec)	220
# of Points	1091
Start Time(min)	0.002
End Time(min)	3.998
R.Time (min)	Intensity
0.00167	-0
0.00533	-0
0.00900	-0
0.01267	-0
0.01633	-0
0.02000	-0
0.02367	-0
0.02733	-0
0.03100	0
0.03467	0
0.03833	0
0.04200	1
0.04567	1
0.04933	1
0.05300	1
0.05667	1
0.06033	1
0.06400	1
0.06767	1
0.07133	2
0.07500	1
0.07867	1
0.08233	1
0.08600	1
0.08967	0
0.09333	-0
0.09700	-1
0.10067	-2
0.10433	-2
0.10800	-3
0.11167	-4
0.11533	-4
0.11900	-5
0.12267	-5
0.12633	-6
0.13000	-6
0.13367	-5
0.13733	-5
0.14100	-5
0.14467	-4
0.14833	-3
0.15200	-3
0.15567	-2
0.15933	-2
0.16300	-2
0.16667	-2
0.17033	-2
0.17400	-2
0.17767	-2
0.18133	-2
0.18500	-2
0.18867	-2
0.19233	-2
0.19600	-2
0.19967	-2
0.20333	-1
0.20700	-1
0.21067	-1
0.21433	-1
0.21800	-1
0.22167	-1
0.22533	-1
0.22900	-0
0.23267	1
0.23633	1
0.24000	1
0.24367	1
0.24733	1
0.25100	1
0.25467	1
0.25833	1
0.26200	1
0.26567	1
0.26933	1
0.27300	1
0.27667	1
0.28033	2
0.28400	2
0.28767	2
0.29133	3
0.29500	3
0.29867	3
0.30233	3
0.30600	3
0.30967	3
0.31333	2
0.31700	2
0.32067	2
0.32433	1
0.32800	1
0.33167	1
0.33533	1
0.33900	1
0.34267	0
0.34633	0
0.35000	-0
0.35367	-1
0.35733	-1
0.36100	-2
0.36467	-2
0.36833	-3
0.37200	-3
0.37567	-3
0.37933	-3
0.38300	-3
0.38667	-3
0.39033	-3
0.39400	-3
0.39767	-3
0.40133	-3
0.40500	-3
0.40867	-3
0.41233	-2
0.41600	-2
0.41967	-2
0.42333	-1
0.42700	-1
0.43067	-1
0.43433	-1
0.43800	-1
0.44167	-1
0.44533	-1
0.44900	-1
0.45267	-1
0.45633	-1
0.46000	-0
0.46367	-0
0.46733	-0
0.47100	-0
0.47467	-1
0.47833	-0
0.48200	-0
0.48567	-0
0.48933	0
0.49300	1
0.49667	1
0.50033	1
0.50400	1
0.50767	1
0.51133	1
0.51500	1
0.51867	1
0.52233	1
0.52600	1
0.52967	0
0.53333	0
0.53700	0
0.54067	0
0.54433	1
0.54800	1
0.55167	1
0.55533	1
0.55900	1
0.56267	2
0.56633	2
0.57000	3
0.57367	3
0.57733	3
0.58100	3
0.58467	3
0.58833	3
0.59200	3
0.59567	3
0.59933	3
0.60300	3
0.60667	3
0.61033	3
0.61400	3
0.61767	3
0.62133	3
0.62500	3
0.62867	2
0.63233	2
0.63600	2
0.63967	1
0.64333	1
0.64700	0
0.65067	-0
0.65433	-0
0.65800	-0
0.66167	-0
0.66533	-1
0.66900	-1
0.67267	-1
0.67633	-2
0.68000	-2
0.68367	-2
0.68733	-2
0.69100	-2
0.69467	-2
0.69833	-2
0.70200	-2
0.70567	-2
0.70933	-2
0.71300	-2
0.71667	-1
0.72033	-1
0.72400	-1
0.72767	-1
0.73133	-1
0.73500	-1
0.73867	-0
0.74233	-0
0.74600	-0
0.74967	-0
0.75333	-0
0.75700	-0
0.76067	-0
0.76433	-0
0.76800	-0
0.77167	-0
0.77533	-1
0.77900	-1
0.78267	-1
0.78633	-2
0.79000	-2
0.79367	-2
0.79733	-2
0.80100	-2
0.80467	-2
0.80833	-2
0.81200	-2
0.81567	-2
0.81933	-1
0.82300	-1
0.82667	-1
0.83033	-1
0.83400	-1
0.83767	-0
0.84133	-0
0.84500	-0
0.84867	0
0.85233	0
0.85600	1
0.85967	1
0.86333	1
0.86700	1
0.87067	2
0.87433	2
0.87800	2
0.88167	3
0.88533	3
0.88900	3
0.89267	3
0.89633	3
0.90000	3
0.90367	3
0.90733	3
0.91100	3
0.91467	3
0.91833	2
0.92200	2
0.92567	2
0.92933	1
0.93300	1
0.93667	1
0.94033	0
0.94400	-0
0.94767	-0
0.95133	0
0.95500	0
0.95867	0
0.96233	1
0.96600	1
0.96967	1
0.97333	1
0.97700	1
0.98067	0
0.98433	0
0.98800	1
0.99167	1
0.99533	0
0.99900	0
1.00267	-0
1.00633	-1
1.01000	-1
1.01367	-2
1.01733	-3
1.02100	-3
1.02467	-4
1.02833	-4
1.03200	-4
1.03567	-4
1.03933	-4
1.04300	-4
1.04667	-4
1.05033	-4
1.05400	-3
1.05767	-3
1.06133	-3
1.06500	-3
1.06867	-3
1.07233	-3
1.07600	-2
1.07967	-2
1.08333	-2
1.08700	-2
1.09067	-1
1.09433	-1
1.09800	-1
1.10167	-1
1.10533	-1
1.10900	-1
1.11267	-2
1.11633	-2
1.12000	-2
1.12367	-2
1.12733	-2
1.13100	-2
1.13467	-2
1.13833	-2
1.14200	-2
1.14567	-2
1.14933	-2
1.15300	-2
1.15667	-2
1.16033	-1
1.16400	-1
1.16767	-0
1.17133	0
1.17500	1
1.17867	1
1.18233	1
1.18600	2
1.18967	2
1.19333	2
1.19700	2
1.20067	2
1.20433	2
1.20800	2
1.21167	2
1.21533	2
1.21900	2
1.22267	2
1.22633	2
1.23000	2
1.23367	1
1.23733	1
1.24100	0
1.24467	-0
1.24833	-1
1.25200	-1
1.25567	-1
1.25933	-1
1.26300	-2
1.26667	-2
1.27033	-2
1.27400	-3
1.27767	-3
1.28133	-4
1.28500	-4
1.28867	-4
1.29233	-3
1.29600	-3
1.29967	-3
1.30333	-2
1.30700	-2
1.31067	-2
1.31433	-2
1.31800	-2
1.32167	-1
1.32533	-1
1.32900	-1
1.33267	-0
1.33633	0
1.34000	1
1.34367	1
1.34733	1
1.35100	1
1.35467	1
1.35833	1
1.36200	1
1.36567	1
1.36933	0
1.37300	0
1.37667	0
1.38033	0
1.38400	0
1.38767	0
1.39133	-0
1.39500	-0
1.39867	-1
1.40233	-1
1.40600	-1
1.40967	-1
1.41333	-1
1.41700	-1
1.42067	-1
1.42433	-1
1.42800	-1
1.43167	-1
1.43533	-1
1.43900	-1
1.44267	-1
1.44633	-1
1.45000	-1
1.45367	-1
1.45733	-1
1.46100	-1
1.46467	-2
1.46833	-2
1.47200	-2
1.47567	-3
1.47933	-3
1.48300	-3
1.48667	-3
1.49033	-3
1.49400	-3
1.49767	-2
1.50133	-2
1.50500	-2
1.50867	-2
1.51233	-2
1.51600	-2
1.51967	-2
1.52333	-2
1.52700	-2
1.53067	-2
1.53433	-1
1.53800	-2
1.54167	-2
1.54533	-2
1.54900	-2
1.55267	-2
1.55633	-2
1.56000	-2
1.56367	-2
1.56733	-3
1.57100	-3
1.57467	-3
1.57833	-3
1.58200	-3
1.58567	-3
1.58933	-3
1.59300	-3
1.59667	-3
1.60033	-4
1.60400	-4
1.60767	-6
1.61133	-7
1.61500	-9
1.61867	-11
1.62233	-13
1.62600	-15
1.62967	-18
1.63333	-21
1.63700	-24
1.64067	-27
1.64433	-31
1.64800	-35
1.65167	-39
1.65533	-43
1.65900	-47
1.66267	-51
1.66633	-56
1.67000	-61
1.67367	-66
1.67733	-72
1.68100	-77
1.68467	-81
1.68833	-85
1.69200	-89
1.69567	-91
1.69933	-94
1.70300	-96
1.70667	-97
1.71033	-99
1.71400	-100
1.71767	-101
1.72133	-102
1.72500	-103
1.72867	-104
1.73233	-105
1.73600	-106
1.73967	-107
1.74333	-108
1.74700	-108
1.75067	-109
1.75433	-109
1.75800	-109
1.76167	-108
1.76533	-108
1.76900	-108
1.77267	-108
1.77633	-108
1.78000	-109
1.78367	-110
1.78733	-110
1.79100	-111
1.79467	-112
1.79833	-112
1.80200	-111
1.80567	-111
1.80933	-110
1.81300	-109
1.81667	-109
1.82033	-109
1.82400	-109
1.82767	-110
1.83133	-110
1.83500	-111
1.83867	-111
1.84233	-112
1.84600	-113
1.84967	-113
1.85333	-114
1.85700	-114
1.86067	-115
1.86433	-115
1.86800	-114
1.87167	-114
1.87533	-114
1.87900	-113
1.88267	-113
1.88633	-112
1.89000	-112
1.89367	-111
1.89733	-111
1.90100	-110
1.90467	-110
1.90833	-110
1.91200	-110
1.91567	-110
1.91933	-111
1.92300	-111
1.92667	-111
1.93033	-111
1.93400	-111
1.93767	-110
1.94133	-110
1.94500	-110
1.94867	-110
1.95233	-110
1.95600	-110
1.95967	-110
1.96333	-110
1.96700	-109
1.97067	-108
1.97433	-108
1.97800	-107
1.98167	-106
1.98533	-106
1.98900	-106
1.99267	-106
1.99633	-106
2.00000	-106
2.00367	-106
2.00733	-106
2.01100	-106
2.01467	-106
2.01833	-105
2.02200	-104
2.02567	-103
2.02933	-103
2.03300	-102
2.03667	-102
2.04033	-102
2.04400	-101
2.04767	-101
2.05133	-100
2.05500	-100
2.05867	-99
2.06233	-98
2.06600	-98
2.06967	-98
2.07333	-98
2.07700	-97
2.08067	-97
2.08433	-96
2.08800	-96
2.09167	-96
2.09533	-97
2.09900	-97
2.10267	-96
2.10633	-96
2.11000	-95
2.11367	-95
2.11733	-95
2.12100	-95
2.12467	-95
2.12833	-95
2.13200	-95
2.13567	-94
2.13933	-93
2.14300	-92
2.14667	-92
2.15033	-91
2.15400	-91
2.15767	-91
2.16133	-91
2.16500	-91
2.16867	-91
2.17233	-91
2.17600	-90
2.17967	-90
2.18333	-90
2.18700	-90
2.19067	-90
2.19433	-89
2.19800	-89
2.20167	-88
2.20533	-88
2.20900	-88
2.21267	-88
2.21633	-88
2.22000	-88
2.22367	-88
2.22733	-88
2.23100	-88
2.23467	-88
2.23833	-88
2.24200	-88
2.24567	-88
2.24933	-87
2.25300	-86
2.25667	-85
2.26033	-84
2.26400	-84
2.26767	-83
2.27133	-83
2.27500	-83
2.27867	-83
2.28233	-83
2.28600	-83
2.28967	-82
2.29333	-81
2.29700	-80
2.30067	-79
2.30433	-78
2.30800	-78
2.31167	-77
2.31533	-76
2.31900	-76
2.32267	-75
2.32633	-75
2.33000	-75
2.33367	-74
2.33733	-74
2.34100	-74
2.34467	-74
2.34833	-73
2.35200	-73
2.35567	-72
2.35933	-70
2.36300	-69
2.36667	-67
2.37033	-65
2.37400	-62
2.37767	-58
2.38133	-54
2.38500	-50
2.38867	-46
2.39233	-41
2.39600	-37
2.39967	-33
2.40333	-28
2.40700	-25
2.41067	-21
2.41433	-18
2.41800	-16
2.42167	-14
2.42533	-12
2.42900	-11
2.43267	-9
2.43633	-8
2.44000	-7
2.44367	-6
2.44733	-5
2.45100	-3
2.45467	-2
2.45833	-2
2.46200	-1
2.46567	-1
2.46933	-1
2.47300	-1
2.47667	-1
2.48033	-0
2.48400	0
2.48767	1
2.49133	2
2.49500	3
2.49867	4
2.50233	6
2.50600	6
2.50967	7
2.51333	8
2.51700	9
2.52067	10
2.52433	11
2.52800	11
2.53167	12
2.53533	12
2.53900	12
2.54267	13
2.54633	13
2.55000	14
2.55367	15
2.55733	16
2.56100	16
2.56467	17
2.56833	17
2.57200	17
2.57567	17
2.57933	16
2.58300	16
2.58667	15
2.59033	15
2.59400	14
2.59767	14
2.60133	14
2.60500	14
2.60867	15
2.61233	15
2.61600	16
2.61967	16
2.62333	17
2.62700	17
2.63067	18
2.63433	18
2.63800	18
2.64167	18
2.64533	18
2.64900	18
2.65267	18
2.65633	19
2.66000	19
2.66367	19
2.66733	20
2.67100	20
2.67467	21
2.67833	21
2.68200	21
2.68567	22
2.68933	22
2.69300	22
2.69667	23
2.70033	23
2.70400	23
2.70767	24
2.71133	24
2.71500	25
2.71867	25
2.72233	26
2.72600	27
2.72967	27
2.73333	28
2.73700	28
2.74067	29
2.74433	28
2.74800	28
2.75167	28
2.75533	27
2.75900	27
2.76267	27
2.76633	26
2.77000	26
2.77367	26
2.77733	26
2.78100	25
2.78467	25
2.78833	25
2.79200	26
2.79567	26
2.79933	26
2.80300	26
2.80667	27
2.81033	27
2.81400	27
2.81767	28
2.82133	28
2.82500	28
2.82867	28
2.83233	28
2.83600	28
2.83967	28
2.84333	27
2.84700	26
2.85067	22
2.85433	17
2.85800	9
2.86167	-2
2.86533	-17
2.86900	-37
2.87267	-61
2.87633	-89
2.88000	-122
2.88367	-159
2.88733	-200
2.89100	-244
2.89467	-292
2.89833	-342
2.90200	-394
2.90567	-448
2.90933	-503
2.91300	-559
2.91667	-615
2.92033	-671
2.92400	-726
2.92767	-780
2.93133	-832
2.93500	-884
2.93867	-940
2.94233	-1000
2.94600	-1054
2.94967	-1093
2.95333	-1108
2.95700	-1097
2.96067	-1062
2.96433	-1007
2.96800	-938
2.97167	-860
2.97533	-779
2.97900	-698
2.98267	-619
2.98633	-545
2.99000	-477
2.99367	-414
2.99733	-358
3.00100	-308
3.00467	-264
3.00833	-225
3.01200	-191
3.01567	-162
3.01933	-136
3.02300	-114
3.02667	-95
3.03033	-79
3.03400	-65
3.03767	-53
3.04133	-43
3.04500	-35
3.04867	-27
3.05233	-21
3.05600	-15
3.05967	-11
3.06333	-7
3.06700	-3
3.07067	-0
3.07433	2
3.07800	4
3.08167	6
3.08533	8
3.08900	9
3.09267	10
3.09633	11
3.10000	12
3.10367	12
3.10733	13
3.11100	14
3.11467	15
3.11833	15
3.12200	16
3.12567	16
3.12933	17
3.13300	17
3.13667	17
3.14033	17
3.14400	18
3.14767	18
3.15133	18
3.15500	19
3.15867	19
3.16233	20
3.16600	21
3.16967	21
3.17333	21
3.17700	22
3.18067	22
3.18433	22
3.18800	23
3.19167	23
3.19533	23
3.19900	23
3.20267	23
3.20633	23
3.21000	23
3.21367	23
3.21733	23
3.22100	23
3.22467	23
3.22833	23
3.23200	23
3.23567	24
3.23933	24
3.24300	24
3.24667	24
3.25033	24
3.25400	24
3.25767	24
3.26133	24
3.26500	25
3.26867	25
3.27233	25
3.27600	26
3.27967	26
3.28333	26
3.28700	26
3.29067	27
3.29433	27
3.29800	27
3.30167	26
3.30533	26
3.30900	26
3.31267	26
3.31633	26
3.32000	25
3.32367	25
3.32733	25
3.33100	25
3.33467	25
3.33833	25
3.34200	26
3.34567	26
3.34933	26
3.35300	26
3.35667	26
3.36033	26
3.36400	26
3.36767	26
3.37133	26
3.37500	27
3.37867	27
3.38233	28
3.38600	28
3.38967	29
3.39333	29
3.39700	29
3.40067	30
3.40433	30
3.40800	30
3.41167	31
3.41533	31
3.41900	31
3.42267	31
3.42633	31
3.43000	31
3.43367	31
3.43733	31
3.44100	31
3.44467	31
3.44833	31
3.45200	31
3.45567	30
3.45933	30
3.46300	30
3.46667	30
3.47033	30
3.47400	30
3.47767	30
3.48133	30
3.48500	30
3.48867	31
3.49233	31
3.49600	31
3.49967	31
3.50333	31
3.50700	31
3.51067	31
3.51433	31
3.51800	30
3.52167	30
3.52533	30
3.52900	29
3.53267	29
3.53633	29
3.54000	29
3.54367	29
3.54733	29
3.55100	29
3.55467	29
3.55833	29
3.56200	29
3.56567	29
3.56933	29
3.57300	29
3.57667	29
3.58033	28
3.58400	28
3.58767	28
3.59133	28
3.59500	28
3.59867	28
3.60233	28
3.60600	28
3.60967	28
3.61333	29
3.61700	29
3.62067	29
3.62433	29
3.62800	30
3.63167	30
3.63533	30
3.63900	30
3.64267	30
3.64633	29
3.65000	29
3.65367	29
3.65733	28
3.66100	28
3.66467	28
3.66833	28
3.67200	28
3.67567	28
3.67933	28
3.68300	28
3.68667	28
3.69033	28
3.69400	28
3.69767	28
3.70133	28
3.70500	28
3.70867	28
3.71233	28
3.71600	28
3.71967	28
3.72333	28
3.72700	28
3.73067	28
3.73433	28
3.73800	28
3.74167	28
3.74533	28
3.74900	28
3.75267	27
3.75633	27
3.76000	27
3.76367	27
3.76733	27
3.77100	27
3.77467	27
3.77833	27
3.78200	27
3.78567	27
3.78933	28
3.79300	28
3.79667	28
3.80033	28
3.80400	27
3.80767	27
3.81133	27
3.81500	27
3.81867	27
3.82233	28
3.82600	28
3.82967	28
3.83333	28
3.83700	28
3.84067	28
3.84433	27
3.84800	27
3.85167	27
3.85533	27
3.85900	27
3.86267	27
3.86633	27
3.87000	27
3.87367	27
3.87733	28
3.88100	28
3.88467	28
3.88833	28
3.89200	28
3.89567	28
3.89933	28
3.90300	28
3.90667	28
3.91033	28
3.91400	28
3.91767	29
3.92133	28
3.92500	28
3.92867	28
3.93233	28
3.93600	28
3.93967	29
3.94333	29
3.94700	29
3.95067	29
3.95433	29
3.95800	29
3.96167	29
3.96533	29
3.96900	29
3.97267	29
3.97633	29
3.98000	29
3.98367	28
3.98733	28
3.99100	28
3.99467	28
3.99833	28

[Chromatogram (Ch3)]
Interval(msec)	220
# of Points	1091
Start Time(min)	0.002
End Time(min)	3.998
R.Time (min)	Intensity
0.00167	1
0.00533	4
0.00900	5
0.01267	4
0.01633	5
0.02000	6
0.02367	5
0.02733	4
0.03100	4
0.03467	2
0.03833	1
0.04200	-1
0.04567	-1
0.04933	0
0.05300	2
0.05667	2
0.06033	3
0.06400	4
0.06767	5
0.07133	6
0.07500	5
0.07867	4
0.08233	2
0.08600	0
0.08967	-0
0.09333	3
0.09700	5
0.10067	5
0.10433	3
0.10800	3
0.11167	2
0.11533	4
0.11900	5
0.12267	5
0.12633	3
0.13000	4
0.13367	9
0.13733	12
0.14100	13
0.14467	11
0.14833	7
0.15200	6
0.15567	5
0.15933	4
0.16300	3
0.16667	4
0.17033	5
0.17400	4
0.17767	3
0.18133	2
0.18500	-1
0.18867	-2
0.19233	-1
0.19600	-1
0.19967	-1
0.20333	-0
0.20700	1
0.21067	1
0.21433	2
0.21800	2
0.22167	3
0.22533	5
0.22900	6
0.23267	6
0.23633	4
0.24000	3
0.24367	3
0.24733	3
0.25100	4
0.25467	5
0.25833	4
0.26200	5
0.26567	5
0.26933	6
0.27300	7
0.27667	8
0.28033	7
0.28400	8
0.28767	8
0.29133	7
0.29500	8
0.29867	8
0.30233	7
0.30600	6
0.30967	7
0.31333	7
0.31700	7
0.32067	7
0.32433	4
0.32800	4
0.33167	6
0.33533	10
0.33900	9
0.34267	9
0.34633	10
0.35000	8
0.35367	7
0.35733	5
0.36100	4
0.36467	4
0.36833	3
0.37200	2
0.37567	4
0.37933	6
0.38300	7
0.38667	8
0.39033	8
0.39400	8
0.39767	8
0.40133	9
0.40500	9
0.40867	10
0.41233	13
0.41600	13
0.41967	12
0.42333	11
0.42700	12
0.43067	11
0.43433	10
0.43800	9
0.44167	11
0.44533	10
0.44900	10
0.45267	11
0.45633	12
0.46000	11
0.46367	12
0.46733	12
0.47100	12
0.47467	12
0.47833	13
0.48200	12
0.48567	10
0.48933	9
0.49300	8
0.49667	8
0.50033	8
0.50400	6
0.50767	4
0.51133	2
0.51500	4
0.51867	7
0.52233	9
0.52600	11
0.52967	11
0.53333	12
0.53700	12
0.54067	9
0.54433	5
0.54800	4
0.55167	5
0.55533	6
0.55900	7
0.56267	6
0.56633	3
0.57000	2
0.57367	2
0.57733	4
0.58100	7
0.58467	8
0.58833	7
0.59200	9
0.59567	8
0.59933	7
0.60300	7
0.60667	9
0.61033	10
0.61400	8
0.61767	6
0.62133	5
0.62500	7
0.62867	9
0.63233	8
0.63600	7
0.63967	6
0.64333	6
0.64700	7
0.65067	7
0.65433	8
0.65800	9
0.66167	9
0.66533	10
0.66900	10
0.67267	9
0.67633	8
0.68000	8
0.68367	9
0.68733	9
0.69100	9
0.69467	10
0.69833	9
0.70200	10
0.70567	11
0.70933	11
0.71300	10
0.71667	10
0.72033	12
0.72400	10
0.72767	9
0.73133	10
0.73500	10
0.73867	11
0.74233	12
0.74600	13
0.74967	13
0.75333	13
0.75700	12
0.76067	12
0.76433	14
0.76800	13
0.77167	12
0.77533	11
0.77900	9
0.78267	9
0.78633	10
0.79000	8
0.79367	6
0.79733	7
0.80100	7
0.80467	7
0.80833	7
0.81200	8
0.81567	8
0.81933	8
0.82300	9
0.82667	10
0.83033	11
0.83400	13
0.83767	13
0.84133	10
0.84500	9
0.84867	9
0.85233	12
0.85600	13
0.85967	13
0.86333	13
0.86700	13
0.87067	13
0.87433	11
0.87800	10
0.88167	11
0.88533	10
0.88900	9
0.89267	9
0.89633	10
0.90000	10
0.90367	9
0.90733	5
0.91100	5
0.91467	8
0.91833	10
0.92200	10
0.92567	8
0.92933	10
0.93300	13
0.93667	15
0.94033	16
0.94400	16
0.94767	15
0.95133	14
0.95500	14
0.95867	13
0.96233	12
0.96600	12
0.96967	12
0.97333	13
0.97700	15
0.98067	15
0.98433	14
0.98800	15
0.99167	15
0.99533	15
0.99900	17
1.00267	17
1.00633	16
1.01000	15
1.01367	14
1.01733	14
1.02100	14
1.02467	14
1.02833	13
1.03200	13
1.03567	13
1.03933	12
1.04300	13
1.04667	14
1.05033	15
1.05400	17
1.05767	19
1.06133	19
1.06500	19
1.06867	19
1.07233	19
1.07600	17
1.07967	15
1.08333	16
1.08700	16
1.09067	17
1.09433	18
1.09800	17
1.10167	16
1.10533	16
1.10900	16
1.11267	14
1.11633	14
1.12000	15
1.12367	17
1.12733	16
1.13100	16
1.13467	17
1.13833	15
1.14200	14
1.14567	14
1.14933	16
1.15300	18
1.15667	20
1.16033	18
1.16400	18
1.16767	19
1.17133	15
1.17500	12
1.17867	11
1.18233	11
1.18600	11
1.18967	10
1.19333	12
1.19700	14
1.20067	16
1.20433	16
1.20800	17
1.21167	17
1.21533	17
1.21900	17
1.22267	16
1.22633	15
1.23000	12
1.23367	9
1.23733	8
1.24100	8
1.24467	8
1.24833	10
1.25200	12
1.25567	13
1.25933	12
1.26300	12
1.26667	12
1.27033	13
1.27400	14
1.27767	15
1.28133	14
1.28500	14
1.28867	15
1.29233	15
1.29600	15
1.29967	15
1.30333	15
1.30700	15
1.31067	14
1.31433	14
1.31800	16
1.32167	18
1.32533	18
1.32900	18
1.33267	18
1.33633	18
1.34000	17
1.34367	17
1.34733	19
1.35100	21
1.35467	19
1.35833	18
1.36200	17
1.36567	14
1.36933	13
1.37300	14
1.37667	15
1.38033	16
1.38400	16
1.38767	15
1.39133	15
1.39500	14
1.39867	13
1.40233	12
1.40600	13
1.40967	15
1.41333	14
1.41700	15
1.42067	16
1.42433	17
1.42800	14
1.43167	12
1.43533	13
1.43900	15
1.44267	17
1.44633	20
1.45000	20
1.45367	19
1.45733	20
1.46100	20
1.46467	19
1.46833	18
1.47200	16
1.47567	14
1.47933	13
1.48300	13
1.48667	12
1.49033	11
1.49400	12
1.49767	14
1.50133	18
1.50500	19
1.50867	17
1.51233	14
1.51600	14
1.51967	15
1.52333	17
1.52700	20
1.53067	22
1.53433	24
1.53800	24
1.54167	23
1.54533	21
1.54900	21
1.55267	23
1.55633	26
1.56000	26
1.56367	25
1.56733	24
1.57100	21
1.57467	19
1.57833	19
1.58200	19
1.58567	20
1.58933	19
1.59300	20
1.59667	20
1.60033	19
1.60400	18
1.60767	18
1.61133	19
1.61500	21
1.61867	21
1.62233	19
1.62600	19
1.62967	20
1.63333	19
1.63700	19
1.64067	20
1.64433	21
1.64800	21
1.65167	21
1.65533	21
1.65900	21
1.66267	24
1.66633	25
1.67000	26
1.67367	28
1.67733	29
1.68100	30
1.68467	31
1.68833	32
1.69200	32
1.69567	33
1.69933	37
1.70300	38
1.70667	37
1.71033	38
1.71400	38
1.71767	37
1.72133	38
1.72500	39
1.72867	39
1.73233	35
1.73600	34
1.73967	33
1.74333	33
1.74700	36
1.75067	39
1.75433	37
1.75800	35
1.76167	34
1.76533	35
1.76900	36
1.77267	37
1.77633	37
1.78000	37
1.78367	38
1.78733	37
1.79100	37
1.79467	37
1.79833	38
1.80200	40
1.80567	42
1.80933	41
1.81300	43
1.81667	43
1.82033	44
1.82400	47
1.82767	48
1.83133	48
1.83500	48
1.83867	48
1.84233	48
1.84600	46
1.84967	45
1.85333	46
1.85700	48
1.86067	50
1.86433	52
1.86800	55
1.87167	57
1.87533	56
1.87900	55
1.88267	55
1.88633	55
1.89000	56
1.89367	56
1.89733	57
1.90100	59
1.90467	61
1.90833	61
1.91200	62
1.91567	65
1.91933	67
1.92300	68
1.92667	67
1.93033	68
1.93400	68
1.93767	67
1.94133	67
1.94500	67
1.94867	66
1.95233	67
1.95600	69
1.95967	73
1.96333	74
1.96700	76
1.97067	76
1.97433	78
1.97800	79
1.98167	78
1.98533	79
1.98900	78
1.99267	78
1.99633	79
2.00000	82
2.00367	82
2.00733	82
2.01100	81
2.01467	83
2.01833	87
2.02200	90
2.02567	91
2.02933	92
2.03300	95
2.03667	96
2.04033	96
2.04400	98
2.04767	100
2.05133	102
2.05500	106
2.05867	106
2.06233	105
2.06600	103
2.06967	104
2.07333	104
2.07700	106
2.08067	108
2.08433	110
2.08800	111
2.09167	112
2.09533	113
2.09900	115
2.10267	117
2.10633	119
2.11000	119
2.11367	120
2.11733	123
2.12100	123
2.12467	124
2.12833	125
2.13200	126
2.13567	125
2.13933	126
2.14300	127
2.14667	128
2.15033	130
2.15400	134
2.15767	136
2.16133	136
2.16500	135
2.16867	135
2.17233	136
2.17600	136
2.17967	137
2.18333	139
2.18700	138
2.19067	139
2.19433	141
2.19800	143
2.20167	146
2.20533	150
2.20900	152
2.21267	153
2.21633	155
2.22000	155
2.22367	157
2.22733	159
2.23100	161
2.23467	163
2.23833	164
2.24200	166
2.24567	166
2.24933	165
2.25300	166
2.25667	169
2.26033	171
2.26400	172
2.26767	173
2.27133	173
2.27500	174
2.27867	176
2.28233	175
2.28600	176
2.28967	179
2.29333	182
2.29700	184
2.30067	186
2.30433	187
2.30800	187
2.31167	189
2.31533	192
2.31900	196
2.32267	196
2.32633	198
2.33000	200
2.33367	201
2.33733	201
2.34100	201
2.34467	203
2.34833	208
2.35200	213
2.35567	213
2.35933	210
2.36300	207
2.36667	206
2.37033	208
2.37400	208
2.37767	207
2.38133	208
2.38500	205
2.38867	202
2.39233	205
2.39600	211
2.39967	216
2.40333	219
2.40700	221
2.41067	224
2.41433	225
2.41800	228
2.42167	232
2.42533	235
2.42900	236
2.43267	235
2.43633	234
2.44000	235
2.44367	286
2.44733	423
2.45100	576
2.45467	705
2.45833	782
2.46200	796
2.46567	777
2.46933	750
2.47300	729
2.47667	719
2.48033	708
2.48400	682
2.48767	642
2.49133	598
2.49500	555
2.49867	520
2.50233	496
2.50600	485
2.50967	488
2.51333	501
2.51700	520
2.52067	538
2.52433	551
2.52800	553
2.53167	543
2.53533	523
2.53900	496
2.54267	468
2.54633	440
2.55000	413
2.55367	389
2.55733	370
2.56100	358
2.56467	348
2.56833	342
2.57200	340
2.57567	339
2.57933	341
2.58300	340
2.58667	339
2.59033	340
2.59400	343
2.59767	350
2.60133	355
2.60500	359
2.60867	360
2.61233	355
2.61600	347
2.61967	337
2.62333	328
2.62700	317
2.63067	302
2.63433	289
2.63800	276
2.64167	262
2.64533	249
2.64900	234
2.65267	221
2.65633	208
2.66000	196
2.66367	183
2.66733	171
2.67100	159
2.67467	151
2.67833	148
2.68200	144
2.68567	144
2.68933	145
2.69300	148
2.69667	153
2.70033	156
2.70400	157
2.70767	159
2.71133	162
2.71500	165
2.71867	169
2.72233	171
2.72600	174
2.72967	176
2.73333	181
2.73700	185
2.74067	189
2.74433	194
2.74800	197
2.75167	201
2.75533	205
2.75900	207
2.76267	211
2.76633	214
2.77000	217
2.77367	221
2.77733	224
2.78100	228
2.78467	231
2.78833	235
2.79200	241
2.79567	245
2.79933	248
2.80300	253
2.80667	259
2.81033	267
2.81400	276
2.81767	284
2.82133	292
2.82500	308
2.82867	340
2.83233	397
2.83600	501
2.83967	677
2.84333	943
2.84700	1309
2.85067	1776
2.85433	2325
2.85800	2921
2.86167	3518
2.86533	4063
2.86900	4513
2.87267	4840
2.87633	5023
2.88000	5067
2.88367	4983
2.88733	4793
2.89100	4526
2.89467	4206
2.89833	3861
2.90200	3510
2.90567	3164
2.90933	2840
2.91300	2537
2.91667	2259
2.92033	2006
2.92400	1778
2.92767	1579
2.93133	1402
2.93500	1248
2.93867	1113
2.94233	994
2.94600	891
2.94967	802
2.95333	725
2.95700	660
2.96067	603
2.96433	553
2.96800	509
2.97167	473
2.97533	440
2.97900	413
2.98267	390
2.98633	369
2.99000	352
2.99367	336
2.99733	322
3.00100	310
3.00467	301
3.00833	293
3.01200	286
3.01567	279
3.01933	274
3.02300	270
3.02667	265
3.03033	261
3.03400	256
3.03767	254
3.04133	253
3.04500	251
3.04867	248
3.05233	248
3.05600	248
3.05967	248
3.06333	248
3.06700	245
3.07067	243
3.07433	244
3.07800	246
3.08167	246
3.08533	244
3.08900	243
3.09267	243
3.09633	245
3.10000	247
3.10367	246
3.10733	245
3.11100	245
3.11467	246
3.11833	247
3.12200	248
3.12567	249
3.12933	250
3.13300	252
3.13667	255
3.14033	257
3.14400	257
3.14767	257
3.15133	257
3.15500	257
3.15867	257
3.16233	255
3.16600	253
3.16967	252
3.17333	252
3.17700	255
3.18067	257
3.18433	257
3.18800	258
3.19167	261
3.19533	263
3.19900	264
3.20267	264
3.20633	265
3.21000	268
3.21367	269
3.21733	271
3.22100	271
3.22467	273
3.22833	276
3.23200	279
3.23567	282
3.23933	284
3.24300	286
3.24667	289
3.25033	292
3.25400	293
3.25767	295
3.26133	294
3.26500	291
3.26867	297
3.27233	316
3.27600	343
3.27967	377
3.28333	414
3.28700	454
3.29067	495
3.29433	535
3.29800	571
3.30167	603
3.30533	631
3.30900	657
3.31267	680
3.31633	699
3.32000	715
3.32367	733
3.32733	751
3.33100	767
3.33467	781
3.33833	795
3.34200	809
3.34567	822
3.34933	833
3.35300	843
3.35667	852
3.36033	860
3.36400	866
3.36767	873
3.37133	882
3.37500	888
3.37867	892
3.38233	895
3.38600	899
3.38967	904
3.39333	910
3.39700	916
3.40067	923
3.40433	928
3.40800	930
3.41167	932
3.41533	936
3.41900	940
3.42267	941
3.42633	942
3.43000	943
3.43367	944
3.43733	944
3.44100	943
3.44467	943
3.44833	942
3.45200	942
3.45567	943
3.45933	944
3.46300	943
3.46667	939
3.47033	934
3.47400	930
3.47767	927
3.48133	923
3.48500	920
3.48867	916
3.49233	911
3.49600	906
3.49967	904
3.50333	901
3.50700	896
3.51067	891
3.51433	887
3.51800	884
3.52167	881
3.52533	880
3.52900	879
3.53267	876
3.53633	872
3.54000	870
3.54367	868
3.54733	868
3.55100	870
3.55467	869
3.55833	866
3.56200	863
3.56567	859
3.56933	859
3.57300	859
3.57667	857
3.58033	855
3.58400	853
3.58767	851
3.59133	852
3.59500	854
3.59867	855
3.60233	854
3.60600	852
3.60967	852
3.61333	852
3.61700	851
3.62067	849
3.62433	848
3.62800	847
3.63167	846
3.63533	845
3.63900	844
3.64267	843
3.64633	842
3.65000	839
3.65367	836
3.65733	834
3.66100	833
3.66467	833
3.66833	834
3.67200	834
3.67567	832
3.67933	828
3.68300	825
3.68667	823
3.69033	821
3.69400	820
3.69767	818
3.70133	814
3.70500	813
3.70867	811
3.71233	810
3.71600	811
3.71967	811
3.72333	810
3.72700	809
3.73067	805
3.73433	801
3.73800	799
3.74167	799
3.74533	797
3.74900	794
3.75267	792
3.75633	789
3.76000	786
3.76367	784
3.76733	784
3.77100	784
3.77467	784
3.77833	782
3.78200	779
3.78567	773
3.78933	770
3.79300	768
3.79667	765
3.80033	763
3.80400	760
3.80767	757
3.81133	755
3.81500	754
3.81867	751
3.82233	747
3.82600	746
3.82967	745
3.83333	741
3.83700	736
3.84067	733
3.84433	729
3.84800	726
3.85167	723
3.85533	721
3.85900	718
3.86267	714
3.86633	712
3.87000	710
3.87367	708
3.87733	708
3.88100	707
3.88467	706
3.88833	702
3.89200	698
3.89567	696
3.89933	695
3.90300	694
3.90667	691
3.91033	687
3.91400	682
3.91767	677
3.92133	675
3.92500	674
3.92867	674
3.93233	673
3.93600	673
3.93967	671
3.94333	667
3.94700	665
3.95067	664
3.95433	664
3.95800	662
3.96167	659
3.96533	657
3.96900	654
3.97267	651
3.97633	648
3.98000	649
3.98367	650
3.98733	649
3.99100	646
3.99467	642
3.99833	636

[Status Trace (Column Oven Temperature)]
Interval(msec)	1000
# of Points	240
Start Time(min)	0.015
End Time(min)	3.998
Intensity Units	
Intensity Multiplier	1
R.Time (min)	Intensity
0.01463	34.98
0.03130	34.98
0.04797	34.97
0.06463	34.97
0.08130	34.97
0.09797	35.00
0.11463	35.03
0.13130	35.05
0.14797	35.03
0.16463	35.03
0.18130	35.05
0.19797	35.05
0.21463	35.04
0.23130	35.03
0.24797	35.02
0.26463	35.02
0.28130	35.00
0.29797	34.98
0.31463	34.99
0.33130	34.98
0.34797	35.00
0.36463	35.00
0.38130	35.01
0.39797	35.03
0.41463	35.03
0.43130	35.04
0.44797	35.03
0.46463	35.02
0.48130	35.02
0.49797	35.00
0.51463	35.00
0.53130	34.99
0.54797	34.99
0.56463	34.98
0.58130	34.99
0.59797	34.98
0.61463	34.97
0.63130	34.97
0.64797	34.98
0.66463	34.98
0.68130	35.00
0.69797	35.00
0.71463	35.00
0.73130	35.00
0.74797	35.00
0.76463	35.00
0.78130	35.01
0.79797	35.02
0.81463	35.01
0.83130	35.01
0.84797	35.01
0.86463	35.00
0.88130	34.98
0.89797	34.98
0.91463	34.97
0.93130	34.97
0.94797	34.97
0.96463	34.96
0.98130	34.97
0.99797	34.97
1.01463	34.98
1.03130	34.99
1.04797	35.00
1.06463	35.00
1.08130	35.00
1.09797	35.00
1.11463	35.00
1.13130	35.00
1.14797	35.01
1.16463	35.00
1.18130	34.98
1.19797	34.97
1.21463	34.96
1.23130	34.96
1.24797	34.97
1.26463	34.98
1.28130	34.99
1.29797	34.99
1.31463	34.99
1.33130	34.98
1.34797	34.98
1.36463	34.98
1.38130	34.97
1.39797	34.97
1.41463	34.97
1.43130	34.97
1.44797	34.97
1.46463	34.99
1.48130	35.00
1.49797	35.00
1.51463	35.00
1.53130	35.01
1.54797	35.02
1.56463	35.02
1.58130	35.02
1.59797	35.05
1.61463	35.13
1.63130	35.26
1.64797	35.47
1.66463	35.76
1.68130	36.13
1.69797	36.48
1.71463	36.81
1.73130	37.15
1.74797	37.49
1.76463	37.81
1.78130	38.15
1.79797	38.47
1.81463	38.79
1.83130	39.13
1.84797	39.48
1.86463	39.81
1.88130	40.13
1.89797	40.46
1.91463	40.79
1.93130	41.12
1.94797	41.46
1.96463	41.78
1.98130	42.10
1.99797	42.43
2.01463	42.74
2.03130	43.08
2.04797	43.39
2.06463	43.73
2.08130	44.05
2.09797	44.37
2.11463	44.71
2.13130	45.03
2.14797	45.36
2.16463	45.68
2.18130	46.02
2.19797	46.36
2.21463	46.69
2.23130	47.02
2.24797	47.35
2.26463	47.67
2.28130	48.01
2.29797	48.33
2.31463	48.64
2.33130	48.97
2.34797	49.28
2.36463	49.54
2.38130	49.64
2.39797	49.63
2.41463	49.64
2.43130	49.65
2.44797	49.64
2.46463	49.67
2.48130	49.69
2.49797	49.70
2.51463	49.71
2.53130	49.74
2.54797	49.74
2.56463	49.77
2.58130	49.79
2.59797	49.82
2.61463	49.83
2.63130	49.83
2.64797	49.84
2.66463	49.84
2.68130	49.85
2.69797	49.87
2.71463	49.85
2.73130	49.84
2.74797	49.85
2.76463	49.87
2.78130	49.89
2.79797	49.89
2.81463	49.89
2.83130	49.89
2.84797	49.89
2.86463	49.89
2.88130	49.89
2.89797	49.89
2.91463	49.91
2.93130	49.94
2.94797	49.96
2.96463	49.98
2.98130	49.99
2.99797	49.99
3.01463	50.00
3.03130	50.00
3.04797	50.01
3.06463	50.02
3.08130	50.03
3.09797	50.04
3.11463	50.05
3.13130	50.06
3.14797	50.06
3.16463	50.05
3.18130	50.05
3.19797	50.05
3.21463	50.07
3.23130	50.08
3.24797	50.09
3.26463	50.09
3.28130	50.09
3.29797	50.09
3.31463	50.10
3.33130	50.11
3.34797	50.12
3.36463	50.12
3.38130	50.10
3.39797	50.09
3.41463	50.07
3.43130	50.07
3.44797	50.06
3.46463	50.05
3.48130	50.03
3.49797	50.02
3.51463	50.02
3.53130	50.03
3.54797	50.03
3.56463	50.03
3.58130	50.03
3.59797	50.03
3.61463	50.02
3.63130	50.02
3.64797	50.03
3.66463	50.02
3.68130	50.03
3.69797	50.03
3.71463	50.03
3.73130	50.03
3.74797	50.03
3.76463	50.05
3.78130	50.05
3.79797	50.05
3.81463	50.05
3.83130	50.05
3.84797	50.06
3.86463	50.06
3.88130	50.06
3.89797	50.05
3.91463	50.05
3.93130	50.05
3.94797	50.04
3.96463	50.03
3.98130	50.02
3.99797	50.03

[Status Trace (Injection Unit Temperature)]
Interval(msec)	1000
# of Points	240
Start Time(min)	0.015
End Time(min)	3.998
Intensity Units	
Intensity Multiplier	1
R.Time (min)	Intensity
0.01463	99.98
0.03130	99.98
0.04797	99.98
0.06463	99.98
0.08130	99.98
0.09797	99.98
0.11463	99.98
0.13130	99.98
0.14797	99.98
0.16463	99.98
0.18130	99.98
0.19797	99.98
0.21463	99.98
0.23130	99.99
0.24797	99.99
0.26463	99.99
0.28130	99.98
0.29797	99.98
0.31463	99.99
0.33130	99.99
0.34797	99.98
0.36463	99.99
0.38130	99.98
0.39797	99.98
0.41463	99.98
0.43130	99.98
0.44797	99.98
0.46463	99.98
0.48130	99.98
0.49797	99.98
0.51463	99.98
0.53130	99.98
0.54797	99.98
0.56463	99.98
0.58130	99.98
0.59797	99.98
0.61463	99.98
0.63130	99.98
0.64797	99.98
0.66463	99.98
0.68130	99.97
0.69797	99.98
0.71463	99.98
0.73130	99.97
0.74797	99.98
0.76463	99.98
0.78130	99.98
0.79797	99.98
0.81463	99.98
0.83130	99.98
0.84797	99.98
0.86463	99.98
0.88130	99.98
0.89797	99.98
0.91463	99.98
0.93130	99.98
0.94797	99.98
0.96463	99.98
0.98130	99.98
0.99797	99.99
1.01463	99.98
1.03130	99.98
1.04797	99.98
1.06463	99.98
1.08130	99.98
1.09797	99.98
1.11463	99.99
1.13130	99.98
1.14797	99.99
1.16463	99.98
1.18130	99.98
1.19797	99.99
1.21463	99.98
1.23130	99.98
1.24797	99.99
1.26463	99.99
1.28130	99.99
1.29797	99.99
1.31463	99.98
1.33130	99.98
1.34797	99.98
1.36463	99.98
1.38130	99.99
1.39797	99.99
1.41463	99.99
1.43130	99.98
1.44797	99.98
1.46463	99.99
1.48130	99.99
1.49797	99.98
1.51463	99.98
1.53130	99.98
1.54797	99.99
1.56463	99.99
1.58130	99.99
1.59797	99.99
1.61463	99.98
1.63130	99.98
1.64797	99.99
1.66463	99.99
1.68130	99.99
1.69797	99.98
1.71463	99.98
1.73130	99.98
1.74797	99.98
1.76463	99.98
1.78130	99.98
1.79797	99.98
1.81463	99.98
1.83130	99.98
1.84797	99.98
1.86463	99.98
1.88130	99.98
1.89797	99.98
1.91463	99.98
1.93130	99.98
1.94797	99.98
1.96463	99.98
1.98130	99.98
1.99797	99.98
2.01463	99.98
2.03130	99.98
2.04797	99.97
2.06463	99.98
2.08130	99.98
2.09797	99.97
2.11463	99.97
2.13130	99.98
2.14797	99.97
2.16463	99.97
2.18130	99.98
2.19797	99.97
2.21463	99.97
2.23130	99.98
2.24797	99.97
2.26463	99.97
2.28130	99.97
2.29797	99.97
2.31463	99.97
2.33130	99.97
2.34797	99.97
2.36463	99.98
2.38130	99.97
2.39797	99.97
2.41463	99.97
2.43130	99.98
2.44797	99.97
2.46463	99.97
2.48130	99.97
2.49797	99.97
2.51463	99.98
2.53130	99.98
2.54797	99.97
2.56463	99.98
2.58130	99.97
2.59797	99.98
2.61463	99.98
2.63130	99.98
2.64797	99.98
2.66463	99.98
2.68130	99.98
2.69797	99.98
2.71463	99.99
2.73130	99.99
2.74797	99.98
2.76463	99.99
2.78130	99.99
2.79797	99.98
2.81463	99.99
2.83130	99.99
2.84797	99.99
2.86463	99.99
2.88130	99.99
2.89797	100.00
2.91463	100.00
2.93130	100.00
2.94797	100.00
2.96463	100.00
2.98130	100.00
2.99797	100.00
3.01463	100.01
3.03130	100.00
3.04797	100.01
3.06463	100.01
3.08130	100.01
3.09797	100.01
3.11463	100.02
3.13130	100.01
3.14797	100.02
3.16463	100.01
3.18130	100.02
3.19797	100.02
3.21463	100.02
3.23130	100.02
3.24797	100.02
3.26463	100.03
3.28130	100.02
3.29797	100.02
3.31463	100.03
3.33130	100.03
3.34797	100.02
3.36463	100.03
3.38130	100.03
3.39797	100.03
3.41463	100.03
3.43130	100.03
3.44797	100.03
3.46463	100.03
3.48130	100.03
3.49797	100.03
3.51463	100.03
3.53130	100.03
3.54797	100.03
3.56463	100.02
3.58130	100.03
3.59797	100.03
3.61463	100.04
3.63130	100.03
3.64797	100.04
3.66463	100.03
3.68130	100.04
3.69797	100.04
3.71463	100.03
3.73130	100.04
3.74797	100.04
3.76463	100.04
3.78130	100.04
3.79797	100.04
3.81463	100.04
3.83130	100.04
3.84797	100.03
3.86463	100.03
3.88130	100.04
3.89797	100.04
3.91463	100.04
3.93130	100.04
3.94797	100.04
3.96463	100.04
3.98130	100.04
3.99797	100.04

[Status Trace (Carrier Gas Pressure)]
Interval(msec)	1000
# of Points	240
Start Time(min)	0.015
End Time(min)	3.998
Intensity Units	
Intensity Multiplier	1
R.Time (min)	Intensity
0.01463	57.40
0.03130	55.60
0.04797	58.06
0.06463	59.84
0.08130	58.64
0.09797	57.97
0.11463	58.00
0.13130	58.01
0.14797	58.01
0.16463	58.00
0.18130	58.00
0.19797	58.00
0.21463	58.00
0.23130	58.00
0.24797	58.00
0.26463	58.00
0.28130	58.00
0.29797	58.00
0.31463	58.00
0.33130	58.00
0.34797	58.00
0.36463	58.00
0.38130	58.00
0.39797	58.00
0.41463	58.00
0.43130	58.00
0.44797	58.00
0.46463	58.00
0.48130	58.00
0.49797	58.00
0.51463	58.00
0.53130	58.00
0.54797	58.00
0.56463	58.00
0.58130	58.00
0.59797	58.00
0.61463	58.00
0.63130	58.00
0.64797	58.00
0.66463	58.00
0.68130	58.00
0.69797	58.00
0.71463	58.00
0.73130	58.00
0.74797	58.00
0.76463	58.00
0.78130	58.00
0.79797	58.00
0.81463	58.00
0.83130	58.00
0.84797	58.00
0.86463	58.00
0.88130	58.00
0.89797	58.00
0.91463	58.00
0.93130	58.00
0.94797	58.00
0.96463	58.00
0.98130	58.00
0.99797	58.00
1.01463	58.00
1.03130	58.00
1.04797	58.00
1.06463	58.00
1.08130	58.00
1.09797	58.00
1.11463	58.00
1.13130	58.00
1.14797	58.00
1.16463	58.00
1.18130	58.00
1.19797	58.00
1.21463	58.00
1.23130	58.00
1.24797	58.00
1.26463	58.00
1.28130	58.00
1.29797	58.00
1.31463	58.00
1.33130	58.00
1.34797	58.00
1.36463	58.00
1.38130	58.00
1.39797	58.00
1.41463	58.00
1.43130	58.00
1.44797	58.00
1.46463	58.00
1.48130	58.00
1.49797	58.00
1.51463	58.00
1.53130	58.00
1.54797	58.00
1.56463	58.00
1.58130	58.00
1.59797	58.00
1.61463	58.00
1.63130	58.00
1.64797	58.01
1.66463	58.01
1.68130	58.01
1.69797	58.00
1.71463	58.00
1.73130	58.00
1.74797	58.00
1.76463	58.00
1.78130	58.00
1.79797	58.00
1.81463	58.00
1.83130	58.00
1.84797	58.00
1.86463	58.00
1.88130	58.00
1.89797	58.00
1.91463	58.00
1.93130	58.00
1.94797	58.00
1.96463	58.00
1.98130	58.00
1.99797	58.00
2.01463	58.00
2.03130	58.00
2.04797	58.00
2.06463	58.00
2.08130	58.00
2.09797	58.00
2.11463	58.00
2.13130	58.00
2.14797	58.00
2.16463	58.00
2.18130	58.00
2.19797	58.00
2.21463	58.00
2.23130	58.00
2.24797	58.00
2.26463	58.00
2.28130	58.00
2.29797	58.00
2.31463	58.00
2.33130	58.00
2.34797	58.00
2.36463	58.00
2.38130	57.99
2.39797	57.99
2.41463	58.00
2.43130	58.00
2.44797	58.00
2.46463	58.00
2.48130	58.00
2.49797	58.00
2.51463	57.99
2.53130	57.99
2.54797	58.00
2.56463	58.00
2.58130	58.00
2.59797	58.00
2.61463	58.00
2.63130	58.00
2.64797	58.00
2.66463	58.00
2.68130	58.00
2.69797	58.00
2.71463	58.00
2.73130	58.00
2.74797	58.00
2.76463	58.00
2.78130	58.00
2.79797	58.00
2.81463	58.00
2.83130	58.00
2.84797	58.00
2.86463	58.00
2.88130	58.00
2.89797	58.00
2.91463	58.00
2.93130	58.00
2.94797	58.00
2.96463	58.00
2.98130	58.00
2.99797	58.00
3.01463	58.00
3.03130	58.00
3.04797	58.00
3.06463	58.00
3.08130	58.00
3.09797	58.00
3.11463	58.00
3.13130	58.00
3.14797	58.00
3.16463	58.00
3.18130	58.00
3.19797	58.00
3.21463	58.00
3.23130	58.00
3.24797	58.00
3.26463	58.00
3.28130	58.00
3.29797	58.00
3.31463	58.00
3.33130	58.00
3.34797	58.00
3.36463	58.00
3.38130	58.00
3.39797	58.00
3.41463	58.00
3.43130	58.00
3.44797	58.00
3.46463	58.00
3.48130	58.00
3.49797	58.00
3.51463	58.00
3.53130	58.00
3.54797	58.00
3.56463	58.00
3.58130	58.00
3.59797	58.00
3.61463	58.00
3.63130	58.00
3.64797	58.00
3.66463	58.00
3.68130	58.00
3.69797	58.00
3.71463	58.00
3.73130	58.00
3.74797	58.00
3.76463	58.00
3.78130	58.00
3.79797	58.00
3.81463	58.00
3.83130	58.00
3.84797	58.00
3.86463	58.00
3.88130	58.00
3.89797	58.00
3.91463	58.00
3.93130	58.00
3.94797	58.00
3.96463	58.00
3.98130	58.00
3.99797	58.00

[Status Trace (Carrier Gas Flow)]
Interval(msec)	1000
# of Points	240
Start Time(min)	0.015
End Time(min)	3.998
Intensity Units	
Intensity Multiplier	1
R.Time (min)	Intensity
0.01463	34.01
0.03130	34.54
0.04797	34.54
0.06463	34.51
0.08130	34.51
0.09797	34.52
0.11463	34.53
0.13130	34.52
0.14797	34.51
0.16463	34.52
0.18130	34.52
0.19797	34.52
0.21463	34.52
0.23130	34.53
0.24797	34.52
0.26463	34.51
0.28130	34.52
0.29797	34.52
0.31463	34.51
0.33130	34.52
0.34797	34.51
0.36463	34.52
0.38130	34.53
0.39797	34.52
0.41463	34.52
0.43130	34.52
0.44797	34.52
0.46463	34.51
0.48130	34.52
0.49797	34.52
0.51463	34.52
0.53130	34.52
0.54797	34.52
0.56463	34.52
0.58130	34.52
0.59797	34.52
0.61463	34.52
0.63130	34.52
0.64797	34.52
0.66463	34.52
0.68130	34.52
0.69797	34.52
0.71463	34.52
0.73130	34.52
0.74797	34.52
0.76463	34.51
0.78130	34.52
0.79797	34.52
0.81463	34.52
0.83130	34.51
0.84797	34.52
0.86463	34.51
0.88130	34.52
0.89797	34.52
0.91463	34.52
0.93130	34.52
0.94797	34.51
0.96463	34.52
0.98130	34.52
0.99797	34.52
1.01463	34.52
1.03130	34.52
1.04797	34.52
1.06463	34.52
1.08130	34.52
1.09797	34.52
1.11463	34.52
1.13130	34.52
1.14797	34.52
1.16463	34.51
1.18130	34.52
1.19797	34.52
1.21463	34.53
1.23130	34.52
1.24797	34.51
1.26463	34.52
1.28130	34.52
1.29797	34.52
1.31463	34.51
1.33130	34.52
1.34797	34.52
1.36463	34.52
1.38130	34.52
1.39797	34.52
1.41463	34.52
1.43130	34.52
1.44797	34.52
1.46463	34.51
1.48130	34.51
1.49797	34.52
1.51463	34.52
1.53130	34.52
1.54797	34.52
1.56463	34.52
1.58130	34.52
1.59797	34.51
1.61463	34.52
1.63130	34.52
1.64797	34.52
1.66463	34.51
1.68130	34.52
1.69797	34.52
1.71463	34.52
1.73130	34.51
1.74797	34.52
1.76463	34.52
1.78130	34.52
1.79797	34.51
1.81463	34.51
1.83130	34.52
1.84797	34.52
1.86463	34.51
1.88130	34.53
1.89797	34.52
1.91463	34.52
1.93130	34.52
1.94797	34.52
1.96463	34.52
1.98130	34.53
1.99797	34.52
2.01463	34.52
2.03130	34.52
2.04797	34.52
2.06463	34.51
2.08130	34.51
2.09797	34.52
2.11463	34.52
2.13130	34.51
2.14797	34.51
2.16463	34.52
2.18130	34.52
2.19797	34.52
2.21463	34.52
2.23130	34.52
2.24797	34.52
2.26463	34.52
2.28130	34.51
2.29797	34.52
2.31463	34.52
2.33130	34.51
2.34797	34.52
2.36463	34.52
2.38130	34.52
2.39797	34.52
2.41463	34.51
2.43130	34.52
2.44797	34.52
2.46463	34.52
2.48130	34.52
2.49797	34.52
2.51463	34.52
2.53130	34.51
2.54797	34.52
2.56463	34.52
2.58130	34.52
2.59797	34.52
2.61463	34.52
2.63130	34.52
2.64797	34.52
2.66463	34.52
2.68130	34.52
2.69797	34.52
2.71463	34.52
2.73130	34.52
2.74797	34.52
2.76463	34.52
2.78130	34.52
2.79797	34.52
2.81463	34.52
2.83130	34.52
2.84797	34.52
2.86463	34.52
2.88130	34.52
2.89797	34.52
2.91463	34.52
2.93130	34.52
2.94797	34.52
2.96463	34.52
2.98130	34.52
2.99797	34.52
3.01463	34.52
3.03130	34.52
3.04797	34.52
3.06463	34.52
3.08130	34.52
3.09797	34.52
3.11463	34.52
3.13130	34.52
3.14797	34.52
3.16463	34.52
3.18130	34.52
3.19797	34.52
3.21463	34.52
3.23130	34.52
3.24797	34.52
3.26463	34.52
3.28130	34.52
3.29797	34.52
3.31463	34.52
3.33130	34.51
3.34797	34.53
3.36463	34.52
3.38130	34.52
3.39797	34.52
3.41463	34.53
3.43130	34.53
3.44797	34.52
3.46463	34.52
3.48130	34.52
3.49797	34.52
3.51463	34.51
3.53130	34.51
3.54797	34.52
3.56463	34.52
3.58130	34.52
3.59797	34.51
3.61463	34.52
3.63130	34.52
3.64797	34.52
3.66463	34.52
3.68130	34.51
3.69797	34.53
3.71463	34.52
3.73130	34.52
3.74797	34.52
3.76463	34.52
3.78130	34.51
3.79797	34.52
3.81463	34.53
3.83130	34.53
3.84797	34.53
3.86463	34.52
3.88130	34.51
3.89797	34.51
3.91463	34.52
3.93130	34.52
3.94797	34.52
3.96463	34.52
3.98130	34.51
3.99797	34.51

[Status Trace (Column Flow)]
Interval(msec)	1000
# of Points	240
Start Time(min)	0.015
End Time(min)	3.998
Intensity Units	
Intensity Multiplier	1
R.Time (min)	Intensity
0.01463	5.49
0.03130	5.28
0.04797	5.56
0.06463	5.77
0.08130	5.63
0.09797	5.55
0.11463	5.55
0.13130	5.56
0.14797	5.56
0.16463	5.56
0.18130	5.55
0.19797	5.55
0.21463	5.55
0.23130	5.55
0.24797	5.56
0.26463	5.56
0.28130	5.56
0.29797	5.56
0.31463	5.56
0.33130	5.56
0.34797	5.56
0.36463	5.56
0.38130	5.56
0.39797	5.55
0.41463	5.55
0.43130	5.55
0.44797	5.55
0.46463	5.55
0.48130	5.55
0.49797	5.56
0.51463	5.56
0.53130	5.56
0.54797	5.56
0.56463	5.56
0.58130	5.56
0.59797	5.56
0.61463	5.56
0.63130	5.56
0.64797	5.56
0.66463	5.56
0.68130	5.56
0.69797	5.56
0.71463	5.56
0.73130	5.56
0.74797	5.56
0.76463	5.56
0.78130	5.56
0.79797	5.56
0.81463	5.56
0.83130	5.56
0.84797	5.56
0.86463	5.56
0.88130	5.56
0.89797	5.56
0.91463	5.56
0.93130	5.56
0.94797	5.56
0.96463	5.56
0.98130	5.56
0.99797	5.56
1.01463	5.56
1.03130	5.56
1.04797	5.56
1.06463	5.56
1.08130	5.56
1.09797	5.56
1.11463	5.56
1.13130	5.56
1.14797	5.56
1.16463	5.56
1.18130	5.56
1.19797	5.56
1.21463	5.56
1.23130	5.56
1.24797	5.56
1.26463	5.56
1.28130	5.56
1.29797	5.56
1.31463	5.56
1.33130	5.56
1.34797	5.56
1.36463	5.56
1.38130	5.56
1.39797	5.56
1.41463	5.56
1.43130	5.56
1.44797	5.56
1.46463	5.56
1.48130	5.56
1.49797	5.56
1.51463	5.56
1.53130	5.56
1.54797	5.56
1.56463	5.56
1.58130	5.55
1.59797	5.55
1.61463	5.55
1.63130	5.55
1.64797	5.54
1.66463	5.53
1.68130	5.52
1.69797	5.51
1.71463	5.50
1.73130	5.49
1.74797	5.48
1.76463	5.47
1.78130	5.46
1.79797	5.45
1.81463	5.44
1.83130	5.43
1.84797	5.42
1.86463	5.41
1.88130	5.40
1.89797	5.39
1.91463	5.38
1.93130	5.37
1.94797	5.36
1.96463	5.35
1.98130	5.34
1.99797	5.33
2.01463	5.32
2.03130	5.31
2.04797	5.30
2.06463	5.29
2.08130	5.28
2.09797	5.27
2.11463	5.26
2.13130	5.25
2.14797	5.24
2.16463	5.23
2.18130	5.22
2.19797	5.21
2.21463	5.20
2.23130	5.19
2.24797	5.18
2.26463	5.18
2.28130	5.17
2.29797	5.16
2.31463	5.15
2.33130	5.14
2.34797	5.13
2.36463	5.12
2.38130	5.12
2.39797	5.12
2.41463	5.12
2.43130	5.12
2.44797	5.12
2.46463	5.12
2.48130	5.12
2.49797	5.12
2.51463	5.12
2.53130	5.12
2.54797	5.12
2.56463	5.12
2.58130	5.12
2.59797	5.11
2.61463	5.11
2.63130	5.11
2.64797	5.11
2.66463	5.11
2.68130	5.11
2.69797	5.11
2.71463	5.11
2.73130	5.11
2.74797	5.11
2.76463	5.11
2.78130	5.11
2.79797	5.11
2.81463	5.11
2.83130	5.11
2.84797	5.11
2.86463	5.11
2.88130	5.11
2.89797	5.11
2.91463	5.11
2.93130	5.11
2.94797	5.11
2.96463	5.11
2.98130	5.11
2.99797	5.11
3.01463	5.11
3.03130	5.11
3.04797	5.11
3.06463	5.11
3.08130	5.11
3.09797	5.11
3.11463	5.11
3.13130	5.11
3.14797	5.11
3.16463	5.11
3.18130	5.11
3.19797	5.11
3.21463	5.11
3.23130	5.11
3.24797	5.11
3.26463	5.11
3.28130	5.11
3.29797	5.11
3.31463	5.11
3.33130	5.11
3.34797	5.11
3.36463	5.11
3.38130	5.11
3.39797	5.11
3.41463	5.11
3.43130	5.11
3.44797	5.11
3.46463	5.11
3.48130	5.11
3.49797	5.11
3.51463	5.11
3.53130	5.11
3.54797	5.11
3.56463	5.11
3.58130	5.11
3.59797	5.11
3.61463	5.11
3.63130	5.11
3.64797	5.11
3.66463	5.11
3.68130	5.11
3.69797	5.11
3.71463	5.11
3.73130	5.11
3.74797	5.11
3.76463	5.11
3.78130	5.11
3.79797	5.11
3.81463	5.11
3.83130	5.11
3.84797	5.11
3.86463	5.11
3.88130	5.11
3.89797	5.11
3.91463	5.11
3.93130	5.11
3.94797	5.11
3.96463	5.11
3.98130	5.11
3.99797	5.11

[Status Trace (Linear Velocity)]
Interval(msec)	1000
# of Points	240
Start Time(min)	0.015
End Time(min)	3.998
Intensity Units	
Intensity Multiplier	1
R.Time (min)	Intensity
0.01463	38.63
0.03130	37.45
0.04797	39.07
0.06463	40.23
0.08130	39.45
0.09797	39.01
0.11463	39.02
0.13130	39.03
0.14797	39.03
0.16463	39.02
0.18130	39.02
0.19797	39.02
0.21463	39.02
0.23130	39.02
0.24797	39.02
0.26463	39.02
0.28130	39.03
0.29797	39.03
0.31463	39.03
0.33130	39.03
0.34797	39.03
0.36463	39.02
0.38130	39.02
0.39797	39.02
0.41463	39.02
0.43130	39.02
0.44797	39.02
0.46463	39.02
0.48130	39.02
0.49797	39.02
0.51463	39.02
0.53130	39.03
0.54797	39.03
0.56463	39.03
0.58130	39.03
0.59797	39.03
0.61463	39.03
0.63130	39.03
0.64797	39.03
0.66463	39.03
0.68130	39.03
0.69797	39.02
0.71463	39.02
0.73130	39.02
0.74797	39.02
0.76463	39.02
0.78130	39.02
0.79797	39.02
0.81463	39.02
0.83130	39.02
0.84797	39.02
0.86463	39.02
0.88130	39.03
0.89797	39.03
0.91463	39.03
0.93130	39.03
0.94797	39.03
0.96463	39.03
0.98130	39.03
0.99797	39.03
1.01463	39.03
1.03130	39.03
1.04797	39.02
1.06463	39.02
1.08130	39.02
1.09797	39.02
1.11463	39.02
1.13130	39.02
1.14797	39.02
1.16463	39.02
1.18130	39.03
1.19797	39.03
1.21463	39.03
1.23130	39.03
1.24797	39.03
1.26463	39.03
1.28130	39.03
1.29797	39.03
1.31463	39.03
1.33130	39.03
1.34797	39.03
1.36463	39.03
1.38130	39.03
1.39797	39.03
1.41463	39.03
1.43130	39.03
1.44797	39.03
1.46463	39.03
1.48130	39.02
1.49797	39.02
1.51463	39.02
1.53130	39.02
1.54797	39.02
1.56463	39.02
1.58130	39.02
1.59797	39.02
1.61463	39.01
1.63130	39.00
1.64797	38.98
1.66463	38.95
1.68130	38.92
1.69797	38.88
1.71463	38.85
1.73130	38.82
1.74797	38.79
1.76463	38.76
1.78130	38.72
1.79797	38.69
1.81463	38.66
1.83130	38.63
1.84797	38.60
1.86463	38.57
1.88130	38.54
1.89797	38.51
1.91463	38.48
1.93130	38.45
1.94797	38.41
1.96463	38.38
1.98130	38.35
1.99797	38.32
2.01463	38.30
2.03130	38.26
2.04797	38.24
2.06463	38.20
2.08130	38.18
2.09797	38.15
2.11463	38.11
2.13130	38.09
2.14797	38.06
2.16463	38.03
2.18130	38.00
2.19797	37.96
2.21463	37.94
2.23130	37.91
2.24797	37.88
2.26463	37.85
2.28130	37.82
2.29797	37.79
2.31463	37.76
2.33130	37.73
2.34797	37.70
2.36463	37.68
2.38130	37.67
2.39797	37.67
2.41463	37.67
2.43130	37.67
2.44797	37.67
2.46463	37.67
2.48130	37.67
2.49797	37.67
2.51463	37.66
2.53130	37.66
2.54797	37.66
2.56463	37.66
2.58130	37.66
2.59797	37.66
2.61463	37.65
2.63130	37.65
2.64797	37.65
2.66463	37.65
2.68130	37.65
2.69797	37.65
2.71463	37.65
2.73130	37.65
2.74797	37.65
2.76463	37.65
2.78130	37.65
2.79797	37.65
2.81463	37.65
2.83130	37.65
2.84797	37.65
2.86463	37.65
2.88130	37.65
2.89797	37.65
2.91463	37.65
2.93130	37.65
2.94797	37.64
2.96463	37.64
2.98130	37.64
2.99797	37.64
3.01463	37.64
3.03130	37.64
3.04797	37.64
3.06463	37.64
3.08130	37.64
3.09797	37.64
3.11463	37.64
3.13130	37.63
3.14797	37.63
3.16463	37.64
3.18130	37.64
3.19797	37.64
3.21463	37.63
3.23130	37.63
3.24797	37.63
3.26463	37.63
3.28130	37.63
3.29797	37.63
3.31463	37.63
3.33130	37.63
3.34797	37.63
3.36463	37.63
3.38130	37.63
3.39797	37.63
3.41463	37.63
3.43130	37.63
3.44797	37.64
3.46463	37.64
3.48130	37.64
3.49797	37.64
3.51463	37.64
3.53130	37.64
3.54797	37.64
3.56463	37.64
3.58130	37.64
3.59797	37.64
3.61463	37.64
3.63130	37.64
3.64797	37.64
3.66463	37.64
3.68130	37.64
3.69797	37.64
3.71463	37.64
3.73130	37.64
3.74797	37.64
3.76463	37.64
3.78130	37.64
3.79797	37.64
3.81463	37.64
3.83130	37.64
3.84797	37.64
3.86463	37.63
3.88130	37.64
3.89797	37.64
3.91463	37.64
3.93130	37.64
3.94797	37.64
3.96463	37.64
3.98130	37.64
3.99797	37.64

