[Header]
Application Name	LabSolutions
Version	5.110
Data File Name	C:\Users\User\Desktop\GC Analyses\Jack\Nachusa Grasslands Sampling\T4 Timepoint July 12th\T4_07122022_055.gcd
Output Date	3/17/2023
Output Time	12:04:54 PM

[File Information]
Type	Data File
Generated	3/14/2023 9:31:09 PM
Generated by	System Administrator
Modified	3/14/2023 9:37:44 PM
Modified by	System Administrator

[Sample Information]
Operator Name	System Administrator
Acquired	3/14/2023 9:33:43 PM
Sample Type	0:Unknown
Level	0
Sample Name	055
Sample ID	055
ISTD Amount1	1
ISTD Amount2	1
ISTD Amount3	1
ISTD Amount4	1
ISTD Amount5	1
ISTD Amount6	1
ISTD Amount7	1
ISTD Amount8	1
ISTD Amount9	1
ISTD Amount10	1
ISTD Amount11	1
ISTD Amount12	1
ISTD Amount13	1
ISTD Amount14	1
ISTD Amount15	1
ISTD Amount16	1
ISTD Amount17	1
ISTD Amount18	1
ISTD Amount19	1
ISTD Amount20	1
ISTD Amount21	1
ISTD Amount22	1
ISTD Amount23	1
ISTD Amount24	1
ISTD Amount25	1
ISTD Amount26	1
ISTD Amount27	1
ISTD Amount28	1
ISTD Amount29	1
ISTD Amount30	1
ISTD Amount31	1
ISTD Amount32	1
Sample Amount	1
Dilution Factor	1
Vial#	54
Injection Volume	1
Injection Count	1
Bar Code	

[Original Files]
Data File	C:\Users\User\Desktop\GC Analyses\Jack\Nachusa Grasslands Sampling\T4 Timepoint July 12th\T4_07122022_055.gcd
Method File	C:\LabSolutions\Data\GHG_4min_2022\ghg3_togas_w_acet_4 min_new_int.gcm
Batch File	C:\LabSolutions\Data\AutoSamplerTesting\T4_07122022.gcb
Report Format File	c:\LabSolutions\System\DEFAULT.lsr

[File Description]


[Configuration]
Instrument Name	C0B7VH3-Instrument1
Instrument #	1
Line #	1
# of Detectors	3
Detector ID	DET#1	DET#2	DET#3
Detector Name	FID	PTCD	ECD
# of Channels	1	1	1

[Peak Table(Ch1)]
# of Peaks	3
Peak#	R.Time	I.Time	F.Time	Area	Height	A/H	Conc.	Mark	ID#	Name	k'	Plate #	Plate Ht.	Tailing	Resolution	Sep.Factor	Area Ratio	Height Ratio	Conc. %	Norm Conc.
1	1.476	1.439	1.534	20139	9927	2.029	142.182	   	1	CO	0.000	9727	15.421	1.282	0.000	0.000	0	0	12.641	12.641
2	1.571	1.538	1.619	3990	2073	1.925	77.141	   	2	CH4	0.065	11951	12.552	1.135	1.625	0.000	0	0	6.859	6.859
3	1.996	1.952	2.370	3607615	1723346	2.093	905.414	   	3	CO2	0.353	17335	8.653	1.348	7.201	5.462	0	0	80.500	80.500

[Peak Table(Ch2)]
# of Peaks	0

[Peak Table(Ch3)]
# of Peaks	5
Peak#	R.Time	I.Time	F.Time	Area	Height	A/H	Conc.	Mark	ID#	Name	k'	Plate #	Plate Ht.	Tailing	Resolution	Sep.Factor	Area Ratio	Height Ratio	Conc. %	Norm Conc.
1	2.462	2.293	2.510	2511	722	3.476	0.000	   			0.000	8822	17.003	0.000	0.000	0.000	0	0	0.000	0.000
2	2.532	2.510	2.587	1359	419	3.241	0.000	 V 			0.028	4639	32.336	0.000	0.550	0.000	0	0	0.000	0.000
3	2.598	2.587	2.682	656	197	3.332	0.000	 V 			0.055	1308	114.664	0.000	0.303	1.947	0	0	0.000	0.000
4	2.880	2.807	3.030	17270	4623	3.736	0.441	   	1	N2O	0.170	13284	11.292	1.512	1.458	3.081	0	0	100.000	100.000
5	3.404	3.254	3.995	13880	563	24.641	0.000	   	2	SF6	0.383	388	386.842	2.461	1.325	2.254	0	0	0.000	0.000

[Compound Results(Ch1)]
# of IDs	6
ID#	Name	R.Time	Area	Height	Conc.	Curve	3rd	2nd	1st	Constant	Area Ratio	Height Ratio	Conc. %	Norm Conc.
1	CO	1.476	20139	9927	142.182	Linear	0.000000e+00	0.000000e+00	1.416423e+002	0.000000e+00	0	0	12.641	12.641
2	CH4	1.571	3990	2073	77.141	Linear	0.000000e+00	0.000000e+00	5.171738e+001	0.000000e+00	0	0	6.859	6.859
3	CO2	1.996	3607615	1723346	905.414	Linear	0.000000e+00	0.000000e+00	3.984494e+003	0.000000e+00	0	0	80.500	80.500
4	Ethylene	0.000	0	0	0.000	Linear	0.000000e+00	0.000000e+00	0.000000e+00	0.000000e+00	0	0	0.000	0.000
5	Acetylene	0.000	0	0	0.000	Linear	0.000000e+00	0.000000e+00	0.000000e+00	0.000000e+00	0	0	0.000	0.000
6	Ethane	0.000	0	0	0.000	Linear	0.000000e+00	0.000000e+00	0.000000e+00	0.000000e+00	0	0	0.000	0.000

[Compound Results(Ch2)]
# of IDs	5
ID#	Name	R.Time	Area	Height	Conc.	Curve	3rd	2nd	1st	Constant	Area Ratio	Height Ratio	Conc. %	Norm Conc.
1	Hydrogen	0.000	0	0	0.000	Linear	0.000000e+00	0.000000e+00	0.000000e+00	0.000000e+00	0	0	0.000	0.000
2	Oxygen	0.000	0	0	0.000	Linear	0.000000e+00	0.000000e+00	0.000000e+00	0.000000e+00	0	0	0.000	0.000
3	Nitrogen	0.000	0	0	0.000	Linear	0.000000e+00	0.000000e+00	0.000000e+00	0.000000e+00	0	0	0.000	0.000
4	Methane	0.000	0	0	0.000	Linear	0.000000e+00	0.000000e+00	0.000000e+00	0.000000e+00	0	0	0.000	0.000
5	Carbon Monoxide	0.000	0	0	0.000	Linear	0.000000e+00	0.000000e+00	0.000000e+00	0.000000e+00	0	0	0.000	0.000

[Compound Results(Ch3)]
# of IDs	2
ID#	Name	R.Time	Area	Height	Conc.	Curve	3rd	2nd	1st	Constant	Area Ratio	Height Ratio	Conc. %	Norm Conc.
1	N2O	2.880	17270	4623	0.441	Linear	0.000000e+00	0.000000e+00	3.915173e+004	0.000000e+00	0	0	100.000	100.000
2	SF6	3.404	13880	563	0.000	Linear	0.000000e+00	0.000000e+00	0.000000e+00	0.000000e+00	0	0	0.000	0.000

[Group Results(Ch1)]
# of Groups	0

[Group Results(Ch2)]
# of Groups	0

[Group Results(Ch3)]
# of Groups	0

[Chromatogram (Ch1)]
Interval(msec)	220
# of Points	1091
Start Time(min)	0.002
End Time(min)	3.998
R.Time (min)	Intensity
0.00167	-21
0.00533	-24
0.00900	-29
0.01267	-29
0.01633	-28
0.02000	-27
0.02367	-28
0.02733	-25
0.03100	-16
0.03467	-7
0.03833	-2
0.04200	-1
0.04567	1
0.04933	1
0.05300	-4
0.05667	-8
0.06033	-9
0.06400	-5
0.06767	1
0.07133	1
0.07500	0
0.07867	-1
0.08233	-11
0.08600	-27
0.08967	-37
0.09333	-38
0.09700	-35
0.10067	-30
0.10433	-26
0.10800	-21
0.11167	-12
0.11533	-4
0.11900	2
0.12267	7
0.12633	8
0.13000	4
0.13367	-1
0.13733	3
0.14100	5
0.14467	3
0.14833	2
0.15200	2
0.15567	0
0.15933	0
0.16300	0
0.16667	-5
0.17033	-10
0.17400	-10
0.17767	-3
0.18133	5
0.18500	9
0.18867	9
0.19233	6
0.19600	4
0.19967	-1
0.20333	-8
0.20700	-7
0.21067	-2
0.21433	-1
0.21800	-4
0.22167	-7
0.22533	-7
0.22900	-6
0.23267	-5
0.23633	-0
0.24000	7
0.24367	13
0.24733	16
0.25100	18
0.25467	21
0.25833	18
0.26200	11
0.26567	3
0.26933	-7
0.27300	-13
0.27667	-10
0.28033	-6
0.28400	-4
0.28767	2
0.29133	12
0.29500	17
0.29867	18
0.30233	18
0.30600	17
0.30967	15
0.31333	11
0.31700	11
0.32067	14
0.32433	20
0.32800	29
0.33167	38
0.33533	46
0.33900	54
0.34267	59
0.34633	59
0.35000	58
0.35367	61
0.35733	63
0.36100	62
0.36467	61
0.36833	60
0.37200	57
0.37567	55
0.37933	57
0.38300	58
0.38667	55
0.39033	54
0.39400	56
0.39767	58
0.40133	53
0.40500	45
0.40867	42
0.41233	35
0.41600	30
0.41967	33
0.42333	35
0.42700	33
0.43067	28
0.43433	21
0.43800	14
0.44167	7
0.44533	-0
0.44900	-9
0.45267	-13
0.45633	-14
0.46000	-14
0.46367	-13
0.46733	-13
0.47100	-11
0.47467	-6
0.47833	3
0.48200	11
0.48567	16
0.48933	18
0.49300	16
0.49667	8
0.50033	-1
0.50400	-4
0.50767	-3
0.51133	-5
0.51500	-10
0.51867	-14
0.52233	-16
0.52600	-16
0.52967	-14
0.53333	-13
0.53700	-10
0.54067	-9
0.54433	-9
0.54800	-7
0.55167	-6
0.55533	-2
0.55900	1
0.56267	2
0.56633	1
0.57000	-2
0.57367	-4
0.57733	-5
0.58100	-2
0.58467	-1
0.58833	-6
0.59200	-11
0.59567	-10
0.59933	-6
0.60300	-6
0.60667	-3
0.61033	-2
0.61400	-5
0.61767	-8
0.62133	-11
0.62500	-12
0.62867	-8
0.63233	-5
0.63600	-9
0.63967	-17
0.64333	-25
0.64700	-28
0.65067	-30
0.65433	-34
0.65800	-34
0.66167	-29
0.66533	-21
0.66900	-13
0.67267	-7
0.67633	-3
0.68000	-3
0.68367	-7
0.68733	-11
0.69100	-12
0.69467	-11
0.69833	-11
0.70200	-13
0.70567	-20
0.70933	-28
0.71300	-32
0.71667	-31
0.72033	-26
0.72400	-20
0.72767	-15
0.73133	-14
0.73500	-16
0.73867	-18
0.74233	-22
0.74600	-24
0.74967	-19
0.75333	-15
0.75700	-12
0.76067	-12
0.76433	-18
0.76800	-26
0.77167	-28
0.77533	-24
0.77900	-15
0.78267	-7
0.78633	-6
0.79000	-11
0.79367	-19
0.79733	-28
0.80100	-31
0.80467	-31
0.80833	-30
0.81200	-30
0.81567	-29
0.81933	-30
0.82300	-28
0.82667	-23
0.83033	-17
0.83400	-10
0.83767	-9
0.84133	-13
0.84500	-17
0.84867	-18
0.85233	-18
0.85600	-14
0.85967	-10
0.86333	-6
0.86700	-5
0.87067	-8
0.87433	-7
0.87800	-4
0.88167	-6
0.88533	-8
0.88900	-12
0.89267	-16
0.89633	-18
0.90000	-26
0.90367	-32
0.90733	-32
0.91100	-33
0.91467	-36
0.91833	-33
0.92200	-28
0.92567	-29
0.92933	-32
0.93300	-36
0.93667	-38
0.94033	-34
0.94400	-27
0.94767	-17
0.95133	-13
0.95500	-16
0.95867	-22
0.96233	-26
0.96600	-27
0.96967	-26
0.97333	-25
0.97700	-21
0.98067	-14
0.98433	-11
0.98800	-14
0.99167	-20
0.99533	-25
0.99900	-31
1.00267	-40
1.00633	-51
1.01000	-58
1.01367	-62
1.01733	-61
1.02100	-56
1.02467	-48
1.02833	-38
1.03200	-27
1.03567	-17
1.03933	-9
1.04300	-8
1.04667	-11
1.05033	-23
1.05400	-36
1.05767	-48
1.06133	-56
1.06500	-60
1.06867	-64
1.07233	-65
1.07600	-64
1.07967	-59
1.08333	-53
1.08700	-50
1.09067	-47
1.09433	-44
1.09800	-38
1.10167	-31
1.10533	-25
1.10900	-25
1.11267	-30
1.11633	-35
1.12000	-38
1.12367	-38
1.12733	-36
1.13100	-35
1.13467	-36
1.13833	-37
1.14200	-35
1.14567	-32
1.14933	-32
1.15300	-32
1.15667	-32
1.16033	-38
1.16400	-43
1.16767	-45
1.17133	-45
1.17500	-48
1.17867	-52
1.18233	-50
1.18600	-49
1.18967	-51
1.19333	-50
1.19700	-43
1.20067	-34
1.20433	-29
1.20800	-33
1.21167	-39
1.21533	-42
1.21900	-42
1.22267	-40
1.22633	-37
1.23000	-36
1.23367	-32
1.23733	-30
1.24100	-30
1.24467	-32
1.24833	-32
1.25200	-28
1.25567	-26
1.25933	-26
1.26300	-27
1.26667	-24
1.27033	-20
1.27400	-19
1.27767	-23
1.28133	-29
1.28500	-37
1.28867	-45
1.29233	-55
1.29600	-65
1.29967	-71
1.30333	-71
1.30700	-67
1.31067	-62
1.31433	-60
1.31800	-56
1.32167	-45
1.32533	-35
1.32900	-36
1.33267	-38
1.33633	-35
1.34000	-30
1.34367	-25
1.34733	-23
1.35100	-20
1.35467	-17
1.35833	-21
1.36200	-33
1.36567	-44
1.36933	-48
1.37300	-51
1.37667	-53
1.38033	-52
1.38400	-53
1.38767	-51
1.39133	-45
1.39500	-41
1.39867	-38
1.40233	-38
1.40600	-44
1.40967	-48
1.41333	-45
1.41700	-38
1.42067	-25
1.42433	-19
1.42800	-29
1.43167	-44
1.43533	-51
1.43900	-47
1.44267	-19
1.44633	80
1.45000	374
1.45367	1130
1.45733	2561
1.46100	4469
1.46467	6411
1.46833	8058
1.47200	9243
1.47567	9877
1.47933	9866
1.48300	9172
1.48667	7919
1.49033	6376
1.49400	4829
1.49767	3480
1.50133	2412
1.50500	1618
1.50867	1050
1.51233	654
1.51600	385
1.51967	212
1.52333	98
1.52700	24
1.53067	-25
1.53433	-56
1.53800	-73
1.54167	-48
1.54533	77
1.54900	347
1.55267	732
1.55633	1144
1.56000	1511
1.56367	1792
1.56733	1962
1.57100	1998
1.57467	1878
1.57833	1617
1.58200	1272
1.58567	928
1.58933	633
1.59300	403
1.59667	236
1.60033	121
1.60400	44
1.60767	-2
1.61133	-35
1.61500	-61
1.61867	-77
1.62233	-86
1.62600	-91
1.62967	-94
1.63333	-96
1.63700	-97
1.64067	-100
1.64433	-102
1.64800	-99
1.65167	-96
1.65533	-94
1.65900	-92
1.66267	-91
1.66633	-94
1.67000	-99
1.67367	-96
1.67733	-87
1.68100	-82
1.68467	-81
1.68833	-76
1.69200	-72
1.69567	-68
1.69933	-64
1.70300	-57
1.70667	-60
1.71033	-69
1.71400	-76
1.71767	-80
1.72133	-85
1.72500	-91
1.72867	-93
1.73233	-92
1.73600	-91
1.73967	-89
1.74333	-84
1.74700	-78
1.75067	-78
1.75433	-79
1.75800	-81
1.76167	-82
1.76533	-81
1.76900	-75
1.77267	-64
1.77633	-57
1.78000	-55
1.78367	-57
1.78733	-65
1.79100	-78
1.79467	-88
1.79833	-90
1.80200	-87
1.80567	-81
1.80933	-75
1.81300	-72
1.81667	-71
1.82033	-74
1.82400	-74
1.82767	-64
1.83133	-52
1.83500	-43
1.83867	-38
1.84233	-38
1.84600	-41
1.84967	-44
1.85333	-44
1.85700	-37
1.86067	-31
1.86433	-34
1.86800	-44
1.87167	-58
1.87533	-68
1.87900	-69
1.88267	-64
1.88633	-62
1.89000	-62
1.89367	-64
1.89733	-62
1.90100	-58
1.90467	-53
1.90833	-50
1.91200	-48
1.91567	-49
1.91933	-50
1.92300	-50
1.92667	-49
1.93033	-46
1.93400	-40
1.93767	-38
1.94133	-45
1.94500	-55
1.94867	-55
1.95233	-35
1.95600	96
1.95967	964
1.96333	5542
1.96700	23754
1.97067	78926
1.97433	206120
1.97800	430307
1.98167	738334
1.98533	1077653
1.98900	1384864
1.99267	1610092
1.99633	1723351
2.00000	1714626
2.00367	1594151
2.00733	1390319
2.01100	1142865
2.01467	891394
2.01833	665426
2.02200	480190
2.02567	338402
2.02933	235149
2.03300	162522
2.03667	112594
2.04033	78734
2.04400	55921
2.04767	40545
2.05133	30115
2.05500	22965
2.05867	17986
2.06233	14451
2.06600	11888
2.06967	9986
2.07333	8534
2.07700	7405
2.08067	6516
2.08433	5799
2.08800	5206
2.09167	4708
2.09533	4287
2.09900	3930
2.10267	3624
2.10633	3362
2.11000	3135
2.11367	2934
2.11733	2750
2.12100	2580
2.12467	2430
2.12833	2298
2.13200	2179
2.13567	2074
2.13933	1977
2.14300	1884
2.14667	1794
2.15033	1709
2.15400	1631
2.15767	1557
2.16133	1486
2.16500	1424
2.16867	1372
2.17233	1324
2.17600	1277
2.17967	1230
2.18333	1183
2.18700	1141
2.19067	1104
2.19433	1066
2.19800	1033
2.20167	1006
2.20533	975
2.20900	947
2.21267	919
2.21633	893
2.22000	870
2.22367	850
2.22733	831
2.23100	814
2.23467	797
2.23833	775
2.24200	746
2.24567	715
2.24933	686
2.25300	662
2.25667	645
2.26033	629
2.26400	608
2.26767	589
2.27133	577
2.27500	569
2.27867	564
2.28233	558
2.28600	552
2.28967	546
2.29333	540
2.29700	533
2.30067	526
2.30433	513
2.30800	492
2.31167	472
2.31533	457
2.31900	448
2.32267	442
2.32633	441
2.33000	439
2.33367	436
2.33733	435
2.34100	433
2.34467	426
2.34833	413
2.35200	402
2.35567	390
2.35933	379
2.36300	367
2.36667	356
2.37033	346
2.37400	341
2.37767	340
2.38133	342
2.38500	347
2.38867	359
2.39233	375
2.39600	383
2.39967	384
2.40333	381
2.40700	377
2.41067	374
2.41433	370
2.41800	367
2.42167	361
2.42533	352
2.42900	342
2.43267	334
2.43633	334
2.44000	338
2.44367	340
2.44733	342
2.45100	342
2.45467	342
2.45833	338
2.46200	330
2.46567	324
2.46933	321
2.47300	325
2.47667	327
2.48033	322
2.48400	313
2.48767	304
2.49133	298
2.49500	294
2.49867	295
2.50233	297
2.50600	297
2.50967	297
2.51333	295
2.51700	289
2.52067	283
2.52433	286
2.52800	291
2.53167	291
2.53533	285
2.53900	281
2.54267	280
2.54633	282
2.55000	276
2.55367	265
2.55733	256
2.56100	252
2.56467	250
2.56833	246
2.57200	242
2.57567	239
2.57933	240
2.58300	243
2.58667	246
2.59033	244
2.59400	237
2.59767	231
2.60133	230
2.60500	231
2.60867	232
2.61233	228
2.61600	224
2.61967	225
2.62333	227
2.62700	224
2.63067	222
2.63433	226
2.63800	230
2.64167	228
2.64533	220
2.64900	214
2.65267	212
2.65633	214
2.66000	216
2.66367	219
2.66733	222
2.67100	223
2.67467	223
2.67833	223
2.68200	222
2.68567	217
2.68933	211
2.69300	211
2.69667	212
2.70033	212
2.70400	207
2.70767	194
2.71133	182
2.71500	176
2.71867	176
2.72233	180
2.72600	183
2.72967	185
2.73333	186
2.73700	181
2.74067	171
2.74433	166
2.74800	169
2.75167	177
2.75533	184
2.75900	181
2.76267	177
2.76633	172
2.77000	171
2.77367	175
2.77733	179
2.78100	184
2.78467	191
2.78833	198
2.79200	200
2.79567	199
2.79933	198
2.80300	198
2.80667	197
2.81033	190
2.81400	184
2.81767	181
2.82133	178
2.82500	170
2.82867	161
2.83233	152
2.83600	147
2.83967	145
2.84333	152
2.84700	164
2.85067	173
2.85433	177
2.85800	174
2.86167	166
2.86533	162
2.86900	160
2.87267	157
2.87633	153
2.88000	154
2.88367	155
2.88733	152
2.89100	151
2.89467	152
2.89833	152
2.90200	156
2.90567	166
2.90933	167
2.91300	163
2.91667	165
2.92033	166
2.92400	160
2.92767	152
2.93133	147
2.93500	145
2.93867	144
2.94233	137
2.94600	130
2.94967	129
2.95333	131
2.95700	132
2.96067	135
2.96433	142
2.96800	147
2.97167	149
2.97533	148
2.97900	148
2.98267	149
2.98633	147
2.99000	143
2.99367	138
2.99733	135
3.00100	135
3.00467	136
3.00833	140
3.01200	137
3.01567	133
3.01933	127
3.02300	122
3.02667	127
3.03033	136
3.03400	149
3.03767	158
3.04133	158
3.04500	147
3.04867	135
3.05233	132
3.05600	128
3.05967	123
3.06333	120
3.06700	120
3.07067	120
3.07433	118
3.07800	115
3.08167	110
3.08533	103
3.08900	97
3.09267	97
3.09633	103
3.10000	111
3.10367	116
3.10733	119
3.11100	121
3.11467	123
3.11833	134
3.12200	146
3.12567	151
3.12933	147
3.13300	138
3.13667	128
3.14033	122
3.14400	118
3.14767	116
3.15133	112
3.15500	105
3.15867	97
3.16233	89
3.16600	80
3.16967	71
3.17333	67
3.17700	71
3.18067	80
3.18433	91
3.18800	105
3.19167	114
3.19533	113
3.19900	108
3.20267	105
3.20633	105
3.21000	103
3.21367	99
3.21733	96
3.22100	92
3.22467	89
3.22833	93
3.23200	101
3.23567	106
3.23933	106
3.24300	101
3.24667	98
3.25033	100
3.25400	104
3.25767	106
3.26133	106
3.26500	105
3.26867	109
3.27233	113
3.27600	116
3.27967	117
3.28333	117
3.28700	117
3.29067	115
3.29433	106
3.29800	98
3.30167	92
3.30533	91
3.30900	95
3.31267	100
3.31633	101
3.32000	93
3.32367	85
3.32733	82
3.33100	82
3.33467	81
3.33833	80
3.34200	76
3.34567	65
3.34933	54
3.35300	49
3.35667	47
3.36033	45
3.36400	45
3.36767	50
3.37133	58
3.37500	69
3.37867	78
3.38233	80
3.38600	81
3.38967	81
3.39333	81
3.39700	79
3.40067	79
3.40433	78
3.40800	74
3.41167	70
3.41533	70
3.41900	76
3.42267	88
3.42633	93
3.43000	91
3.43367	86
3.43733	80
3.44100	70
3.44467	64
3.44833	63
3.45200	70
3.45567	75
3.45933	76
3.46300	76
3.46667	75
3.47033	74
3.47400	76
3.47767	78
3.48133	78
3.48500	74
3.48867	72
3.49233	72
3.49600	71
3.49967	63
3.50333	55
3.50700	57
3.51067	68
3.51433	82
3.51800	91
3.52167	87
3.52533	77
3.52900	66
3.53267	55
3.53633	46
3.54000	40
3.54367	38
3.54733	42
3.55100	48
3.55467	56
3.55833	62
3.56200	63
3.56567	59
3.56933	54
3.57300	51
3.57667	47
3.58033	47
3.58400	50
3.58767	51
3.59133	53
3.59500	60
3.59867	66
3.60233	65
3.60600	55
3.60967	44
3.61333	38
3.61700	37
3.62067	41
3.62433	40
3.62800	34
3.63167	30
3.63533	29
3.63900	32
3.64267	38
3.64633	45
3.65000	51
3.65367	57
3.65733	63
3.66100	68
3.66467	67
3.66833	59
3.67200	47
3.67567	36
3.67933	30
3.68300	30
3.68667	32
3.69033	32
3.69400	31
3.69767	33
3.70133	36
3.70500	43
3.70867	46
3.71233	47
3.71600	48
3.71967	53
3.72333	60
3.72700	68
3.73067	62
3.73433	47
3.73800	34
3.74167	29
3.74533	29
3.74900	35
3.75267	41
3.75633	44
3.76000	42
3.76367	28
3.76733	8
3.77100	-7
3.77467	-16
3.77833	-15
3.78200	-9
3.78567	-5
3.78933	-1
3.79300	5
3.79667	11
3.80033	13
3.80400	17
3.80767	15
3.81133	18
3.81500	25
3.81867	29
3.82233	36
3.82600	41
3.82967	43
3.83333	42
3.83700	37
3.84067	31
3.84433	27
3.84800	25
3.85167	24
3.85533	23
3.85900	19
3.86267	13
3.86633	9
3.87000	4
3.87367	0
3.87733	2
3.88100	4
3.88467	1
3.88833	-1
3.89200	-1
3.89567	5
3.89933	12
3.90300	22
3.90667	35
3.91033	48
3.91400	52
3.91767	49
3.92133	40
3.92500	25
3.92867	12
3.93233	3
3.93600	6
3.93967	12
3.94333	16
3.94700	16
3.95067	18
3.95433	20
3.95800	22
3.96167	24
3.96533	22
3.96900	16
3.97267	6
3.97633	-2
3.98000	-8
3.98367	-9
3.98733	-5
3.99100	8
3.99467	21
3.99833	26

[Chromatogram (Ch2)]
Interval(msec)	220
# of Points	1091
Start Time(min)	0.002
End Time(min)	3.998
R.Time (min)	Intensity
0.00167	-1
0.00533	-1
0.00900	-1
0.01267	-1
0.01633	-1
0.02000	-0
0.02367	-0
0.02733	0
0.03100	1
0.03467	1
0.03833	1
0.04200	2
0.04567	2
0.04933	2
0.05300	2
0.05667	2
0.06033	2
0.06400	2
0.06767	2
0.07133	2
0.07500	2
0.07867	2
0.08233	1
0.08600	1
0.08967	1
0.09333	1
0.09700	2
0.10067	2
0.10433	1
0.10800	1
0.11167	1
0.11533	1
0.11900	1
0.12267	1
0.12633	1
0.13000	1
0.13367	1
0.13733	1
0.14100	2
0.14467	2
0.14833	2
0.15200	2
0.15567	2
0.15933	2
0.16300	2
0.16667	2
0.17033	2
0.17400	2
0.17767	2
0.18133	2
0.18500	3
0.18867	3
0.19233	4
0.19600	4
0.19967	4
0.20333	4
0.20700	4
0.21067	4
0.21433	4
0.21800	4
0.22167	3
0.22533	2
0.22900	2
0.23267	1
0.23633	0
0.24000	-0
0.24367	-1
0.24733	-1
0.25100	-1
0.25467	-1
0.25833	-1
0.26200	-1
0.26567	-0
0.26933	-0
0.27300	0
0.27667	0
0.28033	1
0.28400	1
0.28767	1
0.29133	1
0.29500	2
0.29867	2
0.30233	2
0.30600	2
0.30967	2
0.31333	1
0.31700	1
0.32067	1
0.32433	1
0.32800	1
0.33167	0
0.33533	1
0.33900	1
0.34267	1
0.34633	1
0.35000	1
0.35367	1
0.35733	2
0.36100	2
0.36467	2
0.36833	3
0.37200	3
0.37567	3
0.37933	3
0.38300	3
0.38667	3
0.39033	3
0.39400	3
0.39767	3
0.40133	2
0.40500	2
0.40867	2
0.41233	2
0.41600	1
0.41967	1
0.42333	1
0.42700	0
0.43067	0
0.43433	0
0.43800	0
0.44167	0
0.44533	-0
0.44900	-0
0.45267	0
0.45633	0
0.46000	1
0.46367	1
0.46733	1
0.47100	2
0.47467	2
0.47833	2
0.48200	2
0.48567	2
0.48933	2
0.49300	3
0.49667	3
0.50033	3
0.50400	3
0.50767	3
0.51133	3
0.51500	3
0.51867	3
0.52233	3
0.52600	3
0.52967	3
0.53333	3
0.53700	2
0.54067	2
0.54433	2
0.54800	2
0.55167	1
0.55533	1
0.55900	1
0.56267	1
0.56633	1
0.57000	0
0.57367	-0
0.57733	-0
0.58100	-1
0.58467	-1
0.58833	-1
0.59200	-1
0.59567	-1
0.59933	-1
0.60300	-0
0.60667	-0
0.61033	-0
0.61400	0
0.61767	0
0.62133	1
0.62500	1
0.62867	1
0.63233	1
0.63600	2
0.63967	2
0.64333	3
0.64700	3
0.65067	3
0.65433	3
0.65800	4
0.66167	4
0.66533	4
0.66900	4
0.67267	4
0.67633	3
0.68000	3
0.68367	3
0.68733	2
0.69100	2
0.69467	2
0.69833	1
0.70200	1
0.70567	0
0.70933	0
0.71300	0
0.71667	0
0.72033	0
0.72400	0
0.72767	0
0.73133	0
0.73500	-0
0.73867	-0
0.74233	-1
0.74600	-1
0.74967	-1
0.75333	-1
0.75700	-1
0.76067	-1
0.76433	-1
0.76800	-1
0.77167	-1
0.77533	-1
0.77900	-1
0.78267	-1
0.78633	-1
0.79000	-2
0.79367	-2
0.79733	-1
0.80100	-1
0.80467	-1
0.80833	-1
0.81200	-1
0.81567	-0
0.81933	-0
0.82300	0
0.82667	1
0.83033	1
0.83400	1
0.83767	2
0.84133	2
0.84500	2
0.84867	3
0.85233	3
0.85600	3
0.85967	3
0.86333	3
0.86700	3
0.87067	2
0.87433	2
0.87800	2
0.88167	2
0.88533	2
0.88900	3
0.89267	3
0.89633	4
0.90000	4
0.90367	4
0.90733	5
0.91100	5
0.91467	5
0.91833	5
0.92200	5
0.92567	5
0.92933	5
0.93300	5
0.93667	5
0.94033	5
0.94400	5
0.94767	5
0.95133	5
0.95500	5
0.95867	5
0.96233	5
0.96600	5
0.96967	5
0.97333	4
0.97700	4
0.98067	4
0.98433	4
0.98800	4
0.99167	4
0.99533	4
0.99900	3
1.00267	3
1.00633	3
1.01000	3
1.01367	3
1.01733	3
1.02100	3
1.02467	3
1.02833	3
1.03200	2
1.03567	2
1.03933	1
1.04300	1
1.04667	1
1.05033	1
1.05400	1
1.05767	1
1.06133	1
1.06500	2
1.06867	2
1.07233	2
1.07600	2
1.07967	2
1.08333	2
1.08700	2
1.09067	2
1.09433	1
1.09800	1
1.10167	1
1.10533	1
1.10900	1
1.11267	0
1.11633	0
1.12000	0
1.12367	-0
1.12733	-0
1.13100	-0
1.13467	-1
1.13833	-1
1.14200	-1
1.14567	-1
1.14933	-1
1.15300	-2
1.15667	-2
1.16033	-2
1.16400	-3
1.16767	-3
1.17133	-3
1.17500	-3
1.17867	-3
1.18233	-2
1.18600	-2
1.18967	-2
1.19333	-2
1.19700	-1
1.20067	-1
1.20433	-1
1.20800	-0
1.21167	0
1.21533	1
1.21900	1
1.22267	1
1.22633	2
1.23000	2
1.23367	3
1.23733	3
1.24100	3
1.24467	3
1.24833	3
1.25200	3
1.25567	3
1.25933	3
1.26300	3
1.26667	3
1.27033	3
1.27400	3
1.27767	3
1.28133	4
1.28500	4
1.28867	3
1.29233	3
1.29600	3
1.29967	3
1.30333	2
1.30700	2
1.31067	1
1.31433	1
1.31800	0
1.32167	-0
1.32533	-1
1.32900	-1
1.33267	-2
1.33633	-2
1.34000	-2
1.34367	-2
1.34733	-2
1.35100	-2
1.35467	-2
1.35833	-2
1.36200	-2
1.36567	-2
1.36933	-2
1.37300	-2
1.37667	-1
1.38033	-1
1.38400	-0
1.38767	-0
1.39133	-0
1.39500	-1
1.39867	-1
1.40233	-1
1.40600	-1
1.40967	-1
1.41333	-2
1.41700	-2
1.42067	-2
1.42433	-2
1.42800	-2
1.43167	-2
1.43533	-2
1.43900	-2
1.44267	-3
1.44633	-3
1.45000	-3
1.45367	-3
1.45733	-3
1.46100	-2
1.46467	-2
1.46833	-2
1.47200	-2
1.47567	-2
1.47933	-2
1.48300	-1
1.48667	-1
1.49033	-1
1.49400	-1
1.49767	-1
1.50133	-1
1.50500	-1
1.50867	-1
1.51233	-0
1.51600	-0
1.51967	0
1.52333	1
1.52700	1
1.53067	1
1.53433	2
1.53800	2
1.54167	3
1.54533	3
1.54900	3
1.55267	3
1.55633	3
1.56000	2
1.56367	2
1.56733	1
1.57100	1
1.57467	0
1.57833	0
1.58200	0
1.58567	-0
1.58933	-0
1.59300	-1
1.59667	-1
1.60033	-2
1.60400	-3
1.60767	-5
1.61133	-6
1.61500	-8
1.61867	-10
1.62233	-12
1.62600	-15
1.62967	-18
1.63333	-21
1.63700	-25
1.64067	-28
1.64433	-32
1.64800	-36
1.65167	-40
1.65533	-44
1.65900	-48
1.66267	-52
1.66633	-57
1.67000	-62
1.67367	-67
1.67733	-72
1.68100	-76
1.68467	-81
1.68833	-85
1.69200	-88
1.69567	-91
1.69933	-93
1.70300	-95
1.70667	-97
1.71033	-98
1.71400	-99
1.71767	-100
1.72133	-101
1.72500	-102
1.72867	-104
1.73233	-105
1.73600	-107
1.73967	-107
1.74333	-108
1.74700	-108
1.75067	-108
1.75433	-108
1.75800	-107
1.76167	-107
1.76533	-106
1.76900	-106
1.77267	-106
1.77633	-107
1.78000	-108
1.78367	-108
1.78733	-109
1.79100	-110
1.79467	-110
1.79833	-110
1.80200	-110
1.80567	-111
1.80933	-111
1.81300	-111
1.81667	-111
1.82033	-111
1.82400	-111
1.82767	-111
1.83133	-111
1.83500	-111
1.83867	-112
1.84233	-112
1.84600	-112
1.84967	-112
1.85333	-112
1.85700	-112
1.86067	-111
1.86433	-110
1.86800	-109
1.87167	-108
1.87533	-107
1.87900	-106
1.88267	-106
1.88633	-106
1.89000	-107
1.89367	-107
1.89733	-108
1.90100	-109
1.90467	-109
1.90833	-110
1.91200	-110
1.91567	-110
1.91933	-109
1.92300	-109
1.92667	-108
1.93033	-107
1.93400	-107
1.93767	-106
1.94133	-106
1.94500	-106
1.94867	-106
1.95233	-107
1.95600	-107
1.95967	-107
1.96333	-107
1.96700	-106
1.97067	-106
1.97433	-105
1.97800	-105
1.98167	-105
1.98533	-105
1.98900	-105
1.99267	-105
1.99633	-104
2.00000	-104
2.00367	-104
2.00733	-104
2.01100	-104
2.01467	-104
2.01833	-104
2.02200	-104
2.02567	-104
2.02933	-104
2.03300	-104
2.03667	-104
2.04033	-104
2.04400	-104
2.04767	-103
2.05133	-102
2.05500	-102
2.05867	-102
2.06233	-101
2.06600	-101
2.06967	-100
2.07333	-100
2.07700	-99
2.08067	-99
2.08433	-98
2.08800	-98
2.09167	-98
2.09533	-97
2.09900	-97
2.10267	-97
2.10633	-97
2.11000	-97
2.11367	-96
2.11733	-96
2.12100	-95
2.12467	-95
2.12833	-95
2.13200	-94
2.13567	-95
2.13933	-95
2.14300	-95
2.14667	-95
2.15033	-95
2.15400	-95
2.15767	-94
2.16133	-94
2.16500	-94
2.16867	-93
2.17233	-93
2.17600	-93
2.17967	-92
2.18333	-91
2.18700	-90
2.19067	-90
2.19433	-90
2.19800	-89
2.20167	-88
2.20533	-87
2.20900	-87
2.21267	-86
2.21633	-86
2.22000	-86
2.22367	-86
2.22733	-86
2.23100	-86
2.23467	-86
2.23833	-86
2.24200	-85
2.24567	-85
2.24933	-84
2.25300	-83
2.25667	-83
2.26033	-83
2.26400	-83
2.26767	-83
2.27133	-83
2.27500	-83
2.27867	-83
2.28233	-82
2.28600	-82
2.28967	-81
2.29333	-80
2.29700	-79
2.30067	-79
2.30433	-79
2.30800	-79
2.31167	-79
2.31533	-80
2.31900	-80
2.32267	-79
2.32633	-79
2.33000	-79
2.33367	-78
2.33733	-78
2.34100	-78
2.34467	-77
2.34833	-77
2.35200	-76
2.35567	-75
2.35933	-74
2.36300	-72
2.36667	-69
2.37033	-66
2.37400	-62
2.37767	-58
2.38133	-54
2.38500	-49
2.38867	-45
2.39233	-40
2.39600	-36
2.39967	-32
2.40333	-27
2.40700	-23
2.41067	-20
2.41433	-17
2.41800	-14
2.42167	-12
2.42533	-10
2.42900	-9
2.43267	-8
2.43633	-7
2.44000	-6
2.44367	-6
2.44733	-5
2.45100	-5
2.45467	-4
2.45833	-4
2.46200	-3
2.46567	-2
2.46933	-2
2.47300	-1
2.47667	-0
2.48033	1
2.48400	2
2.48767	3
2.49133	4
2.49500	4
2.49867	5
2.50233	6
2.50600	8
2.50967	9
2.51333	10
2.51700	11
2.52067	11
2.52433	12
2.52800	13
2.53167	13
2.53533	14
2.53900	14
2.54267	14
2.54633	14
2.55000	13
2.55367	14
2.55733	14
2.56100	14
2.56467	14
2.56833	15
2.57200	15
2.57567	16
2.57933	16
2.58300	16
2.58667	16
2.59033	16
2.59400	16
2.59767	16
2.60133	16
2.60500	16
2.60867	16
2.61233	17
2.61600	17
2.61967	17
2.62333	18
2.62700	18
2.63067	18
2.63433	18
2.63800	18
2.64167	18
2.64533	18
2.64900	18
2.65267	18
2.65633	18
2.66000	19
2.66367	19
2.66733	20
2.67100	20
2.67467	20
2.67833	21
2.68200	21
2.68567	22
2.68933	22
2.69300	23
2.69667	23
2.70033	23
2.70400	24
2.70767	24
2.71133	24
2.71500	24
2.71867	24
2.72233	24
2.72600	24
2.72967	24
2.73333	24
2.73700	24
2.74067	24
2.74433	25
2.74800	25
2.75167	25
2.75533	26
2.75900	27
2.76267	27
2.76633	28
2.77000	28
2.77367	29
2.77733	29
2.78100	30
2.78467	30
2.78833	30
2.79200	30
2.79567	30
2.79933	29
2.80300	28
2.80667	27
2.81033	27
2.81400	26
2.81767	26
2.82133	26
2.82500	26
2.82867	26
2.83233	26
2.83600	25
2.83967	25
2.84333	24
2.84700	23
2.85067	19
2.85433	14
2.85800	5
2.86167	-7
2.86533	-23
2.86900	-43
2.87267	-67
2.87633	-96
2.88000	-129
2.88367	-166
2.88733	-207
2.89100	-251
2.89467	-299
2.89833	-349
2.90200	-401
2.90567	-455
2.90933	-510
2.91300	-565
2.91667	-620
2.92033	-675
2.92400	-730
2.92767	-782
2.93133	-834
2.93500	-886
2.93867	-942
2.94233	-1001
2.94600	-1053
2.94967	-1087
2.95333	-1097
2.95700	-1081
2.96067	-1041
2.96433	-983
2.96800	-913
2.97167	-835
2.97533	-754
2.97900	-674
2.98267	-598
2.98633	-525
2.99000	-459
2.99367	-398
2.99733	-344
3.00100	-295
3.00467	-252
3.00833	-215
3.01200	-182
3.01567	-154
3.01933	-130
3.02300	-109
3.02667	-92
3.03033	-76
3.03400	-63
3.03767	-52
3.04133	-43
3.04500	-34
3.04867	-27
3.05233	-21
3.05600	-15
3.05967	-11
3.06333	-7
3.06700	-4
3.07067	-1
3.07433	2
3.07800	4
3.08167	6
3.08533	7
3.08900	9
3.09267	11
3.09633	12
3.10000	14
3.10367	15
3.10733	16
3.11100	17
3.11467	18
3.11833	19
3.12200	19
3.12567	20
3.12933	20
3.13300	20
3.13667	21
3.14033	21
3.14400	21
3.14767	21
3.15133	21
3.15500	21
3.15867	21
3.16233	21
3.16600	21
3.16967	22
3.17333	22
3.17700	22
3.18067	23
3.18433	23
3.18800	23
3.19167	23
3.19533	23
3.19900	23
3.20267	24
3.20633	24
3.21000	24
3.21367	24
3.21733	23
3.22100	23
3.22467	23
3.22833	23
3.23200	23
3.23567	22
3.23933	22
3.24300	23
3.24667	23
3.25033	23
3.25400	23
3.25767	23
3.26133	23
3.26500	23
3.26867	24
3.27233	24
3.27600	24
3.27967	24
3.28333	24
3.28700	24
3.29067	25
3.29433	25
3.29800	25
3.30167	25
3.30533	25
3.30900	26
3.31267	26
3.31633	26
3.32000	26
3.32367	26
3.32733	26
3.33100	26
3.33467	26
3.33833	27
3.34200	27
3.34567	27
3.34933	27
3.35300	27
3.35667	27
3.36033	28
3.36400	28
3.36767	28
3.37133	29
3.37500	29
3.37867	29
3.38233	30
3.38600	30
3.38967	30
3.39333	31
3.39700	31
3.40067	31
3.40433	31
3.40800	31
3.41167	31
3.41533	32
3.41900	32
3.42267	31
3.42633	31
3.43000	31
3.43367	31
3.43733	31
3.44100	30
3.44467	30
3.44833	30
3.45200	30
3.45567	30
3.45933	30
3.46300	30
3.46667	30
3.47033	30
3.47400	30
3.47767	30
3.48133	30
3.48500	30
3.48867	30
3.49233	30
3.49600	30
3.49967	30
3.50333	30
3.50700	30
3.51067	30
3.51433	30
3.51800	30
3.52167	30
3.52533	30
3.52900	29
3.53267	29
3.53633	29
3.54000	29
3.54367	29
3.54733	29
3.55100	29
3.55467	28
3.55833	28
3.56200	28
3.56567	28
3.56933	28
3.57300	28
3.57667	28
3.58033	28
3.58400	28
3.58767	28
3.59133	28
3.59500	27
3.59867	27
3.60233	27
3.60600	27
3.60967	27
3.61333	27
3.61700	27
3.62067	27
3.62433	27
3.62800	27
3.63167	27
3.63533	27
3.63900	27
3.64267	27
3.64633	27
3.65000	27
3.65367	27
3.65733	27
3.66100	28
3.66467	28
3.66833	28
3.67200	28
3.67567	28
3.67933	28
3.68300	28
3.68667	28
3.69033	28
3.69400	28
3.69767	28
3.70133	28
3.70500	28
3.70867	28
3.71233	28
3.71600	28
3.71967	28
3.72333	28
3.72700	28
3.73067	28
3.73433	29
3.73800	28
3.74167	28
3.74533	28
3.74900	28
3.75267	28
3.75633	28
3.76000	28
3.76367	28
3.76733	28
3.77100	28
3.77467	28
3.77833	28
3.78200	28
3.78567	28
3.78933	28
3.79300	27
3.79667	27
3.80033	27
3.80400	27
3.80767	27
3.81133	27
3.81500	27
3.81867	27
3.82233	27
3.82600	27
3.82967	27
3.83333	27
3.83700	27
3.84067	27
3.84433	27
3.84800	27
3.85167	27
3.85533	27
3.85900	27
3.86267	27
3.86633	27
3.87000	27
3.87367	27
3.87733	27
3.88100	28
3.88467	27
3.88833	27
3.89200	27
3.89567	28
3.89933	28
3.90300	28
3.90667	28
3.91033	28
3.91400	28
3.91767	29
3.92133	29
3.92500	29
3.92867	29
3.93233	29
3.93600	29
3.93967	28
3.94333	28
3.94700	28
3.95067	28
3.95433	28
3.95800	28
3.96167	28
3.96533	28
3.96900	28
3.97267	29
3.97633	29
3.98000	28
3.98367	28
3.98733	28
3.99100	28
3.99467	28
3.99833	28

[Chromatogram (Ch3)]
Interval(msec)	220
# of Points	1091
Start Time(min)	0.002
End Time(min)	3.998
R.Time (min)	Intensity
0.00167	0
0.00533	-0
0.00900	-0
0.01267	-0
0.01633	-1
0.02000	-1
0.02367	-1
0.02733	-1
0.03100	-2
0.03467	-3
0.03833	-3
0.04200	-3
0.04567	-3
0.04933	-3
0.05300	-3
0.05667	-4
0.06033	-5
0.06400	-4
0.06767	-3
0.07133	-2
0.07500	0
0.07867	1
0.08233	1
0.08600	0
0.08967	-2
0.09333	-2
0.09700	-2
0.10067	-2
0.10433	-4
0.10800	-5
0.11167	-5
0.11533	-5
0.11900	-6
0.12267	-3
0.12633	-2
0.13000	1
0.13367	2
0.13733	2
0.14100	2
0.14467	3
0.14833	3
0.15200	3
0.15567	3
0.15933	3
0.16300	4
0.16667	3
0.17033	-0
0.17400	-3
0.17767	-4
0.18133	-5
0.18500	-5
0.18867	-5
0.19233	-5
0.19600	-4
0.19967	-2
0.20333	-2
0.20700	-2
0.21067	-4
0.21433	-5
0.21800	-6
0.22167	-7
0.22533	-6
0.22900	-6
0.23267	-6
0.23633	-6
0.24000	-4
0.24367	-3
0.24733	0
0.25100	3
0.25467	2
0.25833	1
0.26200	0
0.26567	-0
0.26933	-2
0.27300	-5
0.27667	-6
0.28033	-8
0.28400	-8
0.28767	-7
0.29133	-7
0.29500	-6
0.29867	-4
0.30233	-0
0.30600	-0
0.30967	-2
0.31333	-3
0.31700	-1
0.32067	1
0.32433	0
0.32800	-0
0.33167	1
0.33533	1
0.33900	-0
0.34267	1
0.34633	2
0.35000	2
0.35367	1
0.35733	3
0.36100	4
0.36467	4
0.36833	5
0.37200	5
0.37567	4
0.37933	3
0.38300	1
0.38667	3
0.39033	2
0.39400	2
0.39767	2
0.40133	2
0.40500	3
0.40867	4
0.41233	2
0.41600	0
0.41967	-1
0.42333	-0
0.42700	1
0.43067	2
0.43433	4
0.43800	5
0.44167	5
0.44533	5
0.44900	4
0.45267	3
0.45633	5
0.46000	3
0.46367	1
0.46733	-1
0.47100	-3
0.47467	-2
0.47833	-2
0.48200	-4
0.48567	-5
0.48933	-5
0.49300	-4
0.49667	-4
0.50033	-5
0.50400	-6
0.50767	-6
0.51133	-5
0.51500	-3
0.51867	-2
0.52233	-1
0.52600	-1
0.52967	-2
0.53333	-1
0.53700	-2
0.54067	-5
0.54433	-6
0.54800	-5
0.55167	-5
0.55533	-4
0.55900	-2
0.56267	-2
0.56633	-3
0.57000	-5
0.57367	-6
0.57733	-4
0.58100	-3
0.58467	-1
0.58833	0
0.59200	0
0.59567	1
0.59933	3
0.60300	4
0.60667	4
0.61033	4
0.61400	4
0.61767	3
0.62133	1
0.62500	-1
0.62867	-3
0.63233	-2
0.63600	-0
0.63967	0
0.64333	0
0.64700	0
0.65067	-0
0.65433	-1
0.65800	-3
0.66167	-2
0.66533	-2
0.66900	-2
0.67267	-1
0.67633	1
0.68000	4
0.68367	5
0.68733	5
0.69100	5
0.69467	5
0.69833	5
0.70200	2
0.70567	2
0.70933	2
0.71300	1
0.71667	-0
0.72033	-1
0.72400	-1
0.72767	0
0.73133	2
0.73500	1
0.73867	1
0.74233	2
0.74600	4
0.74967	4
0.75333	3
0.75700	3
0.76067	3
0.76433	3
0.76800	5
0.77167	6
0.77533	8
0.77900	9
0.78267	8
0.78633	5
0.79000	3
0.79367	2
0.79733	2
0.80100	2
0.80467	3
0.80833	5
0.81200	5
0.81567	6
0.81933	4
0.82300	3
0.82667	3
0.83033	2
0.83400	1
0.83767	2
0.84133	3
0.84500	2
0.84867	1
0.85233	-0
0.85600	0
0.85967	1
0.86333	-0
0.86700	-2
0.87067	-0
0.87433	1
0.87800	3
0.88167	5
0.88533	6
0.88900	4
0.89267	2
0.89633	-1
0.90000	-3
0.90367	-0
0.90733	2
0.91100	5
0.91467	7
0.91833	6
0.92200	5
0.92567	6
0.92933	7
0.93300	8
0.93667	8
0.94033	7
0.94400	7
0.94767	8
0.95133	10
0.95500	10
0.95867	10
0.96233	9
0.96600	9
0.96967	9
0.97333	8
0.97700	7
0.98067	7
0.98433	6
0.98800	6
0.99167	6
0.99533	6
0.99900	8
1.00267	10
1.00633	9
1.01000	9
1.01367	6
1.01733	4
1.02100	4
1.02467	6
1.02833	7
1.03200	8
1.03567	6
1.03933	5
1.04300	6
1.04667	7
1.05033	8
1.05400	8
1.05767	6
1.06133	5
1.06500	6
1.06867	6
1.07233	6
1.07600	5
1.07967	6
1.08333	5
1.08700	4
1.09067	3
1.09433	2
1.09800	1
1.10167	2
1.10533	5
1.10900	6
1.11267	6
1.11633	7
1.12000	8
1.12367	7
1.12733	7
1.13100	7
1.13467	8
1.13833	6
1.14200	6
1.14567	7
1.14933	6
1.15300	6
1.15667	5
1.16033	6
1.16400	6
1.16767	7
1.17133	7
1.17500	7
1.17867	8
1.18233	9
1.18600	11
1.18967	13
1.19333	13
1.19700	12
1.20067	10
1.20433	9
1.20800	8
1.21167	6
1.21533	6
1.21900	6
1.22267	6
1.22633	6
1.23000	5
1.23367	4
1.23733	3
1.24100	3
1.24467	2
1.24833	3
1.25200	3
1.25567	4
1.25933	6
1.26300	8
1.26667	8
1.27033	7
1.27400	5
1.27767	3
1.28133	4
1.28500	4
1.28867	4
1.29233	3
1.29600	3
1.29967	5
1.30333	9
1.30700	9
1.31067	9
1.31433	9
1.31800	8
1.32167	7
1.32533	7
1.32900	9
1.33267	9
1.33633	8
1.34000	11
1.34367	11
1.34733	11
1.35100	10
1.35467	9
1.35833	10
1.36200	11
1.36567	10
1.36933	11
1.37300	14
1.37667	14
1.38033	13
1.38400	12
1.38767	11
1.39133	9
1.39500	8
1.39867	6
1.40233	6
1.40600	6
1.40967	9
1.41333	9
1.41700	8
1.42067	7
1.42433	6
1.42800	5
1.43167	3
1.43533	4
1.43900	6
1.44267	9
1.44633	11
1.45000	12
1.45367	11
1.45733	11
1.46100	10
1.46467	10
1.46833	9
1.47200	9
1.47567	10
1.47933	12
1.48300	11
1.48667	10
1.49033	11
1.49400	7
1.49767	6
1.50133	7
1.50500	7
1.50867	5
1.51233	3
1.51600	1
1.51967	1
1.52333	2
1.52700	6
1.53067	8
1.53433	10
1.53800	11
1.54167	11
1.54533	11
1.54900	12
1.55267	14
1.55633	14
1.56000	14
1.56367	15
1.56733	15
1.57100	14
1.57467	14
1.57833	12
1.58200	10
1.58567	10
1.58933	10
1.59300	10
1.59667	9
1.60033	9
1.60400	9
1.60767	11
1.61133	12
1.61500	13
1.61867	14
1.62233	13
1.62600	12
1.62967	13
1.63333	15
1.63700	15
1.64067	13
1.64433	12
1.64800	14
1.65167	14
1.65533	16
1.65900	17
1.66267	17
1.66633	16
1.67000	16
1.67367	17
1.67733	19
1.68100	20
1.68467	22
1.68833	26
1.69200	27
1.69567	25
1.69933	24
1.70300	25
1.70667	27
1.71033	28
1.71400	29
1.71767	27
1.72133	25
1.72500	23
1.72867	22
1.73233	22
1.73600	23
1.73967	23
1.74333	26
1.74700	30
1.75067	31
1.75433	31
1.75800	31
1.76167	31
1.76533	29
1.76900	27
1.77267	27
1.77633	28
1.78000	28
1.78367	29
1.78733	31
1.79100	31
1.79467	31
1.79833	31
1.80200	33
1.80567	35
1.80933	37
1.81300	37
1.81667	36
1.82033	37
1.82400	39
1.82767	38
1.83133	39
1.83500	41
1.83867	43
1.84233	42
1.84600	40
1.84967	41
1.85333	43
1.85700	44
1.86067	47
1.86433	47
1.86800	46
1.87167	44
1.87533	46
1.87900	46
1.88267	45
1.88633	44
1.89000	43
1.89367	43
1.89733	45
1.90100	47
1.90467	50
1.90833	52
1.91200	54
1.91567	56
1.91933	56
1.92300	56
1.92667	56
1.93033	58
1.93400	58
1.93767	59
1.94133	61
1.94500	62
1.94867	60
1.95233	60
1.95600	62
1.95967	62
1.96333	64
1.96700	67
1.97067	67
1.97433	68
1.97800	71
1.98167	73
1.98533	73
1.98900	71
1.99267	72
1.99633	73
2.00000	74
2.00367	75
2.00733	78
2.01100	80
2.01467	81
2.01833	82
2.02200	81
2.02567	80
2.02933	82
2.03300	85
2.03667	87
2.04033	88
2.04400	89
2.04767	90
2.05133	91
2.05500	92
2.05867	94
2.06233	93
2.06600	94
2.06967	96
2.07333	100
2.07700	102
2.08067	102
2.08433	101
2.08800	101
2.09167	100
2.09533	102
2.09900	104
2.10267	105
2.10633	108
2.11000	110
2.11367	112
2.11733	114
2.12100	114
2.12467	114
2.12833	115
2.13200	116
2.13567	120
2.13933	122
2.14300	122
2.14667	123
2.15033	124
2.15400	125
2.15767	128
2.16133	131
2.16500	133
2.16867	136
2.17233	139
2.17600	140
2.17967	141
2.18333	143
2.18700	146
2.19067	149
2.19433	150
2.19800	150
2.20167	150
2.20533	152
2.20900	153
2.21267	155
2.21633	156
2.22000	158
2.22367	158
2.22733	160
2.23100	160
2.23467	160
2.23833	163
2.24200	164
2.24567	165
2.24933	167
2.25300	170
2.25667	171
2.26033	174
2.26400	177
2.26767	180
2.27133	184
2.27500	184
2.27867	182
2.28233	182
2.28600	183
2.28967	185
2.29333	188
2.29700	189
2.30067	189
2.30433	189
2.30800	190
2.31167	192
2.31533	194
2.31900	196
2.32267	198
2.32633	200
2.33000	202
2.33367	204
2.33733	206
2.34100	209
2.34467	211
2.34833	214
2.35200	215
2.35567	216
2.35933	215
2.36300	214
2.36667	214
2.37033	216
2.37400	218
2.37767	219
2.38133	220
2.38500	218
2.38867	216
2.39233	218
2.39600	223
2.39967	228
2.40333	232
2.40700	235
2.41067	237
2.41433	238
2.41800	239
2.42167	241
2.42533	245
2.42900	249
2.43267	253
2.43633	254
2.44000	256
2.44367	313
2.44733	467
2.45100	634
2.45467	772
2.45833	852
2.46200	861
2.46567	826
2.46933	781
2.47300	745
2.47667	723
2.48033	708
2.48400	683
2.48767	645
2.49133	595
2.49500	547
2.49867	505
2.50233	475
2.50600	457
2.50967	453
2.51333	458
2.51700	472
2.52067	493
2.52433	516
2.52800	532
2.53167	537
2.53533	528
2.53900	505
2.54267	472
2.54633	436
2.55000	402
2.55367	371
2.55733	347
2.56100	328
2.56467	314
2.56833	304
2.57200	298
2.57567	291
2.57933	287
2.58300	286
2.58667	286
2.59033	288
2.59400	293
2.59767	295
2.60133	293
2.60500	288
2.60867	280
2.61233	271
2.61600	260
2.61967	249
2.62333	239
2.62700	230
2.63067	221
2.63433	210
2.63800	202
2.64167	194
2.64533	183
2.64900	170
2.65267	156
2.65633	142
2.66000	129
2.66367	117
2.66733	106
2.67100	96
2.67467	87
2.67833	80
2.68200	74
2.68567	69
2.68933	68
2.69300	67
2.69667	68
2.70033	69
2.70400	71
2.70767	74
2.71133	77
2.71500	80
2.71867	84
2.72233	86
2.72600	90
2.72967	95
2.73333	100
2.73700	102
2.74067	105
2.74433	108
2.74800	110
2.75167	113
2.75533	115
2.75900	118
2.76267	120
2.76633	124
2.77000	128
2.77367	132
2.77733	134
2.78100	138
2.78467	141
2.78833	145
2.79200	151
2.79567	156
2.79933	159
2.80300	161
2.80667	164
2.81033	168
2.81400	172
2.81767	179
2.82133	192
2.82500	212
2.82867	247
2.83233	309
2.83600	418
2.83967	593
2.84333	854
2.84700	1215
2.85067	1668
2.85433	2196
2.85800	2767
2.86167	3334
2.86533	3852
2.86900	4281
2.87267	4589
2.87633	4757
2.88000	4788
2.88367	4698
2.88733	4511
2.89100	4251
2.89467	3944
2.89833	3616
2.90200	3283
2.90567	2959
2.90933	2650
2.91300	2361
2.91667	2096
2.92033	1858
2.92400	1644
2.92767	1455
2.93133	1287
2.93500	1137
2.93867	1007
2.94233	897
2.94600	798
2.94967	712
2.95333	639
2.95700	574
2.96067	517
2.96433	466
2.96800	423
2.97167	388
2.97533	356
2.97900	328
2.98267	304
2.98633	284
2.99000	263
2.99367	245
2.99733	229
3.00100	217
3.00467	207
3.00833	199
3.01200	191
3.01567	184
3.01933	178
3.02300	173
3.02667	171
3.03033	169
3.03400	167
3.03767	164
3.04133	161
3.04500	159
3.04867	158
3.05233	157
3.05600	157
3.05967	155
3.06333	154
3.06700	154
3.07067	154
3.07433	151
3.07800	149
3.08167	149
3.08533	150
3.08900	150
3.09267	150
3.09633	150
3.10000	150
3.10367	148
3.10733	147
3.11100	146
3.11467	145
3.11833	144
3.12200	147
3.12567	149
3.12933	148
3.13300	149
3.13667	153
3.14033	157
3.14400	159
3.14767	160
3.15133	159
3.15500	159
3.15867	160
3.16233	160
3.16600	160
3.16967	161
3.17333	162
3.17700	164
3.18067	164
3.18433	164
3.18800	166
3.19167	167
3.19533	169
3.19900	170
3.20267	170
3.20633	171
3.21000	174
3.21367	177
3.21733	179
3.22100	182
3.22467	185
3.22833	187
3.23200	187
3.23567	186
3.23933	186
3.24300	185
3.24667	183
3.25033	184
3.25400	190
3.25767	201
3.26133	219
3.26500	244
3.26867	278
3.27233	317
3.27600	360
3.27967	402
3.28333	442
3.28700	479
3.29067	512
3.29433	542
3.29800	569
3.30167	594
3.30533	615
3.30900	636
3.31267	655
3.31633	674
3.32000	690
3.32367	704
3.32733	715
3.33100	726
3.33467	732
3.33833	738
3.34200	745
3.34567	754
3.34933	762
3.35300	769
3.35667	776
3.36033	783
3.36400	789
3.36767	795
3.37133	801
3.37500	806
3.37867	811
3.38233	814
3.38600	820
3.38967	824
3.39333	827
3.39700	830
3.40067	834
3.40433	838
3.40800	840
3.41167	839
3.41533	839
3.41900	840
3.42267	840
3.42633	840
3.43000	840
3.43367	841
3.43733	839
3.44100	836
3.44467	832
3.44833	831
3.45200	829
3.45567	826
3.45933	822
3.46300	819
3.46667	815
3.47033	810
3.47400	807
3.47767	807
3.48133	807
3.48500	805
3.48867	802
3.49233	798
3.49600	796
3.49967	793
3.50333	788
3.50700	783
3.51067	779
3.51433	779
3.51800	778
3.52167	775
3.52533	773
3.52900	772
3.53267	771
3.53633	768
3.54000	768
3.54367	765
3.54733	763
3.55100	762
3.55467	763
3.55833	761
3.56200	759
3.56567	760
3.56933	763
3.57300	764
3.57667	765
3.58033	764
3.58400	763
3.58767	765
3.59133	765
3.59500	764
3.59867	763
3.60233	762
3.60600	763
3.60967	765
3.61333	764
3.61700	761
3.62067	760
3.62433	759
3.62800	760
3.63167	760
3.63533	756
3.63900	751
3.64267	748
3.64633	748
3.65000	747
3.65367	746
3.65733	747
3.66100	748
3.66467	750
3.66833	751
3.67200	751
3.67567	748
3.67933	747
3.68300	747
3.68667	745
3.69033	744
3.69400	742
3.69767	743
3.70133	746
3.70500	746
3.70867	744
3.71233	743
3.71600	740
3.71967	736
3.72333	733
3.72700	732
3.73067	731
3.73433	731
3.73800	730
3.74167	729
3.74533	728
3.74900	726
3.75267	726
3.75633	725
3.76000	723
3.76367	722
3.76733	719
3.77100	717
3.77467	715
3.77833	714
3.78200	713
3.78567	711
3.78933	710
3.79300	708
3.79667	705
3.80033	703
3.80400	702
3.80767	700
3.81133	697
3.81500	695
3.81867	692
3.82233	691
3.82600	690
3.82967	688
3.83333	683
3.83700	679
3.84067	678
3.84433	675
3.84800	675
3.85167	675
3.85533	673
3.85900	671
3.86267	670
3.86633	668
3.87000	667
3.87367	666
3.87733	665
3.88100	660
3.88467	657
3.88833	657
3.89200	656
3.89567	654
3.89933	653
3.90300	651
3.90667	647
3.91033	643
3.91400	639
3.91767	638
3.92133	638
3.92500	635
3.92867	635
3.93233	634
3.93600	632
3.93967	631
3.94333	629
3.94700	627
3.95067	626
3.95433	623
3.95800	620
3.96167	617
3.96533	614
3.96900	612
3.97267	612
3.97633	612
3.98000	612
3.98367	612
3.98733	609
3.99100	607
3.99467	605
3.99833	602

[Status Trace (Column Oven Temperature)]
Interval(msec)	1000
# of Points	240
Start Time(min)	0.004
End Time(min)	3.988
Intensity Units	
Intensity Multiplier	1
R.Time (min)	Intensity
0.00447	35.02
0.02113	35.02
0.03780	35.02
0.05447	35.02
0.07113	35.02
0.08780	35.02
0.10447	35.02
0.12113	35.02
0.13780	35.01
0.15447	35.02
0.17113	35.02
0.18780	35.01
0.20447	35.00
0.22113	35.00
0.23780	35.02
0.25447	35.03
0.27113	35.03
0.28780	35.02
0.30447	35.02
0.32113	35.02
0.33780	35.01
0.35447	35.01
0.37113	35.01
0.38780	35.01
0.40447	35.02
0.42113	35.02
0.43780	35.03
0.45447	35.03
0.47113	35.03
0.48780	35.01
0.50447	35.02
0.52113	35.01
0.53780	35.00
0.55447	35.02
0.57113	35.02
0.58780	35.02
0.60447	35.03
0.62113	35.02
0.63780	35.00
0.65447	34.99
0.67113	34.98
0.68780	35.00
0.70447	35.00
0.72113	35.00
0.73780	35.01
0.75447	35.03
0.77113	35.04
0.78780	35.05
0.80447	35.05
0.82113	35.05
0.83780	35.05
0.85447	35.03
0.87113	35.03
0.88780	35.01
0.90447	35.00
0.92113	34.98
0.93780	34.97
0.95447	34.96
0.97113	34.96
0.98780	34.95
1.00447	34.95
1.02113	34.95
1.03780	34.96
1.05447	34.96
1.07113	34.96
1.08780	34.96
1.10447	34.96
1.12113	34.96
1.13780	34.97
1.15447	34.99
1.17113	35.00
1.18780	35.01
1.20447	35.00
1.22113	34.99
1.23780	34.98
1.25447	34.97
1.27113	34.96
1.28780	34.95
1.30447	34.96
1.32113	34.98
1.33780	34.99
1.35447	34.99
1.37113	34.99
1.38780	34.99
1.40447	35.00
1.42113	35.01
1.43780	35.01
1.45447	35.02
1.47113	35.02
1.48780	35.02
1.50447	35.01
1.52113	35.01
1.53780	35.00
1.55447	35.00
1.57113	35.01
1.58780	35.01
1.60447	35.05
1.62113	35.15
1.63780	35.33
1.65447	35.57
1.67113	35.90
1.68780	36.26
1.70447	36.60
1.72113	36.94
1.73780	37.29
1.75447	37.60
1.77113	37.93
1.78780	38.27
1.80447	38.61
1.82113	38.93
1.83780	39.29
1.85447	39.61
1.87113	39.90
1.88780	40.22
1.90447	40.57
1.92113	40.88
1.93780	41.21
1.95447	41.54
1.97113	41.87
1.98780	42.20
2.00447	42.51
2.02113	42.85
2.03780	43.18
2.05447	43.50
2.07113	43.83
2.08780	44.17
2.10447	44.50
2.12113	44.81
2.13780	45.15
2.15447	45.47
2.17113	45.81
2.18780	46.14
2.20447	46.44
2.22113	46.77
2.23780	47.12
2.25447	47.43
2.27113	47.78
2.28780	48.08
2.30447	48.42
2.32113	48.74
2.33780	49.08
2.35447	49.38
2.37113	49.55
2.38780	49.61
2.40447	49.60
2.42113	49.61
2.43780	49.62
2.45447	49.62
2.47113	49.63
2.48780	49.65
2.50447	49.66
2.52113	49.68
2.53780	49.71
2.55447	49.73
2.57113	49.74
2.58780	49.76
2.60447	49.78
2.62113	49.79
2.63780	49.81
2.65447	49.82
2.67113	49.83
2.68780	49.84
2.70447	49.85
2.72113	49.87
2.73780	49.87
2.75447	49.87
2.77113	49.85
2.78780	49.85
2.80447	49.88
2.82113	49.90
2.83780	49.91
2.85447	49.91
2.87113	49.91
2.88780	49.91
2.90447	49.93
2.92113	49.94
2.93780	49.95
2.95447	49.95
2.97113	49.95
2.98780	49.95
3.00447	49.95
3.02113	49.97
3.03780	49.99
3.05447	50.00
3.07113	50.02
3.08780	50.01
3.10447	50.00
3.12113	50.00
3.13780	50.00
3.15447	50.01
3.17113	50.02
3.18780	50.02
3.20447	50.03
3.22113	50.05
3.23780	50.07
3.25447	50.08
3.27113	50.09
3.28780	50.10
3.30447	50.11
3.32113	50.10
3.33780	50.11
3.35447	50.10
3.37113	50.09
3.38780	50.07
3.40447	50.05
3.42113	50.04
3.43780	50.03
3.45447	50.02
3.47113	50.02
3.48780	50.01
3.50447	50.01
3.52113	50.00
3.53780	50.00
3.55447	50.01
3.57113	50.02
3.58780	50.02
3.60447	50.01
3.62113	50.02
3.63780	50.03
3.65447	50.03
3.67113	50.03
3.68780	50.03
3.70447	50.03
3.72113	50.02
3.73780	50.03
3.75447	50.03
3.77113	50.02
3.78780	50.03
3.80447	50.03
3.82113	50.04
3.83780	50.05
3.85447	50.05
3.87113	50.06
3.88780	50.06
3.90447	50.06
3.92113	50.05
3.93780	50.05
3.95447	50.05
3.97113	50.05
3.98780	50.05

[Status Trace (Injection Unit Temperature)]
Interval(msec)	1000
# of Points	240
Start Time(min)	0.004
End Time(min)	3.988
Intensity Units	
Intensity Multiplier	1
R.Time (min)	Intensity
0.00447	99.98
0.02113	99.97
0.03780	99.98
0.05447	99.98
0.07113	99.98
0.08780	99.98
0.10447	99.98
0.12113	99.98
0.13780	99.98
0.15447	99.98
0.17113	99.98
0.18780	99.99
0.20447	99.98
0.22113	99.98
0.23780	99.98
0.25447	99.99
0.27113	99.98
0.28780	99.98
0.30447	99.98
0.32113	99.98
0.33780	99.98
0.35447	99.98
0.37113	99.97
0.38780	99.98
0.40447	99.98
0.42113	99.98
0.43780	99.98
0.45447	99.98
0.47113	99.98
0.48780	99.98
0.50447	99.98
0.52113	99.97
0.53780	99.97
0.55447	99.98
0.57113	99.98
0.58780	99.98
0.60447	99.98
0.62113	99.97
0.63780	99.98
0.65447	99.98
0.67113	99.97
0.68780	99.97
0.70447	99.97
0.72113	99.98
0.73780	99.98
0.75447	99.97
0.77113	99.98
0.78780	99.98
0.80447	99.97
0.82113	99.97
0.83780	99.98
0.85447	99.97
0.87113	99.97
0.88780	99.99
0.90447	99.98
0.92113	99.98
0.93780	99.98
0.95447	99.98
0.97113	99.98
0.98780	99.98
1.00447	99.98
1.02113	99.98
1.03780	99.98
1.05447	99.99
1.07113	99.99
1.08780	99.98
1.10447	99.98
1.12113	99.98
1.13780	99.98
1.15447	99.98
1.17113	99.98
1.18780	99.98
1.20447	99.98
1.22113	99.98
1.23780	99.99
1.25447	99.98
1.27113	99.98
1.28780	99.98
1.30447	99.99
1.32113	99.98
1.33780	99.98
1.35447	99.99
1.37113	99.98
1.38780	99.98
1.40447	99.98
1.42113	99.98
1.43780	99.99
1.45447	99.98
1.47113	99.98
1.48780	99.98
1.50447	99.98
1.52113	99.98
1.53780	99.98
1.55447	99.97
1.57113	99.98
1.58780	99.98
1.60447	99.98
1.62113	99.98
1.63780	99.98
1.65447	99.99
1.67113	99.98
1.68780	99.99
1.70447	99.98
1.72113	99.98
1.73780	99.98
1.75447	99.98
1.77113	99.98
1.78780	99.98
1.80447	99.98
1.82113	99.98
1.83780	99.98
1.85447	99.98
1.87113	99.98
1.88780	99.98
1.90447	99.98
1.92113	99.98
1.93780	99.98
1.95447	99.98
1.97113	99.98
1.98780	99.97
2.00447	99.97
2.02113	99.97
2.03780	99.98
2.05447	99.97
2.07113	99.97
2.08780	99.98
2.10447	99.97
2.12113	99.97
2.13780	99.97
2.15447	99.97
2.17113	99.97
2.18780	99.97
2.20447	99.97
2.22113	99.97
2.23780	99.97
2.25447	99.97
2.27113	99.97
2.28780	99.97
2.30447	99.97
2.32113	99.97
2.33780	99.97
2.35447	99.96
2.37113	99.96
2.38780	99.97
2.40447	99.96
2.42113	99.97
2.43780	99.96
2.45447	99.97
2.47113	99.97
2.48780	99.97
2.50447	99.97
2.52113	99.97
2.53780	99.97
2.55447	99.97
2.57113	99.97
2.58780	99.97
2.60447	99.97
2.62113	99.97
2.63780	99.97
2.65447	99.97
2.67113	99.98
2.68780	99.98
2.70447	99.98
2.72113	99.98
2.73780	99.98
2.75447	99.98
2.77113	99.98
2.78780	99.98
2.80447	99.99
2.82113	99.98
2.83780	99.99
2.85447	99.99
2.87113	99.99
2.88780	99.99
2.90447	99.99
2.92113	99.99
2.93780	100.00
2.95447	100.00
2.97113	100.00
2.98780	100.00
3.00447	100.01
3.02113	100.01
3.03780	100.01
3.05447	100.01
3.07113	100.01
3.08780	100.02
3.10447	100.01
3.12113	100.02
3.13780	100.01
3.15447	100.02
3.17113	100.01
3.18780	100.02
3.20447	100.02
3.22113	100.03
3.23780	100.02
3.25447	100.02
3.27113	100.02
3.28780	100.03
3.30447	100.02
3.32113	100.03
3.33780	100.03
3.35447	100.03
3.37113	100.02
3.38780	100.03
3.40447	100.03
3.42113	100.03
3.43780	100.03
3.45447	100.03
3.47113	100.03
3.48780	100.03
3.50447	100.03
3.52113	100.03
3.53780	100.04
3.55447	100.04
3.57113	100.03
3.58780	100.04
3.60447	100.04
3.62113	100.03
3.63780	100.04
3.65447	100.04
3.67113	100.04
3.68780	100.04
3.70447	100.04
3.72113	100.04
3.73780	100.04
3.75447	100.04
3.77113	100.04
3.78780	100.05
3.80447	100.05
3.82113	100.05
3.83780	100.04
3.85447	100.04
3.87113	100.04
3.88780	100.04
3.90447	100.05
3.92113	100.04
3.93780	100.04
3.95447	100.04
3.97113	100.04
3.98780	100.04

[Status Trace (Carrier Gas Pressure)]
Interval(msec)	1000
# of Points	240
Start Time(min)	0.004
End Time(min)	3.988
Intensity Units	
Intensity Multiplier	1
R.Time (min)	Intensity
0.00447	58.00
0.02113	55.90
0.03780	56.68
0.05447	58.79
0.07113	59.75
0.08780	58.17
0.10447	57.97
0.12113	58.01
0.13780	58.01
0.15447	58.01
0.17113	58.00
0.18780	58.00
0.20447	58.00
0.22113	58.00
0.23780	58.00
0.25447	58.00
0.27113	58.00
0.28780	58.00
0.30447	58.00
0.32113	58.00
0.33780	58.00
0.35447	58.00
0.37113	58.00
0.38780	58.00
0.40447	58.00
0.42113	58.00
0.43780	58.00
0.45447	58.00
0.47113	58.00
0.48780	58.00
0.50447	58.00
0.52113	58.00
0.53780	58.00
0.55447	58.00
0.57113	58.00
0.58780	58.00
0.60447	58.00
0.62113	58.00
0.63780	58.00
0.65447	58.00
0.67113	58.00
0.68780	58.00
0.70447	58.00
0.72113	58.00
0.73780	58.00
0.75447	58.00
0.77113	58.00
0.78780	58.00
0.80447	58.00
0.82113	58.00
0.83780	58.00
0.85447	58.00
0.87113	58.00
0.88780	58.00
0.90447	58.00
0.92113	58.00
0.93780	58.00
0.95447	58.00
0.97113	58.00
0.98780	58.00
1.00447	58.00
1.02113	58.00
1.03780	58.00
1.05447	58.00
1.07113	58.00
1.08780	58.00
1.10447	58.00
1.12113	58.00
1.13780	58.00
1.15447	58.00
1.17113	58.00
1.18780	58.00
1.20447	58.00
1.22113	58.00
1.23780	58.00
1.25447	58.00
1.27113	58.00
1.28780	58.00
1.30447	58.00
1.32113	58.00
1.33780	58.00
1.35447	58.00
1.37113	58.00
1.38780	58.00
1.40447	58.00
1.42113	58.00
1.43780	58.00
1.45447	58.00
1.47113	58.00
1.48780	58.00
1.50447	58.00
1.52113	58.00
1.53780	58.00
1.55447	58.00
1.57113	58.00
1.58780	58.00
1.60447	58.00
1.62113	58.00
1.63780	58.00
1.65447	58.00
1.67113	58.01
1.68780	58.00
1.70447	58.00
1.72113	58.00
1.73780	58.00
1.75447	58.00
1.77113	58.00
1.78780	58.00
1.80447	58.00
1.82113	58.00
1.83780	58.00
1.85447	58.00
1.87113	58.00
1.88780	58.00
1.90447	58.00
1.92113	58.00
1.93780	58.00
1.95447	58.00
1.97113	58.00
1.98780	58.00
2.00447	58.00
2.02113	58.00
2.03780	58.00
2.05447	58.00
2.07113	58.00
2.08780	58.00
2.10447	58.00
2.12113	58.00
2.13780	58.00
2.15447	58.00
2.17113	58.00
2.18780	58.00
2.20447	58.00
2.22113	58.00
2.23780	58.00
2.25447	58.00
2.27113	58.00
2.28780	58.00
2.30447	58.00
2.32113	58.00
2.33780	58.00
2.35447	58.00
2.37113	57.99
2.38780	57.99
2.40447	57.99
2.42113	58.00
2.43780	58.00
2.45447	58.00
2.47113	58.00
2.48780	58.00
2.50447	57.98
2.52113	58.00
2.53780	58.00
2.55447	58.00
2.57113	58.00
2.58780	58.00
2.60447	58.00
2.62113	58.00
2.63780	58.00
2.65447	58.00
2.67113	58.00
2.68780	58.00
2.70447	58.00
2.72113	58.00
2.73780	58.00
2.75447	58.00
2.77113	58.00
2.78780	58.00
2.80447	58.00
2.82113	58.00
2.83780	58.00
2.85447	58.00
2.87113	58.00
2.88780	58.00
2.90447	58.00
2.92113	58.00
2.93780	58.00
2.95447	58.00
2.97113	58.00
2.98780	58.00
3.00447	58.00
3.02113	58.00
3.03780	58.00
3.05447	58.00
3.07113	58.00
3.08780	58.00
3.10447	58.00
3.12113	58.00
3.13780	58.00
3.15447	58.00
3.17113	58.00
3.18780	58.00
3.20447	58.00
3.22113	58.00
3.23780	58.00
3.25447	58.00
3.27113	58.00
3.28780	58.00
3.30447	58.00
3.32113	58.00
3.33780	58.00
3.35447	58.00
3.37113	58.00
3.38780	58.00
3.40447	58.00
3.42113	58.00
3.43780	58.00
3.45447	58.00
3.47113	58.00
3.48780	58.00
3.50447	58.00
3.52113	58.00
3.53780	58.00
3.55447	58.00
3.57113	58.00
3.58780	58.00
3.60447	58.00
3.62113	58.00
3.63780	58.00
3.65447	58.00
3.67113	58.00
3.68780	58.00
3.70447	58.00
3.72113	58.00
3.73780	58.00
3.75447	58.00
3.77113	58.00
3.78780	58.00
3.80447	58.00
3.82113	58.00
3.83780	58.00
3.85447	58.00
3.87113	58.00
3.88780	58.00
3.90447	58.00
3.92113	58.00
3.93780	58.00
3.95447	58.00
3.97113	58.00
3.98780	58.00

[Status Trace (Carrier Gas Flow)]
Interval(msec)	1000
# of Points	240
Start Time(min)	0.004
End Time(min)	3.988
Intensity Units	
Intensity Multiplier	1
R.Time (min)	Intensity
0.00447	34.52
0.02113	34.56
0.03780	34.54
0.05447	34.55
0.07113	34.49
0.08780	34.52
0.10447	34.53
0.12113	34.52
0.13780	34.52
0.15447	34.52
0.17113	34.52
0.18780	34.52
0.20447	34.52
0.22113	34.52
0.23780	34.52
0.25447	34.52
0.27113	34.52
0.28780	34.52
0.30447	34.52
0.32113	34.52
0.33780	34.52
0.35447	34.52
0.37113	34.52
0.38780	34.52
0.40447	34.52
0.42113	34.51
0.43780	34.52
0.45447	34.52
0.47113	34.52
0.48780	34.52
0.50447	34.52
0.52113	34.52
0.53780	34.52
0.55447	34.52
0.57113	34.52
0.58780	34.52
0.60447	34.52
0.62113	34.52
0.63780	34.52
0.65447	34.52
0.67113	34.52
0.68780	34.51
0.70447	34.52
0.72113	34.52
0.73780	34.52
0.75447	34.52
0.77113	34.52
0.78780	34.52
0.80447	34.52
0.82113	34.52
0.83780	34.52
0.85447	34.52
0.87113	34.51
0.88780	34.52
0.90447	34.52
0.92113	34.52
0.93780	34.52
0.95447	34.52
0.97113	34.52
0.98780	34.52
1.00447	34.52
1.02113	34.51
1.03780	34.53
1.05447	34.52
1.07113	34.52
1.08780	34.52
1.10447	34.52
1.12113	34.52
1.13780	34.51
1.15447	34.52
1.17113	34.52
1.18780	34.51
1.20447	34.52
1.22113	34.52
1.23780	34.52
1.25447	34.52
1.27113	34.52
1.28780	34.52
1.30447	34.52
1.32113	34.52
1.33780	34.52
1.35447	34.52
1.37113	34.51
1.38780	34.52
1.40447	34.52
1.42113	34.52
1.43780	34.52
1.45447	34.52
1.47113	34.52
1.48780	34.53
1.50447	34.51
1.52113	34.52
1.53780	34.52
1.55447	34.52
1.57113	34.51
1.58780	34.52
1.60447	34.52
1.62113	34.51
1.63780	34.51
1.65447	34.51
1.67113	34.52
1.68780	34.52
1.70447	34.51
1.72113	34.52
1.73780	34.52
1.75447	34.52
1.77113	34.51
1.78780	34.51
1.80447	34.52
1.82113	34.51
1.83780	34.52
1.85447	34.52
1.87113	34.52
1.88780	34.52
1.90447	34.52
1.92113	34.52
1.93780	34.52
1.95447	34.52
1.97113	34.52
1.98780	34.51
2.00447	34.52
2.02113	34.53
2.03780	34.52
2.05447	34.51
2.07113	34.52
2.08780	34.52
2.10447	34.52
2.12113	34.52
2.13780	34.52
2.15447	34.52
2.17113	34.52
2.18780	34.52
2.20447	34.52
2.22113	34.52
2.23780	34.52
2.25447	34.52
2.27113	34.52
2.28780	34.52
2.30447	34.52
2.32113	34.52
2.33780	34.53
2.35447	34.51
2.37113	34.52
2.38780	34.55
2.40447	34.52
2.42113	34.53
2.43780	34.52
2.45447	34.51
2.47113	34.52
2.48780	34.52
2.50447	34.60
2.52113	34.52
2.53780	34.52
2.55447	34.52
2.57113	34.52
2.58780	34.52
2.60447	34.52
2.62113	34.52
2.63780	34.51
2.65447	34.52
2.67113	34.52
2.68780	34.52
2.70447	34.52
2.72113	34.52
2.73780	34.52
2.75447	34.52
2.77113	34.52
2.78780	34.52
2.80447	34.52
2.82113	34.52
2.83780	34.52
2.85447	34.53
2.87113	34.52
2.88780	34.52
2.90447	34.52
2.92113	34.52
2.93780	34.52
2.95447	34.52
2.97113	34.52
2.98780	34.52
3.00447	34.52
3.02113	34.52
3.03780	34.52
3.05447	34.52
3.07113	34.52
3.08780	34.52
3.10447	34.52
3.12113	34.52
3.13780	34.52
3.15447	34.52
3.17113	34.52
3.18780	34.52
3.20447	34.52
3.22113	34.52
3.23780	34.51
3.25447	34.52
3.27113	34.52
3.28780	34.52
3.30447	34.52
3.32113	34.52
3.33780	34.52
3.35447	34.52
3.37113	34.52
3.38780	34.52
3.40447	34.52
3.42113	34.52
3.43780	34.52
3.45447	34.52
3.47113	34.51
3.48780	34.52
3.50447	34.52
3.52113	34.53
3.53780	34.52
3.55447	34.52
3.57113	34.52
3.58780	34.52
3.60447	34.52
3.62113	34.52
3.63780	34.52
3.65447	34.52
3.67113	34.52
3.68780	34.51
3.70447	34.52
3.72113	34.53
3.73780	34.52
3.75447	34.52
3.77113	34.52
3.78780	34.52
3.80447	34.52
3.82113	34.52
3.83780	34.52
3.85447	34.51
3.87113	34.52
3.88780	34.52
3.90447	34.52
3.92113	34.52
3.93780	34.52
3.95447	34.52
3.97113	34.51
3.98780	34.51

[Status Trace (Column Flow)]
Interval(msec)	1000
# of Points	240
Start Time(min)	0.004
End Time(min)	3.988
Intensity Units	
Intensity Multiplier	1
R.Time (min)	Intensity
0.00447	5.55
0.02113	5.31
0.03780	5.40
0.05447	5.64
0.07113	5.76
0.08780	5.57
0.10447	5.55
0.12113	5.55
0.13780	5.55
0.15447	5.55
0.17113	5.55
0.18780	5.55
0.20447	5.55
0.22113	5.55
0.23780	5.55
0.25447	5.55
0.27113	5.55
0.28780	5.55
0.30447	5.55
0.32113	5.55
0.33780	5.55
0.35447	5.55
0.37113	5.55
0.38780	5.55
0.40447	5.55
0.42113	5.55
0.43780	5.55
0.45447	5.55
0.47113	5.55
0.48780	5.55
0.50447	5.55
0.52113	5.55
0.53780	5.55
0.55447	5.55
0.57113	5.55
0.58780	5.55
0.60447	5.55
0.62113	5.55
0.63780	5.55
0.65447	5.55
0.67113	5.55
0.68780	5.55
0.70447	5.55
0.72113	5.55
0.73780	5.55
0.75447	5.55
0.77113	5.55
0.78780	5.55
0.80447	5.55
0.82113	5.55
0.83780	5.55
0.85447	5.55
0.87113	5.55
0.88780	5.55
0.90447	5.55
0.92113	5.55
0.93780	5.55
0.95447	5.55
0.97113	5.55
0.98780	5.55
1.00447	5.55
1.02113	5.55
1.03780	5.55
1.05447	5.55
1.07113	5.55
1.08780	5.55
1.10447	5.55
1.12113	5.55
1.13780	5.55
1.15447	5.55
1.17113	5.55
1.18780	5.55
1.20447	5.55
1.22113	5.55
1.23780	5.55
1.25447	5.55
1.27113	5.55
1.28780	5.55
1.30447	5.55
1.32113	5.55
1.33780	5.55
1.35447	5.55
1.37113	5.55
1.38780	5.55
1.40447	5.55
1.42113	5.55
1.43780	5.55
1.45447	5.55
1.47113	5.55
1.48780	5.55
1.50447	5.55
1.52113	5.55
1.53780	5.55
1.55447	5.55
1.57113	5.55
1.58780	5.55
1.60447	5.55
1.62113	5.55
1.63780	5.54
1.65447	5.54
1.67113	5.52
1.68780	5.51
1.70447	5.50
1.72113	5.49
1.73780	5.48
1.75447	5.47
1.77113	5.46
1.78780	5.45
1.80447	5.44
1.82113	5.43
1.83780	5.42
1.85447	5.41
1.87113	5.40
1.88780	5.39
1.90447	5.38
1.92113	5.37
1.93780	5.36
1.95447	5.35
1.97113	5.34
1.98780	5.33
2.00447	5.32
2.02113	5.31
2.03780	5.30
2.05447	5.29
2.07113	5.28
2.08780	5.27
2.10447	5.26
2.12113	5.25
2.13780	5.24
2.15447	5.24
2.17113	5.23
2.18780	5.22
2.20447	5.21
2.22113	5.20
2.23780	5.19
2.25447	5.18
2.27113	5.17
2.28780	5.16
2.30447	5.15
2.32113	5.14
2.33780	5.13
2.35447	5.12
2.37113	5.12
2.38780	5.12
2.40447	5.12
2.42113	5.12
2.43780	5.12
2.45447	5.12
2.47113	5.12
2.48780	5.12
2.50447	5.11
2.52113	5.12
2.53780	5.12
2.55447	5.11
2.57113	5.11
2.58780	5.11
2.60447	5.11
2.62113	5.11
2.63780	5.11
2.65447	5.11
2.67113	5.11
2.68780	5.11
2.70447	5.11
2.72113	5.11
2.73780	5.11
2.75447	5.11
2.77113	5.11
2.78780	5.11
2.80447	5.11
2.82113	5.11
2.83780	5.11
2.85447	5.11
2.87113	5.11
2.88780	5.11
2.90447	5.11
2.92113	5.11
2.93780	5.11
2.95447	5.11
2.97113	5.11
2.98780	5.11
3.00447	5.11
3.02113	5.11
3.03780	5.11
3.05447	5.11
3.07113	5.11
3.08780	5.11
3.10447	5.11
3.12113	5.11
3.13780	5.11
3.15447	5.11
3.17113	5.11
3.18780	5.11
3.20447	5.11
3.22113	5.11
3.23780	5.11
3.25447	5.10
3.27113	5.10
3.28780	5.10
3.30447	5.10
3.32113	5.10
3.33780	5.10
3.35447	5.10
3.37113	5.10
3.38780	5.10
3.40447	5.11
3.42113	5.11
3.43780	5.11
3.45447	5.11
3.47113	5.11
3.48780	5.11
3.50447	5.11
3.52113	5.11
3.53780	5.11
3.55447	5.11
3.57113	5.11
3.58780	5.11
3.60447	5.11
3.62113	5.11
3.63780	5.11
3.65447	5.11
3.67113	5.11
3.68780	5.11
3.70447	5.11
3.72113	5.11
3.73780	5.11
3.75447	5.11
3.77113	5.11
3.78780	5.11
3.80447	5.11
3.82113	5.11
3.83780	5.11
3.85447	5.11
3.87113	5.11
3.88780	5.11
3.90447	5.11
3.92113	5.11
3.93780	5.11
3.95447	5.11
3.97113	5.11
3.98780	5.11

[Status Trace (Linear Velocity)]
Interval(msec)	1000
# of Points	240
Start Time(min)	0.004
End Time(min)	3.988
Intensity Units	
Intensity Multiplier	1
R.Time (min)	Intensity
0.00447	39.02
0.02113	37.64
0.03780	38.16
0.05447	39.54
0.07113	40.17
0.08780	39.13
0.10447	39.00
0.12113	39.03
0.13780	39.03
0.15447	39.03
0.17113	39.02
0.18780	39.02
0.20447	39.02
0.22113	39.03
0.23780	39.02
0.25447	39.02
0.27113	39.02
0.28780	39.02
0.30447	39.02
0.32113	39.02
0.33780	39.02
0.35447	39.02
0.37113	39.02
0.38780	39.02
0.40447	39.02
0.42113	39.02
0.43780	39.02
0.45447	39.02
0.47113	39.02
0.48780	39.02
0.50447	39.02
0.52113	39.02
0.53780	39.02
0.55447	39.02
0.57113	39.02
0.58780	39.02
0.60447	39.02
0.62113	39.02
0.63780	39.02
0.65447	39.02
0.67113	39.03
0.68780	39.02
0.70447	39.02
0.72113	39.02
0.73780	39.02
0.75447	39.02
0.77113	39.02
0.78780	39.02
0.80447	39.02
0.82113	39.02
0.83780	39.02
0.85447	39.02
0.87113	39.02
0.88780	39.02
0.90447	39.02
0.92113	39.03
0.93780	39.03
0.95447	39.03
0.97113	39.03
0.98780	39.03
1.00447	39.03
1.02113	39.03
1.03780	39.03
1.05447	39.03
1.07113	39.03
1.08780	39.03
1.10447	39.03
1.12113	39.03
1.13780	39.03
1.15447	39.03
1.17113	39.02
1.18780	39.02
1.20447	39.02
1.22113	39.02
1.23780	39.03
1.25447	39.03
1.27113	39.03
1.28780	39.03
1.30447	39.03
1.32113	39.03
1.33780	39.02
1.35447	39.02
1.37113	39.02
1.38780	39.02
1.40447	39.02
1.42113	39.02
1.43780	39.02
1.45447	39.02
1.47113	39.02
1.48780	39.02
1.50447	39.02
1.52113	39.02
1.53780	39.02
1.55447	39.02
1.57113	39.02
1.58780	39.02
1.60447	39.02
1.62113	39.01
1.63780	39.00
1.65447	38.97
1.67113	38.94
1.68780	38.91
1.70447	38.87
1.72113	38.84
1.73780	38.81
1.75447	38.78
1.77113	38.74
1.78780	38.71
1.80447	38.68
1.82113	38.65
1.83780	38.62
1.85447	38.59
1.87113	38.56
1.88780	38.53
1.90447	38.50
1.92113	38.47
1.93780	38.44
1.95447	38.41
1.97113	38.37
1.98780	38.34
2.00447	38.32
2.02113	38.29
2.03780	38.26
2.05447	38.22
2.07113	38.19
2.08780	38.16
2.10447	38.13
2.12113	38.10
2.13780	38.07
2.15447	38.04
2.17113	38.01
2.18780	37.98
2.20447	37.96
2.22113	37.93
2.23780	37.90
2.25447	37.87
2.27113	37.84
2.28780	37.81
2.30447	37.78
2.32113	37.75
2.33780	37.72
2.35447	37.69
2.37113	37.68
2.38780	37.67
2.40447	37.67
2.42113	37.67
2.43780	37.67
2.45447	37.67
2.47113	37.67
2.48780	37.67
2.50447	37.66
2.52113	37.67
2.53780	37.66
2.55447	37.66
2.57113	37.66
2.58780	37.66
2.60447	37.66
2.62113	37.66
2.63780	37.66
2.65447	37.66
2.67113	37.66
2.68780	37.65
2.70447	37.65
2.72113	37.65
2.73780	37.65
2.75447	37.65
2.77113	37.65
2.78780	37.65
2.80447	37.65
2.82113	37.65
2.83780	37.65
2.85447	37.65
2.87113	37.65
2.88780	37.65
2.90447	37.65
2.92113	37.65
2.93780	37.64
2.95447	37.64
2.97113	37.64
2.98780	37.64
3.00447	37.64
3.02113	37.64
3.03780	37.64
3.05447	37.64
3.07113	37.64
3.08780	37.64
3.10447	37.64
3.12113	37.64
3.13780	37.64
3.15447	37.64
3.17113	37.64
3.18780	37.64
3.20447	37.64
3.22113	37.64
3.23780	37.63
3.25447	37.63
3.27113	37.63
3.28780	37.63
3.30447	37.63
3.32113	37.63
3.33780	37.63
3.35447	37.63
3.37113	37.63
3.38780	37.63
3.40447	37.63
3.42113	37.64
3.43780	37.64
3.45447	37.64
3.47113	37.64
3.48780	37.64
3.50447	37.64
3.52113	37.64
3.53780	37.64
3.55447	37.64
3.57113	37.64
3.58780	37.64
3.60447	37.64
3.62113	37.64
3.63780	37.64
3.65447	37.64
3.67113	37.64
3.68780	37.64
3.70447	37.64
3.72113	37.64
3.73780	37.64
3.75447	37.64
3.77113	37.64
3.78780	37.64
3.80447	37.64
3.82113	37.64
3.83780	37.64
3.85447	37.64
3.87113	37.63
3.88780	37.63
3.90447	37.63
3.92113	37.63
3.93780	37.64
3.95447	37.64
3.97113	37.64
3.98780	37.64

