[Header]
Application Name	LabSolutions
Version	5.110
Data File Name	C:\Users\User\Desktop\GC Analyses\Jack\Nachusa Grasslands Sampling\T4 Timepoint July 12th\T4_07122022_050.gcd
Output Date	3/17/2023
Output Time	12:04:54 PM

[File Information]
Type	Data File
Generated	3/14/2023 8:56:41 PM
Generated by	System Administrator
Modified	3/14/2023 9:03:30 PM
Modified by	System Administrator

[Sample Information]
Operator Name	System Administrator
Acquired	3/14/2023 8:59:30 PM
Sample Type	0:Unknown
Level	0
Sample Name	050
Sample ID	050
ISTD Amount1	1
ISTD Amount2	1
ISTD Amount3	1
ISTD Amount4	1
ISTD Amount5	1
ISTD Amount6	1
ISTD Amount7	1
ISTD Amount8	1
ISTD Amount9	1
ISTD Amount10	1
ISTD Amount11	1
ISTD Amount12	1
ISTD Amount13	1
ISTD Amount14	1
ISTD Amount15	1
ISTD Amount16	1
ISTD Amount17	1
ISTD Amount18	1
ISTD Amount19	1
ISTD Amount20	1
ISTD Amount21	1
ISTD Amount22	1
ISTD Amount23	1
ISTD Amount24	1
ISTD Amount25	1
ISTD Amount26	1
ISTD Amount27	1
ISTD Amount28	1
ISTD Amount29	1
ISTD Amount30	1
ISTD Amount31	1
ISTD Amount32	1
Sample Amount	1
Dilution Factor	1
Vial#	49
Injection Volume	1
Injection Count	1
Bar Code	

[Original Files]
Data File	C:\Users\User\Desktop\GC Analyses\Jack\Nachusa Grasslands Sampling\T4 Timepoint July 12th\T4_07122022_050.gcd
Method File	C:\LabSolutions\Data\GHG_4min_2022\ghg3_togas_w_acet_4 min_new_int.gcm
Batch File	C:\LabSolutions\Data\AutoSamplerTesting\T4_07122022.gcb
Report Format File	c:\LabSolutions\System\DEFAULT.lsr

[File Description]


[Configuration]
Instrument Name	C0B7VH3-Instrument1
Instrument #	1
Line #	1
# of Detectors	3
Detector ID	DET#1	DET#2	DET#3
Detector Name	FID	PTCD	ECD
# of Channels	1	1	1

[Peak Table(Ch1)]
# of Peaks	3
Peak#	R.Time	I.Time	F.Time	Area	Height	A/H	Conc.	Mark	ID#	Name	k'	Plate #	Plate Ht.	Tailing	Resolution	Sep.Factor	Area Ratio	Height Ratio	Conc. %	Norm Conc.
1	1.476	1.439	1.534	23912	11831	2.021	168.817	   	1	CO	0.000	9667	15.516	1.270	0.000	0.000	0	0	12.160	12.160
2	1.571	1.538	1.622	4134	2131	1.940	79.930	   	2	CH4	0.065	11854	12.654	1.119	1.619	0.000	0	0	5.757	5.757
3	1.996	1.949	2.469	4540440	2179602	2.083	1139.527	   	3	CO2	0.353	17099	8.772	1.293	7.161	5.462	0	0	82.082	82.082

[Peak Table(Ch2)]
# of Peaks	0

[Peak Table(Ch3)]
# of Peaks	5
Peak#	R.Time	I.Time	F.Time	Area	Height	A/H	Conc.	Mark	ID#	Name	k'	Plate #	Plate Ht.	Tailing	Resolution	Sep.Factor	Area Ratio	Height Ratio	Conc. %	Norm Conc.
1	2.462	2.235	2.510	2873	718	4.000	0.000	   			0.000	8413	17.829	0.000	0.000	0.000	0	0	0.000	0.000
2	2.532	2.510	2.590	1430	419	3.413	0.000	 V 			0.028	4799	31.257	0.000	0.550	0.000	0	0	0.000	0.000
3	2.598	2.590	2.675	562	206	2.732	0.000	 V 			0.055	732	204.971	0.000	0.249	1.947	0	0	0.000	0.000
4	2.880	2.700	3.067	19053	4733	4.026	0.487	   	1	N2O	0.170	12890	11.637	1.511	1.163	3.081	0	0	100.000	100.000
5	3.283	3.074	3.995	19584	631	31.014	0.000	   	2	SF6	0.334	196	765.858	2.142	0.776	1.965	0	0	0.000	0.000

[Compound Results(Ch1)]
# of IDs	6
ID#	Name	R.Time	Area	Height	Conc.	Curve	3rd	2nd	1st	Constant	Area Ratio	Height Ratio	Conc. %	Norm Conc.
1	CO	1.476	23912	11831	168.817	Linear	0.000000e+00	0.000000e+00	1.416423e+002	0.000000e+00	0	0	12.160	12.160
2	CH4	1.571	4134	2131	79.930	Linear	0.000000e+00	0.000000e+00	5.171738e+001	0.000000e+00	0	0	5.757	5.757
3	CO2	1.996	4540440	2179602	1139.527	Linear	0.000000e+00	0.000000e+00	3.984494e+003	0.000000e+00	0	0	82.082	82.082
4	Ethylene	0.000	0	0	0.000	Linear	0.000000e+00	0.000000e+00	0.000000e+00	0.000000e+00	0	0	0.000	0.000
5	Acetylene	0.000	0	0	0.000	Linear	0.000000e+00	0.000000e+00	0.000000e+00	0.000000e+00	0	0	0.000	0.000
6	Ethane	0.000	0	0	0.000	Linear	0.000000e+00	0.000000e+00	0.000000e+00	0.000000e+00	0	0	0.000	0.000

[Compound Results(Ch2)]
# of IDs	5
ID#	Name	R.Time	Area	Height	Conc.	Curve	3rd	2nd	1st	Constant	Area Ratio	Height Ratio	Conc. %	Norm Conc.
1	Hydrogen	0.000	0	0	0.000	Linear	0.000000e+00	0.000000e+00	0.000000e+00	0.000000e+00	0	0	0.000	0.000
2	Oxygen	0.000	0	0	0.000	Linear	0.000000e+00	0.000000e+00	0.000000e+00	0.000000e+00	0	0	0.000	0.000
3	Nitrogen	0.000	0	0	0.000	Linear	0.000000e+00	0.000000e+00	0.000000e+00	0.000000e+00	0	0	0.000	0.000
4	Methane	0.000	0	0	0.000	Linear	0.000000e+00	0.000000e+00	0.000000e+00	0.000000e+00	0	0	0.000	0.000
5	Carbon Monoxide	0.000	0	0	0.000	Linear	0.000000e+00	0.000000e+00	0.000000e+00	0.000000e+00	0	0	0.000	0.000

[Compound Results(Ch3)]
# of IDs	2
ID#	Name	R.Time	Area	Height	Conc.	Curve	3rd	2nd	1st	Constant	Area Ratio	Height Ratio	Conc. %	Norm Conc.
1	N2O	2.880	19053	4733	0.487	Linear	0.000000e+00	0.000000e+00	3.915173e+004	0.000000e+00	0	0	100.000	100.000
2	SF6	3.283	19584	631	0.000	Linear	0.000000e+00	0.000000e+00	0.000000e+00	0.000000e+00	0	0	0.000	0.000

[Group Results(Ch1)]
# of Groups	0

[Group Results(Ch2)]
# of Groups	0

[Group Results(Ch3)]
# of Groups	0

[Chromatogram (Ch1)]
Interval(msec)	220
# of Points	1091
Start Time(min)	0.002
End Time(min)	3.998
R.Time (min)	Intensity
0.00167	-9
0.00533	-11
0.00900	-7
0.01267	-1
0.01633	4
0.02000	5
0.02367	6
0.02733	5
0.03100	4
0.03467	7
0.03833	13
0.04200	19
0.04567	22
0.04933	20
0.05300	16
0.05667	11
0.06033	4
0.06400	0
0.06767	2
0.07133	6
0.07500	7
0.07867	8
0.08233	9
0.08600	11
0.08967	16
0.09333	23
0.09700	31
0.10067	38
0.10433	45
0.10800	48
0.11167	51
0.11533	54
0.11900	58
0.12267	62
0.12633	67
0.13000	73
0.13367	74
0.13733	70
0.14100	67
0.14467	62
0.14833	60
0.15200	60
0.15567	65
0.15933	74
0.16300	80
0.16667	83
0.17033	84
0.17400	84
0.17767	87
0.18133	90
0.18500	92
0.18867	87
0.19233	74
0.19600	60
0.19967	48
0.20333	39
0.20700	27
0.21067	11
0.21433	2
0.21800	-2
0.22167	-3
0.22533	-4
0.22900	0
0.23267	6
0.23633	10
0.24000	11
0.24367	11
0.24733	9
0.25100	9
0.25467	9
0.25833	6
0.26200	-1
0.26567	-8
0.26933	-10
0.27300	-12
0.27667	-20
0.28033	-26
0.28400	-26
0.28767	-16
0.29133	-2
0.29500	8
0.29867	9
0.30233	3
0.30600	0
0.30967	-1
0.31333	-2
0.31700	-2
0.32067	2
0.32433	9
0.32800	17
0.33167	18
0.33533	17
0.33900	19
0.34267	21
0.34633	16
0.35000	3
0.35367	-11
0.35733	-20
0.36100	-27
0.36467	-33
0.36833	-36
0.37200	-36
0.37567	-37
0.37933	-36
0.38300	-39
0.38667	-39
0.39033	-38
0.39400	-29
0.39767	-14
0.40133	-4
0.40500	-3
0.40867	-9
0.41233	-11
0.41600	-9
0.41967	-7
0.42333	-6
0.42700	-4
0.43067	1
0.43433	9
0.43800	15
0.44167	15
0.44533	8
0.44900	0
0.45267	-7
0.45633	-12
0.46000	-15
0.46367	-17
0.46733	-20
0.47100	-25
0.47467	-21
0.47833	-20
0.48200	-19
0.48567	-18
0.48933	-14
0.49300	-13
0.49667	-14
0.50033	-11
0.50400	-13
0.50767	-20
0.51133	-30
0.51500	-33
0.51867	-33
0.52233	-31
0.52600	-28
0.52967	-22
0.53333	-16
0.53700	-11
0.54067	-6
0.54433	-5
0.54800	-9
0.55167	-12
0.55533	-6
0.55900	2
0.56267	6
0.56633	6
0.57000	6
0.57367	8
0.57733	9
0.58100	8
0.58467	3
0.58833	-5
0.59200	-13
0.59567	-19
0.59933	-24
0.60300	-30
0.60667	-38
0.61033	-45
0.61400	-47
0.61767	-42
0.62133	-36
0.62500	-32
0.62867	-31
0.63233	-29
0.63600	-27
0.63967	-29
0.64333	-34
0.64700	-35
0.65067	-34
0.65433	-33
0.65800	-30
0.66167	-29
0.66533	-27
0.66900	-27
0.67267	-28
0.67633	-31
0.68000	-32
0.68367	-30
0.68733	-29
0.69100	-24
0.69467	-19
0.69833	-18
0.70200	-17
0.70567	-15
0.70933	-14
0.71300	-13
0.71667	-15
0.72033	-15
0.72400	-11
0.72767	-8
0.73133	-16
0.73500	-30
0.73867	-35
0.74233	-32
0.74600	-26
0.74967	-21
0.75333	-19
0.75700	-22
0.76067	-26
0.76433	-29
0.76800	-28
0.77167	-25
0.77533	-22
0.77900	-21
0.78267	-23
0.78633	-29
0.79000	-33
0.79367	-37
0.79733	-37
0.80100	-34
0.80467	-27
0.80833	-22
0.81200	-17
0.81567	-11
0.81933	-10
0.82300	-11
0.82667	-10
0.83033	-13
0.83400	-19
0.83767	-32
0.84133	-43
0.84500	-52
0.84867	-60
0.85233	-61
0.85600	-57
0.85967	-50
0.86333	-45
0.86700	-43
0.87067	-44
0.87433	-48
0.87800	-53
0.88167	-52
0.88533	-47
0.88900	-48
0.89267	-55
0.89633	-63
0.90000	-65
0.90367	-61
0.90733	-58
0.91100	-55
0.91467	-51
0.91833	-47
0.92200	-42
0.92567	-42
0.92933	-48
0.93300	-53
0.93667	-55
0.94033	-56
0.94400	-59
0.94767	-62
0.95133	-65
0.95500	-64
0.95867	-61
0.96233	-56
0.96600	-50
0.96967	-45
0.97333	-43
0.97700	-43
0.98067	-43
0.98433	-39
0.98800	-32
0.99167	-29
0.99533	-27
0.99900	-23
1.00267	-24
1.00633	-32
1.01000	-40
1.01367	-46
1.01733	-49
1.02100	-50
1.02467	-48
1.02833	-43
1.03200	-39
1.03567	-38
1.03933	-36
1.04300	-30
1.04667	-22
1.05033	-20
1.05400	-19
1.05767	-17
1.06133	-14
1.06500	-15
1.06867	-16
1.07233	-11
1.07600	-3
1.07967	3
1.08333	3
1.08700	-6
1.09067	-15
1.09433	-21
1.09800	-27
1.10167	-27
1.10533	-20
1.10900	-15
1.11267	-14
1.11633	-17
1.12000	-24
1.12367	-33
1.12733	-39
1.13100	-43
1.13467	-47
1.13833	-51
1.14200	-51
1.14567	-48
1.14933	-44
1.15300	-42
1.15667	-37
1.16033	-34
1.16400	-31
1.16767	-25
1.17133	-20
1.17500	-22
1.17867	-23
1.18233	-22
1.18600	-16
1.18967	-13
1.19333	-11
1.19700	-14
1.20067	-23
1.20433	-34
1.20800	-42
1.21167	-45
1.21533	-45
1.21900	-47
1.22267	-48
1.22633	-49
1.23000	-45
1.23367	-43
1.23733	-42
1.24100	-36
1.24467	-36
1.24833	-39
1.25200	-39
1.25567	-34
1.25933	-30
1.26300	-33
1.26667	-36
1.27033	-38
1.27400	-40
1.27767	-39
1.28133	-35
1.28500	-30
1.28867	-25
1.29233	-23
1.29600	-23
1.29967	-25
1.30333	-30
1.30700	-37
1.31067	-44
1.31433	-49
1.31800	-53
1.32167	-54
1.32533	-55
1.32900	-57
1.33267	-58
1.33633	-55
1.34000	-50
1.34367	-48
1.34733	-49
1.35100	-49
1.35467	-48
1.35833	-50
1.36200	-51
1.36567	-50
1.36933	-49
1.37300	-46
1.37667	-39
1.38033	-34
1.38400	-34
1.38767	-37
1.39133	-38
1.39500	-41
1.39867	-43
1.40233	-47
1.40600	-53
1.40967	-60
1.41333	-64
1.41700	-67
1.42067	-65
1.42433	-55
1.42800	-45
1.43167	-39
1.43533	-41
1.43900	-36
1.44267	3
1.44633	133
1.45000	518
1.45367	1509
1.45733	3320
1.46100	5633
1.46467	7912
1.46833	9798
1.47200	11127
1.47567	11782
1.47933	11645
1.48300	10704
1.48667	9151
1.49033	7309
1.49400	5510
1.49767	3968
1.50133	2749
1.50500	1841
1.50867	1192
1.51233	746
1.51600	445
1.51967	245
1.52333	117
1.52700	29
1.53067	-32
1.53433	-71
1.53800	-89
1.54167	-53
1.54533	96
1.54900	389
1.55267	791
1.55633	1217
1.56000	1587
1.56367	1865
1.56733	2025
1.57100	2039
1.57467	1894
1.57833	1612
1.58200	1260
1.58567	915
1.58933	618
1.59300	386
1.59667	216
1.60033	100
1.60400	26
1.60767	-19
1.61133	-51
1.61500	-72
1.61867	-85
1.62233	-96
1.62600	-103
1.62967	-104
1.63333	-107
1.63700	-116
1.64067	-128
1.64433	-135
1.64800	-137
1.65167	-132
1.65533	-122
1.65900	-111
1.66267	-100
1.66633	-92
1.67000	-90
1.67367	-93
1.67733	-97
1.68100	-104
1.68467	-110
1.68833	-111
1.69200	-110
1.69567	-112
1.69933	-113
1.70300	-111
1.70667	-105
1.71033	-99
1.71400	-100
1.71767	-105
1.72133	-108
1.72500	-110
1.72867	-105
1.73233	-90
1.73600	-77
1.73967	-70
1.74333	-71
1.74700	-80
1.75067	-92
1.75433	-100
1.75800	-102
1.76167	-103
1.76533	-98
1.76900	-94
1.77267	-94
1.77633	-97
1.78000	-98
1.78367	-95
1.78733	-93
1.79100	-90
1.79467	-89
1.79833	-88
1.80200	-91
1.80567	-96
1.80933	-101
1.81300	-101
1.81667	-99
1.82033	-97
1.82400	-99
1.82767	-97
1.83133	-88
1.83500	-80
1.83867	-75
1.84233	-73
1.84600	-76
1.84967	-80
1.85333	-84
1.85700	-89
1.86067	-94
1.86433	-98
1.86800	-104
1.87167	-105
1.87533	-99
1.87900	-93
1.88267	-92
1.88633	-90
1.89000	-92
1.89367	-98
1.89733	-102
1.90100	-101
1.90467	-97
1.90833	-91
1.91200	-83
1.91567	-76
1.91933	-75
1.92300	-73
1.92667	-71
1.93033	-75
1.93400	-81
1.93767	-84
1.94133	-87
1.94500	-90
1.94867	-85
1.95233	-51
1.95600	199
1.95967	1817
1.96333	9962
1.96700	40936
1.97067	130515
1.97433	325907
1.97800	649168
1.98167	1064034
1.98533	1491548
1.98900	1852298
1.99267	2090767
1.99633	2179549
2.00000	2117521
2.00367	1927637
2.00733	1651081
2.01100	1337100
2.01467	1030699
2.01833	762702
2.02200	547037
2.02567	384041
2.02933	266349
2.03300	184030
2.03667	127633
2.04033	89459
2.04400	63739
2.04767	46390
2.05133	34596
2.05500	26478
2.05867	20798
2.06233	16749
2.06600	13797
2.06967	11602
2.07333	9941
2.07700	8655
2.08067	7632
2.08433	6797
2.08800	6105
2.09167	5522
2.09533	5029
2.09900	4606
2.10267	4240
2.10633	3922
2.11000	3645
2.11367	3407
2.11733	3197
2.12100	3005
2.12467	2834
2.12833	2684
2.13200	2550
2.13567	2431
2.13933	2320
2.14300	2213
2.14667	2105
2.15033	1998
2.15400	1898
2.15767	1808
2.16133	1727
2.16500	1651
2.16867	1583
2.17233	1521
2.17600	1458
2.17967	1400
2.18333	1344
2.18700	1294
2.19067	1250
2.19433	1203
2.19800	1159
2.20167	1121
2.20533	1092
2.20900	1064
2.21267	1034
2.21633	1006
2.22000	981
2.22367	960
2.22733	942
2.23100	918
2.23467	894
2.23833	871
2.24200	848
2.24567	827
2.24933	812
2.25300	802
2.25667	789
2.26033	772
2.26400	751
2.26767	726
2.27133	704
2.27500	691
2.27867	686
2.28233	676
2.28600	659
2.28967	639
2.29333	618
2.29700	594
2.30067	574
2.30433	558
2.30800	540
2.31167	521
2.31533	505
2.31900	492
2.32267	485
2.32633	479
2.33000	471
2.33367	464
2.33733	457
2.34100	451
2.34467	444
2.34833	442
2.35200	441
2.35567	439
2.35933	435
2.36300	431
2.36667	422
2.37033	410
2.37400	402
2.37767	395
2.38133	393
2.38500	395
2.38867	395
2.39233	390
2.39600	378
2.39967	365
2.40333	354
2.40700	349
2.41067	342
2.41433	329
2.41800	315
2.42167	306
2.42533	302
2.42900	300
2.43267	300
2.43633	304
2.44000	308
2.44367	315
2.44733	322
2.45100	325
2.45467	319
2.45833	305
2.46200	290
2.46567	277
2.46933	264
2.47300	253
2.47667	249
2.48033	250
2.48400	250
2.48767	250
2.49133	247
2.49500	247
2.49867	250
2.50233	252
2.50600	255
2.50967	256
2.51333	258
2.51700	260
2.52067	261
2.52433	261
2.52800	258
2.53167	261
2.53533	270
2.53900	281
2.54267	286
2.54633	281
2.55000	262
2.55367	237
2.55733	213
2.56100	196
2.56467	188
2.56833	184
2.57200	183
2.57567	183
2.57933	185
2.58300	186
2.58667	183
2.59033	180
2.59400	181
2.59767	186
2.60133	190
2.60500	189
2.60867	184
2.61233	178
2.61600	173
2.61967	172
2.62333	171
2.62700	168
2.63067	163
2.63433	165
2.63800	165
2.64167	159
2.64533	158
2.64900	165
2.65267	168
2.65633	170
2.66000	175
2.66367	176
2.66733	169
2.67100	157
2.67467	147
2.67833	140
2.68200	135
2.68567	131
2.68933	134
2.69300	142
2.69667	148
2.70033	152
2.70400	152
2.70767	149
2.71133	145
2.71500	139
2.71867	135
2.72233	131
2.72600	122
2.72967	116
2.73333	111
2.73700	106
2.74067	104
2.74433	106
2.74800	107
2.75167	107
2.75533	109
2.75900	108
2.76267	107
2.76633	110
2.77000	113
2.77367	114
2.77733	116
2.78100	124
2.78467	133
2.78833	140
2.79200	144
2.79567	147
2.79933	150
2.80300	148
2.80667	140
2.81033	129
2.81400	121
2.81767	116
2.82133	111
2.82500	103
2.82867	102
2.83233	99
2.83600	97
2.83967	99
2.84333	106
2.84700	113
2.85067	111
2.85433	111
2.85800	114
2.86167	117
2.86533	116
2.86900	114
2.87267	120
2.87633	128
2.88000	133
2.88367	137
2.88733	137
2.89100	126
2.89467	107
2.89833	92
2.90200	86
2.90567	88
2.90933	94
2.91300	100
2.91667	103
2.92033	108
2.92400	109
2.92767	102
2.93133	95
2.93500	95
2.93867	99
2.94233	98
2.94600	96
2.94967	95
2.95333	92
2.95700	88
2.96067	82
2.96433	77
2.96800	74
2.97167	76
2.97533	83
2.97900	90
2.98267	94
2.98633	100
2.99000	101
2.99367	96
2.99733	91
3.00100	86
3.00467	85
3.00833	88
3.01200	95
3.01567	103
3.01933	107
3.02300	109
3.02667	108
3.03033	101
3.03400	93
3.03767	83
3.04133	74
3.04500	64
3.04867	56
3.05233	53
3.05600	55
3.05967	58
3.06333	59
3.06700	60
3.07067	61
3.07433	62
3.07800	65
3.08167	69
3.08533	75
3.08900	79
3.09267	84
3.09633	88
3.10000	85
3.10367	80
3.10733	72
3.11100	62
3.11467	56
3.11833	51
3.12200	49
3.12567	50
3.12933	53
3.13300	57
3.13667	61
3.14033	62
3.14400	63
3.14767	68
3.15133	69
3.15500	65
3.15867	63
3.16233	64
3.16600	65
3.16967	67
3.17333	67
3.17700	63
3.18067	59
3.18433	54
3.18800	46
3.19167	37
3.19533	34
3.19900	37
3.20267	43
3.20633	47
3.21000	48
3.21367	48
3.21733	49
3.22100	46
3.22467	45
3.22833	44
3.23200	42
3.23567	42
3.23933	43
3.24300	39
3.24667	37
3.25033	44
3.25400	49
3.25767	47
3.26133	40
3.26500	35
3.26867	37
3.27233	43
3.27600	46
3.27967	45
3.28333	41
3.28700	37
3.29067	33
3.29433	29
3.29800	29
3.30167	30
3.30533	31
3.30900	33
3.31267	37
3.31633	42
3.32000	47
3.32367	50
3.32733	47
3.33100	40
3.33467	32
3.33833	25
3.34200	22
3.34567	20
3.34933	18
3.35300	18
3.35667	20
3.36033	22
3.36400	26
3.36767	33
3.37133	41
3.37500	43
3.37867	41
3.38233	34
3.38600	29
3.38967	28
3.39333	29
3.39700	32
3.40067	33
3.40433	33
3.40800	38
3.41167	46
3.41533	53
3.41900	52
3.42267	48
3.42633	46
3.43000	44
3.43367	44
3.43733	47
3.44100	43
3.44467	31
3.44833	20
3.45200	11
3.45567	6
3.45933	7
3.46300	14
3.46667	19
3.47033	21
3.47400	23
3.47767	27
3.48133	28
3.48500	22
3.48867	11
3.49233	-0
3.49600	-12
3.49967	-23
3.50333	-28
3.50700	-27
3.51067	-23
3.51433	-23
3.51800	-27
3.52167	-29
3.52533	-24
3.52900	-13
3.53267	-0
3.53633	8
3.54000	11
3.54367	14
3.54733	12
3.55100	11
3.55467	10
3.55833	9
3.56200	3
3.56567	-7
3.56933	-17
3.57300	-21
3.57667	-20
3.58033	-15
3.58400	-7
3.58767	-3
3.59133	-3
3.59500	-3
3.59867	-0
3.60233	6
3.60600	14
3.60967	19
3.61333	17
3.61700	11
3.62067	8
3.62433	12
3.62800	16
3.63167	14
3.63533	13
3.63900	7
3.64267	0
3.64633	-6
3.65000	-7
3.65367	-8
3.65733	-12
3.66100	-19
3.66467	-23
3.66833	-20
3.67200	-14
3.67567	-14
3.67933	-16
3.68300	-15
3.68667	-12
3.69033	-10
3.69400	-12
3.69767	-14
3.70133	-14
3.70500	-13
3.70867	-10
3.71233	-9
3.71600	-12
3.71967	-18
3.72333	-22
3.72700	-29
3.73067	-36
3.73433	-36
3.73800	-32
3.74167	-28
3.74533	-24
3.74900	-19
3.75267	-12
3.75633	-13
3.76000	-26
3.76367	-36
3.76733	-35
3.77100	-31
3.77467	-33
3.77833	-36
3.78200	-35
3.78567	-35
3.78933	-34
3.79300	-28
3.79667	-25
3.80033	-20
3.80400	-19
3.80767	-15
3.81133	-9
3.81500	-11
3.81867	-14
3.82233	-8
3.82600	-3
3.82967	-6
3.83333	-15
3.83700	-24
3.84067	-30
3.84433	-35
3.84800	-41
3.85167	-47
3.85533	-51
3.85900	-50
3.86267	-45
3.86633	-35
3.87000	-29
3.87367	-32
3.87733	-38
3.88100	-41
3.88467	-37
3.88833	-27
3.89200	-26
3.89567	-32
3.89933	-38
3.90300	-47
3.90667	-54
3.91033	-57
3.91400	-53
3.91767	-46
3.92133	-44
3.92500	-48
3.92867	-51
3.93233	-45
3.93600	-39
3.93967	-39
3.94333	-41
3.94700	-42
3.95067	-42
3.95433	-42
3.95800	-37
3.96167	-29
3.96533	-23
3.96900	-23
3.97267	-26
3.97633	-29
3.98000	-31
3.98367	-29
3.98733	-27
3.99100	-34
3.99467	-43
3.99833	-48

[Chromatogram (Ch2)]
Interval(msec)	220
# of Points	1091
Start Time(min)	0.002
End Time(min)	3.998
R.Time (min)	Intensity
0.00167	0
0.00533	1
0.00900	1
0.01267	1
0.01633	1
0.02000	1
0.02367	1
0.02733	1
0.03100	1
0.03467	1
0.03833	1
0.04200	1
0.04567	1
0.04933	1
0.05300	1
0.05667	1
0.06033	1
0.06400	1
0.06767	1
0.07133	1
0.07500	1
0.07867	2
0.08233	2
0.08600	2
0.08967	2
0.09333	2
0.09700	2
0.10067	2
0.10433	2
0.10800	2
0.11167	2
0.11533	2
0.11900	2
0.12267	2
0.12633	2
0.13000	2
0.13367	2
0.13733	2
0.14100	2
0.14467	2
0.14833	2
0.15200	2
0.15567	2
0.15933	2
0.16300	1
0.16667	1
0.17033	1
0.17400	2
0.17767	2
0.18133	2
0.18500	2
0.18867	2
0.19233	2
0.19600	2
0.19967	2
0.20333	2
0.20700	1
0.21067	1
0.21433	1
0.21800	0
0.22167	-0
0.22533	-1
0.22900	-1
0.23267	-1
0.23633	-1
0.24000	-1
0.24367	-1
0.24733	-1
0.25100	-1
0.25467	-1
0.25833	-1
0.26200	-1
0.26567	-1
0.26933	-0
0.27300	0
0.27667	0
0.28033	1
0.28400	1
0.28767	1
0.29133	1
0.29500	1
0.29867	1
0.30233	1
0.30600	1
0.30967	1
0.31333	1
0.31700	1
0.32067	1
0.32433	1
0.32800	1
0.33167	1
0.33533	2
0.33900	2
0.34267	3
0.34633	3
0.35000	3
0.35367	3
0.35733	3
0.36100	3
0.36467	3
0.36833	3
0.37200	3
0.37567	3
0.37933	3
0.38300	2
0.38667	2
0.39033	2
0.39400	1
0.39767	1
0.40133	1
0.40500	1
0.40867	1
0.41233	1
0.41600	1
0.41967	1
0.42333	1
0.42700	1
0.43067	1
0.43433	2
0.43800	2
0.44167	2
0.44533	1
0.44900	1
0.45267	1
0.45633	1
0.46000	1
0.46367	1
0.46733	1
0.47100	1
0.47467	1
0.47833	0
0.48200	-0
0.48567	-1
0.48933	-1
0.49300	-1
0.49667	-1
0.50033	-1
0.50400	-1
0.50767	-1
0.51133	-1
0.51500	-1
0.51867	-1
0.52233	-1
0.52600	-1
0.52967	-1
0.53333	-1
0.53700	-1
0.54067	-1
0.54433	-1
0.54800	-1
0.55167	-1
0.55533	-1
0.55900	-1
0.56267	-1
0.56633	-1
0.57000	-1
0.57367	-1
0.57733	-1
0.58100	-1
0.58467	-1
0.58833	-1
0.59200	-1
0.59567	-1
0.59933	-1
0.60300	-0
0.60667	-0
0.61033	0
0.61400	0
0.61767	1
0.62133	1
0.62500	1
0.62867	1
0.63233	1
0.63600	1
0.63967	1
0.64333	1
0.64700	0
0.65067	0
0.65433	-0
0.65800	0
0.66167	0
0.66533	0
0.66900	0
0.67267	0
0.67633	-0
0.68000	-0
0.68367	-0
0.68733	-0
0.69100	-0
0.69467	-0
0.69833	-0
0.70200	-0
0.70567	-0
0.70933	-0
0.71300	-0
0.71667	-0
0.72033	-0
0.72400	-0
0.72767	-0
0.73133	0
0.73500	0
0.73867	0
0.74233	0
0.74600	0
0.74967	0
0.75333	0
0.75700	1
0.76067	1
0.76433	1
0.76800	0
0.77167	0
0.77533	1
0.77900	1
0.78267	1
0.78633	1
0.79000	1
0.79367	2
0.79733	2
0.80100	2
0.80467	3
0.80833	3
0.81200	3
0.81567	3
0.81933	3
0.82300	2
0.82667	2
0.83033	2
0.83400	2
0.83767	1
0.84133	1
0.84500	1
0.84867	1
0.85233	0
0.85600	0
0.85967	0
0.86333	0
0.86700	0
0.87067	0
0.87433	1
0.87800	1
0.88167	1
0.88533	2
0.88900	2
0.89267	2
0.89633	2
0.90000	2
0.90367	2
0.90733	2
0.91100	2
0.91467	2
0.91833	1
0.92200	1
0.92567	1
0.92933	0
0.93300	0
0.93667	-0
0.94033	-0
0.94400	-1
0.94767	-1
0.95133	-1
0.95500	-1
0.95867	-1
0.96233	-1
0.96600	-1
0.96967	-1
0.97333	-1
0.97700	-1
0.98067	-1
0.98433	-1
0.98800	-1
0.99167	-1
0.99533	-1
0.99900	-1
1.00267	-1
1.00633	-1
1.01000	-0
1.01367	-0
1.01733	-0
1.02100	-0
1.02467	-0
1.02833	-1
1.03200	-1
1.03567	-1
1.03933	-2
1.04300	-2
1.04667	-2
1.05033	-2
1.05400	-1
1.05767	-1
1.06133	-1
1.06500	-1
1.06867	-1
1.07233	-1
1.07600	-1
1.07967	-1
1.08333	-1
1.08700	-2
1.09067	-2
1.09433	-2
1.09800	-2
1.10167	-2
1.10533	-2
1.10900	-1
1.11267	-1
1.11633	-1
1.12000	-1
1.12367	-1
1.12733	-0
1.13100	-0
1.13467	-0
1.13833	-0
1.14200	-0
1.14567	-0
1.14933	0
1.15300	0
1.15667	0
1.16033	0
1.16400	0
1.16767	0
1.17133	0
1.17500	0
1.17867	0
1.18233	-0
1.18600	-0
1.18967	-1
1.19333	-1
1.19700	-1
1.20067	-1
1.20433	-1
1.20800	-2
1.21167	-2
1.21533	-2
1.21900	-2
1.22267	-2
1.22633	-2
1.23000	-2
1.23367	-2
1.23733	-2
1.24100	-2
1.24467	-2
1.24833	-2
1.25200	-2
1.25567	-2
1.25933	-2
1.26300	-2
1.26667	-2
1.27033	-2
1.27400	-1
1.27767	-1
1.28133	-1
1.28500	-2
1.28867	-2
1.29233	-2
1.29600	-2
1.29967	-2
1.30333	-2
1.30700	-3
1.31067	-3
1.31433	-3
1.31800	-3
1.32167	-3
1.32533	-3
1.32900	-3
1.33267	-3
1.33633	-3
1.34000	-2
1.34367	-2
1.34733	-1
1.35100	-1
1.35467	-0
1.35833	0
1.36200	0
1.36567	0
1.36933	0
1.37300	0
1.37667	0
1.38033	1
1.38400	1
1.38767	1
1.39133	0
1.39500	0
1.39867	0
1.40233	0
1.40600	-0
1.40967	-0
1.41333	-0
1.41700	-0
1.42067	-0
1.42433	-0
1.42800	-0
1.43167	0
1.43533	0
1.43900	-0
1.44267	-0
1.44633	-1
1.45000	-1
1.45367	-1
1.45733	-2
1.46100	-2
1.46467	-2
1.46833	-2
1.47200	-2
1.47567	-2
1.47933	-2
1.48300	-2
1.48667	-2
1.49033	-2
1.49400	-2
1.49767	-2
1.50133	-2
1.50500	-2
1.50867	-2
1.51233	-2
1.51600	-2
1.51967	-2
1.52333	-2
1.52700	-2
1.53067	-2
1.53433	-1
1.53800	-1
1.54167	-1
1.54533	-1
1.54900	-1
1.55267	-1
1.55633	-1
1.56000	-1
1.56367	-1
1.56733	-1
1.57100	-2
1.57467	-2
1.57833	-2
1.58200	-2
1.58567	-2
1.58933	-2
1.59300	-3
1.59667	-3
1.60033	-4
1.60400	-5
1.60767	-7
1.61133	-9
1.61500	-11
1.61867	-14
1.62233	-16
1.62600	-19
1.62967	-22
1.63333	-25
1.63700	-28
1.64067	-31
1.64433	-34
1.64800	-38
1.65167	-41
1.65533	-44
1.65900	-47
1.66267	-51
1.66633	-55
1.67000	-59
1.67367	-63
1.67733	-68
1.68100	-73
1.68467	-77
1.68833	-81
1.69200	-86
1.69567	-89
1.69933	-93
1.70300	-96
1.70667	-99
1.71033	-101
1.71400	-103
1.71767	-105
1.72133	-106
1.72500	-107
1.72867	-108
1.73233	-109
1.73600	-109
1.73967	-109
1.74333	-109
1.74700	-108
1.75067	-107
1.75433	-106
1.75800	-106
1.76167	-105
1.76533	-105
1.76900	-105
1.77267	-106
1.77633	-107
1.78000	-108
1.78367	-110
1.78733	-111
1.79100	-112
1.79467	-113
1.79833	-113
1.80200	-113
1.80567	-113
1.80933	-114
1.81300	-114
1.81667	-114
1.82033	-114
1.82400	-115
1.82767	-115
1.83133	-116
1.83500	-116
1.83867	-116
1.84233	-116
1.84600	-115
1.84967	-115
1.85333	-115
1.85700	-114
1.86067	-114
1.86433	-113
1.86800	-112
1.87167	-112
1.87533	-111
1.87900	-111
1.88267	-111
1.88633	-112
1.89000	-112
1.89367	-112
1.89733	-111
1.90100	-111
1.90467	-111
1.90833	-111
1.91200	-111
1.91567	-111
1.91933	-112
1.92300	-112
1.92667	-112
1.93033	-112
1.93400	-112
1.93767	-112
1.94133	-112
1.94500	-112
1.94867	-112
1.95233	-112
1.95600	-112
1.95967	-112
1.96333	-111
1.96700	-110
1.97067	-110
1.97433	-109
1.97800	-108
1.98167	-107
1.98533	-107
1.98900	-107
1.99267	-107
1.99633	-107
2.00000	-107
2.00367	-107
2.00733	-107
2.01100	-106
2.01467	-105
2.01833	-105
2.02200	-104
2.02567	-104
2.02933	-103
2.03300	-103
2.03667	-103
2.04033	-103
2.04400	-102
2.04767	-102
2.05133	-102
2.05500	-101
2.05867	-101
2.06233	-101
2.06600	-101
2.06967	-102
2.07333	-102
2.07700	-102
2.08067	-102
2.08433	-102
2.08800	-101
2.09167	-100
2.09533	-100
2.09900	-100
2.10267	-100
2.10633	-100
2.11000	-99
2.11367	-99
2.11733	-98
2.12100	-98
2.12467	-97
2.12833	-97
2.13200	-97
2.13567	-97
2.13933	-96
2.14300	-96
2.14667	-95
2.15033	-95
2.15400	-95
2.15767	-95
2.16133	-94
2.16500	-94
2.16867	-93
2.17233	-92
2.17600	-92
2.17967	-92
2.18333	-92
2.18700	-92
2.19067	-92
2.19433	-91
2.19800	-91
2.20167	-90
2.20533	-90
2.20900	-89
2.21267	-89
2.21633	-88
2.22000	-88
2.22367	-87
2.22733	-87
2.23100	-87
2.23467	-86
2.23833	-86
2.24200	-86
2.24567	-86
2.24933	-86
2.25300	-86
2.25667	-86
2.26033	-85
2.26400	-84
2.26767	-84
2.27133	-83
2.27500	-82
2.27867	-82
2.28233	-82
2.28600	-82
2.28967	-83
2.29333	-83
2.29700	-83
2.30067	-82
2.30433	-82
2.30800	-82
2.31167	-81
2.31533	-81
2.31900	-80
2.32267	-80
2.32633	-80
2.33000	-79
2.33367	-79
2.33733	-78
2.34100	-77
2.34467	-77
2.34833	-75
2.35200	-74
2.35567	-73
2.35933	-73
2.36300	-72
2.36667	-71
2.37033	-70
2.37400	-69
2.37767	-67
2.38133	-64
2.38500	-61
2.38867	-57
2.39233	-53
2.39600	-49
2.39967	-44
2.40333	-39
2.40700	-35
2.41067	-30
2.41433	-25
2.41800	-21
2.42167	-17
2.42533	-14
2.42900	-12
2.43267	-11
2.43633	-10
2.44000	-9
2.44367	-9
2.44733	-8
2.45100	-7
2.45467	-6
2.45833	-6
2.46200	-5
2.46567	-5
2.46933	-4
2.47300	-2
2.47667	-1
2.48033	0
2.48400	1
2.48767	2
2.49133	3
2.49500	4
2.49867	5
2.50233	5
2.50600	6
2.50967	7
2.51333	8
2.51700	9
2.52067	10
2.52433	11
2.52800	12
2.53167	12
2.53533	12
2.53900	13
2.54267	13
2.54633	14
2.55000	14
2.55367	15
2.55733	15
2.56100	16
2.56467	16
2.56833	16
2.57200	16
2.57567	16
2.57933	16
2.58300	15
2.58667	15
2.59033	15
2.59400	15
2.59767	15
2.60133	15
2.60500	15
2.60867	16
2.61233	16
2.61600	17
2.61967	17
2.62333	17
2.62700	17
2.63067	17
2.63433	18
2.63800	18
2.64167	18
2.64533	18
2.64900	19
2.65267	19
2.65633	20
2.66000	20
2.66367	20
2.66733	20
2.67100	20
2.67467	20
2.67833	20
2.68200	20
2.68567	20
2.68933	21
2.69300	21
2.69667	22
2.70033	23
2.70400	24
2.70767	25
2.71133	25
2.71500	26
2.71867	26
2.72233	26
2.72600	26
2.72967	25
2.73333	25
2.73700	24
2.74067	23
2.74433	23
2.74800	23
2.75167	23
2.75533	23
2.75900	23
2.76267	23
2.76633	24
2.77000	24
2.77367	24
2.77733	25
2.78100	25
2.78467	26
2.78833	26
2.79200	27
2.79567	27
2.79933	28
2.80300	28
2.80667	28
2.81033	28
2.81400	28
2.81767	28
2.82133	28
2.82500	28
2.82867	28
2.83233	28
2.83600	27
2.83967	27
2.84333	25
2.84700	23
2.85067	20
2.85433	14
2.85800	6
2.86167	-6
2.86533	-22
2.86900	-41
2.87267	-65
2.87633	-93
2.88000	-126
2.88367	-163
2.88733	-204
2.89100	-249
2.89467	-296
2.89833	-347
2.90200	-399
2.90567	-453
2.90933	-508
2.91300	-563
2.91667	-619
2.92033	-674
2.92400	-728
2.92767	-781
2.93133	-832
2.93500	-885
2.93867	-941
2.94233	-1000
2.94600	-1052
2.94967	-1087
2.95333	-1098
2.95700	-1083
2.96067	-1044
2.96433	-987
2.96800	-917
2.97167	-840
2.97533	-759
2.97900	-680
2.98267	-603
2.98633	-530
2.99000	-464
2.99367	-403
2.99733	-348
3.00100	-300
3.00467	-257
3.00833	-219
3.01200	-187
3.01567	-158
3.01933	-134
3.02300	-112
3.02667	-94
3.03033	-78
3.03400	-65
3.03767	-53
3.04133	-43
3.04500	-34
3.04867	-27
3.05233	-21
3.05600	-15
3.05967	-11
3.06333	-7
3.06700	-4
3.07067	-1
3.07433	2
3.07800	4
3.08167	6
3.08533	7
3.08900	9
3.09267	10
3.09633	11
3.10000	12
3.10367	13
3.10733	14
3.11100	15
3.11467	15
3.11833	15
3.12200	15
3.12567	15
3.12933	16
3.13300	16
3.13667	16
3.14033	16
3.14400	16
3.14767	16
3.15133	16
3.15500	17
3.15867	17
3.16233	17
3.16600	18
3.16967	18
3.17333	18
3.17700	18
3.18067	18
3.18433	18
3.18800	18
3.19167	19
3.19533	19
3.19900	19
3.20267	19
3.20633	20
3.21000	20
3.21367	20
3.21733	21
3.22100	21
3.22467	21
3.22833	22
3.23200	22
3.23567	22
3.23933	22
3.24300	22
3.24667	23
3.25033	23
3.25400	23
3.25767	23
3.26133	23
3.26500	23
3.26867	23
3.27233	23
3.27600	23
3.27967	23
3.28333	23
3.28700	23
3.29067	23
3.29433	23
3.29800	23
3.30167	23
3.30533	23
3.30900	23
3.31267	23
3.31633	23
3.32000	23
3.32367	23
3.32733	24
3.33100	24
3.33467	24
3.33833	24
3.34200	25
3.34567	25
3.34933	25
3.35300	26
3.35667	26
3.36033	27
3.36400	27
3.36767	28
3.37133	28
3.37500	28
3.37867	28
3.38233	29
3.38600	29
3.38967	28
3.39333	29
3.39700	29
3.40067	29
3.40433	29
3.40800	29
3.41167	29
3.41533	29
3.41900	29
3.42267	29
3.42633	29
3.43000	30
3.43367	30
3.43733	30
3.44100	30
3.44467	30
3.44833	30
3.45200	30
3.45567	29
3.45933	29
3.46300	29
3.46667	28
3.47033	28
3.47400	28
3.47767	28
3.48133	28
3.48500	28
3.48867	28
3.49233	28
3.49600	28
3.49967	28
3.50333	28
3.50700	28
3.51067	28
3.51433	28
3.51800	28
3.52167	28
3.52533	28
3.52900	28
3.53267	28
3.53633	28
3.54000	28
3.54367	28
3.54733	28
3.55100	28
3.55467	28
3.55833	28
3.56200	27
3.56567	27
3.56933	27
3.57300	27
3.57667	27
3.58033	27
3.58400	26
3.58767	26
3.59133	26
3.59500	26
3.59867	25
3.60233	25
3.60600	24
3.60967	24
3.61333	24
3.61700	24
3.62067	24
3.62433	25
3.62800	25
3.63167	25
3.63533	25
3.63900	26
3.64267	26
3.64633	26
3.65000	26
3.65367	26
3.65733	26
3.66100	26
3.66467	27
3.66833	26
3.67200	26
3.67567	26
3.67933	26
3.68300	25
3.68667	25
3.69033	25
3.69400	25
3.69767	24
3.70133	24
3.70500	24
3.70867	24
3.71233	25
3.71600	25
3.71967	25
3.72333	25
3.72700	26
3.73067	26
3.73433	26
3.73800	26
3.74167	26
3.74533	26
3.74900	26
3.75267	26
3.75633	26
3.76000	26
3.76367	25
3.76733	25
3.77100	25
3.77467	25
3.77833	25
3.78200	25
3.78567	24
3.78933	24
3.79300	24
3.79667	24
3.80033	24
3.80400	24
3.80767	24
3.81133	24
3.81500	24
3.81867	25
3.82233	25
3.82600	25
3.82967	25
3.83333	25
3.83700	26
3.84067	26
3.84433	26
3.84800	26
3.85167	26
3.85533	27
3.85900	27
3.86267	27
3.86633	27
3.87000	27
3.87367	27
3.87733	27
3.88100	27
3.88467	27
3.88833	27
3.89200	27
3.89567	27
3.89933	27
3.90300	27
3.90667	27
3.91033	27
3.91400	27
3.91767	27
3.92133	27
3.92500	27
3.92867	27
3.93233	26
3.93600	26
3.93967	26
3.94333	26
3.94700	26
3.95067	26
3.95433	26
3.95800	26
3.96167	26
3.96533	26
3.96900	26
3.97267	26
3.97633	26
3.98000	26
3.98367	26
3.98733	25
3.99100	25
3.99467	25
3.99833	25

[Chromatogram (Ch3)]
Interval(msec)	220
# of Points	1091
Start Time(min)	0.002
End Time(min)	3.998
R.Time (min)	Intensity
0.00167	0
0.00533	-0
0.00900	-1
0.01267	1
0.01633	2
0.02000	2
0.02367	0
0.02733	-4
0.03100	-5
0.03467	-4
0.03833	-4
0.04200	-5
0.04567	-4
0.04933	-4
0.05300	-5
0.05667	-5
0.06033	-3
0.06400	-2
0.06767	-3
0.07133	-5
0.07500	-6
0.07867	-6
0.08233	-6
0.08600	-5
0.08967	-5
0.09333	-6
0.09700	-8
0.10067	-9
0.10433	-9
0.10800	-9
0.11167	-8
0.11533	-7
0.11900	-5
0.12267	-3
0.12633	-1
0.13000	-2
0.13367	-3
0.13733	-1
0.14100	-1
0.14467	-1
0.14833	-2
0.15200	-2
0.15567	-2
0.15933	-3
0.16300	-3
0.16667	-2
0.17033	-1
0.17400	-2
0.17767	-3
0.18133	-4
0.18500	-3
0.18867	-3
0.19233	-4
0.19600	-4
0.19967	-5
0.20333	-5
0.20700	-5
0.21067	-3
0.21433	-3
0.21800	-2
0.22167	0
0.22533	0
0.22900	-2
0.23267	-2
0.23633	-2
0.24000	-3
0.24367	-3
0.24733	-1
0.25100	-2
0.25467	-5
0.25833	-8
0.26200	-8
0.26567	-9
0.26933	-9
0.27300	-9
0.27667	-5
0.28033	-3
0.28400	-2
0.28767	-2
0.29133	-2
0.29500	-1
0.29867	0
0.30233	0
0.30600	0
0.30967	2
0.31333	3
0.31700	2
0.32067	-0
0.32433	-4
0.32800	-3
0.33167	0
0.33533	1
0.33900	-2
0.34267	-3
0.34633	-3
0.35000	-3
0.35367	-4
0.35733	-5
0.36100	-5
0.36467	-5
0.36833	-6
0.37200	-6
0.37567	-4
0.37933	-3
0.38300	-3
0.38667	-2
0.39033	-2
0.39400	-3
0.39767	-6
0.40133	-9
0.40500	-8
0.40867	-9
0.41233	-11
0.41600	-10
0.41967	-8
0.42333	-6
0.42700	-6
0.43067	-7
0.43433	-8
0.43800	-7
0.44167	-5
0.44533	-3
0.44900	-0
0.45267	0
0.45633	1
0.46000	-2
0.46367	-5
0.46733	-5
0.47100	-5
0.47467	-5
0.47833	-5
0.48200	-3
0.48567	-2
0.48933	-1
0.49300	0
0.49667	-0
0.50033	-2
0.50400	-2
0.50767	-2
0.51133	-5
0.51500	-7
0.51867	-7
0.52233	-7
0.52600	-9
0.52967	-11
0.53333	-11
0.53700	-10
0.54067	-8
0.54433	-7
0.54800	-6
0.55167	-5
0.55533	-4
0.55900	-5
0.56267	-5
0.56633	-3
0.57000	-5
0.57367	-8
0.57733	-9
0.58100	-9
0.58467	-7
0.58833	-5
0.59200	-5
0.59567	-7
0.59933	-8
0.60300	-6
0.60667	-5
0.61033	-3
0.61400	-2
0.61767	-3
0.62133	-5
0.62500	-6
0.62867	-5
0.63233	-4
0.63600	-4
0.63967	-4
0.64333	-5
0.64700	-6
0.65067	-5
0.65433	-1
0.65800	1
0.66167	3
0.66533	4
0.66900	3
0.67267	2
0.67633	2
0.68000	-0
0.68367	-1
0.68733	-0
0.69100	0
0.69467	1
0.69833	0
0.70200	-0
0.70567	1
0.70933	1
0.71300	2
0.71667	2
0.72033	1
0.72400	-2
0.72767	-4
0.73133	-4
0.73500	-3
0.73867	-3
0.74233	-3
0.74600	-1
0.74967	0
0.75333	0
0.75700	2
0.76067	4
0.76433	2
0.76800	-0
0.77167	1
0.77533	3
0.77900	3
0.78267	2
0.78633	1
0.79000	0
0.79367	-1
0.79733	0
0.80100	1
0.80467	3
0.80833	2
0.81200	2
0.81567	3
0.81933	4
0.82300	4
0.82667	4
0.83033	6
0.83400	6
0.83767	5
0.84133	4
0.84500	2
0.84867	-1
0.85233	-2
0.85600	-1
0.85967	-1
0.86333	-0
0.86700	1
0.87067	4
0.87433	5
0.87800	4
0.88167	5
0.88533	6
0.88900	5
0.89267	3
0.89633	3
0.90000	4
0.90367	6
0.90733	8
0.91100	10
0.91467	8
0.91833	6
0.92200	3
0.92567	1
0.92933	-1
0.93300	-2
0.93667	-2
0.94033	1
0.94400	4
0.94767	6
0.95133	8
0.95500	8
0.95867	8
0.96233	7
0.96600	7
0.96967	8
0.97333	8
0.97700	7
0.98067	5
0.98433	5
0.98800	6
0.99167	6
0.99533	5
0.99900	2
1.00267	-0
1.00633	-0
1.01000	1
1.01367	1
1.01733	0
1.02100	-1
1.02467	1
1.02833	2
1.03200	2
1.03567	2
1.03933	3
1.04300	4
1.04667	4
1.05033	5
1.05400	7
1.05767	9
1.06133	7
1.06500	6
1.06867	6
1.07233	5
1.07600	6
1.07967	5
1.08333	5
1.08700	7
1.09067	9
1.09433	10
1.09800	10
1.10167	9
1.10533	7
1.10900	8
1.11267	9
1.11633	9
1.12000	10
1.12367	10
1.12733	11
1.13100	12
1.13467	11
1.13833	11
1.14200	10
1.14567	12
1.14933	14
1.15300	14
1.15667	14
1.16033	13
1.16400	13
1.16767	13
1.17133	14
1.17500	13
1.17867	12
1.18233	12
1.18600	11
1.18967	10
1.19333	10
1.19700	10
1.20067	10
1.20433	10
1.20800	11
1.21167	11
1.21533	7
1.21900	4
1.22267	5
1.22633	8
1.23000	10
1.23367	13
1.23733	14
1.24100	13
1.24467	13
1.24833	13
1.25200	14
1.25567	15
1.25933	15
1.26300	15
1.26667	15
1.27033	14
1.27400	13
1.27767	13
1.28133	14
1.28500	14
1.28867	13
1.29233	12
1.29600	11
1.29967	12
1.30333	12
1.30700	11
1.31067	10
1.31433	9
1.31800	10
1.32167	11
1.32533	12
1.32900	12
1.33267	12
1.33633	15
1.34000	17
1.34367	17
1.34733	19
1.35100	20
1.35467	20
1.35833	17
1.36200	16
1.36567	16
1.36933	16
1.37300	16
1.37667	16
1.38033	16
1.38400	15
1.38767	17
1.39133	19
1.39500	19
1.39867	17
1.40233	16
1.40600	16
1.40967	17
1.41333	18
1.41700	20
1.42067	21
1.42433	22
1.42800	20
1.43167	19
1.43533	18
1.43900	16
1.44267	16
1.44633	16
1.45000	16
1.45367	16
1.45733	14
1.46100	14
1.46467	15
1.46833	16
1.47200	16
1.47567	16
1.47933	17
1.48300	16
1.48667	16
1.49033	17
1.49400	16
1.49767	17
1.50133	17
1.50500	16
1.50867	16
1.51233	17
1.51600	19
1.51967	20
1.52333	21
1.52700	22
1.53067	21
1.53433	20
1.53800	17
1.54167	17
1.54533	19
1.54900	22
1.55267	22
1.55633	23
1.56000	22
1.56367	22
1.56733	22
1.57100	23
1.57467	25
1.57833	24
1.58200	24
1.58567	24
1.58933	23
1.59300	25
1.59667	26
1.60033	27
1.60400	24
1.60767	20
1.61133	18
1.61500	18
1.61867	19
1.62233	19
1.62600	19
1.62967	20
1.63333	22
1.63700	23
1.64067	23
1.64433	22
1.64800	22
1.65167	22
1.65533	22
1.65900	23
1.66267	24
1.66633	26
1.67000	29
1.67367	29
1.67733	30
1.68100	31
1.68467	32
1.68833	32
1.69200	33
1.69567	34
1.69933	34
1.70300	34
1.70667	34
1.71033	35
1.71400	35
1.71767	35
1.72133	36
1.72500	37
1.72867	40
1.73233	42
1.73600	42
1.73967	41
1.74333	39
1.74700	36
1.75067	36
1.75433	37
1.75800	36
1.76167	36
1.76533	38
1.76900	39
1.77267	38
1.77633	37
1.78000	38
1.78367	41
1.78733	43
1.79100	41
1.79467	41
1.79833	42
1.80200	43
1.80567	42
1.80933	43
1.81300	43
1.81667	43
1.82033	45
1.82400	47
1.82767	49
1.83133	50
1.83500	49
1.83867	48
1.84233	48
1.84600	50
1.84967	52
1.85333	51
1.85700	51
1.86067	50
1.86433	51
1.86800	51
1.87167	54
1.87533	59
1.87900	60
1.88267	61
1.88633	62
1.89000	63
1.89367	61
1.89733	62
1.90100	62
1.90467	61
1.90833	62
1.91200	64
1.91567	65
1.91933	64
1.92300	64
1.92667	65
1.93033	67
1.93400	70
1.93767	72
1.94133	76
1.94500	79
1.94867	80
1.95233	80
1.95600	80
1.95967	80
1.96333	81
1.96700	80
1.97067	79
1.97433	79
1.97800	79
1.98167	80
1.98533	81
1.98900	83
1.99267	85
1.99633	87
2.00000	88
2.00367	89
2.00733	91
2.01100	93
2.01467	96
2.01833	98
2.02200	98
2.02567	99
2.02933	100
2.03300	98
2.03667	96
2.04033	94
2.04400	95
2.04767	97
2.05133	99
2.05500	102
2.05867	104
2.06233	107
2.06600	109
2.06967	110
2.07333	110
2.07700	112
2.08067	114
2.08433	115
2.08800	115
2.09167	114
2.09533	113
2.09900	115
2.10267	116
2.10633	117
2.11000	118
2.11367	119
2.11733	121
2.12100	123
2.12467	126
2.12833	129
2.13200	130
2.13567	130
2.13933	132
2.14300	134
2.14667	137
2.15033	139
2.15400	140
2.15767	141
2.16133	142
2.16500	144
2.16867	144
2.17233	143
2.17600	145
2.17967	148
2.18333	149
2.18700	151
2.19067	153
2.19433	155
2.19800	157
2.20167	158
2.20533	158
2.20900	160
2.21267	163
2.21633	162
2.22000	163
2.22367	165
2.22733	167
2.23100	168
2.23467	169
2.23833	170
2.24200	170
2.24567	169
2.24933	170
2.25300	172
2.25667	172
2.26033	172
2.26400	174
2.26767	176
2.27133	181
2.27500	183
2.27867	184
2.28233	185
2.28600	186
2.28967	186
2.29333	186
2.29700	187
2.30067	190
2.30433	193
2.30800	194
2.31167	194
2.31533	193
2.31900	193
2.32267	194
2.32633	197
2.33000	199
2.33367	203
2.33733	206
2.34100	205
2.34467	205
2.34833	207
2.35200	208
2.35567	210
2.35933	213
2.36300	215
2.36667	219
2.37033	221
2.37400	223
2.37767	223
2.38133	223
2.38500	223
2.38867	221
2.39233	221
2.39600	222
2.39967	225
2.40333	230
2.40700	234
2.41067	236
2.41433	238
2.41800	239
2.42167	240
2.42533	240
2.42900	242
2.43267	242
2.43633	242
2.44000	245
2.44367	304
2.44733	455
2.45100	618
2.45467	752
2.45833	824
2.46200	825
2.46567	789
2.46933	747
2.47300	714
2.47667	694
2.48033	677
2.48400	650
2.48767	610
2.49133	564
2.49500	519
2.49867	483
2.50233	454
2.50600	435
2.50967	427
2.51333	431
2.51700	447
2.52067	471
2.52433	493
2.52800	507
2.53167	507
2.53533	492
2.53900	466
2.54267	435
2.54633	404
2.55000	372
2.55367	344
2.55733	323
2.56100	308
2.56467	296
2.56833	289
2.57200	284
2.57567	279
2.57933	274
2.58300	272
2.58667	272
2.59033	272
2.59400	273
2.59767	275
2.60133	273
2.60500	268
2.60867	258
2.61233	245
2.61600	231
2.61967	216
2.62333	203
2.62700	190
2.63067	177
2.63433	165
2.63800	152
2.64167	139
2.64533	129
2.64900	117
2.65267	104
2.65633	91
2.66000	79
2.66367	70
2.66733	61
2.67100	54
2.67467	48
2.67833	44
2.68200	41
2.68567	42
2.68933	42
2.69300	42
2.69667	42
2.70033	45
2.70400	50
2.70767	54
2.71133	58
2.71500	62
2.71867	69
2.72233	75
2.72600	81
2.72967	88
2.73333	93
2.73700	99
2.74067	103
2.74433	107
2.74800	111
2.75167	114
2.75533	119
2.75900	123
2.76267	128
2.76633	133
2.77000	135
2.77367	137
2.77733	137
2.78100	138
2.78467	140
2.78833	143
2.79200	148
2.79567	153
2.79933	159
2.80300	165
2.80667	169
2.81033	173
2.81400	181
2.81767	191
2.82133	204
2.82500	224
2.82867	262
2.83233	334
2.83600	457
2.83967	651
2.84333	938
2.84700	1322
2.85067	1799
2.85433	2345
2.85800	2924
2.86167	3488
2.86533	3991
2.86900	4393
2.87267	4667
2.87633	4805
2.88000	4810
2.88367	4695
2.88733	4486
2.89100	4209
2.89467	3894
2.89833	3561
2.90200	3226
2.90567	2900
2.90933	2592
2.91300	2307
2.91667	2046
2.92033	1812
2.92400	1605
2.92767	1423
2.93133	1259
2.93500	1115
2.93867	989
2.94233	878
2.94600	782
2.94967	697
2.95333	626
2.95700	566
2.96067	510
2.96433	463
2.96800	422
2.97167	388
2.97533	359
2.97900	333
2.98267	309
2.98633	289
2.99000	273
2.99367	258
2.99733	244
3.00100	232
3.00467	222
3.00833	213
3.01200	207
3.01567	199
3.01933	192
3.02300	188
3.02667	184
3.03033	181
3.03400	178
3.03767	177
3.04133	175
3.04500	172
3.04867	170
3.05233	168
3.05600	165
3.05967	147
3.06333	123
3.06700	110
3.07067	109
3.07433	119
3.07800	141
3.08167	174
3.08533	216
3.08900	264
3.09267	312
3.09633	359
3.10000	401
3.10367	438
3.10733	472
3.11100	499
3.11467	523
3.11833	544
3.12200	562
3.12567	576
3.12933	587
3.13300	598
3.13667	610
3.14033	620
3.14400	631
3.14767	640
3.15133	648
3.15500	655
3.15867	661
3.16233	666
3.16600	672
3.16967	676
3.17333	680
3.17700	686
3.18067	694
3.18433	701
3.18800	707
3.19167	711
3.19533	716
3.19900	722
3.20267	729
3.20633	736
3.21000	742
3.21367	749
3.21733	754
3.22100	756
3.22467	760
3.22833	767
3.23200	776
3.23567	783
3.23933	788
3.24300	794
3.24667	800
3.25033	807
3.25400	815
3.25767	819
3.26133	823
3.26500	827
3.26867	833
3.27233	838
3.27600	843
3.27967	848
3.28333	852
3.28700	853
3.29067	854
3.29433	854
3.29800	856
3.30167	857
3.30533	857
3.30900	856
3.31267	855
3.31633	855
3.32000	854
3.32367	854
3.32733	853
3.33100	849
3.33467	846
3.33833	842
3.34200	838
3.34567	835
3.34933	834
3.35300	832
3.35667	831
3.36033	830
3.36400	827
3.36767	825
3.37133	823
3.37500	821
3.37867	821
3.38233	819
3.38600	817
3.38967	814
3.39333	812
3.39700	809
3.40067	805
3.40433	802
3.40800	800
3.41167	798
3.41533	796
3.41900	796
3.42267	792
3.42633	788
3.43000	785
3.43367	783
3.43733	782
3.44100	781
3.44467	780
3.44833	778
3.45200	777
3.45567	776
3.45933	775
3.46300	775
3.46667	774
3.47033	773
3.47400	771
3.47767	771
3.48133	770
3.48500	767
3.48867	766
3.49233	767
3.49600	766
3.49967	765
3.50333	762
3.50700	762
3.51067	760
3.51433	758
3.51800	756
3.52167	754
3.52533	753
3.52900	752
3.53267	751
3.53633	751
3.54000	751
3.54367	752
3.54733	753
3.55100	752
3.55467	750
3.55833	748
3.56200	747
3.56567	746
3.56933	745
3.57300	743
3.57667	742
3.58033	741
3.58400	741
3.58767	739
3.59133	736
3.59500	735
3.59867	734
3.60233	732
3.60600	732
3.60967	734
3.61333	735
3.61700	737
3.62067	738
3.62433	738
3.62800	738
3.63167	735
3.63533	731
3.63900	725
3.64267	721
3.64633	720
3.65000	718
3.65367	717
3.65733	716
3.66100	715
3.66467	713
3.66833	712
3.67200	711
3.67567	709
3.67933	707
3.68300	706
3.68667	703
3.69033	700
3.69400	699
3.69767	698
3.70133	697
3.70500	696
3.70867	693
3.71233	691
3.71600	687
3.71967	685
3.72333	685
3.72700	683
3.73067	681
3.73433	678
3.73800	674
3.74167	672
3.74533	671
3.74900	670
3.75267	668
3.75633	666
3.76000	664
3.76367	664
3.76733	664
3.77100	662
3.77467	660
3.77833	658
3.78200	655
3.78567	652
3.78933	651
3.79300	649
3.79667	649
3.80033	647
3.80400	645
3.80767	643
3.81133	642
3.81500	641
3.81867	640
3.82233	640
3.82600	639
3.82967	637
3.83333	634
3.83700	631
3.84067	628
3.84433	625
3.84800	623
3.85167	620
3.85533	618
3.85900	616
3.86267	615
3.86633	612
3.87000	609
3.87367	606
3.87733	604
3.88100	604
3.88467	604
3.88833	603
3.89200	603
3.89567	600
3.89933	597
3.90300	594
3.90667	590
3.91033	588
3.91400	588
3.91767	587
3.92133	585
3.92500	586
3.92867	588
3.93233	587
3.93600	584
3.93967	580
3.94333	579
3.94700	577
3.95067	577
3.95433	576
3.95800	573
3.96167	572
3.96533	570
3.96900	571
3.97267	573
3.97633	573
3.98000	573
3.98367	572
3.98733	568
3.99100	566
3.99467	565
3.99833	564

[Status Trace (Column Oven Temperature)]
Interval(msec)	1000
# of Points	240
Start Time(min)	0.008
End Time(min)	3.991
Intensity Units	
Intensity Multiplier	1
R.Time (min)	Intensity
0.00788	35.08
0.02455	35.07
0.04122	35.06
0.05788	35.06
0.07455	35.06
0.09122	35.05
0.10788	35.06
0.12455	35.06
0.14122	35.05
0.15788	35.04
0.17455	35.04
0.19122	35.04
0.20788	35.05
0.22455	35.06
0.24122	35.05
0.25788	35.05
0.27455	35.05
0.29122	35.04
0.30788	35.04
0.32455	35.02
0.34122	35.01
0.35788	34.99
0.37455	35.00
0.39122	35.00
0.40788	34.99
0.42455	34.99
0.44122	35.00
0.45788	34.99
0.47455	35.00
0.49122	35.01
0.50788	35.01
0.52455	35.01
0.54122	35.01
0.55788	35.02
0.57455	35.02
0.59122	35.02
0.60788	35.01
0.62455	35.02
0.64122	35.01
0.65788	35.01
0.67455	35.02
0.69122	35.02
0.70788	35.01
0.72455	35.00
0.74122	35.00
0.75788	35.01
0.77455	35.01
0.79122	35.00
0.80788	35.00
0.82455	34.99
0.84122	34.99
0.85788	34.98
0.87455	34.97
0.89122	34.97
0.90788	34.96
0.92455	34.97
0.94122	34.98
0.95788	34.97
0.97455	34.98
0.99122	34.99
1.00788	34.99
1.02455	35.01
1.04122	35.01
1.05788	35.01
1.07455	35.01
1.09122	35.02
1.10788	35.01
1.12455	35.02
1.14122	35.00
1.15788	35.00
1.17455	35.00
1.19122	35.01
1.20788	35.02
1.22455	35.02
1.24122	35.02
1.25788	35.02
1.27455	35.01
1.29122	35.02
1.30788	35.03
1.32455	35.04
1.34122	35.03
1.35788	35.02
1.37455	35.01
1.39122	35.00
1.40788	35.01
1.42455	35.00
1.44122	35.00
1.45788	34.99
1.47455	34.99
1.49122	34.99
1.50788	35.00
1.52455	34.99
1.54122	34.99
1.55788	34.99
1.57455	35.00
1.59122	35.01
1.60788	35.08
1.62455	35.20
1.64122	35.38
1.65788	35.62
1.67455	35.95
1.69122	36.31
1.70788	36.69
1.72455	37.04
1.74122	37.35
1.75788	37.64
1.77455	37.98
1.79122	38.34
1.80788	38.67
1.82455	39.01
1.84122	39.35
1.85788	39.65
1.87455	39.98
1.89122	40.30
1.90788	40.63
1.92455	40.96
1.94122	41.30
1.95788	41.63
1.97455	41.95
1.99122	42.28
2.00788	42.60
2.02455	42.92
2.04122	43.24
2.05788	43.57
2.07455	43.91
2.09122	44.22
2.10788	44.55
2.12455	44.89
2.14122	45.22
2.15788	45.54
2.17455	45.87
2.19122	46.19
2.20788	46.50
2.22455	46.82
2.24122	47.18
2.25788	47.50
2.27455	47.82
2.29122	48.16
2.30788	48.49
2.32455	48.82
2.34122	49.12
2.35788	49.41
2.37455	49.63
2.39122	49.72
2.40788	49.71
2.42455	49.71
2.44122	49.72
2.45788	49.74
2.47455	49.74
2.49122	49.76
2.50788	49.77
2.52455	49.77
2.54122	49.78
2.55788	49.79
2.57455	49.81
2.59122	49.82
2.60788	49.82
2.62455	49.83
2.64122	49.83
2.65788	49.83
2.67455	49.86
2.69122	49.86
2.70788	49.83
2.72455	49.85
2.74122	49.88
2.75788	49.89
2.77455	49.89
2.79122	49.87
2.80788	49.87
2.82455	49.86
2.84122	49.87
2.85788	49.89
2.87455	49.90
2.89122	49.91
2.90788	49.93
2.92455	49.94
2.94122	49.96
2.95788	49.97
2.97455	49.97
2.99122	49.98
3.00788	49.99
3.02455	49.99
3.04122	50.00
3.05788	50.00
3.07455	50.01
3.09122	50.01
3.10788	50.01
3.12455	50.02
3.14122	50.04
3.15788	50.05
3.17455	50.06
3.19122	50.07
3.20788	50.08
3.22455	50.08
3.24122	50.08
3.25788	50.09
3.27455	50.10
3.29122	50.10
3.30788	50.12
3.32455	50.12
3.34122	50.12
3.35788	50.11
3.37455	50.10
3.39122	50.08
3.40788	50.06
3.42455	50.04
3.44122	50.02
3.45788	50.02
3.47455	50.01
3.49122	50.00
3.50788	49.99
3.52455	49.98
3.54122	49.98
3.55788	49.97
3.57455	49.98
3.59122	49.99
3.60788	50.01
3.62455	50.01
3.64122	50.02
3.65788	50.02
3.67455	50.02
3.69122	50.03
3.70788	50.04
3.72455	50.04
3.74122	50.04
3.75788	50.05
3.77455	50.05
3.79122	50.06
3.80788	50.07
3.82455	50.06
3.84122	50.06
3.85788	50.04
3.87455	50.04
3.89122	50.03
3.90788	50.03
3.92455	50.03
3.94122	50.03
3.95788	50.04
3.97455	50.04
3.99122	50.04

[Status Trace (Injection Unit Temperature)]
Interval(msec)	1000
# of Points	240
Start Time(min)	0.008
End Time(min)	3.991
Intensity Units	
Intensity Multiplier	1
R.Time (min)	Intensity
0.00788	99.98
0.02455	99.98
0.04122	99.98
0.05788	99.98
0.07455	99.99
0.09122	99.99
0.10788	99.98
0.12455	99.99
0.14122	99.99
0.15788	99.99
0.17455	99.99
0.19122	99.99
0.20788	99.99
0.22455	99.99
0.24122	99.99
0.25788	99.99
0.27455	99.99
0.29122	99.99
0.30788	99.99
0.32455	99.99
0.34122	99.99
0.35788	99.99
0.37455	99.99
0.39122	99.99
0.40788	99.99
0.42455	99.99
0.44122	99.99
0.45788	99.99
0.47455	99.99
0.49122	99.99
0.50788	99.99
0.52455	99.99
0.54122	99.99
0.55788	99.99
0.57455	99.99
0.59122	99.99
0.60788	99.99
0.62455	99.99
0.64122	99.99
0.65788	99.99
0.67455	99.99
0.69122	99.99
0.70788	99.98
0.72455	99.99
0.74122	99.98
0.75788	99.98
0.77455	99.98
0.79122	99.98
0.80788	99.98
0.82455	99.99
0.84122	99.98
0.85788	99.98
0.87455	99.99
0.89122	99.98
0.90788	99.98
0.92455	99.98
0.94122	99.98
0.95788	99.98
0.97455	99.98
0.99122	99.98
1.00788	99.98
1.02455	99.98
1.04122	99.98
1.05788	99.98
1.07455	99.98
1.09122	99.98
1.10788	99.98
1.12455	99.98
1.14122	99.98
1.15788	99.98
1.17455	99.98
1.19122	99.98
1.20788	99.98
1.22455	99.98
1.24122	99.97
1.25788	99.98
1.27455	99.98
1.29122	99.98
1.30788	99.98
1.32455	99.98
1.34122	99.98
1.35788	99.98
1.37455	99.98
1.39122	99.99
1.40788	99.98
1.42455	99.98
1.44122	99.99
1.45788	99.99
1.47455	99.99
1.49122	99.99
1.50788	99.99
1.52455	99.99
1.54122	99.99
1.55788	99.99
1.57455	99.99
1.59122	99.99
1.60788	99.99
1.62455	99.99
1.64122	99.99
1.65788	99.99
1.67455	99.99
1.69122	99.99
1.70788	99.99
1.72455	99.99
1.74122	99.99
1.75788	99.99
1.77455	99.99
1.79122	99.99
1.80788	99.98
1.82455	99.99
1.84122	99.99
1.85788	99.98
1.87455	99.99
1.89122	99.98
1.90788	99.98
1.92455	99.98
1.94122	99.98
1.95788	99.98
1.97455	99.98
1.99122	99.98
2.00788	99.98
2.02455	99.97
2.04122	99.98
2.05788	99.97
2.07455	99.97
2.09122	99.97
2.10788	99.97
2.12455	99.97
2.14122	99.97
2.15788	99.97
2.17455	99.97
2.19122	99.97
2.20788	99.97
2.22455	99.97
2.24122	99.96
2.25788	99.96
2.27455	99.96
2.29122	99.97
2.30788	99.96
2.32455	99.96
2.34122	99.96
2.35788	99.96
2.37455	99.96
2.39122	99.96
2.40788	99.97
2.42455	99.96
2.44122	99.96
2.45788	99.97
2.47455	99.97
2.49122	99.96
2.50788	99.97
2.52455	99.97
2.54122	99.97
2.55788	99.97
2.57455	99.97
2.59122	99.98
2.60788	99.98
2.62455	99.98
2.64122	99.98
2.65788	99.98
2.67455	99.98
2.69122	99.98
2.70788	99.99
2.72455	99.99
2.74122	99.99
2.75788	99.99
2.77455	99.99
2.79122	99.99
2.80788	100.00
2.82455	100.00
2.84122	100.00
2.85788	100.00
2.87455	100.00
2.89122	100.00
2.90788	100.00
2.92455	100.01
2.94122	100.00
2.95788	100.01
2.97455	100.01
2.99122	100.00
3.00788	100.01
3.02455	100.01
3.04122	100.01
3.05788	100.01
3.07455	100.01
3.09122	100.02
3.10788	100.02
3.12455	100.02
3.14122	100.02
3.15788	100.02
3.17455	100.02
3.19122	100.02
3.20788	100.03
3.22455	100.02
3.24122	100.03
3.25788	100.03
3.27455	100.02
3.29122	100.03
3.30788	100.03
3.32455	100.03
3.34122	100.03
3.35788	100.03
3.37455	100.03
3.39122	100.03
3.40788	100.03
3.42455	100.03
3.44122	100.03
3.45788	100.04
3.47455	100.04
3.49122	100.04
3.50788	100.03
3.52455	100.04
3.54122	100.04
3.55788	100.04
3.57455	100.04
3.59122	100.04
3.60788	100.04
3.62455	100.04
3.64122	100.04
3.65788	100.05
3.67455	100.05
3.69122	100.04
3.70788	100.05
3.72455	100.05
3.74122	100.05
3.75788	100.05
3.77455	100.05
3.79122	100.05
3.80788	100.05
3.82455	100.05
3.84122	100.05
3.85788	100.05
3.87455	100.05
3.89122	100.06
3.90788	100.06
3.92455	100.06
3.94122	100.05
3.95788	100.06
3.97455	100.05
3.99122	100.06

[Status Trace (Carrier Gas Pressure)]
Interval(msec)	1000
# of Points	240
Start Time(min)	0.008
End Time(min)	3.991
Intensity Units	
Intensity Multiplier	1
R.Time (min)	Intensity
0.00788	58.00
0.02455	55.45
0.04122	57.12
0.05788	59.30
0.07455	59.44
0.09122	58.06
0.10788	57.98
0.12455	58.01
0.14122	58.01
0.15788	58.01
0.17455	58.00
0.19122	58.00
0.20788	58.00
0.22455	58.00
0.24122	58.00
0.25788	58.00
0.27455	58.00
0.29122	58.00
0.30788	58.00
0.32455	58.00
0.34122	58.00
0.35788	58.00
0.37455	58.00
0.39122	58.00
0.40788	58.00
0.42455	58.00
0.44122	58.00
0.45788	58.00
0.47455	58.00
0.49122	58.00
0.50788	58.00
0.52455	58.00
0.54122	58.00
0.55788	58.00
0.57455	58.00
0.59122	58.00
0.60788	58.00
0.62455	58.00
0.64122	58.00
0.65788	58.00
0.67455	58.00
0.69122	58.00
0.70788	58.00
0.72455	58.00
0.74122	58.00
0.75788	58.00
0.77455	58.00
0.79122	58.00
0.80788	58.00
0.82455	58.00
0.84122	58.00
0.85788	58.00
0.87455	58.00
0.89122	58.00
0.90788	58.00
0.92455	58.00
0.94122	58.00
0.95788	58.00
0.97455	58.00
0.99122	58.00
1.00788	58.00
1.02455	58.00
1.04122	58.00
1.05788	58.00
1.07455	58.00
1.09122	58.00
1.10788	58.00
1.12455	58.00
1.14122	58.00
1.15788	58.00
1.17455	58.00
1.19122	58.00
1.20788	58.00
1.22455	58.00
1.24122	58.00
1.25788	58.00
1.27455	58.00
1.29122	58.00
1.30788	58.00
1.32455	58.00
1.34122	58.00
1.35788	58.00
1.37455	58.00
1.39122	58.00
1.40788	58.00
1.42455	58.00
1.44122	58.00
1.45788	58.00
1.47455	58.00
1.49122	58.00
1.50788	58.00
1.52455	58.00
1.54122	58.00
1.55788	58.00
1.57455	58.00
1.59122	58.00
1.60788	58.00
1.62455	58.00
1.64122	58.00
1.65788	58.00
1.67455	58.01
1.69122	58.01
1.70788	58.00
1.72455	58.00
1.74122	58.00
1.75788	58.00
1.77455	58.00
1.79122	58.00
1.80788	58.00
1.82455	58.00
1.84122	58.00
1.85788	58.00
1.87455	58.00
1.89122	58.00
1.90788	58.00
1.92455	58.00
1.94122	58.00
1.95788	58.00
1.97455	58.00
1.99122	58.00
2.00788	58.00
2.02455	58.00
2.04122	58.00
2.05788	58.00
2.07455	58.00
2.09122	58.00
2.10788	58.00
2.12455	58.00
2.14122	58.00
2.15788	58.00
2.17455	58.00
2.19122	58.00
2.20788	58.00
2.22455	58.00
2.24122	58.00
2.25788	58.00
2.27455	58.00
2.29122	58.00
2.30788	58.00
2.32455	58.00
2.34122	58.00
2.35788	58.00
2.37455	58.00
2.39122	57.99
2.40788	57.99
2.42455	58.00
2.44122	58.00
2.45788	58.00
2.47455	58.00
2.49122	58.00
2.50788	58.00
2.52455	57.98
2.54122	58.00
2.55788	58.00
2.57455	58.00
2.59122	58.00
2.60788	58.00
2.62455	58.00
2.64122	58.00
2.65788	58.00
2.67455	58.00
2.69122	58.00
2.70788	58.00
2.72455	58.00
2.74122	58.00
2.75788	58.00
2.77455	58.00
2.79122	58.00
2.80788	58.00
2.82455	58.00
2.84122	58.00
2.85788	58.00
2.87455	58.00
2.89122	58.00
2.90788	58.00
2.92455	58.00
2.94122	58.00
2.95788	58.00
2.97455	58.00
2.99122	58.00
3.00788	58.00
3.02455	58.00
3.04122	58.00
3.05788	58.00
3.07455	58.00
3.09122	58.00
3.10788	58.00
3.12455	58.00
3.14122	58.00
3.15788	58.00
3.17455	58.00
3.19122	58.00
3.20788	58.00
3.22455	58.00
3.24122	58.00
3.25788	58.00
3.27455	58.00
3.29122	58.00
3.30788	58.00
3.32455	58.00
3.34122	58.00
3.35788	58.00
3.37455	58.00
3.39122	58.00
3.40788	58.00
3.42455	58.00
3.44122	58.00
3.45788	58.00
3.47455	58.00
3.49122	58.00
3.50788	58.00
3.52455	58.00
3.54122	58.00
3.55788	58.00
3.57455	58.00
3.59122	58.00
3.60788	58.00
3.62455	58.00
3.64122	58.00
3.65788	58.00
3.67455	58.00
3.69122	58.00
3.70788	58.00
3.72455	58.00
3.74122	58.00
3.75788	58.00
3.77455	58.00
3.79122	58.00
3.80788	58.00
3.82455	58.00
3.84122	58.00
3.85788	58.00
3.87455	58.00
3.89122	58.00
3.90788	58.00
3.92455	58.00
3.94122	58.00
3.95788	58.00
3.97455	58.00
3.99122	58.00

[Status Trace (Carrier Gas Flow)]
Interval(msec)	1000
# of Points	240
Start Time(min)	0.008
End Time(min)	3.991
Intensity Units	
Intensity Multiplier	1
R.Time (min)	Intensity
0.00788	34.52
0.02455	34.54
0.04122	34.55
0.05788	34.54
0.07455	34.50
0.09122	34.52
0.10788	34.51
0.12455	34.51
0.14122	34.52
0.15788	34.52
0.17455	34.52
0.19122	34.52
0.20788	34.52
0.22455	34.52
0.24122	34.52
0.25788	34.52
0.27455	34.52
0.29122	34.52
0.30788	34.52
0.32455	34.52
0.34122	34.52
0.35788	34.52
0.37455	34.52
0.39122	34.53
0.40788	34.52
0.42455	34.51
0.44122	34.52
0.45788	34.52
0.47455	34.52
0.49122	34.51
0.50788	34.52
0.52455	34.53
0.54122	34.52
0.55788	34.51
0.57455	34.52
0.59122	34.52
0.60788	34.52
0.62455	34.52
0.64122	34.52
0.65788	34.52
0.67455	34.51
0.69122	34.52
0.70788	34.52
0.72455	34.52
0.74122	34.52
0.75788	34.52
0.77455	34.52
0.79122	34.52
0.80788	34.51
0.82455	34.51
0.84122	34.52
0.85788	34.51
0.87455	34.52
0.89122	34.52
0.90788	34.52
0.92455	34.52
0.94122	34.52
0.95788	34.52
0.97455	34.52
0.99122	34.52
1.00788	34.52
1.02455	34.52
1.04122	34.52
1.05788	34.52
1.07455	34.52
1.09122	34.52
1.10788	34.52
1.12455	34.52
1.14122	34.51
1.15788	34.52
1.17455	34.52
1.19122	34.51
1.20788	34.52
1.22455	34.52
1.24122	34.52
1.25788	34.52
1.27455	34.52
1.29122	34.52
1.30788	34.52
1.32455	34.52
1.34122	34.52
1.35788	34.52
1.37455	34.52
1.39122	34.52
1.40788	34.52
1.42455	34.52
1.44122	34.52
1.45788	34.51
1.47455	34.52
1.49122	34.52
1.50788	34.52
1.52455	34.52
1.54122	34.52
1.55788	34.52
1.57455	34.52
1.59122	34.52
1.60788	34.52
1.62455	34.52
1.64122	34.52
1.65788	34.52
1.67455	34.53
1.69122	34.53
1.70788	34.53
1.72455	34.52
1.74122	34.52
1.75788	34.52
1.77455	34.52
1.79122	34.52
1.80788	34.52
1.82455	34.52
1.84122	34.52
1.85788	34.51
1.87455	34.52
1.89122	34.52
1.90788	34.52
1.92455	34.52
1.94122	34.52
1.95788	34.52
1.97455	34.52
1.99122	34.52
2.00788	34.52
2.02455	34.52
2.04122	34.52
2.05788	34.52
2.07455	34.52
2.09122	34.52
2.10788	34.51
2.12455	34.52
2.14122	34.52
2.15788	34.52
2.17455	34.52
2.19122	34.52
2.20788	34.52
2.22455	34.52
2.24122	34.52
2.25788	34.53
2.27455	34.52
2.29122	34.51
2.30788	34.52
2.32455	34.52
2.34122	34.53
2.35788	34.52
2.37455	34.52
2.39122	34.52
2.40788	34.52
2.42455	34.52
2.44122	34.52
2.45788	34.52
2.47455	34.52
2.49122	34.52
2.50788	34.42
2.52455	34.52
2.54122	34.52
2.55788	34.52
2.57455	34.52
2.59122	34.52
2.60788	34.52
2.62455	34.52
2.64122	34.52
2.65788	34.52
2.67455	34.52
2.69122	34.52
2.70788	34.52
2.72455	34.52
2.74122	34.52
2.75788	34.52
2.77455	34.52
2.79122	34.52
2.80788	34.52
2.82455	34.52
2.84122	34.52
2.85788	34.52
2.87455	34.52
2.89122	34.52
2.90788	34.52
2.92455	34.52
2.94122	34.52
2.95788	34.52
2.97455	34.52
2.99122	34.52
3.00788	34.52
3.02455	34.52
3.04122	34.51
3.05788	34.53
3.07455	34.52
3.09122	34.53
3.10788	34.51
3.12455	34.52
3.14122	34.52
3.15788	34.52
3.17455	34.51
3.19122	34.52
3.20788	34.52
3.22455	34.52
3.24122	34.52
3.25788	34.52
3.27455	34.52
3.29122	34.52
3.30788	34.52
3.32455	34.52
3.34122	34.52
3.35788	34.51
3.37455	34.52
3.39122	34.52
3.40788	34.52
3.42455	34.52
3.44122	34.52
3.45788	34.52
3.47455	34.52
3.49122	34.52
3.50788	34.52
3.52455	34.52
3.54122	34.52
3.55788	34.51
3.57455	34.52
3.59122	34.52
3.60788	34.51
3.62455	34.52
3.64122	34.51
3.65788	34.51
3.67455	34.52
3.69122	34.52
3.70788	34.52
3.72455	34.52
3.74122	34.52
3.75788	34.52
3.77455	34.52
3.79122	34.52
3.80788	34.52
3.82455	34.52
3.84122	34.51
3.85788	34.52
3.87455	34.52
3.89122	34.53
3.90788	34.52
3.92455	34.52
3.94122	34.52
3.95788	34.52
3.97455	34.51
3.99122	34.52

[Status Trace (Column Flow)]
Interval(msec)	1000
# of Points	240
Start Time(min)	0.008
End Time(min)	3.991
Intensity Units	
Intensity Multiplier	1
R.Time (min)	Intensity
0.00788	5.55
0.02455	5.26
0.04122	5.45
0.05788	5.70
0.07455	5.72
0.09122	5.56
0.10788	5.55
0.12455	5.55
0.14122	5.55
0.15788	5.55
0.17455	5.55
0.19122	5.55
0.20788	5.55
0.22455	5.55
0.24122	5.55
0.25788	5.55
0.27455	5.55
0.29122	5.55
0.30788	5.55
0.32455	5.55
0.34122	5.55
0.35788	5.55
0.37455	5.55
0.39122	5.55
0.40788	5.55
0.42455	5.55
0.44122	5.55
0.45788	5.55
0.47455	5.55
0.49122	5.55
0.50788	5.55
0.52455	5.55
0.54122	5.55
0.55788	5.55
0.57455	5.55
0.59122	5.55
0.60788	5.55
0.62455	5.55
0.64122	5.55
0.65788	5.55
0.67455	5.55
0.69122	5.55
0.70788	5.55
0.72455	5.55
0.74122	5.55
0.75788	5.55
0.77455	5.55
0.79122	5.55
0.80788	5.55
0.82455	5.55
0.84122	5.55
0.85788	5.55
0.87455	5.55
0.89122	5.55
0.90788	5.55
0.92455	5.55
0.94122	5.55
0.95788	5.55
0.97455	5.55
0.99122	5.55
1.00788	5.55
1.02455	5.55
1.04122	5.55
1.05788	5.55
1.07455	5.55
1.09122	5.55
1.10788	5.55
1.12455	5.55
1.14122	5.55
1.15788	5.55
1.17455	5.55
1.19122	5.55
1.20788	5.55
1.22455	5.55
1.24122	5.55
1.25788	5.55
1.27455	5.55
1.29122	5.55
1.30788	5.55
1.32455	5.55
1.34122	5.55
1.35788	5.55
1.37455	5.55
1.39122	5.55
1.40788	5.55
1.42455	5.55
1.44122	5.55
1.45788	5.55
1.47455	5.55
1.49122	5.55
1.50788	5.55
1.52455	5.55
1.54122	5.55
1.55788	5.55
1.57455	5.55
1.59122	5.55
1.60788	5.55
1.62455	5.55
1.64122	5.54
1.65788	5.53
1.67455	5.52
1.69122	5.51
1.70788	5.50
1.72455	5.49
1.74122	5.48
1.75788	5.47
1.77455	5.46
1.79122	5.45
1.80788	5.44
1.82455	5.43
1.84122	5.42
1.85788	5.41
1.87455	5.40
1.89122	5.39
1.90788	5.38
1.92455	5.37
1.94122	5.36
1.95788	5.35
1.97455	5.34
1.99122	5.33
2.00788	5.32
2.02455	5.31
2.04122	5.30
2.05788	5.29
2.07455	5.28
2.09122	5.27
2.10788	5.26
2.12455	5.25
2.14122	5.24
2.15788	5.23
2.17455	5.22
2.19122	5.22
2.20788	5.21
2.22455	5.20
2.24122	5.19
2.25788	5.18
2.27455	5.17
2.29122	5.16
2.30788	5.15
2.32455	5.14
2.34122	5.13
2.35788	5.12
2.37455	5.12
2.39122	5.11
2.40788	5.12
2.42455	5.12
2.44122	5.12
2.45788	5.11
2.47455	5.11
2.49122	5.11
2.50788	5.11
2.52455	5.11
2.54122	5.11
2.55788	5.11
2.57455	5.11
2.59122	5.11
2.60788	5.11
2.62455	5.11
2.64122	5.11
2.65788	5.11
2.67455	5.11
2.69122	5.11
2.70788	5.11
2.72455	5.11
2.74122	5.11
2.75788	5.11
2.77455	5.11
2.79122	5.11
2.80788	5.11
2.82455	5.11
2.84122	5.11
2.85788	5.11
2.87455	5.11
2.89122	5.11
2.90788	5.11
2.92455	5.11
2.94122	5.11
2.95788	5.11
2.97455	5.11
2.99122	5.11
3.00788	5.11
3.02455	5.11
3.04122	5.11
3.05788	5.11
3.07455	5.11
3.09122	5.11
3.10788	5.11
3.12455	5.11
3.14122	5.11
3.15788	5.11
3.17455	5.11
3.19122	5.11
3.20788	5.11
3.22455	5.11
3.24122	5.11
3.25788	5.11
3.27455	5.11
3.29122	5.11
3.30788	5.10
3.32455	5.10
3.34122	5.10
3.35788	5.10
3.37455	5.11
3.39122	5.11
3.40788	5.11
3.42455	5.11
3.44122	5.11
3.45788	5.11
3.47455	5.11
3.49122	5.11
3.50788	5.11
3.52455	5.11
3.54122	5.11
3.55788	5.11
3.57455	5.11
3.59122	5.11
3.60788	5.11
3.62455	5.11
3.64122	5.11
3.65788	5.11
3.67455	5.11
3.69122	5.11
3.70788	5.11
3.72455	5.11
3.74122	5.11
3.75788	5.11
3.77455	5.11
3.79122	5.11
3.80788	5.11
3.82455	5.11
3.84122	5.11
3.85788	5.11
3.87455	5.11
3.89122	5.11
3.90788	5.11
3.92455	5.11
3.94122	5.11
3.95788	5.11
3.97455	5.11
3.99122	5.11

[Status Trace (Linear Velocity)]
Interval(msec)	1000
# of Points	240
Start Time(min)	0.008
End Time(min)	3.991
Intensity Units	
Intensity Multiplier	1
R.Time (min)	Intensity
0.00788	39.02
0.02455	37.35
0.04122	38.44
0.05788	39.87
0.07455	39.96
0.09122	39.06
0.10788	39.01
0.12455	39.02
0.14122	39.03
0.15788	39.02
0.17455	39.02
0.19122	39.02
0.20788	39.02
0.22455	39.02
0.24122	39.02
0.25788	39.02
0.27455	39.02
0.29122	39.02
0.30788	39.02
0.32455	39.02
0.34122	39.02
0.35788	39.02
0.37455	39.02
0.39122	39.02
0.40788	39.03
0.42455	39.03
0.44122	39.03
0.45788	39.03
0.47455	39.03
0.49122	39.02
0.50788	39.02
0.52455	39.02
0.54122	39.02
0.55788	39.02
0.57455	39.02
0.59122	39.02
0.60788	39.02
0.62455	39.02
0.64122	39.02
0.65788	39.02
0.67455	39.02
0.69122	39.02
0.70788	39.02
0.72455	39.02
0.74122	39.02
0.75788	39.02
0.77455	39.02
0.79122	39.02
0.80788	39.02
0.82455	39.03
0.84122	39.03
0.85788	39.03
0.87455	39.03
0.89122	39.03
0.90788	39.03
0.92455	39.03
0.94122	39.03
0.95788	39.03
0.97455	39.03
0.99122	39.03
1.00788	39.03
1.02455	39.02
1.04122	39.02
1.05788	39.02
1.07455	39.02
1.09122	39.02
1.10788	39.02
1.12455	39.02
1.14122	39.02
1.15788	39.02
1.17455	39.02
1.19122	39.02
1.20788	39.02
1.22455	39.02
1.24122	39.02
1.25788	39.02
1.27455	39.02
1.29122	39.02
1.30788	39.02
1.32455	39.02
1.34122	39.02
1.35788	39.02
1.37455	39.02
1.39122	39.02
1.40788	39.02
1.42455	39.02
1.44122	39.02
1.45788	39.03
1.47455	39.03
1.49122	39.03
1.50788	39.02
1.52455	39.03
1.54122	39.03
1.55788	39.03
1.57455	39.02
1.59122	39.02
1.60788	39.02
1.62455	39.01
1.64122	38.99
1.65788	38.97
1.67455	38.94
1.69122	38.90
1.70788	38.86
1.72455	38.83
1.74122	38.80
1.75788	38.77
1.77455	38.74
1.79122	38.71
1.80788	38.67
1.82455	38.64
1.84122	38.61
1.85788	38.58
1.87455	38.55
1.89122	38.52
1.90788	38.49
1.92455	38.46
1.94122	38.43
1.95788	38.40
1.97455	38.37
1.99122	38.34
2.00788	38.31
2.02455	38.28
2.04122	38.25
2.05788	38.22
2.07455	38.19
2.09122	38.16
2.10788	38.13
2.12455	38.10
2.14122	38.07
2.15788	38.04
2.17455	38.01
2.19122	37.98
2.20788	37.95
2.22455	37.92
2.24122	37.89
2.25788	37.86
2.27455	37.83
2.29122	37.80
2.30788	37.77
2.32455	37.74
2.34122	37.72
2.35788	37.69
2.37455	37.67
2.39122	37.66
2.40788	37.66
2.42455	37.66
2.44122	37.66
2.45788	37.66
2.47455	37.66
2.49122	37.66
2.50788	37.66
2.52455	37.65
2.54122	37.66
2.55788	37.66
2.57455	37.66
2.59122	37.66
2.60788	37.66
2.62455	37.66
2.64122	37.65
2.65788	37.65
2.67455	37.65
2.69122	37.65
2.70788	37.65
2.72455	37.65
2.74122	37.65
2.75788	37.65
2.77455	37.65
2.79122	37.65
2.80788	37.65
2.82455	37.65
2.84122	37.65
2.85788	37.65
2.87455	37.65
2.89122	37.65
2.90788	37.65
2.92455	37.65
2.94122	37.64
2.95788	37.64
2.97455	37.64
2.99122	37.64
3.00788	37.64
3.02455	37.64
3.04122	37.64
3.05788	37.64
3.07455	37.64
3.09122	37.64
3.10788	37.64
3.12455	37.64
3.14122	37.64
3.15788	37.64
3.17455	37.63
3.19122	37.63
3.20788	37.63
3.22455	37.63
3.24122	37.63
3.25788	37.63
3.27455	37.63
3.29122	37.63
3.30788	37.63
3.32455	37.63
3.34122	37.63
3.35788	37.63
3.37455	37.63
3.39122	37.63
3.40788	37.63
3.42455	37.64
3.44122	37.64
3.45788	37.64
3.47455	37.64
3.49122	37.64
3.50788	37.64
3.52455	37.64
3.54122	37.64
3.55788	37.64
3.57455	37.64
3.59122	37.64
3.60788	37.64
3.62455	37.64
3.64122	37.64
3.65788	37.64
3.67455	37.64
3.69122	37.64
3.70788	37.64
3.72455	37.64
3.74122	37.64
3.75788	37.64
3.77455	37.64
3.79122	37.63
3.80788	37.63
3.82455	37.63
3.84122	37.63
3.85788	37.64
3.87455	37.64
3.89122	37.64
3.90788	37.64
3.92455	37.64
3.94122	37.64
3.95788	37.64
3.97455	37.64
3.99122	37.64

