[Header]
Application Name	LabSolutions
Version	5.110
Data File Name	C:\Users\User\Desktop\GC Analyses\Jack\Nachusa Grasslands Sampling\T4 Timepoint July 12th\T4_07122022_079.gcd
Output Date	3/17/2023
Output Time	12:04:56 PM

[File Information]
Type	Data File
Generated	3/15/2023 12:15:08 AM
Generated by	System Administrator
Modified	3/15/2023 12:21:51 AM
Modified by	System Administrator

[Sample Information]
Operator Name	System Administrator
Acquired	3/15/2023 12:17:50 AM
Sample Type	0:Unknown
Level	0
Sample Name	079
Sample ID	079
ISTD Amount1	1
ISTD Amount2	1
ISTD Amount3	1
ISTD Amount4	1
ISTD Amount5	1
ISTD Amount6	1
ISTD Amount7	1
ISTD Amount8	1
ISTD Amount9	1
ISTD Amount10	1
ISTD Amount11	1
ISTD Amount12	1
ISTD Amount13	1
ISTD Amount14	1
ISTD Amount15	1
ISTD Amount16	1
ISTD Amount17	1
ISTD Amount18	1
ISTD Amount19	1
ISTD Amount20	1
ISTD Amount21	1
ISTD Amount22	1
ISTD Amount23	1
ISTD Amount24	1
ISTD Amount25	1
ISTD Amount26	1
ISTD Amount27	1
ISTD Amount28	1
ISTD Amount29	1
ISTD Amount30	1
ISTD Amount31	1
ISTD Amount32	1
Sample Amount	1
Dilution Factor	1
Vial#	78
Injection Volume	1
Injection Count	1
Bar Code	

[Original Files]
Data File	C:\Users\User\Desktop\GC Analyses\Jack\Nachusa Grasslands Sampling\T4 Timepoint July 12th\T4_07122022_079.gcd
Method File	C:\LabSolutions\Data\GHG_4min_2022\ghg3_togas_w_acet_4 min_new_int.gcm
Batch File	C:\LabSolutions\Data\AutoSamplerTesting\T4_07122022.gcb
Report Format File	c:\LabSolutions\System\DEFAULT.lsr

[File Description]


[Configuration]
Instrument Name	C0B7VH3-Instrument1
Instrument #	1
Line #	1
# of Detectors	3
Detector ID	DET#1	DET#2	DET#3
Detector Name	FID	PTCD	ECD
# of Channels	1	1	1

[Peak Table(Ch1)]
# of Peaks	3
Peak#	R.Time	I.Time	F.Time	Area	Height	A/H	Conc.	Mark	ID#	Name	k'	Plate #	Plate Ht.	Tailing	Resolution	Sep.Factor	Area Ratio	Height Ratio	Conc. %	Norm Conc.
1	1.476	1.428	1.538	33461	16473	2.031	236.238	   	1	CO	0.000	9646	15.550	1.296	0.000	0.000	0	0	19.292	19.292
2	1.571	1.538	1.615	3739	1907	1.961	72.306	 V 	2	CH4	0.065	11545	12.992	1.071	1.608	0.000	0	0	5.905	5.905
3	1.996	1.949	2.418	3649863	1749364	2.086	916.017	   	3	CO2	0.353	17165	8.739	1.302	7.123	5.462	0	0	74.804	74.804

[Peak Table(Ch2)]
# of Peaks	0

[Peak Table(Ch3)]
# of Peaks	5
Peak#	R.Time	I.Time	F.Time	Area	Height	A/H	Conc.	Mark	ID#	Name	k'	Plate #	Plate Ht.	Tailing	Resolution	Sep.Factor	Area Ratio	Height Ratio	Conc. %	Norm Conc.
1	2.462	2.326	2.510	2303	734	3.137	0.000	   			0.000	10720	13.993	0.000	0.000	0.000	0	0	0.000	0.000
2	2.532	2.510	2.579	1069	369	2.898	0.000	 V 			0.028	7203	20.824	0.000	0.650	0.000	0	0	0.000	0.000
3	2.601	2.579	2.678	625	165	3.795	0.000	 V 			0.057	1877	79.900	0.000	0.388	2.000	0	0	0.000	0.000
4	2.880	2.708	3.056	19135	4846	3.949	0.489	   	1	N2O	0.170	12954	11.580	1.516	1.633	3.000	0	0	100.000	100.000
5	3.305	3.060	3.995	20889	661	31.581	0.000	   	2	SF6	0.343	169	889.771	1.853	0.760	2.018	0	0	0.000	0.000

[Compound Results(Ch1)]
# of IDs	6
ID#	Name	R.Time	Area	Height	Conc.	Curve	3rd	2nd	1st	Constant	Area Ratio	Height Ratio	Conc. %	Norm Conc.
1	CO	1.476	33461	16473	236.238	Linear	0.000000e+00	0.000000e+00	1.416423e+002	0.000000e+00	0	0	19.292	19.292
2	CH4	1.571	3739	1907	72.306	Linear	0.000000e+00	0.000000e+00	5.171738e+001	0.000000e+00	0	0	5.905	5.905
3	CO2	1.996	3649863	1749364	916.017	Linear	0.000000e+00	0.000000e+00	3.984494e+003	0.000000e+00	0	0	74.804	74.804
4	Ethylene	0.000	0	0	0.000	Linear	0.000000e+00	0.000000e+00	0.000000e+00	0.000000e+00	0	0	0.000	0.000
5	Acetylene	0.000	0	0	0.000	Linear	0.000000e+00	0.000000e+00	0.000000e+00	0.000000e+00	0	0	0.000	0.000
6	Ethane	0.000	0	0	0.000	Linear	0.000000e+00	0.000000e+00	0.000000e+00	0.000000e+00	0	0	0.000	0.000

[Compound Results(Ch2)]
# of IDs	5
ID#	Name	R.Time	Area	Height	Conc.	Curve	3rd	2nd	1st	Constant	Area Ratio	Height Ratio	Conc. %	Norm Conc.
1	Hydrogen	0.000	0	0	0.000	Linear	0.000000e+00	0.000000e+00	0.000000e+00	0.000000e+00	0	0	0.000	0.000
2	Oxygen	0.000	0	0	0.000	Linear	0.000000e+00	0.000000e+00	0.000000e+00	0.000000e+00	0	0	0.000	0.000
3	Nitrogen	0.000	0	0	0.000	Linear	0.000000e+00	0.000000e+00	0.000000e+00	0.000000e+00	0	0	0.000	0.000
4	Methane	0.000	0	0	0.000	Linear	0.000000e+00	0.000000e+00	0.000000e+00	0.000000e+00	0	0	0.000	0.000
5	Carbon Monoxide	0.000	0	0	0.000	Linear	0.000000e+00	0.000000e+00	0.000000e+00	0.000000e+00	0	0	0.000	0.000

[Compound Results(Ch3)]
# of IDs	2
ID#	Name	R.Time	Area	Height	Conc.	Curve	3rd	2nd	1st	Constant	Area Ratio	Height Ratio	Conc. %	Norm Conc.
1	N2O	2.880	19135	4846	0.489	Linear	0.000000e+00	0.000000e+00	3.915173e+004	0.000000e+00	0	0	100.000	100.000
2	SF6	3.305	20889	661	0.000	Linear	0.000000e+00	0.000000e+00	0.000000e+00	0.000000e+00	0	0	0.000	0.000

[Group Results(Ch1)]
# of Groups	0

[Group Results(Ch2)]
# of Groups	0

[Group Results(Ch3)]
# of Groups	0

[Chromatogram (Ch1)]
Interval(msec)	220
# of Points	1091
Start Time(min)	0.002
End Time(min)	3.998
R.Time (min)	Intensity
0.00167	8
0.00533	5
0.00900	5
0.01267	6
0.01633	10
0.02000	17
0.02367	18
0.02733	16
0.03100	16
0.03467	16
0.03833	14
0.04200	15
0.04567	16
0.04933	17
0.05300	17
0.05667	23
0.06033	32
0.06400	44
0.06767	52
0.07133	52
0.07500	50
0.07867	49
0.08233	44
0.08600	39
0.08967	35
0.09333	31
0.09700	31
0.10067	31
0.10433	23
0.10800	16
0.11167	13
0.11533	16
0.11900	22
0.12267	29
0.12633	34
0.13000	34
0.13367	36
0.13733	39
0.14100	47
0.14467	55
0.14833	55
0.15200	47
0.15567	42
0.15933	43
0.16300	41
0.16667	39
0.17033	40
0.17400	47
0.17767	57
0.18133	67
0.18500	74
0.18867	84
0.19233	92
0.19600	95
0.19967	93
0.20333	94
0.20700	96
0.21067	97
0.21433	96
0.21800	97
0.22167	98
0.22533	101
0.22900	109
0.23267	125
0.23633	145
0.24000	159
0.24367	164
0.24733	165
0.25100	161
0.25467	153
0.25833	143
0.26200	128
0.26567	113
0.26933	103
0.27300	95
0.27667	92
0.28033	95
0.28400	101
0.28767	106
0.29133	109
0.29500	106
0.29867	96
0.30233	84
0.30600	75
0.30967	68
0.31333	63
0.31700	61
0.32067	59
0.32433	53
0.32800	49
0.33167	49
0.33533	49
0.33900	51
0.34267	58
0.34633	69
0.35000	78
0.35367	87
0.35733	92
0.36100	83
0.36467	66
0.36833	52
0.37200	37
0.37567	23
0.37933	15
0.38300	11
0.38667	12
0.39033	25
0.39400	46
0.39767	58
0.40133	61
0.40500	59
0.40867	55
0.41233	51
0.41600	48
0.41967	49
0.42333	52
0.42700	54
0.43067	56
0.43433	58
0.43800	57
0.44167	56
0.44533	52
0.44900	45
0.45267	34
0.45633	23
0.46000	11
0.46367	4
0.46733	-2
0.47100	-6
0.47467	-7
0.47833	-3
0.48200	4
0.48567	10
0.48933	12
0.49300	16
0.49667	23
0.50033	32
0.50400	37
0.50767	36
0.51133	34
0.51500	29
0.51867	22
0.52233	24
0.52600	31
0.52967	35
0.53333	36
0.53700	35
0.54067	33
0.54433	32
0.54800	38
0.55167	40
0.55533	37
0.55900	34
0.56267	32
0.56633	33
0.57000	34
0.57367	37
0.57733	39
0.58100	38
0.58467	37
0.58833	36
0.59200	37
0.59567	39
0.59933	38
0.60300	39
0.60667	38
0.61033	32
0.61400	24
0.61767	19
0.62133	18
0.62500	14
0.62867	13
0.63233	14
0.63600	21
0.63967	25
0.64333	22
0.64700	15
0.65067	15
0.65433	18
0.65800	24
0.66167	32
0.66533	36
0.66900	39
0.67267	43
0.67633	46
0.68000	49
0.68367	54
0.68733	56
0.69100	58
0.69467	56
0.69833	45
0.70200	31
0.70567	24
0.70933	25
0.71300	28
0.71667	29
0.72033	25
0.72400	25
0.72767	30
0.73133	37
0.73500	38
0.73867	35
0.74233	35
0.74600	34
0.74967	28
0.75333	13
0.75700	-1
0.76067	-9
0.76433	-10
0.76800	-4
0.77167	3
0.77533	7
0.77900	9
0.78267	12
0.78633	14
0.79000	14
0.79367	16
0.79733	16
0.80100	20
0.80467	24
0.80833	22
0.81200	15
0.81567	10
0.81933	10
0.82300	12
0.82667	13
0.83033	15
0.83400	17
0.83767	19
0.84133	25
0.84500	36
0.84867	46
0.85233	54
0.85600	54
0.85967	43
0.86333	31
0.86700	24
0.87067	19
0.87433	18
0.87800	19
0.88167	18
0.88533	14
0.88900	12
0.89267	20
0.89633	28
0.90000	28
0.90367	27
0.90733	24
0.91100	17
0.91467	14
0.91833	20
0.92200	28
0.92567	25
0.92933	18
0.93300	13
0.93667	11
0.94033	11
0.94400	9
0.94767	8
0.95133	10
0.95500	10
0.95867	14
0.96233	23
0.96600	30
0.96967	26
0.97333	18
0.97700	15
0.98067	17
0.98433	14
0.98800	12
0.99167	12
0.99533	11
0.99900	11
1.00267	13
1.00633	19
1.01000	27
1.01367	31
1.01733	34
1.02100	38
1.02467	35
1.02833	27
1.03200	23
1.03567	18
1.03933	11
1.04300	6
1.04667	6
1.05033	4
1.05400	-3
1.05767	-9
1.06133	-9
1.06500	-5
1.06867	-2
1.07233	-6
1.07600	-13
1.07967	-18
1.08333	-19
1.08700	-13
1.09067	-3
1.09433	6
1.09800	17
1.10167	25
1.10533	26
1.10900	22
1.11267	18
1.11633	20
1.12000	19
1.12367	6
1.12733	-5
1.13100	-11
1.13467	-10
1.13833	-8
1.14200	-6
1.14567	-4
1.14933	-3
1.15300	-2
1.15667	-4
1.16033	-7
1.16400	-10
1.16767	-12
1.17133	-13
1.17500	-11
1.17867	-5
1.18233	4
1.18600	11
1.18967	17
1.19333	18
1.19700	14
1.20067	8
1.20433	10
1.20800	12
1.21167	6
1.21533	-4
1.21900	-11
1.22267	-17
1.22633	-17
1.23000	-14
1.23367	-12
1.23733	-12
1.24100	-12
1.24467	-7
1.24833	3
1.25200	11
1.25567	14
1.25933	19
1.26300	19
1.26667	14
1.27033	4
1.27400	-5
1.27767	-9
1.28133	-9
1.28500	-6
1.28867	-3
1.29233	-4
1.29600	-10
1.29967	-16
1.30333	-20
1.30700	-20
1.31067	-20
1.31433	-21
1.31800	-17
1.32167	-11
1.32533	-5
1.32900	-1
1.33267	-1
1.33633	-4
1.34000	-12
1.34367	-21
1.34733	-27
1.35100	-33
1.35467	-31
1.35833	-26
1.36200	-19
1.36567	-13
1.36933	-11
1.37300	-14
1.37667	-20
1.38033	-29
1.38400	-34
1.38767	-36
1.39133	-34
1.39500	-32
1.39867	-28
1.40233	-25
1.40600	-21
1.40967	-19
1.41333	-20
1.41700	-25
1.42067	-23
1.42433	-14
1.42800	-9
1.43167	-7
1.43533	-9
1.43900	-3
1.44267	37
1.44633	179
1.45000	673
1.45367	2058
1.45733	4613
1.46100	7870
1.46467	11074
1.46833	13715
1.47200	15559
1.47567	16455
1.47933	16254
1.48300	14944
1.48667	12784
1.49033	10233
1.49400	7752
1.49767	5628
1.50133	3958
1.50500	2715
1.50867	1826
1.51233	1208
1.51600	793
1.51967	517
1.52333	330
1.52700	201
1.53067	111
1.53433	53
1.53800	28
1.54167	55
1.54533	181
1.54900	439
1.55267	792
1.55633	1168
1.56000	1492
1.56367	1731
1.56733	1866
1.57100	1872
1.57467	1735
1.57833	1481
1.58200	1170
1.58567	863
1.58933	600
1.59300	393
1.59667	239
1.60033	129
1.60400	56
1.60767	9
1.61133	-22
1.61500	-43
1.61867	-53
1.62233	-52
1.62600	-41
1.62967	-27
1.63333	-19
1.63700	-26
1.64067	-41
1.64433	-55
1.64800	-66
1.65167	-74
1.65533	-79
1.65900	-79
1.66267	-77
1.66633	-73
1.67000	-69
1.67367	-62
1.67733	-58
1.68100	-59
1.68467	-60
1.68833	-59
1.69200	-55
1.69567	-52
1.69933	-52
1.70300	-52
1.70667	-52
1.71033	-51
1.71400	-46
1.71767	-41
1.72133	-41
1.72500	-45
1.72867	-48
1.73233	-53
1.73600	-59
1.73967	-62
1.74333	-59
1.74700	-50
1.75067	-39
1.75433	-31
1.75800	-30
1.76167	-33
1.76533	-36
1.76900	-34
1.77267	-35
1.77633	-41
1.78000	-49
1.78367	-52
1.78733	-50
1.79100	-46
1.79467	-43
1.79833	-42
1.80200	-42
1.80567	-47
1.80933	-50
1.81300	-47
1.81667	-41
1.82033	-31
1.82400	-20
1.82767	-14
1.83133	-12
1.83500	-15
1.83867	-15
1.84233	-12
1.84600	-10
1.84967	-9
1.85333	-9
1.85700	-12
1.86067	-15
1.86433	-14
1.86800	-10
1.87167	-8
1.87533	-7
1.87900	-8
1.88267	-11
1.88633	-12
1.89000	-11
1.89367	-10
1.89733	-8
1.90100	-6
1.90467	-3
1.90833	1
1.91200	6
1.91567	7
1.91933	5
1.92300	0
1.92667	-0
1.93033	1
1.93400	5
1.93767	12
1.94133	18
1.94500	21
1.94867	27
1.95233	51
1.95600	252
1.95967	1569
1.96333	8122
1.96700	32610
1.97067	102310
1.97433	253216
1.97800	503341
1.98167	828266
1.98533	1169142
1.98900	1463207
1.99267	1664702
1.99633	1749434
2.00000	1712109
2.00367	1567598
2.00733	1348224
2.01100	1094748
2.01467	845112
2.01833	625844
2.02200	449104
2.02567	315462
2.02933	218963
2.03300	151477
2.03667	105251
2.04033	73957
2.04400	52867
2.04767	38629
2.05133	28943
2.05500	22268
2.05867	17594
2.06233	14253
2.06600	11810
2.06967	9989
2.07333	8599
2.07700	7509
2.08067	6644
2.08433	5941
2.08800	5354
2.09167	4856
2.09533	4435
2.09900	4078
2.10267	3770
2.10633	3503
2.11000	3267
2.11367	3056
2.11733	2867
2.12100	2698
2.12467	2548
2.12833	2413
2.13200	2291
2.13567	2183
2.13933	2085
2.14300	1994
2.14667	1909
2.15033	1826
2.15400	1742
2.15767	1659
2.16133	1586
2.16500	1522
2.16867	1467
2.17233	1422
2.17600	1373
2.17967	1328
2.18333	1286
2.18700	1249
2.19067	1215
2.19433	1174
2.19800	1133
2.20167	1094
2.20533	1057
2.20900	1024
2.21267	996
2.21633	973
2.22000	949
2.22367	923
2.22733	899
2.23100	880
2.23467	865
2.23833	851
2.24200	835
2.24567	814
2.24933	788
2.25300	764
2.25667	750
2.26033	742
2.26400	733
2.26767	720
2.27133	698
2.27500	676
2.27867	656
2.28233	639
2.28600	620
2.28967	610
2.29333	613
2.29700	623
2.30067	630
2.30433	629
2.30800	621
2.31167	603
2.31533	578
2.31900	558
2.32267	545
2.32633	538
2.33000	531
2.33367	528
2.33733	523
2.34100	519
2.34467	511
2.34833	500
2.35200	490
2.35567	485
2.35933	486
2.36300	493
2.36667	499
2.37033	496
2.37400	492
2.37767	492
2.38133	494
2.38500	493
2.38867	485
2.39233	473
2.39600	465
2.39967	467
2.40333	473
2.40700	474
2.41067	472
2.41433	464
2.41800	452
2.42167	448
2.42533	447
2.42900	445
2.43267	449
2.43633	451
2.44000	451
2.44367	453
2.44733	461
2.45100	473
2.45467	479
2.45833	472
2.46200	462
2.46567	449
2.46933	435
2.47300	422
2.47667	415
2.48033	413
2.48400	415
2.48767	414
2.49133	405
2.49500	391
2.49867	376
2.50233	368
2.50600	366
2.50967	371
2.51333	382
2.51700	390
2.52067	392
2.52433	388
2.52800	384
2.53167	380
2.53533	377
2.53900	375
2.54267	374
2.54633	366
2.55000	357
2.55367	349
2.55733	347
2.56100	345
2.56467	343
2.56833	345
2.57200	347
2.57567	350
2.57933	354
2.58300	352
2.58667	346
2.59033	346
2.59400	345
2.59767	349
2.60133	356
2.60500	358
2.60867	354
2.61233	345
2.61600	336
2.61967	331
2.62333	324
2.62700	316
2.63067	312
2.63433	313
2.63800	319
2.64167	330
2.64533	338
2.64900	336
2.65267	329
2.65633	321
2.66000	312
2.66367	306
2.66733	302
2.67100	299
2.67467	298
2.67833	299
2.68200	300
2.68567	300
2.68933	298
2.69300	294
2.69667	296
2.70033	297
2.70400	303
2.70767	311
2.71133	318
2.71500	321
2.71867	315
2.72233	306
2.72600	296
2.72967	287
2.73333	280
2.73700	277
2.74067	271
2.74433	261
2.74800	253
2.75167	249
2.75533	247
2.75900	248
2.76267	258
2.76633	268
2.77000	279
2.77367	287
2.77733	289
2.78100	284
2.78467	274
2.78833	265
2.79200	260
2.79567	259
2.79933	259
2.80300	261
2.80667	262
2.81033	263
2.81400	260
2.81767	255
2.82133	255
2.82500	253
2.82867	248
2.83233	244
2.83600	246
2.83967	252
2.84333	260
2.84700	268
2.85067	271
2.85433	272
2.85800	274
2.86167	273
2.86533	267
2.86900	260
2.87267	256
2.87633	254
2.88000	253
2.88367	251
2.88733	248
2.89100	252
2.89467	254
2.89833	254
2.90200	257
2.90567	258
2.90933	258
2.91300	257
2.91667	258
2.92033	259
2.92400	259
2.92767	259
2.93133	257
2.93500	254
2.93867	251
2.94233	250
2.94600	253
2.94967	254
2.95333	253
2.95700	254
2.96067	257
2.96433	257
2.96800	252
2.97167	244
2.97533	237
2.97900	234
2.98267	237
2.98633	241
2.99000	244
2.99367	246
2.99733	247
3.00100	248
3.00467	248
3.00833	246
3.01200	243
3.01567	244
3.01933	246
3.02300	244
3.02667	240
3.03033	238
3.03400	234
3.03767	232
3.04133	234
3.04500	240
3.04867	243
3.05233	243
3.05600	237
3.05967	235
3.06333	239
3.06700	241
3.07067	245
3.07433	250
3.07800	254
3.08167	257
3.08533	257
3.08900	255
3.09267	249
3.09633	244
3.10000	239
3.10367	233
3.10733	230
3.11100	230
3.11467	231
3.11833	235
3.12200	240
3.12567	246
3.12933	251
3.13300	249
3.13667	238
3.14033	223
3.14400	209
3.14767	197
3.15133	188
3.15500	181
3.15867	178
3.16233	179
3.16600	189
3.16967	196
3.17333	199
3.17700	202
3.18067	206
3.18433	208
3.18800	208
3.19167	206
3.19533	205
3.19900	208
3.20267	214
3.20633	216
3.21000	215
3.21367	215
3.21733	215
3.22100	213
3.22467	212
3.22833	209
3.23200	207
3.23567	206
3.23933	210
3.24300	215
3.24667	216
3.25033	213
3.25400	208
3.25767	199
3.26133	189
3.26500	184
3.26867	189
3.27233	197
3.27600	206
3.27967	209
3.28333	207
3.28700	198
3.29067	189
3.29433	186
3.29800	185
3.30167	186
3.30533	188
3.30900	188
3.31267	188
3.31633	190
3.32000	193
3.32367	197
3.32733	198
3.33100	197
3.33467	189
3.33833	183
3.34200	181
3.34567	183
3.34933	184
3.35300	186
3.35667	191
3.36033	195
3.36400	198
3.36767	203
3.37133	214
3.37500	223
3.37867	233
3.38233	235
3.38600	226
3.38967	208
3.39333	188
3.39700	176
3.40067	170
3.40433	166
3.40800	164
3.41167	161
3.41533	155
3.41900	149
3.42267	141
3.42633	138
3.43000	141
3.43367	145
3.43733	150
3.44100	156
3.44467	160
3.44833	161
3.45200	161
3.45567	162
3.45933	166
3.46300	170
3.46667	169
3.47033	167
3.47400	167
3.47767	166
3.48133	166
3.48500	169
3.48867	179
3.49233	193
3.49600	202
3.49967	200
3.50333	192
3.50700	176
3.51067	166
3.51433	157
3.51800	150
3.52167	146
3.52533	143
3.52900	143
3.53267	146
3.53633	148
3.54000	154
3.54367	160
3.54733	164
3.55100	165
3.55467	167
3.55833	170
3.56200	173
3.56567	175
3.56933	178
3.57300	181
3.57667	183
3.58033	181
3.58400	178
3.58767	172
3.59133	167
3.59500	163
3.59867	160
3.60233	154
3.60600	148
3.60967	148
3.61333	151
3.61700	151
3.62067	149
3.62433	148
3.62800	149
3.63167	155
3.63533	165
3.63900	167
3.64267	161
3.64633	156
3.65000	153
3.65367	152
3.65733	155
3.66100	157
3.66467	159
3.66833	159
3.67200	160
3.67567	161
3.67933	158
3.68300	150
3.68667	145
3.69033	144
3.69400	141
3.69767	139
3.70133	140
3.70500	145
3.70867	148
3.71233	149
3.71600	148
3.71967	148
3.72333	149
3.72700	148
3.73067	144
3.73433	142
3.73800	143
3.74167	145
3.74533	142
3.74900	138
3.75267	138
3.75633	141
3.76000	145
3.76367	150
3.76733	157
3.77100	159
3.77467	160
3.77833	155
3.78200	144
3.78567	139
3.78933	136
3.79300	128
3.79667	123
3.80033	123
3.80400	121
3.80767	119
3.81133	119
3.81500	124
3.81867	130
3.82233	133
3.82600	136
3.82967	140
3.83333	141
3.83700	140
3.84067	139
3.84433	142
3.84800	143
3.85167	137
3.85533	133
3.85900	128
3.86267	119
3.86633	111
3.87000	108
3.87367	110
3.87733	114
3.88100	116
3.88467	113
3.88833	111
3.89200	110
3.89567	116
3.89933	122
3.90300	127
3.90667	132
3.91033	134
3.91400	130
3.91767	125
3.92133	120
3.92500	118
3.92867	116
3.93233	112
3.93600	107
3.93967	105
3.94333	111
3.94700	122
3.95067	132
3.95433	133
3.95800	131
3.96167	129
3.96533	124
3.96900	117
3.97267	109
3.97633	108
3.98000	114
3.98367	125
3.98733	130
3.99100	127
3.99467	119
3.99833	111

[Chromatogram (Ch2)]
Interval(msec)	220
# of Points	1091
Start Time(min)	0.002
End Time(min)	3.998
R.Time (min)	Intensity
0.00167	-0
0.00533	-0
0.00900	-0
0.01267	0
0.01633	0
0.02000	0
0.02367	0
0.02733	0
0.03100	0
0.03467	0
0.03833	0
0.04200	0
0.04567	1
0.04933	1
0.05300	1
0.05667	2
0.06033	2
0.06400	2
0.06767	3
0.07133	3
0.07500	3
0.07867	3
0.08233	3
0.08600	4
0.08967	4
0.09333	4
0.09700	4
0.10067	4
0.10433	4
0.10800	4
0.11167	4
0.11533	4
0.11900	4
0.12267	4
0.12633	4
0.13000	4
0.13367	4
0.13733	3
0.14100	3
0.14467	3
0.14833	3
0.15200	3
0.15567	3
0.15933	3
0.16300	3
0.16667	3
0.17033	3
0.17400	3
0.17767	3
0.18133	3
0.18500	3
0.18867	3
0.19233	3
0.19600	3
0.19967	3
0.20333	2
0.20700	2
0.21067	2
0.21433	2
0.21800	2
0.22167	2
0.22533	2
0.22900	2
0.23267	2
0.23633	2
0.24000	3
0.24367	3
0.24733	3
0.25100	3
0.25467	3
0.25833	3
0.26200	3
0.26567	3
0.26933	3
0.27300	3
0.27667	3
0.28033	3
0.28400	4
0.28767	4
0.29133	4
0.29500	4
0.29867	3
0.30233	3
0.30600	3
0.30967	3
0.31333	3
0.31700	3
0.32067	3
0.32433	3
0.32800	3
0.33167	3
0.33533	4
0.33900	4
0.34267	4
0.34633	4
0.35000	4
0.35367	4
0.35733	4
0.36100	4
0.36467	4
0.36833	4
0.37200	4
0.37567	4
0.37933	4
0.38300	4
0.38667	3
0.39033	3
0.39400	3
0.39767	3
0.40133	3
0.40500	3
0.40867	3
0.41233	3
0.41600	3
0.41967	3
0.42333	3
0.42700	3
0.43067	4
0.43433	4
0.43800	4
0.44167	4
0.44533	4
0.44900	4
0.45267	4
0.45633	4
0.46000	3
0.46367	3
0.46733	3
0.47100	2
0.47467	2
0.47833	2
0.48200	2
0.48567	3
0.48933	3
0.49300	3
0.49667	4
0.50033	4
0.50400	4
0.50767	4
0.51133	4
0.51500	5
0.51867	5
0.52233	5
0.52600	5
0.52967	4
0.53333	4
0.53700	4
0.54067	4
0.54433	4
0.54800	3
0.55167	3
0.55533	3
0.55900	3
0.56267	3
0.56633	3
0.57000	3
0.57367	3
0.57733	3
0.58100	3
0.58467	3
0.58833	3
0.59200	4
0.59567	4
0.59933	4
0.60300	4
0.60667	4
0.61033	4
0.61400	4
0.61767	4
0.62133	4
0.62500	4
0.62867	4
0.63233	3
0.63600	3
0.63967	3
0.64333	3
0.64700	3
0.65067	3
0.65433	2
0.65800	2
0.66167	2
0.66533	2
0.66900	2
0.67267	1
0.67633	1
0.68000	1
0.68367	0
0.68733	-0
0.69100	-0
0.69467	-1
0.69833	-1
0.70200	-1
0.70567	-1
0.70933	-1
0.71300	-0
0.71667	-0
0.72033	-0
0.72400	0
0.72767	1
0.73133	1
0.73500	2
0.73867	2
0.74233	2
0.74600	2
0.74967	2
0.75333	2
0.75700	2
0.76067	1
0.76433	1
0.76800	1
0.77167	1
0.77533	1
0.77900	2
0.78267	2
0.78633	1
0.79000	1
0.79367	1
0.79733	1
0.80100	1
0.80467	0
0.80833	0
0.81200	-0
0.81567	-1
0.81933	-1
0.82300	-1
0.82667	-1
0.83033	-1
0.83400	-1
0.83767	-1
0.84133	-1
0.84500	-0
0.84867	-0
0.85233	-0
0.85600	0
0.85967	0
0.86333	0
0.86700	1
0.87067	1
0.87433	1
0.87800	2
0.88167	2
0.88533	2
0.88900	2
0.89267	2
0.89633	2
0.90000	1
0.90367	1
0.90733	1
0.91100	0
0.91467	0
0.91833	0
0.92200	-0
0.92567	-0
0.92933	-0
0.93300	-0
0.93667	-0
0.94033	-0
0.94400	-0
0.94767	-0
0.95133	-0
0.95500	-0
0.95867	-0
0.96233	-0
0.96600	-0
0.96967	-0
0.97333	-0
0.97700	-0
0.98067	-1
0.98433	-1
0.98800	-1
0.99167	-1
0.99533	-1
0.99900	-1
1.00267	-1
1.00633	-1
1.01000	-1
1.01367	-0
1.01733	0
1.02100	1
1.02467	1
1.02833	2
1.03200	2
1.03567	2
1.03933	2
1.04300	2
1.04667	2
1.05033	2
1.05400	2
1.05767	2
1.06133	1
1.06500	1
1.06867	1
1.07233	1
1.07600	2
1.07967	2
1.08333	3
1.08700	3
1.09067	3
1.09433	3
1.09800	3
1.10167	3
1.10533	2
1.10900	2
1.11267	2
1.11633	1
1.12000	1
1.12367	1
1.12733	1
1.13100	1
1.13467	2
1.13833	2
1.14200	2
1.14567	2
1.14933	2
1.15300	1
1.15667	1
1.16033	1
1.16400	1
1.16767	0
1.17133	0
1.17500	-0
1.17867	-0
1.18233	-0
1.18600	-0
1.18967	-0
1.19333	0
1.19700	-0
1.20067	-0
1.20433	-0
1.20800	-0
1.21167	-0
1.21533	-0
1.21900	0
1.22267	0
1.22633	1
1.23000	1
1.23367	1
1.23733	2
1.24100	2
1.24467	2
1.24833	2
1.25200	2
1.25567	2
1.25933	2
1.26300	2
1.26667	2
1.27033	1
1.27400	1
1.27767	1
1.28133	0
1.28500	-0
1.28867	-1
1.29233	-1
1.29600	-1
1.29967	-1
1.30333	-1
1.30700	-2
1.31067	-2
1.31433	-2
1.31800	-2
1.32167	-2
1.32533	-2
1.32900	-2
1.33267	-2
1.33633	-1
1.34000	-1
1.34367	-1
1.34733	-0
1.35100	0
1.35467	0
1.35833	1
1.36200	1
1.36567	1
1.36933	2
1.37300	2
1.37667	2
1.38033	2
1.38400	2
1.38767	2
1.39133	2
1.39500	2
1.39867	2
1.40233	2
1.40600	2
1.40967	2
1.41333	1
1.41700	1
1.42067	1
1.42433	2
1.42800	2
1.43167	2
1.43533	2
1.43900	2
1.44267	2
1.44633	2
1.45000	2
1.45367	2
1.45733	2
1.46100	3
1.46467	3
1.46833	3
1.47200	3
1.47567	3
1.47933	2
1.48300	2
1.48667	2
1.49033	2
1.49400	2
1.49767	2
1.50133	1
1.50500	1
1.50867	1
1.51233	1
1.51600	1
1.51967	1
1.52333	1
1.52700	1
1.53067	0
1.53433	-0
1.53800	-0
1.54167	-1
1.54533	-1
1.54900	-1
1.55267	-1
1.55633	-1
1.56000	-1
1.56367	-1
1.56733	-1
1.57100	-1
1.57467	-1
1.57833	-1
1.58200	-1
1.58567	-2
1.58933	-2
1.59300	-2
1.59667	-2
1.60033	-3
1.60400	-4
1.60767	-5
1.61133	-6
1.61500	-8
1.61867	-10
1.62233	-12
1.62600	-15
1.62967	-18
1.63333	-21
1.63700	-24
1.64067	-28
1.64433	-32
1.64800	-36
1.65167	-39
1.65533	-43
1.65900	-47
1.66267	-51
1.66633	-56
1.67000	-61
1.67367	-66
1.67733	-71
1.68100	-77
1.68467	-81
1.68833	-86
1.69200	-89
1.69567	-92
1.69933	-95
1.70300	-97
1.70667	-100
1.71033	-102
1.71400	-103
1.71767	-104
1.72133	-105
1.72500	-106
1.72867	-106
1.73233	-106
1.73600	-106
1.73967	-106
1.74333	-105
1.74700	-105
1.75067	-104
1.75433	-104
1.75800	-104
1.76167	-105
1.76533	-105
1.76900	-106
1.77267	-108
1.77633	-109
1.78000	-110
1.78367	-111
1.78733	-112
1.79100	-113
1.79467	-113
1.79833	-113
1.80200	-113
1.80567	-113
1.80933	-112
1.81300	-112
1.81667	-111
1.82033	-111
1.82400	-111
1.82767	-110
1.83133	-110
1.83500	-111
1.83867	-111
1.84233	-112
1.84600	-113
1.84967	-113
1.85333	-113
1.85700	-113
1.86067	-113
1.86433	-113
1.86800	-113
1.87167	-113
1.87533	-113
1.87900	-113
1.88267	-112
1.88633	-111
1.89000	-111
1.89367	-110
1.89733	-110
1.90100	-110
1.90467	-110
1.90833	-110
1.91200	-110
1.91567	-110
1.91933	-110
1.92300	-109
1.92667	-108
1.93033	-108
1.93400	-107
1.93767	-107
1.94133	-107
1.94500	-107
1.94867	-106
1.95233	-106
1.95600	-106
1.95967	-106
1.96333	-106
1.96700	-106
1.97067	-107
1.97433	-107
1.97800	-107
1.98167	-106
1.98533	-106
1.98900	-105
1.99267	-104
1.99633	-104
2.00000	-104
2.00367	-104
2.00733	-104
2.01100	-105
2.01467	-105
2.01833	-105
2.02200	-105
2.02567	-105
2.02933	-104
2.03300	-104
2.03667	-103
2.04033	-103
2.04400	-103
2.04767	-102
2.05133	-102
2.05500	-101
2.05867	-101
2.06233	-101
2.06600	-101
2.06967	-101
2.07333	-100
2.07700	-100
2.08067	-99
2.08433	-99
2.08800	-98
2.09167	-98
2.09533	-98
2.09900	-98
2.10267	-98
2.10633	-97
2.11000	-97
2.11367	-97
2.11733	-96
2.12100	-96
2.12467	-95
2.12833	-94
2.13200	-93
2.13567	-93
2.13933	-93
2.14300	-93
2.14667	-94
2.15033	-94
2.15400	-93
2.15767	-93
2.16133	-92
2.16500	-91
2.16867	-91
2.17233	-90
2.17600	-90
2.17967	-90
2.18333	-90
2.18700	-90
2.19067	-89
2.19433	-89
2.19800	-88
2.20167	-88
2.20533	-87
2.20900	-87
2.21267	-87
2.21633	-86
2.22000	-86
2.22367	-86
2.22733	-86
2.23100	-86
2.23467	-86
2.23833	-85
2.24200	-85
2.24567	-84
2.24933	-84
2.25300	-84
2.25667	-84
2.26033	-84
2.26400	-84
2.26767	-83
2.27133	-82
2.27500	-82
2.27867	-81
2.28233	-81
2.28600	-80
2.28967	-80
2.29333	-79
2.29700	-78
2.30067	-77
2.30433	-76
2.30800	-75
2.31167	-76
2.31533	-76
2.31900	-77
2.32267	-78
2.32633	-78
2.33000	-78
2.33367	-77
2.33733	-77
2.34100	-76
2.34467	-76
2.34833	-75
2.35200	-74
2.35567	-73
2.35933	-72
2.36300	-71
2.36667	-71
2.37033	-70
2.37400	-68
2.37767	-66
2.38133	-63
2.38500	-59
2.38867	-55
2.39233	-51
2.39600	-47
2.39967	-42
2.40333	-37
2.40700	-33
2.41067	-28
2.41433	-23
2.41800	-19
2.42167	-15
2.42533	-12
2.42900	-10
2.43267	-9
2.43633	-8
2.44000	-8
2.44367	-7
2.44733	-6
2.45100	-5
2.45467	-4
2.45833	-3
2.46200	-2
2.46567	-1
2.46933	-0
2.47300	0
2.47667	1
2.48033	2
2.48400	3
2.48767	4
2.49133	5
2.49500	6
2.49867	7
2.50233	8
2.50600	9
2.50967	10
2.51333	11
2.51700	12
2.52067	12
2.52433	13
2.52800	14
2.53167	14
2.53533	14
2.53900	14
2.54267	14
2.54633	15
2.55000	15
2.55367	15
2.55733	16
2.56100	16
2.56467	17
2.56833	17
2.57200	17
2.57567	17
2.57933	17
2.58300	17
2.58667	17
2.59033	18
2.59400	18
2.59767	18
2.60133	19
2.60500	19
2.60867	19
2.61233	20
2.61600	20
2.61967	20
2.62333	20
2.62700	20
2.63067	20
2.63433	20
2.63800	20
2.64167	20
2.64533	20
2.64900	20
2.65267	20
2.65633	20
2.66000	20
2.66367	21
2.66733	21
2.67100	22
2.67467	23
2.67833	23
2.68200	24
2.68567	25
2.68933	25
2.69300	25
2.69667	25
2.70033	25
2.70400	25
2.70767	25
2.71133	25
2.71500	25
2.71867	25
2.72233	25
2.72600	25
2.72967	25
2.73333	26
2.73700	26
2.74067	27
2.74433	27
2.74800	28
2.75167	28
2.75533	28
2.75900	28
2.76267	29
2.76633	29
2.77000	29
2.77367	29
2.77733	29
2.78100	28
2.78467	28
2.78833	28
2.79200	28
2.79567	28
2.79933	28
2.80300	29
2.80667	29
2.81033	29
2.81400	29
2.81767	30
2.82133	30
2.82500	30
2.82867	30
2.83233	29
2.83600	28
2.83967	27
2.84333	25
2.84700	23
2.85067	19
2.85433	13
2.85800	4
2.86167	-9
2.86533	-25
2.86900	-45
2.87267	-70
2.87633	-99
2.88000	-133
2.88367	-172
2.88733	-214
2.89100	-259
2.89467	-308
2.89833	-359
2.90200	-412
2.90567	-467
2.90933	-522
2.91300	-577
2.91667	-633
2.92033	-688
2.92400	-742
2.92767	-793
2.93133	-844
2.93500	-895
2.93867	-951
2.94233	-1009
2.94600	-1058
2.94967	-1089
2.95333	-1095
2.95700	-1076
2.96067	-1033
2.96433	-974
2.96800	-902
2.97167	-823
2.97533	-742
2.97900	-663
2.98267	-586
2.98633	-515
2.99000	-449
2.99367	-389
2.99733	-336
3.00100	-289
3.00467	-247
3.00833	-210
3.01200	-178
3.01567	-151
3.01933	-127
3.02300	-106
3.02667	-88
3.03033	-73
3.03400	-60
3.03767	-49
3.04133	-39
3.04500	-31
3.04867	-24
3.05233	-18
3.05600	-13
3.05967	-9
3.06333	-5
3.06700	-2
3.07067	0
3.07433	3
3.07800	5
3.08167	6
3.08533	8
3.08900	9
3.09267	10
3.09633	11
3.10000	12
3.10367	13
3.10733	13
3.11100	14
3.11467	15
3.11833	15
3.12200	16
3.12567	17
3.12933	18
3.13300	19
3.13667	19
3.14033	19
3.14400	20
3.14767	20
3.15133	20
3.15500	21
3.15867	21
3.16233	21
3.16600	21
3.16967	22
3.17333	22
3.17700	23
3.18067	23
3.18433	23
3.18800	24
3.19167	24
3.19533	24
3.19900	25
3.20267	25
3.20633	25
3.21000	25
3.21367	26
3.21733	26
3.22100	25
3.22467	25
3.22833	25
3.23200	25
3.23567	26
3.23933	26
3.24300	26
3.24667	26
3.25033	26
3.25400	26
3.25767	26
3.26133	26
3.26500	26
3.26867	26
3.27233	26
3.27600	26
3.27967	26
3.28333	26
3.28700	26
3.29067	26
3.29433	26
3.29800	26
3.30167	26
3.30533	26
3.30900	26
3.31267	26
3.31633	26
3.32000	26
3.32367	26
3.32733	26
3.33100	26
3.33467	26
3.33833	26
3.34200	27
3.34567	27
3.34933	27
3.35300	27
3.35667	28
3.36033	28
3.36400	28
3.36767	28
3.37133	28
3.37500	28
3.37867	28
3.38233	28
3.38600	28
3.38967	28
3.39333	28
3.39700	28
3.40067	28
3.40433	28
3.40800	28
3.41167	28
3.41533	28
3.41900	29
3.42267	29
3.42633	29
3.43000	29
3.43367	29
3.43733	29
3.44100	29
3.44467	30
3.44833	30
3.45200	30
3.45567	30
3.45933	30
3.46300	30
3.46667	30
3.47033	30
3.47400	30
3.47767	29
3.48133	30
3.48500	30
3.48867	30
3.49233	30
3.49600	30
3.49967	30
3.50333	30
3.50700	30
3.51067	30
3.51433	30
3.51800	30
3.52167	30
3.52533	30
3.52900	30
3.53267	30
3.53633	30
3.54000	30
3.54367	30
3.54733	31
3.55100	31
3.55467	31
3.55833	31
3.56200	31
3.56567	31
3.56933	31
3.57300	31
3.57667	31
3.58033	31
3.58400	31
3.58767	31
3.59133	31
3.59500	31
3.59867	31
3.60233	31
3.60600	31
3.60967	31
3.61333	31
3.61700	31
3.62067	31
3.62433	30
3.62800	30
3.63167	30
3.63533	30
3.63900	30
3.64267	30
3.64633	30
3.65000	30
3.65367	30
3.65733	30
3.66100	30
3.66467	31
3.66833	31
3.67200	31
3.67567	31
3.67933	31
3.68300	31
3.68667	31
3.69033	30
3.69400	30
3.69767	30
3.70133	29
3.70500	29
3.70867	29
3.71233	29
3.71600	29
3.71967	30
3.72333	30
3.72700	30
3.73067	30
3.73433	31
3.73800	31
3.74167	31
3.74533	31
3.74900	31
3.75267	30
3.75633	30
3.76000	30
3.76367	30
3.76733	30
3.77100	30
3.77467	30
3.77833	30
3.78200	30
3.78567	30
3.78933	30
3.79300	30
3.79667	30
3.80033	30
3.80400	30
3.80767	30
3.81133	30
3.81500	29
3.81867	29
3.82233	29
3.82600	29
3.82967	28
3.83333	28
3.83700	28
3.84067	28
3.84433	28
3.84800	28
3.85167	28
3.85533	28
3.85900	28
3.86267	28
3.86633	28
3.87000	29
3.87367	29
3.87733	30
3.88100	30
3.88467	30
3.88833	30
3.89200	30
3.89567	30
3.89933	31
3.90300	31
3.90667	31
3.91033	31
3.91400	31
3.91767	31
3.92133	31
3.92500	31
3.92867	31
3.93233	30
3.93600	30
3.93967	30
3.94333	30
3.94700	30
3.95067	30
3.95433	30
3.95800	30
3.96167	30
3.96533	30
3.96900	30
3.97267	30
3.97633	30
3.98000	30
3.98367	30
3.98733	30
3.99100	30
3.99467	30
3.99833	30

[Chromatogram (Ch3)]
Interval(msec)	220
# of Points	1091
Start Time(min)	0.002
End Time(min)	3.998
R.Time (min)	Intensity
0.00167	-1
0.00533	-4
0.00900	-4
0.01267	-5
0.01633	-3
0.02000	-2
0.02367	-1
0.02733	-1
0.03100	-3
0.03467	-5
0.03833	-5
0.04200	-4
0.04567	-4
0.04933	-5
0.05300	-6
0.05667	-6
0.06033	-4
0.06400	-3
0.06767	-1
0.07133	-0
0.07500	-1
0.07867	-2
0.08233	-3
0.08600	-6
0.08967	-8
0.09333	-6
0.09700	-5
0.10067	-3
0.10433	-3
0.10800	-3
0.11167	-3
0.11533	-3
0.11900	-1
0.12267	-1
0.12633	-3
0.13000	-2
0.13367	-1
0.13733	-2
0.14100	-4
0.14467	-6
0.14833	-5
0.15200	-4
0.15567	-3
0.15933	-1
0.16300	-1
0.16667	-2
0.17033	-3
0.17400	-2
0.17767	-2
0.18133	-4
0.18500	-7
0.18867	-7
0.19233	-5
0.19600	-4
0.19967	-3
0.20333	-4
0.20700	-5
0.21067	-5
0.21433	-4
0.21800	-5
0.22167	-4
0.22533	-4
0.22900	-4
0.23267	-5
0.23633	-5
0.24000	-4
0.24367	-4
0.24733	-5
0.25100	-7
0.25467	-7
0.25833	-4
0.26200	-2
0.26567	0
0.26933	2
0.27300	0
0.27667	-0
0.28033	0
0.28400	-2
0.28767	-4
0.29133	-4
0.29500	-6
0.29867	-7
0.30233	-6
0.30600	-4
0.30967	-4
0.31333	-4
0.31700	-3
0.32067	-3
0.32433	-3
0.32800	-4
0.33167	-2
0.33533	-1
0.33900	1
0.34267	2
0.34633	2
0.35000	2
0.35367	1
0.35733	-1
0.36100	0
0.36467	-1
0.36833	-3
0.37200	-6
0.37567	-4
0.37933	-3
0.38300	-3
0.38667	-2
0.39033	-0
0.39400	-1
0.39767	-2
0.40133	-4
0.40500	-4
0.40867	-2
0.41233	0
0.41600	1
0.41967	1
0.42333	0
0.42700	-2
0.43067	-2
0.43433	-0
0.43800	-0
0.44167	-0
0.44533	-0
0.44900	1
0.45267	2
0.45633	4
0.46000	3
0.46367	2
0.46733	0
0.47100	-1
0.47467	-2
0.47833	-2
0.48200	1
0.48567	4
0.48933	3
0.49300	2
0.49667	-0
0.50033	-2
0.50400	-3
0.50767	-3
0.51133	-1
0.51500	-1
0.51867	-0
0.52233	-1
0.52600	-2
0.52967	-2
0.53333	-1
0.53700	2
0.54067	2
0.54433	1
0.54800	2
0.55167	-0
0.55533	-3
0.55900	-4
0.56267	-6
0.56633	-7
0.57000	-5
0.57367	-3
0.57733	-1
0.58100	0
0.58467	1
0.58833	2
0.59200	2
0.59567	3
0.59933	3
0.60300	2
0.60667	-1
0.61033	-1
0.61400	-2
0.61767	-2
0.62133	-2
0.62500	-5
0.62867	-7
0.63233	-8
0.63600	-6
0.63967	-2
0.64333	0
0.64700	1
0.65067	1
0.65433	1
0.65800	3
0.66167	5
0.66533	6
0.66900	5
0.67267	1
0.67633	-1
0.68000	1
0.68367	1
0.68733	-1
0.69100	-3
0.69467	-4
0.69833	-5
0.70200	-3
0.70567	-1
0.70933	-2
0.71300	-1
0.71667	-0
0.72033	-1
0.72400	-3
0.72767	-4
0.73133	-3
0.73500	-2
0.73867	-1
0.74233	0
0.74600	2
0.74967	4
0.75333	6
0.75700	4
0.76067	1
0.76433	-1
0.76800	-2
0.77167	-3
0.77533	-3
0.77900	-3
0.78267	-2
0.78633	-1
0.79000	-2
0.79367	-3
0.79733	-3
0.80100	-2
0.80467	-1
0.80833	1
0.81200	1
0.81567	0
0.81933	-0
0.82300	0
0.82667	1
0.83033	5
0.83400	9
0.83767	10
0.84133	9
0.84500	8
0.84867	4
0.85233	2
0.85600	1
0.85967	2
0.86333	4
0.86700	5
0.87067	4
0.87433	4
0.87800	7
0.88167	9
0.88533	9
0.88900	8
0.89267	8
0.89633	8
0.90000	7
0.90367	7
0.90733	7
0.91100	8
0.91467	7
0.91833	8
0.92200	7
0.92567	5
0.92933	5
0.93300	4
0.93667	5
0.94033	6
0.94400	7
0.94767	6
0.95133	4
0.95500	4
0.95867	4
0.96233	4
0.96600	3
0.96967	5
0.97333	5
0.97700	6
0.98067	7
0.98433	5
0.98800	-0
0.99167	-1
0.99533	1
0.99900	0
1.00267	1
1.00633	2
1.01000	3
1.01367	5
1.01733	6
1.02100	6
1.02467	5
1.02833	6
1.03200	6
1.03567	5
1.03933	5
1.04300	3
1.04667	4
1.05033	6
1.05400	7
1.05767	6
1.06133	3
1.06500	1
1.06867	1
1.07233	2
1.07600	4
1.07967	7
1.08333	8
1.08700	8
1.09067	7
1.09433	4
1.09800	2
1.10167	1
1.10533	1
1.10900	3
1.11267	2
1.11633	1
1.12000	3
1.12367	5
1.12733	5
1.13100	5
1.13467	4
1.13833	6
1.14200	6
1.14567	7
1.14933	8
1.15300	8
1.15667	7
1.16033	8
1.16400	8
1.16767	7
1.17133	6
1.17500	5
1.17867	3
1.18233	3
1.18600	4
1.18967	4
1.19333	4
1.19700	6
1.20067	7
1.20433	9
1.20800	8
1.21167	7
1.21533	8
1.21900	7
1.22267	10
1.22633	9
1.23000	10
1.23367	11
1.23733	10
1.24100	8
1.24467	8
1.24833	8
1.25200	8
1.25567	8
1.25933	6
1.26300	3
1.26667	3
1.27033	4
1.27400	3
1.27767	4
1.28133	5
1.28500	7
1.28867	8
1.29233	11
1.29600	12
1.29967	12
1.30333	9
1.30700	8
1.31067	8
1.31433	7
1.31800	6
1.32167	6
1.32533	5
1.32900	6
1.33267	6
1.33633	9
1.34000	11
1.34367	12
1.34733	14
1.35100	15
1.35467	15
1.35833	17
1.36200	19
1.36567	19
1.36933	17
1.37300	13
1.37667	10
1.38033	10
1.38400	10
1.38767	11
1.39133	10
1.39500	10
1.39867	9
1.40233	8
1.40600	9
1.40967	12
1.41333	13
1.41700	14
1.42067	14
1.42433	17
1.42800	18
1.43167	17
1.43533	16
1.43900	19
1.44267	22
1.44633	22
1.45000	20
1.45367	20
1.45733	21
1.46100	22
1.46467	20
1.46833	18
1.47200	19
1.47567	20
1.47933	20
1.48300	18
1.48667	16
1.49033	14
1.49400	10
1.49767	9
1.50133	9
1.50500	10
1.50867	11
1.51233	11
1.51600	10
1.51967	8
1.52333	7
1.52700	7
1.53067	8
1.53433	12
1.53800	16
1.54167	17
1.54533	17
1.54900	17
1.55267	18
1.55633	18
1.56000	20
1.56367	20
1.56733	19
1.57100	20
1.57467	19
1.57833	17
1.58200	14
1.58567	12
1.58933	14
1.59300	16
1.59667	17
1.60033	17
1.60400	19
1.60767	19
1.61133	18
1.61500	17
1.61867	17
1.62233	16
1.62600	15
1.62967	15
1.63333	15
1.63700	16
1.64067	19
1.64433	23
1.64800	22
1.65167	20
1.65533	19
1.65900	20
1.66267	22
1.66633	26
1.67000	28
1.67367	28
1.67733	28
1.68100	29
1.68467	28
1.68833	27
1.69200	27
1.69567	26
1.69933	27
1.70300	29
1.70667	29
1.71033	30
1.71400	30
1.71767	30
1.72133	31
1.72500	30
1.72867	32
1.73233	34
1.73600	33
1.73967	33
1.74333	35
1.74700	36
1.75067	37
1.75433	36
1.75800	35
1.76167	35
1.76533	36
1.76900	37
1.77267	39
1.77633	40
1.78000	40
1.78367	39
1.78733	39
1.79100	38
1.79467	37
1.79833	37
1.80200	37
1.80567	37
1.80933	39
1.81300	41
1.81667	42
1.82033	42
1.82400	42
1.82767	43
1.83133	42
1.83500	42
1.83867	43
1.84233	45
1.84600	48
1.84967	48
1.85333	45
1.85700	44
1.86067	45
1.86433	47
1.86800	48
1.87167	49
1.87533	51
1.87900	52
1.88267	53
1.88633	53
1.89000	53
1.89367	53
1.89733	53
1.90100	52
1.90467	53
1.90833	56
1.91200	60
1.91567	64
1.91933	65
1.92300	65
1.92667	64
1.93033	63
1.93400	61
1.93767	61
1.94133	61
1.94500	62
1.94867	65
1.95233	68
1.95600	69
1.95967	68
1.96333	68
1.96700	70
1.97067	72
1.97433	73
1.97800	72
1.98167	72
1.98533	72
1.98900	74
1.99267	76
1.99633	79
2.00000	82
2.00367	85
2.00733	86
2.01100	88
2.01467	89
2.01833	92
2.02200	95
2.02567	98
2.02933	99
2.03300	100
2.03667	101
2.04033	103
2.04400	104
2.04767	104
2.05133	104
2.05500	105
2.05867	108
2.06233	108
2.06600	107
2.06967	106
2.07333	108
2.07700	111
2.08067	113
2.08433	115
2.08800	116
2.09167	117
2.09533	118
2.09900	121
2.10267	122
2.10633	124
2.11000	126
2.11367	126
2.11733	125
2.12100	127
2.12467	128
2.12833	129
2.13200	130
2.13567	132
2.13933	132
2.14300	133
2.14667	135
2.15033	135
2.15400	137
2.15767	141
2.16133	144
2.16500	146
2.16867	148
2.17233	152
2.17600	154
2.17967	153
2.18333	154
2.18700	155
2.19067	156
2.19433	157
2.19800	157
2.20167	158
2.20533	159
2.20900	159
2.21267	159
2.21633	161
2.22000	164
2.22367	165
2.22733	165
2.23100	167
2.23467	169
2.23833	173
2.24200	176
2.24567	178
2.24933	177
2.25300	179
2.25667	181
2.26033	184
2.26400	185
2.26767	185
2.27133	187
2.27500	188
2.27867	191
2.28233	194
2.28600	197
2.28967	199
2.29333	198
2.29700	199
2.30067	200
2.30433	201
2.30800	201
2.31167	203
2.31533	206
2.31900	211
2.32267	215
2.32633	218
2.33000	221
2.33367	223
2.33733	224
2.34100	224
2.34467	223
2.34833	222
2.35200	223
2.35567	226
2.35933	229
2.36300	230
2.36667	231
2.37033	233
2.37400	237
2.37767	241
2.38133	243
2.38500	242
2.38867	240
2.39233	241
2.39600	243
2.39967	245
2.40333	247
2.40700	248
2.41067	250
2.41433	252
2.41800	255
2.42167	257
2.42533	257
2.42900	258
2.43267	259
2.43633	259
2.44000	264
2.44367	325
2.44733	484
2.45100	656
2.45467	799
2.45833	880
2.46200	883
2.46567	842
2.46933	789
2.47300	739
2.47667	701
2.48033	670
2.48400	634
2.48767	588
2.49133	538
2.49500	492
2.49867	452
2.50233	421
2.50600	403
2.50967	398
2.51333	405
2.51700	423
2.52067	447
2.52433	470
2.52800	483
2.53167	483
2.53533	467
2.53900	440
2.54267	408
2.54633	373
2.55000	340
2.55367	310
2.55733	286
2.56100	267
2.56467	254
2.56833	245
2.57200	241
2.57567	236
2.57933	233
2.58300	233
2.58667	234
2.59033	237
2.59400	241
2.59767	243
2.60133	243
2.60500	239
2.60867	233
2.61233	225
2.61600	216
2.61967	207
2.62333	197
2.62700	188
2.63067	177
2.63433	167
2.63800	157
2.64167	149
2.64533	141
2.64900	133
2.65267	121
2.65633	109
2.66000	92
2.66367	79
2.66733	67
2.67100	57
2.67467	47
2.67833	39
2.68200	32
2.68567	30
2.68933	28
2.69300	28
2.69667	27
2.70033	27
2.70400	28
2.70767	32
2.71133	37
2.71500	41
2.71867	43
2.72233	47
2.72600	52
2.72967	56
2.73333	60
2.73700	64
2.74067	68
2.74433	73
2.74800	74
2.75167	77
2.75533	80
2.75900	82
2.76267	84
2.76633	86
2.77000	88
2.77367	90
2.77733	95
2.78100	102
2.78467	108
2.78833	114
2.79200	117
2.79567	120
2.79933	123
2.80300	127
2.80667	131
2.81033	138
2.81400	145
2.81767	153
2.82133	164
2.82500	183
2.82867	220
2.83233	289
2.83600	411
2.83967	607
2.84333	896
2.84700	1287
2.85067	1772
2.85433	2328
2.85800	2919
2.86167	3500
2.86533	4023
2.86900	4443
2.87267	4735
2.87633	4887
2.88000	4899
2.88367	4787
2.88733	4577
2.89100	4298
2.89467	3975
2.89833	3634
2.90200	3289
2.90567	2955
2.90933	2637
2.91300	2344
2.91667	2077
2.92033	1836
2.92400	1621
2.92767	1428
2.93133	1257
2.93500	1108
2.93867	980
2.94233	864
2.94600	762
2.94967	675
2.95333	601
2.95700	535
2.96067	479
2.96433	429
2.96800	388
2.97167	350
2.97533	318
2.97900	289
2.98267	264
2.98633	243
2.99000	224
2.99367	208
2.99733	195
3.00100	183
3.00467	172
3.00833	162
3.01200	155
3.01567	147
3.01933	140
3.02300	136
3.02667	132
3.03033	128
3.03400	125
3.03767	126
3.04133	127
3.04500	126
3.04867	121
3.05233	100
3.05600	73
3.05967	65
3.06333	77
3.06700	101
3.07067	135
3.07433	178
3.07800	227
3.08167	280
3.08533	331
3.08900	378
3.09267	422
3.09633	460
3.10000	493
3.10367	520
3.10733	544
3.11100	566
3.11467	586
3.11833	602
3.12200	614
3.12567	624
3.12933	633
3.13300	640
3.13667	645
3.14033	651
3.14400	657
3.14767	663
3.15133	670
3.15500	678
3.15867	682
3.16233	683
3.16600	685
3.16967	687
3.17333	691
3.17700	694
3.18067	698
3.18433	702
3.18800	705
3.19167	708
3.19533	713
3.19900	718
3.20267	722
3.20633	725
3.21000	730
3.21367	735
3.21733	739
3.22100	743
3.22467	747
3.22833	753
3.23200	759
3.23567	765
3.23933	771
3.24300	776
3.24667	782
3.25033	787
3.25400	792
3.25767	797
3.26133	801
3.26500	808
3.26867	815
3.27233	821
3.27600	828
3.27967	837
3.28333	843
3.28700	845
3.29067	847
3.29433	850
3.29800	853
3.30167	856
3.30533	859
3.30900	860
3.31267	860
3.31633	861
3.32000	864
3.32367	867
3.32733	869
3.33100	869
3.33467	868
3.33833	867
3.34200	867
3.34567	865
3.34933	865
3.35300	861
3.35667	856
3.36033	851
3.36400	846
3.36767	841
3.37133	839
3.37500	834
3.37867	830
3.38233	827
3.38600	825
3.38967	822
3.39333	816
3.39700	812
3.40067	810
3.40433	805
3.40800	798
3.41167	793
3.41533	791
3.41900	790
3.42267	787
3.42633	784
3.43000	781
3.43367	779
3.43733	777
3.44100	776
3.44467	771
3.44833	766
3.45200	762
3.45567	758
3.45933	756
3.46300	754
3.46667	753
3.47033	753
3.47400	754
3.47767	755
3.48133	755
3.48500	754
3.48867	755
3.49233	755
3.49600	753
3.49967	751
3.50333	749
3.50700	746
3.51067	744
3.51433	742
3.51800	740
3.52167	741
3.52533	741
3.52900	739
3.53267	739
3.53633	739
3.54000	738
3.54367	738
3.54733	737
3.55100	735
3.55467	734
3.55833	734
3.56200	734
3.56567	736
3.56933	736
3.57300	737
3.57667	737
3.58033	736
3.58400	734
3.58767	733
3.59133	732
3.59500	731
3.59867	731
3.60233	729
3.60600	727
3.60967	725
3.61333	725
3.61700	725
3.62067	725
3.62433	722
3.62800	720
3.63167	719
3.63533	716
3.63900	715
3.64267	714
3.64633	715
3.65000	715
3.65367	715
3.65733	712
3.66100	709
3.66467	706
3.66833	703
3.67200	699
3.67567	696
3.67933	693
3.68300	692
3.68667	692
3.69033	691
3.69400	691
3.69767	690
3.70133	689
3.70500	686
3.70867	683
3.71233	681
3.71600	680
3.71967	678
3.72333	677
3.72700	674
3.73067	672
3.73433	670
3.73800	669
3.74167	669
3.74533	669
3.74900	669
3.75267	669
3.75633	667
3.76000	665
3.76367	663
3.76733	660
3.77100	657
3.77467	654
3.77833	651
3.78200	652
3.78567	652
3.78933	651
3.79300	648
3.79667	644
3.80033	643
3.80400	644
3.80767	643
3.81133	640
3.81500	636
3.81867	634
3.82233	633
3.82600	632
3.82967	632
3.83333	629
3.83700	627
3.84067	626
3.84433	624
3.84800	622
3.85167	622
3.85533	622
3.85900	620
3.86267	619
3.86633	616
3.87000	613
3.87367	609
3.87733	606
3.88100	605
3.88467	605
3.88833	604
3.89200	601
3.89567	599
3.89933	599
3.90300	597
3.90667	594
3.91033	591
3.91400	590
3.91767	591
3.92133	590
3.92500	588
3.92867	586
3.93233	584
3.93600	584
3.93967	585
3.94333	585
3.94700	583
3.95067	579
3.95433	576
3.95800	576
3.96167	576
3.96533	577
3.96900	577
3.97267	577
3.97633	577
3.98000	576
3.98367	575
3.98733	574
3.99100	571
3.99467	570
3.99833	568

[Status Trace (Column Oven Temperature)]
Interval(msec)	1000
# of Points	240
Start Time(min)	0.013
End Time(min)	3.996
Intensity Units	
Intensity Multiplier	1
R.Time (min)	Intensity
0.01273	35.09
0.02940	35.09
0.04607	35.09
0.06273	35.08
0.07940	35.08
0.09607	35.08
0.11273	35.07
0.12940	35.07
0.14607	35.07
0.16273	35.07
0.17940	35.07
0.19607	35.07
0.21273	35.07
0.22940	35.07
0.24607	35.06
0.26273	35.06
0.27940	35.06
0.29607	35.06
0.31273	35.05
0.32940	35.04
0.34607	35.04
0.36273	35.03
0.37940	35.02
0.39607	35.03
0.41273	35.02
0.42940	35.01
0.44607	35.02
0.46273	35.01
0.47940	35.01
0.49607	34.99
0.51273	34.99
0.52940	34.99
0.54607	34.98
0.56273	34.98
0.57940	34.97
0.59607	34.96
0.61273	34.96
0.62940	34.96
0.64607	34.97
0.66273	34.98
0.67940	34.98
0.69607	35.00
0.71273	35.00
0.72940	34.99
0.74607	34.98
0.76273	34.98
0.77940	34.97
0.79607	34.98
0.81273	35.00
0.82940	35.01
0.84607	35.02
0.86273	35.01
0.87940	34.99
0.89607	35.00
0.91273	35.00
0.92940	35.00
0.94607	35.01
0.96273	35.02
0.97940	35.02
0.99607	35.02
1.01273	35.01
1.02940	35.00
1.04607	35.00
1.06273	34.99
1.07940	34.99
1.09607	34.99
1.11273	34.98
1.12940	34.99
1.14607	34.99
1.16273	35.00
1.17940	35.01
1.19607	35.01
1.21273	35.00
1.22940	34.99
1.24607	34.99
1.26273	34.99
1.27940	35.00
1.29607	35.02
1.31273	35.02
1.32940	35.03
1.34607	35.03
1.36273	35.02
1.37940	35.01
1.39607	35.00
1.41273	35.00
1.42940	35.00
1.44607	34.99
1.46273	34.99
1.47940	34.98
1.49607	34.97
1.51273	34.97
1.52940	34.98
1.54607	34.98
1.56273	34.99
1.57940	34.99
1.59607	35.02
1.61273	35.09
1.62940	35.23
1.64607	35.43
1.66273	35.71
1.67940	36.08
1.69607	36.44
1.71273	36.79
1.72940	37.12
1.74607	37.42
1.76273	37.75
1.77940	38.10
1.79607	38.44
1.81273	38.77
1.82940	39.09
1.84607	39.43
1.86273	39.77
1.87940	40.10
1.89607	40.42
1.91273	40.75
1.92940	41.07
1.94607	41.39
1.96273	41.73
1.97940	42.05
1.99607	42.36
2.01273	42.70
2.02940	43.03
2.04607	43.37
2.06273	43.71
2.07940	44.03
2.09607	44.37
2.11273	44.69
2.12940	45.00
2.14607	45.34
2.16273	45.66
2.17940	45.99
2.19607	46.31
2.21273	46.63
2.22940	46.96
2.24607	47.29
2.26273	47.61
2.27940	47.94
2.29607	48.24
2.31273	48.60
2.32940	48.92
2.34607	49.22
2.36273	49.53
2.37940	49.71
2.39607	49.77
2.41273	49.74
2.42940	49.76
2.44607	49.76
2.46273	49.74
2.47940	49.76
2.49607	49.77
2.51273	49.77
2.52940	49.78
2.54607	49.80
2.56273	49.81
2.57940	49.83
2.59607	49.82
2.61273	49.83
2.62940	49.83
2.64607	49.85
2.66273	49.86
2.67940	49.84
2.69607	49.85
2.71273	49.86
2.72940	49.86
2.74607	49.85
2.76273	49.85
2.77940	49.85
2.79607	49.86
2.81273	49.85
2.82940	49.87
2.84607	49.91
2.86273	49.95
2.87940	49.98
2.89607	49.98
2.91273	49.99
2.92940	49.98
2.94607	49.98
2.96273	49.96
2.97940	49.96
2.99607	49.96
3.01273	49.97
3.02940	49.98
3.04607	49.99
3.06273	50.01
3.07940	50.02
3.09607	50.03
3.11273	50.04
3.12940	50.04
3.14607	50.06
3.16273	50.07
3.17940	50.06
3.19607	50.05
3.21273	50.05
3.22940	50.04
3.24607	50.04
3.26273	50.05
3.27940	50.06
3.29607	50.08
3.31273	50.09
3.32940	50.09
3.34607	50.09
3.36273	50.09
3.37940	50.10
3.39607	50.10
3.41273	50.09
3.42940	50.10
3.44607	50.10
3.46273	50.10
3.47940	50.09
3.49607	50.09
3.51273	50.08
3.52940	50.07
3.54607	50.07
3.56273	50.06
3.57940	50.06
3.59607	50.05
3.61273	50.04
3.62940	50.05
3.64607	50.05
3.66273	50.05
3.67940	50.04
3.69607	50.05
3.71273	50.05
3.72940	50.04
3.74607	50.04
3.76273	50.04
3.77940	50.04
3.79607	50.04
3.81273	50.04
3.82940	50.06
3.84607	50.06
3.86273	50.06
3.87940	50.05
3.89607	50.06
3.91273	50.06
3.92940	50.06
3.94607	50.05
3.96273	50.05
3.97940	50.05
3.99607	50.05

[Status Trace (Injection Unit Temperature)]
Interval(msec)	1000
# of Points	240
Start Time(min)	0.013
End Time(min)	3.996
Intensity Units	
Intensity Multiplier	1
R.Time (min)	Intensity
0.01273	99.98
0.02940	99.98
0.04607	99.98
0.06273	99.98
0.07940	99.98
0.09607	99.98
0.11273	99.98
0.12940	99.98
0.14607	99.98
0.16273	99.98
0.17940	99.98
0.19607	99.98
0.21273	99.98
0.22940	99.98
0.24607	99.98
0.26273	99.98
0.27940	99.98
0.29607	99.98
0.31273	99.98
0.32940	99.98
0.34607	99.98
0.36273	99.98
0.37940	99.98
0.39607	99.99
0.41273	99.98
0.42940	99.98
0.44607	99.98
0.46273	99.98
0.47940	99.98
0.49607	99.98
0.51273	99.98
0.52940	99.98
0.54607	99.98
0.56273	99.99
0.57940	99.99
0.59607	99.99
0.61273	99.98
0.62940	99.99
0.64607	99.98
0.66273	99.99
0.67940	99.98
0.69607	99.98
0.71273	99.98
0.72940	99.99
0.74607	99.99
0.76273	99.99
0.77940	99.99
0.79607	99.99
0.81273	99.99
0.82940	99.99
0.84607	99.99
0.86273	99.98
0.87940	99.99
0.89607	99.98
0.91273	99.99
0.92940	99.98
0.94607	99.99
0.96273	99.98
0.97940	99.98
0.99607	99.98
1.01273	99.98
1.02940	99.98
1.04607	99.98
1.06273	99.98
1.07940	99.98
1.09607	99.98
1.11273	99.98
1.12940	99.98
1.14607	99.98
1.16273	99.98
1.17940	99.99
1.19607	99.98
1.21273	99.98
1.22940	99.98
1.24607	99.98
1.26273	99.99
1.27940	99.98
1.29607	99.98
1.31273	99.98
1.32940	99.99
1.34607	99.98
1.36273	99.98
1.37940	99.98
1.39607	99.98
1.41273	99.98
1.42940	99.99
1.44607	99.99
1.46273	99.98
1.47940	99.98
1.49607	99.98
1.51273	99.99
1.52940	99.98
1.54607	99.98
1.56273	99.98
1.57940	99.98
1.59607	99.98
1.61273	99.99
1.62940	99.98
1.64607	99.98
1.66273	99.99
1.67940	99.99
1.69607	99.98
1.71273	99.98
1.72940	99.99
1.74607	99.98
1.76273	99.98
1.77940	99.99
1.79607	99.99
1.81273	99.98
1.82940	99.98
1.84607	99.98
1.86273	99.98
1.87940	99.98
1.89607	99.98
1.91273	99.98
1.92940	99.97
1.94607	99.98
1.96273	99.98
1.97940	99.98
1.99607	99.98
2.01273	99.98
2.02940	99.97
2.04607	99.98
2.06273	99.97
2.07940	99.97
2.09607	99.97
2.11273	99.97
2.12940	99.97
2.14607	99.97
2.16273	99.97
2.17940	99.97
2.19607	99.97
2.21273	99.97
2.22940	99.97
2.24607	99.96
2.26273	99.97
2.27940	99.97
2.29607	99.96
2.31273	99.97
2.32940	99.97
2.34607	99.97
2.36273	99.97
2.37940	99.97
2.39607	99.97
2.41273	99.97
2.42940	99.97
2.44607	99.97
2.46273	99.98
2.47940	99.97
2.49607	99.97
2.51273	99.98
2.52940	99.98
2.54607	99.97
2.56273	99.98
2.57940	99.98
2.59607	99.98
2.61273	99.98
2.62940	99.98
2.64607	99.99
2.66273	99.99
2.67940	99.99
2.69607	99.98
2.71273	99.99
2.72940	99.99
2.74607	99.99
2.76273	99.99
2.77940	99.99
2.79607	100.00
2.81273	100.00
2.82940	100.00
2.84607	100.00
2.86273	100.00
2.87940	100.00
2.89607	100.00
2.91273	100.01
2.92940	100.01
2.94607	100.00
2.96273	100.00
2.97940	100.01
2.99607	100.01
3.01273	100.01
3.02940	100.01
3.04607	100.01
3.06273	100.01
3.07940	100.01
3.09607	100.02
3.11273	100.02
3.12940	100.02
3.14607	100.02
3.16273	100.02
3.17940	100.02
3.19607	100.02
3.21273	100.02
3.22940	100.02
3.24607	100.03
3.26273	100.02
3.27940	100.02
3.29607	100.03
3.31273	100.03
3.32940	100.02
3.34607	100.02
3.36273	100.03
3.37940	100.03
3.39607	100.03
3.41273	100.03
3.42940	100.03
3.44607	100.03
3.46273	100.03
3.47940	100.03
3.49607	100.03
3.51273	100.03
3.52940	100.03
3.54607	100.03
3.56273	100.03
3.57940	100.03
3.59607	100.04
3.61273	100.04
3.62940	100.03
3.64607	100.03
3.66273	100.03
3.67940	100.04
3.69607	100.04
3.71273	100.04
3.72940	100.04
3.74607	100.03
3.76273	100.03
3.77940	100.03
3.79607	100.04
3.81273	100.04
3.82940	100.04
3.84607	100.04
3.86273	100.03
3.87940	100.04
3.89607	100.04
3.91273	100.04
3.92940	100.04
3.94607	100.04
3.96273	100.04
3.97940	100.03
3.99607	100.04

[Status Trace (Carrier Gas Pressure)]
Interval(msec)	1000
# of Points	240
Start Time(min)	0.013
End Time(min)	3.996
Intensity Units	
Intensity Multiplier	1
R.Time (min)	Intensity
0.01273	57.95
0.02940	54.96
0.04607	57.77
0.06273	59.77
0.07940	58.86
0.09607	57.99
0.11273	57.99
0.12940	58.01
0.14607	58.01
0.16273	58.01
0.17940	58.00
0.19607	58.00
0.21273	58.00
0.22940	58.00
0.24607	58.00
0.26273	58.00
0.27940	58.00
0.29607	58.00
0.31273	58.00
0.32940	58.00
0.34607	58.00
0.36273	58.00
0.37940	58.00
0.39607	58.00
0.41273	58.00
0.42940	58.00
0.44607	58.00
0.46273	58.00
0.47940	58.00
0.49607	58.00
0.51273	58.00
0.52940	58.00
0.54607	58.00
0.56273	58.00
0.57940	58.00
0.59607	58.00
0.61273	58.00
0.62940	58.00
0.64607	58.00
0.66273	58.00
0.67940	58.00
0.69607	58.00
0.71273	58.00
0.72940	58.00
0.74607	58.00
0.76273	58.00
0.77940	58.00
0.79607	58.00
0.81273	58.00
0.82940	58.00
0.84607	58.00
0.86273	58.00
0.87940	58.00
0.89607	58.00
0.91273	58.00
0.92940	58.00
0.94607	58.00
0.96273	58.00
0.97940	58.00
0.99607	58.00
1.01273	58.00
1.02940	58.00
1.04607	58.00
1.06273	58.00
1.07940	58.00
1.09607	58.00
1.11273	58.00
1.12940	58.00
1.14607	58.00
1.16273	58.00
1.17940	58.00
1.19607	58.00
1.21273	58.00
1.22940	58.00
1.24607	58.00
1.26273	58.00
1.27940	58.00
1.29607	58.00
1.31273	58.00
1.32940	58.00
1.34607	58.00
1.36273	58.00
1.37940	58.00
1.39607	58.00
1.41273	58.00
1.42940	58.00
1.44607	58.00
1.46273	58.00
1.47940	58.00
1.49607	58.00
1.51273	58.00
1.52940	58.00
1.54607	58.00
1.56273	58.00
1.57940	58.00
1.59607	58.00
1.61273	58.00
1.62940	58.00
1.64607	58.01
1.66273	58.00
1.67940	58.01
1.69607	58.00
1.71273	58.00
1.72940	58.00
1.74607	58.00
1.76273	58.00
1.77940	58.00
1.79607	58.00
1.81273	58.00
1.82940	58.00
1.84607	58.00
1.86273	58.00
1.87940	58.00
1.89607	58.00
1.91273	58.00
1.92940	58.00
1.94607	58.00
1.96273	58.00
1.97940	58.00
1.99607	58.00
2.01273	58.00
2.02940	58.00
2.04607	58.00
2.06273	58.00
2.07940	58.00
2.09607	58.00
2.11273	58.00
2.12940	58.00
2.14607	58.00
2.16273	58.00
2.17940	58.00
2.19607	58.00
2.21273	58.00
2.22940	58.00
2.24607	58.00
2.26273	58.00
2.27940	58.00
2.29607	58.00
2.31273	58.00
2.32940	58.00
2.34607	58.00
2.36273	58.00
2.37940	58.00
2.39607	57.99
2.41273	57.99
2.42940	58.00
2.44607	58.00
2.46273	58.00
2.47940	58.00
2.49607	58.00
2.51273	57.99
2.52940	57.99
2.54607	58.00
2.56273	58.00
2.57940	58.00
2.59607	58.00
2.61273	58.00
2.62940	58.00
2.64607	58.00
2.66273	58.00
2.67940	58.00
2.69607	58.00
2.71273	58.00
2.72940	58.00
2.74607	58.00
2.76273	58.00
2.77940	58.00
2.79607	58.00
2.81273	58.00
2.82940	58.00
2.84607	58.00
2.86273	58.00
2.87940	58.00
2.89607	58.00
2.91273	58.00
2.92940	58.00
2.94607	58.00
2.96273	58.00
2.97940	58.00
2.99607	58.00
3.01273	58.00
3.02940	58.00
3.04607	58.00
3.06273	58.00
3.07940	58.00
3.09607	58.00
3.11273	58.00
3.12940	58.00
3.14607	58.00
3.16273	58.00
3.17940	58.00
3.19607	58.00
3.21273	58.00
3.22940	58.00
3.24607	58.00
3.26273	58.00
3.27940	58.00
3.29607	58.00
3.31273	58.00
3.32940	58.00
3.34607	58.00
3.36273	58.00
3.37940	58.00
3.39607	58.00
3.41273	58.00
3.42940	58.00
3.44607	58.00
3.46273	58.00
3.47940	58.00
3.49607	58.00
3.51273	58.00
3.52940	58.00
3.54607	58.00
3.56273	58.00
3.57940	58.00
3.59607	58.00
3.61273	58.00
3.62940	58.00
3.64607	58.00
3.66273	58.00
3.67940	58.00
3.69607	58.00
3.71273	58.00
3.72940	58.00
3.74607	58.00
3.76273	58.00
3.77940	58.00
3.79607	58.00
3.81273	58.00
3.82940	58.00
3.84607	58.00
3.86273	58.00
3.87940	58.00
3.89607	58.00
3.91273	58.00
3.92940	58.00
3.94607	58.00
3.96273	58.00
3.97940	58.00
3.99607	58.00

[Status Trace (Carrier Gas Flow)]
Interval(msec)	1000
# of Points	240
Start Time(min)	0.013
End Time(min)	3.996
Intensity Units	
Intensity Multiplier	1
R.Time (min)	Intensity
0.01273	34.68
0.02940	34.54
0.04607	34.55
0.06273	34.52
0.07940	34.51
0.09607	34.52
0.11273	34.52
0.12940	34.52
0.14607	34.52
0.16273	34.52
0.17940	34.52
0.19607	34.52
0.21273	34.52
0.22940	34.52
0.24607	34.52
0.26273	34.52
0.27940	34.52
0.29607	34.52
0.31273	34.52
0.32940	34.51
0.34607	34.52
0.36273	34.52
0.37940	34.52
0.39607	34.52
0.41273	34.52
0.42940	34.52
0.44607	34.52
0.46273	34.52
0.47940	34.52
0.49607	34.52
0.51273	34.52
0.52940	34.52
0.54607	34.52
0.56273	34.52
0.57940	34.52
0.59607	34.52
0.61273	34.52
0.62940	34.52
0.64607	34.52
0.66273	34.52
0.67940	34.51
0.69607	34.51
0.71273	34.53
0.72940	34.53
0.74607	34.52
0.76273	34.52
0.77940	34.52
0.79607	34.52
0.81273	34.52
0.82940	34.52
0.84607	34.52
0.86273	34.52
0.87940	34.52
0.89607	34.52
0.91273	34.52
0.92940	34.52
0.94607	34.52
0.96273	34.52
0.97940	34.52
0.99607	34.52
1.01273	34.52
1.02940	34.52
1.04607	34.52
1.06273	34.52
1.07940	34.52
1.09607	34.52
1.11273	34.52
1.12940	34.52
1.14607	34.52
1.16273	34.51
1.17940	34.52
1.19607	34.52
1.21273	34.52
1.22940	34.52
1.24607	34.51
1.26273	34.52
1.27940	34.52
1.29607	34.52
1.31273	34.52
1.32940	34.52
1.34607	34.51
1.36273	34.52
1.37940	34.52
1.39607	34.51
1.41273	34.52
1.42940	34.52
1.44607	34.52
1.46273	34.52
1.47940	34.52
1.49607	34.52
1.51273	34.52
1.52940	34.52
1.54607	34.52
1.56273	34.52
1.57940	34.52
1.59607	34.51
1.61273	34.52
1.62940	34.52
1.64607	34.52
1.66273	34.52
1.67940	34.52
1.69607	34.52
1.71273	34.52
1.72940	34.51
1.74607	34.52
1.76273	34.52
1.77940	34.52
1.79607	34.52
1.81273	34.52
1.82940	34.52
1.84607	34.52
1.86273	34.52
1.87940	34.52
1.89607	34.52
1.91273	34.51
1.92940	34.52
1.94607	34.52
1.96273	34.52
1.97940	34.52
1.99607	34.52
2.01273	34.51
2.02940	34.52
2.04607	34.51
2.06273	34.52
2.07940	34.52
2.09607	34.51
2.11273	34.52
2.12940	34.52
2.14607	34.52
2.16273	34.52
2.17940	34.52
2.19607	34.52
2.21273	34.52
2.22940	34.52
2.24607	34.52
2.26273	34.52
2.27940	34.52
2.29607	34.52
2.31273	34.52
2.32940	34.52
2.34607	34.52
2.36273	34.52
2.37940	34.52
2.39607	34.52
2.41273	34.52
2.42940	34.52
2.44607	34.52
2.46273	34.52
2.47940	34.51
2.49607	34.52
2.51273	34.52
2.52940	34.52
2.54607	34.52
2.56273	34.52
2.57940	34.52
2.59607	34.52
2.61273	34.52
2.62940	34.52
2.64607	34.52
2.66273	34.52
2.67940	34.52
2.69607	34.52
2.71273	34.52
2.72940	34.52
2.74607	34.52
2.76273	34.52
2.77940	34.52
2.79607	34.51
2.81273	34.52
2.82940	34.52
2.84607	34.52
2.86273	34.51
2.87940	34.52
2.89607	34.52
2.91273	34.52
2.92940	34.53
2.94607	34.52
2.96273	34.52
2.97940	34.52
2.99607	34.52
3.01273	34.52
3.02940	34.53
3.04607	34.51
3.06273	34.51
3.07940	34.52
3.09607	34.52
3.11273	34.51
3.12940	34.52
3.14607	34.52
3.16273	34.52
3.17940	34.52
3.19607	34.52
3.21273	34.52
3.22940	34.52
3.24607	34.52
3.26273	34.51
3.27940	34.52
3.29607	34.52
3.31273	34.51
3.32940	34.52
3.34607	34.52
3.36273	34.52
3.37940	34.52
3.39607	34.53
3.41273	34.52
3.42940	34.52
3.44607	34.52
3.46273	34.52
3.47940	34.52
3.49607	34.52
3.51273	34.52
3.52940	34.52
3.54607	34.52
3.56273	34.52
3.57940	34.52
3.59607	34.52
3.61273	34.52
3.62940	34.52
3.64607	34.52
3.66273	34.52
3.67940	34.52
3.69607	34.52
3.71273	34.52
3.72940	34.52
3.74607	34.52
3.76273	34.52
3.77940	34.52
3.79607	34.52
3.81273	34.52
3.82940	34.52
3.84607	34.52
3.86273	34.52
3.87940	34.52
3.89607	34.51
3.91273	34.52
3.92940	34.52
3.94607	34.52
3.96273	34.51
3.97940	34.52
3.99607	34.52

[Status Trace (Column Flow)]
Interval(msec)	1000
# of Points	240
Start Time(min)	0.013
End Time(min)	3.996
Intensity Units	
Intensity Multiplier	1
R.Time (min)	Intensity
0.01273	5.54
0.02940	5.19
0.04607	5.52
0.06273	5.76
0.07940	5.65
0.09607	5.55
0.11273	5.55
0.12940	5.55
0.14607	5.55
0.16273	5.55
0.17940	5.55
0.19607	5.55
0.21273	5.55
0.22940	5.55
0.24607	5.55
0.26273	5.55
0.27940	5.55
0.29607	5.55
0.31273	5.55
0.32940	5.55
0.34607	5.55
0.36273	5.55
0.37940	5.55
0.39607	5.55
0.41273	5.55
0.42940	5.55
0.44607	5.55
0.46273	5.55
0.47940	5.55
0.49607	5.55
0.51273	5.55
0.52940	5.55
0.54607	5.55
0.56273	5.55
0.57940	5.55
0.59607	5.55
0.61273	5.55
0.62940	5.55
0.64607	5.55
0.66273	5.55
0.67940	5.55
0.69607	5.55
0.71273	5.55
0.72940	5.55
0.74607	5.55
0.76273	5.55
0.77940	5.55
0.79607	5.55
0.81273	5.55
0.82940	5.55
0.84607	5.55
0.86273	5.55
0.87940	5.55
0.89607	5.55
0.91273	5.55
0.92940	5.55
0.94607	5.55
0.96273	5.55
0.97940	5.55
0.99607	5.55
1.01273	5.55
1.02940	5.55
1.04607	5.55
1.06273	5.55
1.07940	5.55
1.09607	5.55
1.11273	5.55
1.12940	5.55
1.14607	5.55
1.16273	5.55
1.17940	5.55
1.19607	5.55
1.21273	5.55
1.22940	5.55
1.24607	5.55
1.26273	5.55
1.27940	5.55
1.29607	5.55
1.31273	5.55
1.32940	5.55
1.34607	5.55
1.36273	5.55
1.37940	5.55
1.39607	5.55
1.41273	5.55
1.42940	5.55
1.44607	5.55
1.46273	5.55
1.47940	5.55
1.49607	5.55
1.51273	5.55
1.52940	5.55
1.54607	5.55
1.56273	5.55
1.57940	5.55
1.59607	5.55
1.61273	5.55
1.62940	5.54
1.64607	5.54
1.66273	5.53
1.67940	5.52
1.69607	5.51
1.71273	5.49
1.72940	5.48
1.74607	5.47
1.76273	5.46
1.77940	5.45
1.79607	5.44
1.81273	5.43
1.82940	5.42
1.84607	5.41
1.86273	5.40
1.87940	5.39
1.89607	5.38
1.91273	5.37
1.92940	5.36
1.94607	5.35
1.96273	5.34
1.97940	5.33
1.99607	5.32
2.01273	5.31
2.02940	5.30
2.04607	5.29
2.06273	5.28
2.07940	5.27
2.09607	5.27
2.11273	5.26
2.12940	5.25
2.14607	5.24
2.16273	5.23
2.17940	5.22
2.19607	5.21
2.21273	5.20
2.22940	5.19
2.24607	5.18
2.26273	5.17
2.27940	5.16
2.29607	5.15
2.31273	5.14
2.32940	5.13
2.34607	5.13
2.36273	5.12
2.37940	5.11
2.39607	5.11
2.41273	5.11
2.42940	5.11
2.44607	5.11
2.46273	5.11
2.47940	5.11
2.49607	5.11
2.51273	5.11
2.52940	5.11
2.54607	5.11
2.56273	5.11
2.57940	5.11
2.59607	5.11
2.61273	5.11
2.62940	5.11
2.64607	5.11
2.66273	5.11
2.67940	5.11
2.69607	5.11
2.71273	5.11
2.72940	5.11
2.74607	5.11
2.76273	5.11
2.77940	5.11
2.79607	5.11
2.81273	5.11
2.82940	5.11
2.84607	5.11
2.86273	5.11
2.87940	5.11
2.89607	5.10
2.91273	5.10
2.92940	5.11
2.94607	5.11
2.96273	5.11
2.97940	5.11
2.99607	5.11
3.01273	5.11
3.02940	5.11
3.04607	5.10
3.06273	5.10
3.07940	5.10
3.09607	5.10
3.11273	5.10
3.12940	5.10
3.14607	5.10
3.16273	5.10
3.17940	5.10
3.19607	5.10
3.21273	5.10
3.22940	5.10
3.24607	5.10
3.26273	5.10
3.27940	5.10
3.29607	5.10
3.31273	5.10
3.32940	5.10
3.34607	5.10
3.36273	5.10
3.37940	5.10
3.39607	5.10
3.41273	5.10
3.42940	5.10
3.44607	5.10
3.46273	5.10
3.47940	5.10
3.49607	5.10
3.51273	5.10
3.52940	5.10
3.54607	5.10
3.56273	5.10
3.57940	5.10
3.59607	5.10
3.61273	5.10
3.62940	5.10
3.64607	5.10
3.66273	5.10
3.67940	5.10
3.69607	5.10
3.71273	5.10
3.72940	5.10
3.74607	5.10
3.76273	5.10
3.77940	5.10
3.79607	5.10
3.81273	5.10
3.82940	5.10
3.84607	5.10
3.86273	5.10
3.87940	5.10
3.89607	5.10
3.91273	5.10
3.92940	5.10
3.94607	5.10
3.96273	5.10
3.97940	5.10
3.99607	5.10

[Status Trace (Linear Velocity)]
Interval(msec)	1000
# of Points	240
Start Time(min)	0.013
End Time(min)	3.996
Intensity Units	
Intensity Multiplier	1
R.Time (min)	Intensity
0.01273	38.98
0.02940	37.02
0.04607	38.86
0.06273	40.18
0.07940	39.58
0.09607	39.01
0.11273	39.01
0.12940	39.02
0.14607	39.02
0.16273	39.02
0.17940	39.02
0.19607	39.02
0.21273	39.02
0.22940	39.02
0.24607	39.02
0.26273	39.02
0.27940	39.02
0.29607	39.02
0.31273	39.02
0.32940	39.02
0.34607	39.02
0.36273	39.02
0.37940	39.02
0.39607	39.02
0.41273	39.02
0.42940	39.02
0.44607	39.02
0.46273	39.02
0.47940	39.02
0.49607	39.02
0.51273	39.03
0.52940	39.03
0.54607	39.03
0.56273	39.03
0.57940	39.03
0.59607	39.03
0.61273	39.03
0.62940	39.03
0.64607	39.03
0.66273	39.03
0.67940	39.03
0.69607	39.02
0.71273	39.02
0.72940	39.02
0.74607	39.03
0.76273	39.03
0.77940	39.03
0.79607	39.03
0.81273	39.02
0.82940	39.02
0.84607	39.02
0.86273	39.02
0.87940	39.02
0.89607	39.02
0.91273	39.02
0.92940	39.02
0.94607	39.02
0.96273	39.02
0.97940	39.02
0.99607	39.02
1.01273	39.02
1.02940	39.02
1.04607	39.02
1.06273	39.02
1.07940	39.02
1.09607	39.02
1.11273	39.03
1.12940	39.02
1.14607	39.02
1.16273	39.02
1.17940	39.02
1.19607	39.02
1.21273	39.02
1.22940	39.02
1.24607	39.02
1.26273	39.02
1.27940	39.02
1.29607	39.02
1.31273	39.02
1.32940	39.02
1.34607	39.02
1.36273	39.02
1.37940	39.02
1.39607	39.02
1.41273	39.02
1.42940	39.02
1.44607	39.02
1.46273	39.02
1.47940	39.03
1.49607	39.03
1.51273	39.03
1.52940	39.03
1.54607	39.03
1.56273	39.02
1.57940	39.02
1.59607	39.02
1.61273	39.02
1.62940	39.00
1.64607	38.99
1.66273	38.96
1.67940	38.92
1.69607	38.89
1.71273	38.85
1.72940	38.82
1.74607	38.79
1.76273	38.76
1.77940	38.73
1.79607	38.70
1.81273	38.66
1.82940	38.63
1.84607	38.60
1.86273	38.57
1.87940	38.54
1.89607	38.51
1.91273	38.48
1.92940	38.45
1.94607	38.42
1.96273	38.39
1.97940	38.36
1.99607	38.33
2.01273	38.30
2.02940	38.27
2.04607	38.24
2.06273	38.21
2.07940	38.18
2.09607	38.15
2.11273	38.11
2.12940	38.09
2.14607	38.06
2.16273	38.03
2.17940	38.00
2.19607	37.97
2.21273	37.94
2.22940	37.91
2.24607	37.88
2.26273	37.85
2.27940	37.82
2.29607	37.79
2.31273	37.76
2.32940	37.74
2.34607	37.71
2.36273	37.68
2.37940	37.66
2.39607	37.65
2.41273	37.66
2.42940	37.66
2.44607	37.66
2.46273	37.66
2.47940	37.66
2.49607	37.66
2.51273	37.65
2.52940	37.65
2.54607	37.66
2.56273	37.66
2.57940	37.65
2.59607	37.65
2.61273	37.65
2.62940	37.65
2.64607	37.65
2.66273	37.65
2.67940	37.65
2.69607	37.65
2.71273	37.65
2.72940	37.65
2.74607	37.65
2.76273	37.65
2.77940	37.65
2.79607	37.65
2.81273	37.65
2.82940	37.65
2.84607	37.65
2.86273	37.64
2.87940	37.64
2.89607	37.64
2.91273	37.64
2.92940	37.64
2.94607	37.64
2.96273	37.64
2.97940	37.64
2.99607	37.64
3.01273	37.64
3.02940	37.64
3.04607	37.64
3.06273	37.64
3.07940	37.64
3.09607	37.64
3.11273	37.64
3.12940	37.63
3.14607	37.63
3.16273	37.63
3.17940	37.63
3.19607	37.63
3.21273	37.63
3.22940	37.64
3.24607	37.64
3.26273	37.63
3.27940	37.63
3.29607	37.63
3.31273	37.63
3.32940	37.63
3.34607	37.63
3.36273	37.63
3.37940	37.63
3.39607	37.63
3.41273	37.63
3.42940	37.63
3.44607	37.63
3.46273	37.63
3.47940	37.63
3.49607	37.63
3.51273	37.63
3.52940	37.63
3.54607	37.63
3.56273	37.63
3.57940	37.63
3.59607	37.63
3.61273	37.63
3.62940	37.64
3.64607	37.63
3.66273	37.63
3.67940	37.64
3.69607	37.64
3.71273	37.63
3.72940	37.64
3.74607	37.64
3.76273	37.64
3.77940	37.64
3.79607	37.64
3.81273	37.64
3.82940	37.63
3.84607	37.63
3.86273	37.63
3.87940	37.63
3.89607	37.63
3.91273	37.63
3.92940	37.63
3.94607	37.63
3.96273	37.63
3.97940	37.64
3.99607	37.63

