[Header]
Application Name	LabSolutions
Version	5.110
Data File Name	C:\Users\User\Desktop\GC Analyses\Jack\Nachusa Grasslands Sampling\T4 Timepoint July 12th\T4_07122022_087.gcd
Output Date	3/17/2023
Output Time	12:04:56 PM

[File Information]
Type	Data File
Generated	3/15/2023 1:09:43 AM
Generated by	System Administrator
Modified	3/15/2023 1:16:29 AM
Modified by	System Administrator

[Sample Information]
Operator Name	System Administrator
Acquired	3/15/2023 1:12:28 AM
Sample Type	0:Unknown
Level	0
Sample Name	087
Sample ID	087
ISTD Amount1	1
ISTD Amount2	1
ISTD Amount3	1
ISTD Amount4	1
ISTD Amount5	1
ISTD Amount6	1
ISTD Amount7	1
ISTD Amount8	1
ISTD Amount9	1
ISTD Amount10	1
ISTD Amount11	1
ISTD Amount12	1
ISTD Amount13	1
ISTD Amount14	1
ISTD Amount15	1
ISTD Amount16	1
ISTD Amount17	1
ISTD Amount18	1
ISTD Amount19	1
ISTD Amount20	1
ISTD Amount21	1
ISTD Amount22	1
ISTD Amount23	1
ISTD Amount24	1
ISTD Amount25	1
ISTD Amount26	1
ISTD Amount27	1
ISTD Amount28	1
ISTD Amount29	1
ISTD Amount30	1
ISTD Amount31	1
ISTD Amount32	1
Sample Amount	1
Dilution Factor	1
Vial#	86
Injection Volume	1
Injection Count	1
Bar Code	

[Original Files]
Data File	C:\Users\User\Desktop\GC Analyses\Jack\Nachusa Grasslands Sampling\T4 Timepoint July 12th\T4_07122022_087.gcd
Method File	C:\LabSolutions\Data\GHG_4min_2022\ghg3_togas_w_acet_4 min_new_int.gcm
Batch File	C:\LabSolutions\Data\AutoSamplerTesting\T4_07122022.gcb
Report Format File	c:\LabSolutions\System\DEFAULT.lsr

[File Description]


[Configuration]
Instrument Name	C0B7VH3-Instrument1
Instrument #	1
Line #	1
# of Detectors	3
Detector ID	DET#1	DET#2	DET#3
Detector Name	FID	PTCD	ECD
# of Channels	1	1	1

[Peak Table(Ch1)]
# of Peaks	3
Peak#	R.Time	I.Time	F.Time	Area	Height	A/H	Conc.	Mark	ID#	Name	k'	Plate #	Plate Ht.	Tailing	Resolution	Sep.Factor	Area Ratio	Height Ratio	Conc. %	Norm Conc.
1	1.476	1.439	1.538	30090	14872	2.023	212.438	   	1	CO	0.000	9732	15.413	1.297	0.000	0.000	0	0	17.852	17.852
2	1.571	1.538	1.626	3714	1930	1.925	71.807	 V 	2	CH4	0.065	12090	12.407	1.104	1.630	0.000	0	0	6.034	6.034
3	1.996	1.949	2.495	3609017	1731712	2.084	905.765	   	3	CO2	0.353	17278	8.682	1.313	7.215	5.462	0	0	76.114	76.114

[Peak Table(Ch2)]
# of Peaks	0

[Peak Table(Ch3)]
# of Peaks	5
Peak#	R.Time	I.Time	F.Time	Area	Height	A/H	Conc.	Mark	ID#	Name	k'	Plate #	Plate Ht.	Tailing	Resolution	Sep.Factor	Area Ratio	Height Ratio	Conc. %	Norm Conc.
1	2.462	2.348	2.510	2201	757	2.908	0.000	   			0.000	11876	12.630	0.000	0.000	0.000	0	0	0.000	0.000
2	2.532	2.510	2.579	935	332	2.813	0.000	 V 			0.028	7407	20.252	0.000	0.670	0.000	0	0	0.000	0.000
3	2.605	2.579	2.678	560	143	3.913	0.000	 V 			0.058	3035	49.419	0.000	0.478	2.053	0	0	0.000	0.000
4	2.880	2.700	3.027	19994	4916	4.067	0.511	   	1	N2O	0.170	12710	11.802	1.593	1.888	2.923	0	0	100.000	100.000
5	3.291	3.030	3.995	24029	718	33.484	0.000	   	2	SF6	0.337	170	882.096	1.795	0.739	1.982	0	0	0.000	0.000

[Compound Results(Ch1)]
# of IDs	6
ID#	Name	R.Time	Area	Height	Conc.	Curve	3rd	2nd	1st	Constant	Area Ratio	Height Ratio	Conc. %	Norm Conc.
1	CO	1.476	30090	14872	212.438	Linear	0.000000e+00	0.000000e+00	1.416423e+002	0.000000e+00	0	0	17.852	17.852
2	CH4	1.571	3714	1930	71.807	Linear	0.000000e+00	0.000000e+00	5.171738e+001	0.000000e+00	0	0	6.034	6.034
3	CO2	1.996	3609017	1731712	905.765	Linear	0.000000e+00	0.000000e+00	3.984494e+003	0.000000e+00	0	0	76.114	76.114
4	Ethylene	0.000	0	0	0.000	Linear	0.000000e+00	0.000000e+00	0.000000e+00	0.000000e+00	0	0	0.000	0.000
5	Acetylene	0.000	0	0	0.000	Linear	0.000000e+00	0.000000e+00	0.000000e+00	0.000000e+00	0	0	0.000	0.000
6	Ethane	0.000	0	0	0.000	Linear	0.000000e+00	0.000000e+00	0.000000e+00	0.000000e+00	0	0	0.000	0.000

[Compound Results(Ch2)]
# of IDs	5
ID#	Name	R.Time	Area	Height	Conc.	Curve	3rd	2nd	1st	Constant	Area Ratio	Height Ratio	Conc. %	Norm Conc.
1	Hydrogen	0.000	0	0	0.000	Linear	0.000000e+00	0.000000e+00	0.000000e+00	0.000000e+00	0	0	0.000	0.000
2	Oxygen	0.000	0	0	0.000	Linear	0.000000e+00	0.000000e+00	0.000000e+00	0.000000e+00	0	0	0.000	0.000
3	Nitrogen	0.000	0	0	0.000	Linear	0.000000e+00	0.000000e+00	0.000000e+00	0.000000e+00	0	0	0.000	0.000
4	Methane	0.000	0	0	0.000	Linear	0.000000e+00	0.000000e+00	0.000000e+00	0.000000e+00	0	0	0.000	0.000
5	Carbon Monoxide	0.000	0	0	0.000	Linear	0.000000e+00	0.000000e+00	0.000000e+00	0.000000e+00	0	0	0.000	0.000

[Compound Results(Ch3)]
# of IDs	2
ID#	Name	R.Time	Area	Height	Conc.	Curve	3rd	2nd	1st	Constant	Area Ratio	Height Ratio	Conc. %	Norm Conc.
1	N2O	2.880	19994	4916	0.511	Linear	0.000000e+00	0.000000e+00	3.915173e+004	0.000000e+00	0	0	100.000	100.000
2	SF6	3.291	24029	718	0.000	Linear	0.000000e+00	0.000000e+00	0.000000e+00	0.000000e+00	0	0	0.000	0.000

[Group Results(Ch1)]
# of Groups	0

[Group Results(Ch2)]
# of Groups	0

[Group Results(Ch3)]
# of Groups	0

[Chromatogram (Ch1)]
Interval(msec)	220
# of Points	1091
Start Time(min)	0.002
End Time(min)	3.998
R.Time (min)	Intensity
0.00167	14
0.00533	30
0.00900	38
0.01267	38
0.01633	33
0.02000	25
0.02367	27
0.02733	33
0.03100	38
0.03467	46
0.03833	52
0.04200	50
0.04567	46
0.04933	43
0.05300	40
0.05667	41
0.06033	43
0.06400	38
0.06767	32
0.07133	29
0.07500	27
0.07867	25
0.08233	29
0.08600	39
0.08967	49
0.09333	53
0.09700	53
0.10067	55
0.10433	51
0.10800	49
0.11167	56
0.11533	63
0.11900	66
0.12267	65
0.12633	60
0.13000	57
0.13367	64
0.13733	70
0.14100	75
0.14467	79
0.14833	83
0.15200	88
0.15567	93
0.15933	102
0.16300	110
0.16667	117
0.17033	121
0.17400	118
0.17767	115
0.18133	113
0.18500	112
0.18867	117
0.19233	123
0.19600	134
0.19967	144
0.20333	146
0.20700	147
0.21067	142
0.21433	141
0.21800	134
0.22167	124
0.22533	119
0.22900	116
0.23267	113
0.23633	106
0.24000	100
0.24367	100
0.24733	107
0.25100	110
0.25467	107
0.25833	102
0.26200	96
0.26567	92
0.26933	88
0.27300	83
0.27667	84
0.28033	89
0.28400	95
0.28767	97
0.29133	95
0.29500	90
0.29867	84
0.30233	75
0.30600	67
0.30967	64
0.31333	60
0.31700	58
0.32067	56
0.32433	54
0.32800	53
0.33167	55
0.33533	57
0.33900	58
0.34267	64
0.34633	67
0.35000	64
0.35367	60
0.35733	59
0.36100	64
0.36467	70
0.36833	78
0.37200	83
0.37567	82
0.37933	81
0.38300	81
0.38667	71
0.39033	61
0.39400	57
0.39767	57
0.40133	57
0.40500	56
0.40867	54
0.41233	56
0.41600	59
0.41967	62
0.42333	65
0.42700	68
0.43067	69
0.43433	66
0.43800	70
0.44167	79
0.44533	81
0.44900	78
0.45267	76
0.45633	73
0.46000	73
0.46367	71
0.46733	68
0.47100	66
0.47467	66
0.47833	67
0.48200	69
0.48567	67
0.48933	69
0.49300	67
0.49667	64
0.50033	63
0.50400	65
0.50767	72
0.51133	78
0.51500	79
0.51867	76
0.52233	75
0.52600	76
0.52967	80
0.53333	85
0.53700	87
0.54067	87
0.54433	86
0.54800	77
0.55167	72
0.55533	71
0.55900	71
0.56267	72
0.56633	75
0.57000	81
0.57367	81
0.57733	78
0.58100	77
0.58467	76
0.58833	74
0.59200	71
0.59567	68
0.59933	66
0.60300	67
0.60667	68
0.61033	70
0.61400	72
0.61767	75
0.62133	77
0.62500	83
0.62867	87
0.63233	88
0.63600	82
0.63967	72
0.64333	61
0.64700	50
0.65067	41
0.65433	34
0.65800	30
0.66167	28
0.66533	26
0.66900	24
0.67267	25
0.67633	31
0.68000	36
0.68367	43
0.68733	51
0.69100	58
0.69467	67
0.69833	76
0.70200	81
0.70567	83
0.70933	88
0.71300	92
0.71667	87
0.72033	76
0.72400	67
0.72767	66
0.73133	72
0.73500	75
0.73867	73
0.74233	73
0.74600	73
0.74967	73
0.75333	67
0.75700	62
0.76067	57
0.76433	56
0.76800	55
0.77167	48
0.77533	40
0.77900	39
0.78267	44
0.78633	51
0.79000	59
0.79367	66
0.79733	68
0.80100	69
0.80467	68
0.80833	66
0.81200	64
0.81567	64
0.81933	70
0.82300	75
0.82667	73
0.83033	69
0.83400	62
0.83767	54
0.84133	49
0.84500	51
0.84867	59
0.85233	70
0.85600	77
0.85967	80
0.86333	83
0.86700	79
0.87067	71
0.87433	62
0.87800	58
0.88167	62
0.88533	68
0.88900	73
0.89267	81
0.89633	90
0.90000	98
0.90367	98
0.90733	93
0.91100	79
0.91467	58
0.91833	47
0.92200	47
0.92567	54
0.92933	60
0.93300	61
0.93667	61
0.94033	59
0.94400	57
0.94767	57
0.95133	56
0.95500	49
0.95867	37
0.96233	27
0.96600	23
0.96967	23
0.97333	21
0.97700	18
0.98067	16
0.98433	18
0.98800	26
0.99167	36
0.99533	47
0.99900	57
1.00267	60
1.00633	60
1.01000	66
1.01367	71
1.01733	71
1.02100	69
1.02467	70
1.02833	75
1.03200	75
1.03567	74
1.03933	75
1.04300	81
1.04667	81
1.05033	87
1.05400	89
1.05767	90
1.06133	90
1.06500	85
1.06867	79
1.07233	76
1.07600	70
1.07967	62
1.08333	56
1.08700	56
1.09067	60
1.09433	67
1.09800	69
1.10167	69
1.10533	71
1.10900	71
1.11267	69
1.11633	70
1.12000	70
1.12367	65
1.12733	52
1.13100	54
1.13467	59
1.13833	63
1.14200	68
1.14567	69
1.14933	69
1.15300	73
1.15667	78
1.16033	81
1.16400	81
1.16767	77
1.17133	70
1.17500	69
1.17867	70
1.18233	72
1.18600	79
1.18967	89
1.19333	92
1.19700	86
1.20067	81
1.20433	79
1.20800	78
1.21167	76
1.21533	71
1.21900	68
1.22267	59
1.22633	46
1.23000	42
1.23367	34
1.23733	26
1.24100	22
1.24467	20
1.24833	22
1.25200	27
1.25567	32
1.25933	36
1.26300	39
1.26667	41
1.27033	41
1.27400	43
1.27767	45
1.28133	48
1.28500	52
1.28867	56
1.29233	61
1.29600	61
1.29967	56
1.30333	46
1.30700	45
1.31067	41
1.31433	35
1.31800	32
1.32167	27
1.32533	21
1.32900	24
1.33267	29
1.33633	31
1.34000	30
1.34367	29
1.34733	30
1.35100	33
1.35467	34
1.35833	38
1.36200	42
1.36567	50
1.36933	59
1.37300	64
1.37667	59
1.38033	48
1.38400	39
1.38767	32
1.39133	29
1.39500	32
1.39867	41
1.40233	50
1.40600	53
1.40967	54
1.41333	53
1.41700	47
1.42067	39
1.42433	37
1.42800	34
1.43167	27
1.43533	23
1.43900	31
1.44267	67
1.44633	201
1.45000	630
1.45367	1815
1.45733	4057
1.46100	6977
1.46467	9893
1.46833	12322
1.47200	14039
1.47567	14896
1.47933	14752
1.48300	13590
1.48667	11644
1.49033	9333
1.49400	7072
1.49767	5133
1.50133	3618
1.50500	2502
1.50867	1703
1.51233	1139
1.51600	748
1.51967	482
1.52333	311
1.52700	197
1.53067	122
1.53433	72
1.53800	45
1.54167	65
1.54533	183
1.54900	431
1.55267	786
1.55633	1175
1.56000	1523
1.56367	1784
1.56733	1930
1.57100	1936
1.57467	1792
1.57833	1527
1.58200	1204
1.58567	889
1.58933	628
1.59300	422
1.59667	273
1.60033	173
1.60400	106
1.60767	64
1.61133	39
1.61500	20
1.61867	7
1.62233	-0
1.62600	-4
1.62967	-4
1.63333	-12
1.63700	-24
1.64067	-34
1.64433	-43
1.64800	-53
1.65167	-55
1.65533	-55
1.65900	-57
1.66267	-56
1.66633	-52
1.67000	-46
1.67367	-39
1.67733	-35
1.68100	-33
1.68467	-31
1.68833	-29
1.69200	-27
1.69567	-25
1.69933	-20
1.70300	-14
1.70667	-11
1.71033	-13
1.71400	-19
1.71767	-24
1.72133	-26
1.72500	-26
1.72867	-25
1.73233	-21
1.73600	-20
1.73967	-21
1.74333	-24
1.74700	-26
1.75067	-25
1.75433	-20
1.75800	-17
1.76167	-14
1.76533	-7
1.76900	6
1.77267	9
1.77633	3
1.78000	-5
1.78367	-7
1.78733	-4
1.79100	-9
1.79467	-5
1.79833	-5
1.80200	-8
1.80567	-0
1.80933	7
1.81300	5
1.81667	-3
1.82033	-8
1.82400	-7
1.82767	-5
1.83133	-6
1.83500	-4
1.83867	0
1.84233	6
1.84600	8
1.84967	1
1.85333	-2
1.85700	-9
1.86067	-16
1.86433	-20
1.86800	-17
1.87167	-14
1.87533	-13
1.87900	-10
1.88267	-6
1.88633	-0
1.89000	6
1.89367	9
1.89733	13
1.90100	14
1.90467	10
1.90833	9
1.91200	13
1.91567	17
1.91933	22
1.92300	27
1.92667	29
1.93033	27
1.93400	19
1.93767	11
1.94133	7
1.94500	7
1.94867	13
1.95233	38
1.95600	214
1.95967	1376
1.96333	7243
1.96700	29623
1.97067	94761
1.97433	238962
1.97800	482401
1.98167	802913
1.98533	1142790
1.98900	1438717
1.99267	1643505
1.99633	1731753
2.00000	1698362
2.00367	1558142
2.00733	1342387
2.01100	1091436
2.01467	843403
2.01833	625040
2.02200	448761
2.02567	315324
2.02933	218909
2.03300	151449
2.03667	105227
2.04033	73929
2.04400	52831
2.04767	38586
2.05133	28903
2.05500	22251
2.05867	17599
2.06233	14271
2.06600	11834
2.06967	10010
2.07333	8618
2.07700	7530
2.08067	6661
2.08433	5950
2.08800	5360
2.09167	4860
2.09533	4431
2.09900	4060
2.10267	3746
2.10633	3480
2.11000	3247
2.11367	3041
2.11733	2858
2.12100	2693
2.12467	2546
2.12833	2411
2.13200	2287
2.13567	2172
2.13933	2066
2.14300	1972
2.14667	1885
2.15033	1804
2.15400	1720
2.15767	1637
2.16133	1564
2.16500	1505
2.16867	1457
2.17233	1415
2.17600	1374
2.17967	1332
2.18333	1289
2.18700	1246
2.19067	1206
2.19433	1166
2.19800	1130
2.20167	1100
2.20533	1072
2.20900	1044
2.21267	1016
2.21633	988
2.22000	962
2.22367	937
2.22733	912
2.23100	886
2.23467	859
2.23833	833
2.24200	810
2.24567	792
2.24933	778
2.25300	767
2.25667	761
2.26033	756
2.26400	749
2.26767	740
2.27133	726
2.27500	703
2.27867	677
2.28233	657
2.28600	642
2.28967	628
2.29333	617
2.29700	608
2.30067	598
2.30433	590
2.30800	581
2.31167	568
2.31533	556
2.31900	547
2.32267	538
2.32633	532
2.33000	530
2.33367	531
2.33733	527
2.34100	520
2.34467	511
2.34833	503
2.35200	498
2.35567	496
2.35933	492
2.36300	489
2.36667	486
2.37033	480
2.37400	475
2.37767	466
2.38133	455
2.38500	444
2.38867	438
2.39233	437
2.39600	441
2.39967	445
2.40333	447
2.40700	445
2.41067	442
2.41433	437
2.41800	430
2.42167	423
2.42533	418
2.42900	415
2.43267	412
2.43633	409
2.44000	406
2.44367	402
2.44733	402
2.45100	404
2.45467	404
2.45833	397
2.46200	384
2.46567	369
2.46933	353
2.47300	342
2.47667	340
2.48033	346
2.48400	354
2.48767	356
2.49133	351
2.49500	341
2.49867	324
2.50233	314
2.50600	315
2.50967	321
2.51333	329
2.51700	332
2.52067	346
2.52433	357
2.52800	365
2.53167	366
2.53533	361
2.53900	352
2.54267	342
2.54633	333
2.55000	322
2.55367	308
2.55733	291
2.56100	286
2.56467	300
2.56833	307
2.57200	307
2.57567	303
2.57933	301
2.58300	300
2.58667	302
2.59033	306
2.59400	305
2.59767	301
2.60133	293
2.60500	282
2.60867	271
2.61233	262
2.61600	260
2.61967	264
2.62333	271
2.62700	274
2.63067	271
2.63433	261
2.63800	253
2.64167	242
2.64533	234
2.64900	231
2.65267	231
2.65633	233
2.66000	236
2.66367	237
2.66733	238
2.67100	240
2.67467	242
2.67833	244
2.68200	248
2.68567	254
2.68933	259
2.69300	262
2.69667	260
2.70033	257
2.70400	260
2.70767	261
2.71133	264
2.71500	264
2.71867	258
2.72233	251
2.72600	247
2.72967	241
2.73333	239
2.73700	240
2.74067	237
2.74433	234
2.74800	231
2.75167	224
2.75533	220
2.75900	223
2.76267	233
2.76633	244
2.77000	251
2.77367	245
2.77733	235
2.78100	234
2.78467	238
2.78833	241
2.79200	238
2.79567	232
2.79933	231
2.80300	232
2.80667	231
2.81033	229
2.81400	222
2.81767	215
2.82133	211
2.82500	206
2.82867	202
2.83233	201
2.83600	207
2.83967	210
2.84333	213
2.84700	222
2.85067	231
2.85433	236
2.85800	235
2.86167	230
2.86533	222
2.86900	212
2.87267	201
2.87633	194
2.88000	188
2.88367	184
2.88733	186
2.89100	194
2.89467	197
2.89833	197
2.90200	199
2.90567	203
2.90933	206
2.91300	207
2.91667	208
2.92033	210
2.92400	208
2.92767	202
2.93133	201
2.93500	204
2.93867	202
2.94233	198
2.94600	197
2.94967	197
2.95333	198
2.95700	197
2.96067	199
2.96433	203
2.96800	201
2.97167	196
2.97533	193
2.97900	192
2.98267	194
2.98633	197
2.99000	199
2.99367	199
2.99733	196
3.00100	197
3.00467	202
3.00833	205
3.01200	207
3.01567	210
3.01933	210
3.02300	207
3.02667	202
3.03033	197
3.03400	194
3.03767	189
3.04133	183
3.04500	179
3.04867	176
3.05233	167
3.05600	160
3.05967	160
3.06333	163
3.06700	165
3.07067	172
3.07433	182
3.07800	188
3.08167	189
3.08533	185
3.08900	177
3.09267	164
3.09633	155
3.10000	148
3.10367	143
3.10733	142
3.11100	144
3.11467	148
3.11833	155
3.12200	169
3.12567	185
3.12933	193
3.13300	189
3.13667	179
3.14033	168
3.14400	160
3.14767	151
3.15133	146
3.15500	144
3.15867	142
3.16233	140
3.16600	139
3.16967	141
3.17333	149
3.17700	158
3.18067	163
3.18433	163
3.18800	163
3.19167	155
3.19533	142
3.19900	133
3.20267	128
3.20633	124
3.21000	133
3.21367	136
3.21733	136
3.22100	124
3.22467	113
3.22833	131
3.23200	134
3.23567	131
3.23933	134
3.24300	138
3.24667	143
3.25033	154
3.25400	162
3.25767	166
3.26133	162
3.26500	154
3.26867	149
3.27233	145
3.27600	140
3.27967	139
3.28333	138
3.28700	133
3.29067	130
3.29433	128
3.29800	128
3.30167	126
3.30533	123
3.30900	122
3.31267	120
3.31633	120
3.32000	127
3.32367	137
3.32733	140
3.33100	140
3.33467	139
3.33833	133
3.34200	127
3.34567	123
3.34933	122
3.35300	126
3.35667	131
3.36033	137
3.36400	139
3.36767	136
3.37133	136
3.37500	137
3.37867	139
3.38233	136
3.38600	126
3.38967	121
3.39333	121
3.39700	116
3.40067	109
3.40433	103
3.40800	102
3.41167	103
3.41533	101
3.41900	100
3.42267	105
3.42633	106
3.43000	100
3.43367	99
3.43733	105
3.44100	112
3.44467	120
3.44833	127
3.45200	132
3.45567	137
3.45933	134
3.46300	129
3.46667	122
3.47033	114
3.47400	110
3.47767	110
3.48133	113
3.48500	111
3.48867	105
3.49233	100
3.49600	97
3.49967	92
3.50333	87
3.50700	83
3.51067	82
3.51433	85
3.51800	92
3.52167	98
3.52533	102
3.52900	106
3.53267	113
3.53633	116
3.54000	112
3.54367	105
3.54733	100
3.55100	98
3.55467	98
3.55833	100
3.56200	102
3.56567	106
3.56933	107
3.57300	107
3.57667	106
3.58033	101
3.58400	95
3.58767	90
3.59133	89
3.59500	93
3.59867	96
3.60233	98
3.60600	99
3.60967	101
3.61333	103
3.61700	103
3.62067	102
3.62433	103
3.62800	104
3.63167	102
3.63533	97
3.63900	87
3.64267	79
3.64633	76
3.65000	79
3.65367	82
3.65733	86
3.66100	88
3.66467	86
3.66833	79
3.67200	71
3.67567	69
3.67933	72
3.68300	73
3.68667	79
3.69033	88
3.69400	95
3.69767	99
3.70133	94
3.70500	87
3.70867	81
3.71233	77
3.71600	72
3.71967	66
3.72333	64
3.72700	65
3.73067	72
3.73433	83
3.73800	97
3.74167	104
3.74533	100
3.74900	86
3.75267	74
3.75633	68
3.76000	60
3.76367	53
3.76733	54
3.77100	62
3.77467	67
3.77833	68
3.78200	65
3.78567	61
3.78933	57
3.79300	56
3.79667	56
3.80033	56
3.80400	57
3.80767	57
3.81133	56
3.81500	58
3.81867	60
3.82233	59
3.82600	51
3.82967	45
3.83333	44
3.83700	47
3.84067	51
3.84433	60
3.84800	65
3.85167	65
3.85533	64
3.85900	62
3.86267	60
3.86633	65
3.87000	65
3.87367	61
3.87733	55
3.88100	51
3.88467	51
3.88833	52
3.89200	52
3.89567	56
3.89933	60
3.90300	57
3.90667	53
3.91033	50
3.91400	51
3.91767	49
3.92133	45
3.92500	39
3.92867	33
3.93233	31
3.93600	28
3.93967	29
3.94333	36
3.94700	47
3.95067	60
3.95433	71
3.95800	74
3.96167	69
3.96533	56
3.96900	46
3.97267	48
3.97633	49
3.98000	50
3.98367	47
3.98733	44
3.99100	44
3.99467	48
3.99833	53

[Chromatogram (Ch2)]
Interval(msec)	220
# of Points	1091
Start Time(min)	0.002
End Time(min)	3.998
R.Time (min)	Intensity
0.00167	-0
0.00533	-0
0.00900	0
0.01267	0
0.01633	0
0.02000	0
0.02367	0
0.02733	0
0.03100	0
0.03467	0
0.03833	-0
0.04200	-0
0.04567	-1
0.04933	-0
0.05300	-0
0.05667	-0
0.06033	-0
0.06400	-0
0.06767	-0
0.07133	-0
0.07500	-0
0.07867	-1
0.08233	-1
0.08600	-1
0.08967	-1
0.09333	-1
0.09700	-1
0.10067	-1
0.10433	-1
0.10800	-1
0.11167	-1
0.11533	-1
0.11900	-1
0.12267	-1
0.12633	-0
0.13000	-0
0.13367	-0
0.13733	-0
0.14100	-0
0.14467	-0
0.14833	-1
0.15200	-1
0.15567	-1
0.15933	-1
0.16300	-2
0.16667	-2
0.17033	-2
0.17400	-2
0.17767	-2
0.18133	-3
0.18500	-3
0.18867	-3
0.19233	-3
0.19600	-2
0.19967	-2
0.20333	-2
0.20700	-2
0.21067	-2
0.21433	-2
0.21800	-3
0.22167	-3
0.22533	-3
0.22900	-3
0.23267	-2
0.23633	-2
0.24000	-2
0.24367	-1
0.24733	-1
0.25100	-1
0.25467	-1
0.25833	-1
0.26200	-1
0.26567	-1
0.26933	-1
0.27300	-0
0.27667	-1
0.28033	-1
0.28400	-1
0.28767	-1
0.29133	-2
0.29500	-2
0.29867	-2
0.30233	-1
0.30600	-1
0.30967	-1
0.31333	-0
0.31700	-0
0.32067	0
0.32433	0
0.32800	0
0.33167	0
0.33533	-0
0.33900	-0
0.34267	-0
0.34633	-1
0.35000	-1
0.35367	-1
0.35733	-1
0.36100	-1
0.36467	-1
0.36833	-1
0.37200	-1
0.37567	-1
0.37933	-0
0.38300	-0
0.38667	-0
0.39033	-0
0.39400	-0
0.39767	-0
0.40133	-0
0.40500	-0
0.40867	-0
0.41233	-0
0.41600	-0
0.41967	-0
0.42333	-0
0.42700	-0
0.43067	-0
0.43433	-0
0.43800	-0
0.44167	-0
0.44533	-0
0.44900	-0
0.45267	-1
0.45633	-1
0.46000	-1
0.46367	-1
0.46733	-1
0.47100	-2
0.47467	-2
0.47833	-2
0.48200	-2
0.48567	-2
0.48933	-2
0.49300	-3
0.49667	-3
0.50033	-3
0.50400	-3
0.50767	-3
0.51133	-3
0.51500	-3
0.51867	-3
0.52233	-2
0.52600	-2
0.52967	-2
0.53333	-2
0.53700	-2
0.54067	-2
0.54433	-2
0.54800	-2
0.55167	-2
0.55533	-1
0.55900	-1
0.56267	-1
0.56633	-1
0.57000	-1
0.57367	-1
0.57733	-1
0.58100	-1
0.58467	-1
0.58833	-0
0.59200	-0
0.59567	-0
0.59933	0
0.60300	0
0.60667	0
0.61033	-0
0.61400	-0
0.61767	-0
0.62133	-0
0.62500	-1
0.62867	-1
0.63233	-1
0.63600	-1
0.63967	-1
0.64333	-1
0.64700	-1
0.65067	-1
0.65433	-2
0.65800	-2
0.66167	-2
0.66533	-2
0.66900	-1
0.67267	-1
0.67633	-2
0.68000	-2
0.68367	-2
0.68733	-2
0.69100	-2
0.69467	-3
0.69833	-3
0.70200	-3
0.70567	-3
0.70933	-4
0.71300	-4
0.71667	-4
0.72033	-4
0.72400	-4
0.72767	-4
0.73133	-4
0.73500	-4
0.73867	-4
0.74233	-4
0.74600	-3
0.74967	-3
0.75333	-3
0.75700	-3
0.76067	-3
0.76433	-2
0.76800	-2
0.77167	-2
0.77533	-2
0.77900	-2
0.78267	-2
0.78633	-2
0.79000	-2
0.79367	-2
0.79733	-2
0.80100	-2
0.80467	-3
0.80833	-3
0.81200	-3
0.81567	-3
0.81933	-3
0.82300	-3
0.82667	-3
0.83033	-3
0.83400	-3
0.83767	-3
0.84133	-3
0.84500	-3
0.84867	-3
0.85233	-3
0.85600	-3
0.85967	-2
0.86333	-2
0.86700	-2
0.87067	-2
0.87433	-1
0.87800	-1
0.88167	-1
0.88533	-1
0.88900	-1
0.89267	-1
0.89633	-1
0.90000	-1
0.90367	-0
0.90733	0
0.91100	0
0.91467	0
0.91833	1
0.92200	1
0.92567	0
0.92933	0
0.93300	0
0.93667	0
0.94033	0
0.94400	0
0.94767	-0
0.95133	-1
0.95500	-1
0.95867	-2
0.96233	-2
0.96600	-2
0.96967	-3
0.97333	-3
0.97700	-3
0.98067	-4
0.98433	-4
0.98800	-4
0.99167	-4
0.99533	-4
0.99900	-4
1.00267	-4
1.00633	-5
1.01000	-5
1.01367	-5
1.01733	-5
1.02100	-5
1.02467	-5
1.02833	-5
1.03200	-5
1.03567	-5
1.03933	-4
1.04300	-4
1.04667	-4
1.05033	-3
1.05400	-3
1.05767	-3
1.06133	-3
1.06500	-3
1.06867	-3
1.07233	-3
1.07600	-3
1.07967	-3
1.08333	-3
1.08700	-3
1.09067	-3
1.09433	-2
1.09800	-2
1.10167	-2
1.10533	-2
1.10900	-2
1.11267	-2
1.11633	-2
1.12000	-2
1.12367	-2
1.12733	-2
1.13100	-2
1.13467	-2
1.13833	-2
1.14200	-2
1.14567	-2
1.14933	-1
1.15300	-1
1.15667	-1
1.16033	-1
1.16400	-1
1.16767	-0
1.17133	-0
1.17500	-0
1.17867	-0
1.18233	-0
1.18600	-0
1.18967	-0
1.19333	-1
1.19700	-1
1.20067	-1
1.20433	-1
1.20800	-1
1.21167	-2
1.21533	-2
1.21900	-2
1.22267	-2
1.22633	-2
1.23000	-2
1.23367	-2
1.23733	-2
1.24100	-2
1.24467	-2
1.24833	-2
1.25200	-2
1.25567	-2
1.25933	-2
1.26300	-2
1.26667	-2
1.27033	-2
1.27400	-2
1.27767	-2
1.28133	-2
1.28500	-2
1.28867	-2
1.29233	-2
1.29600	-3
1.29967	-3
1.30333	-3
1.30700	-3
1.31067	-3
1.31433	-3
1.31800	-2
1.32167	-2
1.32533	-3
1.32900	-3
1.33267	-3
1.33633	-3
1.34000	-4
1.34367	-4
1.34733	-4
1.35100	-5
1.35467	-5
1.35833	-6
1.36200	-6
1.36567	-7
1.36933	-7
1.37300	-7
1.37667	-7
1.38033	-7
1.38400	-6
1.38767	-6
1.39133	-6
1.39500	-6
1.39867	-6
1.40233	-6
1.40600	-6
1.40967	-5
1.41333	-5
1.41700	-4
1.42067	-4
1.42433	-3
1.42800	-3
1.43167	-3
1.43533	-3
1.43900	-3
1.44267	-3
1.44633	-3
1.45000	-3
1.45367	-2
1.45733	-2
1.46100	-2
1.46467	-2
1.46833	-2
1.47200	-2
1.47567	-1
1.47933	-1
1.48300	-1
1.48667	-1
1.49033	-1
1.49400	-1
1.49767	-1
1.50133	-1
1.50500	-2
1.50867	-2
1.51233	-2
1.51600	-3
1.51967	-3
1.52333	-4
1.52700	-4
1.53067	-4
1.53433	-4
1.53800	-4
1.54167	-4
1.54533	-4
1.54900	-4
1.55267	-4
1.55633	-4
1.56000	-4
1.56367	-3
1.56733	-3
1.57100	-3
1.57467	-3
1.57833	-3
1.58200	-3
1.58567	-3
1.58933	-3
1.59300	-4
1.59667	-4
1.60033	-5
1.60400	-7
1.60767	-8
1.61133	-10
1.61500	-12
1.61867	-14
1.62233	-17
1.62600	-20
1.62967	-23
1.63333	-26
1.63700	-30
1.64067	-33
1.64433	-36
1.64800	-40
1.65167	-43
1.65533	-46
1.65900	-50
1.66267	-53
1.66633	-57
1.67000	-61
1.67367	-66
1.67733	-70
1.68100	-75
1.68467	-80
1.68833	-85
1.69200	-90
1.69567	-93
1.69933	-97
1.70300	-99
1.70667	-102
1.71033	-103
1.71400	-105
1.71767	-106
1.72133	-107
1.72500	-107
1.72867	-107
1.73233	-107
1.73600	-107
1.73967	-107
1.74333	-106
1.74700	-106
1.75067	-106
1.75433	-106
1.75800	-106
1.76167	-107
1.76533	-108
1.76900	-109
1.77267	-110
1.77633	-111
1.78000	-112
1.78367	-113
1.78733	-114
1.79100	-115
1.79467	-115
1.79833	-115
1.80200	-115
1.80567	-115
1.80933	-115
1.81300	-115
1.81667	-115
1.82033	-115
1.82400	-115
1.82767	-115
1.83133	-115
1.83500	-115
1.83867	-115
1.84233	-115
1.84600	-115
1.84967	-115
1.85333	-114
1.85700	-114
1.86067	-114
1.86433	-114
1.86800	-113
1.87167	-113
1.87533	-113
1.87900	-113
1.88267	-114
1.88633	-114
1.89000	-115
1.89367	-114
1.89733	-114
1.90100	-114
1.90467	-114
1.90833	-113
1.91200	-113
1.91567	-112
1.91933	-112
1.92300	-111
1.92667	-111
1.93033	-111
1.93400	-111
1.93767	-111
1.94133	-111
1.94500	-111
1.94867	-111
1.95233	-111
1.95600	-111
1.95967	-111
1.96333	-111
1.96700	-111
1.97067	-110
1.97433	-110
1.97800	-110
1.98167	-110
1.98533	-109
1.98900	-109
1.99267	-108
1.99633	-108
2.00000	-108
2.00367	-108
2.00733	-108
2.01100	-107
2.01467	-107
2.01833	-107
2.02200	-106
2.02567	-106
2.02933	-105
2.03300	-105
2.03667	-104
2.04033	-104
2.04400	-103
2.04767	-103
2.05133	-103
2.05500	-102
2.05867	-102
2.06233	-102
2.06600	-102
2.06967	-102
2.07333	-102
2.07700	-102
2.08067	-101
2.08433	-101
2.08800	-100
2.09167	-100
2.09533	-100
2.09900	-100
2.10267	-100
2.10633	-99
2.11000	-99
2.11367	-99
2.11733	-98
2.12100	-98
2.12467	-98
2.12833	-98
2.13200	-98
2.13567	-98
2.13933	-98
2.14300	-98
2.14667	-97
2.15033	-97
2.15400	-96
2.15767	-96
2.16133	-95
2.16500	-95
2.16867	-95
2.17233	-95
2.17600	-95
2.17967	-95
2.18333	-95
2.18700	-95
2.19067	-94
2.19433	-94
2.19800	-93
2.20167	-93
2.20533	-92
2.20900	-91
2.21267	-90
2.21633	-89
2.22000	-89
2.22367	-89
2.22733	-89
2.23100	-88
2.23467	-88
2.23833	-87
2.24200	-87
2.24567	-86
2.24933	-86
2.25300	-85
2.25667	-85
2.26033	-84
2.26400	-84
2.26767	-84
2.27133	-83
2.27500	-83
2.27867	-83
2.28233	-83
2.28600	-83
2.28967	-82
2.29333	-82
2.29700	-81
2.30067	-81
2.30433	-81
2.30800	-81
2.31167	-81
2.31533	-83
2.31900	-84
2.32267	-85
2.32633	-86
2.33000	-86
2.33367	-86
2.33733	-85
2.34100	-84
2.34467	-83
2.34833	-81
2.35200	-79
2.35567	-78
2.35933	-76
2.36300	-74
2.36667	-72
2.37033	-69
2.37400	-66
2.37767	-62
2.38133	-58
2.38500	-54
2.38867	-49
2.39233	-45
2.39600	-41
2.39967	-36
2.40333	-32
2.40700	-28
2.41067	-25
2.41433	-22
2.41800	-19
2.42167	-16
2.42533	-14
2.42900	-12
2.43267	-11
2.43633	-10
2.44000	-9
2.44367	-8
2.44733	-7
2.45100	-7
2.45467	-7
2.45833	-7
2.46200	-7
2.46567	-6
2.46933	-5
2.47300	-5
2.47667	-4
2.48033	-3
2.48400	-2
2.48767	-1
2.49133	-1
2.49500	0
2.49867	2
2.50233	3
2.50600	4
2.50967	4
2.51333	5
2.51700	6
2.52067	7
2.52433	8
2.52800	8
2.53167	9
2.53533	9
2.53900	10
2.54267	11
2.54633	11
2.55000	12
2.55367	12
2.55733	13
2.56100	13
2.56467	12
2.56833	12
2.57200	12
2.57567	12
2.57933	12
2.58300	11
2.58667	11
2.59033	11
2.59400	11
2.59767	11
2.60133	11
2.60500	11
2.60867	11
2.61233	11
2.61600	11
2.61967	12
2.62333	12
2.62700	12
2.63067	13
2.63433	14
2.63800	14
2.64167	14
2.64533	15
2.64900	15
2.65267	15
2.65633	15
2.66000	15
2.66367	15
2.66733	16
2.67100	16
2.67467	17
2.67833	17
2.68200	18
2.68567	18
2.68933	19
2.69300	19
2.69667	19
2.70033	20
2.70400	20
2.70767	19
2.71133	19
2.71500	20
2.71867	20
2.72233	20
2.72600	20
2.72967	21
2.73333	21
2.73700	22
2.74067	22
2.74433	22
2.74800	23
2.75167	23
2.75533	23
2.75900	23
2.76267	23
2.76633	23
2.77000	22
2.77367	22
2.77733	22
2.78100	22
2.78467	21
2.78833	21
2.79200	21
2.79567	21
2.79933	21
2.80300	21
2.80667	21
2.81033	22
2.81400	22
2.81767	22
2.82133	23
2.82500	23
2.82867	23
2.83233	23
2.83600	23
2.83967	23
2.84333	22
2.84700	20
2.85067	17
2.85433	11
2.85800	3
2.86167	-9
2.86533	-25
2.86900	-44
2.87267	-68
2.87633	-97
2.88000	-130
2.88367	-167
2.88733	-208
2.89100	-252
2.89467	-300
2.89833	-350
2.90200	-402
2.90567	-456
2.90933	-511
2.91300	-566
2.91667	-621
2.92033	-676
2.92400	-730
2.92767	-782
2.93133	-833
2.93500	-885
2.93867	-940
2.94233	-998
2.94600	-1051
2.94967	-1088
2.95333	-1101
2.95700	-1088
2.96067	-1051
2.96433	-995
2.96800	-926
2.97167	-849
2.97533	-769
2.97900	-689
2.98267	-612
2.98633	-539
2.99000	-472
2.99367	-411
2.99733	-356
3.00100	-307
3.00467	-264
3.00833	-226
3.01200	-193
3.01567	-165
3.01933	-140
3.02300	-118
3.02667	-100
3.03033	-84
3.03400	-70
3.03767	-58
3.04133	-48
3.04500	-40
3.04867	-32
3.05233	-26
3.05600	-20
3.05967	-16
3.06333	-12
3.06700	-8
3.07067	-5
3.07433	-2
3.07800	-0
3.08167	2
3.08533	3
3.08900	4
3.09267	5
3.09633	6
3.10000	6
3.10367	7
3.10733	8
3.11100	9
3.11467	9
3.11833	10
3.12200	10
3.12567	11
3.12933	11
3.13300	12
3.13667	12
3.14033	13
3.14400	13
3.14767	14
3.15133	14
3.15500	14
3.15867	15
3.16233	15
3.16600	15
3.16967	15
3.17333	15
3.17700	15
3.18067	15
3.18433	15
3.18800	15
3.19167	16
3.19533	16
3.19900	16
3.20267	17
3.20633	17
3.21000	18
3.21367	18
3.21733	19
3.22100	19
3.22467	19
3.22833	19
3.23200	19
3.23567	19
3.23933	20
3.24300	20
3.24667	20
3.25033	20
3.25400	20
3.25767	20
3.26133	20
3.26500	20
3.26867	20
3.27233	20
3.27600	20
3.27967	20
3.28333	20
3.28700	20
3.29067	20
3.29433	20
3.29800	20
3.30167	21
3.30533	21
3.30900	21
3.31267	21
3.31633	21
3.32000	21
3.32367	21
3.32733	21
3.33100	22
3.33467	22
3.33833	22
3.34200	22
3.34567	22
3.34933	22
3.35300	22
3.35667	22
3.36033	22
3.36400	23
3.36767	23
3.37133	23
3.37500	23
3.37867	23
3.38233	23
3.38600	23
3.38967	23
3.39333	23
3.39700	23
3.40067	23
3.40433	23
3.40800	23
3.41167	23
3.41533	23
3.41900	23
3.42267	23
3.42633	23
3.43000	23
3.43367	23
3.43733	23
3.44100	23
3.44467	23
3.44833	23
3.45200	23
3.45567	24
3.45933	24
3.46300	25
3.46667	25
3.47033	25
3.47400	25
3.47767	25
3.48133	26
3.48500	26
3.48867	26
3.49233	26
3.49600	26
3.49967	26
3.50333	26
3.50700	26
3.51067	26
3.51433	26
3.51800	26
3.52167	26
3.52533	26
3.52900	26
3.53267	26
3.53633	26
3.54000	26
3.54367	26
3.54733	26
3.55100	26
3.55467	26
3.55833	26
3.56200	26
3.56567	25
3.56933	25
3.57300	25
3.57667	25
3.58033	25
3.58400	25
3.58767	25
3.59133	25
3.59500	25
3.59867	25
3.60233	25
3.60600	25
3.60967	25
3.61333	25
3.61700	25
3.62067	25
3.62433	25
3.62800	25
3.63167	25
3.63533	25
3.63900	25
3.64267	25
3.64633	24
3.65000	24
3.65367	24
3.65733	23
3.66100	23
3.66467	23
3.66833	23
3.67200	23
3.67567	23
3.67933	23
3.68300	23
3.68667	23
3.69033	23
3.69400	23
3.69767	22
3.70133	22
3.70500	22
3.70867	22
3.71233	22
3.71600	22
3.71967	22
3.72333	22
3.72700	22
3.73067	22
3.73433	22
3.73800	23
3.74167	23
3.74533	23
3.74900	23
3.75267	22
3.75633	22
3.76000	22
3.76367	22
3.76733	23
3.77100	23
3.77467	23
3.77833	23
3.78200	24
3.78567	24
3.78933	24
3.79300	24
3.79667	24
3.80033	24
3.80400	24
3.80767	24
3.81133	24
3.81500	24
3.81867	24
3.82233	24
3.82600	24
3.82967	24
3.83333	24
3.83700	24
3.84067	24
3.84433	24
3.84800	24
3.85167	24
3.85533	24
3.85900	24
3.86267	24
3.86633	24
3.87000	24
3.87367	24
3.87733	24
3.88100	24
3.88467	24
3.88833	24
3.89200	24
3.89567	24
3.89933	24
3.90300	24
3.90667	24
3.91033	24
3.91400	24
3.91767	24
3.92133	24
3.92500	24
3.92867	24
3.93233	24
3.93600	24
3.93967	24
3.94333	24
3.94700	24
3.95067	24
3.95433	24
3.95800	24
3.96167	24
3.96533	23
3.96900	23
3.97267	23
3.97633	23
3.98000	23
3.98367	23
3.98733	23
3.99100	23
3.99467	23
3.99833	23

[Chromatogram (Ch3)]
Interval(msec)	220
# of Points	1091
Start Time(min)	0.002
End Time(min)	3.998
R.Time (min)	Intensity
0.00167	-0
0.00533	-1
0.00900	0
0.01267	2
0.01633	3
0.02000	4
0.02367	4
0.02733	5
0.03100	5
0.03467	4
0.03833	3
0.04200	3
0.04567	2
0.04933	1
0.05300	2
0.05667	2
0.06033	1
0.06400	1
0.06767	0
0.07133	-1
0.07500	-3
0.07867	-5
0.08233	-5
0.08600	-2
0.08967	-0
0.09333	-0
0.09700	1
0.10067	3
0.10433	4
0.10800	2
0.11167	0
0.11533	-1
0.11900	-2
0.12267	-1
0.12633	-1
0.13000	-2
0.13367	-4
0.13733	-3
0.14100	-2
0.14467	-3
0.14833	-3
0.15200	-2
0.15567	-3
0.15933	-3
0.16300	-3
0.16667	-2
0.17033	-2
0.17400	-3
0.17767	-4
0.18133	-5
0.18500	-6
0.18867	-9
0.19233	-11
0.19600	-9
0.19967	-6
0.20333	-2
0.20700	-1
0.21067	-3
0.21433	-2
0.21800	-1
0.22167	-1
0.22533	-2
0.22900	-4
0.23267	-3
0.23633	-2
0.24000	0
0.24367	0
0.24733	0
0.25100	1
0.25467	2
0.25833	3
0.26200	3
0.26567	3
0.26933	2
0.27300	1
0.27667	-2
0.28033	-6
0.28400	-7
0.28767	-7
0.29133	-6
0.29500	-4
0.29867	-2
0.30233	-2
0.30600	-4
0.30967	-3
0.31333	-1
0.31700	-1
0.32067	0
0.32433	-0
0.32800	2
0.33167	5
0.33533	6
0.33900	8
0.34267	6
0.34633	4
0.35000	1
0.35367	2
0.35733	4
0.36100	4
0.36467	2
0.36833	2
0.37200	4
0.37567	6
0.37933	9
0.38300	9
0.38667	6
0.39033	3
0.39400	3
0.39767	4
0.40133	5
0.40500	6
0.40867	4
0.41233	1
0.41600	-1
0.41967	-1
0.42333	-0
0.42700	0
0.43067	-0
0.43433	2
0.43800	5
0.44167	5
0.44533	4
0.44900	4
0.45267	2
0.45633	-1
0.46000	-2
0.46367	-5
0.46733	-7
0.47100	-7
0.47467	-5
0.47833	-5
0.48200	-6
0.48567	-6
0.48933	-5
0.49300	-5
0.49667	-4
0.50033	-2
0.50400	-1
0.50767	1
0.51133	1
0.51500	0
0.51867	2
0.52233	5
0.52600	6
0.52967	4
0.53333	3
0.53700	0
0.54067	-1
0.54433	1
0.54800	2
0.55167	3
0.55533	3
0.55900	3
0.56267	3
0.56633	2
0.57000	2
0.57367	1
0.57733	0
0.58100	1
0.58467	4
0.58833	5
0.59200	4
0.59567	3
0.59933	3
0.60300	3
0.60667	2
0.61033	0
0.61400	-1
0.61767	-3
0.62133	-6
0.62500	-7
0.62867	-8
0.63233	-8
0.63600	-9
0.63967	-8
0.64333	-7
0.64700	-7
0.65067	-7
0.65433	-8
0.65800	-8
0.66167	-7
0.66533	-8
0.66900	-7
0.67267	-7
0.67633	-7
0.68000	-9
0.68367	-11
0.68733	-11
0.69100	-11
0.69467	-10
0.69833	-7
0.70200	-5
0.70567	-5
0.70933	-6
0.71300	-6
0.71667	-7
0.72033	-6
0.72400	-6
0.72767	-7
0.73133	-9
0.73500	-10
0.73867	-10
0.74233	-9
0.74600	-7
0.74967	-5
0.75333	-3
0.75700	-3
0.76067	-4
0.76433	-5
0.76800	-7
0.77167	-7
0.77533	-6
0.77900	-5
0.78267	-4
0.78633	-3
0.79000	-3
0.79367	-3
0.79733	-4
0.80100	-3
0.80467	-2
0.80833	-4
0.81200	-3
0.81567	-3
0.81933	-2
0.82300	-2
0.82667	-2
0.83033	-2
0.83400	-4
0.83767	-5
0.84133	-5
0.84500	-5
0.84867	-3
0.85233	-4
0.85600	-5
0.85967	-5
0.86333	-3
0.86700	-2
0.87067	-2
0.87433	-3
0.87800	-4
0.88167	-4
0.88533	-3
0.88900	-4
0.89267	-4
0.89633	-4
0.90000	-4
0.90367	-4
0.90733	-4
0.91100	-5
0.91467	-5
0.91833	-5
0.92200	-4
0.92567	-3
0.92933	-3
0.93300	-3
0.93667	-3
0.94033	-3
0.94400	-4
0.94767	-4
0.95133	-6
0.95500	-7
0.95867	-6
0.96233	-6
0.96600	-7
0.96967	-9
0.97333	-8
0.97700	-6
0.98067	-3
0.98433	-0
0.98800	0
0.99167	-1
0.99533	-3
0.99900	-3
1.00267	-3
1.00633	-3
1.01000	-1
1.01367	0
1.01733	-1
1.02100	-2
1.02467	-2
1.02833	-4
1.03200	-4
1.03567	-4
1.03933	-5
1.04300	-4
1.04667	-2
1.05033	0
1.05400	3
1.05767	4
1.06133	3
1.06500	2
1.06867	2
1.07233	1
1.07600	1
1.07967	-0
1.08333	-1
1.08700	-1
1.09067	-3
1.09433	-4
1.09800	-6
1.10167	-8
1.10533	-7
1.10900	-3
1.11267	-1
1.11633	1
1.12000	3
1.12367	5
1.12733	5
1.13100	3
1.13467	2
1.13833	1
1.14200	2
1.14567	3
1.14933	5
1.15300	4
1.15667	5
1.16033	4
1.16400	4
1.16767	5
1.17133	4
1.17500	2
1.17867	1
1.18233	-1
1.18600	-2
1.18967	-2
1.19333	-2
1.19700	-1
1.20067	2
1.20433	3
1.20800	4
1.21167	5
1.21533	4
1.21900	5
1.22267	5
1.22633	7
1.23000	6
1.23367	5
1.23733	4
1.24100	3
1.24467	1
1.24833	1
1.25200	1
1.25567	2
1.25933	1
1.26300	-1
1.26667	-1
1.27033	1
1.27400	1
1.27767	1
1.28133	-0
1.28500	-1
1.28867	-1
1.29233	-1
1.29600	-1
1.29967	-1
1.30333	-1
1.30700	-1
1.31067	-1
1.31433	-1
1.31800	-1
1.32167	-0
1.32533	2
1.32900	5
1.33267	7
1.33633	6
1.34000	6
1.34367	2
1.34733	-1
1.35100	-2
1.35467	-1
1.35833	-1
1.36200	-1
1.36567	-2
1.36933	-2
1.37300	0
1.37667	1
1.38033	3
1.38400	5
1.38767	6
1.39133	6
1.39500	6
1.39867	7
1.40233	6
1.40600	6
1.40967	7
1.41333	5
1.41700	4
1.42067	4
1.42433	4
1.42800	5
1.43167	7
1.43533	9
1.43900	7
1.44267	6
1.44633	5
1.45000	4
1.45367	6
1.45733	7
1.46100	6
1.46467	6
1.46833	8
1.47200	9
1.47567	9
1.47933	9
1.48300	7
1.48667	4
1.49033	3
1.49400	3
1.49767	3
1.50133	3
1.50500	3
1.50867	3
1.51233	4
1.51600	6
1.51967	7
1.52333	6
1.52700	6
1.53067	8
1.53433	9
1.53800	8
1.54167	6
1.54533	5
1.54900	7
1.55267	8
1.55633	6
1.56000	3
1.56367	3
1.56733	2
1.57100	2
1.57467	1
1.57833	2
1.58200	4
1.58567	6
1.58933	6
1.59300	4
1.59667	3
1.60033	4
1.60400	7
1.60767	8
1.61133	8
1.61500	7
1.61867	6
1.62233	6
1.62600	7
1.62967	8
1.63333	9
1.63700	11
1.64067	12
1.64433	11
1.64800	12
1.65167	11
1.65533	13
1.65900	12
1.66267	11
1.66633	12
1.67000	12
1.67367	13
1.67733	15
1.68100	17
1.68467	19
1.68833	20
1.69200	20
1.69567	21
1.69933	22
1.70300	24
1.70667	26
1.71033	26
1.71400	27
1.71767	27
1.72133	26
1.72500	27
1.72867	30
1.73233	32
1.73600	30
1.73967	27
1.74333	26
1.74700	24
1.75067	23
1.75433	22
1.75800	24
1.76167	26
1.76533	29
1.76900	31
1.77267	31
1.77633	31
1.78000	32
1.78367	35
1.78733	37
1.79100	37
1.79467	37
1.79833	35
1.80200	33
1.80567	35
1.80933	36
1.81300	35
1.81667	38
1.82033	40
1.82400	40
1.82767	39
1.83133	40
1.83500	40
1.83867	41
1.84233	42
1.84600	41
1.84967	42
1.85333	43
1.85700	43
1.86067	43
1.86433	42
1.86800	42
1.87167	41
1.87533	43
1.87900	44
1.88267	46
1.88633	50
1.89000	53
1.89367	55
1.89733	53
1.90100	52
1.90467	50
1.90833	49
1.91200	50
1.91567	52
1.91933	55
1.92300	58
1.92667	60
1.93033	60
1.93400	60
1.93767	62
1.94133	64
1.94500	62
1.94867	62
1.95233	64
1.95600	67
1.95967	68
1.96333	68
1.96700	70
1.97067	71
1.97433	72
1.97800	74
1.98167	75
1.98533	74
1.98900	76
1.99267	79
1.99633	81
2.00000	85
2.00367	87
2.00733	87
2.01100	89
2.01467	90
2.01833	89
2.02200	89
2.02567	89
2.02933	89
2.03300	91
2.03667	94
2.04033	97
2.04400	100
2.04767	102
2.05133	100
2.05500	99
2.05867	99
2.06233	103
2.06600	104
2.06967	104
2.07333	104
2.07700	106
2.08067	108
2.08433	108
2.08800	110
2.09167	111
2.09533	113
2.09900	115
2.10267	117
2.10633	118
2.11000	119
2.11367	120
2.11733	121
2.12100	121
2.12467	121
2.12833	123
2.13200	126
2.13567	128
2.13933	130
2.14300	132
2.14667	135
2.15033	138
2.15400	142
2.15767	143
2.16133	143
2.16500	144
2.16867	148
2.17233	152
2.17600	152
2.17967	152
2.18333	152
2.18700	153
2.19067	155
2.19433	155
2.19800	157
2.20167	159
2.20533	161
2.20900	163
2.21267	163
2.21633	163
2.22000	164
2.22367	164
2.22733	167
2.23100	170
2.23467	172
2.23833	173
2.24200	173
2.24567	173
2.24933	173
2.25300	174
2.25667	177
2.26033	179
2.26400	180
2.26767	182
2.27133	185
2.27500	188
2.27867	190
2.28233	190
2.28600	189
2.28967	188
2.29333	189
2.29700	191
2.30067	194
2.30433	195
2.30800	198
2.31167	202
2.31533	205
2.31900	209
2.32267	211
2.32633	212
2.33000	212
2.33367	212
2.33733	211
2.34100	211
2.34467	213
2.34833	214
2.35200	218
2.35567	221
2.35933	222
2.36300	221
2.36667	220
2.37033	222
2.37400	224
2.37767	225
2.38133	226
2.38500	226
2.38867	225
2.39233	224
2.39600	226
2.39967	228
2.40333	232
2.40700	236
2.41067	240
2.41433	243
2.41800	246
2.42167	246
2.42533	250
2.42900	253
2.43267	252
2.43633	252
2.44000	256
2.44367	318
2.44733	482
2.45100	662
2.45467	810
2.45833	891
2.46200	894
2.46567	845
2.46933	781
2.47300	720
2.47667	671
2.48033	635
2.48400	597
2.48767	549
2.49133	495
2.49500	443
2.49867	400
2.50233	369
2.50600	351
2.50967	343
2.51333	345
2.51700	360
2.52067	382
2.52433	405
2.52800	420
2.53167	422
2.53533	410
2.53900	385
2.54267	352
2.54633	318
2.55000	285
2.55367	256
2.55733	232
2.56100	214
2.56467	200
2.56833	189
2.57200	181
2.57567	176
2.57933	174
2.58300	172
2.58667	174
2.59033	176
2.59400	178
2.59767	182
2.60133	184
2.60500	183
2.60867	178
2.61233	171
2.61600	164
2.61967	156
2.62333	148
2.62700	141
2.63067	132
2.63433	124
2.63800	115
2.64167	104
2.64533	93
2.64900	82
2.65267	72
2.65633	61
2.66000	48
2.66367	35
2.66733	22
2.67100	9
2.67467	-3
2.67833	-10
2.68200	-15
2.68567	-19
2.68933	-20
2.69300	-19
2.69667	-19
2.70033	-18
2.70400	-14
2.70767	-9
2.71133	-4
2.71500	0
2.71867	4
2.72233	7
2.72600	8
2.72967	11
2.73333	16
2.73700	21
2.74067	25
2.74433	29
2.74800	33
2.75167	37
2.75533	43
2.75900	48
2.76267	52
2.76633	55
2.77000	59
2.77367	62
2.77733	62
2.78100	65
2.78467	71
2.78833	77
2.79200	83
2.79567	88
2.79933	94
2.80300	99
2.80667	105
2.81033	109
2.81400	115
2.81767	125
2.82133	140
2.82500	159
2.82867	194
2.83233	260
2.83600	380
2.83967	572
2.84333	856
2.84700	1240
2.85067	1721
2.85433	2278
2.85800	2873
2.86167	3457
2.86533	3982
2.86900	4408
2.87267	4709
2.87633	4869
2.88000	4891
2.88367	4789
2.88733	4587
2.89100	4311
2.89467	3989
2.89833	3645
2.90200	3297
2.90567	2958
2.90933	2638
2.91300	2342
2.91667	2072
2.92033	1825
2.92400	1606
2.92767	1413
2.93133	1245
2.93500	1095
2.93867	961
2.94233	847
2.94600	747
2.94967	660
2.95333	585
2.95700	518
2.96067	460
2.96433	411
2.96800	368
2.97167	328
2.97533	296
2.97900	270
2.98267	248
2.98633	227
2.99000	209
2.99367	195
2.99733	181
3.00100	170
3.00467	161
3.00833	151
3.01200	141
3.01567	115
3.01933	60
3.02300	-3
3.02667	-32
3.03033	-23
3.03400	14
3.03767	70
3.04133	138
3.04500	209
3.04867	274
3.05233	333
3.05600	386
3.05967	433
3.06333	472
3.06700	504
3.07067	535
3.07433	560
3.07800	578
3.08167	595
3.08533	607
3.08900	615
3.09267	622
3.09633	630
3.10000	636
3.10367	639
3.10733	641
3.11100	646
3.11467	650
3.11833	655
3.12200	658
3.12567	661
3.12933	664
3.13300	667
3.13667	670
3.14033	672
3.14400	676
3.14767	681
3.15133	683
3.15500	685
3.15867	688
3.16233	689
3.16600	693
3.16967	699
3.17333	701
3.17700	703
3.18067	708
3.18433	712
3.18800	715
3.19167	720
3.19533	725
3.19900	726
3.20267	731
3.20633	738
3.21000	742
3.21367	747
3.21733	752
3.22100	762
3.22467	771
3.22833	778
3.23200	783
3.23567	791
3.23933	799
3.24300	805
3.24667	810
3.25033	815
3.25400	818
3.25767	823
3.26133	829
3.26500	833
3.26867	835
3.27233	838
3.27600	843
3.27967	846
3.28333	849
3.28700	853
3.29067	855
3.29433	856
3.29800	857
3.30167	857
3.30533	856
3.30900	856
3.31267	854
3.31633	851
3.32000	849
3.32367	848
3.32733	847
3.33100	847
3.33467	849
3.33833	850
3.34200	847
3.34567	842
3.34933	839
3.35300	834
3.35667	828
3.36033	824
3.36400	820
3.36767	815
3.37133	809
3.37500	804
3.37867	800
3.38233	796
3.38600	794
3.38967	789
3.39333	785
3.39700	782
3.40067	780
3.40433	778
3.40800	780
3.41167	778
3.41533	775
3.41900	773
3.42267	772
3.42633	771
3.43000	769
3.43367	765
3.43733	762
3.44100	759
3.44467	758
3.44833	755
3.45200	753
3.45567	754
3.45933	755
3.46300	755
3.46667	754
3.47033	752
3.47400	751
3.47767	751
3.48133	749
3.48500	747
3.48867	746
3.49233	746
3.49600	745
3.49967	744
3.50333	745
3.50700	744
3.51067	743
3.51433	742
3.51800	742
3.52167	742
3.52533	743
3.52900	742
3.53267	740
3.53633	740
3.54000	738
3.54367	736
3.54733	736
3.55100	736
3.55467	736
3.55833	736
3.56200	736
3.56567	737
3.56933	738
3.57300	736
3.57667	732
3.58033	731
3.58400	733
3.58767	731
3.59133	728
3.59500	729
3.59867	731
3.60233	730
3.60600	730
3.60967	731
3.61333	729
3.61700	726
3.62067	725
3.62433	723
3.62800	722
3.63167	720
3.63533	718
3.63900	717
3.64267	716
3.64633	715
3.65000	714
3.65367	711
3.65733	708
3.66100	706
3.66467	704
3.66833	702
3.67200	703
3.67567	706
3.67933	705
3.68300	702
3.68667	700
3.69033	697
3.69400	692
3.69767	688
3.70133	686
3.70500	685
3.70867	683
3.71233	683
3.71600	681
3.71967	677
3.72333	675
3.72700	674
3.73067	673
3.73433	671
3.73800	669
3.74167	665
3.74533	663
3.74900	663
3.75267	663
3.75633	660
3.76000	658
3.76367	656
3.76733	654
3.77100	653
3.77467	652
3.77833	651
3.78200	649
3.78567	647
3.78933	647
3.79300	645
3.79667	643
3.80033	641
3.80400	641
3.80767	640
3.81133	636
3.81500	634
3.81867	632
3.82233	629
3.82600	627
3.82967	625
3.83333	624
3.83700	623
3.84067	623
3.84433	622
3.84800	622
3.85167	621
3.85533	618
3.85900	616
3.86267	613
3.86633	611
3.87000	609
3.87367	607
3.87733	606
3.88100	607
3.88467	608
3.88833	610
3.89200	611
3.89567	610
3.89933	607
3.90300	604
3.90667	600
3.91033	598
3.91400	599
3.91767	599
3.92133	598
3.92500	596
3.92867	592
3.93233	588
3.93600	584
3.93967	581
3.94333	582
3.94700	584
3.95067	585
3.95433	584
3.95800	582
3.96167	580
3.96533	580
3.96900	578
3.97267	577
3.97633	575
3.98000	575
3.98367	576
3.98733	575
3.99100	573
3.99467	572
3.99833	570

[Status Trace (Column Oven Temperature)]
Interval(msec)	1000
# of Points	240
Start Time(min)	0.009
End Time(min)	3.993
Intensity Units	
Intensity Multiplier	1
R.Time (min)	Intensity
0.00947	35.03
0.02613	35.03
0.04280	35.03
0.05947	35.02
0.07613	35.02
0.09280	35.03
0.10947	35.03
0.12613	35.02
0.14280	35.03
0.15947	35.03
0.17613	35.04
0.19280	35.03
0.20947	35.04
0.22613	35.03
0.24280	35.03
0.25947	35.03
0.27613	35.03
0.29280	35.02
0.30947	35.02
0.32613	35.02
0.34280	35.02
0.35947	35.01
0.37613	35.00
0.39280	35.01
0.40947	35.00
0.42613	35.00
0.44280	34.99
0.45947	35.00
0.47613	35.01
0.49280	35.02
0.50947	35.02
0.52613	35.02
0.54280	35.02
0.55947	35.02
0.57613	35.00
0.59280	35.00
0.60947	35.00
0.62613	34.98
0.64280	34.98
0.65947	34.99
0.67613	34.99
0.69280	35.00
0.70947	35.01
0.72613	35.01
0.74280	35.02
0.75947	35.01
0.77613	35.01
0.79280	35.01
0.80947	35.01
0.82613	35.02
0.84280	35.01
0.85947	35.02
0.87613	35.01
0.89280	35.01
0.90947	35.00
0.92613	34.98
0.94280	34.97
0.95947	34.98
0.97613	34.99
0.99280	35.00
1.00947	35.00
1.02613	35.02
1.04280	35.02
1.05947	35.01
1.07613	35.01
1.09280	35.01
1.10947	35.00
1.12613	35.00
1.14280	34.99
1.15947	34.98
1.17613	34.97
1.19280	34.97
1.20947	34.98
1.22613	34.98
1.24280	34.98
1.25947	34.98
1.27613	34.98
1.29280	34.99
1.30947	34.98
1.32613	34.99
1.34280	35.01
1.35947	35.02
1.37613	35.03
1.39280	35.04
1.40947	35.04
1.42613	35.04
1.44280	35.04
1.45947	35.03
1.47613	35.02
1.49280	35.01
1.50947	35.00
1.52613	35.00
1.54280	35.00
1.55947	35.00
1.57613	35.01
1.59280	35.03
1.60947	35.10
1.62613	35.23
1.64280	35.42
1.65947	35.66
1.67613	35.99
1.69280	36.37
1.70947	36.73
1.72613	37.05
1.74280	37.36
1.75947	37.69
1.77613	38.02
1.79280	38.37
1.80947	38.70
1.82613	39.04
1.84280	39.37
1.85947	39.70
1.87613	40.03
1.89280	40.37
1.90947	40.70
1.92613	41.02
1.94280	41.35
1.95947	41.68
1.97613	42.00
1.99280	42.32
2.00947	42.66
2.02613	42.98
2.04280	43.29
2.05947	43.63
2.07613	43.94
2.09280	44.27
2.10947	44.60
2.12613	44.93
2.14280	45.26
2.15947	45.58
2.17613	45.91
2.19280	46.24
2.20947	46.55
2.22613	46.90
2.24280	47.20
2.25947	47.53
2.27613	47.87
2.29280	48.17
2.30947	48.53
2.32613	48.91
2.34280	49.20
2.35947	49.47
2.37613	49.61
2.39280	49.64
2.40947	49.64
2.42613	49.63
2.44280	49.63
2.45947	49.66
2.47613	49.67
2.49280	49.68
2.50947	49.69
2.52613	49.69
2.54280	49.70
2.55947	49.73
2.57613	49.74
2.59280	49.77
2.60947	49.78
2.62613	49.79
2.64280	49.81
2.65947	49.84
2.67613	49.84
2.69280	49.85
2.70947	49.86
2.72613	49.86
2.74280	49.85
2.75947	49.85
2.77613	49.88
2.79280	49.89
2.80947	49.90
2.82613	49.89
2.84280	49.89
2.85947	49.90
2.87613	49.90
2.89280	49.91
2.90947	49.90
2.92613	49.91
2.94280	49.91
2.95947	49.93
2.97613	49.94
2.99280	49.96
3.00947	49.97
3.02613	49.97
3.04280	49.99
3.05947	49.99
3.07613	49.99
3.09280	50.01
3.10947	50.02
3.12613	50.03
3.14280	50.04
3.15947	50.06
3.17613	50.07
3.19280	50.08
3.20947	50.08
3.22613	50.08
3.24280	50.07
3.25947	50.08
3.27613	50.08
3.29280	50.08
3.30947	50.10
3.32613	50.10
3.34280	50.10
3.35947	50.10
3.37613	50.09
3.39280	50.10
3.40947	50.10
3.42613	50.11
3.44280	50.10
3.45947	50.09
3.47613	50.09
3.49280	50.07
3.50947	50.07
3.52613	50.05
3.54280	50.04
3.55947	50.04
3.57613	50.03
3.59280	50.03
3.60947	50.03
3.62613	50.02
3.64280	50.03
3.65947	50.04
3.67613	50.05
3.69280	50.06
3.70947	50.06
3.72613	50.06
3.74280	50.07
3.75947	50.07
3.77613	50.07
3.79280	50.07
3.80947	50.07
3.82613	50.06
3.84280	50.05
3.85947	50.04
3.87613	50.05
3.89280	50.05
3.90947	50.05
3.92613	50.04
3.94280	50.04
3.95947	50.04
3.97613	50.05
3.99280	50.05

[Status Trace (Injection Unit Temperature)]
Interval(msec)	1000
# of Points	240
Start Time(min)	0.009
End Time(min)	3.993
Intensity Units	
Intensity Multiplier	1
R.Time (min)	Intensity
0.00947	99.98
0.02613	99.98
0.04280	99.98
0.05947	99.98
0.07613	99.98
0.09280	99.98
0.10947	99.98
0.12613	99.98
0.14280	99.98
0.15947	99.98
0.17613	99.98
0.19280	99.98
0.20947	99.98
0.22613	99.98
0.24280	99.99
0.25947	99.98
0.27613	99.98
0.29280	99.98
0.30947	99.99
0.32613	99.98
0.34280	99.98
0.35947	99.98
0.37613	99.98
0.39280	99.98
0.40947	99.98
0.42613	99.98
0.44280	99.98
0.45947	99.98
0.47613	99.98
0.49280	99.98
0.50947	99.98
0.52613	99.98
0.54280	99.98
0.55947	99.98
0.57613	99.98
0.59280	99.98
0.60947	99.98
0.62613	99.98
0.64280	99.98
0.65947	99.98
0.67613	99.98
0.69280	99.98
0.70947	99.98
0.72613	99.98
0.74280	99.98
0.75947	99.98
0.77613	99.98
0.79280	99.98
0.80947	99.98
0.82613	99.98
0.84280	99.98
0.85947	99.98
0.87613	99.98
0.89280	99.98
0.90947	99.98
0.92613	99.98
0.94280	99.98
0.95947	99.98
0.97613	99.98
0.99280	99.98
1.00947	99.99
1.02613	99.98
1.04280	99.98
1.05947	99.98
1.07613	99.98
1.09280	99.98
1.10947	99.98
1.12613	99.98
1.14280	99.98
1.15947	99.98
1.17613	99.99
1.19280	99.98
1.20947	99.98
1.22613	99.99
1.24280	99.99
1.25947	99.99
1.27613	99.99
1.29280	99.99
1.30947	99.99
1.32613	99.99
1.34280	99.99
1.35947	99.99
1.37613	99.99
1.39280	99.99
1.40947	99.99
1.42613	99.99
1.44280	99.99
1.45947	100.00
1.47613	99.99
1.49280	99.99
1.50947	99.99
1.52613	99.99
1.54280	99.99
1.55947	99.99
1.57613	99.99
1.59280	99.99
1.60947	99.99
1.62613	99.99
1.64280	99.99
1.65947	99.99
1.67613	99.98
1.69280	99.99
1.70947	99.99
1.72613	99.99
1.74280	99.99
1.75947	99.99
1.77613	99.99
1.79280	99.99
1.80947	99.99
1.82613	99.99
1.84280	99.98
1.85947	99.99
1.87613	99.98
1.89280	99.98
1.90947	99.98
1.92613	99.98
1.94280	99.98
1.95947	99.98
1.97613	99.98
1.99280	99.98
2.00947	99.98
2.02613	99.98
2.04280	99.98
2.05947	99.98
2.07613	99.98
2.09280	99.97
2.10947	99.98
2.12613	99.97
2.14280	99.97
2.15947	99.97
2.17613	99.97
2.19280	99.97
2.20947	99.97
2.22613	99.97
2.24280	99.97
2.25947	99.97
2.27613	99.97
2.29280	99.97
2.30947	99.97
2.32613	99.97
2.34280	99.97
2.35947	99.97
2.37613	99.97
2.39280	99.97
2.40947	99.97
2.42613	99.97
2.44280	99.98
2.45947	99.98
2.47613	99.97
2.49280	99.97
2.50947	99.98
2.52613	99.98
2.54280	99.98
2.55947	99.98
2.57613	99.98
2.59280	99.98
2.60947	99.98
2.62613	99.98
2.64280	99.98
2.65947	99.99
2.67613	99.99
2.69280	99.99
2.70947	99.99
2.72613	99.99
2.74280	99.99
2.75947	99.99
2.77613	100.00
2.79280	100.00
2.80947	100.00
2.82613	100.00
2.84280	100.00
2.85947	100.00
2.87613	100.01
2.89280	100.01
2.90947	100.01
2.92613	100.01
2.94280	100.01
2.95947	100.01
2.97613	100.01
2.99280	100.01
3.00947	100.01
3.02613	100.02
3.04280	100.02
3.05947	100.02
3.07613	100.02
3.09280	100.02
3.10947	100.02
3.12613	100.02
3.14280	100.02
3.15947	100.02
3.17613	100.02
3.19280	100.03
3.20947	100.02
3.22613	100.02
3.24280	100.03
3.25947	100.03
3.27613	100.03
3.29280	100.03
3.30947	100.03
3.32613	100.04
3.34280	100.03
3.35947	100.03
3.37613	100.03
3.39280	100.04
3.40947	100.03
3.42613	100.03
3.44280	100.04
3.45947	100.04
3.47613	100.04
3.49280	100.04
3.50947	100.04
3.52613	100.04
3.54280	100.04
3.55947	100.04
3.57613	100.04
3.59280	100.04
3.60947	100.04
3.62613	100.04
3.64280	100.04
3.65947	100.04
3.67613	100.04
3.69280	100.04
3.70947	100.04
3.72613	100.04
3.74280	100.04
3.75947	100.04
3.77613	100.04
3.79280	100.04
3.80947	100.04
3.82613	100.04
3.84280	100.04
3.85947	100.04
3.87613	100.04
3.89280	100.04
3.90947	100.04
3.92613	100.04
3.94280	100.04
3.95947	100.04
3.97613	100.04
3.99280	100.04

[Status Trace (Carrier Gas Pressure)]
Interval(msec)	1000
# of Points	240
Start Time(min)	0.009
End Time(min)	3.993
Intensity Units	
Intensity Multiplier	1
R.Time (min)	Intensity
0.00947	58.00
0.02613	55.20
0.04280	57.38
0.05947	59.41
0.07613	59.22
0.09280	58.02
0.10947	57.98
0.12613	58.01
0.14280	58.01
0.15947	58.01
0.17613	58.00
0.19280	58.00
0.20947	58.00
0.22613	58.00
0.24280	58.00
0.25947	58.00
0.27613	58.00
0.29280	58.00
0.30947	58.00
0.32613	58.00
0.34280	58.00
0.35947	58.00
0.37613	58.00
0.39280	58.00
0.40947	58.00
0.42613	58.00
0.44280	58.00
0.45947	58.00
0.47613	58.00
0.49280	58.00
0.50947	58.00
0.52613	58.00
0.54280	58.00
0.55947	58.00
0.57613	58.00
0.59280	58.00
0.60947	58.00
0.62613	58.00
0.64280	58.00
0.65947	58.00
0.67613	58.00
0.69280	58.00
0.70947	58.00
0.72613	58.00
0.74280	58.00
0.75947	58.00
0.77613	58.00
0.79280	58.00
0.80947	58.00
0.82613	58.00
0.84280	58.00
0.85947	58.00
0.87613	58.00
0.89280	58.00
0.90947	58.00
0.92613	58.00
0.94280	58.00
0.95947	58.00
0.97613	58.00
0.99280	58.00
1.00947	58.00
1.02613	58.00
1.04280	58.00
1.05947	58.00
1.07613	58.00
1.09280	58.00
1.10947	58.00
1.12613	58.00
1.14280	58.00
1.15947	58.00
1.17613	58.00
1.19280	58.00
1.20947	58.00
1.22613	58.00
1.24280	58.00
1.25947	58.00
1.27613	58.00
1.29280	58.00
1.30947	58.00
1.32613	58.00
1.34280	58.00
1.35947	58.00
1.37613	58.00
1.39280	58.00
1.40947	58.00
1.42613	58.00
1.44280	58.00
1.45947	58.00
1.47613	58.00
1.49280	58.00
1.50947	58.00
1.52613	58.00
1.54280	58.00
1.55947	58.00
1.57613	58.00
1.59280	58.00
1.60947	58.00
1.62613	58.00
1.64280	58.00
1.65947	58.00
1.67613	58.01
1.69280	58.01
1.70947	58.00
1.72613	58.00
1.74280	58.00
1.75947	58.00
1.77613	58.00
1.79280	58.00
1.80947	58.00
1.82613	58.00
1.84280	58.00
1.85947	58.00
1.87613	58.00
1.89280	58.00
1.90947	58.00
1.92613	58.00
1.94280	58.00
1.95947	58.00
1.97613	58.00
1.99280	58.00
2.00947	58.00
2.02613	58.00
2.04280	58.00
2.05947	58.00
2.07613	58.00
2.09280	58.00
2.10947	58.00
2.12613	58.00
2.14280	58.00
2.15947	58.00
2.17613	58.00
2.19280	58.00
2.20947	58.00
2.22613	58.00
2.24280	58.00
2.25947	58.00
2.27613	58.00
2.29280	58.00
2.30947	58.00
2.32613	58.00
2.34280	58.00
2.35947	58.00
2.37613	58.00
2.39280	57.99
2.40947	58.00
2.42613	58.00
2.44280	58.00
2.45947	58.00
2.47613	58.00
2.49280	58.00
2.50947	57.99
2.52613	57.98
2.54280	58.00
2.55947	58.00
2.57613	58.00
2.59280	58.00
2.60947	58.00
2.62613	58.00
2.64280	58.00
2.65947	58.00
2.67613	58.00
2.69280	58.00
2.70947	58.00
2.72613	58.00
2.74280	58.00
2.75947	58.00
2.77613	58.00
2.79280	58.00
2.80947	58.00
2.82613	58.00
2.84280	58.00
2.85947	58.00
2.87613	58.00
2.89280	58.00
2.90947	58.00
2.92613	58.00
2.94280	58.00
2.95947	58.00
2.97613	58.00
2.99280	58.00
3.00947	58.00
3.02613	58.00
3.04280	58.00
3.05947	58.00
3.07613	58.00
3.09280	58.00
3.10947	58.00
3.12613	58.00
3.14280	58.00
3.15947	58.00
3.17613	58.00
3.19280	58.00
3.20947	58.00
3.22613	58.00
3.24280	58.00
3.25947	58.00
3.27613	58.00
3.29280	58.00
3.30947	58.00
3.32613	58.00
3.34280	58.00
3.35947	58.00
3.37613	58.00
3.39280	58.00
3.40947	58.00
3.42613	58.00
3.44280	58.00
3.45947	58.00
3.47613	58.00
3.49280	58.00
3.50947	58.00
3.52613	58.00
3.54280	58.00
3.55947	58.00
3.57613	58.00
3.59280	58.00
3.60947	58.00
3.62613	58.00
3.64280	58.00
3.65947	58.00
3.67613	58.00
3.69280	58.00
3.70947	58.00
3.72613	58.00
3.74280	58.00
3.75947	58.00
3.77613	58.00
3.79280	58.00
3.80947	58.00
3.82613	58.00
3.84280	58.00
3.85947	58.00
3.87613	58.00
3.89280	58.00
3.90947	58.00
3.92613	58.00
3.94280	58.00
3.95947	58.00
3.97613	58.00
3.99280	58.00

[Status Trace (Carrier Gas Flow)]
Interval(msec)	1000
# of Points	240
Start Time(min)	0.009
End Time(min)	3.993
Intensity Units	
Intensity Multiplier	1
R.Time (min)	Intensity
0.00947	34.52
0.02613	34.54
0.04280	34.54
0.05947	34.55
0.07613	34.51
0.09280	34.52
0.10947	34.52
0.12613	34.52
0.14280	34.52
0.15947	34.52
0.17613	34.52
0.19280	34.53
0.20947	34.52
0.22613	34.51
0.24280	34.51
0.25947	34.52
0.27613	34.52
0.29280	34.52
0.30947	34.52
0.32613	34.52
0.34280	34.52
0.35947	34.52
0.37613	34.52
0.39280	34.52
0.40947	34.52
0.42613	34.52
0.44280	34.52
0.45947	34.52
0.47613	34.52
0.49280	34.52
0.50947	34.52
0.52613	34.52
0.54280	34.52
0.55947	34.51
0.57613	34.52
0.59280	34.52
0.60947	34.52
0.62613	34.52
0.64280	34.52
0.65947	34.52
0.67613	34.52
0.69280	34.52
0.70947	34.52
0.72613	34.52
0.74280	34.52
0.75947	34.52
0.77613	34.52
0.79280	34.52
0.80947	34.52
0.82613	34.52
0.84280	34.52
0.85947	34.51
0.87613	34.52
0.89280	34.52
0.90947	34.52
0.92613	34.53
0.94280	34.52
0.95947	34.52
0.97613	34.52
0.99280	34.52
1.00947	34.52
1.02613	34.52
1.04280	34.52
1.05947	34.52
1.07613	34.51
1.09280	34.51
1.10947	34.53
1.12613	34.52
1.14280	34.52
1.15947	34.52
1.17613	34.52
1.19280	34.52
1.20947	34.52
1.22613	34.52
1.24280	34.52
1.25947	34.52
1.27613	34.52
1.29280	34.52
1.30947	34.52
1.32613	34.52
1.34280	34.52
1.35947	34.52
1.37613	34.52
1.39280	34.52
1.40947	34.52
1.42613	34.52
1.44280	34.52
1.45947	34.52
1.47613	34.52
1.49280	34.52
1.50947	34.52
1.52613	34.52
1.54280	34.52
1.55947	34.52
1.57613	34.52
1.59280	34.52
1.60947	34.52
1.62613	34.52
1.64280	34.52
1.65947	34.52
1.67613	34.52
1.69280	34.52
1.70947	34.52
1.72613	34.52
1.74280	34.52
1.75947	34.52
1.77613	34.51
1.79280	34.52
1.80947	34.52
1.82613	34.52
1.84280	34.52
1.85947	34.51
1.87613	34.52
1.89280	34.52
1.90947	34.52
1.92613	34.52
1.94280	34.52
1.95947	34.52
1.97613	34.52
1.99280	34.52
2.00947	34.52
2.02613	34.52
2.04280	34.52
2.05947	34.52
2.07613	34.52
2.09280	34.52
2.10947	34.52
2.12613	34.52
2.14280	34.52
2.15947	34.52
2.17613	34.51
2.19280	34.52
2.20947	34.52
2.22613	34.52
2.24280	34.51
2.25947	34.51
2.27613	34.52
2.29280	34.52
2.30947	34.52
2.32613	34.52
2.34280	34.52
2.35947	34.52
2.37613	34.52
2.39280	34.52
2.40947	34.52
2.42613	34.52
2.44280	34.52
2.45947	34.52
2.47613	34.52
2.49280	34.52
2.50947	34.50
2.52613	34.52
2.54280	34.53
2.55947	34.51
2.57613	34.52
2.59280	34.52
2.60947	34.51
2.62613	34.52
2.64280	34.52
2.65947	34.52
2.67613	34.52
2.69280	34.52
2.70947	34.52
2.72613	34.52
2.74280	34.52
2.75947	34.51
2.77613	34.51
2.79280	34.52
2.80947	34.52
2.82613	34.52
2.84280	34.52
2.85947	34.52
2.87613	34.52
2.89280	34.52
2.90947	34.52
2.92613	34.52
2.94280	34.52
2.95947	34.52
2.97613	34.52
2.99280	34.52
3.00947	34.52
3.02613	34.52
3.04280	34.52
3.05947	34.52
3.07613	34.52
3.09280	34.52
3.10947	34.51
3.12613	34.52
3.14280	34.52
3.15947	34.52
3.17613	34.52
3.19280	34.52
3.20947	34.52
3.22613	34.52
3.24280	34.52
3.25947	34.52
3.27613	34.52
3.29280	34.52
3.30947	34.52
3.32613	34.52
3.34280	34.52
3.35947	34.52
3.37613	34.52
3.39280	34.52
3.40947	34.52
3.42613	34.52
3.44280	34.52
3.45947	34.52
3.47613	34.51
3.49280	34.52
3.50947	34.52
3.52613	34.52
3.54280	34.52
3.55947	34.52
3.57613	34.52
3.59280	34.52
3.60947	34.52
3.62613	34.52
3.64280	34.51
3.65947	34.52
3.67613	34.52
3.69280	34.52
3.70947	34.52
3.72613	34.52
3.74280	34.52
3.75947	34.52
3.77613	34.52
3.79280	34.52
3.80947	34.52
3.82613	34.52
3.84280	34.52
3.85947	34.52
3.87613	34.52
3.89280	34.52
3.90947	34.52
3.92613	34.52
3.94280	34.51
3.95947	34.52
3.97613	34.52
3.99280	34.53

[Status Trace (Column Flow)]
Interval(msec)	1000
# of Points	240
Start Time(min)	0.009
End Time(min)	3.993
Intensity Units	
Intensity Multiplier	1
R.Time (min)	Intensity
0.00947	5.55
0.02613	5.22
0.04280	5.48
0.05947	5.71
0.07613	5.69
0.09280	5.55
0.10947	5.55
0.12613	5.55
0.14280	5.55
0.15947	5.55
0.17613	5.55
0.19280	5.55
0.20947	5.55
0.22613	5.55
0.24280	5.55
0.25947	5.55
0.27613	5.55
0.29280	5.55
0.30947	5.55
0.32613	5.55
0.34280	5.55
0.35947	5.55
0.37613	5.55
0.39280	5.55
0.40947	5.55
0.42613	5.55
0.44280	5.55
0.45947	5.55
0.47613	5.55
0.49280	5.55
0.50947	5.55
0.52613	5.55
0.54280	5.55
0.55947	5.55
0.57613	5.55
0.59280	5.55
0.60947	5.55
0.62613	5.55
0.64280	5.55
0.65947	5.55
0.67613	5.55
0.69280	5.55
0.70947	5.55
0.72613	5.55
0.74280	5.55
0.75947	5.55
0.77613	5.55
0.79280	5.55
0.80947	5.55
0.82613	5.55
0.84280	5.55
0.85947	5.55
0.87613	5.55
0.89280	5.55
0.90947	5.55
0.92613	5.55
0.94280	5.55
0.95947	5.55
0.97613	5.55
0.99280	5.55
1.00947	5.55
1.02613	5.55
1.04280	5.55
1.05947	5.55
1.07613	5.55
1.09280	5.55
1.10947	5.55
1.12613	5.55
1.14280	5.55
1.15947	5.55
1.17613	5.55
1.19280	5.55
1.20947	5.55
1.22613	5.55
1.24280	5.55
1.25947	5.55
1.27613	5.55
1.29280	5.55
1.30947	5.55
1.32613	5.55
1.34280	5.55
1.35947	5.55
1.37613	5.55
1.39280	5.55
1.40947	5.55
1.42613	5.55
1.44280	5.55
1.45947	5.55
1.47613	5.55
1.49280	5.55
1.50947	5.55
1.52613	5.55
1.54280	5.55
1.55947	5.55
1.57613	5.55
1.59280	5.55
1.60947	5.55
1.62613	5.54
1.64280	5.54
1.65947	5.53
1.67613	5.52
1.69280	5.51
1.70947	5.49
1.72613	5.48
1.74280	5.47
1.75947	5.46
1.77613	5.45
1.79280	5.44
1.80947	5.43
1.82613	5.42
1.84280	5.41
1.85947	5.40
1.87613	5.39
1.89280	5.38
1.90947	5.37
1.92613	5.36
1.94280	5.35
1.95947	5.34
1.97613	5.33
1.99280	5.32
2.00947	5.31
2.02613	5.30
2.04280	5.30
2.05947	5.29
2.07613	5.28
2.09280	5.27
2.10947	5.26
2.12613	5.25
2.14280	5.24
2.15947	5.23
2.17613	5.22
2.19280	5.21
2.20947	5.20
2.22613	5.19
2.24280	5.18
2.25947	5.17
2.27613	5.16
2.29280	5.15
2.30947	5.14
2.32613	5.13
2.34280	5.13
2.35947	5.12
2.37613	5.11
2.39280	5.11
2.40947	5.11
2.42613	5.11
2.44280	5.11
2.45947	5.11
2.47613	5.11
2.49280	5.11
2.50947	5.11
2.52613	5.11
2.54280	5.11
2.55947	5.11
2.57613	5.11
2.59280	5.11
2.60947	5.11
2.62613	5.11
2.64280	5.11
2.65947	5.11
2.67613	5.11
2.69280	5.11
2.70947	5.11
2.72613	5.11
2.74280	5.11
2.75947	5.11
2.77613	5.11
2.79280	5.11
2.80947	5.11
2.82613	5.11
2.84280	5.11
2.85947	5.11
2.87613	5.11
2.89280	5.11
2.90947	5.11
2.92613	5.11
2.94280	5.11
2.95947	5.11
2.97613	5.10
2.99280	5.10
3.00947	5.10
3.02613	5.10
3.04280	5.10
3.05947	5.10
3.07613	5.10
3.09280	5.10
3.10947	5.10
3.12613	5.10
3.14280	5.10
3.15947	5.10
3.17613	5.10
3.19280	5.10
3.20947	5.10
3.22613	5.10
3.24280	5.10
3.25947	5.10
3.27613	5.10
3.29280	5.10
3.30947	5.10
3.32613	5.10
3.34280	5.10
3.35947	5.10
3.37613	5.10
3.39280	5.10
3.40947	5.10
3.42613	5.10
3.44280	5.10
3.45947	5.10
3.47613	5.10
3.49280	5.10
3.50947	5.10
3.52613	5.10
3.54280	5.10
3.55947	5.10
3.57613	5.10
3.59280	5.10
3.60947	5.10
3.62613	5.10
3.64280	5.10
3.65947	5.10
3.67613	5.10
3.69280	5.10
3.70947	5.10
3.72613	5.10
3.74280	5.10
3.75947	5.10
3.77613	5.10
3.79280	5.10
3.80947	5.10
3.82613	5.10
3.84280	5.10
3.85947	5.10
3.87613	5.10
3.89280	5.10
3.90947	5.10
3.92613	5.10
3.94280	5.10
3.95947	5.10
3.97613	5.10
3.99280	5.10

[Status Trace (Linear Velocity)]
Interval(msec)	1000
# of Points	240
Start Time(min)	0.009
End Time(min)	3.993
Intensity Units	
Intensity Multiplier	1
R.Time (min)	Intensity
0.00947	39.02
0.02613	37.18
0.04280	38.62
0.05947	39.94
0.07613	39.82
0.09280	39.04
0.10947	39.01
0.12613	39.03
0.14280	39.03
0.15947	39.02
0.17613	39.02
0.19280	39.02
0.20947	39.02
0.22613	39.02
0.24280	39.02
0.25947	39.02
0.27613	39.02
0.29280	39.02
0.30947	39.02
0.32613	39.02
0.34280	39.02
0.35947	39.02
0.37613	39.02
0.39280	39.02
0.40947	39.02
0.42613	39.02
0.44280	39.02
0.45947	39.02
0.47613	39.02
0.49280	39.02
0.50947	39.02
0.52613	39.02
0.54280	39.02
0.55947	39.02
0.57613	39.02
0.59280	39.02
0.60947	39.02
0.62613	39.02
0.64280	39.03
0.65947	39.02
0.67613	39.02
0.69280	39.02
0.70947	39.02
0.72613	39.02
0.74280	39.02
0.75947	39.02
0.77613	39.02
0.79280	39.02
0.80947	39.02
0.82613	39.02
0.84280	39.02
0.85947	39.02
0.87613	39.02
0.89280	39.02
0.90947	39.02
0.92613	39.02
0.94280	39.03
0.95947	39.03
0.97613	39.02
0.99280	39.02
1.00947	39.02
1.02613	39.02
1.04280	39.02
1.05947	39.02
1.07613	39.02
1.09280	39.02
1.10947	39.02
1.12613	39.02
1.14280	39.02
1.15947	39.03
1.17613	39.03
1.19280	39.03
1.20947	39.03
1.22613	39.02
1.24280	39.03
1.25947	39.02
1.27613	39.02
1.29280	39.02
1.30947	39.02
1.32613	39.02
1.34280	39.02
1.35947	39.02
1.37613	39.02
1.39280	39.02
1.40947	39.02
1.42613	39.02
1.44280	39.02
1.45947	39.02
1.47613	39.02
1.49280	39.02
1.50947	39.02
1.52613	39.02
1.54280	39.02
1.55947	39.02
1.57613	39.02
1.59280	39.02
1.60947	39.02
1.62613	39.00
1.64280	38.99
1.65947	38.96
1.67613	38.93
1.69280	38.89
1.70947	38.86
1.72613	38.83
1.74280	38.80
1.75947	38.77
1.77613	38.74
1.79280	38.70
1.80947	38.67
1.82613	38.64
1.84280	38.61
1.85947	38.58
1.87613	38.55
1.89280	38.51
1.90947	38.48
1.92613	38.45
1.94280	38.42
1.95947	38.39
1.97613	38.36
1.99280	38.33
2.00947	38.30
2.02613	38.27
2.04280	38.24
2.05947	38.21
2.07613	38.18
2.09280	38.15
2.10947	38.12
2.12613	38.09
2.14280	38.06
2.15947	38.03
2.17613	38.00
2.19280	37.97
2.20947	37.95
2.22613	37.92
2.24280	37.89
2.25947	37.86
2.27613	37.83
2.29280	37.80
2.30947	37.77
2.32613	37.74
2.34280	37.71
2.35947	37.68
2.37613	37.67
2.39280	37.67
2.40947	37.67
2.42613	37.67
2.44280	37.67
2.45947	37.67
2.47613	37.67
2.49280	37.67
2.50947	37.66
2.52613	37.65
2.54280	37.67
2.55947	37.66
2.57613	37.66
2.59280	37.66
2.60947	37.66
2.62613	37.66
2.64280	37.65
2.65947	37.65
2.67613	37.65
2.69280	37.65
2.70947	37.65
2.72613	37.65
2.74280	37.65
2.75947	37.65
2.77613	37.65
2.79280	37.65
2.80947	37.65
2.82613	37.65
2.84280	37.65
2.85947	37.65
2.87613	37.65
2.89280	37.65
2.90947	37.65
2.92613	37.65
2.94280	37.65
2.95947	37.65
2.97613	37.64
2.99280	37.64
3.00947	37.64
3.02613	37.64
3.04280	37.64
3.05947	37.64
3.07613	37.64
3.09280	37.64
3.10947	37.64
3.12613	37.64
3.14280	37.63
3.15947	37.63
3.17613	37.63
3.19280	37.63
3.20947	37.63
3.22613	37.63
3.24280	37.63
3.25947	37.63
3.27613	37.63
3.29280	37.63
3.30947	37.63
3.32613	37.63
3.34280	37.63
3.35947	37.63
3.37613	37.63
3.39280	37.63
3.40947	37.63
3.42613	37.63
3.44280	37.63
3.45947	37.63
3.47613	37.63
3.49280	37.63
3.50947	37.63
3.52613	37.63
3.54280	37.64
3.55947	37.63
3.57613	37.64
3.59280	37.64
3.60947	37.64
3.62613	37.64
3.64280	37.64
3.65947	37.64
3.67613	37.63
3.69280	37.63
3.70947	37.63
3.72613	37.63
3.74280	37.63
3.75947	37.63
3.77613	37.63
3.79280	37.63
3.80947	37.63
3.82613	37.63
3.84280	37.63
3.85947	37.63
3.87613	37.63
3.89280	37.63
3.90947	37.63
3.92613	37.64
3.94280	37.64
3.95947	37.64
3.97613	37.63
3.99280	37.63

