[Header]
Application Name	LabSolutions
Version	5.110
Data File Name	C:\Users\User\Desktop\GC Analyses\Jack\Nachusa Grasslands Sampling\T4 Timepoint July 12th\T4_07122022_025.gcd
Output Date	3/17/2023
Output Time	12:04:52 PM

[File Information]
Type	Data File
Generated	3/14/2023 6:06:18 PM
Generated by	System Administrator
Modified	3/14/2023 6:12:52 PM
Modified by	System Administrator

[Sample Information]
Operator Name	System Administrator
Acquired	3/14/2023 6:08:51 PM
Sample Type	0:Unknown
Level	0
Sample Name	025
Sample ID	025
ISTD Amount1	1
ISTD Amount2	1
ISTD Amount3	1
ISTD Amount4	1
ISTD Amount5	1
ISTD Amount6	1
ISTD Amount7	1
ISTD Amount8	1
ISTD Amount9	1
ISTD Amount10	1
ISTD Amount11	1
ISTD Amount12	1
ISTD Amount13	1
ISTD Amount14	1
ISTD Amount15	1
ISTD Amount16	1
ISTD Amount17	1
ISTD Amount18	1
ISTD Amount19	1
ISTD Amount20	1
ISTD Amount21	1
ISTD Amount22	1
ISTD Amount23	1
ISTD Amount24	1
ISTD Amount25	1
ISTD Amount26	1
ISTD Amount27	1
ISTD Amount28	1
ISTD Amount29	1
ISTD Amount30	1
ISTD Amount31	1
ISTD Amount32	1
Sample Amount	1
Dilution Factor	1
Vial#	24
Injection Volume	1
Injection Count	1
Bar Code	

[Original Files]
Data File	C:\Users\User\Desktop\GC Analyses\Jack\Nachusa Grasslands Sampling\T4 Timepoint July 12th\T4_07122022_025.gcd
Method File	C:\LabSolutions\Data\GHG_4min_2022\ghg3_togas_w_acet_4 min_new_int.gcm
Batch File	C:\LabSolutions\Data\AutoSamplerTesting\T4_07122022.gcb
Report Format File	c:\LabSolutions\System\DEFAULT.lsr

[File Description]


[Configuration]
Instrument Name	C0B7VH3-Instrument1
Instrument #	1
Line #	1
# of Detectors	3
Detector ID	DET#1	DET#2	DET#3
Detector Name	FID	PTCD	ECD
# of Channels	1	1	1

[Peak Table(Ch1)]
# of Peaks	3
Peak#	R.Time	I.Time	F.Time	Area	Height	A/H	Conc.	Mark	ID#	Name	k'	Plate #	Plate Ht.	Tailing	Resolution	Sep.Factor	Area Ratio	Height Ratio	Conc. %	Norm Conc.
1	1.476	1.435	1.534	23254	11454	2.030	164.178	   	1	CO	0.000	9700	15.464	1.289	0.000	0.000	0	0	11.566	11.566
2	1.571	1.538	1.630	3960	2022	1.958	76.575	   	2	CH4	0.065	11759	12.756	1.173	1.617	0.000	0	0	5.395	5.395
3	1.996	1.949	2.480	4696622	2246492	2.091	1178.725	   	3	CO2	0.353	17165	8.739	1.331	7.154	5.462	0	0	83.039	83.039

[Peak Table(Ch2)]
# of Peaks	0

[Peak Table(Ch3)]
# of Peaks	4
Peak#	R.Time	I.Time	F.Time	Area	Height	A/H	Conc.	Mark	ID#	Name	k'	Plate #	Plate Ht.	Tailing	Resolution	Sep.Factor	Area Ratio	Height Ratio	Conc. %	Norm Conc.
1	2.462	2.235	2.510	2955	686	4.308	0.000	   			0.000	7156	20.962	0.000	0.000	0.000	0	0	0.000	0.000
2	2.532	2.510	2.678	2058	419	4.912	0.000	 V 			0.028	3240	46.301	0.000	0.473	0.000	0	0	0.000	0.000
3	2.880	2.807	3.089	18351	4880	3.760	0.469	   	1	N2O	0.170	13289	11.288	1.531	2.507	6.000	0	0	100.000	100.000
4	3.430	3.294	3.995	11977	503	23.805	0.000	   	2	SF6	0.393	429	350.029	2.602	1.442	2.316	0	0	0.000	0.000

[Compound Results(Ch1)]
# of IDs	6
ID#	Name	R.Time	Area	Height	Conc.	Curve	3rd	2nd	1st	Constant	Area Ratio	Height Ratio	Conc. %	Norm Conc.
1	CO	1.476	23254	11454	164.178	Linear	0.000000e+00	0.000000e+00	1.416423e+002	0.000000e+00	0	0	11.566	11.566
2	CH4	1.571	3960	2022	76.575	Linear	0.000000e+00	0.000000e+00	5.171738e+001	0.000000e+00	0	0	5.395	5.395
3	CO2	1.996	4696622	2246492	1178.725	Linear	0.000000e+00	0.000000e+00	3.984494e+003	0.000000e+00	0	0	83.039	83.039
4	Ethylene	0.000	0	0	0.000	Linear	0.000000e+00	0.000000e+00	0.000000e+00	0.000000e+00	0	0	0.000	0.000
5	Acetylene	0.000	0	0	0.000	Linear	0.000000e+00	0.000000e+00	0.000000e+00	0.000000e+00	0	0	0.000	0.000
6	Ethane	0.000	0	0	0.000	Linear	0.000000e+00	0.000000e+00	0.000000e+00	0.000000e+00	0	0	0.000	0.000

[Compound Results(Ch2)]
# of IDs	5
ID#	Name	R.Time	Area	Height	Conc.	Curve	3rd	2nd	1st	Constant	Area Ratio	Height Ratio	Conc. %	Norm Conc.
1	Hydrogen	0.000	0	0	0.000	Linear	0.000000e+00	0.000000e+00	0.000000e+00	0.000000e+00	0	0	0.000	0.000
2	Oxygen	0.000	0	0	0.000	Linear	0.000000e+00	0.000000e+00	0.000000e+00	0.000000e+00	0	0	0.000	0.000
3	Nitrogen	0.000	0	0	0.000	Linear	0.000000e+00	0.000000e+00	0.000000e+00	0.000000e+00	0	0	0.000	0.000
4	Methane	0.000	0	0	0.000	Linear	0.000000e+00	0.000000e+00	0.000000e+00	0.000000e+00	0	0	0.000	0.000
5	Carbon Monoxide	0.000	0	0	0.000	Linear	0.000000e+00	0.000000e+00	0.000000e+00	0.000000e+00	0	0	0.000	0.000

[Compound Results(Ch3)]
# of IDs	2
ID#	Name	R.Time	Area	Height	Conc.	Curve	3rd	2nd	1st	Constant	Area Ratio	Height Ratio	Conc. %	Norm Conc.
1	N2O	2.880	18351	4880	0.469	Linear	0.000000e+00	0.000000e+00	3.915173e+004	0.000000e+00	0	0	100.000	100.000
2	SF6	3.430	11977	503	0.000	Linear	0.000000e+00	0.000000e+00	0.000000e+00	0.000000e+00	0	0	0.000	0.000

[Group Results(Ch1)]
# of Groups	0

[Group Results(Ch2)]
# of Groups	0

[Group Results(Ch3)]
# of Groups	0

[Chromatogram (Ch1)]
Interval(msec)	220
# of Points	1091
Start Time(min)	0.002
End Time(min)	3.998
R.Time (min)	Intensity
0.00167	14
0.00533	21
0.00900	24
0.01267	20
0.01633	14
0.02000	14
0.02367	21
0.02733	31
0.03100	34
0.03467	34
0.03833	30
0.04200	21
0.04567	14
0.04933	8
0.05300	8
0.05667	15
0.06033	23
0.06400	27
0.06767	26
0.07133	20
0.07500	17
0.07867	17
0.08233	17
0.08600	22
0.08967	28
0.09333	32
0.09700	35
0.10067	38
0.10433	39
0.10800	38
0.11167	39
0.11533	40
0.11900	35
0.12267	27
0.12633	19
0.13000	20
0.13367	22
0.13733	25
0.14100	33
0.14467	37
0.14833	37
0.15200	35
0.15567	32
0.15933	27
0.16300	22
0.16667	19
0.17033	21
0.17400	24
0.17767	24
0.18133	23
0.18500	26
0.18867	24
0.19233	19
0.19600	23
0.19967	24
0.20333	22
0.20700	19
0.21067	18
0.21433	21
0.21800	25
0.22167	22
0.22533	15
0.22900	13
0.23267	16
0.23633	18
0.24000	25
0.24367	31
0.24733	37
0.25100	41
0.25467	35
0.25833	33
0.26200	34
0.26567	30
0.26933	26
0.27300	23
0.27667	21
0.28033	20
0.28400	26
0.28767	31
0.29133	32
0.29500	37
0.29867	43
0.30233	46
0.30600	46
0.30967	51
0.31333	58
0.31700	56
0.32067	48
0.32433	42
0.32800	42
0.33167	45
0.33533	47
0.33900	48
0.34267	54
0.34633	60
0.35000	62
0.35367	60
0.35733	57
0.36100	57
0.36467	57
0.36833	58
0.37200	62
0.37567	67
0.37933	69
0.38300	70
0.38667	73
0.39033	80
0.39400	87
0.39767	90
0.40133	92
0.40500	96
0.40867	97
0.41233	92
0.41600	82
0.41967	71
0.42333	62
0.42700	58
0.43067	57
0.43433	58
0.43800	64
0.44167	74
0.44533	83
0.44900	84
0.45267	82
0.45633	79
0.46000	76
0.46367	67
0.46733	55
0.47100	43
0.47467	34
0.47833	32
0.48200	37
0.48567	42
0.48933	41
0.49300	36
0.49667	32
0.50033	33
0.50400	36
0.50767	38
0.51133	38
0.51500	37
0.51867	35
0.52233	31
0.52600	27
0.52967	27
0.53333	31
0.53700	35
0.54067	40
0.54433	39
0.54800	39
0.55167	40
0.55533	40
0.55900	36
0.56267	33
0.56633	33
0.57000	30
0.57367	24
0.57733	20
0.58100	20
0.58467	20
0.58833	18
0.59200	16
0.59567	21
0.59933	23
0.60300	23
0.60667	26
0.61033	31
0.61400	33
0.61767	30
0.62133	26
0.62500	26
0.62867	28
0.63233	27
0.63600	30
0.63967	32
0.64333	34
0.64700	36
0.65067	38
0.65433	38
0.65800	34
0.66167	28
0.66533	23
0.66900	21
0.67267	18
0.67633	15
0.68000	19
0.68367	31
0.68733	41
0.69100	43
0.69467	36
0.69833	24
0.70200	12
0.70567	3
0.70933	-1
0.71300	-3
0.71667	0
0.72033	4
0.72400	6
0.72767	8
0.73133	7
0.73500	8
0.73867	10
0.74233	16
0.74600	29
0.74967	43
0.75333	52
0.75700	53
0.76067	50
0.76433	44
0.76800	35
0.77167	26
0.77533	21
0.77900	18
0.78267	18
0.78633	19
0.79000	20
0.79367	22
0.79733	22
0.80100	24
0.80467	26
0.80833	27
0.81200	29
0.81567	28
0.81933	26
0.82300	23
0.82667	20
0.83033	14
0.83400	12
0.83767	19
0.84133	27
0.84500	32
0.84867	33
0.85233	31
0.85600	22
0.85967	8
0.86333	-4
0.86700	-5
0.87067	2
0.87433	10
0.87800	8
0.88167	-1
0.88533	-11
0.88900	-19
0.89267	-21
0.89633	-17
0.90000	-8
0.90367	0
0.90733	7
0.91100	14
0.91467	17
0.91833	18
0.92200	21
0.92567	22
0.92933	23
0.93300	16
0.93667	6
0.94033	-2
0.94400	-4
0.94767	2
0.95133	11
0.95500	15
0.95867	10
0.96233	5
0.96600	6
0.96967	13
0.97333	21
0.97700	21
0.98067	12
0.98433	2
0.98800	-6
0.99167	-12
0.99533	-16
0.99900	-21
1.00267	-22
1.00633	-22
1.01000	-19
1.01367	-15
1.01733	-16
1.02100	-20
1.02467	-24
1.02833	-19
1.03200	-8
1.03567	5
1.03933	11
1.04300	11
1.04667	11
1.05033	7
1.05400	-6
1.05767	-18
1.06133	-22
1.06500	-20
1.06867	-21
1.07233	-26
1.07600	-34
1.07967	-34
1.08333	-33
1.08700	-32
1.09067	-29
1.09433	-24
1.09800	-22
1.10167	-20
1.10533	-16
1.10900	-10
1.11267	-4
1.11633	-1
1.12000	-0
1.12367	-3
1.12733	-6
1.13100	-6
1.13467	-1
1.13833	4
1.14200	12
1.14567	19
1.14933	22
1.15300	21
1.15667	14
1.16033	11
1.16400	7
1.16767	3
1.17133	3
1.17500	8
1.17867	14
1.18233	18
1.18600	15
1.18967	5
1.19333	-4
1.19700	-15
1.20067	-25
1.20433	-27
1.20800	-27
1.21167	-23
1.21533	-20
1.21900	-23
1.22267	-24
1.22633	-17
1.23000	-7
1.23367	1
1.23733	1
1.24100	-3
1.24467	-9
1.24833	-14
1.25200	-13
1.25567	-8
1.25933	2
1.26300	14
1.26667	21
1.27033	21
1.27400	18
1.27767	17
1.28133	14
1.28500	9
1.28867	1
1.29233	-13
1.29600	-25
1.29967	-33
1.30333	-35
1.30700	-38
1.31067	-44
1.31433	-53
1.31800	-58
1.32167	-60
1.32533	-57
1.32900	-51
1.33267	-49
1.33633	-45
1.34000	-40
1.34367	-36
1.34733	-33
1.35100	-30
1.35467	-26
1.35833	-22
1.36200	-14
1.36567	-4
1.36933	5
1.37300	8
1.37667	2
1.38033	-11
1.38400	-22
1.38767	-30
1.39133	-33
1.39500	-26
1.39867	-15
1.40233	-12
1.40600	-12
1.40967	-11
1.41333	-6
1.41700	-4
1.42067	-5
1.42433	-11
1.42800	-13
1.43167	-9
1.43533	-6
1.43900	-4
1.44267	25
1.44633	139
1.45000	471
1.45367	1341
1.45733	3008
1.46100	5228
1.46467	7476
1.46833	9364
1.47200	10719
1.47567	11434
1.47933	11401
1.48300	10582
1.48667	9127
1.49033	7350
1.49400	5581
1.49767	4042
1.50133	2824
1.50500	1916
1.50867	1268
1.51233	815
1.51600	500
1.51967	285
1.52333	148
1.52700	59
1.53067	-1
1.53433	-40
1.53800	-54
1.54167	-22
1.54533	105
1.54900	370
1.55267	742
1.55633	1138
1.56000	1489
1.56367	1761
1.56733	1928
1.57100	1959
1.57467	1834
1.57833	1573
1.58200	1241
1.58567	914
1.58933	632
1.59300	408
1.59667	249
1.60033	145
1.60400	75
1.60767	28
1.61133	-2
1.61500	-26
1.61867	-42
1.62233	-53
1.62600	-67
1.62967	-81
1.63333	-90
1.63700	-93
1.64067	-91
1.64433	-90
1.64800	-91
1.65167	-90
1.65533	-81
1.65900	-69
1.66267	-63
1.66633	-64
1.67000	-64
1.67367	-62
1.67733	-63
1.68100	-69
1.68467	-73
1.68833	-73
1.69200	-67
1.69567	-58
1.69933	-54
1.70300	-57
1.70667	-64
1.71033	-74
1.71400	-80
1.71767	-77
1.72133	-73
1.72500	-68
1.72867	-62
1.73233	-58
1.73600	-58
1.73967	-51
1.74333	-39
1.74700	-31
1.75067	-34
1.75433	-44
1.75800	-47
1.76167	-46
1.76533	-44
1.76900	-43
1.77267	-40
1.77633	-40
1.78000	-41
1.78367	-38
1.78733	-32
1.79100	-29
1.79467	-33
1.79833	-39
1.80200	-47
1.80567	-52
1.80933	-57
1.81300	-57
1.81667	-55
1.82033	-58
1.82400	-54
1.82767	-48
1.83133	-43
1.83500	-40
1.83867	-44
1.84233	-48
1.84600	-48
1.84967	-43
1.85333	-39
1.85700	-36
1.86067	-37
1.86433	-41
1.86800	-48
1.87167	-54
1.87533	-55
1.87900	-53
1.88267	-50
1.88633	-43
1.89000	-37
1.89367	-35
1.89733	-35
1.90100	-37
1.90467	-41
1.90833	-41
1.91200	-31
1.91567	-23
1.91933	-19
1.92300	-20
1.92667	-22
1.93033	-22
1.93400	-24
1.93767	-26
1.94133	-27
1.94500	-24
1.94867	-17
1.95233	8
1.95600	191
1.95967	1421
1.96333	7951
1.96700	34114
1.97067	113736
1.97433	296333
1.97800	611826
1.98167	1031500
1.98533	1477108
1.98900	1863723
1.99267	2130412
1.99633	2246505
2.00000	2207057
2.00367	2031234
2.00733	1758148
2.01100	1437584
2.01467	1117316
2.01833	832229
2.02200	599720
2.02567	422237
2.02933	293179
2.03300	202480
2.03667	140160
2.04033	97912
2.04400	69443
2.04767	50253
2.05133	37242
2.05500	28323
2.05867	22119
2.06233	17719
2.06600	14530
2.06967	12166
2.07333	10372
2.07700	8983
2.08067	7883
2.08433	6999
2.08800	6280
2.09167	5686
2.09533	5183
2.09900	4748
2.10267	4368
2.10633	4034
2.11000	3744
2.11367	3485
2.11733	3258
2.12100	3067
2.12467	2896
2.12833	2732
2.13200	2581
2.13567	2447
2.13933	2328
2.14300	2220
2.14667	2119
2.15033	2027
2.15400	1943
2.15767	1862
2.16133	1785
2.16500	1713
2.16867	1643
2.17233	1581
2.17600	1524
2.17967	1470
2.18333	1417
2.18700	1366
2.19067	1326
2.19433	1291
2.19800	1256
2.20167	1216
2.20533	1174
2.20900	1138
2.21267	1109
2.21633	1084
2.22000	1060
2.22367	1033
2.22733	1004
2.23100	976
2.23467	952
2.23833	931
2.24200	910
2.24567	888
2.24933	866
2.25300	843
2.25667	815
2.26033	785
2.26400	759
2.26767	736
2.27133	718
2.27500	706
2.27867	699
2.28233	690
2.28600	685
2.28967	684
2.29333	682
2.29700	677
2.30067	666
2.30433	651
2.30800	633
2.31167	619
2.31533	607
2.31900	594
2.32267	581
2.32633	565
2.33000	551
2.33367	540
2.33733	533
2.34100	530
2.34467	532
2.34833	535
2.35200	530
2.35567	519
2.35933	505
2.36300	491
2.36667	478
2.37033	466
2.37400	458
2.37767	454
2.38133	455
2.38500	453
2.38867	450
2.39233	445
2.39600	441
2.39967	441
2.40333	443
2.40700	445
2.41067	443
2.41433	438
2.41800	435
2.42167	430
2.42533	422
2.42900	414
2.43267	409
2.43633	406
2.44000	404
2.44367	401
2.44733	394
2.45100	383
2.45467	371
2.45833	364
2.46200	360
2.46567	355
2.46933	346
2.47300	337
2.47667	329
2.48033	324
2.48400	319
2.48767	315
2.49133	317
2.49500	321
2.49867	325
2.50233	326
2.50600	324
2.50967	322
2.51333	320
2.51700	318
2.52067	318
2.52433	315
2.52800	313
2.53167	316
2.53533	323
2.53900	330
2.54267	337
2.54633	341
2.55000	335
2.55367	314
2.55733	287
2.56100	268
2.56467	255
2.56833	245
2.57200	236
2.57567	232
2.57933	232
2.58300	236
2.58667	240
2.59033	242
2.59400	243
2.59767	251
2.60133	264
2.60500	278
2.60867	292
2.61233	297
2.61600	292
2.61967	285
2.62333	277
2.62700	273
2.63067	273
2.63433	278
2.63800	280
2.64167	280
2.64533	279
2.64900	276
2.65267	274
2.65633	273
2.66000	276
2.66367	278
2.66733	277
2.67100	273
2.67467	269
2.67833	266
2.68200	267
2.68567	271
2.68933	272
2.69300	267
2.69667	266
2.70033	269
2.70400	275
2.70767	277
2.71133	277
2.71500	279
2.71867	284
2.72233	294
2.72600	302
2.72967	307
2.73333	303
2.73700	296
2.74067	286
2.74433	280
2.74800	274
2.75167	269
2.75533	260
2.75900	253
2.76267	247
2.76633	246
2.77000	245
2.77367	240
2.77733	237
2.78100	240
2.78467	243
2.78833	248
2.79200	259
2.79567	270
2.79933	273
2.80300	268
2.80667	262
2.81033	259
2.81400	255
2.81767	252
2.82133	249
2.82500	243
2.82867	246
2.83233	248
2.83600	247
2.83967	250
2.84333	255
2.84700	255
2.85067	251
2.85433	246
2.85800	239
2.86167	235
2.86533	235
2.86900	240
2.87267	248
2.87633	253
2.88000	253
2.88367	248
2.88733	239
2.89100	231
2.89467	226
2.89833	224
2.90200	222
2.90567	221
2.90933	221
2.91300	220
2.91667	224
2.92033	231
2.92400	240
2.92767	245
2.93133	243
2.93500	241
2.93867	239
2.94233	235
2.94600	229
2.94967	226
2.95333	229
2.95700	239
2.96067	248
2.96433	253
2.96800	255
2.97167	258
2.97533	257
2.97900	248
2.98267	236
2.98633	224
2.99000	218
2.99367	216
2.99733	219
3.00100	223
3.00467	223
3.00833	221
3.01200	222
3.01567	226
3.01933	228
3.02300	220
3.02667	221
3.03033	221
3.03400	217
3.03767	212
3.04133	208
3.04500	207
3.04867	205
3.05233	207
3.05600	214
3.05967	221
3.06333	224
3.06700	227
3.07067	229
3.07433	226
3.07800	222
3.08167	214
3.08533	208
3.08900	208
3.09267	206
3.09633	206
3.10000	206
3.10367	211
3.10733	223
3.11100	236
3.11467	242
3.11833	244
3.12200	241
3.12567	230
3.12933	211
3.13300	193
3.13667	184
3.14033	186
3.14400	193
3.14767	202
3.15133	208
3.15500	207
3.15867	201
3.16233	193
3.16600	193
3.16967	200
3.17333	201
3.17700	202
3.18067	205
3.18433	200
3.18800	201
3.19167	206
3.19533	210
3.19900	210
3.20267	209
3.20633	211
3.21000	206
3.21367	198
3.21733	195
3.22100	199
3.22467	205
3.22833	207
3.23200	207
3.23567	202
3.23933	195
3.24300	191
3.24667	185
3.25033	180
3.25400	178
3.25767	177
3.26133	174
3.26500	171
3.26867	174
3.27233	178
3.27600	182
3.27967	183
3.28333	188
3.28700	196
3.29067	203
3.29433	205
3.29800	206
3.30167	206
3.30533	206
3.30900	201
3.31267	193
3.31633	183
3.32000	174
3.32367	170
3.32733	170
3.33100	173
3.33467	175
3.33833	179
3.34200	186
3.34567	192
3.34933	198
3.35300	207
3.35667	215
3.36033	217
3.36400	210
3.36767	203
3.37133	195
3.37500	187
3.37867	186
3.38233	185
3.38600	180
3.38967	174
3.39333	172
3.39700	173
3.40067	171
3.40433	169
3.40800	166
3.41167	166
3.41533	168
3.41900	172
3.42267	173
3.42633	172
3.43000	172
3.43367	174
3.43733	180
3.44100	184
3.44467	186
3.44833	187
3.45200	186
3.45567	187
3.45933	187
3.46300	183
3.46667	178
3.47033	175
3.47400	172
3.47767	165
3.48133	159
3.48500	157
3.48867	156
3.49233	158
3.49600	161
3.49967	160
3.50333	158
3.50700	157
3.51067	153
3.51433	150
3.51800	145
3.52167	142
3.52533	138
3.52900	137
3.53267	139
3.53633	147
3.54000	155
3.54367	152
3.54733	146
3.55100	148
3.55467	153
3.55833	154
3.56200	153
3.56567	153
3.56933	153
3.57300	148
3.57667	147
3.58033	148
3.58400	147
3.58767	150
3.59133	158
3.59500	168
3.59867	172
3.60233	174
3.60600	172
3.60967	169
3.61333	162
3.61700	151
3.62067	144
3.62433	139
3.62800	136
3.63167	134
3.63533	131
3.63900	131
3.64267	129
3.64633	125
3.65000	122
3.65367	124
3.65733	130
3.66100	133
3.66467	130
3.66833	126
3.67200	123
3.67567	126
3.67933	134
3.68300	140
3.68667	142
3.69033	142
3.69400	140
3.69767	140
3.70133	141
3.70500	144
3.70867	147
3.71233	145
3.71600	139
3.71967	131
3.72333	125
3.72700	121
3.73067	117
3.73433	121
3.73800	129
3.74167	132
3.74533	126
3.74900	110
3.75267	105
3.75633	104
3.76000	106
3.76367	110
3.76733	121
3.77100	132
3.77467	134
3.77833	129
3.78200	123
3.78567	122
3.78933	127
3.79300	133
3.79667	131
3.80033	126
3.80400	124
3.80767	119
3.81133	121
3.81500	127
3.81867	134
3.82233	140
3.82600	139
3.82967	140
3.83333	135
3.83700	125
3.84067	112
3.84433	95
3.84800	80
3.85167	66
3.85533	57
3.85900	58
3.86267	64
3.86633	69
3.87000	69
3.87367	69
3.87733	74
3.88100	82
3.88467	90
3.88833	98
3.89200	105
3.89567	110
3.89933	111
3.90300	106
3.90667	107
3.91033	117
3.91400	127
3.91767	130
3.92133	129
3.92500	122
3.92867	113
3.93233	100
3.93600	82
3.93967	68
3.94333	64
3.94700	67
3.95067	73
3.95433	80
3.95800	84
3.96167	91
3.96533	92
3.96900	92
3.97267	91
3.97633	88
3.98000	93
3.98367	97
3.98733	96
3.99100	94
3.99467	90
3.99833	81

[Chromatogram (Ch2)]
Interval(msec)	220
# of Points	1091
Start Time(min)	0.002
End Time(min)	3.998
R.Time (min)	Intensity
0.00167	1
0.00533	1
0.00900	2
0.01267	2
0.01633	2
0.02000	2
0.02367	2
0.02733	2
0.03100	2
0.03467	2
0.03833	2
0.04200	3
0.04567	3
0.04933	3
0.05300	2
0.05667	2
0.06033	2
0.06400	2
0.06767	1
0.07133	1
0.07500	1
0.07867	1
0.08233	1
0.08600	1
0.08967	1
0.09333	1
0.09700	1
0.10067	1
0.10433	1
0.10800	1
0.11167	1
0.11533	1
0.11900	2
0.12267	2
0.12633	2
0.13000	2
0.13367	2
0.13733	2
0.14100	2
0.14467	2
0.14833	3
0.15200	2
0.15567	2
0.15933	2
0.16300	2
0.16667	1
0.17033	1
0.17400	0
0.17767	-0
0.18133	-1
0.18500	-1
0.18867	-1
0.19233	-2
0.19600	-2
0.19967	-2
0.20333	-2
0.20700	-2
0.21067	-2
0.21433	-2
0.21800	-1
0.22167	-1
0.22533	-1
0.22900	-0
0.23267	0
0.23633	1
0.24000	1
0.24367	1
0.24733	1
0.25100	1
0.25467	1
0.25833	1
0.26200	1
0.26567	1
0.26933	1
0.27300	1
0.27667	2
0.28033	2
0.28400	2
0.28767	2
0.29133	1
0.29500	1
0.29867	1
0.30233	2
0.30600	2
0.30967	3
0.31333	3
0.31700	4
0.32067	4
0.32433	4
0.32800	5
0.33167	4
0.33533	4
0.33900	4
0.34267	4
0.34633	4
0.35000	4
0.35367	3
0.35733	3
0.36100	3
0.36467	3
0.36833	2
0.37200	2
0.37567	2
0.37933	2
0.38300	2
0.38667	2
0.39033	2
0.39400	2
0.39767	2
0.40133	2
0.40500	2
0.40867	2
0.41233	2
0.41600	2
0.41967	2
0.42333	3
0.42700	3
0.43067	3
0.43433	3
0.43800	3
0.44167	3
0.44533	3
0.44900	2
0.45267	2
0.45633	2
0.46000	1
0.46367	1
0.46733	1
0.47100	1
0.47467	0
0.47833	0
0.48200	1
0.48567	1
0.48933	1
0.49300	2
0.49667	2
0.50033	2
0.50400	2
0.50767	1
0.51133	1
0.51500	1
0.51867	1
0.52233	1
0.52600	1
0.52967	2
0.53333	2
0.53700	2
0.54067	2
0.54433	2
0.54800	2
0.55167	2
0.55533	2
0.55900	3
0.56267	3
0.56633	3
0.57000	3
0.57367	4
0.57733	4
0.58100	4
0.58467	3
0.58833	3
0.59200	3
0.59567	2
0.59933	2
0.60300	2
0.60667	2
0.61033	1
0.61400	1
0.61767	1
0.62133	1
0.62500	0
0.62867	0
0.63233	0
0.63600	0
0.63967	-0
0.64333	-0
0.64700	-0
0.65067	-0
0.65433	-0
0.65800	-0
0.66167	-1
0.66533	-1
0.66900	-1
0.67267	-1
0.67633	-1
0.68000	-1
0.68367	-1
0.68733	-1
0.69100	-1
0.69467	-1
0.69833	-1
0.70200	-1
0.70567	-0
0.70933	-0
0.71300	-0
0.71667	-0
0.72033	0
0.72400	0
0.72767	0
0.73133	0
0.73500	0
0.73867	1
0.74233	1
0.74600	1
0.74967	1
0.75333	2
0.75700	2
0.76067	2
0.76433	2
0.76800	2
0.77167	3
0.77533	3
0.77900	3
0.78267	3
0.78633	3
0.79000	3
0.79367	2
0.79733	3
0.80100	3
0.80467	3
0.80833	3
0.81200	3
0.81567	3
0.81933	3
0.82300	3
0.82667	3
0.83033	2
0.83400	2
0.83767	2
0.84133	2
0.84500	2
0.84867	2
0.85233	2
0.85600	2
0.85967	2
0.86333	2
0.86700	2
0.87067	2
0.87433	2
0.87800	1
0.88167	1
0.88533	1
0.88900	2
0.89267	2
0.89633	2
0.90000	3
0.90367	3
0.90733	4
0.91100	4
0.91467	4
0.91833	4
0.92200	4
0.92567	4
0.92933	4
0.93300	4
0.93667	4
0.94033	4
0.94400	4
0.94767	4
0.95133	4
0.95500	3
0.95867	3
0.96233	3
0.96600	2
0.96967	1
0.97333	1
0.97700	0
0.98067	-0
0.98433	-1
0.98800	-1
0.99167	-1
0.99533	-2
0.99900	-2
1.00267	-2
1.00633	-1
1.01000	-1
1.01367	-0
1.01733	1
1.02100	1
1.02467	2
1.02833	2
1.03200	3
1.03567	3
1.03933	3
1.04300	3
1.04667	3
1.05033	3
1.05400	3
1.05767	3
1.06133	3
1.06500	2
1.06867	2
1.07233	1
1.07600	1
1.07967	1
1.08333	0
1.08700	-0
1.09067	-0
1.09433	-0
1.09800	-0
1.10167	0
1.10533	0
1.10900	0
1.11267	0
1.11633	0
1.12000	0
1.12367	1
1.12733	1
1.13100	1
1.13467	2
1.13833	2
1.14200	2
1.14567	2
1.14933	3
1.15300	3
1.15667	3
1.16033	2
1.16400	2
1.16767	2
1.17133	2
1.17500	2
1.17867	2
1.18233	2
1.18600	2
1.18967	2
1.19333	2
1.19700	2
1.20067	1
1.20433	1
1.20800	1
1.21167	0
1.21533	0
1.21900	-0
1.22267	-0
1.22633	-0
1.23000	-0
1.23367	0
1.23733	0
1.24100	1
1.24467	1
1.24833	1
1.25200	1
1.25567	2
1.25933	2
1.26300	2
1.26667	3
1.27033	3
1.27400	3
1.27767	4
1.28133	4
1.28500	4
1.28867	4
1.29233	4
1.29600	4
1.29967	4
1.30333	4
1.30700	4
1.31067	4
1.31433	4
1.31800	3
1.32167	3
1.32533	3
1.32900	2
1.33267	2
1.33633	2
1.34000	1
1.34367	1
1.34733	1
1.35100	1
1.35467	1
1.35833	1
1.36200	1
1.36567	1
1.36933	1
1.37300	1
1.37667	1
1.38033	0
1.38400	-0
1.38767	-1
1.39133	-1
1.39500	-1
1.39867	-2
1.40233	-2
1.40600	-2
1.40967	-3
1.41333	-3
1.41700	-3
1.42067	-3
1.42433	-3
1.42800	-3
1.43167	-3
1.43533	-3
1.43900	-2
1.44267	-2
1.44633	-1
1.45000	-2
1.45367	-2
1.45733	-2
1.46100	-2
1.46467	-2
1.46833	-2
1.47200	-2
1.47567	-2
1.47933	-1
1.48300	-1
1.48667	-1
1.49033	-1
1.49400	-2
1.49767	-2
1.50133	-2
1.50500	-2
1.50867	-2
1.51233	-2
1.51600	-1
1.51967	-1
1.52333	-0
1.52700	0
1.53067	1
1.53433	1
1.53800	2
1.54167	2
1.54533	2
1.54900	1
1.55267	1
1.55633	1
1.56000	1
1.56367	1
1.56733	1
1.57100	2
1.57467	2
1.57833	2
1.58200	2
1.58567	2
1.58933	1
1.59300	1
1.59667	1
1.60033	0
1.60400	-1
1.60767	-2
1.61133	-3
1.61500	-5
1.61867	-7
1.62233	-10
1.62600	-13
1.62967	-16
1.63333	-20
1.63700	-23
1.64067	-27
1.64433	-31
1.64800	-35
1.65167	-39
1.65533	-42
1.65900	-47
1.66267	-51
1.66633	-56
1.67000	-62
1.67367	-67
1.67733	-73
1.68100	-78
1.68467	-83
1.68833	-88
1.69200	-92
1.69567	-95
1.69933	-98
1.70300	-100
1.70667	-102
1.71033	-103
1.71400	-104
1.71767	-104
1.72133	-105
1.72500	-105
1.72867	-105
1.73233	-105
1.73600	-104
1.73967	-104
1.74333	-103
1.74700	-103
1.75067	-102
1.75433	-102
1.75800	-103
1.76167	-103
1.76533	-104
1.76900	-105
1.77267	-107
1.77633	-108
1.78000	-110
1.78367	-111
1.78733	-112
1.79100	-112
1.79467	-112
1.79833	-112
1.80200	-112
1.80567	-111
1.80933	-111
1.81300	-110
1.81667	-110
1.82033	-109
1.82400	-109
1.82767	-109
1.83133	-109
1.83500	-109
1.83867	-110
1.84233	-110
1.84600	-111
1.84967	-112
1.85333	-112
1.85700	-112
1.86067	-112
1.86433	-112
1.86800	-112
1.87167	-111
1.87533	-111
1.87900	-111
1.88267	-111
1.88633	-111
1.89000	-112
1.89367	-112
1.89733	-112
1.90100	-112
1.90467	-112
1.90833	-111
1.91200	-111
1.91567	-111
1.91933	-111
1.92300	-111
1.92667	-111
1.93033	-110
1.93400	-110
1.93767	-110
1.94133	-110
1.94500	-109
1.94867	-109
1.95233	-109
1.95600	-108
1.95967	-108
1.96333	-108
1.96700	-107
1.97067	-107
1.97433	-107
1.97800	-107
1.98167	-107
1.98533	-107
1.98900	-107
1.99267	-106
1.99633	-106
2.00000	-105
2.00367	-105
2.00733	-104
2.01100	-104
2.01467	-104
2.01833	-103
2.02200	-103
2.02567	-102
2.02933	-102
2.03300	-102
2.03667	-102
2.04033	-102
2.04400	-102
2.04767	-102
2.05133	-102
2.05500	-101
2.05867	-101
2.06233	-100
2.06600	-99
2.06967	-98
2.07333	-97
2.07700	-96
2.08067	-96
2.08433	-96
2.08800	-96
2.09167	-97
2.09533	-97
2.09900	-98
2.10267	-98
2.10633	-97
2.11000	-97
2.11367	-96
2.11733	-95
2.12100	-95
2.12467	-94
2.12833	-93
2.13200	-92
2.13567	-92
2.13933	-91
2.14300	-91
2.14667	-90
2.15033	-90
2.15400	-89
2.15767	-88
2.16133	-88
2.16500	-88
2.16867	-88
2.17233	-88
2.17600	-88
2.17967	-88
2.18333	-88
2.18700	-88
2.19067	-87
2.19433	-86
2.19800	-86
2.20167	-85
2.20533	-85
2.20900	-85
2.21267	-86
2.21633	-86
2.22000	-86
2.22367	-85
2.22733	-85
2.23100	-85
2.23467	-84
2.23833	-84
2.24200	-83
2.24567	-83
2.24933	-83
2.25300	-83
2.25667	-82
2.26033	-82
2.26400	-82
2.26767	-82
2.27133	-82
2.27500	-81
2.27867	-81
2.28233	-80
2.28600	-80
2.28967	-80
2.29333	-80
2.29700	-79
2.30067	-79
2.30433	-78
2.30800	-78
2.31167	-77
2.31533	-77
2.31900	-76
2.32267	-76
2.32633	-76
2.33000	-76
2.33367	-77
2.33733	-77
2.34100	-77
2.34467	-77
2.34833	-76
2.35200	-75
2.35567	-74
2.35933	-72
2.36300	-70
2.36667	-68
2.37033	-66
2.37400	-63
2.37767	-60
2.38133	-56
2.38500	-52
2.38867	-48
2.39233	-43
2.39600	-39
2.39967	-34
2.40333	-30
2.40700	-26
2.41067	-23
2.41433	-20
2.41800	-17
2.42167	-15
2.42533	-13
2.42900	-12
2.43267	-10
2.43633	-9
2.44000	-7
2.44367	-6
2.44733	-5
2.45100	-4
2.45467	-4
2.45833	-3
2.46200	-4
2.46567	-4
2.46933	-3
2.47300	-2
2.47667	-1
2.48033	-0
2.48400	1
2.48767	3
2.49133	4
2.49500	5
2.49867	5
2.50233	6
2.50600	7
2.50967	8
2.51333	8
2.51700	8
2.52067	9
2.52433	9
2.52800	10
2.53167	11
2.53533	11
2.53900	12
2.54267	13
2.54633	13
2.55000	14
2.55367	14
2.55733	15
2.56100	16
2.56467	17
2.56833	17
2.57200	18
2.57567	18
2.57933	18
2.58300	18
2.58667	18
2.59033	17
2.59400	17
2.59767	17
2.60133	17
2.60500	18
2.60867	18
2.61233	19
2.61600	20
2.61967	20
2.62333	21
2.62700	21
2.63067	21
2.63433	21
2.63800	21
2.64167	21
2.64533	21
2.64900	21
2.65267	21
2.65633	21
2.66000	22
2.66367	22
2.66733	23
2.67100	23
2.67467	24
2.67833	25
2.68200	25
2.68567	25
2.68933	26
2.69300	26
2.69667	26
2.70033	26
2.70400	26
2.70767	25
2.71133	25
2.71500	25
2.71867	25
2.72233	25
2.72600	26
2.72967	26
2.73333	26
2.73700	27
2.74067	27
2.74433	28
2.74800	28
2.75167	29
2.75533	29
2.75900	30
2.76267	30
2.76633	30
2.77000	30
2.77367	30
2.77733	30
2.78100	29
2.78467	28
2.78833	28
2.79200	27
2.79567	26
2.79933	26
2.80300	26
2.80667	25
2.81033	25
2.81400	25
2.81767	26
2.82133	26
2.82500	26
2.82867	26
2.83233	27
2.83600	27
2.83967	27
2.84333	26
2.84700	24
2.85067	21
2.85433	15
2.85800	7
2.86167	-5
2.86533	-20
2.86900	-40
2.87267	-64
2.87633	-92
2.88000	-125
2.88367	-162
2.88733	-203
2.89100	-247
2.89467	-295
2.89833	-345
2.90200	-397
2.90567	-451
2.90933	-506
2.91300	-562
2.91667	-617
2.92033	-673
2.92400	-727
2.92767	-780
2.93133	-832
2.93500	-884
2.93867	-940
2.94233	-999
2.94600	-1051
2.94967	-1085
2.95333	-1096
2.95700	-1080
2.96067	-1041
2.96433	-983
2.96800	-913
2.97167	-835
2.97533	-754
2.97900	-674
2.98267	-597
2.98633	-525
2.99000	-458
2.99367	-398
2.99733	-344
3.00100	-295
3.00467	-253
3.00833	-215
3.01200	-183
3.01567	-154
3.01933	-130
3.02300	-109
3.02667	-91
3.03033	-75
3.03400	-62
3.03767	-51
3.04133	-41
3.04500	-33
3.04867	-25
3.05233	-19
3.05600	-14
3.05967	-9
3.06333	-5
3.06700	-2
3.07067	1
3.07433	3
3.07800	5
3.08167	7
3.08533	9
3.08900	11
3.09267	12
3.09633	13
3.10000	14
3.10367	15
3.10733	15
3.11100	16
3.11467	17
3.11833	17
3.12200	18
3.12567	18
3.12933	18
3.13300	19
3.13667	19
3.14033	20
3.14400	20
3.14767	20
3.15133	20
3.15500	20
3.15867	21
3.16233	21
3.16600	21
3.16967	22
3.17333	22
3.17700	22
3.18067	23
3.18433	23
3.18800	23
3.19167	23
3.19533	23
3.19900	23
3.20267	24
3.20633	24
3.21000	24
3.21367	25
3.21733	25
3.22100	25
3.22467	26
3.22833	26
3.23200	27
3.23567	27
3.23933	28
3.24300	28
3.24667	28
3.25033	29
3.25400	29
3.25767	29
3.26133	29
3.26500	29
3.26867	29
3.27233	29
3.27600	29
3.27967	29
3.28333	29
3.28700	29
3.29067	28
3.29433	28
3.29800	28
3.30167	28
3.30533	28
3.30900	29
3.31267	29
3.31633	29
3.32000	29
3.32367	30
3.32733	30
3.33100	30
3.33467	30
3.33833	30
3.34200	30
3.34567	30
3.34933	29
3.35300	29
3.35667	29
3.36033	30
3.36400	30
3.36767	30
3.37133	30
3.37500	30
3.37867	31
3.38233	31
3.38600	31
3.38967	31
3.39333	31
3.39700	31
3.40067	31
3.40433	31
3.40800	31
3.41167	31
3.41533	31
3.41900	31
3.42267	31
3.42633	31
3.43000	31
3.43367	31
3.43733	31
3.44100	31
3.44467	30
3.44833	30
3.45200	30
3.45567	30
3.45933	30
3.46300	29
3.46667	29
3.47033	29
3.47400	29
3.47767	28
3.48133	28
3.48500	28
3.48867	28
3.49233	28
3.49600	28
3.49967	28
3.50333	29
3.50700	29
3.51067	29
3.51433	29
3.51800	29
3.52167	29
3.52533	29
3.52900	29
3.53267	29
3.53633	28
3.54000	28
3.54367	28
3.54733	28
3.55100	28
3.55467	28
3.55833	28
3.56200	28
3.56567	28
3.56933	28
3.57300	28
3.57667	28
3.58033	28
3.58400	28
3.58767	29
3.59133	29
3.59500	29
3.59867	29
3.60233	30
3.60600	30
3.60967	30
3.61333	30
3.61700	31
3.62067	31
3.62433	31
3.62800	31
3.63167	31
3.63533	31
3.63900	32
3.64267	32
3.64633	32
3.65000	32
3.65367	32
3.65733	31
3.66100	31
3.66467	31
3.66833	32
3.67200	32
3.67567	32
3.67933	32
3.68300	32
3.68667	32
3.69033	32
3.69400	32
3.69767	32
3.70133	32
3.70500	33
3.70867	33
3.71233	33
3.71600	33
3.71967	33
3.72333	33
3.72700	33
3.73067	32
3.73433	32
3.73800	31
3.74167	31
3.74533	31
3.74900	30
3.75267	30
3.75633	30
3.76000	29
3.76367	29
3.76733	29
3.77100	29
3.77467	29
3.77833	29
3.78200	29
3.78567	29
3.78933	29
3.79300	29
3.79667	29
3.80033	29
3.80400	29
3.80767	29
3.81133	29
3.81500	29
3.81867	29
3.82233	29
3.82600	29
3.82967	29
3.83333	30
3.83700	30
3.84067	30
3.84433	30
3.84800	30
3.85167	30
3.85533	30
3.85900	30
3.86267	30
3.86633	30
3.87000	30
3.87367	30
3.87733	31
3.88100	31
3.88467	31
3.88833	30
3.89200	30
3.89567	30
3.89933	30
3.90300	30
3.90667	29
3.91033	29
3.91400	29
3.91767	29
3.92133	29
3.92500	29
3.92867	29
3.93233	28
3.93600	28
3.93967	28
3.94333	28
3.94700	28
3.95067	28
3.95433	28
3.95800	28
3.96167	28
3.96533	29
3.96900	29
3.97267	29
3.97633	28
3.98000	28
3.98367	28
3.98733	29
3.99100	29
3.99467	29
3.99833	29

[Chromatogram (Ch3)]
Interval(msec)	220
# of Points	1091
Start Time(min)	0.002
End Time(min)	3.998
R.Time (min)	Intensity
0.00167	-1
0.00533	-1
0.00900	-1
0.01267	-3
0.01633	-6
0.02000	-6
0.02367	-4
0.02733	-2
0.03100	0
0.03467	1
0.03833	1
0.04200	2
0.04567	2
0.04933	0
0.05300	-2
0.05667	-4
0.06033	-4
0.06400	-4
0.06767	-2
0.07133	0
0.07500	2
0.07867	3
0.08233	5
0.08600	5
0.08967	4
0.09333	5
0.09700	4
0.10067	3
0.10433	2
0.10800	1
0.11167	1
0.11533	0
0.11900	-1
0.12267	-2
0.12633	-4
0.13000	-7
0.13367	-8
0.13733	-8
0.14100	-5
0.14467	1
0.14833	3
0.15200	3
0.15567	3
0.15933	4
0.16300	4
0.16667	5
0.17033	5
0.17400	4
0.17767	3
0.18133	2
0.18500	-0
0.18867	-2
0.19233	-3
0.19600	-4
0.19967	-2
0.20333	-2
0.20700	-1
0.21067	-1
0.21433	-2
0.21800	-1
0.22167	1
0.22533	1
0.22900	0
0.23267	1
0.23633	1
0.24000	-0
0.24367	-1
0.24733	1
0.25100	2
0.25467	1
0.25833	1
0.26200	2
0.26567	5
0.26933	7
0.27300	8
0.27667	7
0.28033	6
0.28400	7
0.28767	8
0.29133	9
0.29500	6
0.29867	4
0.30233	3
0.30600	2
0.30967	3
0.31333	3
0.31700	3
0.32067	2
0.32433	-0
0.32800	1
0.33167	1
0.33533	2
0.33900	2
0.34267	2
0.34633	2
0.35000	2
0.35367	1
0.35733	0
0.36100	-2
0.36467	-2
0.36833	-2
0.37200	-3
0.37567	-3
0.37933	-3
0.38300	-3
0.38667	-3
0.39033	-3
0.39400	-3
0.39767	-3
0.40133	-2
0.40500	-2
0.40867	-4
0.41233	-7
0.41600	-6
0.41967	-1
0.42333	2
0.42700	3
0.43067	4
0.43433	3
0.43800	3
0.44167	2
0.44533	1
0.44900	1
0.45267	2
0.45633	2
0.46000	2
0.46367	-0
0.46733	-2
0.47100	-0
0.47467	0
0.47833	0
0.48200	-1
0.48567	-1
0.48933	-1
0.49300	-1
0.49667	-0
0.50033	1
0.50400	2
0.50767	2
0.51133	1
0.51500	-1
0.51867	-1
0.52233	1
0.52600	1
0.52967	1
0.53333	1
0.53700	0
0.54067	-2
0.54433	-3
0.54800	-2
0.55167	-1
0.55533	-1
0.55900	-0
0.56267	1
0.56633	2
0.57000	2
0.57367	3
0.57733	4
0.58100	4
0.58467	3
0.58833	2
0.59200	0
0.59567	-2
0.59933	-2
0.60300	-1
0.60667	-1
0.61033	-1
0.61400	1
0.61767	4
0.62133	5
0.62500	7
0.62867	9
0.63233	9
0.63600	7
0.63967	6
0.64333	4
0.64700	3
0.65067	3
0.65433	4
0.65800	5
0.66167	4
0.66533	4
0.66900	3
0.67267	1
0.67633	0
0.68000	-0
0.68367	1
0.68733	0
0.69100	-1
0.69467	1
0.69833	4
0.70200	7
0.70567	8
0.70933	7
0.71300	7
0.71667	9
0.72033	9
0.72400	7
0.72767	5
0.73133	3
0.73500	2
0.73867	2
0.74233	2
0.74600	1
0.74967	2
0.75333	3
0.75700	6
0.76067	7
0.76433	7
0.76800	8
0.77167	8
0.77533	8
0.77900	8
0.78267	9
0.78633	10
0.79000	10
0.79367	8
0.79733	6
0.80100	6
0.80467	6
0.80833	7
0.81200	6
0.81567	7
0.81933	7
0.82300	7
0.82667	7
0.83033	7
0.83400	9
0.83767	11
0.84133	10
0.84500	13
0.84867	16
0.85233	15
0.85600	13
0.85967	12
0.86333	12
0.86700	11
0.87067	11
0.87433	11
0.87800	11
0.88167	11
0.88533	11
0.88900	11
0.89267	10
0.89633	9
0.90000	8
0.90367	10
0.90733	10
0.91100	8
0.91467	7
0.91833	6
0.92200	6
0.92567	9
0.92933	13
0.93300	16
0.93667	17
0.94033	14
0.94400	12
0.94767	12
0.95133	13
0.95500	14
0.95867	14
0.96233	14
0.96600	14
0.96967	16
0.97333	18
0.97700	19
0.98067	17
0.98433	14
0.98800	11
0.99167	10
0.99533	10
0.99900	11
1.00267	10
1.00633	10
1.01000	12
1.01367	12
1.01733	14
1.02100	15
1.02467	17
1.02833	17
1.03200	17
1.03567	15
1.03933	16
1.04300	15
1.04667	15
1.05033	16
1.05400	17
1.05767	14
1.06133	12
1.06500	12
1.06867	11
1.07233	9
1.07600	9
1.07967	8
1.08333	7
1.08700	7
1.09067	10
1.09433	12
1.09800	13
1.10167	13
1.10533	15
1.10900	17
1.11267	17
1.11633	14
1.12000	13
1.12367	10
1.12733	7
1.13100	2
1.13467	1
1.13833	-0
1.14200	1
1.14567	4
1.14933	6
1.15300	7
1.15667	6
1.16033	6
1.16400	7
1.16767	9
1.17133	10
1.17500	11
1.17867	12
1.18233	13
1.18600	11
1.18967	10
1.19333	11
1.19700	10
1.20067	9
1.20433	8
1.20800	6
1.21167	3
1.21533	4
1.21900	5
1.22267	6
1.22633	6
1.23000	5
1.23367	5
1.23733	5
1.24100	5
1.24467	5
1.24833	3
1.25200	6
1.25567	8
1.25933	9
1.26300	10
1.26667	11
1.27033	10
1.27400	10
1.27767	9
1.28133	5
1.28500	5
1.28867	5
1.29233	5
1.29600	6
1.29967	10
1.30333	11
1.30700	12
1.31067	12
1.31433	10
1.31800	11
1.32167	12
1.32533	13
1.32900	12
1.33267	12
1.33633	12
1.34000	12
1.34367	11
1.34733	10
1.35100	9
1.35467	9
1.35833	8
1.36200	9
1.36567	12
1.36933	14
1.37300	13
1.37667	13
1.38033	12
1.38400	11
1.38767	10
1.39133	12
1.39500	14
1.39867	14
1.40233	15
1.40600	15
1.40967	14
1.41333	12
1.41700	9
1.42067	8
1.42433	7
1.42800	6
1.43167	6
1.43533	6
1.43900	5
1.44267	3
1.44633	2
1.45000	1
1.45367	1
1.45733	2
1.46100	3
1.46467	4
1.46833	7
1.47200	8
1.47567	8
1.47933	9
1.48300	12
1.48667	13
1.49033	14
1.49400	13
1.49767	13
1.50133	15
1.50500	17
1.50867	19
1.51233	19
1.51600	16
1.51967	13
1.52333	12
1.52700	13
1.53067	15
1.53433	16
1.53800	18
1.54167	17
1.54533	16
1.54900	16
1.55267	16
1.55633	14
1.56000	14
1.56367	15
1.56733	14
1.57100	12
1.57467	11
1.57833	10
1.58200	10
1.58567	11
1.58933	10
1.59300	10
1.59667	10
1.60033	10
1.60400	11
1.60767	11
1.61133	14
1.61500	15
1.61867	16
1.62233	17
1.62600	15
1.62967	15
1.63333	15
1.63700	17
1.64067	17
1.64433	18
1.64800	18
1.65167	18
1.65533	20
1.65900	22
1.66267	23
1.66633	23
1.67000	23
1.67367	23
1.67733	22
1.68100	22
1.68467	21
1.68833	22
1.69200	22
1.69567	22
1.69933	24
1.70300	27
1.70667	29
1.71033	30
1.71400	30
1.71767	30
1.72133	31
1.72500	31
1.72867	30
1.73233	31
1.73600	32
1.73967	31
1.74333	31
1.74700	30
1.75067	29
1.75433	29
1.75800	30
1.76167	31
1.76533	33
1.76900	34
1.77267	36
1.77633	37
1.78000	37
1.78367	36
1.78733	34
1.79100	31
1.79467	29
1.79833	30
1.80200	35
1.80567	39
1.80933	41
1.81300	40
1.81667	38
1.82033	37
1.82400	36
1.82767	36
1.83133	37
1.83500	36
1.83867	35
1.84233	34
1.84600	35
1.84967	38
1.85333	41
1.85700	43
1.86067	45
1.86433	45
1.86800	45
1.87167	46
1.87533	46
1.87900	47
1.88267	47
1.88633	46
1.89000	46
1.89367	48
1.89733	49
1.90100	48
1.90467	47
1.90833	48
1.91200	51
1.91567	54
1.91933	54
1.92300	53
1.92667	55
1.93033	56
1.93400	56
1.93767	55
1.94133	53
1.94500	54
1.94867	58
1.95233	60
1.95600	61
1.95967	62
1.96333	63
1.96700	66
1.97067	68
1.97433	68
1.97800	68
1.98167	68
1.98533	69
1.98900	68
1.99267	69
1.99633	72
2.00000	74
2.00367	76
2.00733	78
2.01100	78
2.01467	79
2.01833	79
2.02200	79
2.02567	79
2.02933	81
2.03300	84
2.03667	84
2.04033	83
2.04400	83
2.04767	83
2.05133	84
2.05500	85
2.05867	87
2.06233	89
2.06600	91
2.06967	95
2.07333	98
2.07700	102
2.08067	103
2.08433	101
2.08800	99
2.09167	98
2.09533	100
2.09900	101
2.10267	102
2.10633	105
2.11000	107
2.11367	107
2.11733	108
2.12100	108
2.12467	109
2.12833	110
2.13200	112
2.13567	116
2.13933	120
2.14300	121
2.14667	123
2.15033	125
2.15400	125
2.15767	127
2.16133	129
2.16500	131
2.16867	132
2.17233	133
2.17600	134
2.17967	134
2.18333	135
2.18700	136
2.19067	137
2.19433	141
2.19800	143
2.20167	145
2.20533	147
2.20900	150
2.21267	152
2.21633	154
2.22000	154
2.22367	154
2.22733	155
2.23100	157
2.23467	155
2.23833	154
2.24200	154
2.24567	157
2.24933	160
2.25300	163
2.25667	166
2.26033	168
2.26400	170
2.26767	172
2.27133	174
2.27500	175
2.27867	175
2.28233	174
2.28600	175
2.28967	178
2.29333	180
2.29700	180
2.30067	182
2.30433	185
2.30800	185
2.31167	185
2.31533	188
2.31900	192
2.32267	194
2.32633	195
2.33000	196
2.33367	197
2.33733	200
2.34100	202
2.34467	203
2.34833	205
2.35200	206
2.35567	206
2.35933	206
2.36300	207
2.36667	209
2.37033	210
2.37400	211
2.37767	213
2.38133	216
2.38500	219
2.38867	219
2.39233	218
2.39600	220
2.39967	223
2.40333	227
2.40700	229
2.41067	233
2.41433	237
2.41800	239
2.42167	242
2.42533	244
2.42900	246
2.43267	246
2.43633	246
2.44000	249
2.44367	300
2.44733	436
2.45100	585
2.45467	705
2.45833	770
2.46200	774
2.46567	742
2.46933	704
2.47300	671
2.47667	650
2.48033	635
2.48400	613
2.48767	580
2.49133	538
2.49500	497
2.49867	463
2.50233	438
2.50600	423
2.50967	420
2.51333	425
2.51700	437
2.52067	454
2.52433	471
2.52800	484
2.53167	486
2.53533	475
2.53900	453
2.54267	426
2.54633	396
2.55000	370
2.55367	347
2.55733	328
2.56100	311
2.56467	298
2.56833	289
2.57200	283
2.57567	282
2.57933	282
2.58300	281
2.58667	280
2.59033	279
2.59400	278
2.59767	275
2.60133	269
2.60500	258
2.60867	242
2.61233	224
2.61600	206
2.61967	188
2.62333	170
2.62700	153
2.63067	137
2.63433	126
2.63800	115
2.64167	102
2.64533	90
2.64900	81
2.65267	73
2.65633	64
2.66000	55
2.66367	45
2.66733	37
2.67100	31
2.67467	27
2.67833	24
2.68200	20
2.68567	18
2.68933	18
2.69300	20
2.69667	25
2.70033	28
2.70400	31
2.70767	34
2.71133	41
2.71500	46
2.71867	51
2.72233	58
2.72600	63
2.72967	66
2.73333	70
2.73700	74
2.74067	76
2.74433	79
2.74800	83
2.75167	86
2.75533	88
2.75900	91
2.76267	96
2.76633	101
2.77000	105
2.77367	107
2.77733	109
2.78100	113
2.78467	117
2.78833	120
2.79200	125
2.79567	131
2.79933	137
2.80300	141
2.80667	143
2.81033	143
2.81400	147
2.81767	153
2.82133	162
2.82500	180
2.82867	216
2.83233	281
2.83600	396
2.83967	583
2.84333	866
2.84700	1253
2.85067	1740
2.85433	2302
2.85800	2906
2.86167	3506
2.86533	4052
2.86900	4501
2.87267	4816
2.87633	4987
2.88000	5018
2.88367	4921
2.88733	4720
2.89100	4445
2.89467	4125
2.89833	3778
2.90200	3425
2.90567	3079
2.90933	2751
2.91300	2448
2.91667	2170
2.92033	1918
2.92400	1691
2.92767	1492
2.93133	1318
2.93500	1166
2.93867	1031
2.94233	913
2.94600	810
2.94967	718
2.95333	637
2.95700	567
2.96067	508
2.96433	457
2.96800	413
2.97167	373
2.97533	339
2.97900	311
2.98267	286
2.98633	265
2.99000	246
2.99367	230
2.99733	215
3.00100	201
3.00467	191
3.00833	181
3.01200	174
3.01567	168
3.01933	161
3.02300	156
3.02667	152
3.03033	147
3.03400	142
3.03767	139
3.04133	139
3.04500	138
3.04867	138
3.05233	136
3.05600	134
3.05967	131
3.06333	129
3.06700	129
3.07067	128
3.07433	128
3.07800	126
3.08167	125
3.08533	124
3.08900	122
3.09267	120
3.09633	119
3.10000	118
3.10367	119
3.10733	121
3.11100	124
3.11467	126
3.11833	127
3.12200	124
3.12567	121
3.12933	121
3.13300	123
3.13667	124
3.14033	124
3.14400	123
3.14767	121
3.15133	121
3.15500	123
3.15867	126
3.16233	127
3.16600	126
3.16967	124
3.17333	124
3.17700	125
3.18067	128
3.18433	133
3.18800	135
3.19167	137
3.19533	138
3.19900	140
3.20267	142
3.20633	144
3.21000	147
3.21367	147
3.21733	147
3.22100	148
3.22467	145
3.22833	146
3.23200	148
3.23567	149
3.23933	149
3.24300	149
3.24667	151
3.25033	155
3.25400	159
3.25767	158
3.26133	157
3.26500	160
3.26867	162
3.27233	161
3.27600	163
3.27967	165
3.28333	166
3.28700	168
3.29067	169
3.29433	170
3.29800	179
3.30167	196
3.30533	222
3.30900	255
3.31267	292
3.31633	330
3.32000	368
3.32367	403
3.32733	435
3.33100	466
3.33467	495
3.33833	521
3.34200	542
3.34567	561
3.34933	579
3.35300	597
3.35667	612
3.36033	624
3.36400	636
3.36767	647
3.37133	658
3.37500	667
3.37867	678
3.38233	687
3.38600	693
3.38967	700
3.39333	706
3.39700	712
3.40067	718
3.40433	725
3.40800	731
3.41167	734
3.41533	738
3.41900	742
3.42267	745
3.42633	747
3.43000	750
3.43367	751
3.43733	753
3.44100	755
3.44467	756
3.44833	758
3.45200	757
3.45567	758
3.45933	759
3.46300	761
3.46667	761
3.47033	760
3.47400	757
3.47767	756
3.48133	754
3.48500	752
3.48867	750
3.49233	748
3.49600	744
3.49967	740
3.50333	737
3.50700	735
3.51067	732
3.51433	731
3.51800	729
3.52167	727
3.52533	724
3.52900	722
3.53267	720
3.53633	719
3.54000	718
3.54367	716
3.54733	714
3.55100	712
3.55467	711
3.55833	711
3.56200	709
3.56567	707
3.56933	705
3.57300	705
3.57667	706
3.58033	705
3.58400	705
3.58767	705
3.59133	705
3.59500	705
3.59867	703
3.60233	700
3.60600	699
3.60967	700
3.61333	700
3.61700	699
3.62067	697
3.62433	695
3.62800	695
3.63167	695
3.63533	695
3.63900	695
3.64267	694
3.64633	692
3.65000	694
3.65367	695
3.65733	698
3.66100	699
3.66467	699
3.66833	701
3.67200	699
3.67567	694
3.67933	691
3.68300	690
3.68667	688
3.69033	687
3.69400	688
3.69767	688
3.70133	690
3.70500	691
3.70867	690
3.71233	689
3.71600	686
3.71967	684
3.72333	683
3.72700	685
3.73067	685
3.73433	685
3.73800	685
3.74167	685
3.74533	683
3.74900	682
3.75267	681
3.75633	681
3.76000	679
3.76367	676
3.76733	675
3.77100	671
3.77467	668
3.77833	667
3.78200	667
3.78567	667
3.78933	667
3.79300	665
3.79667	662
3.80033	659
3.80400	658
3.80767	658
3.81133	656
3.81500	653
3.81867	652
3.82233	652
3.82600	650
3.82967	646
3.83333	642
3.83700	640
3.84067	637
3.84433	634
3.84800	634
3.85167	635
3.85533	634
3.85900	630
3.86267	626
3.86633	626
3.87000	625
3.87367	621
3.87733	618
3.88100	614
3.88467	613
3.88833	611
3.89200	609
3.89567	610
3.89933	608
3.90300	606
3.90667	605
3.91033	605
3.91400	602
3.91767	599
3.92133	597
3.92500	595
3.92867	595
3.93233	594
3.93600	591
3.93967	587
3.94333	586
3.94700	584
3.95067	582
3.95433	581
3.95800	578
3.96167	576
3.96533	575
3.96900	573
3.97267	569
3.97633	568
3.98000	568
3.98367	568
3.98733	567
3.99100	566
3.99467	564
3.99833	560

[Status Trace (Column Oven Temperature)]
Interval(msec)	1000
# of Points	239
Start Time(min)	0.016
End Time(min)	3.983
Intensity Units	
Intensity Multiplier	1
R.Time (min)	Intensity
0.01613	35.01
0.03280	35.01
0.04947	35.01
0.06613	35.02
0.08280	35.03
0.09947	35.04
0.11613	35.04
0.13280	35.03
0.14947	35.03
0.16613	35.04
0.18280	35.04
0.19947	35.06
0.21613	35.06
0.23280	35.06
0.24947	35.05
0.26613	35.05
0.28280	35.05
0.29947	35.04
0.31613	35.03
0.33280	35.01
0.34947	35.00
0.36613	35.00
0.38280	35.00
0.39947	34.99
0.41613	34.98
0.43280	34.98
0.44947	34.99
0.46613	35.00
0.48280	35.00
0.49947	35.00
0.51613	35.00
0.53280	35.00
0.54947	34.99
0.56613	34.98
0.58280	34.98
0.59947	34.99
0.61613	34.99
0.63280	35.01
0.64947	35.01
0.66613	35.02
0.68280	35.01
0.69947	35.02
0.71613	35.03
0.73280	35.03
0.74947	35.02
0.76613	35.02
0.78280	35.01
0.79947	35.00
0.81613	35.00
0.83280	35.00
0.84947	35.00
0.86613	35.00
0.88280	35.00
0.89947	34.98
0.91613	34.97
0.93280	34.97
0.94947	34.98
0.96613	34.98
0.98280	35.00
0.99947	35.01
1.01613	35.00
1.03280	34.99
1.04947	34.99
1.06613	34.99
1.08280	35.00
1.09947	35.00
1.11613	35.00
1.13280	34.99
1.14947	34.98
1.16613	34.98
1.18280	34.98
1.19947	34.99
1.21613	34.99
1.23280	34.99
1.24947	34.99
1.26613	34.98
1.28280	34.97
1.29947	34.96
1.31613	34.95
1.33280	34.95
1.34947	34.96
1.36613	34.96
1.38280	34.97
1.39947	34.98
1.41613	34.99
1.43280	34.99
1.44947	35.00
1.46613	35.01
1.48280	35.01
1.49947	35.02
1.51613	35.01
1.53280	35.01
1.54947	35.01
1.56613	35.00
1.58280	34.99
1.59947	35.01
1.61613	35.09
1.63280	35.24
1.64947	35.46
1.66613	35.76
1.68280	36.15
1.69947	36.53
1.71613	36.86
1.73280	37.18
1.74947	37.48
1.76613	37.83
1.78280	38.18
1.79947	38.50
1.81613	38.82
1.83280	39.15
1.84947	39.49
1.86613	39.81
1.88280	40.15
1.89947	40.48
1.91613	40.82
1.93280	41.14
1.94947	41.47
1.96613	41.79
1.98280	42.12
1.99947	42.44
2.01613	42.76
2.03280	43.09
2.04947	43.44
2.06613	43.74
2.08280	44.07
2.09947	44.41
2.11613	44.74
2.13280	45.06
2.14947	45.37
2.16613	45.70
2.18280	46.03
2.19947	46.34
2.21613	46.68
2.23280	46.99
2.24947	47.33
2.26613	47.65
2.28280	47.98
2.29947	48.32
2.31613	48.64
2.33280	48.98
2.34947	49.30
2.36613	49.53
2.38280	49.65
2.39947	49.65
2.41613	49.66
2.43280	49.68
2.44947	49.68
2.46613	49.71
2.48280	49.72
2.49947	49.74
2.51613	49.77
2.53280	49.78
2.54947	49.80
2.56613	49.80
2.58280	49.82
2.59947	49.84
2.61613	49.84
2.63280	49.85
2.64947	49.86
2.66613	49.85
2.68280	49.83
2.69947	49.85
2.71613	49.86
2.73280	49.86
2.74947	49.85
2.76613	49.85
2.78280	49.87
2.79947	49.89
2.81613	49.91
2.83280	49.92
2.84947	49.92
2.86613	49.92
2.88280	49.92
2.89947	49.93
2.91613	49.94
2.93280	49.95
2.94947	49.96
2.96613	49.99
2.98280	50.00
2.99947	50.01
3.01613	50.02
3.03280	50.03
3.04947	50.05
3.06613	50.05
3.08280	50.06
3.09947	50.06
3.11613	50.06
3.13280	50.07
3.14947	50.09
3.16613	50.09
3.18280	50.10
3.19947	50.11
3.21613	50.10
3.23280	50.08
3.24947	50.08
3.26613	50.07
3.28280	50.07
3.29947	50.06
3.31613	50.05
3.33280	50.05
3.34947	50.05
3.36613	50.05
3.38280	50.04
3.39947	50.04
3.41613	50.03
3.43280	50.02
3.44947	50.03
3.46613	50.04
3.48280	50.06
3.49947	50.06
3.51613	50.07
3.53280	50.08
3.54947	50.08
3.56613	50.09
3.58280	50.10
3.59947	50.10
3.61613	50.09
3.63280	50.08
3.64947	50.08
3.66613	50.07
3.68280	50.06
3.69947	50.04
3.71613	50.03
3.73280	50.03
3.74947	50.04
3.76613	50.05
3.78280	50.06
3.79947	50.07
3.81613	50.07
3.83280	50.07
3.84947	50.06
3.86613	50.05
3.88280	50.05
3.89947	50.06
3.91613	50.06
3.93280	50.06
3.94947	50.07
3.96613	50.07
3.98280	50.07

[Status Trace (Injection Unit Temperature)]
Interval(msec)	1000
# of Points	239
Start Time(min)	0.016
End Time(min)	3.983
Intensity Units	
Intensity Multiplier	1
R.Time (min)	Intensity
0.01613	99.98
0.03280	99.98
0.04947	99.98
0.06613	99.98
0.08280	99.98
0.09947	99.98
0.11613	99.98
0.13280	99.99
0.14947	99.99
0.16613	99.98
0.18280	99.99
0.19947	99.99
0.21613	99.98
0.23280	99.98
0.24947	99.99
0.26613	99.98
0.28280	99.98
0.29947	99.98
0.31613	99.99
0.33280	99.98
0.34947	99.98
0.36613	99.99
0.38280	99.98
0.39947	99.98
0.41613	99.99
0.43280	99.98
0.44947	99.98
0.46613	99.98
0.48280	99.98
0.49947	99.98
0.51613	99.99
0.53280	99.98
0.54947	99.98
0.56613	99.99
0.58280	99.99
0.59947	99.98
0.61613	99.99
0.63280	99.99
0.64947	99.98
0.66613	99.98
0.68280	99.99
0.69947	99.99
0.71613	99.98
0.73280	99.99
0.74947	99.99
0.76613	99.99
0.78280	99.99
0.79947	99.98
0.81613	99.98
0.83280	99.98
0.84947	99.98
0.86613	99.98
0.88280	99.98
0.89947	99.98
0.91613	99.98
0.93280	99.98
0.94947	99.98
0.96613	99.98
0.98280	99.98
0.99947	99.98
1.01613	99.98
1.03280	99.98
1.04947	99.98
1.06613	99.98
1.08280	99.98
1.09947	99.98
1.11613	99.98
1.13280	99.98
1.14947	99.98
1.16613	99.98
1.18280	99.98
1.19947	99.98
1.21613	99.97
1.23280	99.98
1.24947	99.98
1.26613	99.98
1.28280	99.98
1.29947	99.98
1.31613	99.98
1.33280	99.98
1.34947	99.98
1.36613	99.98
1.38280	99.98
1.39947	99.98
1.41613	99.98
1.43280	99.98
1.44947	99.97
1.46613	99.98
1.48280	99.98
1.49947	99.98
1.51613	99.97
1.53280	99.98
1.54947	99.98
1.56613	99.98
1.58280	99.98
1.59947	99.98
1.61613	99.98
1.63280	99.98
1.64947	99.98
1.66613	99.98
1.68280	99.98
1.69947	99.98
1.71613	99.98
1.73280	99.98
1.74947	99.98
1.76613	99.98
1.78280	99.98
1.79947	99.98
1.81613	99.98
1.83280	99.97
1.84947	99.98
1.86613	99.98
1.88280	99.98
1.89947	99.98
1.91613	99.98
1.93280	99.98
1.94947	99.98
1.96613	99.98
1.98280	99.98
1.99947	99.98
2.01613	99.97
2.03280	99.97
2.04947	99.97
2.06613	99.98
2.08280	99.97
2.09947	99.97
2.11613	99.97
2.13280	99.97
2.14947	99.97
2.16613	99.97
2.18280	99.97
2.19947	99.97
2.21613	99.97
2.23280	99.97
2.24947	99.97
2.26613	99.97
2.28280	99.97
2.29947	99.97
2.31613	99.97
2.33280	99.97
2.34947	99.97
2.36613	99.97
2.38280	99.97
2.39947	99.97
2.41613	99.96
2.43280	99.97
2.44947	99.97
2.46613	99.97
2.48280	99.97
2.49947	99.97
2.51613	99.97
2.53280	99.97
2.54947	99.97
2.56613	99.97
2.58280	99.97
2.59947	99.98
2.61613	99.98
2.63280	99.98
2.64947	99.97
2.66613	99.99
2.68280	99.98
2.69947	99.98
2.71613	99.98
2.73280	99.98
2.74947	99.99
2.76613	99.98
2.78280	99.99
2.79947	99.99
2.81613	99.99
2.83280	100.00
2.84947	99.99
2.86613	99.99
2.88280	100.00
2.89947	100.00
2.91613	99.99
2.93280	99.99
2.94947	99.99
2.96613	100.00
2.98280	100.00
2.99947	100.00
3.01613	100.00
3.03280	100.00
3.04947	100.00
3.06613	100.00
3.08280	100.01
3.09947	100.01
3.11613	100.01
3.13280	100.01
3.14947	100.01
3.16613	100.02
3.18280	100.02
3.19947	100.01
3.21613	100.01
3.23280	100.02
3.24947	100.02
3.26613	100.02
3.28280	100.02
3.29947	100.02
3.31613	100.02
3.33280	100.02
3.34947	100.02
3.36613	100.03
3.38280	100.02
3.39947	100.03
3.41613	100.03
3.43280	100.03
3.44947	100.03
3.46613	100.03
3.48280	100.03
3.49947	100.03
3.51613	100.03
3.53280	100.03
3.54947	100.03
3.56613	100.03
3.58280	100.03
3.59947	100.03
3.61613	100.03
3.63280	100.03
3.64947	100.03
3.66613	100.03
3.68280	100.04
3.69947	100.04
3.71613	100.04
3.73280	100.03
3.74947	100.04
3.76613	100.04
3.78280	100.04
3.79947	100.04
3.81613	100.04
3.83280	100.04
3.84947	100.04
3.86613	100.04
3.88280	100.04
3.89947	100.04
3.91613	100.04
3.93280	100.04
3.94947	100.04
3.96613	100.04
3.98280	100.04

[Status Trace (Carrier Gas Pressure)]
Interval(msec)	1000
# of Points	239
Start Time(min)	0.016
End Time(min)	3.983
Intensity Units	
Intensity Multiplier	1
R.Time (min)	Intensity
0.01613	56.96
0.03280	55.87
0.04947	58.26
0.06613	59.89
0.08280	58.50
0.09947	57.97
0.11613	58.00
0.13280	58.01
0.14947	58.01
0.16613	58.00
0.18280	58.00
0.19947	58.00
0.21613	58.00
0.23280	58.00
0.24947	58.00
0.26613	58.00
0.28280	58.00
0.29947	58.00
0.31613	58.00
0.33280	58.00
0.34947	58.00
0.36613	58.00
0.38280	58.00
0.39947	58.00
0.41613	58.00
0.43280	58.00
0.44947	58.00
0.46613	58.00
0.48280	58.00
0.49947	58.00
0.51613	58.00
0.53280	58.00
0.54947	58.00
0.56613	58.00
0.58280	58.00
0.59947	58.00
0.61613	58.00
0.63280	58.00
0.64947	58.00
0.66613	58.00
0.68280	58.00
0.69947	58.00
0.71613	58.00
0.73280	58.00
0.74947	58.00
0.76613	58.00
0.78280	58.00
0.79947	58.00
0.81613	58.00
0.83280	58.00
0.84947	58.00
0.86613	58.00
0.88280	58.00
0.89947	58.00
0.91613	58.00
0.93280	58.00
0.94947	58.00
0.96613	58.00
0.98280	58.00
0.99947	58.00
1.01613	58.00
1.03280	58.00
1.04947	58.00
1.06613	58.00
1.08280	58.00
1.09947	58.00
1.11613	58.00
1.13280	58.00
1.14947	58.00
1.16613	58.00
1.18280	58.00
1.19947	58.00
1.21613	58.00
1.23280	58.00
1.24947	58.00
1.26613	58.00
1.28280	58.00
1.29947	58.00
1.31613	58.00
1.33280	58.00
1.34947	58.00
1.36613	58.00
1.38280	58.00
1.39947	58.00
1.41613	58.00
1.43280	58.00
1.44947	58.00
1.46613	58.00
1.48280	58.00
1.49947	58.00
1.51613	58.00
1.53280	58.00
1.54947	58.00
1.56613	58.00
1.58280	58.00
1.59947	58.00
1.61613	58.00
1.63280	58.01
1.64947	58.00
1.66613	58.01
1.68280	58.01
1.69947	58.00
1.71613	58.00
1.73280	58.00
1.74947	58.00
1.76613	58.00
1.78280	58.00
1.79947	58.00
1.81613	58.00
1.83280	58.00
1.84947	58.00
1.86613	58.00
1.88280	58.00
1.89947	58.00
1.91613	58.00
1.93280	58.00
1.94947	58.00
1.96613	58.00
1.98280	58.00
1.99947	58.00
2.01613	58.00
2.03280	58.00
2.04947	58.00
2.06613	58.00
2.08280	58.00
2.09947	58.00
2.11613	58.00
2.13280	58.00
2.14947	58.00
2.16613	58.00
2.18280	58.00
2.19947	58.00
2.21613	58.00
2.23280	58.00
2.24947	58.00
2.26613	58.00
2.28280	58.00
2.29947	58.00
2.31613	58.00
2.33280	58.00
2.34947	58.00
2.36613	58.00
2.38280	57.99
2.39947	58.00
2.41613	58.00
2.43280	58.00
2.44947	58.00
2.46613	58.00
2.48280	58.00
2.49947	58.00
2.51613	57.99
2.53280	57.99
2.54947	58.00
2.56613	58.00
2.58280	58.00
2.59947	58.00
2.61613	58.00
2.63280	58.00
2.64947	58.00
2.66613	58.00
2.68280	58.00
2.69947	58.00
2.71613	58.00
2.73280	58.00
2.74947	58.00
2.76613	58.00
2.78280	58.00
2.79947	58.00
2.81613	58.00
2.83280	58.00
2.84947	58.00
2.86613	58.00
2.88280	58.00
2.89947	58.00
2.91613	58.00
2.93280	58.00
2.94947	58.00
2.96613	58.00
2.98280	58.00
2.99947	58.00
3.01613	58.00
3.03280	58.00
3.04947	58.00
3.06613	58.00
3.08280	58.00
3.09947	58.00
3.11613	58.00
3.13280	58.00
3.14947	58.00
3.16613	58.00
3.18280	58.00
3.19947	58.00
3.21613	58.00
3.23280	58.00
3.24947	58.00
3.26613	58.00
3.28280	58.00
3.29947	58.00
3.31613	58.00
3.33280	58.00
3.34947	58.00
3.36613	58.00
3.38280	58.00
3.39947	58.00
3.41613	58.00
3.43280	58.00
3.44947	58.00
3.46613	58.00
3.48280	58.00
3.49947	58.00
3.51613	58.00
3.53280	58.00
3.54947	58.00
3.56613	58.00
3.58280	58.00
3.59947	58.00
3.61613	58.00
3.63280	58.00
3.64947	58.00
3.66613	58.00
3.68280	58.00
3.69947	58.00
3.71613	58.00
3.73280	58.00
3.74947	58.00
3.76613	58.00
3.78280	58.00
3.79947	58.00
3.81613	58.00
3.83280	58.00
3.84947	58.00
3.86613	58.00
3.88280	58.00
3.89947	58.00
3.91613	58.00
3.93280	58.00
3.94947	58.00
3.96613	58.00
3.98280	58.00

[Status Trace (Carrier Gas Flow)]
Interval(msec)	1000
# of Points	239
Start Time(min)	0.016
End Time(min)	3.983
Intensity Units	
Intensity Multiplier	1
R.Time (min)	Intensity
0.01613	33.91
0.03280	34.55
0.04947	34.55
0.06613	34.50
0.08280	34.50
0.09947	34.53
0.11613	34.52
0.13280	34.52
0.14947	34.51
0.16613	34.52
0.18280	34.52
0.19947	34.52
0.21613	34.52
0.23280	34.51
0.24947	34.52
0.26613	34.52
0.28280	34.52
0.29947	34.52
0.31613	34.52
0.33280	34.51
0.34947	34.51
0.36613	34.52
0.38280	34.52
0.39947	34.52
0.41613	34.51
0.43280	34.52
0.44947	34.52
0.46613	34.52
0.48280	34.52
0.49947	34.52
0.51613	34.51
0.53280	34.52
0.54947	34.52
0.56613	34.52
0.58280	34.52
0.59947	34.52
0.61613	34.51
0.63280	34.51
0.64947	34.51
0.66613	34.52
0.68280	34.52
0.69947	34.52
0.71613	34.52
0.73280	34.52
0.74947	34.52
0.76613	34.51
0.78280	34.51
0.79947	34.52
0.81613	34.52
0.83280	34.52
0.84947	34.52
0.86613	34.51
0.88280	34.52
0.89947	34.52
0.91613	34.52
0.93280	34.52
0.94947	34.53
0.96613	34.52
0.98280	34.52
0.99947	34.52
1.01613	34.52
1.03280	34.52
1.04947	34.52
1.06613	34.52
1.08280	34.52
1.09947	34.52
1.11613	34.52
1.13280	34.52
1.14947	34.52
1.16613	34.51
1.18280	34.52
1.19947	34.52
1.21613	34.52
1.23280	34.52
1.24947	34.52
1.26613	34.52
1.28280	34.52
1.29947	34.52
1.31613	34.52
1.33280	34.52
1.34947	34.52
1.36613	34.52
1.38280	34.52
1.39947	34.52
1.41613	34.52
1.43280	34.52
1.44947	34.52
1.46613	34.52
1.48280	34.52
1.49947	34.52
1.51613	34.52
1.53280	34.52
1.54947	34.52
1.56613	34.52
1.58280	34.52
1.59947	34.52
1.61613	34.52
1.63280	34.52
1.64947	34.52
1.66613	34.52
1.68280	34.51
1.69947	34.52
1.71613	34.51
1.73280	34.52
1.74947	34.52
1.76613	34.53
1.78280	34.52
1.79947	34.52
1.81613	34.52
1.83280	34.52
1.84947	34.52
1.86613	34.52
1.88280	34.52
1.89947	34.52
1.91613	34.53
1.93280	34.52
1.94947	34.52
1.96613	34.51
1.98280	34.52
1.99947	34.52
2.01613	34.52
2.03280	34.51
2.04947	34.52
2.06613	34.52
2.08280	34.52
2.09947	34.52
2.11613	34.52
2.13280	34.51
2.14947	34.51
2.16613	34.52
2.18280	34.52
2.19947	34.52
2.21613	34.52
2.23280	34.52
2.24947	34.52
2.26613	34.52
2.28280	34.52
2.29947	34.52
2.31613	34.51
2.33280	34.52
2.34947	34.51
2.36613	34.52
2.38280	34.52
2.39947	34.51
2.41613	34.52
2.43280	34.52
2.44947	34.52
2.46613	34.51
2.48280	34.52
2.49947	34.52
2.51613	34.52
2.53280	34.51
2.54947	34.52
2.56613	34.52
2.58280	34.52
2.59947	34.52
2.61613	34.51
2.63280	34.52
2.64947	34.52
2.66613	34.52
2.68280	34.52
2.69947	34.52
2.71613	34.52
2.73280	34.52
2.74947	34.52
2.76613	34.52
2.78280	34.52
2.79947	34.52
2.81613	34.52
2.83280	34.51
2.84947	34.51
2.86613	34.52
2.88280	34.52
2.89947	34.52
2.91613	34.52
2.93280	34.52
2.94947	34.52
2.96613	34.51
2.98280	34.52
2.99947	34.51
3.01613	34.52
3.03280	34.52
3.04947	34.52
3.06613	34.52
3.08280	34.52
3.09947	34.52
3.11613	34.51
3.13280	34.52
3.14947	34.52
3.16613	34.52
3.18280	34.52
3.19947	34.52
3.21613	34.52
3.23280	34.52
3.24947	34.52
3.26613	34.52
3.28280	34.52
3.29947	34.52
3.31613	34.52
3.33280	34.51
3.34947	34.52
3.36613	34.51
3.38280	34.52
3.39947	34.52
3.41613	34.52
3.43280	34.52
3.44947	34.52
3.46613	34.52
3.48280	34.52
3.49947	34.52
3.51613	34.52
3.53280	34.52
3.54947	34.52
3.56613	34.52
3.58280	34.52
3.59947	34.52
3.61613	34.52
3.63280	34.52
3.64947	34.52
3.66613	34.52
3.68280	34.52
3.69947	34.52
3.71613	34.52
3.73280	34.52
3.74947	34.52
3.76613	34.52
3.78280	34.52
3.79947	34.52
3.81613	34.51
3.83280	34.52
3.84947	34.52
3.86613	34.52
3.88280	34.52
3.89947	34.53
3.91613	34.53
3.93280	34.53
3.94947	34.51
3.96613	34.51
3.98280	34.52

[Status Trace (Column Flow)]
Interval(msec)	1000
# of Points	239
Start Time(min)	0.016
End Time(min)	3.983
Intensity Units	
Intensity Multiplier	1
R.Time (min)	Intensity
0.01613	5.43
0.03280	5.31
0.04947	5.58
0.06613	5.78
0.08280	5.61
0.09947	5.55
0.11613	5.55
0.13280	5.55
0.14947	5.55
0.16613	5.55
0.18280	5.55
0.19947	5.55
0.21613	5.55
0.23280	5.55
0.24947	5.55
0.26613	5.55
0.28280	5.55
0.29947	5.55
0.31613	5.55
0.33280	5.55
0.34947	5.55
0.36613	5.55
0.38280	5.55
0.39947	5.55
0.41613	5.55
0.43280	5.55
0.44947	5.55
0.46613	5.55
0.48280	5.55
0.49947	5.55
0.51613	5.55
0.53280	5.55
0.54947	5.55
0.56613	5.55
0.58280	5.55
0.59947	5.55
0.61613	5.55
0.63280	5.55
0.64947	5.55
0.66613	5.55
0.68280	5.55
0.69947	5.55
0.71613	5.55
0.73280	5.55
0.74947	5.55
0.76613	5.55
0.78280	5.55
0.79947	5.55
0.81613	5.55
0.83280	5.55
0.84947	5.55
0.86613	5.55
0.88280	5.55
0.89947	5.55
0.91613	5.56
0.93280	5.56
0.94947	5.56
0.96613	5.55
0.98280	5.55
0.99947	5.55
1.01613	5.55
1.03280	5.55
1.04947	5.55
1.06613	5.55
1.08280	5.55
1.09947	5.55
1.11613	5.55
1.13280	5.55
1.14947	5.55
1.16613	5.55
1.18280	5.55
1.19947	5.55
1.21613	5.55
1.23280	5.55
1.24947	5.55
1.26613	5.55
1.28280	5.56
1.29947	5.56
1.31613	5.56
1.33280	5.56
1.34947	5.56
1.36613	5.56
1.38280	5.56
1.39947	5.56
1.41613	5.55
1.43280	5.55
1.44947	5.55
1.46613	5.55
1.48280	5.55
1.49947	5.55
1.51613	5.55
1.53280	5.55
1.54947	5.55
1.56613	5.55
1.58280	5.55
1.59947	5.55
1.61613	5.55
1.63280	5.55
1.64947	5.54
1.66613	5.53
1.68280	5.52
1.69947	5.51
1.71613	5.50
1.73280	5.49
1.74947	5.48
1.76613	5.47
1.78280	5.45
1.79947	5.44
1.81613	5.43
1.83280	5.42
1.84947	5.41
1.86613	5.40
1.88280	5.39
1.89947	5.38
1.91613	5.37
1.93280	5.36
1.94947	5.35
1.96613	5.35
1.98280	5.34
1.99947	5.33
2.01613	5.32
2.03280	5.31
2.04947	5.30
2.06613	5.29
2.08280	5.28
2.09947	5.27
2.11613	5.26
2.13280	5.25
2.14947	5.24
2.16613	5.23
2.18280	5.22
2.19947	5.21
2.21613	5.20
2.23280	5.19
2.24947	5.18
2.26613	5.17
2.28280	5.16
2.29947	5.16
2.31613	5.15
2.33280	5.14
2.34947	5.13
2.36613	5.12
2.38280	5.12
2.39947	5.12
2.41613	5.12
2.43280	5.12
2.44947	5.12
2.46613	5.12
2.48280	5.12
2.49947	5.12
2.51613	5.11
2.53280	5.11
2.54947	5.11
2.56613	5.11
2.58280	5.11
2.59947	5.11
2.61613	5.11
2.63280	5.11
2.64947	5.11
2.66613	5.11
2.68280	5.11
2.69947	5.11
2.71613	5.11
2.73280	5.11
2.74947	5.11
2.76613	5.11
2.78280	5.11
2.79947	5.11
2.81613	5.11
2.83280	5.11
2.84947	5.11
2.86613	5.11
2.88280	5.11
2.89947	5.11
2.91613	5.11
2.93280	5.11
2.94947	5.11
2.96613	5.11
2.98280	5.11
2.99947	5.11
3.01613	5.11
3.03280	5.11
3.04947	5.11
3.06613	5.11
3.08280	5.11
3.09947	5.11
3.11613	5.11
3.13280	5.11
3.14947	5.11
3.16613	5.11
3.18280	5.11
3.19947	5.11
3.21613	5.11
3.23280	5.11
3.24947	5.11
3.26613	5.11
3.28280	5.11
3.29947	5.11
3.31613	5.11
3.33280	5.11
3.34947	5.11
3.36613	5.11
3.38280	5.11
3.39947	5.11
3.41613	5.11
3.43280	5.11
3.44947	5.11
3.46613	5.11
3.48280	5.11
3.49947	5.11
3.51613	5.11
3.53280	5.11
3.54947	5.11
3.56613	5.11
3.58280	5.11
3.59947	5.11
3.61613	5.11
3.63280	5.11
3.64947	5.11
3.66613	5.11
3.68280	5.11
3.69947	5.11
3.71613	5.11
3.73280	5.11
3.74947	5.11
3.76613	5.11
3.78280	5.11
3.79947	5.11
3.81613	5.11
3.83280	5.11
3.84947	5.11
3.86613	5.11
3.88280	5.11
3.89947	5.11
3.91613	5.11
3.93280	5.11
3.94947	5.11
3.96613	5.11
3.98280	5.11

[Status Trace (Linear Velocity)]
Interval(msec)	1000
# of Points	239
Start Time(min)	0.016
End Time(min)	3.983
Intensity Units	
Intensity Multiplier	1
R.Time (min)	Intensity
0.01613	38.34
0.03280	37.63
0.04947	39.19
0.06613	40.26
0.08280	39.35
0.09947	39.00
0.11613	39.02
0.13280	39.03
0.14947	39.03
0.16613	39.02
0.18280	39.02
0.19947	39.02
0.21613	39.02
0.23280	39.02
0.24947	39.02
0.26613	39.02
0.28280	39.02
0.29947	39.02
0.31613	39.02
0.33280	39.02
0.34947	39.02
0.36613	39.02
0.38280	39.02
0.39947	39.03
0.41613	39.03
0.43280	39.03
0.44947	39.03
0.46613	39.02
0.48280	39.02
0.49947	39.02
0.51613	39.02
0.53280	39.02
0.54947	39.03
0.56613	39.03
0.58280	39.03
0.59947	39.03
0.61613	39.02
0.63280	39.02
0.64947	39.02
0.66613	39.02
0.68280	39.02
0.69947	39.02
0.71613	39.02
0.73280	39.02
0.74947	39.02
0.76613	39.02
0.78280	39.02
0.79947	39.02
0.81613	39.02
0.83280	39.02
0.84947	39.02
0.86613	39.02
0.88280	39.02
0.89947	39.02
0.91613	39.03
0.93280	39.03
0.94947	39.03
0.96613	39.03
0.98280	39.02
0.99947	39.02
1.01613	39.02
1.03280	39.03
1.04947	39.03
1.06613	39.03
1.08280	39.02
1.09947	39.02
1.11613	39.02
1.13280	39.03
1.14947	39.03
1.16613	39.03
1.18280	39.03
1.19947	39.03
1.21613	39.03
1.23280	39.02
1.24947	39.03
1.26613	39.03
1.28280	39.03
1.29947	39.03
1.31613	39.03
1.33280	39.03
1.34947	39.03
1.36613	39.03
1.38280	39.03
1.39947	39.03
1.41613	39.02
1.43280	39.02
1.44947	39.02
1.46613	39.02
1.48280	39.02
1.49947	39.02
1.51613	39.02
1.53280	39.02
1.54947	39.02
1.56613	39.02
1.58280	39.02
1.59947	39.02
1.61613	39.02
1.63280	39.00
1.64947	38.98
1.66613	38.95
1.68280	38.92
1.69947	38.88
1.71613	38.85
1.73280	38.82
1.74947	38.79
1.76613	38.76
1.78280	38.72
1.79947	38.69
1.81613	38.66
1.83280	38.63
1.84947	38.60
1.86613	38.57
1.88280	38.54
1.89947	38.51
1.91613	38.47
1.93280	38.44
1.94947	38.41
1.96613	38.38
1.98280	38.35
1.99947	38.32
2.01613	38.29
2.03280	38.26
2.04947	38.23
2.06613	38.20
2.08280	38.17
2.09947	38.14
2.11613	38.11
2.13280	38.08
2.14947	38.05
2.16613	38.02
2.18280	38.00
2.19947	37.97
2.21613	37.94
2.23280	37.91
2.24947	37.88
2.26613	37.85
2.28280	37.82
2.29947	37.79
2.31613	37.76
2.33280	37.73
2.34947	37.70
2.36613	37.68
2.38280	37.67
2.39947	37.67
2.41613	37.67
2.43280	37.67
2.44947	37.67
2.46613	37.67
2.48280	37.66
2.49947	37.66
2.51613	37.65
2.53280	37.65
2.54947	37.66
2.56613	37.66
2.58280	37.66
2.59947	37.65
2.61613	37.65
2.63280	37.65
2.64947	37.65
2.66613	37.65
2.68280	37.65
2.69947	37.65
2.71613	37.65
2.73280	37.65
2.74947	37.65
2.76613	37.65
2.78280	37.65
2.79947	37.65
2.81613	37.65
2.83280	37.65
2.84947	37.65
2.86613	37.65
2.88280	37.65
2.89947	37.65
2.91613	37.65
2.93280	37.64
2.94947	37.64
2.96613	37.64
2.98280	37.64
2.99947	37.64
3.01613	37.64
3.03280	37.64
3.04947	37.64
3.06613	37.64
3.08280	37.64
3.09947	37.63
3.11613	37.63
3.13280	37.63
3.14947	37.63
3.16613	37.63
3.18280	37.63
3.19947	37.63
3.21613	37.63
3.23280	37.63
3.24947	37.63
3.26613	37.63
3.28280	37.63
3.29947	37.63
3.31613	37.64
3.33280	37.64
3.34947	37.64
3.36613	37.64
3.38280	37.64
3.39947	37.64
3.41613	37.64
3.43280	37.64
3.44947	37.64
3.46613	37.64
3.48280	37.63
3.49947	37.63
3.51613	37.63
3.53280	37.63
3.54947	37.63
3.56613	37.63
3.58280	37.63
3.59947	37.63
3.61613	37.63
3.63280	37.63
3.64947	37.63
3.66613	37.63
3.68280	37.63
3.69947	37.64
3.71613	37.64
3.73280	37.64
3.74947	37.64
3.76613	37.64
3.78280	37.63
3.79947	37.63
3.81613	37.63
3.83280	37.63
3.84947	37.63
3.86613	37.64
3.88280	37.64
3.89947	37.63
3.91613	37.63
3.93280	37.63
3.94947	37.63
3.96613	37.63
3.98280	37.63

