[Header]
Application Name	LabSolutions
Version	5.110
Data File Name	C:\Users\User\Desktop\GC Analyses\Jack\Nachusa Grasslands Sampling\T4 Timepoint July 12th\T4_07122022_043.gcd
Output Date	3/17/2023
Output Time	12:04:53 PM

[File Information]
Type	Data File
Generated	3/14/2023 8:08:54 PM
Generated by	System Administrator
Modified	3/14/2023 8:15:41 PM
Modified by	System Administrator

[Sample Information]
Operator Name	System Administrator
Acquired	3/14/2023 8:11:41 PM
Sample Type	0:Unknown
Level	0
Sample Name	043
Sample ID	043
ISTD Amount1	1
ISTD Amount2	1
ISTD Amount3	1
ISTD Amount4	1
ISTD Amount5	1
ISTD Amount6	1
ISTD Amount7	1
ISTD Amount8	1
ISTD Amount9	1
ISTD Amount10	1
ISTD Amount11	1
ISTD Amount12	1
ISTD Amount13	1
ISTD Amount14	1
ISTD Amount15	1
ISTD Amount16	1
ISTD Amount17	1
ISTD Amount18	1
ISTD Amount19	1
ISTD Amount20	1
ISTD Amount21	1
ISTD Amount22	1
ISTD Amount23	1
ISTD Amount24	1
ISTD Amount25	1
ISTD Amount26	1
ISTD Amount27	1
ISTD Amount28	1
ISTD Amount29	1
ISTD Amount30	1
ISTD Amount31	1
ISTD Amount32	1
Sample Amount	1
Dilution Factor	1
Vial#	42
Injection Volume	1
Injection Count	1
Bar Code	

[Original Files]
Data File	C:\Users\User\Desktop\GC Analyses\Jack\Nachusa Grasslands Sampling\T4 Timepoint July 12th\T4_07122022_043.gcd
Method File	C:\LabSolutions\Data\GHG_4min_2022\ghg3_togas_w_acet_4 min_new_int.gcm
Batch File	C:\LabSolutions\Data\AutoSamplerTesting\T4_07122022.gcb
Report Format File	c:\LabSolutions\System\DEFAULT.lsr

[File Description]


[Configuration]
Instrument Name	C0B7VH3-Instrument1
Instrument #	1
Line #	1
# of Detectors	3
Detector ID	DET#1	DET#2	DET#3
Detector Name	FID	PTCD	ECD
# of Channels	1	1	1

[Peak Table(Ch1)]
# of Peaks	3
Peak#	R.Time	I.Time	F.Time	Area	Height	A/H	Conc.	Mark	ID#	Name	k'	Plate #	Plate Ht.	Tailing	Resolution	Sep.Factor	Area Ratio	Height Ratio	Conc. %	Norm Conc.
1	1.476	1.435	1.538	24090	11882	2.027	170.075	   	1	CO	0.000	9646	15.550	1.274	0.000	0.000	0	0	22.296	22.296
2	1.571	1.538	1.626	3612	1850	1.952	69.843	 V 	2	CH4	0.065	11827	12.683	1.123	1.617	0.000	0	0	9.156	9.156
3	1.996	1.952	2.385	2083393	995795	2.092	522.875	   	3	CO2	0.353	17411	8.615	1.337	7.191	5.462	0	0	68.547	68.547

[Peak Table(Ch2)]
# of Peaks	0

[Peak Table(Ch3)]
# of Peaks	5
Peak#	R.Time	I.Time	F.Time	Area	Height	A/H	Conc.	Mark	ID#	Name	k'	Plate #	Plate Ht.	Tailing	Resolution	Sep.Factor	Area Ratio	Height Ratio	Conc. %	Norm Conc.
1	2.462	2.337	2.510	1982	655	3.027	0.000	   			0.000	10206	14.698	0.000	0.000	0.000	0	0	0.000	0.000
2	2.532	2.510	2.579	1049	363	2.891	0.000	 V 			0.028	6588	22.770	0.000	0.627	0.000	0	0	0.000	0.000
3	2.605	2.579	2.689	654	152	4.292	0.000	 V 			0.058	1352	110.931	0.000	0.359	2.053	0	0	0.000	0.000
4	2.880	2.799	3.030	17861	4761	3.752	0.456	   	1	N2O	0.170	13298	11.280	1.491	1.435	2.923	0	0	100.000	100.000
5	3.305	3.129	3.995	16933	578	29.295	0.000	   	2	SF6	0.343	247	607.379	2.418	0.904	2.018	0	0	0.000	0.000

[Compound Results(Ch1)]
# of IDs	6
ID#	Name	R.Time	Area	Height	Conc.	Curve	3rd	2nd	1st	Constant	Area Ratio	Height Ratio	Conc. %	Norm Conc.
1	CO	1.476	24090	11882	170.075	Linear	0.000000e+00	0.000000e+00	1.416423e+002	0.000000e+00	0	0	22.296	22.296
2	CH4	1.571	3612	1850	69.843	Linear	0.000000e+00	0.000000e+00	5.171738e+001	0.000000e+00	0	0	9.156	9.156
3	CO2	1.996	2083393	995795	522.875	Linear	0.000000e+00	0.000000e+00	3.984494e+003	0.000000e+00	0	0	68.547	68.547
4	Ethylene	0.000	0	0	0.000	Linear	0.000000e+00	0.000000e+00	0.000000e+00	0.000000e+00	0	0	0.000	0.000
5	Acetylene	0.000	0	0	0.000	Linear	0.000000e+00	0.000000e+00	0.000000e+00	0.000000e+00	0	0	0.000	0.000
6	Ethane	0.000	0	0	0.000	Linear	0.000000e+00	0.000000e+00	0.000000e+00	0.000000e+00	0	0	0.000	0.000

[Compound Results(Ch2)]
# of IDs	5
ID#	Name	R.Time	Area	Height	Conc.	Curve	3rd	2nd	1st	Constant	Area Ratio	Height Ratio	Conc. %	Norm Conc.
1	Hydrogen	0.000	0	0	0.000	Linear	0.000000e+00	0.000000e+00	0.000000e+00	0.000000e+00	0	0	0.000	0.000
2	Oxygen	0.000	0	0	0.000	Linear	0.000000e+00	0.000000e+00	0.000000e+00	0.000000e+00	0	0	0.000	0.000
3	Nitrogen	0.000	0	0	0.000	Linear	0.000000e+00	0.000000e+00	0.000000e+00	0.000000e+00	0	0	0.000	0.000
4	Methane	0.000	0	0	0.000	Linear	0.000000e+00	0.000000e+00	0.000000e+00	0.000000e+00	0	0	0.000	0.000
5	Carbon Monoxide	0.000	0	0	0.000	Linear	0.000000e+00	0.000000e+00	0.000000e+00	0.000000e+00	0	0	0.000	0.000

[Compound Results(Ch3)]
# of IDs	2
ID#	Name	R.Time	Area	Height	Conc.	Curve	3rd	2nd	1st	Constant	Area Ratio	Height Ratio	Conc. %	Norm Conc.
1	N2O	2.880	17861	4761	0.456	Linear	0.000000e+00	0.000000e+00	3.915173e+004	0.000000e+00	0	0	100.000	100.000
2	SF6	3.305	16933	578	0.000	Linear	0.000000e+00	0.000000e+00	0.000000e+00	0.000000e+00	0	0	0.000	0.000

[Group Results(Ch1)]
# of Groups	0

[Group Results(Ch2)]
# of Groups	0

[Group Results(Ch3)]
# of Groups	0

[Chromatogram (Ch1)]
Interval(msec)	220
# of Points	1091
Start Time(min)	0.002
End Time(min)	3.998
R.Time (min)	Intensity
0.00167	11
0.00533	12
0.00900	13
0.01267	16
0.01633	18
0.02000	20
0.02367	24
0.02733	32
0.03100	35
0.03467	34
0.03833	30
0.04200	27
0.04567	29
0.04933	31
0.05300	35
0.05667	37
0.06033	39
0.06400	38
0.06767	37
0.07133	37
0.07500	32
0.07867	24
0.08233	19
0.08600	24
0.08967	29
0.09333	35
0.09700	43
0.10067	53
0.10433	62
0.10800	70
0.11167	75
0.11533	76
0.11900	77
0.12267	72
0.12633	64
0.13000	58
0.13367	60
0.13733	69
0.14100	75
0.14467	81
0.14833	86
0.15200	90
0.15567	95
0.15933	99
0.16300	102
0.16667	100
0.17033	98
0.17400	98
0.17767	103
0.18133	109
0.18500	116
0.18867	119
0.19233	112
0.19600	102
0.19967	95
0.20333	94
0.20700	96
0.21067	93
0.21433	87
0.21800	78
0.22167	73
0.22533	72
0.22900	70
0.23267	64
0.23633	59
0.24000	59
0.24367	59
0.24733	62
0.25100	62
0.25467	58
0.25833	54
0.26200	52
0.26567	50
0.26933	46
0.27300	44
0.27667	37
0.28033	34
0.28400	32
0.28767	37
0.29133	47
0.29500	58
0.29867	64
0.30233	56
0.30600	43
0.30967	31
0.31333	22
0.31700	15
0.32067	11
0.32433	5
0.32800	1
0.33167	5
0.33533	11
0.33900	13
0.34267	14
0.34633	17
0.35000	19
0.35367	19
0.35733	24
0.36100	32
0.36467	31
0.36833	23
0.37200	13
0.37567	1
0.37933	-10
0.38300	-19
0.38667	-24
0.39033	-26
0.39400	-22
0.39767	-14
0.40133	0
0.40500	16
0.40867	27
0.41233	34
0.41600	34
0.41967	32
0.42333	30
0.42700	30
0.43067	30
0.43433	28
0.43800	26
0.44167	25
0.44533	21
0.44900	18
0.45267	17
0.45633	13
0.46000	11
0.46367	16
0.46733	22
0.47100	26
0.47467	27
0.47833	23
0.48200	20
0.48567	20
0.48933	23
0.49300	28
0.49667	30
0.50033	28
0.50400	23
0.50767	16
0.51133	12
0.51500	13
0.51867	18
0.52233	21
0.52600	23
0.52967	29
0.53333	41
0.53700	51
0.54067	55
0.54433	50
0.54800	40
0.55167	28
0.55533	15
0.55900	6
0.56267	4
0.56633	8
0.57000	17
0.57367	23
0.57733	22
0.58100	18
0.58467	14
0.58833	13
0.59200	18
0.59567	29
0.59933	34
0.60300	32
0.60667	30
0.61033	34
0.61400	37
0.61767	37
0.62133	41
0.62500	41
0.62867	34
0.63233	27
0.63600	24
0.63967	23
0.64333	17
0.64700	26
0.65067	35
0.65433	39
0.65800	42
0.66167	44
0.66533	49
0.66900	51
0.67267	48
0.67633	37
0.68000	23
0.68367	10
0.68733	2
0.69100	0
0.69467	3
0.69833	10
0.70200	13
0.70567	13
0.70933	11
0.71300	9
0.71667	7
0.72033	8
0.72400	17
0.72767	27
0.73133	29
0.73500	24
0.73867	19
0.74233	18
0.74600	18
0.74967	20
0.75333	25
0.75700	34
0.76067	42
0.76433	47
0.76800	50
0.77167	49
0.77533	39
0.77900	29
0.78267	27
0.78633	31
0.79000	31
0.79367	32
0.79733	30
0.80100	27
0.80467	27
0.80833	27
0.81200	25
0.81567	23
0.81933	22
0.82300	26
0.82667	39
0.83033	56
0.83400	66
0.83767	63
0.84133	51
0.84500	35
0.84867	21
0.85233	12
0.85600	7
0.85967	8
0.86333	16
0.86700	21
0.87067	22
0.87433	25
0.87800	30
0.88167	33
0.88533	28
0.88900	19
0.89267	12
0.89633	5
0.90000	2
0.90367	1
0.90733	-0
0.91100	-6
0.91467	-15
0.91833	-18
0.92200	-17
0.92567	-8
0.92933	5
0.93300	15
0.93667	18
0.94033	18
0.94400	21
0.94767	27
0.95133	26
0.95500	11
0.95867	-7
0.96233	-19
0.96600	-21
0.96967	-15
0.97333	-10
0.97700	-3
0.98067	5
0.98433	4
0.98800	6
0.99167	5
0.99533	0
0.99900	-1
1.00267	-2
1.00633	-4
1.01000	-5
1.01367	-1
1.01733	4
1.02100	11
1.02467	18
1.02833	16
1.03200	10
1.03567	4
1.03933	1
1.04300	3
1.04667	6
1.05033	7
1.05400	7
1.05767	2
1.06133	-4
1.06500	-4
1.06867	-2
1.07233	2
1.07600	7
1.07967	9
1.08333	5
1.08700	-1
1.09067	-5
1.09433	-9
1.09800	-1
1.10167	13
1.10533	20
1.10900	13
1.11267	-0
1.11633	-12
1.12000	-20
1.12367	-25
1.12733	-24
1.13100	-21
1.13467	-19
1.13833	-13
1.14200	-8
1.14567	-1
1.14933	4
1.15300	5
1.15667	7
1.16033	12
1.16400	7
1.16767	-6
1.17133	-20
1.17500	-28
1.17867	-26
1.18233	-21
1.18600	-17
1.18967	-15
1.19333	-15
1.19700	-14
1.20067	-13
1.20433	-13
1.20800	-10
1.21167	-1
1.21533	3
1.21900	1
1.22267	-0
1.22633	-0
1.23000	-0
1.23367	-2
1.23733	-6
1.24100	-9
1.24467	-6
1.24833	-2
1.25200	0
1.25567	-7
1.25933	-22
1.26300	-36
1.26667	-39
1.27033	-38
1.27400	-37
1.27767	-30
1.28133	-21
1.28500	-12
1.28867	-9
1.29233	-12
1.29600	-18
1.29967	-24
1.30333	-28
1.30700	-25
1.31067	-19
1.31433	-11
1.31800	-3
1.32167	1
1.32533	-3
1.32900	-16
1.33267	-26
1.33633	-30
1.34000	-32
1.34367	-32
1.34733	-35
1.35100	-39
1.35467	-45
1.35833	-47
1.36200	-42
1.36567	-35
1.36933	-26
1.37300	-18
1.37667	-15
1.38033	-21
1.38400	-27
1.38767	-32
1.39133	-35
1.39500	-34
1.39867	-31
1.40233	-26
1.40600	-17
1.40967	-10
1.41333	-8
1.41700	-8
1.42067	-9
1.42433	-12
1.42800	-15
1.43167	-12
1.43533	-6
1.43900	5
1.44267	39
1.44633	166
1.45000	549
1.45367	1547
1.45733	3364
1.46100	5685
1.46467	7977
1.46833	9873
1.47200	11203
1.47567	11861
1.47933	11738
1.48300	10806
1.48667	9247
1.49033	7398
1.49400	5589
1.49767	4034
1.50133	2814
1.50500	1908
1.50867	1257
1.51233	804
1.51600	495
1.51967	287
1.52333	147
1.52700	60
1.53067	6
1.53433	-22
1.53800	-28
1.54167	12
1.54533	138
1.54900	387
1.55267	730
1.55633	1094
1.56000	1409
1.56367	1648
1.56733	1786
1.57100	1796
1.57467	1665
1.57833	1413
1.58200	1099
1.58567	792
1.58933	537
1.59300	347
1.59667	217
1.60033	124
1.60400	56
1.60767	6
1.61133	-25
1.61500	-41
1.61867	-50
1.62233	-63
1.62600	-74
1.62967	-77
1.63333	-79
1.63700	-77
1.64067	-73
1.64433	-71
1.64800	-69
1.65167	-65
1.65533	-65
1.65900	-65
1.66267	-66
1.66633	-68
1.67000	-70
1.67367	-74
1.67733	-78
1.68100	-77
1.68467	-78
1.68833	-84
1.69200	-88
1.69567	-87
1.69933	-89
1.70300	-91
1.70667	-88
1.71033	-83
1.71400	-78
1.71767	-71
1.72133	-71
1.72500	-74
1.72867	-74
1.73233	-69
1.73600	-60
1.73967	-57
1.74333	-62
1.74700	-64
1.75067	-65
1.75433	-64
1.75800	-64
1.76167	-66
1.76533	-66
1.76900	-59
1.77267	-54
1.77633	-54
1.78000	-54
1.78367	-53
1.78733	-55
1.79100	-56
1.79467	-51
1.79833	-43
1.80200	-34
1.80567	-29
1.80933	-36
1.81300	-45
1.81667	-53
1.82033	-60
1.82400	-69
1.82767	-72
1.83133	-64
1.83500	-56
1.83867	-55
1.84233	-55
1.84600	-53
1.84967	-50
1.85333	-47
1.85700	-48
1.86067	-52
1.86433	-61
1.86800	-71
1.87167	-77
1.87533	-78
1.87900	-72
1.88267	-65
1.88633	-57
1.89000	-52
1.89367	-53
1.89733	-58
1.90100	-57
1.90467	-53
1.90833	-52
1.91200	-49
1.91567	-44
1.91933	-40
1.92300	-39
1.92667	-37
1.93033	-35
1.93400	-36
1.93767	-40
1.94133	-41
1.94500	-39
1.94867	-37
1.95233	-25
1.95600	81
1.95967	748
1.96333	3989
1.96700	16028
1.97067	50265
1.97433	125387
1.97800	253519
1.98167	427185
1.98533	619047
1.98900	795124
1.99267	927041
1.99633	995794
2.00000	993567
2.00367	924586
2.00733	805152
2.01100	659481
2.01467	511976
2.01833	380408
2.02200	273430
2.02567	192142
2.02933	133287
2.03300	92075
2.03667	63844
2.04033	44745
2.04400	31886
2.04767	23221
2.05133	17345
2.05500	13304
2.05867	10475
2.06233	8452
2.06600	6973
2.06967	5866
2.07333	5016
2.07700	4357
2.08067	3831
2.08433	3405
2.08800	3058
2.09167	2770
2.09533	2524
2.09900	2311
2.10267	2132
2.10633	1982
2.11000	1855
2.11367	1743
2.11733	1636
2.12100	1531
2.12467	1436
2.12833	1353
2.13200	1278
2.13567	1206
2.13933	1136
2.14300	1076
2.14667	1025
2.15033	978
2.15400	934
2.15767	898
2.16133	863
2.16500	822
2.16867	788
2.17233	759
2.17600	734
2.17967	707
2.18333	677
2.18700	647
2.19067	622
2.19433	602
2.19800	585
2.20167	563
2.20533	538
2.20900	516
2.21267	499
2.21633	485
2.22000	478
2.22367	473
2.22733	470
2.23100	467
2.23467	461
2.23833	453
2.24200	441
2.24567	430
2.24933	420
2.25300	409
2.25667	395
2.26033	380
2.26400	367
2.26767	354
2.27133	340
2.27500	332
2.27867	327
2.28233	325
2.28600	323
2.28967	318
2.29333	309
2.29700	304
2.30067	297
2.30433	284
2.30800	272
2.31167	269
2.31533	268
2.31900	269
2.32267	269
2.32633	265
2.33000	262
2.33367	254
2.33733	241
2.34100	228
2.34467	222
2.34833	222
2.35200	225
2.35567	230
2.35933	239
2.36300	240
2.36667	234
2.37033	228
2.37400	222
2.37767	222
2.38133	217
2.38500	206
2.38867	195
2.39233	186
2.39600	188
2.39967	192
2.40333	192
2.40700	191
2.41067	195
2.41433	202
2.41800	207
2.42167	210
2.42533	215
2.42900	218
2.43267	214
2.43633	208
2.44000	210
2.44367	214
2.44733	218
2.45100	219
2.45467	218
2.45833	216
2.46200	210
2.46567	204
2.46933	200
2.47300	199
2.47667	203
2.48033	209
2.48400	209
2.48767	207
2.49133	202
2.49500	194
2.49867	187
2.50233	184
2.50600	188
2.50967	193
2.51333	193
2.51700	191
2.52067	189
2.52433	183
2.52800	178
2.53167	178
2.53533	179
2.53900	176
2.54267	174
2.54633	170
2.55000	165
2.55367	157
2.55733	151
2.56100	144
2.56467	137
2.56833	132
2.57200	129
2.57567	131
2.57933	138
2.58300	147
2.58667	150
2.59033	150
2.59400	152
2.59767	155
2.60133	155
2.60500	153
2.60867	157
2.61233	163
2.61600	165
2.61967	163
2.62333	161
2.62700	158
2.63067	152
2.63433	147
2.63800	146
2.64167	146
2.64533	141
2.64900	132
2.65267	125
2.65633	125
2.66000	133
2.66367	138
2.66733	139
2.67100	136
2.67467	128
2.67833	120
2.68200	122
2.68567	129
2.68933	138
2.69300	139
2.69667	130
2.70033	121
2.70400	121
2.70767	124
2.71133	122
2.71500	115
2.71867	115
2.72233	116
2.72600	116
2.72967	117
2.73333	116
2.73700	113
2.74067	111
2.74433	108
2.74800	104
2.75167	101
2.75533	102
2.75900	109
2.76267	115
2.76633	115
2.77000	113
2.77367	114
2.77733	116
2.78100	116
2.78467	117
2.78833	117
2.79200	120
2.79567	126
2.79933	135
2.80300	140
2.80667	135
2.81033	123
2.81400	110
2.81767	101
2.82133	96
2.82500	92
2.82867	88
2.83233	87
2.83600	86
2.83967	82
2.84333	79
2.84700	77
2.85067	79
2.85433	84
2.85800	97
2.86167	103
2.86533	103
2.86900	99
2.87267	101
2.87633	109
2.88000	117
2.88367	124
2.88733	125
2.89100	118
2.89467	108
2.89833	96
2.90200	87
2.90567	81
2.90933	80
2.91300	82
2.91667	84
2.92033	84
2.92400	85
2.92767	84
2.93133	81
2.93500	76
2.93867	74
2.94233	80
2.94600	89
2.94967	102
2.95333	110
2.95700	112
2.96067	109
2.96433	100
2.96800	91
2.97167	91
2.97533	89
2.97900	84
2.98267	83
2.98633	83
2.99000	84
2.99367	88
2.99733	100
3.00100	114
3.00467	122
3.00833	114
3.01200	104
3.01567	100
3.01933	94
3.02300	88
3.02667	87
3.03033	89
3.03400	89
3.03767	90
3.04133	90
3.04500	90
3.04867	93
3.05233	95
3.05600	91
3.05967	86
3.06333	85
3.06700	91
3.07067	96
3.07433	96
3.07800	92
3.08167	82
3.08533	75
3.08900	74
3.09267	73
3.09633	73
3.10000	73
3.10367	77
3.10733	83
3.11100	82
3.11467	71
3.11833	62
3.12200	61
3.12567	69
3.12933	78
3.13300	82
3.13667	85
3.14033	86
3.14400	88
3.14767	92
3.15133	93
3.15500	92
3.15867	90
3.16233	90
3.16600	91
3.16967	93
3.17333	92
3.17700	92
3.18067	95
3.18433	100
3.18800	103
3.19167	96
3.19533	84
3.19900	71
3.20267	59
3.20633	50
3.21000	45
3.21367	43
3.21733	43
3.22100	40
3.22467	42
3.22833	43
3.23200	44
3.23567	46
3.23933	51
3.24300	58
3.24667	64
3.25033	68
3.25400	71
3.25767	72
3.26133	71
3.26500	66
3.26867	59
3.27233	55
3.27600	55
3.27967	58
3.28333	60
3.28700	62
3.29067	63
3.29433	63
3.29800	64
3.30167	64
3.30533	65
3.30900	64
3.31267	60
3.31633	56
3.32000	54
3.32367	52
3.32733	49
3.33100	48
3.33467	49
3.33833	53
3.34200	51
3.34567	54
3.34933	57
3.35300	58
3.35667	60
3.36033	62
3.36400	56
3.36767	49
3.37133	48
3.37500	49
3.37867	50
3.38233	50
3.38600	48
3.38967	47
3.39333	47
3.39700	51
3.40067	56
3.40433	66
3.40800	81
3.41167	94
3.41533	101
3.41900	95
3.42267	82
3.42633	71
3.43000	58
3.43367	50
3.43733	50
3.44100	51
3.44467	47
3.44833	40
3.45200	33
3.45567	29
3.45933	25
3.46300	21
3.46667	20
3.47033	23
3.47400	30
3.47767	34
3.48133	38
3.48500	41
3.48867	48
3.49233	52
3.49600	47
3.49967	33
3.50333	26
3.50700	25
3.51067	25
3.51433	25
3.51800	25
3.52167	24
3.52533	26
3.52900	33
3.53267	38
3.53633	39
3.54000	39
3.54367	33
3.54733	28
3.55100	30
3.55467	34
3.55833	41
3.56200	42
3.56567	39
3.56933	34
3.57300	31
3.57667	30
3.58033	31
3.58400	40
3.58767	51
3.59133	55
3.59500	49
3.59867	36
3.60233	24
3.60600	20
3.60967	20
3.61333	21
3.61700	23
3.62067	25
3.62433	24
3.62800	21
3.63167	24
3.63533	31
3.63900	39
3.64267	41
3.64633	39
3.65000	34
3.65367	26
3.65733	21
3.66100	19
3.66467	22
3.66833	27
3.67200	34
3.67567	43
3.67933	42
3.68300	35
3.68667	27
3.69033	22
3.69400	20
3.69767	23
3.70133	26
3.70500	26
3.70867	28
3.71233	25
3.71600	15
3.71967	5
3.72333	-4
3.72700	-8
3.73067	-4
3.73433	-2
3.73800	-1
3.74167	-1
3.74533	1
3.74900	7
3.75267	14
3.75633	14
3.76000	11
3.76367	5
3.76733	1
3.77100	1
3.77467	3
3.77833	8
3.78200	14
3.78567	20
3.78933	22
3.79300	23
3.79667	21
3.80033	16
3.80400	8
3.80767	2
3.81133	-1
3.81500	-3
3.81867	1
3.82233	6
3.82600	8
3.82967	5
3.83333	4
3.83700	3
3.84067	-2
3.84433	-3
3.84800	0
3.85167	8
3.85533	13
3.85900	18
3.86267	25
3.86633	31
3.87000	30
3.87367	23
3.87733	16
3.88100	8
3.88467	0
3.88833	-5
3.89200	-4
3.89567	0
3.89933	4
3.90300	3
3.90667	2
3.91033	2
3.91400	-1
3.91767	-10
3.92133	-22
3.92500	-33
3.92867	-39
3.93233	-41
3.93600	-42
3.93967	-38
3.94333	-32
3.94700	-25
3.95067	-12
3.95433	1
3.95800	5
3.96167	2
3.96533	-3
3.96900	-7
3.97267	-5
3.97633	5
3.98000	11
3.98367	14
3.98733	18
3.99100	18
3.99467	14
3.99833	8

[Chromatogram (Ch2)]
Interval(msec)	220
# of Points	1091
Start Time(min)	0.002
End Time(min)	3.998
R.Time (min)	Intensity
0.00167	-1
0.00533	-1
0.00900	-0
0.01267	-0
0.01633	-0
0.02000	0
0.02367	0
0.02733	0
0.03100	0
0.03467	1
0.03833	1
0.04200	1
0.04567	1
0.04933	1
0.05300	1
0.05667	1
0.06033	1
0.06400	0
0.06767	0
0.07133	-0
0.07500	-0
0.07867	-0
0.08233	-0
0.08600	-0
0.08967	0
0.09333	1
0.09700	2
0.10067	3
0.10433	3
0.10800	3
0.11167	3
0.11533	3
0.11900	4
0.12267	4
0.12633	5
0.13000	5
0.13367	5
0.13733	6
0.14100	6
0.14467	5
0.14833	5
0.15200	5
0.15567	5
0.15933	4
0.16300	4
0.16667	4
0.17033	4
0.17400	3
0.17767	3
0.18133	3
0.18500	3
0.18867	3
0.19233	3
0.19600	3
0.19967	3
0.20333	3
0.20700	3
0.21067	3
0.21433	3
0.21800	3
0.22167	3
0.22533	3
0.22900	3
0.23267	2
0.23633	2
0.24000	2
0.24367	2
0.24733	2
0.25100	2
0.25467	2
0.25833	2
0.26200	2
0.26567	2
0.26933	2
0.27300	2
0.27667	3
0.28033	3
0.28400	3
0.28767	3
0.29133	3
0.29500	2
0.29867	2
0.30233	2
0.30600	2
0.30967	2
0.31333	2
0.31700	2
0.32067	2
0.32433	2
0.32800	2
0.33167	2
0.33533	2
0.33900	2
0.34267	2
0.34633	1
0.35000	1
0.35367	2
0.35733	2
0.36100	2
0.36467	1
0.36833	1
0.37200	1
0.37567	1
0.37933	1
0.38300	1
0.38667	1
0.39033	1
0.39400	1
0.39767	1
0.40133	1
0.40500	1
0.40867	1
0.41233	1
0.41600	1
0.41967	1
0.42333	2
0.42700	2
0.43067	1
0.43433	1
0.43800	1
0.44167	1
0.44533	1
0.44900	1
0.45267	1
0.45633	1
0.46000	1
0.46367	2
0.46733	2
0.47100	2
0.47467	2
0.47833	3
0.48200	3
0.48567	3
0.48933	3
0.49300	3
0.49667	3
0.50033	3
0.50400	3
0.50767	4
0.51133	4
0.51500	3
0.51867	3
0.52233	3
0.52600	2
0.52967	2
0.53333	1
0.53700	1
0.54067	0
0.54433	-0
0.54800	-1
0.55167	-1
0.55533	-1
0.55900	-1
0.56267	-1
0.56633	-1
0.57000	-1
0.57367	-1
0.57733	-1
0.58100	-1
0.58467	-1
0.58833	-1
0.59200	-1
0.59567	-0
0.59933	-0
0.60300	0
0.60667	1
0.61033	1
0.61400	1
0.61767	2
0.62133	2
0.62500	2
0.62867	2
0.63233	2
0.63600	2
0.63967	2
0.64333	2
0.64700	2
0.65067	2
0.65433	2
0.65800	1
0.66167	1
0.66533	1
0.66900	0
0.67267	0
0.67633	0
0.68000	0
0.68367	0
0.68733	0
0.69100	0
0.69467	0
0.69833	0
0.70200	-0
0.70567	-0
0.70933	-0
0.71300	-0
0.71667	-1
0.72033	-1
0.72400	-1
0.72767	-0
0.73133	-0
0.73500	0
0.73867	0
0.74233	1
0.74600	1
0.74967	1
0.75333	1
0.75700	2
0.76067	2
0.76433	2
0.76800	2
0.77167	2
0.77533	3
0.77900	3
0.78267	3
0.78633	3
0.79000	3
0.79367	3
0.79733	3
0.80100	2
0.80467	2
0.80833	1
0.81200	0
0.81567	-0
0.81933	-1
0.82300	-1
0.82667	-1
0.83033	-1
0.83400	-1
0.83767	-1
0.84133	-1
0.84500	-1
0.84867	-1
0.85233	-1
0.85600	-1
0.85967	-1
0.86333	-1
0.86700	-1
0.87067	-1
0.87433	-1
0.87800	-1
0.88167	-1
0.88533	-1
0.88900	-1
0.89267	-1
0.89633	-1
0.90000	-1
0.90367	-1
0.90733	-1
0.91100	-1
0.91467	-1
0.91833	-1
0.92200	-1
0.92567	-1
0.92933	-1
0.93300	-1
0.93667	-1
0.94033	-0
0.94400	-0
0.94767	0
0.95133	0
0.95500	0
0.95867	-0
0.96233	-0
0.96600	-0
0.96967	0
0.97333	0
0.97700	0
0.98067	1
0.98433	1
0.98800	1
0.99167	1
0.99533	1
0.99900	1
1.00267	1
1.00633	1
1.01000	1
1.01367	0
1.01733	0
1.02100	0
1.02467	0
1.02833	1
1.03200	1
1.03567	1
1.03933	1
1.04300	1
1.04667	1
1.05033	1
1.05400	1
1.05767	1
1.06133	1
1.06500	1
1.06867	1
1.07233	1
1.07600	1
1.07967	1
1.08333	0
1.08700	0
1.09067	0
1.09433	0
1.09800	1
1.10167	1
1.10533	1
1.10900	2
1.11267	2
1.11633	2
1.12000	2
1.12367	2
1.12733	1
1.13100	1
1.13467	1
1.13833	1
1.14200	1
1.14567	1
1.14933	0
1.15300	0
1.15667	-0
1.16033	-0
1.16400	-0
1.16767	-0
1.17133	-0
1.17500	-0
1.17867	0
1.18233	0
1.18600	0
1.18967	1
1.19333	1
1.19700	1
1.20067	1
1.20433	1
1.20800	1
1.21167	1
1.21533	1
1.21900	1
1.22267	1
1.22633	1
1.23000	1
1.23367	0
1.23733	0
1.24100	-0
1.24467	-0
1.24833	-0
1.25200	-1
1.25567	-1
1.25933	-1
1.26300	-1
1.26667	-2
1.27033	-2
1.27400	-2
1.27767	-2
1.28133	-2
1.28500	-2
1.28867	-2
1.29233	-2
1.29600	-2
1.29967	-2
1.30333	-1
1.30700	-1
1.31067	-1
1.31433	-0
1.31800	-0
1.32167	0
1.32533	0
1.32900	1
1.33267	1
1.33633	1
1.34000	1
1.34367	1
1.34733	1
1.35100	1
1.35467	1
1.35833	1
1.36200	1
1.36567	2
1.36933	2
1.37300	2
1.37667	2
1.38033	2
1.38400	2
1.38767	2
1.39133	2
1.39500	1
1.39867	1
1.40233	1
1.40600	1
1.40967	1
1.41333	0
1.41700	0
1.42067	0
1.42433	-0
1.42800	-1
1.43167	-1
1.43533	-1
1.43900	-1
1.44267	-1
1.44633	-2
1.45000	-2
1.45367	-2
1.45733	-2
1.46100	-3
1.46467	-3
1.46833	-3
1.47200	-4
1.47567	-4
1.47933	-4
1.48300	-4
1.48667	-4
1.49033	-5
1.49400	-5
1.49767	-5
1.50133	-5
1.50500	-5
1.50867	-5
1.51233	-5
1.51600	-4
1.51967	-4
1.52333	-4
1.52700	-4
1.53067	-3
1.53433	-3
1.53800	-3
1.54167	-2
1.54533	-2
1.54900	-1
1.55267	-1
1.55633	-1
1.56000	-1
1.56367	-1
1.56733	-1
1.57100	-1
1.57467	-1
1.57833	-1
1.58200	-1
1.58567	-1
1.58933	-1
1.59300	-1
1.59667	-2
1.60033	-2
1.60400	-3
1.60767	-4
1.61133	-5
1.61500	-7
1.61867	-9
1.62233	-11
1.62600	-14
1.62967	-18
1.63333	-21
1.63700	-25
1.64067	-29
1.64433	-33
1.64800	-38
1.65167	-42
1.65533	-46
1.65900	-50
1.66267	-54
1.66633	-59
1.67000	-63
1.67367	-69
1.67733	-74
1.68100	-78
1.68467	-83
1.68833	-87
1.69200	-91
1.69567	-95
1.69933	-98
1.70300	-100
1.70667	-102
1.71033	-104
1.71400	-105
1.71767	-106
1.72133	-107
1.72500	-107
1.72867	-107
1.73233	-107
1.73600	-107
1.73967	-106
1.74333	-106
1.74700	-106
1.75067	-106
1.75433	-106
1.75800	-106
1.76167	-106
1.76533	-107
1.76900	-109
1.77267	-110
1.77633	-110
1.78000	-111
1.78367	-112
1.78733	-112
1.79100	-113
1.79467	-113
1.79833	-114
1.80200	-114
1.80567	-114
1.80933	-114
1.81300	-114
1.81667	-114
1.82033	-114
1.82400	-114
1.82767	-114
1.83133	-113
1.83500	-113
1.83867	-112
1.84233	-112
1.84600	-111
1.84967	-111
1.85333	-111
1.85700	-111
1.86067	-110
1.86433	-110
1.86800	-109
1.87167	-109
1.87533	-109
1.87900	-109
1.88267	-109
1.88633	-110
1.89000	-110
1.89367	-110
1.89733	-111
1.90100	-111
1.90467	-111
1.90833	-111
1.91200	-111
1.91567	-111
1.91933	-111
1.92300	-111
1.92667	-111
1.93033	-111
1.93400	-110
1.93767	-110
1.94133	-110
1.94500	-110
1.94867	-110
1.95233	-109
1.95600	-109
1.95967	-109
1.96333	-109
1.96700	-109
1.97067	-108
1.97433	-108
1.97800	-108
1.98167	-109
1.98533	-109
1.98900	-109
1.99267	-109
1.99633	-109
2.00000	-108
2.00367	-108
2.00733	-108
2.01100	-107
2.01467	-107
2.01833	-106
2.02200	-106
2.02567	-106
2.02933	-106
2.03300	-106
2.03667	-106
2.04033	-106
2.04400	-105
2.04767	-105
2.05133	-104
2.05500	-104
2.05867	-103
2.06233	-102
2.06600	-102
2.06967	-102
2.07333	-102
2.07700	-102
2.08067	-101
2.08433	-101
2.08800	-100
2.09167	-99
2.09533	-98
2.09900	-97
2.10267	-96
2.10633	-96
2.11000	-95
2.11367	-95
2.11733	-95
2.12100	-95
2.12467	-95
2.12833	-95
2.13200	-95
2.13567	-95
2.13933	-95
2.14300	-95
2.14667	-94
2.15033	-94
2.15400	-94
2.15767	-94
2.16133	-94
2.16500	-94
2.16867	-93
2.17233	-93
2.17600	-92
2.17967	-92
2.18333	-92
2.18700	-92
2.19067	-92
2.19433	-92
2.19800	-91
2.20167	-91
2.20533	-91
2.20900	-91
2.21267	-91
2.21633	-91
2.22000	-91
2.22367	-91
2.22733	-90
2.23100	-90
2.23467	-89
2.23833	-88
2.24200	-87
2.24567	-86
2.24933	-85
2.25300	-85
2.25667	-86
2.26033	-86
2.26400	-86
2.26767	-86
2.27133	-85
2.27500	-84
2.27867	-83
2.28233	-82
2.28600	-81
2.28967	-81
2.29333	-80
2.29700	-81
2.30067	-81
2.30433	-82
2.30800	-82
2.31167	-81
2.31533	-81
2.31900	-81
2.32267	-81
2.32633	-80
2.33000	-80
2.33367	-80
2.33733	-79
2.34100	-78
2.34467	-77
2.34833	-76
2.35200	-75
2.35567	-74
2.35933	-74
2.36300	-73
2.36667	-71
2.37033	-69
2.37400	-67
2.37767	-64
2.38133	-60
2.38500	-57
2.38867	-53
2.39233	-48
2.39600	-44
2.39967	-39
2.40333	-34
2.40700	-30
2.41067	-26
2.41433	-22
2.41800	-19
2.42167	-16
2.42533	-13
2.42900	-11
2.43267	-10
2.43633	-9
2.44000	-9
2.44367	-8
2.44733	-8
2.45100	-8
2.45467	-7
2.45833	-6
2.46200	-5
2.46567	-4
2.46933	-3
2.47300	-1
2.47667	-0
2.48033	1
2.48400	2
2.48767	3
2.49133	4
2.49500	5
2.49867	5
2.50233	5
2.50600	6
2.50967	6
2.51333	7
2.51700	8
2.52067	9
2.52433	9
2.52800	9
2.53167	10
2.53533	10
2.53900	11
2.54267	12
2.54633	12
2.55000	13
2.55367	13
2.55733	13
2.56100	14
2.56467	13
2.56833	13
2.57200	13
2.57567	13
2.57933	14
2.58300	14
2.58667	15
2.59033	15
2.59400	15
2.59767	15
2.60133	15
2.60500	15
2.60867	15
2.61233	15
2.61600	15
2.61967	15
2.62333	16
2.62700	16
2.63067	17
2.63433	17
2.63800	17
2.64167	18
2.64533	18
2.64900	18
2.65267	19
2.65633	20
2.66000	20
2.66367	21
2.66733	21
2.67100	21
2.67467	21
2.67833	21
2.68200	20
2.68567	20
2.68933	20
2.69300	21
2.69667	21
2.70033	21
2.70400	22
2.70767	22
2.71133	23
2.71500	24
2.71867	25
2.72233	26
2.72600	27
2.72967	27
2.73333	28
2.73700	28
2.74067	28
2.74433	29
2.74800	29
2.75167	28
2.75533	28
2.75900	28
2.76267	28
2.76633	27
2.77000	27
2.77367	26
2.77733	26
2.78100	26
2.78467	26
2.78833	26
2.79200	25
2.79567	25
2.79933	25
2.80300	25
2.80667	25
2.81033	25
2.81400	25
2.81767	25
2.82133	25
2.82500	25
2.82867	25
2.83233	26
2.83600	26
2.83967	25
2.84333	25
2.84700	23
2.85067	20
2.85433	14
2.85800	6
2.86167	-6
2.86533	-22
2.86900	-41
2.87267	-66
2.87633	-94
2.88000	-128
2.88367	-165
2.88733	-206
2.89100	-251
2.89467	-299
2.89833	-349
2.90200	-402
2.90567	-456
2.90933	-511
2.91300	-567
2.91667	-622
2.92033	-678
2.92400	-732
2.92767	-785
2.93133	-836
2.93500	-888
2.93867	-944
2.94233	-1003
2.94600	-1056
2.94967	-1092
2.95333	-1105
2.95700	-1091
2.96067	-1054
2.96433	-998
2.96800	-928
2.97167	-850
2.97533	-770
2.97900	-689
2.98267	-612
2.98633	-539
2.99000	-471
2.99367	-410
2.99733	-355
3.00100	-306
3.00467	-262
3.00833	-224
3.01200	-191
3.01567	-162
3.01933	-137
3.02300	-115
3.02667	-97
3.03033	-81
3.03400	-67
3.03767	-56
3.04133	-46
3.04500	-37
3.04867	-29
3.05233	-23
3.05600	-17
3.05967	-13
3.06333	-9
3.06700	-5
3.07067	-2
3.07433	0
3.07800	3
3.08167	4
3.08533	6
3.08900	7
3.09267	8
3.09633	10
3.10000	10
3.10367	11
3.10733	12
3.11100	12
3.11467	13
3.11833	14
3.12200	14
3.12567	15
3.12933	15
3.13300	16
3.13667	16
3.14033	17
3.14400	17
3.14767	17
3.15133	18
3.15500	18
3.15867	18
3.16233	19
3.16600	19
3.16967	19
3.17333	20
3.17700	20
3.18067	20
3.18433	21
3.18800	21
3.19167	21
3.19533	22
3.19900	22
3.20267	22
3.20633	22
3.21000	22
3.21367	22
3.21733	22
3.22100	21
3.22467	21
3.22833	21
3.23200	21
3.23567	21
3.23933	21
3.24300	22
3.24667	22
3.25033	22
3.25400	23
3.25767	23
3.26133	23
3.26500	24
3.26867	24
3.27233	24
3.27600	25
3.27967	25
3.28333	25
3.28700	26
3.29067	26
3.29433	26
3.29800	27
3.30167	27
3.30533	27
3.30900	27
3.31267	27
3.31633	27
3.32000	27
3.32367	28
3.32733	28
3.33100	28
3.33467	28
3.33833	28
3.34200	28
3.34567	27
3.34933	27
3.35300	27
3.35667	27
3.36033	27
3.36400	27
3.36767	27
3.37133	26
3.37500	26
3.37867	26
3.38233	26
3.38600	26
3.38967	27
3.39333	27
3.39700	27
3.40067	27
3.40433	27
3.40800	27
3.41167	27
3.41533	27
3.41900	27
3.42267	27
3.42633	27
3.43000	27
3.43367	27
3.43733	27
3.44100	27
3.44467	27
3.44833	27
3.45200	27
3.45567	27
3.45933	26
3.46300	26
3.46667	26
3.47033	26
3.47400	26
3.47767	26
3.48133	26
3.48500	26
3.48867	26
3.49233	26
3.49600	27
3.49967	26
3.50333	26
3.50700	26
3.51067	26
3.51433	26
3.51800	26
3.52167	26
3.52533	26
3.52900	26
3.53267	26
3.53633	26
3.54000	26
3.54367	26
3.54733	26
3.55100	26
3.55467	26
3.55833	26
3.56200	26
3.56567	26
3.56933	26
3.57300	26
3.57667	27
3.58033	27
3.58400	27
3.58767	27
3.59133	27
3.59500	27
3.59867	27
3.60233	27
3.60600	27
3.60967	27
3.61333	27
3.61700	27
3.62067	27
3.62433	27
3.62800	27
3.63167	26
3.63533	27
3.63900	27
3.64267	26
3.64633	26
3.65000	26
3.65367	26
3.65733	26
3.66100	26
3.66467	26
3.66833	26
3.67200	26
3.67567	26
3.67933	26
3.68300	27
3.68667	27
3.69033	27
3.69400	27
3.69767	27
3.70133	27
3.70500	27
3.70867	27
3.71233	27
3.71600	27
3.71967	27
3.72333	27
3.72700	27
3.73067	27
3.73433	27
3.73800	27
3.74167	27
3.74533	27
3.74900	27
3.75267	27
3.75633	27
3.76000	27
3.76367	28
3.76733	28
3.77100	28
3.77467	28
3.77833	28
3.78200	28
3.78567	27
3.78933	27
3.79300	27
3.79667	27
3.80033	27
3.80400	27
3.80767	27
3.81133	26
3.81500	26
3.81867	26
3.82233	26
3.82600	26
3.82967	26
3.83333	26
3.83700	26
3.84067	26
3.84433	26
3.84800	26
3.85167	26
3.85533	26
3.85900	27
3.86267	27
3.86633	27
3.87000	27
3.87367	27
3.87733	28
3.88100	28
3.88467	28
3.88833	28
3.89200	28
3.89567	28
3.89933	28
3.90300	28
3.90667	28
3.91033	28
3.91400	28
3.91767	28
3.92133	28
3.92500	28
3.92867	28
3.93233	27
3.93600	27
3.93967	27
3.94333	27
3.94700	28
3.95067	28
3.95433	28
3.95800	28
3.96167	28
3.96533	28
3.96900	28
3.97267	28
3.97633	28
3.98000	28
3.98367	28
3.98733	28
3.99100	28
3.99467	28
3.99833	27

[Chromatogram (Ch3)]
Interval(msec)	220
# of Points	1091
Start Time(min)	0.002
End Time(min)	3.998
R.Time (min)	Intensity
0.00167	-0
0.00533	-1
0.00900	-0
0.01267	1
0.01633	1
0.02000	1
0.02367	1
0.02733	3
0.03100	5
0.03467	6
0.03833	4
0.04200	1
0.04567	2
0.04933	2
0.05300	2
0.05667	3
0.06033	5
0.06400	3
0.06767	3
0.07133	3
0.07500	2
0.07867	2
0.08233	1
0.08600	0
0.08967	-1
0.09333	-1
0.09700	0
0.10067	1
0.10433	2
0.10800	2
0.11167	2
0.11533	3
0.11900	5
0.12267	7
0.12633	8
0.13000	7
0.13367	7
0.13733	8
0.14100	9
0.14467	10
0.14833	10
0.15200	8
0.15567	8
0.15933	7
0.16300	6
0.16667	2
0.17033	-0
0.17400	-2
0.17767	-1
0.18133	-0
0.18500	1
0.18867	1
0.19233	2
0.19600	1
0.19967	2
0.20333	2
0.20700	2
0.21067	1
0.21433	2
0.21800	6
0.22167	7
0.22533	6
0.22900	5
0.23267	6
0.23633	8
0.24000	10
0.24367	9
0.24733	8
0.25100	6
0.25467	2
0.25833	1
0.26200	3
0.26567	5
0.26933	7
0.27300	8
0.27667	9
0.28033	9
0.28400	9
0.28767	7
0.29133	8
0.29500	8
0.29867	9
0.30233	11
0.30600	12
0.30967	10
0.31333	9
0.31700	8
0.32067	9
0.32433	11
0.32800	12
0.33167	12
0.33533	9
0.33900	7
0.34267	7
0.34633	6
0.35000	5
0.35367	5
0.35733	5
0.36100	8
0.36467	9
0.36833	5
0.37200	3
0.37567	3
0.37933	4
0.38300	2
0.38667	3
0.39033	5
0.39400	8
0.39767	10
0.40133	9
0.40500	8
0.40867	5
0.41233	3
0.41600	3
0.41967	3
0.42333	4
0.42700	6
0.43067	6
0.43433	6
0.43800	9
0.44167	11
0.44533	12
0.44900	12
0.45267	12
0.45633	13
0.46000	13
0.46367	12
0.46733	12
0.47100	9
0.47467	7
0.47833	6
0.48200	4
0.48567	4
0.48933	4
0.49300	5
0.49667	5
0.50033	5
0.50400	4
0.50767	2
0.51133	1
0.51500	2
0.51867	2
0.52233	2
0.52600	1
0.52967	0
0.53333	0
0.53700	1
0.54067	2
0.54433	3
0.54800	2
0.55167	1
0.55533	-1
0.55900	-0
0.56267	3
0.56633	7
0.57000	10
0.57367	12
0.57733	12
0.58100	12
0.58467	9
0.58833	7
0.59200	6
0.59567	4
0.59933	2
0.60300	1
0.60667	1
0.61033	1
0.61400	0
0.61767	0
0.62133	1
0.62500	2
0.62867	3
0.63233	4
0.63600	3
0.63967	2
0.64333	3
0.64700	3
0.65067	-0
0.65433	-1
0.65800	1
0.66167	3
0.66533	4
0.66900	4
0.67267	5
0.67633	7
0.68000	8
0.68367	6
0.68733	4
0.69100	3
0.69467	4
0.69833	4
0.70200	3
0.70567	2
0.70933	1
0.71300	1
0.71667	2
0.72033	2
0.72400	2
0.72767	2
0.73133	1
0.73500	2
0.73867	3
0.74233	2
0.74600	3
0.74967	3
0.75333	4
0.75700	6
0.76067	8
0.76433	6
0.76800	5
0.77167	4
0.77533	4
0.77900	5
0.78267	5
0.78633	3
0.79000	3
0.79367	2
0.79733	2
0.80100	4
0.80467	4
0.80833	4
0.81200	3
0.81567	2
0.81933	1
0.82300	-1
0.82667	-1
0.83033	-1
0.83400	-2
0.83767	-3
0.84133	-2
0.84500	-1
0.84867	-0
0.85233	0
0.85600	-1
0.85967	0
0.86333	1
0.86700	2
0.87067	4
0.87433	3
0.87800	4
0.88167	4
0.88533	5
0.88900	6
0.89267	6
0.89633	6
0.90000	5
0.90367	5
0.90733	5
0.91100	7
0.91467	6
0.91833	6
0.92200	4
0.92567	5
0.92933	7
0.93300	9
0.93667	7
0.94033	5
0.94400	4
0.94767	5
0.95133	5
0.95500	5
0.95867	5
0.96233	6
0.96600	6
0.96967	7
0.97333	9
0.97700	8
0.98067	7
0.98433	7
0.98800	7
0.99167	6
0.99533	6
0.99900	7
1.00267	9
1.00633	10
1.01000	9
1.01367	9
1.01733	8
1.02100	7
1.02467	6
1.02833	7
1.03200	8
1.03567	9
1.03933	9
1.04300	10
1.04667	12
1.05033	13
1.05400	13
1.05767	13
1.06133	11
1.06500	11
1.06867	10
1.07233	10
1.07600	9
1.07967	8
1.08333	7
1.08700	7
1.09067	8
1.09433	9
1.09800	9
1.10167	9
1.10533	8
1.10900	7
1.11267	8
1.11633	10
1.12000	12
1.12367	11
1.12733	10
1.13100	7
1.13467	6
1.13833	6
1.14200	8
1.14567	9
1.14933	9
1.15300	10
1.15667	11
1.16033	10
1.16400	8
1.16767	6
1.17133	5
1.17500	5
1.17867	4
1.18233	5
1.18600	5
1.18967	6
1.19333	7
1.19700	7
1.20067	9
1.20433	11
1.20800	9
1.21167	8
1.21533	8
1.21900	8
1.22267	7
1.22633	6
1.23000	7
1.23367	7
1.23733	8
1.24100	10
1.24467	13
1.24833	13
1.25200	14
1.25567	13
1.25933	13
1.26300	13
1.26667	12
1.27033	8
1.27400	7
1.27767	8
1.28133	11
1.28500	13
1.28867	14
1.29233	15
1.29600	13
1.29967	9
1.30333	9
1.30700	8
1.31067	7
1.31433	5
1.31800	5
1.32167	8
1.32533	10
1.32900	12
1.33267	12
1.33633	12
1.34000	11
1.34367	11
1.34733	11
1.35100	12
1.35467	12
1.35833	14
1.36200	14
1.36567	14
1.36933	14
1.37300	15
1.37667	14
1.38033	14
1.38400	14
1.38767	14
1.39133	15
1.39500	15
1.39867	13
1.40233	12
1.40600	13
1.40967	14
1.41333	13
1.41700	13
1.42067	12
1.42433	12
1.42800	12
1.43167	14
1.43533	14
1.43900	11
1.44267	9
1.44633	10
1.45000	11
1.45367	12
1.45733	12
1.46100	12
1.46467	13
1.46833	14
1.47200	15
1.47567	17
1.47933	18
1.48300	18
1.48667	19
1.49033	17
1.49400	15
1.49767	14
1.50133	14
1.50500	12
1.50867	12
1.51233	14
1.51600	16
1.51967	17
1.52333	17
1.52700	15
1.53067	14
1.53433	13
1.53800	16
1.54167	18
1.54533	17
1.54900	15
1.55267	15
1.55633	15
1.56000	15
1.56367	14
1.56733	15
1.57100	15
1.57467	14
1.57833	13
1.58200	14
1.58567	16
1.58933	17
1.59300	15
1.59667	16
1.60033	17
1.60400	18
1.60767	18
1.61133	20
1.61500	21
1.61867	22
1.62233	22
1.62600	23
1.62967	21
1.63333	20
1.63700	19
1.64067	18
1.64433	18
1.64800	18
1.65167	19
1.65533	20
1.65900	22
1.66267	23
1.66633	24
1.67000	24
1.67367	24
1.67733	28
1.68100	31
1.68467	32
1.68833	31
1.69200	31
1.69567	30
1.69933	30
1.70300	31
1.70667	30
1.71033	31
1.71400	29
1.71767	28
1.72133	28
1.72500	28
1.72867	31
1.73233	34
1.73600	34
1.73967	34
1.74333	36
1.74700	37
1.75067	35
1.75433	36
1.75800	39
1.76167	41
1.76533	40
1.76900	40
1.77267	37
1.77633	37
1.78000	38
1.78367	40
1.78733	42
1.79100	42
1.79467	41
1.79833	41
1.80200	41
1.80567	41
1.80933	40
1.81300	42
1.81667	43
1.82033	44
1.82400	45
1.82767	47
1.83133	49
1.83500	49
1.83867	49
1.84233	49
1.84600	46
1.84967	47
1.85333	50
1.85700	52
1.86067	54
1.86433	53
1.86800	52
1.87167	54
1.87533	57
1.87900	57
1.88267	57
1.88633	56
1.89000	55
1.89367	55
1.89733	57
1.90100	58
1.90467	57
1.90833	56
1.91200	54
1.91567	54
1.91933	56
1.92300	60
1.92667	62
1.93033	63
1.93400	65
1.93767	65
1.94133	66
1.94500	67
1.94867	68
1.95233	69
1.95600	71
1.95967	72
1.96333	71
1.96700	71
1.97067	73
1.97433	74
1.97800	75
1.98167	77
1.98533	78
1.98900	79
1.99267	80
1.99633	82
2.00000	86
2.00367	89
2.00733	92
2.01100	93
2.01467	92
2.01833	93
2.02200	96
2.02567	96
2.02933	94
2.03300	92
2.03667	93
2.04033	96
2.04400	97
2.04767	97
2.05133	99
2.05500	100
2.05867	102
2.06233	104
2.06600	104
2.06967	104
2.07333	104
2.07700	107
2.08067	111
2.08433	115
2.08800	117
2.09167	117
2.09533	115
2.09900	114
2.10267	116
2.10633	117
2.11000	120
2.11367	120
2.11733	120
2.12100	120
2.12467	121
2.12833	123
2.13200	125
2.13567	129
2.13933	133
2.14300	137
2.14667	138
2.15033	138
2.15400	136
2.15767	136
2.16133	136
2.16500	137
2.16867	139
2.17233	141
2.17600	142
2.17967	145
2.18333	147
2.18700	150
2.19067	152
2.19433	154
2.19800	154
2.20167	155
2.20533	156
2.20900	159
2.21267	160
2.21633	160
2.22000	160
2.22367	160
2.22733	161
2.23100	163
2.23467	163
2.23833	163
2.24200	165
2.24567	165
2.24933	167
2.25300	170
2.25667	172
2.26033	173
2.26400	173
2.26767	173
2.27133	174
2.27500	174
2.27867	174
2.28233	175
2.28600	177
2.28967	179
2.29333	183
2.29700	185
2.30067	186
2.30433	189
2.30800	191
2.31167	191
2.31533	195
2.31900	199
2.32267	204
2.32633	205
2.33000	205
2.33367	205
2.33733	207
2.34100	207
2.34467	206
2.34833	208
2.35200	210
2.35567	213
2.35933	216
2.36300	218
2.36667	220
2.37033	222
2.37400	221
2.37767	221
2.38133	221
2.38500	222
2.38867	220
2.39233	219
2.39600	219
2.39967	221
2.40333	224
2.40700	227
2.41067	229
2.41433	229
2.41800	230
2.42167	232
2.42533	233
2.42900	234
2.43267	235
2.43633	234
2.44000	237
2.44367	295
2.44733	447
2.45100	610
2.45467	744
2.45833	821
2.46200	829
2.46567	794
2.46933	751
2.47300	717
2.47667	697
2.48033	682
2.48400	656
2.48767	616
2.49133	568
2.49500	522
2.49867	484
2.50233	454
2.50600	438
2.50967	432
2.51333	437
2.51700	453
2.52067	476
2.52433	499
2.52800	515
2.53167	519
2.53533	507
2.53900	483
2.54267	452
2.54633	418
2.55000	386
2.55367	357
2.55733	334
2.56100	316
2.56467	302
2.56833	292
2.57200	286
2.57567	282
2.57933	280
2.58300	280
2.58667	281
2.59033	283
2.59400	284
2.59767	287
2.60133	290
2.60500	289
2.60867	287
2.61233	282
2.61600	277
2.61967	272
2.62333	266
2.62700	261
2.63067	256
2.63433	251
2.63800	246
2.64167	239
2.64533	231
2.64900	221
2.65267	208
2.65633	194
2.66000	182
2.66367	169
2.66733	159
2.67100	150
2.67467	140
2.67833	130
2.68200	124
2.68567	119
2.68933	115
2.69300	110
2.69667	108
2.70033	109
2.70400	112
2.70767	113
2.71133	114
2.71500	115
2.71867	118
2.72233	120
2.72600	121
2.72967	120
2.73333	121
2.73700	124
2.74067	126
2.74433	128
2.74800	131
2.75167	134
2.75533	139
2.75900	143
2.76267	146
2.76633	149
2.77000	152
2.77367	156
2.77733	157
2.78100	158
2.78467	158
2.78833	160
2.79200	165
2.79567	170
2.79933	175
2.80300	180
2.80667	186
2.81033	192
2.81400	199
2.81767	206
2.82133	216
2.82500	237
2.82867	273
2.83233	339
2.83600	458
2.83967	653
2.84333	939
2.84700	1330
2.85067	1816
2.85433	2373
2.85800	2963
2.86167	3544
2.86533	4065
2.86900	4485
2.87267	4778
2.87633	4929
2.88000	4939
2.88367	4828
2.88733	4619
2.89100	4342
2.89467	4023
2.89833	3683
2.90200	3338
2.90567	3003
2.90933	2687
2.91300	2395
2.91667	2130
2.92033	1891
2.92400	1676
2.92767	1485
2.93133	1315
2.93500	1165
2.93867	1034
2.94233	922
2.94600	823
2.94967	737
2.95333	661
2.95700	593
2.96067	532
2.96433	479
2.96800	438
2.97167	403
2.97533	371
2.97900	344
2.98267	321
2.98633	302
2.99000	286
2.99367	269
2.99733	254
3.00100	241
3.00467	230
3.00833	219
3.01200	208
3.01567	201
3.01933	196
3.02300	193
3.02667	188
3.03033	184
3.03400	183
3.03767	180
3.04133	178
3.04500	179
3.04867	178
3.05233	176
3.05600	175
3.05967	175
3.06333	173
3.06700	169
3.07067	168
3.07433	170
3.07800	172
3.08167	173
3.08533	170
3.08900	170
3.09267	170
3.09633	170
3.10000	169
3.10367	168
3.10733	167
3.11100	167
3.11467	167
3.11833	167
3.12200	162
3.12567	159
3.12933	166
3.13300	186
3.13667	216
3.14033	250
3.14400	286
3.14767	323
3.15133	356
3.15500	390
3.15867	426
3.16233	456
3.16600	484
3.16967	508
3.17333	531
3.17700	552
3.18067	568
3.18433	583
3.18800	597
3.19167	608
3.19533	620
3.19900	633
3.20267	646
3.20633	656
3.21000	665
3.21367	673
3.21733	681
3.22100	691
3.22467	700
3.22833	709
3.23200	716
3.23567	723
3.23933	729
3.24300	735
3.24667	741
3.25033	746
3.25400	752
3.25767	759
3.26133	765
3.26500	772
3.26867	779
3.27233	785
3.27600	790
3.27967	794
3.28333	798
3.28700	802
3.29067	806
3.29433	811
3.29800	816
3.30167	822
3.30533	828
3.30900	830
3.31267	829
3.31633	829
3.32000	829
3.32367	827
3.32733	826
3.33100	828
3.33467	830
3.33833	830
3.34200	830
3.34567	830
3.34933	830
3.35300	830
3.35667	828
3.36033	827
3.36400	825
3.36767	825
3.37133	828
3.37500	829
3.37867	830
3.38233	829
3.38600	827
3.38967	826
3.39333	823
3.39700	820
3.40067	816
3.40433	813
3.40800	810
3.41167	807
3.41533	804
3.41900	799
3.42267	796
3.42633	794
3.43000	794
3.43367	794
3.43733	793
3.44100	791
3.44467	787
3.44833	784
3.45200	782
3.45567	782
3.45933	780
3.46300	778
3.46667	776
3.47033	775
3.47400	774
3.47767	774
3.48133	772
3.48500	771
3.48867	770
3.49233	769
3.49600	766
3.49967	765
3.50333	764
3.50700	761
3.51067	758
3.51433	758
3.51800	757
3.52167	755
3.52533	754
3.52900	755
3.53267	754
3.53633	755
3.54000	756
3.54367	754
3.54733	753
3.55100	754
3.55467	755
3.55833	755
3.56200	755
3.56567	756
3.56933	756
3.57300	754
3.57667	753
3.58033	751
3.58400	749
3.58767	747
3.59133	746
3.59500	745
3.59867	742
3.60233	741
3.60600	741
3.60967	740
3.61333	738
3.61700	737
3.62067	736
3.62433	736
3.62800	738
3.63167	739
3.63533	742
3.63900	744
3.64267	744
3.64633	740
3.65000	736
3.65367	734
3.65733	733
3.66100	732
3.66467	732
3.66833	730
3.67200	728
3.67567	725
3.67933	726
3.68300	725
3.68667	722
3.69033	718
3.69400	718
3.69767	718
3.70133	717
3.70500	715
3.70867	712
3.71233	709
3.71600	706
3.71967	703
3.72333	701
3.72700	698
3.73067	697
3.73433	696
3.73800	697
3.74167	696
3.74533	694
3.74900	693
3.75267	692
3.75633	692
3.76000	691
3.76367	689
3.76733	686
3.77100	682
3.77467	678
3.77833	675
3.78200	672
3.78567	670
3.78933	669
3.79300	668
3.79667	666
3.80033	665
3.80400	664
3.80767	663
3.81133	661
3.81500	659
3.81867	657
3.82233	656
3.82600	656
3.82967	655
3.83333	652
3.83700	648
3.84067	644
3.84433	641
3.84800	638
3.85167	634
3.85533	632
3.85900	633
3.86267	632
3.86633	630
3.87000	628
3.87367	627
3.87733	625
3.88100	623
3.88467	620
3.88833	617
3.89200	615
3.89567	613
3.89933	612
3.90300	610
3.90667	609
3.91033	609
3.91400	609
3.91767	607
3.92133	605
3.92500	603
3.92867	602
3.93233	601
3.93600	598
3.93967	595
3.94333	593
3.94700	593
3.95067	592
3.95433	594
3.95800	595
3.96167	593
3.96533	591
3.96900	591
3.97267	588
3.97633	584
3.98000	581
3.98367	581
3.98733	581
3.99100	581
3.99467	580
3.99833	577

[Status Trace (Column Oven Temperature)]
Interval(msec)	1000
# of Points	240
Start Time(min)	0.014
End Time(min)	3.998
Intensity Units	
Intensity Multiplier	1
R.Time (min)	Intensity
0.01447	35.06
0.03113	35.06
0.04780	35.07
0.06447	35.08
0.08113	35.07
0.09780	35.06
0.11447	35.06
0.13113	35.05
0.14780	35.04
0.16447	35.04
0.18113	35.03
0.19780	35.03
0.21447	35.03
0.23113	35.02
0.24780	35.02
0.26447	35.02
0.28113	35.01
0.29780	35.01
0.31447	35.01
0.33113	35.02
0.34780	35.02
0.36447	35.03
0.38113	35.02
0.39780	35.02
0.41447	35.01
0.43113	35.01
0.44780	35.01
0.46447	35.00
0.48113	34.99
0.49780	34.98
0.51447	34.98
0.53113	34.98
0.54780	34.99
0.56447	35.00
0.58113	35.01
0.59780	35.01
0.61447	35.00
0.63113	35.00
0.64780	35.00
0.66447	35.00
0.68113	35.02
0.69780	35.02
0.71447	35.02
0.73113	35.02
0.74780	35.02
0.76447	35.00
0.78113	34.99
0.79780	34.99
0.81447	35.00
0.83113	35.01
0.84780	35.01
0.86447	35.02
0.88113	35.02
0.89780	35.02
0.91447	35.02
0.93113	35.03
0.94780	35.03
0.96447	35.02
0.98113	35.02
0.99780	35.02
1.01447	35.02
1.03113	35.02
1.04780	35.01
1.06447	35.01
1.08113	35.01
1.09780	35.00
1.11447	34.99
1.13113	34.99
1.14780	34.99
1.16447	34.99
1.18113	34.98
1.19780	34.97
1.21447	34.98
1.23113	34.98
1.24780	35.00
1.26447	35.01
1.28113	35.02
1.29780	35.02
1.31447	35.01
1.33113	35.00
1.34780	34.99
1.36447	34.98
1.38113	34.98
1.39780	34.99
1.41447	34.99
1.43113	34.99
1.44780	35.00
1.46447	35.01
1.48113	35.02
1.49780	35.02
1.51447	35.02
1.53113	35.01
1.54780	35.01
1.56447	35.01
1.58113	35.01
1.59780	35.03
1.61447	35.09
1.63113	35.24
1.64780	35.45
1.66447	35.75
1.68113	36.12
1.69780	36.49
1.71447	36.84
1.73113	37.15
1.74780	37.46
1.76447	37.80
1.78113	38.13
1.79780	38.47
1.81447	38.81
1.83113	39.13
1.84780	39.45
1.86447	39.76
1.88113	40.09
1.89780	40.42
1.91447	40.75
1.93113	41.07
1.94780	41.41
1.96447	41.73
1.98113	42.07
1.99780	42.39
2.01447	42.71
2.03113	43.05
2.04780	43.38
2.06447	43.71
2.08113	44.05
2.09780	44.36
2.11447	44.68
2.13113	45.01
2.14780	45.34
2.16447	45.66
2.18113	46.00
2.19780	46.32
2.21447	46.66
2.23113	46.97
2.24780	47.30
2.26447	47.63
2.28113	47.93
2.29780	48.30
2.31447	48.62
2.33113	48.96
2.34780	49.24
2.36447	49.52
2.38113	49.64
2.39780	49.67
2.41447	49.67
2.43113	49.68
2.44780	49.69
2.46447	49.68
2.48113	49.69
2.49780	49.72
2.51447	49.73
2.53113	49.76
2.54780	49.75
2.56447	49.79
2.58113	49.79
2.59780	49.81
2.61447	49.82
2.63113	49.83
2.64780	49.85
2.66447	49.84
2.68113	49.87
2.69780	49.88
2.71447	49.87
2.73113	49.85
2.74780	49.85
2.76447	49.86
2.78113	49.87
2.79780	49.89
2.81447	49.89
2.83113	49.89
2.84780	49.90
2.86447	49.91
2.88113	49.91
2.89780	49.92
2.91447	49.93
2.93113	49.94
2.94780	49.95
2.96447	49.97
2.98113	49.98
2.99780	49.99
3.01447	50.00
3.03113	50.02
3.04780	50.03
3.06447	50.04
3.08113	50.05
3.09780	50.06
3.11447	50.07
3.13113	50.08
3.14780	50.08
3.16447	50.08
3.18113	50.08
3.19780	50.09
3.21447	50.10
3.23113	50.12
3.24780	50.11
3.26447	50.10
3.28113	50.08
3.29780	50.08
3.31447	50.07
3.33113	50.05
3.34780	50.05
3.36447	50.05
3.38113	50.04
3.39780	50.03
3.41447	50.03
3.43113	50.04
3.44780	50.04
3.46447	50.04
3.48113	50.04
3.49780	50.05
3.51447	50.06
3.53113	50.07
3.54780	50.07
3.56447	50.07
3.58113	50.06
3.59780	50.07
3.61447	50.07
3.63113	50.07
3.64780	50.08
3.66447	50.08
3.68113	50.07
3.69780	50.07
3.71447	50.07
3.73113	50.07
3.74780	50.06
3.76447	50.06
3.78113	50.06
3.79780	50.07
3.81447	50.08
3.83113	50.07
3.84780	50.08
3.86447	50.08
3.88113	50.08
3.89780	50.08
3.91447	50.09
3.93113	50.09
3.94780	50.08
3.96447	50.07
3.98113	50.07
3.99780	50.07

[Status Trace (Injection Unit Temperature)]
Interval(msec)	1000
# of Points	240
Start Time(min)	0.014
End Time(min)	3.998
Intensity Units	
Intensity Multiplier	1
R.Time (min)	Intensity
0.01447	99.98
0.03113	99.98
0.04780	99.97
0.06447	99.98
0.08113	99.98
0.09780	99.98
0.11447	99.98
0.13113	99.98
0.14780	99.98
0.16447	99.98
0.18113	99.98
0.19780	99.98
0.21447	99.98
0.23113	99.98
0.24780	99.98
0.26447	99.98
0.28113	99.98
0.29780	99.97
0.31447	99.98
0.33113	99.98
0.34780	99.98
0.36447	99.98
0.38113	99.98
0.39780	99.98
0.41447	99.98
0.43113	99.98
0.44780	99.98
0.46447	99.98
0.48113	99.98
0.49780	99.98
0.51447	99.97
0.53113	99.98
0.54780	99.98
0.56447	99.97
0.58113	99.98
0.59780	99.98
0.61447	99.98
0.63113	99.98
0.64780	99.98
0.66447	99.98
0.68113	99.98
0.69780	99.98
0.71447	99.98
0.73113	99.98
0.74780	99.98
0.76447	99.98
0.78113	99.98
0.79780	99.98
0.81447	99.98
0.83113	99.98
0.84780	99.99
0.86447	99.98
0.88113	99.98
0.89780	99.99
0.91447	99.98
0.93113	99.98
0.94780	99.98
0.96447	99.98
0.98113	99.98
0.99780	99.98
1.01447	99.98
1.03113	99.99
1.04780	99.99
1.06447	99.99
1.08113	99.99
1.09780	99.99
1.11447	99.99
1.13113	99.99
1.14780	99.99
1.16447	99.99
1.18113	99.99
1.19780	99.99
1.21447	99.99
1.23113	99.99
1.24780	99.99
1.26447	99.99
1.28113	99.99
1.29780	99.99
1.31447	99.99
1.33113	99.99
1.34780	99.99
1.36447	99.99
1.38113	99.99
1.39780	99.99
1.41447	99.99
1.43113	99.99
1.44780	99.99
1.46447	99.99
1.48113	99.99
1.49780	99.99
1.51447	99.98
1.53113	99.99
1.54780	99.99
1.56447	99.99
1.58113	99.99
1.59780	99.99
1.61447	99.99
1.63113	99.99
1.64780	99.99
1.66447	99.99
1.68113	99.99
1.69780	99.99
1.71447	99.98
1.73113	99.98
1.74780	99.98
1.76447	99.98
1.78113	99.98
1.79780	99.99
1.81447	99.98
1.83113	99.98
1.84780	99.98
1.86447	99.98
1.88113	99.98
1.89780	99.98
1.91447	99.98
1.93113	99.98
1.94780	99.98
1.96447	99.98
1.98113	99.97
1.99780	99.97
2.01447	99.97
2.03113	99.98
2.04780	99.97
2.06447	99.97
2.08113	99.97
2.09780	99.97
2.11447	99.97
2.13113	99.96
2.14780	99.97
2.16447	99.96
2.18113	99.96
2.19780	99.96
2.21447	99.96
2.23113	99.96
2.24780	99.96
2.26447	99.96
2.28113	99.96
2.29780	99.96
2.31447	99.96
2.33113	99.96
2.34780	99.96
2.36447	99.97
2.38113	99.96
2.39780	99.96
2.41447	99.97
2.43113	99.96
2.44780	99.97
2.46447	99.97
2.48113	99.97
2.49780	99.97
2.51447	99.96
2.53113	99.97
2.54780	99.97
2.56447	99.97
2.58113	99.97
2.59780	99.97
2.61447	99.98
2.63113	99.98
2.64780	99.98
2.66447	99.98
2.68113	99.98
2.69780	99.98
2.71447	99.98
2.73113	99.99
2.74780	99.99
2.76447	99.99
2.78113	99.99
2.79780	100.00
2.81447	99.99
2.83113	99.99
2.84780	100.00
2.86447	100.00
2.88113	100.00
2.89780	100.00
2.91447	100.01
2.93113	100.01
2.94780	100.01
2.96447	100.01
2.98113	100.01
2.99780	100.01
3.01447	100.01
3.03113	100.01
3.04780	100.01
3.06447	100.01
3.08113	100.02
3.09780	100.02
3.11447	100.02
3.13113	100.02
3.14780	100.02
3.16447	100.02
3.18113	100.02
3.19780	100.02
3.21447	100.03
3.23113	100.03
3.24780	100.03
3.26447	100.03
3.28113	100.03
3.29780	100.03
3.31447	100.03
3.33113	100.03
3.34780	100.03
3.36447	100.04
3.38113	100.03
3.39780	100.04
3.41447	100.04
3.43113	100.04
3.44780	100.04
3.46447	100.04
3.48113	100.04
3.49780	100.05
3.51447	100.04
3.53113	100.05
3.54780	100.04
3.56447	100.04
3.58113	100.05
3.59780	100.05
3.61447	100.04
3.63113	100.05
3.64780	100.05
3.66447	100.04
3.68113	100.05
3.69780	100.05
3.71447	100.05
3.73113	100.05
3.74780	100.05
3.76447	100.05
3.78113	100.05
3.79780	100.05
3.81447	100.04
3.83113	100.05
3.84780	100.05
3.86447	100.05
3.88113	100.05
3.89780	100.05
3.91447	100.05
3.93113	100.05
3.94780	100.05
3.96447	100.05
3.98113	100.05
3.99780	100.05

[Status Trace (Carrier Gas Pressure)]
Interval(msec)	1000
# of Points	240
Start Time(min)	0.014
End Time(min)	3.998
Intensity Units	
Intensity Multiplier	1
R.Time (min)	Intensity
0.01447	57.36
0.03113	55.63
0.04780	57.96
0.06447	59.85
0.08113	58.81
0.09780	57.98
0.11447	58.00
0.13113	58.01
0.14780	58.01
0.16447	58.00
0.18113	58.00
0.19780	58.00
0.21447	58.00
0.23113	58.00
0.24780	58.00
0.26447	58.00
0.28113	58.00
0.29780	58.00
0.31447	58.00
0.33113	58.00
0.34780	58.00
0.36447	58.00
0.38113	58.00
0.39780	58.00
0.41447	58.00
0.43113	58.00
0.44780	58.00
0.46447	58.00
0.48113	58.00
0.49780	58.00
0.51447	58.00
0.53113	58.00
0.54780	58.00
0.56447	58.00
0.58113	58.00
0.59780	58.00
0.61447	58.00
0.63113	58.00
0.64780	58.00
0.66447	58.00
0.68113	58.00
0.69780	58.00
0.71447	58.00
0.73113	58.00
0.74780	58.00
0.76447	58.00
0.78113	58.00
0.79780	58.00
0.81447	58.00
0.83113	58.00
0.84780	58.00
0.86447	58.00
0.88113	58.00
0.89780	58.00
0.91447	58.00
0.93113	58.00
0.94780	58.00
0.96447	58.00
0.98113	58.00
0.99780	58.00
1.01447	58.00
1.03113	58.00
1.04780	58.00
1.06447	58.00
1.08113	58.00
1.09780	58.00
1.11447	58.00
1.13113	58.00
1.14780	58.00
1.16447	58.00
1.18113	58.00
1.19780	58.00
1.21447	58.00
1.23113	58.00
1.24780	58.00
1.26447	58.00
1.28113	58.00
1.29780	58.00
1.31447	58.00
1.33113	58.00
1.34780	58.00
1.36447	58.00
1.38113	58.00
1.39780	58.00
1.41447	58.00
1.43113	58.00
1.44780	58.00
1.46447	58.00
1.48113	58.00
1.49780	58.00
1.51447	58.00
1.53113	58.00
1.54780	58.00
1.56447	58.00
1.58113	58.00
1.59780	58.00
1.61447	58.00
1.63113	58.01
1.64780	58.01
1.66447	58.01
1.68113	58.01
1.69780	58.00
1.71447	58.00
1.73113	58.00
1.74780	58.00
1.76447	58.00
1.78113	58.00
1.79780	58.00
1.81447	58.00
1.83113	58.00
1.84780	58.00
1.86447	58.00
1.88113	58.00
1.89780	58.00
1.91447	58.00
1.93113	58.00
1.94780	58.00
1.96447	58.00
1.98113	58.00
1.99780	58.00
2.01447	58.00
2.03113	58.00
2.04780	58.00
2.06447	58.00
2.08113	58.00
2.09780	58.00
2.11447	58.00
2.13113	58.00
2.14780	58.00
2.16447	58.00
2.18113	58.00
2.19780	58.00
2.21447	58.00
2.23113	58.00
2.24780	58.00
2.26447	58.00
2.28113	58.00
2.29780	58.00
2.31447	58.00
2.33113	58.00
2.34780	58.00
2.36447	58.00
2.38113	57.99
2.39780	57.99
2.41447	58.00
2.43113	58.00
2.44780	58.00
2.46447	58.00
2.48113	58.00
2.49780	58.00
2.51447	57.99
2.53113	57.99
2.54780	58.00
2.56447	58.00
2.58113	58.00
2.59780	58.00
2.61447	58.00
2.63113	58.00
2.64780	58.00
2.66447	58.00
2.68113	58.00
2.69780	58.00
2.71447	58.00
2.73113	58.00
2.74780	58.00
2.76447	58.00
2.78113	58.00
2.79780	58.00
2.81447	58.00
2.83113	58.00
2.84780	58.00
2.86447	58.00
2.88113	58.00
2.89780	58.00
2.91447	58.00
2.93113	58.00
2.94780	58.00
2.96447	58.00
2.98113	58.00
2.99780	58.00
3.01447	58.00
3.03113	58.00
3.04780	58.00
3.06447	58.00
3.08113	58.00
3.09780	58.00
3.11447	58.00
3.13113	58.00
3.14780	58.00
3.16447	58.00
3.18113	58.00
3.19780	58.00
3.21447	58.00
3.23113	58.00
3.24780	58.00
3.26447	58.00
3.28113	58.00
3.29780	58.00
3.31447	58.00
3.33113	58.00
3.34780	58.00
3.36447	58.00
3.38113	58.00
3.39780	58.00
3.41447	58.00
3.43113	58.00
3.44780	58.00
3.46447	58.00
3.48113	58.00
3.49780	58.00
3.51447	58.00
3.53113	58.00
3.54780	58.00
3.56447	58.00
3.58113	58.00
3.59780	58.00
3.61447	58.00
3.63113	58.00
3.64780	58.00
3.66447	58.00
3.68113	58.00
3.69780	58.00
3.71447	58.00
3.73113	58.00
3.74780	58.00
3.76447	58.00
3.78113	58.00
3.79780	58.00
3.81447	58.00
3.83113	58.00
3.84780	58.00
3.86447	58.00
3.88113	58.00
3.89780	58.00
3.91447	58.00
3.93113	58.00
3.94780	58.00
3.96447	58.00
3.98113	58.00
3.99780	58.00

[Status Trace (Carrier Gas Flow)]
Interval(msec)	1000
# of Points	240
Start Time(min)	0.014
End Time(min)	3.998
Intensity Units	
Intensity Multiplier	1
R.Time (min)	Intensity
0.01447	33.97
0.03113	34.54
0.04780	34.54
0.06447	34.51
0.08113	34.51
0.09780	34.52
0.11447	34.52
0.13113	34.52
0.14780	34.51
0.16447	34.51
0.18113	34.51
0.19780	34.52
0.21447	34.52
0.23113	34.52
0.24780	34.52
0.26447	34.52
0.28113	34.52
0.29780	34.52
0.31447	34.52
0.33113	34.52
0.34780	34.51
0.36447	34.52
0.38113	34.52
0.39780	34.51
0.41447	34.52
0.43113	34.52
0.44780	34.52
0.46447	34.52
0.48113	34.52
0.49780	34.52
0.51447	34.52
0.53113	34.52
0.54780	34.52
0.56447	34.51
0.58113	34.52
0.59780	34.52
0.61447	34.52
0.63113	34.51
0.64780	34.52
0.66447	34.52
0.68113	34.52
0.69780	34.52
0.71447	34.52
0.73113	34.52
0.74780	34.52
0.76447	34.51
0.78113	34.53
0.79780	34.52
0.81447	34.52
0.83113	34.51
0.84780	34.53
0.86447	34.52
0.88113	34.52
0.89780	34.52
0.91447	34.52
0.93113	34.52
0.94780	34.52
0.96447	34.52
0.98113	34.52
0.99780	34.52
1.01447	34.52
1.03113	34.52
1.04780	34.52
1.06447	34.52
1.08113	34.52
1.09780	34.52
1.11447	34.52
1.13113	34.52
1.14780	34.52
1.16447	34.51
1.18113	34.52
1.19780	34.52
1.21447	34.52
1.23113	34.52
1.24780	34.52
1.26447	34.52
1.28113	34.52
1.29780	34.52
1.31447	34.53
1.33113	34.52
1.34780	34.52
1.36447	34.52
1.38113	34.52
1.39780	34.52
1.41447	34.52
1.43113	34.51
1.44780	34.52
1.46447	34.52
1.48113	34.52
1.49780	34.51
1.51447	34.52
1.53113	34.52
1.54780	34.52
1.56447	34.51
1.58113	34.51
1.59780	34.52
1.61447	34.52
1.63113	34.52
1.64780	34.52
1.66447	34.52
1.68113	34.52
1.69780	34.52
1.71447	34.51
1.73113	34.53
1.74780	34.51
1.76447	34.52
1.78113	34.53
1.79780	34.52
1.81447	34.52
1.83113	34.52
1.84780	34.52
1.86447	34.52
1.88113	34.52
1.89780	34.52
1.91447	34.52
1.93113	34.52
1.94780	34.52
1.96447	34.52
1.98113	34.52
1.99780	34.52
2.01447	34.52
2.03113	34.52
2.04780	34.52
2.06447	34.52
2.08113	34.52
2.09780	34.51
2.11447	34.52
2.13113	34.52
2.14780	34.52
2.16447	34.52
2.18113	34.51
2.19780	34.52
2.21447	34.53
2.23113	34.52
2.24780	34.52
2.26447	34.52
2.28113	34.52
2.29780	34.52
2.31447	34.52
2.33113	34.52
2.34780	34.51
2.36447	34.51
2.38113	34.51
2.39780	34.52
2.41447	34.53
2.43113	34.52
2.44780	34.52
2.46447	34.52
2.48113	34.52
2.49780	34.52
2.51447	34.52
2.53113	34.52
2.54780	34.53
2.56447	34.51
2.58113	34.52
2.59780	34.51
2.61447	34.51
2.63113	34.51
2.64780	34.53
2.66447	34.51
2.68113	34.52
2.69780	34.52
2.71447	34.52
2.73113	34.52
2.74780	34.52
2.76447	34.53
2.78113	34.52
2.79780	34.52
2.81447	34.52
2.83113	34.52
2.84780	34.52
2.86447	34.52
2.88113	34.53
2.89780	34.53
2.91447	34.51
2.93113	34.52
2.94780	34.51
2.96447	34.51
2.98113	34.52
2.99780	34.52
3.01447	34.52
3.03113	34.52
3.04780	34.52
3.06447	34.52
3.08113	34.52
3.09780	34.52
3.11447	34.52
3.13113	34.52
3.14780	34.52
3.16447	34.52
3.18113	34.52
3.19780	34.52
3.21447	34.51
3.23113	34.52
3.24780	34.51
3.26447	34.52
3.28113	34.52
3.29780	34.52
3.31447	34.52
3.33113	34.52
3.34780	34.52
3.36447	34.52
3.38113	34.52
3.39780	34.52
3.41447	34.52
3.43113	34.52
3.44780	34.52
3.46447	34.52
3.48113	34.52
3.49780	34.52
3.51447	34.51
3.53113	34.52
3.54780	34.52
3.56447	34.52
3.58113	34.51
3.59780	34.52
3.61447	34.53
3.63113	34.52
3.64780	34.52
3.66447	34.52
3.68113	34.52
3.69780	34.52
3.71447	34.52
3.73113	34.52
3.74780	34.52
3.76447	34.52
3.78113	34.52
3.79780	34.51
3.81447	34.52
3.83113	34.52
3.84780	34.52
3.86447	34.52
3.88113	34.52
3.89780	34.52
3.91447	34.52
3.93113	34.52
3.94780	34.52
3.96447	34.52
3.98113	34.52
3.99780	34.52

[Status Trace (Column Flow)]
Interval(msec)	1000
# of Points	240
Start Time(min)	0.014
End Time(min)	3.998
Intensity Units	
Intensity Multiplier	1
R.Time (min)	Intensity
0.01447	5.48
0.03113	5.28
0.04780	5.55
0.06447	5.77
0.08113	5.65
0.09780	5.55
0.11447	5.55
0.13113	5.55
0.14780	5.55
0.16447	5.55
0.18113	5.55
0.19780	5.55
0.21447	5.55
0.23113	5.55
0.24780	5.55
0.26447	5.55
0.28113	5.55
0.29780	5.55
0.31447	5.55
0.33113	5.55
0.34780	5.55
0.36447	5.55
0.38113	5.55
0.39780	5.55
0.41447	5.55
0.43113	5.55
0.44780	5.55
0.46447	5.55
0.48113	5.55
0.49780	5.55
0.51447	5.55
0.53113	5.55
0.54780	5.55
0.56447	5.55
0.58113	5.55
0.59780	5.55
0.61447	5.55
0.63113	5.55
0.64780	5.55
0.66447	5.55
0.68113	5.55
0.69780	5.55
0.71447	5.55
0.73113	5.55
0.74780	5.55
0.76447	5.55
0.78113	5.55
0.79780	5.55
0.81447	5.55
0.83113	5.55
0.84780	5.55
0.86447	5.55
0.88113	5.55
0.89780	5.55
0.91447	5.55
0.93113	5.55
0.94780	5.55
0.96447	5.55
0.98113	5.55
0.99780	5.55
1.01447	5.55
1.03113	5.55
1.04780	5.55
1.06447	5.55
1.08113	5.55
1.09780	5.55
1.11447	5.55
1.13113	5.55
1.14780	5.55
1.16447	5.55
1.18113	5.55
1.19780	5.55
1.21447	5.55
1.23113	5.55
1.24780	5.55
1.26447	5.55
1.28113	5.55
1.29780	5.55
1.31447	5.55
1.33113	5.55
1.34780	5.55
1.36447	5.55
1.38113	5.55
1.39780	5.55
1.41447	5.55
1.43113	5.55
1.44780	5.55
1.46447	5.55
1.48113	5.55
1.49780	5.55
1.51447	5.55
1.53113	5.55
1.54780	5.55
1.56447	5.55
1.58113	5.55
1.59780	5.55
1.61447	5.55
1.63113	5.55
1.64780	5.54
1.66447	5.53
1.68113	5.52
1.69780	5.51
1.71447	5.50
1.73113	5.49
1.74780	5.48
1.76447	5.47
1.78113	5.46
1.79780	5.45
1.81447	5.43
1.83113	5.42
1.84780	5.41
1.86447	5.41
1.88113	5.40
1.89780	5.39
1.91447	5.38
1.93113	5.37
1.94780	5.36
1.96447	5.35
1.98113	5.34
1.99780	5.33
2.01447	5.32
2.03113	5.31
2.04780	5.30
2.06447	5.29
2.08113	5.28
2.09780	5.27
2.11447	5.26
2.13113	5.25
2.14780	5.24
2.16447	5.23
2.18113	5.22
2.19780	5.21
2.21447	5.20
2.23113	5.19
2.24780	5.18
2.26447	5.17
2.28113	5.17
2.29780	5.16
2.31447	5.15
2.33113	5.14
2.34780	5.13
2.36447	5.12
2.38113	5.12
2.39780	5.12
2.41447	5.12
2.43113	5.12
2.44780	5.12
2.46447	5.12
2.48113	5.12
2.49780	5.12
2.51447	5.11
2.53113	5.11
2.54780	5.11
2.56447	5.11
2.58113	5.11
2.59780	5.11
2.61447	5.11
2.63113	5.11
2.64780	5.11
2.66447	5.11
2.68113	5.11
2.69780	5.11
2.71447	5.11
2.73113	5.11
2.74780	5.11
2.76447	5.11
2.78113	5.11
2.79780	5.11
2.81447	5.11
2.83113	5.11
2.84780	5.11
2.86447	5.11
2.88113	5.11
2.89780	5.11
2.91447	5.11
2.93113	5.11
2.94780	5.11
2.96447	5.11
2.98113	5.11
2.99780	5.11
3.01447	5.11
3.03113	5.11
3.04780	5.11
3.06447	5.11
3.08113	5.11
3.09780	5.11
3.11447	5.11
3.13113	5.11
3.14780	5.11
3.16447	5.11
3.18113	5.11
3.19780	5.11
3.21447	5.10
3.23113	5.10
3.24780	5.10
3.26447	5.10
3.28113	5.11
3.29780	5.11
3.31447	5.11
3.33113	5.11
3.34780	5.11
3.36447	5.11
3.38113	5.11
3.39780	5.11
3.41447	5.11
3.43113	5.11
3.44780	5.11
3.46447	5.11
3.48113	5.11
3.49780	5.11
3.51447	5.11
3.53113	5.11
3.54780	5.11
3.56447	5.11
3.58113	5.11
3.59780	5.11
3.61447	5.11
3.63113	5.11
3.64780	5.11
3.66447	5.11
3.68113	5.11
3.69780	5.11
3.71447	5.11
3.73113	5.11
3.74780	5.11
3.76447	5.11
3.78113	5.11
3.79780	5.11
3.81447	5.11
3.83113	5.11
3.84780	5.11
3.86447	5.11
3.88113	5.11
3.89780	5.11
3.91447	5.11
3.93113	5.11
3.94780	5.11
3.96447	5.11
3.98113	5.11
3.99780	5.11

[Status Trace (Linear Velocity)]
Interval(msec)	1000
# of Points	240
Start Time(min)	0.014
End Time(min)	3.998
Intensity Units	
Intensity Multiplier	1
R.Time (min)	Intensity
0.01447	38.60
0.03113	37.46
0.04780	38.99
0.06447	40.23
0.08113	39.55
0.09780	39.00
0.11447	39.02
0.13113	39.03
0.14780	39.03
0.16447	39.02
0.18113	39.02
0.19780	39.02
0.21447	39.02
0.23113	39.02
0.24780	39.02
0.26447	39.02
0.28113	39.02
0.29780	39.02
0.31447	39.03
0.33113	39.02
0.34780	39.02
0.36447	39.02
0.38113	39.02
0.39780	39.02
0.41447	39.02
0.43113	39.02
0.44780	39.02
0.46447	39.02
0.48113	39.03
0.49780	39.03
0.51447	39.03
0.53113	39.03
0.54780	39.03
0.56447	39.02
0.58113	39.02
0.59780	39.02
0.61447	39.02
0.63113	39.02
0.64780	39.02
0.66447	39.02
0.68113	39.02
0.69780	39.02
0.71447	39.02
0.73113	39.02
0.74780	39.02
0.76447	39.02
0.78113	39.02
0.79780	39.03
0.81447	39.02
0.83113	39.02
0.84780	39.02
0.86447	39.02
0.88113	39.02
0.89780	39.02
0.91447	39.02
0.93113	39.02
0.94780	39.02
0.96447	39.02
0.98113	39.02
0.99780	39.02
1.01447	39.02
1.03113	39.02
1.04780	39.02
1.06447	39.02
1.08113	39.02
1.09780	39.02
1.11447	39.02
1.13113	39.03
1.14780	39.03
1.16447	39.03
1.18113	39.03
1.19780	39.03
1.21447	39.03
1.23113	39.03
1.24780	39.02
1.26447	39.02
1.28113	39.02
1.29780	39.02
1.31447	39.02
1.33113	39.02
1.34780	39.02
1.36447	39.03
1.38113	39.03
1.39780	39.03
1.41447	39.03
1.43113	39.03
1.44780	39.02
1.46447	39.02
1.48113	39.02
1.49780	39.02
1.51447	39.02
1.53113	39.02
1.54780	39.02
1.56447	39.02
1.58113	39.02
1.59780	39.02
1.61447	39.02
1.63113	39.00
1.64780	38.98
1.66447	38.96
1.68113	38.92
1.69780	38.88
1.71447	38.85
1.73113	38.82
1.74780	38.79
1.76447	38.76
1.78113	38.73
1.79780	38.69
1.81447	38.66
1.83113	38.63
1.84780	38.60
1.86447	38.57
1.88113	38.54
1.89780	38.51
1.91447	38.48
1.93113	38.45
1.94780	38.42
1.96447	38.39
1.98113	38.36
1.99780	38.33
2.01447	38.30
2.03113	38.27
2.04780	38.24
2.06447	38.21
2.08113	38.17
2.09780	38.15
2.11447	38.12
2.13113	38.09
2.14780	38.06
2.16447	38.03
2.18113	38.00
2.19780	37.97
2.21447	37.94
2.23113	37.91
2.24780	37.88
2.26447	37.85
2.28113	37.82
2.29780	37.79
2.31447	37.76
2.33113	37.73
2.34780	37.71
2.36447	37.68
2.38113	37.67
2.39780	37.66
2.41447	37.67
2.43113	37.67
2.44780	37.67
2.46447	37.67
2.48113	37.67
2.49780	37.66
2.51447	37.66
2.53113	37.65
2.54780	37.66
2.56447	37.66
2.58113	37.66
2.59780	37.66
2.61447	37.66
2.63113	37.65
2.64780	37.65
2.66447	37.65
2.68113	37.65
2.69780	37.65
2.71447	37.65
2.73113	37.65
2.74780	37.65
2.76447	37.65
2.78113	37.65
2.79780	37.65
2.81447	37.65
2.83113	37.65
2.84780	37.65
2.86447	37.65
2.88113	37.65
2.89780	37.65
2.91447	37.65
2.93113	37.65
2.94780	37.64
2.96447	37.64
2.98113	37.64
2.99780	37.64
3.01447	37.64
3.03113	37.64
3.04780	37.64
3.06447	37.64
3.08113	37.64
3.09780	37.63
3.11447	37.63
3.13113	37.63
3.14780	37.63
3.16447	37.63
3.18113	37.63
3.19780	37.63
3.21447	37.63
3.23113	37.63
3.24780	37.63
3.26447	37.63
3.28113	37.63
3.29780	37.63
3.31447	37.63
3.33113	37.63
3.34780	37.64
3.36447	37.64
3.38113	37.64
3.39780	37.64
3.41447	37.64
3.43113	37.64
3.44780	37.64
3.46447	37.64
3.48113	37.64
3.49780	37.64
3.51447	37.64
3.53113	37.63
3.54780	37.63
3.56447	37.63
3.58113	37.63
3.59780	37.63
3.61447	37.63
3.63113	37.63
3.64780	37.63
3.66447	37.63
3.68113	37.63
3.69780	37.63
3.71447	37.63
3.73113	37.63
3.74780	37.63
3.76447	37.63
3.78113	37.63
3.79780	37.63
3.81447	37.63
3.83113	37.63
3.84780	37.63
3.86447	37.63
3.88113	37.63
3.89780	37.63
3.91447	37.63
3.93113	37.63
3.94780	37.63
3.96447	37.63
3.98113	37.63
3.99780	37.63

