[Header]
Application Name	LabSolutions
Version	5.110
Data File Name	C:\Users\User\Desktop\GC Analyses\Jack\Nachusa Grasslands Sampling\T4 Timepoint July 12th\T4_07122022_075.gcd
Output Date	3/17/2023
Output Time	12:04:55 PM

[File Information]
Type	Data File
Generated	3/14/2023 11:48:05 PM
Generated by	System Administrator
Modified	3/14/2023 11:54:57 PM
Modified by	System Administrator

[Sample Information]
Operator Name	System Administrator
Acquired	3/14/2023 11:50:56 PM
Sample Type	0:Unknown
Level	0
Sample Name	075
Sample ID	075
ISTD Amount1	1
ISTD Amount2	1
ISTD Amount3	1
ISTD Amount4	1
ISTD Amount5	1
ISTD Amount6	1
ISTD Amount7	1
ISTD Amount8	1
ISTD Amount9	1
ISTD Amount10	1
ISTD Amount11	1
ISTD Amount12	1
ISTD Amount13	1
ISTD Amount14	1
ISTD Amount15	1
ISTD Amount16	1
ISTD Amount17	1
ISTD Amount18	1
ISTD Amount19	1
ISTD Amount20	1
ISTD Amount21	1
ISTD Amount22	1
ISTD Amount23	1
ISTD Amount24	1
ISTD Amount25	1
ISTD Amount26	1
ISTD Amount27	1
ISTD Amount28	1
ISTD Amount29	1
ISTD Amount30	1
ISTD Amount31	1
ISTD Amount32	1
Sample Amount	1
Dilution Factor	1
Vial#	74
Injection Volume	1
Injection Count	1
Bar Code	

[Original Files]
Data File	C:\Users\User\Desktop\GC Analyses\Jack\Nachusa Grasslands Sampling\T4 Timepoint July 12th\T4_07122022_075.gcd
Method File	C:\LabSolutions\Data\GHG_4min_2022\ghg3_togas_w_acet_4 min_new_int.gcm
Batch File	C:\LabSolutions\Data\AutoSamplerTesting\T4_07122022.gcb
Report Format File	c:\LabSolutions\System\DEFAULT.lsr

[File Description]


[Configuration]
Instrument Name	C0B7VH3-Instrument1
Instrument #	1
Line #	1
# of Detectors	3
Detector ID	DET#1	DET#2	DET#3
Detector Name	FID	PTCD	ECD
# of Channels	1	1	1

[Peak Table(Ch1)]
# of Peaks	3
Peak#	R.Time	I.Time	F.Time	Area	Height	A/H	Conc.	Mark	ID#	Name	k'	Plate #	Plate Ht.	Tailing	Resolution	Sep.Factor	Area Ratio	Height Ratio	Conc. %	Norm Conc.
1	1.476	1.439	1.538	25080	12368	2.028	177.063	   	1	CO	0.000	9609	15.611	1.274	0.000	0.000	0	0	14.504	14.504
2	1.571	1.538	1.626	3882	1988	1.953	75.062	 V 	2	CH4	0.065	11759	12.756	1.083	1.614	0.000	0	0	6.149	6.149
3	1.996	1.949	2.499	3859586	1849153	2.087	968.652	   	3	CO2	0.353	17127	8.758	1.297	7.150	5.462	0	0	79.347	79.347

[Peak Table(Ch2)]
# of Peaks	0

[Peak Table(Ch3)]
# of Peaks	6
Peak#	R.Time	I.Time	F.Time	Area	Height	A/H	Conc.	Mark	ID#	Name	k'	Plate #	Plate Ht.	Tailing	Resolution	Sep.Factor	Area Ratio	Height Ratio	Conc. %	Norm Conc.
1	2.462	2.345	2.510	2168	740	2.931	0.000	   			0.000	11828	12.682	0.000	0.000	0.000	0	0	0.000	0.000
2	2.532	2.510	2.576	972	351	2.770	0.000	 V 			0.028	7921	18.937	0.000	0.682	0.000	0	0	0.000	0.000
3	2.605	2.576	2.678	590	147	4.005	0.000	 V 			0.058	1473	101.810	0.000	0.381	2.053	0	0	0.000	0.000
4	2.876	2.700	3.008	19473	4903	3.971	0.497	   	1	N2O	0.168	12773	11.743	1.631	1.454	2.897	0	0	100.000	100.000
5	3.107	3.012	3.122	2845	551	5.166	0.000	   	2	SF6	0.262	61	2465.573	0.000	0.273	1.558	0	0	0.000	0.000
6	3.250	3.122	3.995	19190	631	30.391	0.000	 V 	2	SF6	0.320	27	5466.034	0.000	0.070	1.222	0	0	0.000	0.000

[Compound Results(Ch1)]
# of IDs	6
ID#	Name	R.Time	Area	Height	Conc.	Curve	3rd	2nd	1st	Constant	Area Ratio	Height Ratio	Conc. %	Norm Conc.
1	CO	1.476	25080	12368	177.063	Linear	0.000000e+00	0.000000e+00	1.416423e+002	0.000000e+00	0	0	14.504	14.504
2	CH4	1.571	3882	1988	75.062	Linear	0.000000e+00	0.000000e+00	5.171738e+001	0.000000e+00	0	0	6.149	6.149
3	CO2	1.996	3859586	1849153	968.652	Linear	0.000000e+00	0.000000e+00	3.984494e+003	0.000000e+00	0	0	79.347	79.347
4	Ethylene	0.000	0	0	0.000	Linear	0.000000e+00	0.000000e+00	0.000000e+00	0.000000e+00	0	0	0.000	0.000
5	Acetylene	0.000	0	0	0.000	Linear	0.000000e+00	0.000000e+00	0.000000e+00	0.000000e+00	0	0	0.000	0.000
6	Ethane	0.000	0	0	0.000	Linear	0.000000e+00	0.000000e+00	0.000000e+00	0.000000e+00	0	0	0.000	0.000

[Compound Results(Ch2)]
# of IDs	5
ID#	Name	R.Time	Area	Height	Conc.	Curve	3rd	2nd	1st	Constant	Area Ratio	Height Ratio	Conc. %	Norm Conc.
1	Hydrogen	0.000	0	0	0.000	Linear	0.000000e+00	0.000000e+00	0.000000e+00	0.000000e+00	0	0	0.000	0.000
2	Oxygen	0.000	0	0	0.000	Linear	0.000000e+00	0.000000e+00	0.000000e+00	0.000000e+00	0	0	0.000	0.000
3	Nitrogen	0.000	0	0	0.000	Linear	0.000000e+00	0.000000e+00	0.000000e+00	0.000000e+00	0	0	0.000	0.000
4	Methane	0.000	0	0	0.000	Linear	0.000000e+00	0.000000e+00	0.000000e+00	0.000000e+00	0	0	0.000	0.000
5	Carbon Monoxide	0.000	0	0	0.000	Linear	0.000000e+00	0.000000e+00	0.000000e+00	0.000000e+00	0	0	0.000	0.000

[Compound Results(Ch3)]
# of IDs	2
ID#	Name	R.Time	Area	Height	Conc.	Curve	3rd	2nd	1st	Constant	Area Ratio	Height Ratio	Conc. %	Norm Conc.
1	N2O	2.876	19473	4903	0.497	Linear	0.000000e+00	0.000000e+00	3.915173e+004	0.000000e+00	0	0	100.000	100.000
2	SF6	3.250	22035	1182	0.000	Linear	0.000000e+00	0.000000e+00	0.000000e+00	0.000000e+00	0	0	0.000	0.000

[Group Results(Ch1)]
# of Groups	0

[Group Results(Ch2)]
# of Groups	0

[Group Results(Ch3)]
# of Groups	0

[Chromatogram (Ch1)]
Interval(msec)	220
# of Points	1091
Start Time(min)	0.002
End Time(min)	3.998
R.Time (min)	Intensity
0.00167	28
0.00533	28
0.00900	30
0.01267	32
0.01633	31
0.02000	32
0.02367	35
0.02733	43
0.03100	49
0.03467	51
0.03833	53
0.04200	54
0.04567	55
0.04933	63
0.05300	64
0.05667	64
0.06033	63
0.06400	61
0.06767	62
0.07133	63
0.07500	62
0.07867	68
0.08233	78
0.08600	91
0.08967	102
0.09333	109
0.09700	114
0.10067	112
0.10433	104
0.10800	91
0.11167	77
0.11533	64
0.11900	51
0.12267	39
0.12633	43
0.13000	46
0.13367	45
0.13733	39
0.14100	30
0.14467	24
0.14833	23
0.15200	26
0.15567	30
0.15933	30
0.16300	29
0.16667	32
0.17033	39
0.17400	44
0.17767	43
0.18133	37
0.18500	30
0.18867	25
0.19233	22
0.19600	21
0.19967	20
0.20333	21
0.20700	23
0.21067	26
0.21433	26
0.21800	25
0.22167	23
0.22533	20
0.22900	20
0.23267	20
0.23633	19
0.24000	21
0.24367	23
0.24733	21
0.25100	17
0.25467	12
0.25833	9
0.26200	8
0.26567	12
0.26933	16
0.27300	15
0.27667	10
0.28033	5
0.28400	5
0.28767	11
0.29133	18
0.29500	19
0.29867	17
0.30233	14
0.30600	6
0.30967	1
0.31333	1
0.31700	2
0.32067	5
0.32433	6
0.32800	6
0.33167	3
0.33533	1
0.33900	0
0.34267	0
0.34633	4
0.35000	11
0.35367	20
0.35733	23
0.36100	18
0.36467	11
0.36833	9
0.37200	11
0.37567	10
0.37933	4
0.38300	-2
0.38667	-4
0.39033	-8
0.39400	-11
0.39767	-15
0.40133	-19
0.40500	-21
0.40867	-15
0.41233	-10
0.41600	-6
0.41967	2
0.42333	14
0.42700	20
0.43067	17
0.43433	14
0.43800	16
0.44167	21
0.44533	24
0.44900	24
0.45267	27
0.45633	33
0.46000	40
0.46367	44
0.46733	41
0.47100	42
0.47467	42
0.47833	35
0.48200	18
0.48567	-1
0.48933	-7
0.49300	-14
0.49667	-20
0.50033	-21
0.50400	-16
0.50767	-13
0.51133	-6
0.51500	5
0.51867	17
0.52233	28
0.52600	37
0.52967	42
0.53333	45
0.53700	48
0.54067	52
0.54433	50
0.54800	50
0.55167	55
0.55533	57
0.55900	54
0.56267	48
0.56633	39
0.57000	33
0.57367	39
0.57733	46
0.58100	49
0.58467	51
0.58833	52
0.59200	50
0.59567	45
0.59933	42
0.60300	40
0.60667	38
0.61033	30
0.61400	19
0.61767	10
0.62133	5
0.62500	9
0.62867	15
0.63233	21
0.63600	24
0.63967	24
0.64333	25
0.64700	24
0.65067	16
0.65433	15
0.65800	16
0.66167	13
0.66533	8
0.66900	9
0.67267	13
0.67633	19
0.68000	23
0.68367	23
0.68733	24
0.69100	25
0.69467	23
0.69833	19
0.70200	14
0.70567	14
0.70933	16
0.71300	16
0.71667	14
0.72033	13
0.72400	17
0.72767	21
0.73133	22
0.73500	17
0.73867	13
0.74233	10
0.74600	8
0.74967	6
0.75333	3
0.75700	1
0.76067	-1
0.76433	-2
0.76800	-2
0.77167	1
0.77533	3
0.77900	2
0.78267	0
0.78633	4
0.79000	11
0.79367	17
0.79733	19
0.80100	27
0.80467	36
0.80833	36
0.81200	28
0.81567	14
0.81933	3
0.82300	-2
0.82667	-2
0.83033	-2
0.83400	-0
0.83767	2
0.84133	7
0.84500	17
0.84867	25
0.85233	31
0.85600	30
0.85967	25
0.86333	22
0.86700	18
0.87067	12
0.87433	10
0.87800	13
0.88167	8
0.88533	-2
0.88900	-9
0.89267	-14
0.89633	-15
0.90000	-15
0.90367	-11
0.90733	-3
0.91100	-1
0.91467	-3
0.91833	-3
0.92200	-2
0.92567	0
0.92933	0
0.93300	-2
0.93667	-7
0.94033	-8
0.94400	-4
0.94767	1
0.95133	1
0.95500	-6
0.95867	-14
0.96233	-23
0.96600	-28
0.96967	-27
0.97333	-24
0.97700	-20
0.98067	-15
0.98433	-9
0.98800	-6
0.99167	-2
0.99533	-0
0.99900	4
1.00267	12
1.00633	19
1.01000	21
1.01367	18
1.01733	12
1.02100	7
1.02467	2
1.02833	3
1.03200	10
1.03567	15
1.03933	13
1.04300	5
1.04667	-3
1.05033	-8
1.05400	-10
1.05767	-9
1.06133	-7
1.06500	-9
1.06867	-13
1.07233	-17
1.07600	-19
1.07967	-13
1.08333	-4
1.08700	-3
1.09067	-7
1.09433	-15
1.09800	-27
1.10167	-37
1.10533	-40
1.10900	-40
1.11267	-40
1.11633	-37
1.12000	-34
1.12367	-33
1.12733	-32
1.13100	-31
1.13467	-32
1.13833	-36
1.14200	-40
1.14567	-42
1.14933	-45
1.15300	-44
1.15667	-40
1.16033	-37
1.16400	-31
1.16767	-24
1.17133	-20
1.17500	-20
1.17867	-16
1.18233	-12
1.18600	-9
1.18967	-8
1.19333	-11
1.19700	-16
1.20067	-17
1.20433	-13
1.20800	-10
1.21167	-14
1.21533	-22
1.21900	-29
1.22267	-35
1.22633	-31
1.23000	-22
1.23367	-14
1.23733	-14
1.24100	-22
1.24467	-30
1.24833	-31
1.25200	-29
1.25567	-26
1.25933	-26
1.26300	-25
1.26667	-23
1.27033	-23
1.27400	-24
1.27767	-23
1.28133	-23
1.28500	-23
1.28867	-25
1.29233	-24
1.29600	-24
1.29967	-29
1.30333	-39
1.30700	-40
1.31067	-37
1.31433	-32
1.31800	-22
1.32167	-17
1.32533	-18
1.32900	-21
1.33267	-20
1.33633	-21
1.34000	-25
1.34367	-27
1.34733	-27
1.35100	-33
1.35467	-43
1.35833	-50
1.36200	-52
1.36567	-52
1.36933	-53
1.37300	-56
1.37667	-57
1.38033	-50
1.38400	-42
1.38767	-37
1.39133	-37
1.39500	-39
1.39867	-35
1.40233	-30
1.40600	-26
1.40967	-25
1.41333	-27
1.41700	-27
1.42067	-23
1.42433	-20
1.42800	-21
1.43167	-29
1.43533	-37
1.43900	-35
1.44267	5
1.44633	151
1.45000	578
1.45367	1664
1.45733	3597
1.46100	6027
1.46467	8395
1.46833	10336
1.47200	11683
1.47567	12322
1.47933	12132
1.48300	11113
1.48667	9464
1.49033	7539
1.49400	5679
1.49767	4092
1.50133	2852
1.50500	1935
1.50867	1281
1.51233	824
1.51600	512
1.51967	301
1.52333	159
1.52700	65
1.53067	9
1.53433	-22
1.53800	-31
1.54167	9
1.54533	154
1.54900	430
1.55267	803
1.55633	1190
1.56000	1526
1.56367	1773
1.56733	1910
1.57100	1915
1.57467	1770
1.57833	1496
1.58200	1158
1.58567	829
1.58933	555
1.59300	347
1.59667	198
1.60033	94
1.60400	23
1.60767	-25
1.61133	-53
1.61500	-67
1.61867	-74
1.62233	-82
1.62600	-89
1.62967	-92
1.63333	-91
1.63700	-89
1.64067	-93
1.64433	-99
1.64800	-102
1.65167	-99
1.65533	-95
1.65900	-93
1.66267	-94
1.66633	-98
1.67000	-99
1.67367	-94
1.67733	-87
1.68100	-84
1.68467	-83
1.68833	-79
1.69200	-77
1.69567	-75
1.69933	-72
1.70300	-66
1.70667	-60
1.71033	-60
1.71400	-66
1.71767	-70
1.72133	-71
1.72500	-70
1.72867	-65
1.73233	-60
1.73600	-56
1.73967	-55
1.74333	-56
1.74700	-59
1.75067	-62
1.75433	-66
1.75800	-69
1.76167	-72
1.76533	-74
1.76900	-77
1.77267	-79
1.77633	-76
1.78000	-70
1.78367	-65
1.78733	-61
1.79100	-63
1.79467	-73
1.79833	-84
1.80200	-94
1.80567	-101
1.80933	-100
1.81300	-99
1.81667	-97
1.82033	-92
1.82400	-84
1.82767	-78
1.83133	-73
1.83500	-70
1.83867	-67
1.84233	-61
1.84600	-54
1.84967	-47
1.85333	-42
1.85700	-41
1.86067	-43
1.86433	-42
1.86800	-44
1.87167	-47
1.87533	-48
1.87900	-47
1.88267	-46
1.88633	-45
1.89000	-47
1.89367	-53
1.89733	-58
1.90100	-58
1.90467	-58
1.90833	-60
1.91200	-60
1.91567	-61
1.91933	-57
1.92300	-50
1.92667	-41
1.93033	-35
1.93400	-31
1.93767	-33
1.94133	-40
1.94500	-49
1.94867	-54
1.95233	-32
1.95600	187
1.95967	1596
1.96333	8580
1.96700	34820
1.97067	109855
1.97433	272629
1.97800	541867
1.98167	889490
1.98533	1250774
1.98900	1558743
1.99267	1766337
1.99633	1849128
2.00000	1804075
2.00367	1648149
2.00733	1415162
2.01100	1147545
2.01467	884908
2.01833	654720
2.02200	469445
2.02567	329493
2.02933	228523
2.03300	157951
2.03667	109636
2.04033	76951
2.04400	54935
2.04767	40080
2.05133	29985
2.05500	23035
2.05867	18173
2.06233	14702
2.06600	12169
2.06967	10282
2.07333	8849
2.07700	7730
2.08067	6832
2.08433	6103
2.08800	5502
2.09167	4998
2.09533	4567
2.09900	4194
2.10267	3867
2.10633	3578
2.11000	3326
2.11367	3106
2.11733	2915
2.12100	2747
2.12467	2596
2.12833	2460
2.13200	2336
2.13567	2222
2.13933	2110
2.14300	1998
2.14667	1896
2.15033	1806
2.15400	1722
2.15767	1646
2.16133	1575
2.16500	1510
2.16867	1448
2.17233	1392
2.17600	1344
2.17967	1305
2.18333	1276
2.18700	1247
2.19067	1211
2.19433	1175
2.19800	1137
2.20167	1098
2.20533	1060
2.20900	1024
2.21267	985
2.21633	946
2.22000	917
2.22367	893
2.22733	863
2.23100	839
2.23467	818
2.23833	797
2.24200	777
2.24567	760
2.24933	745
2.25300	729
2.25667	715
2.26033	705
2.26400	696
2.26767	684
2.27133	666
2.27500	643
2.27867	622
2.28233	606
2.28600	593
2.28967	586
2.29333	583
2.29700	575
2.30067	564
2.30433	554
2.30800	547
2.31167	536
2.31533	527
2.31900	523
2.32267	520
2.32633	511
2.33000	501
2.33367	491
2.33733	480
2.34100	471
2.34467	466
2.34833	462
2.35200	461
2.35567	462
2.35933	463
2.36300	457
2.36667	443
2.37033	427
2.37400	415
2.37767	404
2.38133	397
2.38500	390
2.38867	383
2.39233	382
2.39600	385
2.39967	389
2.40333	390
2.40700	387
2.41067	380
2.41433	375
2.41800	372
2.42167	370
2.42533	367
2.42900	362
2.43267	355
2.43633	346
2.44000	335
2.44367	326
2.44733	321
2.45100	316
2.45467	309
2.45833	304
2.46200	305
2.46567	310
2.46933	310
2.47300	304
2.47667	301
2.48033	299
2.48400	298
2.48767	299
2.49133	295
2.49500	286
2.49867	277
2.50233	273
2.50600	275
2.50967	279
2.51333	278
2.51700	274
2.52067	269
2.52433	271
2.52800	277
2.53167	276
2.53533	275
2.53900	277
2.54267	280
2.54633	279
2.55000	273
2.55367	263
2.55733	253
2.56100	239
2.56467	234
2.56833	241
2.57200	238
2.57567	225
2.57933	214
2.58300	210
2.58667	209
2.59033	209
2.59400	209
2.59767	208
2.60133	200
2.60500	194
2.60867	198
2.61233	208
2.61600	216
2.61967	214
2.62333	207
2.62700	200
2.63067	194
2.63433	186
2.63800	182
2.64167	183
2.64533	190
2.64900	198
2.65267	203
2.65633	206
2.66000	205
2.66367	201
2.66733	199
2.67100	199
2.67467	199
2.67833	197
2.68200	202
2.68567	207
2.68933	201
2.69300	191
2.69667	179
2.70033	168
2.70400	160
2.70767	154
2.71133	154
2.71500	160
2.71867	170
2.72233	177
2.72600	181
2.72967	178
2.73333	170
2.73700	158
2.74067	148
2.74433	144
2.74800	142
2.75167	141
2.75533	144
2.75900	153
2.76267	161
2.76633	161
2.77000	157
2.77367	156
2.77733	154
2.78100	153
2.78467	154
2.78833	156
2.79200	156
2.79567	161
2.79933	170
2.80300	180
2.80667	185
2.81033	181
2.81400	175
2.81767	164
2.82133	147
2.82500	137
2.82867	133
2.83233	139
2.83600	145
2.83967	147
2.84333	143
2.84700	138
2.85067	134
2.85433	132
2.85800	137
2.86167	142
2.86533	143
2.86900	139
2.87267	141
2.87633	148
2.88000	149
2.88367	148
2.88733	143
2.89100	144
2.89467	143
2.89833	137
2.90200	137
2.90567	141
2.90933	144
2.91300	142
2.91667	139
2.92033	141
2.92400	132
2.92767	142
2.93133	147
2.93500	147
2.93867	145
2.94233	143
2.94600	143
2.94967	143
2.95333	146
2.95700	150
2.96067	149
2.96433	144
2.96800	139
2.97167	129
2.97533	117
2.97900	107
2.98267	105
2.98633	107
2.99000	111
2.99367	117
2.99733	125
3.00100	133
3.00467	134
3.00833	129
3.01200	122
3.01567	117
3.01933	122
3.02300	130
3.02667	135
3.03033	136
3.03400	136
3.03767	135
3.04133	125
3.04500	116
3.04867	113
3.05233	112
3.05600	112
3.05967	112
3.06333	108
3.06700	103
3.07067	101
3.07433	96
3.07800	94
3.08167	99
3.08533	107
3.08900	115
3.09267	119
3.09633	115
3.10000	105
3.10367	90
3.10733	74
3.11100	63
3.11467	61
3.11833	64
3.12200	69
3.12567	71
3.12933	73
3.13300	78
3.13667	86
3.14033	97
3.14400	105
3.14767	108
3.15133	104
3.15500	97
3.15867	88
3.16233	82
3.16600	84
3.16967	85
3.17333	85
3.17700	87
3.18067	92
3.18433	94
3.18800	94
3.19167	96
3.19533	92
3.19900	88
3.20267	83
3.20633	79
3.21000	78
3.21367	79
3.21733	79
3.22100	78
3.22467	78
3.22833	81
3.23200	85
3.23567	88
3.23933	87
3.24300	84
3.24667	83
3.25033	88
3.25400	89
3.25767	83
3.26133	83
3.26500	86
3.26867	88
3.27233	91
3.27600	92
3.27967	92
3.28333	95
3.28700	95
3.29067	89
3.29433	81
3.29800	70
3.30167	66
3.30533	69
3.30900	74
3.31267	78
3.31633	81
3.32000	82
3.32367	81
3.32733	79
3.33100	77
3.33467	80
3.33833	86
3.34200	88
3.34567	87
3.34933	82
3.35300	85
3.35667	89
3.36033	82
3.36400	72
3.36767	67
3.37133	65
3.37500	63
3.37867	58
3.38233	52
3.38600	45
3.38967	45
3.39333	55
3.39700	67
3.40067	73
3.40433	81
3.40800	87
3.41167	85
3.41533	82
3.41900	78
3.42267	71
3.42633	64
3.43000	59
3.43367	53
3.43733	47
3.44100	44
3.44467	47
3.44833	57
3.45200	66
3.45567	68
3.45933	66
3.46300	63
3.46667	59
3.47033	58
3.47400	56
3.47767	56
3.48133	55
3.48500	50
3.48867	45
3.49233	45
3.49600	51
3.49967	60
3.50333	66
3.50700	61
3.51067	54
3.51433	54
3.51800	59
3.52167	64
3.52533	64
3.52900	62
3.53267	57
3.53633	53
3.54000	47
3.54367	43
3.54733	44
3.55100	51
3.55467	61
3.55833	68
3.56200	67
3.56567	62
3.56933	59
3.57300	56
3.57667	52
3.58033	48
3.58400	46
3.58767	47
3.59133	46
3.59500	42
3.59867	38
3.60233	34
3.60600	23
3.60967	11
3.61333	7
3.61700	10
3.62067	16
3.62433	28
3.62800	48
3.63167	67
3.63533	75
3.63900	75
3.64267	71
3.64633	60
3.65000	47
3.65367	35
3.65733	26
3.66100	22
3.66467	19
3.66833	22
3.67200	34
3.67567	44
3.67933	44
3.68300	37
3.68667	28
3.69033	22
3.69400	17
3.69767	7
3.70133	-1
3.70500	-0
3.70867	0
3.71233	4
3.71600	13
3.71967	22
3.72333	33
3.72700	42
3.73067	42
3.73433	40
3.73800	38
3.74167	35
3.74533	29
3.74900	28
3.75267	32
3.75633	36
3.76000	38
3.76367	35
3.76733	25
3.77100	18
3.77467	20
3.77833	26
3.78200	27
3.78567	22
3.78933	19
3.79300	23
3.79667	29
3.80033	27
3.80400	28
3.80767	37
3.81133	43
3.81500	42
3.81867	42
3.82233	44
3.82600	44
3.82967	41
3.83333	34
3.83700	25
3.84067	15
3.84433	8
3.84800	5
3.85167	3
3.85533	1
3.85900	-1
3.86267	1
3.86633	7
3.87000	15
3.87367	23
3.87733	24
3.88100	21
3.88467	21
3.88833	27
3.89200	33
3.89567	34
3.89933	30
3.90300	25
3.90667	16
3.91033	6
3.91400	2
3.91767	8
3.92133	20
3.92500	27
3.92867	25
3.93233	20
3.93600	15
3.93967	10
3.94333	4
3.94700	-3
3.95067	-12
3.95433	-16
3.95800	-13
3.96167	-6
3.96533	-1
3.96900	5
3.97267	0
3.97633	-11
3.98000	-21
3.98367	-24
3.98733	-23
3.99100	-17
3.99467	-6
3.99833	4

[Chromatogram (Ch2)]
Interval(msec)	220
# of Points	1091
Start Time(min)	0.002
End Time(min)	3.998
R.Time (min)	Intensity
0.00167	1
0.00533	1
0.00900	1
0.01267	1
0.01633	1
0.02000	0
0.02367	-0
0.02733	-0
0.03100	-1
0.03467	-0
0.03833	-0
0.04200	-0
0.04567	-0
0.04933	-0
0.05300	-0
0.05667	-0
0.06033	-0
0.06400	-0
0.06767	0
0.07133	0
0.07500	0
0.07867	1
0.08233	1
0.08600	1
0.08967	1
0.09333	1
0.09700	1
0.10067	1
0.10433	1
0.10800	1
0.11167	1
0.11533	2
0.11900	2
0.12267	1
0.12633	1
0.13000	2
0.13367	2
0.13733	2
0.14100	2
0.14467	2
0.14833	2
0.15200	2
0.15567	2
0.15933	2
0.16300	2
0.16667	2
0.17033	2
0.17400	3
0.17767	3
0.18133	3
0.18500	3
0.18867	3
0.19233	4
0.19600	4
0.19967	4
0.20333	4
0.20700	4
0.21067	3
0.21433	3
0.21800	3
0.22167	3
0.22533	3
0.22900	3
0.23267	3
0.23633	2
0.24000	2
0.24367	2
0.24733	2
0.25100	2
0.25467	2
0.25833	2
0.26200	2
0.26567	1
0.26933	1
0.27300	1
0.27667	1
0.28033	1
0.28400	1
0.28767	1
0.29133	1
0.29500	1
0.29867	1
0.30233	1
0.30600	1
0.30967	1
0.31333	1
0.31700	1
0.32067	1
0.32433	2
0.32800	2
0.33167	2
0.33533	2
0.33900	2
0.34267	2
0.34633	2
0.35000	2
0.35367	2
0.35733	2
0.36100	1
0.36467	1
0.36833	1
0.37200	2
0.37567	2
0.37933	2
0.38300	2
0.38667	3
0.39033	3
0.39400	3
0.39767	3
0.40133	3
0.40500	3
0.40867	4
0.41233	4
0.41600	4
0.41967	4
0.42333	4
0.42700	4
0.43067	3
0.43433	3
0.43800	3
0.44167	3
0.44533	3
0.44900	2
0.45267	2
0.45633	1
0.46000	1
0.46367	1
0.46733	0
0.47100	0
0.47467	0
0.47833	0
0.48200	0
0.48567	-0
0.48933	-0
0.49300	-1
0.49667	-1
0.50033	-1
0.50400	-1
0.50767	-1
0.51133	-1
0.51500	-0
0.51867	0
0.52233	0
0.52600	1
0.52967	1
0.53333	1
0.53700	1
0.54067	1
0.54433	1
0.54800	1
0.55167	1
0.55533	1
0.55900	1
0.56267	1
0.56633	1
0.57000	1
0.57367	1
0.57733	1
0.58100	1
0.58467	1
0.58833	1
0.59200	0
0.59567	0
0.59933	-0
0.60300	-1
0.60667	-1
0.61033	-1
0.61400	-1
0.61767	-1
0.62133	-1
0.62500	-1
0.62867	-0
0.63233	-0
0.63600	-0
0.63967	-0
0.64333	-0
0.64700	-0
0.65067	-1
0.65433	-1
0.65800	-1
0.66167	-1
0.66533	-1
0.66900	-1
0.67267	-1
0.67633	-1
0.68000	-1
0.68367	-1
0.68733	-1
0.69100	-1
0.69467	-1
0.69833	-1
0.70200	-0
0.70567	-0
0.70933	-0
0.71300	-0
0.71667	-0
0.72033	-0
0.72400	-0
0.72767	-0
0.73133	0
0.73500	0
0.73867	0
0.74233	-0
0.74600	-0
0.74967	-1
0.75333	-1
0.75700	-1
0.76067	-1
0.76433	-1
0.76800	-1
0.77167	-1
0.77533	-1
0.77900	-1
0.78267	-1
0.78633	-1
0.79000	-1
0.79367	-1
0.79733	-1
0.80100	-0
0.80467	-0
0.80833	0
0.81200	0
0.81567	0
0.81933	0
0.82300	-0
0.82667	-1
0.83033	-1
0.83400	-1
0.83767	-1
0.84133	-1
0.84500	-1
0.84867	-1
0.85233	-0
0.85600	0
0.85967	1
0.86333	1
0.86700	2
0.87067	2
0.87433	2
0.87800	2
0.88167	2
0.88533	2
0.88900	2
0.89267	2
0.89633	2
0.90000	2
0.90367	1
0.90733	2
0.91100	1
0.91467	1
0.91833	1
0.92200	1
0.92567	1
0.92933	1
0.93300	1
0.93667	1
0.94033	1
0.94400	0
0.94767	0
0.95133	0
0.95500	1
0.95867	1
0.96233	0
0.96600	0
0.96967	0
0.97333	0
0.97700	0
0.98067	0
0.98433	0
0.98800	0
0.99167	1
0.99533	1
0.99900	1
1.00267	1
1.00633	1
1.01000	1
1.01367	1
1.01733	1
1.02100	1
1.02467	0
1.02833	0
1.03200	0
1.03567	0
1.03933	0
1.04300	0
1.04667	0
1.05033	1
1.05400	0
1.05767	0
1.06133	0
1.06500	0
1.06867	-0
1.07233	-1
1.07600	-1
1.07967	-1
1.08333	-2
1.08700	-2
1.09067	-2
1.09433	-3
1.09800	-2
1.10167	-2
1.10533	-2
1.10900	-2
1.11267	-2
1.11633	-2
1.12000	-1
1.12367	-1
1.12733	-1
1.13100	-1
1.13467	-1
1.13833	-0
1.14200	-0
1.14567	-0
1.14933	-0
1.15300	-0
1.15667	-1
1.16033	-1
1.16400	-1
1.16767	-2
1.17133	-2
1.17500	-2
1.17867	-2
1.18233	-2
1.18600	-2
1.18967	-3
1.19333	-3
1.19700	-3
1.20067	-3
1.20433	-3
1.20800	-3
1.21167	-3
1.21533	-3
1.21900	-2
1.22267	-2
1.22633	-2
1.23000	-2
1.23367	-2
1.23733	-2
1.24100	-2
1.24467	-2
1.24833	-2
1.25200	-2
1.25567	-2
1.25933	-2
1.26300	-2
1.26667	-2
1.27033	-2
1.27400	-2
1.27767	-1
1.28133	-1
1.28500	-1
1.28867	-1
1.29233	-1
1.29600	-1
1.29967	-1
1.30333	-1
1.30700	-2
1.31067	-2
1.31433	-2
1.31800	-3
1.32167	-3
1.32533	-3
1.32900	-3
1.33267	-3
1.33633	-3
1.34000	-3
1.34367	-3
1.34733	-3
1.35100	-3
1.35467	-3
1.35833	-3
1.36200	-3
1.36567	-3
1.36933	-2
1.37300	-2
1.37667	-2
1.38033	-2
1.38400	-2
1.38767	-2
1.39133	-3
1.39500	-3
1.39867	-3
1.40233	-3
1.40600	-3
1.40967	-3
1.41333	-3
1.41700	-4
1.42067	-4
1.42433	-4
1.42800	-4
1.43167	-4
1.43533	-3
1.43900	-3
1.44267	-3
1.44633	-3
1.45000	-3
1.45367	-3
1.45733	-3
1.46100	-3
1.46467	-3
1.46833	-2
1.47200	-2
1.47567	-2
1.47933	-2
1.48300	-2
1.48667	-2
1.49033	-2
1.49400	-2
1.49767	-2
1.50133	-2
1.50500	-2
1.50867	-2
1.51233	-2
1.51600	-2
1.51967	-2
1.52333	-2
1.52700	-2
1.53067	-2
1.53433	-2
1.53800	-1
1.54167	-1
1.54533	-1
1.54900	-1
1.55267	-1
1.55633	-1
1.56000	-1
1.56367	-0
1.56733	-0
1.57100	-0
1.57467	-0
1.57833	-0
1.58200	-0
1.58567	-1
1.58933	-1
1.59300	-2
1.59667	-2
1.60033	-3
1.60400	-4
1.60767	-6
1.61133	-8
1.61500	-9
1.61867	-12
1.62233	-14
1.62600	-17
1.62967	-21
1.63333	-24
1.63700	-28
1.64067	-31
1.64433	-35
1.64800	-39
1.65167	-43
1.65533	-46
1.65900	-50
1.66267	-54
1.66633	-59
1.67000	-63
1.67367	-68
1.67733	-73
1.68100	-78
1.68467	-83
1.68833	-87
1.69200	-91
1.69567	-95
1.69933	-98
1.70300	-100
1.70667	-102
1.71033	-104
1.71400	-105
1.71767	-106
1.72133	-106
1.72500	-106
1.72867	-106
1.73233	-106
1.73600	-105
1.73967	-105
1.74333	-104
1.74700	-104
1.75067	-103
1.75433	-103
1.75800	-103
1.76167	-104
1.76533	-105
1.76900	-107
1.77267	-108
1.77633	-109
1.78000	-110
1.78367	-111
1.78733	-112
1.79100	-112
1.79467	-112
1.79833	-111
1.80200	-111
1.80567	-111
1.80933	-111
1.81300	-112
1.81667	-113
1.82033	-114
1.82400	-115
1.82767	-115
1.83133	-115
1.83500	-115
1.83867	-115
1.84233	-114
1.84600	-113
1.84967	-113
1.85333	-113
1.85700	-112
1.86067	-112
1.86433	-112
1.86800	-112
1.87167	-113
1.87533	-113
1.87900	-113
1.88267	-113
1.88633	-113
1.89000	-113
1.89367	-113
1.89733	-113
1.90100	-113
1.90467	-113
1.90833	-114
1.91200	-114
1.91567	-114
1.91933	-114
1.92300	-114
1.92667	-113
1.93033	-113
1.93400	-112
1.93767	-111
1.94133	-110
1.94500	-110
1.94867	-110
1.95233	-110
1.95600	-110
1.95967	-110
1.96333	-110
1.96700	-110
1.97067	-109
1.97433	-109
1.97800	-109
1.98167	-108
1.98533	-108
1.98900	-108
1.99267	-108
1.99633	-108
2.00000	-108
2.00367	-108
2.00733	-108
2.01100	-108
2.01467	-108
2.01833	-108
2.02200	-108
2.02567	-108
2.02933	-107
2.03300	-107
2.03667	-107
2.04033	-106
2.04400	-106
2.04767	-105
2.05133	-104
2.05500	-104
2.05867	-103
2.06233	-102
2.06600	-101
2.06967	-100
2.07333	-100
2.07700	-99
2.08067	-99
2.08433	-99
2.08800	-99
2.09167	-99
2.09533	-99
2.09900	-98
2.10267	-97
2.10633	-97
2.11000	-97
2.11367	-97
2.11733	-97
2.12100	-97
2.12467	-97
2.12833	-97
2.13200	-97
2.13567	-97
2.13933	-97
2.14300	-96
2.14667	-96
2.15033	-95
2.15400	-95
2.15767	-94
2.16133	-94
2.16500	-94
2.16867	-94
2.17233	-94
2.17600	-94
2.17967	-94
2.18333	-93
2.18700	-93
2.19067	-92
2.19433	-91
2.19800	-91
2.20167	-90
2.20533	-90
2.20900	-90
2.21267	-90
2.21633	-89
2.22000	-89
2.22367	-88
2.22733	-88
2.23100	-87
2.23467	-87
2.23833	-87
2.24200	-87
2.24567	-87
2.24933	-86
2.25300	-86
2.25667	-85
2.26033	-85
2.26400	-84
2.26767	-83
2.27133	-83
2.27500	-82
2.27867	-82
2.28233	-81
2.28600	-81
2.28967	-80
2.29333	-80
2.29700	-80
2.30067	-81
2.30433	-81
2.30800	-82
2.31167	-82
2.31533	-82
2.31900	-82
2.32267	-81
2.32633	-80
2.33000	-79
2.33367	-78
2.33733	-77
2.34100	-77
2.34467	-76
2.34833	-74
2.35200	-73
2.35567	-73
2.35933	-72
2.36300	-71
2.36667	-70
2.37033	-69
2.37400	-67
2.37767	-64
2.38133	-61
2.38500	-57
2.38867	-54
2.39233	-49
2.39600	-45
2.39967	-40
2.40333	-36
2.40700	-31
2.41067	-27
2.41433	-23
2.41800	-19
2.42167	-16
2.42533	-14
2.42900	-12
2.43267	-10
2.43633	-9
2.44000	-8
2.44367	-6
2.44733	-5
2.45100	-5
2.45467	-4
2.45833	-4
2.46200	-4
2.46567	-4
2.46933	-3
2.47300	-3
2.47667	-2
2.48033	-1
2.48400	1
2.48767	2
2.49133	4
2.49500	5
2.49867	6
2.50233	7
2.50600	7
2.50967	8
2.51333	8
2.51700	9
2.52067	9
2.52433	10
2.52800	11
2.53167	11
2.53533	12
2.53900	12
2.54267	12
2.54633	12
2.55000	12
2.55367	12
2.55733	12
2.56100	12
2.56467	13
2.56833	13
2.57200	13
2.57567	13
2.57933	13
2.58300	14
2.58667	14
2.59033	14
2.59400	15
2.59767	15
2.60133	15
2.60500	16
2.60867	16
2.61233	17
2.61600	17
2.61967	17
2.62333	18
2.62700	18
2.63067	18
2.63433	19
2.63800	18
2.64167	18
2.64533	18
2.64900	17
2.65267	17
2.65633	16
2.66000	16
2.66367	16
2.66733	17
2.67100	17
2.67467	18
2.67833	18
2.68200	19
2.68567	20
2.68933	21
2.69300	21
2.69667	22
2.70033	22
2.70400	22
2.70767	22
2.71133	22
2.71500	22
2.71867	22
2.72233	22
2.72600	22
2.72967	22
2.73333	23
2.73700	23
2.74067	24
2.74433	25
2.74800	25
2.75167	26
2.75533	27
2.75900	27
2.76267	27
2.76633	27
2.77000	27
2.77367	27
2.77733	27
2.78100	26
2.78467	26
2.78833	26
2.79200	26
2.79567	26
2.79933	26
2.80300	26
2.80667	27
2.81033	27
2.81400	27
2.81767	27
2.82133	27
2.82500	27
2.82867	27
2.83233	27
2.83600	27
2.83967	27
2.84333	26
2.84700	24
2.85067	20
2.85433	14
2.85800	6
2.86167	-6
2.86533	-21
2.86900	-41
2.87267	-65
2.87633	-94
2.88000	-127
2.88367	-164
2.88733	-206
2.89100	-251
2.89467	-299
2.89833	-349
2.90200	-402
2.90567	-456
2.90933	-512
2.91300	-567
2.91667	-623
2.92033	-679
2.92400	-733
2.92767	-786
2.93133	-838
2.93500	-890
2.93867	-946
2.94233	-1005
2.94600	-1057
2.94967	-1092
2.95333	-1103
2.95700	-1088
2.96067	-1049
2.96433	-992
2.96800	-922
2.97167	-844
2.97533	-764
2.97900	-683
2.98267	-606
2.98633	-533
2.99000	-466
2.99367	-405
2.99733	-351
3.00100	-302
3.00467	-259
3.00833	-221
3.01200	-188
3.01567	-159
3.01933	-133
3.02300	-112
3.02667	-93
3.03033	-78
3.03400	-64
3.03767	-53
3.04133	-43
3.04500	-35
3.04867	-28
3.05233	-22
3.05600	-17
3.05967	-12
3.06333	-8
3.06700	-5
3.07067	-3
3.07433	-1
3.07800	1
3.08167	3
3.08533	5
3.08900	6
3.09267	8
3.09633	9
3.10000	10
3.10367	11
3.10733	12
3.11100	12
3.11467	13
3.11833	14
3.12200	14
3.12567	15
3.12933	15
3.13300	15
3.13667	16
3.14033	16
3.14400	17
3.14767	17
3.15133	18
3.15500	18
3.15867	18
3.16233	18
3.16600	18
3.16967	18
3.17333	18
3.17700	19
3.18067	19
3.18433	19
3.18800	20
3.19167	20
3.19533	20
3.19900	21
3.20267	21
3.20633	21
3.21000	21
3.21367	22
3.21733	22
3.22100	22
3.22467	23
3.22833	23
3.23200	23
3.23567	23
3.23933	23
3.24300	23
3.24667	23
3.25033	23
3.25400	23
3.25767	23
3.26133	23
3.26500	23
3.26867	23
3.27233	23
3.27600	23
3.27967	22
3.28333	22
3.28700	22
3.29067	22
3.29433	23
3.29800	23
3.30167	23
3.30533	23
3.30900	23
3.31267	23
3.31633	23
3.32000	23
3.32367	24
3.32733	24
3.33100	24
3.33467	24
3.33833	24
3.34200	25
3.34567	25
3.34933	25
3.35300	26
3.35667	26
3.36033	27
3.36400	28
3.36767	28
3.37133	29
3.37500	29
3.37867	29
3.38233	30
3.38600	30
3.38967	30
3.39333	30
3.39700	30
3.40067	31
3.40433	31
3.40800	31
3.41167	31
3.41533	31
3.41900	31
3.42267	31
3.42633	31
3.43000	31
3.43367	31
3.43733	31
3.44100	30
3.44467	30
3.44833	30
3.45200	30
3.45567	29
3.45933	29
3.46300	29
3.46667	29
3.47033	28
3.47400	28
3.47767	27
3.48133	27
3.48500	27
3.48867	26
3.49233	26
3.49600	26
3.49967	26
3.50333	26
3.50700	26
3.51067	26
3.51433	26
3.51800	26
3.52167	26
3.52533	26
3.52900	27
3.53267	27
3.53633	27
3.54000	27
3.54367	27
3.54733	26
3.55100	26
3.55467	26
3.55833	26
3.56200	26
3.56567	26
3.56933	26
3.57300	26
3.57667	26
3.58033	26
3.58400	26
3.58767	26
3.59133	26
3.59500	26
3.59867	26
3.60233	26
3.60600	25
3.60967	25
3.61333	25
3.61700	25
3.62067	25
3.62433	24
3.62800	24
3.63167	24
3.63533	25
3.63900	25
3.64267	25
3.64633	25
3.65000	26
3.65367	26
3.65733	26
3.66100	26
3.66467	27
3.66833	27
3.67200	27
3.67567	27
3.67933	27
3.68300	27
3.68667	27
3.69033	28
3.69400	28
3.69767	28
3.70133	28
3.70500	28
3.70867	28
3.71233	28
3.71600	28
3.71967	28
3.72333	28
3.72700	28
3.73067	28
3.73433	28
3.73800	28
3.74167	28
3.74533	27
3.74900	27
3.75267	27
3.75633	27
3.76000	27
3.76367	27
3.76733	27
3.77100	27
3.77467	27
3.77833	26
3.78200	26
3.78567	26
3.78933	25
3.79300	25
3.79667	25
3.80033	25
3.80400	25
3.80767	25
3.81133	25
3.81500	25
3.81867	25
3.82233	25
3.82600	25
3.82967	25
3.83333	25
3.83700	25
3.84067	25
3.84433	25
3.84800	26
3.85167	26
3.85533	26
3.85900	26
3.86267	26
3.86633	26
3.87000	26
3.87367	27
3.87733	27
3.88100	27
3.88467	27
3.88833	27
3.89200	26
3.89567	26
3.89933	26
3.90300	26
3.90667	26
3.91033	26
3.91400	26
3.91767	26
3.92133	26
3.92500	26
3.92867	25
3.93233	25
3.93600	25
3.93967	25
3.94333	25
3.94700	25
3.95067	26
3.95433	26
3.95800	26
3.96167	26
3.96533	26
3.96900	26
3.97267	26
3.97633	26
3.98000	26
3.98367	27
3.98733	27
3.99100	27
3.99467	27
3.99833	27

[Chromatogram (Ch3)]
Interval(msec)	220
# of Points	1091
Start Time(min)	0.002
End Time(min)	3.998
R.Time (min)	Intensity
0.00167	-0
0.00533	1
0.00900	1
0.01267	2
0.01633	1
0.02000	1
0.02367	1
0.02733	2
0.03100	2
0.03467	4
0.03833	5
0.04200	5
0.04567	3
0.04933	4
0.05300	5
0.05667	4
0.06033	2
0.06400	1
0.06767	1
0.07133	1
0.07500	1
0.07867	-0
0.08233	-1
0.08600	-1
0.08967	-2
0.09333	-2
0.09700	-2
0.10067	-4
0.10433	-4
0.10800	-5
0.11167	-2
0.11533	-1
0.11900	0
0.12267	1
0.12633	0
0.13000	-1
0.13367	1
0.13733	3
0.14100	5
0.14467	4
0.14833	2
0.15200	1
0.15567	-0
0.15933	-2
0.16300	-1
0.16667	1
0.17033	0
0.17400	-1
0.17767	-0
0.18133	1
0.18500	-0
0.18867	1
0.19233	3
0.19600	4
0.19967	4
0.20333	1
0.20700	-2
0.21067	-2
0.21433	1
0.21800	2
0.22167	1
0.22533	2
0.22900	3
0.23267	2
0.23633	3
0.24000	4
0.24367	5
0.24733	6
0.25100	8
0.25467	8
0.25833	8
0.26200	8
0.26567	7
0.26933	5
0.27300	3
0.27667	3
0.28033	4
0.28400	6
0.28767	7
0.29133	8
0.29500	7
0.29867	7
0.30233	7
0.30600	6
0.30967	7
0.31333	7
0.31700	7
0.32067	6
0.32433	4
0.32800	4
0.33167	3
0.33533	3
0.33900	3
0.34267	-0
0.34633	-2
0.35000	-0
0.35367	2
0.35733	0
0.36100	0
0.36467	1
0.36833	0
0.37200	2
0.37567	2
0.37933	2
0.38300	3
0.38667	3
0.39033	0
0.39400	-2
0.39767	-2
0.40133	-0
0.40500	0
0.40867	-0
0.41233	1
0.41600	1
0.41967	1
0.42333	3
0.42700	4
0.43067	5
0.43433	5
0.43800	6
0.44167	4
0.44533	4
0.44900	6
0.45267	7
0.45633	6
0.46000	3
0.46367	1
0.46733	1
0.47100	2
0.47467	0
0.47833	-1
0.48200	-1
0.48567	1
0.48933	4
0.49300	5
0.49667	5
0.50033	3
0.50400	2
0.50767	2
0.51133	3
0.51500	1
0.51867	0
0.52233	2
0.52600	2
0.52967	2
0.53333	1
0.53700	-0
0.54067	-1
0.54433	-1
0.54800	0
0.55167	1
0.55533	0
0.55900	0
0.56267	1
0.56633	2
0.57000	2
0.57367	0
0.57733	-2
0.58100	-1
0.58467	-1
0.58833	1
0.59200	3
0.59567	1
0.59933	-0
0.60300	-2
0.60667	-0
0.61033	2
0.61400	3
0.61767	4
0.62133	4
0.62500	4
0.62867	4
0.63233	5
0.63600	6
0.63967	8
0.64333	10
0.64700	8
0.65067	6
0.65433	5
0.65800	5
0.66167	4
0.66533	4
0.66900	6
0.67267	7
0.67633	7
0.68000	7
0.68367	6
0.68733	4
0.69100	3
0.69467	4
0.69833	6
0.70200	8
0.70567	8
0.70933	9
0.71300	7
0.71667	4
0.72033	4
0.72400	5
0.72767	7
0.73133	8
0.73500	8
0.73867	8
0.74233	9
0.74600	11
0.74967	11
0.75333	11
0.75700	10
0.76067	10
0.76433	11
0.76800	10
0.77167	8
0.77533	8
0.77900	9
0.78267	9
0.78633	10
0.79000	11
0.79367	11
0.79733	11
0.80100	9
0.80467	8
0.80833	7
0.81200	8
0.81567	10
0.81933	11
0.82300	10
0.82667	11
0.83033	12
0.83400	12
0.83767	11
0.84133	11
0.84500	11
0.84867	14
0.85233	14
0.85600	14
0.85967	14
0.86333	15
0.86700	15
0.87067	16
0.87433	15
0.87800	14
0.88167	14
0.88533	17
0.88900	16
0.89267	12
0.89633	11
0.90000	9
0.90367	8
0.90733	9
0.91100	12
0.91467	14
0.91833	16
0.92200	15
0.92567	16
0.92933	18
0.93300	21
0.93667	21
0.94033	21
0.94400	20
0.94767	20
0.95133	19
0.95500	19
0.95867	21
0.96233	22
0.96600	22
0.96967	21
0.97333	21
0.97700	21
0.98067	21
0.98433	20
0.98800	18
0.99167	18
0.99533	19
0.99900	20
1.00267	21
1.00633	22
1.01000	23
1.01367	23
1.01733	23
1.02100	22
1.02467	20
1.02833	17
1.03200	17
1.03567	17
1.03933	20
1.04300	23
1.04667	23
1.05033	23
1.05400	23
1.05767	22
1.06133	21
1.06500	21
1.06867	20
1.07233	19
1.07600	19
1.07967	21
1.08333	22
1.08700	23
1.09067	22
1.09433	22
1.09800	24
1.10167	26
1.10533	26
1.10900	25
1.11267	22
1.11633	19
1.12000	19
1.12367	19
1.12733	18
1.13100	15
1.13467	15
1.13833	18
1.14200	20
1.14567	20
1.14933	22
1.15300	21
1.15667	21
1.16033	21
1.16400	20
1.16767	19
1.17133	18
1.17500	17
1.17867	17
1.18233	17
1.18600	17
1.18967	19
1.19333	21
1.19700	22
1.20067	22
1.20433	22
1.20800	22
1.21167	21
1.21533	19
1.21900	19
1.22267	19
1.22633	20
1.23000	21
1.23367	21
1.23733	21
1.24100	19
1.24467	18
1.24833	17
1.25200	17
1.25567	17
1.25933	17
1.26300	19
1.26667	22
1.27033	24
1.27400	24
1.27767	24
1.28133	23
1.28500	21
1.28867	19
1.29233	17
1.29600	18
1.29967	18
1.30333	17
1.30700	16
1.31067	16
1.31433	16
1.31800	19
1.32167	20
1.32533	20
1.32900	19
1.33267	17
1.33633	16
1.34000	15
1.34367	14
1.34733	14
1.35100	15
1.35467	15
1.35833	15
1.36200	15
1.36567	17
1.36933	19
1.37300	20
1.37667	19
1.38033	19
1.38400	22
1.38767	23
1.39133	23
1.39500	23
1.39867	24
1.40233	24
1.40600	24
1.40967	24
1.41333	23
1.41700	23
1.42067	23
1.42433	22
1.42800	21
1.43167	20
1.43533	20
1.43900	18
1.44267	17
1.44633	18
1.45000	19
1.45367	19
1.45733	19
1.46100	19
1.46467	19
1.46833	20
1.47200	20
1.47567	19
1.47933	19
1.48300	22
1.48667	24
1.49033	26
1.49400	28
1.49767	29
1.50133	30
1.50500	28
1.50867	26
1.51233	25
1.51600	24
1.51967	24
1.52333	25
1.52700	25
1.53067	24
1.53433	23
1.53800	23
1.54167	24
1.54533	26
1.54900	29
1.55267	29
1.55633	28
1.56000	28
1.56367	27
1.56733	27
1.57100	27
1.57467	28
1.57833	29
1.58200	30
1.58567	30
1.58933	28
1.59300	26
1.59667	25
1.60033	25
1.60400	24
1.60767	23
1.61133	23
1.61500	24
1.61867	28
1.62233	30
1.62600	31
1.62967	30
1.63333	32
1.63700	35
1.64067	36
1.64433	37
1.64800	39
1.65167	38
1.65533	36
1.65900	37
1.66267	39
1.66633	39
1.67000	38
1.67367	37
1.67733	37
1.68100	37
1.68467	37
1.68833	36
1.69200	35
1.69567	37
1.69933	42
1.70300	44
1.70667	45
1.71033	45
1.71400	45
1.71767	43
1.72133	43
1.72500	46
1.72867	48
1.73233	49
1.73600	48
1.73967	47
1.74333	47
1.74700	47
1.75067	48
1.75433	47
1.75800	46
1.76167	45
1.76533	45
1.76900	43
1.77267	44
1.77633	44
1.78000	45
1.78367	46
1.78733	47
1.79100	49
1.79467	50
1.79833	52
1.80200	53
1.80567	53
1.80933	52
1.81300	53
1.81667	53
1.82033	53
1.82400	53
1.82767	56
1.83133	59
1.83500	61
1.83867	60
1.84233	61
1.84600	61
1.84967	63
1.85333	65
1.85700	66
1.86067	66
1.86433	68
1.86800	69
1.87167	70
1.87533	71
1.87900	68
1.88267	66
1.88633	65
1.89000	66
1.89367	69
1.89733	73
1.90100	75
1.90467	75
1.90833	75
1.91200	77
1.91567	76
1.91933	75
1.92300	76
1.92667	80
1.93033	84
1.93400	84
1.93767	83
1.94133	83
1.94500	84
1.94867	86
1.95233	87
1.95600	86
1.95967	85
1.96333	86
1.96700	90
1.97067	91
1.97433	91
1.97800	91
1.98167	90
1.98533	90
1.98900	91
1.99267	97
1.99633	102
2.00000	104
2.00367	106
2.00733	105
2.01100	104
2.01467	104
2.01833	105
2.02200	104
2.02567	106
2.02933	106
2.03300	105
2.03667	106
2.04033	107
2.04400	106
2.04767	108
2.05133	111
2.05500	114
2.05867	115
2.06233	118
2.06600	121
2.06967	123
2.07333	124
2.07700	126
2.08067	131
2.08433	132
2.08800	131
2.09167	131
2.09533	131
2.09900	132
2.10267	134
2.10633	135
2.11000	136
2.11367	138
2.11733	141
2.12100	143
2.12467	145
2.12833	147
2.13200	146
2.13567	146
2.13933	147
2.14300	149
2.14667	149
2.15033	150
2.15400	151
2.15767	153
2.16133	156
2.16500	158
2.16867	160
2.17233	162
2.17600	161
2.17967	160
2.18333	161
2.18700	163
2.19067	165
2.19433	166
2.19800	168
2.20167	171
2.20533	172
2.20900	172
2.21267	174
2.21633	176
2.22000	177
2.22367	178
2.22733	179
2.23100	179
2.23467	181
2.23833	182
2.24200	185
2.24567	186
2.24933	188
2.25300	190
2.25667	193
2.26033	197
2.26400	197
2.26767	198
2.27133	197
2.27500	197
2.27867	198
2.28233	199
2.28600	200
2.28967	200
2.29333	202
2.29700	206
2.30067	209
2.30433	209
2.30800	210
2.31167	215
2.31533	219
2.31900	219
2.32267	219
2.32633	218
2.33000	218
2.33367	219
2.33733	220
2.34100	220
2.34467	221
2.34833	224
2.35200	226
2.35567	227
2.35933	228
2.36300	227
2.36667	229
2.37033	233
2.37400	233
2.37767	231
2.38133	229
2.38500	228
2.38867	228
2.39233	229
2.39600	232
2.39967	236
2.40333	240
2.40700	244
2.41067	247
2.41433	248
2.41800	248
2.42167	249
2.42533	247
2.42900	246
2.43267	245
2.43633	245
2.44000	250
2.44367	313
2.44733	478
2.45100	657
2.45467	805
2.45833	887
2.46200	890
2.46567	845
2.46933	785
2.47300	731
2.47667	692
2.48033	659
2.48400	618
2.48767	569
2.49133	514
2.49500	463
2.49867	423
2.50233	396
2.50600	380
2.50967	375
2.51333	383
2.51700	403
2.52067	427
2.52433	447
2.52800	458
2.53167	458
2.53533	443
2.53900	416
2.54267	383
2.54633	348
2.55000	316
2.55367	288
2.55733	264
2.56100	245
2.56467	229
2.56833	219
2.57200	210
2.57567	208
2.57933	207
2.58300	207
2.58667	207
2.59033	208
2.59400	210
2.59767	211
2.60133	212
2.60500	210
2.60867	207
2.61233	200
2.61600	192
2.61967	184
2.62333	174
2.62700	163
2.63067	152
2.63433	144
2.63800	135
2.64167	127
2.64533	116
2.64900	103
2.65267	88
2.65633	76
2.66000	65
2.66367	54
2.66733	42
2.67100	33
2.67467	26
2.67833	18
2.68200	12
2.68567	7
2.68933	5
2.69300	6
2.69667	8
2.70033	10
2.70400	15
2.70767	20
2.71133	24
2.71500	29
2.71867	35
2.72233	39
2.72600	43
2.72967	47
2.73333	50
2.73700	52
2.74067	54
2.74433	57
2.74800	61
2.75167	65
2.75533	71
2.75900	75
2.76267	78
2.76633	79
2.77000	82
2.77367	87
2.77733	93
2.78100	98
2.78467	103
2.78833	106
2.79200	110
2.79567	115
2.79933	120
2.80300	127
2.80667	135
2.81033	143
2.81400	152
2.81767	162
2.82133	175
2.82500	199
2.82867	242
2.83233	318
2.83600	448
2.83967	653
2.84333	955
2.84700	1359
2.85067	1856
2.85433	2421
2.85800	3019
2.86167	3601
2.86533	4117
2.86900	4530
2.87267	4808
2.87633	4943
2.88000	4941
2.88367	4818
2.88733	4599
2.89100	4313
2.89467	3986
2.89833	3640
2.90200	3294
2.90567	2961
2.90933	2647
2.91300	2352
2.91667	2083
2.92033	1843
2.92400	1628
2.92767	1437
2.93133	1269
2.93500	1121
2.93867	992
2.94233	878
2.94600	780
2.94967	695
2.95333	621
2.95700	557
2.96067	500
2.96433	452
2.96800	409
2.97167	373
2.97533	340
2.97900	311
2.98267	287
2.98633	268
2.99000	253
2.99367	236
2.99733	200
3.00100	142
3.00467	85
3.00833	61
3.01200	75
3.01567	115
3.01933	167
3.02300	224
3.02667	280
3.03033	336
3.03400	387
3.03767	434
3.04133	474
3.04500	508
3.04867	535
3.05233	558
3.05600	577
3.05967	594
3.06333	608
3.06700	619
3.07067	630
3.07433	638
3.07800	644
3.08167	651
3.08533	656
3.08900	658
3.09267	660
3.09633	664
3.10000	667
3.10367	672
3.10733	675
3.11100	676
3.11467	678
3.11833	679
3.12200	680
3.12567	681
3.12933	682
3.13300	685
3.13667	688
3.14033	689
3.14400	692
3.14767	697
3.15133	701
3.15500	705
3.15867	706
3.16233	709
3.16600	714
3.16967	719
3.17333	725
3.17700	730
3.18067	736
3.18433	741
3.18800	744
3.19167	748
3.19533	753
3.19900	758
3.20267	763
3.20633	770
3.21000	777
3.21367	784
3.21733	789
3.22100	795
3.22467	802
3.22833	808
3.23200	812
3.23567	814
3.23933	818
3.24300	824
3.24667	828
3.25033	830
3.25400	832
3.25767	831
3.26133	831
3.26500	833
3.26867	835
3.27233	838
3.27600	840
3.27967	841
3.28333	842
3.28700	846
3.29067	850
3.29433	851
3.29800	851
3.30167	850
3.30533	850
3.30900	850
3.31267	848
3.31633	848
3.32000	847
3.32367	845
3.32733	843
3.33100	840
3.33467	839
3.33833	838
3.34200	836
3.34567	834
3.34933	832
3.35300	827
3.35667	822
3.36033	819
3.36400	816
3.36767	813
3.37133	812
3.37500	812
3.37867	811
3.38233	808
3.38600	806
3.38967	803
3.39333	799
3.39700	797
3.40067	795
3.40433	792
3.40800	789
3.41167	787
3.41533	783
3.41900	781
3.42267	779
3.42633	776
3.43000	777
3.43367	780
3.43733	781
3.44100	780
3.44467	777
3.44833	775
3.45200	772
3.45567	773
3.45933	775
3.46300	776
3.46667	777
3.47033	777
3.47400	776
3.47767	775
3.48133	773
3.48500	770
3.48867	768
3.49233	767
3.49600	767
3.49967	766
3.50333	770
3.50700	772
3.51067	771
3.51433	770
3.51800	768
3.52167	765
3.52533	764
3.52900	763
3.53267	763
3.53633	761
3.54000	761
3.54367	761
3.54733	757
3.55100	752
3.55467	748
3.55833	748
3.56200	750
3.56567	748
3.56933	746
3.57300	747
3.57667	745
3.58033	744
3.58400	745
3.58767	746
3.59133	746
3.59500	745
3.59867	744
3.60233	743
3.60600	742
3.60967	743
3.61333	742
3.61700	741
3.62067	741
3.62433	740
3.62800	739
3.63167	736
3.63533	733
3.63900	733
3.64267	731
3.64633	728
3.65000	724
3.65367	722
3.65733	721
3.66100	719
3.66467	715
3.66833	712
3.67200	709
3.67567	707
3.67933	708
3.68300	709
3.68667	708
3.69033	706
3.69400	704
3.69767	704
3.70133	701
3.70500	697
3.70867	694
3.71233	691
3.71600	689
3.71967	688
3.72333	687
3.72700	687
3.73067	687
3.73433	687
3.73800	684
3.74167	680
3.74533	675
3.74900	671
3.75267	669
3.75633	668
3.76000	666
3.76367	664
3.76733	662
3.77100	662
3.77467	661
3.77833	659
3.78200	661
3.78567	663
3.78933	661
3.79300	659
3.79667	658
3.80033	655
3.80400	652
3.80767	648
3.81133	645
3.81500	645
3.81867	644
3.82233	645
3.82600	643
3.82967	640
3.83333	639
3.83700	639
3.84067	639
3.84433	639
3.84800	639
3.85167	638
3.85533	637
3.85900	635
3.86267	633
3.86633	629
3.87000	627
3.87367	626
3.87733	624
3.88100	623
3.88467	620
3.88833	617
3.89200	616
3.89567	616
3.89933	614
3.90300	610
3.90667	609
3.91033	610
3.91400	610
3.91767	608
3.92133	605
3.92500	604
3.92867	603
3.93233	603
3.93600	600
3.93967	596
3.94333	592
3.94700	590
3.95067	590
3.95433	591
3.95800	592
3.96167	592
3.96533	590
3.96900	589
3.97267	589
3.97633	589
3.98000	586
3.98367	584
3.98733	583
3.99100	585
3.99467	586
3.99833	584

[Status Trace (Column Oven Temperature)]
Interval(msec)	1000
# of Points	240
Start Time(min)	0.011
End Time(min)	3.994
Intensity Units	
Intensity Multiplier	1
R.Time (min)	Intensity
0.01115	35.08
0.02782	35.08
0.04448	35.09
0.06115	35.09
0.07782	35.08
0.09448	35.07
0.11115	35.08
0.12782	35.08
0.14448	35.07
0.16115	35.05
0.17782	35.04
0.19448	35.04
0.21115	35.03
0.22782	35.03
0.24448	35.03
0.26115	35.02
0.27782	35.01
0.29448	35.01
0.31115	35.01
0.32782	35.00
0.34448	35.01
0.36115	35.01
0.37782	35.00
0.39448	35.00
0.41115	34.98
0.42782	34.97
0.44448	34.98
0.46115	34.98
0.47782	34.98
0.49448	35.00
0.51115	34.99
0.52782	34.99
0.54448	34.99
0.56115	35.00
0.57782	34.99
0.59448	34.99
0.61115	34.99
0.62782	34.99
0.64448	35.00
0.66115	34.99
0.67782	35.00
0.69448	35.00
0.71115	35.00
0.72782	35.01
0.74448	35.01
0.76115	35.01
0.77782	35.01
0.79448	35.00
0.81115	35.01
0.82782	35.01
0.84448	35.01
0.86115	35.00
0.87782	34.99
0.89448	34.99
0.91115	34.98
0.92782	34.99
0.94448	34.99
0.96115	34.98
0.97782	34.97
0.99448	34.96
1.01115	34.97
1.02782	34.96
1.04448	34.96
1.06115	34.97
1.07782	34.99
1.09448	34.99
1.11115	34.99
1.12782	34.98
1.14448	34.98
1.16115	34.98
1.17782	34.98
1.19448	34.99
1.21115	35.00
1.22782	35.00
1.24448	35.01
1.26115	35.00
1.27782	34.99
1.29448	34.98
1.31115	34.99
1.32782	35.00
1.34448	35.00
1.36115	35.00
1.37782	35.00
1.39448	35.00
1.41115	35.00
1.42782	35.00
1.44448	35.00
1.46115	35.00
1.47782	34.99
1.49448	34.99
1.51115	34.99
1.52782	35.00
1.54448	34.99
1.56115	34.99
1.57782	34.98
1.59448	35.00
1.61115	35.08
1.62782	35.22
1.64448	35.42
1.66115	35.68
1.67782	36.04
1.69448	36.43
1.71115	36.78
1.72782	37.09
1.74448	37.39
1.76115	37.73
1.77782	38.07
1.79448	38.39
1.81115	38.73
1.82782	39.08
1.84448	39.39
1.86115	39.71
1.87782	40.06
1.89448	40.38
1.91115	40.73
1.92782	41.04
1.94448	41.37
1.96115	41.71
1.97782	42.03
1.99448	42.35
2.01115	42.68
2.02782	43.02
2.04448	43.36
2.06115	43.67
2.07782	43.99
2.09448	44.31
2.11115	44.64
2.12782	44.96
2.14448	45.30
2.16115	45.62
2.17782	45.96
2.19448	46.29
2.21115	46.62
2.22782	46.92
2.24448	47.25
2.26115	47.58
2.27782	47.89
2.29448	48.22
2.31115	48.56
2.32782	48.89
2.34448	49.18
2.36115	49.47
2.37782	49.66
2.39448	49.70
2.41115	49.68
2.42782	49.71
2.44448	49.69
2.46115	49.72
2.47782	49.73
2.49448	49.72
2.51115	49.74
2.52782	49.74
2.54448	49.77
2.56115	49.78
2.57782	49.80
2.59448	49.81
2.61115	49.81
2.62782	49.80
2.64448	49.84
2.66115	49.85
2.67782	49.85
2.69448	49.84
2.71115	49.86
2.72782	49.86
2.74448	49.85
2.76115	49.85
2.77782	49.86
2.79448	49.86
2.81115	49.87
2.82782	49.86
2.84448	49.86
2.86115	49.88
2.87782	49.88
2.89448	49.90
2.91115	49.92
2.92782	49.94
2.94448	49.94
2.96115	49.96
2.97782	49.96
2.99448	49.97
3.01115	49.96
3.02782	49.96
3.04448	49.97
3.06115	49.99
3.07782	50.01
3.09448	50.01
3.11115	50.03
3.12782	50.03
3.14448	50.04
3.16115	50.04
3.17782	50.04
3.19448	50.05
3.21115	50.05
3.22782	50.06
3.24448	50.06
3.26115	50.07
3.27782	50.08
3.29448	50.10
3.31115	50.11
3.32782	50.12
3.34448	50.11
3.36115	50.09
3.37782	50.06
3.39448	50.04
3.41115	50.02
3.42782	50.00
3.44448	49.99
3.46115	50.00
3.47782	50.00
3.49448	50.01
3.51115	50.02
3.52782	50.02
3.54448	50.02
3.56115	50.02
3.57782	50.02
3.59448	50.04
3.61115	50.04
3.62782	50.05
3.64448	50.04
3.66115	50.04
3.67782	50.03
3.69448	50.02
3.71115	50.02
3.72782	50.02
3.74448	50.01
3.76115	50.01
3.77782	50.02
3.79448	50.03
3.81115	50.03
3.82782	50.03
3.84448	50.03
3.86115	50.02
3.87782	50.03
3.89448	50.03
3.91115	50.03
3.92782	50.04
3.94448	50.05
3.96115	50.05
3.97782	50.05
3.99448	50.05

[Status Trace (Injection Unit Temperature)]
Interval(msec)	1000
# of Points	240
Start Time(min)	0.011
End Time(min)	3.994
Intensity Units	
Intensity Multiplier	1
R.Time (min)	Intensity
0.01115	99.98
0.02782	99.98
0.04448	99.98
0.06115	99.98
0.07782	99.98
0.09448	99.98
0.11115	99.98
0.12782	99.98
0.14448	99.99
0.16115	99.99
0.17782	99.99
0.19448	99.98
0.21115	99.99
0.22782	99.99
0.24448	99.99
0.26115	99.99
0.27782	99.99
0.29448	99.98
0.31115	99.99
0.32782	99.98
0.34448	99.99
0.36115	99.99
0.37782	99.99
0.39448	99.99
0.41115	99.99
0.42782	99.99
0.44448	99.99
0.46115	99.98
0.47782	99.98
0.49448	99.98
0.51115	99.99
0.52782	99.98
0.54448	99.98
0.56115	99.99
0.57782	99.98
0.59448	99.98
0.61115	99.98
0.62782	99.98
0.64448	99.98
0.66115	99.98
0.67782	99.98
0.69448	99.98
0.71115	99.98
0.72782	99.98
0.74448	99.98
0.76115	99.98
0.77782	99.98
0.79448	99.98
0.81115	99.98
0.82782	99.98
0.84448	99.98
0.86115	99.98
0.87782	99.98
0.89448	99.98
0.91115	99.99
0.92782	99.98
0.94448	99.98
0.96115	99.99
0.97782	99.99
0.99448	99.98
1.01115	99.98
1.02782	99.98
1.04448	99.98
1.06115	99.98
1.07782	99.99
1.09448	99.99
1.11115	99.99
1.12782	99.99
1.14448	99.99
1.16115	99.98
1.17782	99.98
1.19448	99.99
1.21115	99.98
1.22782	99.99
1.24448	99.98
1.26115	99.98
1.27782	99.98
1.29448	99.98
1.31115	99.99
1.32782	99.99
1.34448	99.99
1.36115	99.98
1.37782	99.98
1.39448	99.98
1.41115	99.98
1.42782	99.98
1.44448	99.99
1.46115	99.98
1.47782	99.98
1.49448	99.98
1.51115	99.99
1.52782	99.99
1.54448	99.99
1.56115	99.98
1.57782	99.98
1.59448	99.98
1.61115	99.98
1.62782	99.98
1.64448	99.98
1.66115	99.98
1.67782	99.98
1.69448	99.98
1.71115	99.98
1.72782	99.98
1.74448	99.98
1.76115	99.98
1.77782	99.98
1.79448	99.98
1.81115	99.98
1.82782	99.98
1.84448	99.98
1.86115	99.98
1.87782	99.98
1.89448	99.98
1.91115	99.98
1.92782	99.98
1.94448	99.98
1.96115	99.98
1.97782	99.97
1.99448	99.98
2.01115	99.97
2.02782	99.97
2.04448	99.97
2.06115	99.97
2.07782	99.98
2.09448	99.98
2.11115	99.98
2.12782	99.97
2.14448	99.97
2.16115	99.97
2.17782	99.97
2.19448	99.97
2.21115	99.97
2.22782	99.98
2.24448	99.97
2.26115	99.97
2.27782	99.97
2.29448	99.97
2.31115	99.97
2.32782	99.97
2.34448	99.97
2.36115	99.97
2.37782	99.97
2.39448	99.97
2.41115	99.97
2.42782	99.97
2.44448	99.97
2.46115	99.97
2.47782	99.97
2.49448	99.97
2.51115	99.97
2.52782	99.97
2.54448	99.97
2.56115	99.97
2.57782	99.97
2.59448	99.97
2.61115	99.97
2.62782	99.98
2.64448	99.98
2.66115	99.98
2.67782	99.98
2.69448	99.98
2.71115	99.98
2.72782	99.99
2.74448	99.98
2.76115	99.98
2.77782	99.99
2.79448	99.99
2.81115	99.99
2.82782	99.99
2.84448	99.99
2.86115	100.00
2.87782	99.99
2.89448	100.00
2.91115	100.00
2.92782	100.00
2.94448	100.00
2.96115	100.00
2.97782	100.00
2.99448	100.00
3.01115	100.01
3.02782	100.01
3.04448	100.01
3.06115	100.01
3.07782	100.01
3.09448	100.01
3.11115	100.01
3.12782	100.02
3.14448	100.01
3.16115	100.02
3.17782	100.02
3.19448	100.01
3.21115	100.02
3.22782	100.02
3.24448	100.02
3.26115	100.02
3.27782	100.02
3.29448	100.02
3.31115	100.02
3.32782	100.02
3.34448	100.03
3.36115	100.03
3.37782	100.02
3.39448	100.03
3.41115	100.03
3.42782	100.03
3.44448	100.03
3.46115	100.03
3.47782	100.03
3.49448	100.04
3.51115	100.03
3.52782	100.04
3.54448	100.03
3.56115	100.04
3.57782	100.04
3.59448	100.03
3.61115	100.04
3.62782	100.04
3.64448	100.04
3.66115	100.04
3.67782	100.04
3.69448	100.04
3.71115	100.04
3.72782	100.04
3.74448	100.04
3.76115	100.04
3.77782	100.04
3.79448	100.04
3.81115	100.04
3.82782	100.04
3.84448	100.04
3.86115	100.04
3.87782	100.04
3.89448	100.04
3.91115	100.04
3.92782	100.04
3.94448	100.04
3.96115	100.03
3.97782	100.04
3.99448	100.04

[Status Trace (Carrier Gas Pressure)]
Interval(msec)	1000
# of Points	240
Start Time(min)	0.011
End Time(min)	3.994
Intensity Units	
Intensity Multiplier	1
R.Time (min)	Intensity
0.01115	58.00
0.02782	54.99
0.04448	57.52
0.06115	59.62
0.07782	58.98
0.09448	58.01
0.11115	57.99
0.12782	58.01
0.14448	58.01
0.16115	58.00
0.17782	58.00
0.19448	58.00
0.21115	58.00
0.22782	58.00
0.24448	58.00
0.26115	58.00
0.27782	58.00
0.29448	58.00
0.31115	58.00
0.32782	58.00
0.34448	58.00
0.36115	58.00
0.37782	58.00
0.39448	58.00
0.41115	58.00
0.42782	58.00
0.44448	58.00
0.46115	58.00
0.47782	58.00
0.49448	58.00
0.51115	58.00
0.52782	58.00
0.54448	58.00
0.56115	58.00
0.57782	58.00
0.59448	58.00
0.61115	58.00
0.62782	58.00
0.64448	58.00
0.66115	58.00
0.67782	58.00
0.69448	58.00
0.71115	58.00
0.72782	58.00
0.74448	58.00
0.76115	58.00
0.77782	58.00
0.79448	58.00
0.81115	58.00
0.82782	58.00
0.84448	58.00
0.86115	58.00
0.87782	58.00
0.89448	58.00
0.91115	58.00
0.92782	58.00
0.94448	58.00
0.96115	58.00
0.97782	58.00
0.99448	58.00
1.01115	58.00
1.02782	58.00
1.04448	58.00
1.06115	58.00
1.07782	58.00
1.09448	58.00
1.11115	58.00
1.12782	58.00
1.14448	58.00
1.16115	58.00
1.17782	58.00
1.19448	58.00
1.21115	58.00
1.22782	58.00
1.24448	58.00
1.26115	58.00
1.27782	58.00
1.29448	58.00
1.31115	58.00
1.32782	58.00
1.34448	58.00
1.36115	58.00
1.37782	58.00
1.39448	58.00
1.41115	58.00
1.42782	58.00
1.44448	58.00
1.46115	58.00
1.47782	58.00
1.49448	58.00
1.51115	58.00
1.52782	58.00
1.54448	58.00
1.56115	58.00
1.57782	58.00
1.59448	58.00
1.61115	58.00
1.62782	58.00
1.64448	58.01
1.66115	58.00
1.67782	58.01
1.69448	58.00
1.71115	58.00
1.72782	58.00
1.74448	58.00
1.76115	58.00
1.77782	58.00
1.79448	58.00
1.81115	58.00
1.82782	58.00
1.84448	58.00
1.86115	58.00
1.87782	58.00
1.89448	58.00
1.91115	58.00
1.92782	58.00
1.94448	58.00
1.96115	58.00
1.97782	58.00
1.99448	58.00
2.01115	58.00
2.02782	58.00
2.04448	58.00
2.06115	58.00
2.07782	58.00
2.09448	58.00
2.11115	58.00
2.12782	58.00
2.14448	58.00
2.16115	58.00
2.17782	58.00
2.19448	58.00
2.21115	58.00
2.22782	58.00
2.24448	58.00
2.26115	58.00
2.27782	58.00
2.29448	58.00
2.31115	58.00
2.32782	58.00
2.34448	58.00
2.36115	58.00
2.37782	58.00
2.39448	57.99
2.41115	57.99
2.42782	58.00
2.44448	58.00
2.46115	58.00
2.47782	58.00
2.49448	58.00
2.51115	57.99
2.52782	57.99
2.54448	58.00
2.56115	58.00
2.57782	58.00
2.59448	58.00
2.61115	58.00
2.62782	58.00
2.64448	58.00
2.66115	58.00
2.67782	58.00
2.69448	58.00
2.71115	58.00
2.72782	58.00
2.74448	58.00
2.76115	58.00
2.77782	58.00
2.79448	58.00
2.81115	58.00
2.82782	58.00
2.84448	58.00
2.86115	58.00
2.87782	58.00
2.89448	58.00
2.91115	58.00
2.92782	58.00
2.94448	58.00
2.96115	58.00
2.97782	58.00
2.99448	58.00
3.01115	58.00
3.02782	58.00
3.04448	58.00
3.06115	58.00
3.07782	58.00
3.09448	58.00
3.11115	58.00
3.12782	58.00
3.14448	58.00
3.16115	58.00
3.17782	58.00
3.19448	58.00
3.21115	58.00
3.22782	58.00
3.24448	58.00
3.26115	58.00
3.27782	58.00
3.29448	58.00
3.31115	58.00
3.32782	58.00
3.34448	58.00
3.36115	58.00
3.37782	58.00
3.39448	58.00
3.41115	58.00
3.42782	58.00
3.44448	58.00
3.46115	58.00
3.47782	58.00
3.49448	58.00
3.51115	58.00
3.52782	58.00
3.54448	58.00
3.56115	58.00
3.57782	58.00
3.59448	58.00
3.61115	58.00
3.62782	58.00
3.64448	58.00
3.66115	58.00
3.67782	58.00
3.69448	58.00
3.71115	58.00
3.72782	58.00
3.74448	58.00
3.76115	58.00
3.77782	58.00
3.79448	58.00
3.81115	58.00
3.82782	58.00
3.84448	58.00
3.86115	58.00
3.87782	58.00
3.89448	58.00
3.91115	58.00
3.92782	58.00
3.94448	58.00
3.96115	58.00
3.97782	58.00
3.99448	58.00

[Status Trace (Carrier Gas Flow)]
Interval(msec)	1000
# of Points	240
Start Time(min)	0.011
End Time(min)	3.994
Intensity Units	
Intensity Multiplier	1
R.Time (min)	Intensity
0.01115	34.52
0.02782	34.53
0.04448	34.55
0.06115	34.54
0.07782	34.50
0.09448	34.52
0.11115	34.52
0.12782	34.52
0.14448	34.52
0.16115	34.52
0.17782	34.52
0.19448	34.52
0.21115	34.52
0.22782	34.52
0.24448	34.52
0.26115	34.52
0.27782	34.52
0.29448	34.52
0.31115	34.52
0.32782	34.52
0.34448	34.52
0.36115	34.52
0.37782	34.52
0.39448	34.52
0.41115	34.52
0.42782	34.52
0.44448	34.52
0.46115	34.52
0.47782	34.52
0.49448	34.52
0.51115	34.52
0.52782	34.52
0.54448	34.52
0.56115	34.52
0.57782	34.52
0.59448	34.52
0.61115	34.52
0.62782	34.52
0.64448	34.52
0.66115	34.52
0.67782	34.52
0.69448	34.52
0.71115	34.51
0.72782	34.52
0.74448	34.52
0.76115	34.52
0.77782	34.51
0.79448	34.52
0.81115	34.53
0.82782	34.52
0.84448	34.52
0.86115	34.52
0.87782	34.52
0.89448	34.52
0.91115	34.51
0.92782	34.52
0.94448	34.52
0.96115	34.52
0.97782	34.52
0.99448	34.52
1.01115	34.52
1.02782	34.52
1.04448	34.52
1.06115	34.52
1.07782	34.52
1.09448	34.51
1.11115	34.52
1.12782	34.52
1.14448	34.52
1.16115	34.52
1.17782	34.52
1.19448	34.52
1.21115	34.51
1.22782	34.52
1.24448	34.52
1.26115	34.52
1.27782	34.52
1.29448	34.52
1.31115	34.52
1.32782	34.52
1.34448	34.51
1.36115	34.52
1.37782	34.52
1.39448	34.52
1.41115	34.52
1.42782	34.52
1.44448	34.52
1.46115	34.52
1.47782	34.52
1.49448	34.52
1.51115	34.52
1.52782	34.52
1.54448	34.51
1.56115	34.52
1.57782	34.52
1.59448	34.52
1.61115	34.51
1.62782	34.52
1.64448	34.51
1.66115	34.52
1.67782	34.52
1.69448	34.52
1.71115	34.52
1.72782	34.52
1.74448	34.51
1.76115	34.52
1.77782	34.53
1.79448	34.52
1.81115	34.51
1.82782	34.52
1.84448	34.51
1.86115	34.52
1.87782	34.52
1.89448	34.52
1.91115	34.52
1.92782	34.52
1.94448	34.52
1.96115	34.52
1.97782	34.52
1.99448	34.52
2.01115	34.52
2.02782	34.52
2.04448	34.52
2.06115	34.52
2.07782	34.52
2.09448	34.51
2.11115	34.52
2.12782	34.52
2.14448	34.51
2.16115	34.52
2.17782	34.52
2.19448	34.52
2.21115	34.52
2.22782	34.52
2.24448	34.52
2.26115	34.52
2.27782	34.52
2.29448	34.52
2.31115	34.52
2.32782	34.52
2.34448	34.52
2.36115	34.52
2.37782	34.52
2.39448	34.52
2.41115	34.52
2.42782	34.53
2.44448	34.52
2.46115	34.52
2.47782	34.52
2.49448	34.52
2.51115	34.52
2.52782	34.51
2.54448	34.52
2.56115	34.52
2.57782	34.52
2.59448	34.52
2.61115	34.52
2.62782	34.52
2.64448	34.52
2.66115	34.51
2.67782	34.52
2.69448	34.52
2.71115	34.52
2.72782	34.51
2.74448	34.52
2.76115	34.52
2.77782	34.52
2.79448	34.52
2.81115	34.52
2.82782	34.52
2.84448	34.52
2.86115	34.52
2.87782	34.52
2.89448	34.52
2.91115	34.52
2.92782	34.52
2.94448	34.52
2.96115	34.52
2.97782	34.52
2.99448	34.52
3.01115	34.52
3.02782	34.52
3.04448	34.52
3.06115	34.52
3.07782	34.52
3.09448	34.52
3.11115	34.52
3.12782	34.52
3.14448	34.52
3.16115	34.52
3.17782	34.52
3.19448	34.52
3.21115	34.52
3.22782	34.52
3.24448	34.52
3.26115	34.52
3.27782	34.52
3.29448	34.52
3.31115	34.52
3.32782	34.52
3.34448	34.52
3.36115	34.52
3.37782	34.53
3.39448	34.52
3.41115	34.52
3.42782	34.52
3.44448	34.51
3.46115	34.52
3.47782	34.52
3.49448	34.53
3.51115	34.52
3.52782	34.52
3.54448	34.52
3.56115	34.52
3.57782	34.52
3.59448	34.52
3.61115	34.52
3.62782	34.52
3.64448	34.52
3.66115	34.51
3.67782	34.52
3.69448	34.52
3.71115	34.52
3.72782	34.52
3.74448	34.52
3.76115	34.52
3.77782	34.52
3.79448	34.51
3.81115	34.52
3.82782	34.52
3.84448	34.52
3.86115	34.52
3.87782	34.52
3.89448	34.52
3.91115	34.52
3.92782	34.52
3.94448	34.52
3.96115	34.52
3.97782	34.52
3.99448	34.52

[Status Trace (Column Flow)]
Interval(msec)	1000
# of Points	240
Start Time(min)	0.011
End Time(min)	3.994
Intensity Units	
Intensity Multiplier	1
R.Time (min)	Intensity
0.01115	5.55
0.02782	5.20
0.04448	5.49
0.06115	5.74
0.07782	5.67
0.09448	5.55
0.11115	5.55
0.12782	5.55
0.14448	5.55
0.16115	5.55
0.17782	5.55
0.19448	5.55
0.21115	5.55
0.22782	5.55
0.24448	5.55
0.26115	5.55
0.27782	5.55
0.29448	5.55
0.31115	5.55
0.32782	5.55
0.34448	5.55
0.36115	5.55
0.37782	5.55
0.39448	5.55
0.41115	5.55
0.42782	5.55
0.44448	5.55
0.46115	5.55
0.47782	5.55
0.49448	5.55
0.51115	5.55
0.52782	5.55
0.54448	5.55
0.56115	5.55
0.57782	5.55
0.59448	5.55
0.61115	5.55
0.62782	5.55
0.64448	5.55
0.66115	5.55
0.67782	5.55
0.69448	5.55
0.71115	5.55
0.72782	5.55
0.74448	5.55
0.76115	5.55
0.77782	5.55
0.79448	5.55
0.81115	5.55
0.82782	5.55
0.84448	5.55
0.86115	5.55
0.87782	5.55
0.89448	5.55
0.91115	5.55
0.92782	5.55
0.94448	5.55
0.96115	5.55
0.97782	5.55
0.99448	5.55
1.01115	5.55
1.02782	5.55
1.04448	5.55
1.06115	5.55
1.07782	5.55
1.09448	5.55
1.11115	5.55
1.12782	5.55
1.14448	5.55
1.16115	5.55
1.17782	5.55
1.19448	5.55
1.21115	5.55
1.22782	5.55
1.24448	5.55
1.26115	5.55
1.27782	5.55
1.29448	5.55
1.31115	5.55
1.32782	5.55
1.34448	5.55
1.36115	5.55
1.37782	5.55
1.39448	5.55
1.41115	5.55
1.42782	5.55
1.44448	5.55
1.46115	5.55
1.47782	5.55
1.49448	5.55
1.51115	5.55
1.52782	5.55
1.54448	5.55
1.56115	5.55
1.57782	5.55
1.59448	5.55
1.61115	5.55
1.62782	5.55
1.64448	5.54
1.66115	5.53
1.67782	5.52
1.69448	5.51
1.71115	5.50
1.72782	5.49
1.74448	5.48
1.76115	5.47
1.77782	5.46
1.79448	5.45
1.81115	5.44
1.82782	5.43
1.84448	5.42
1.86115	5.41
1.87782	5.40
1.89448	5.39
1.91115	5.38
1.92782	5.37
1.94448	5.36
1.96115	5.35
1.97782	5.34
1.99448	5.33
2.01115	5.32
2.02782	5.31
2.04448	5.30
2.06115	5.29
2.07782	5.28
2.09448	5.27
2.11115	5.26
2.12782	5.25
2.14448	5.24
2.16115	5.23
2.17782	5.22
2.19448	5.21
2.21115	5.20
2.22782	5.19
2.24448	5.19
2.26115	5.18
2.27782	5.17
2.29448	5.16
2.31115	5.15
2.32782	5.14
2.34448	5.13
2.36115	5.12
2.37782	5.12
2.39448	5.12
2.41115	5.12
2.42782	5.12
2.44448	5.12
2.46115	5.12
2.47782	5.11
2.49448	5.11
2.51115	5.11
2.52782	5.11
2.54448	5.11
2.56115	5.11
2.57782	5.11
2.59448	5.11
2.61115	5.11
2.62782	5.11
2.64448	5.11
2.66115	5.11
2.67782	5.11
2.69448	5.11
2.71115	5.11
2.72782	5.11
2.74448	5.11
2.76115	5.11
2.77782	5.11
2.79448	5.11
2.81115	5.11
2.82782	5.11
2.84448	5.11
2.86115	5.11
2.87782	5.11
2.89448	5.11
2.91115	5.11
2.92782	5.11
2.94448	5.11
2.96115	5.11
2.97782	5.11
2.99448	5.11
3.01115	5.11
3.02782	5.11
3.04448	5.11
3.06115	5.11
3.07782	5.11
3.09448	5.11
3.11115	5.11
3.12782	5.11
3.14448	5.11
3.16115	5.11
3.17782	5.11
3.19448	5.11
3.21115	5.11
3.22782	5.11
3.24448	5.11
3.26115	5.11
3.27782	5.11
3.29448	5.10
3.31115	5.10
3.32782	5.10
3.34448	5.10
3.36115	5.10
3.37782	5.11
3.39448	5.11
3.41115	5.11
3.42782	5.11
3.44448	5.11
3.46115	5.11
3.47782	5.11
3.49448	5.11
3.51115	5.11
3.52782	5.11
3.54448	5.11
3.56115	5.11
3.57782	5.11
3.59448	5.11
3.61115	5.11
3.62782	5.11
3.64448	5.11
3.66115	5.11
3.67782	5.11
3.69448	5.11
3.71115	5.11
3.72782	5.11
3.74448	5.11
3.76115	5.11
3.77782	5.11
3.79448	5.11
3.81115	5.11
3.82782	5.11
3.84448	5.11
3.86115	5.11
3.87782	5.11
3.89448	5.11
3.91115	5.11
3.92782	5.11
3.94448	5.11
3.96115	5.11
3.97782	5.11
3.99448	5.11

[Status Trace (Linear Velocity)]
Interval(msec)	1000
# of Points	240
Start Time(min)	0.011
End Time(min)	3.994
Intensity Units	
Intensity Multiplier	1
R.Time (min)	Intensity
0.01115	39.02
0.02782	37.04
0.04448	38.70
0.06115	40.08
0.07782	39.66
0.09448	39.02
0.11115	39.01
0.12782	39.02
0.14448	39.02
0.16115	39.02
0.17782	39.02
0.19448	39.02
0.21115	39.02
0.22782	39.02
0.24448	39.02
0.26115	39.02
0.27782	39.02
0.29448	39.02
0.31115	39.02
0.32782	39.03
0.34448	39.02
0.36115	39.02
0.37782	39.02
0.39448	39.02
0.41115	39.03
0.42782	39.03
0.44448	39.03
0.46115	39.03
0.47782	39.03
0.49448	39.02
0.51115	39.03
0.52782	39.03
0.54448	39.03
0.56115	39.02
0.57782	39.03
0.59448	39.03
0.61115	39.03
0.62782	39.02
0.64448	39.02
0.66115	39.03
0.67782	39.02
0.69448	39.02
0.71115	39.02
0.72782	39.02
0.74448	39.02
0.76115	39.02
0.77782	39.02
0.79448	39.02
0.81115	39.02
0.82782	39.02
0.84448	39.02
0.86115	39.02
0.87782	39.02
0.89448	39.02
0.91115	39.03
0.92782	39.02
0.94448	39.03
0.96115	39.03
0.97782	39.03
0.99448	39.03
1.01115	39.03
1.02782	39.03
1.04448	39.03
1.06115	39.03
1.07782	39.03
1.09448	39.03
1.11115	39.03
1.12782	39.03
1.14448	39.03
1.16115	39.03
1.17782	39.03
1.19448	39.02
1.21115	39.02
1.22782	39.02
1.24448	39.02
1.26115	39.02
1.27782	39.02
1.29448	39.03
1.31115	39.03
1.32782	39.02
1.34448	39.02
1.36115	39.02
1.37782	39.02
1.39448	39.02
1.41115	39.02
1.42782	39.02
1.44448	39.02
1.46115	39.02
1.47782	39.02
1.49448	39.02
1.51115	39.03
1.52782	39.02
1.54448	39.02
1.56115	39.02
1.57782	39.03
1.59448	39.02
1.61115	39.02
1.62782	39.01
1.64448	38.99
1.66115	38.96
1.67782	38.93
1.69448	38.89
1.71115	38.85
1.72782	38.82
1.74448	38.80
1.76115	38.77
1.77782	38.73
1.79448	38.70
1.81115	38.67
1.82782	38.64
1.84448	38.61
1.86115	38.58
1.87782	38.54
1.89448	38.51
1.91115	38.48
1.92782	38.45
1.94448	38.42
1.96115	38.39
1.97782	38.36
1.99448	38.33
2.01115	38.30
2.02782	38.27
2.04448	38.24
2.06115	38.21
2.07782	38.18
2.09448	38.15
2.11115	38.12
2.12782	38.09
2.14448	38.06
2.16115	38.03
2.17782	38.00
2.19448	37.97
2.21115	37.94
2.22782	37.91
2.24448	37.89
2.26115	37.86
2.27782	37.83
2.29448	37.80
2.31115	37.77
2.32782	37.74
2.34448	37.71
2.36115	37.69
2.37782	37.67
2.39448	37.66
2.41115	37.66
2.42782	37.67
2.44448	37.67
2.46115	37.66
2.47782	37.66
2.49448	37.66
2.51115	37.66
2.52782	37.65
2.54448	37.66
2.56115	37.66
2.57782	37.66
2.59448	37.66
2.61115	37.66
2.62782	37.66
2.64448	37.66
2.66115	37.65
2.67782	37.65
2.69448	37.65
2.71115	37.65
2.72782	37.65
2.74448	37.65
2.76115	37.65
2.77782	37.65
2.79448	37.65
2.81115	37.65
2.82782	37.65
2.84448	37.65
2.86115	37.65
2.87782	37.65
2.89448	37.65
2.91115	37.65
2.92782	37.65
2.94448	37.64
2.96115	37.64
2.97782	37.64
2.99448	37.64
3.01115	37.64
3.02782	37.64
3.04448	37.64
3.06115	37.64
3.07782	37.64
3.09448	37.64
3.11115	37.64
3.12782	37.64
3.14448	37.64
3.16115	37.64
3.17782	37.64
3.19448	37.64
3.21115	37.63
3.22782	37.63
3.24448	37.63
3.26115	37.63
3.27782	37.63
3.29448	37.63
3.31115	37.63
3.32782	37.63
3.34448	37.63
3.36115	37.63
3.37782	37.63
3.39448	37.64
3.41115	37.64
3.42782	37.64
3.44448	37.64
3.46115	37.64
3.47782	37.64
3.49448	37.64
3.51115	37.64
3.52782	37.64
3.54448	37.64
3.56115	37.64
3.57782	37.64
3.59448	37.64
3.61115	37.64
3.62782	37.64
3.64448	37.64
3.66115	37.64
3.67782	37.64
3.69448	37.64
3.71115	37.64
3.72782	37.64
3.74448	37.64
3.76115	37.64
3.77782	37.64
3.79448	37.64
3.81115	37.64
3.82782	37.64
3.84448	37.64
3.86115	37.64
3.87782	37.64
3.89448	37.64
3.91115	37.64
3.92782	37.64
3.94448	37.64
3.96115	37.64
3.97782	37.64
3.99448	37.64

