[Header]
Application Name	LabSolutions
Version	5.110
Data File Name	C:\Users\User\Desktop\GC Analyses\Jack\Nachusa Grasslands Sampling\T4 Timepoint July 12th\T4_07122022_084.gcd
Output Date	3/17/2023
Output Time	12:04:56 PM

[File Information]
Type	Data File
Generated	3/15/2023 12:49:35 AM
Generated by	System Administrator
Modified	3/15/2023 12:56:13 AM
Modified by	System Administrator

[Sample Information]
Operator Name	System Administrator
Acquired	3/15/2023 12:52:12 AM
Sample Type	0:Unknown
Level	0
Sample Name	084
Sample ID	084
ISTD Amount1	1
ISTD Amount2	1
ISTD Amount3	1
ISTD Amount4	1
ISTD Amount5	1
ISTD Amount6	1
ISTD Amount7	1
ISTD Amount8	1
ISTD Amount9	1
ISTD Amount10	1
ISTD Amount11	1
ISTD Amount12	1
ISTD Amount13	1
ISTD Amount14	1
ISTD Amount15	1
ISTD Amount16	1
ISTD Amount17	1
ISTD Amount18	1
ISTD Amount19	1
ISTD Amount20	1
ISTD Amount21	1
ISTD Amount22	1
ISTD Amount23	1
ISTD Amount24	1
ISTD Amount25	1
ISTD Amount26	1
ISTD Amount27	1
ISTD Amount28	1
ISTD Amount29	1
ISTD Amount30	1
ISTD Amount31	1
ISTD Amount32	1
Sample Amount	1
Dilution Factor	1
Vial#	83
Injection Volume	1
Injection Count	1
Bar Code	

[Original Files]
Data File	C:\Users\User\Desktop\GC Analyses\Jack\Nachusa Grasslands Sampling\T4 Timepoint July 12th\T4_07122022_084.gcd
Method File	C:\LabSolutions\Data\GHG_4min_2022\ghg3_togas_w_acet_4 min_new_int.gcm
Batch File	C:\LabSolutions\Data\AutoSamplerTesting\T4_07122022.gcb
Report Format File	c:\LabSolutions\System\DEFAULT.lsr

[File Description]


[Configuration]
Instrument Name	C0B7VH3-Instrument1
Instrument #	1
Line #	1
# of Detectors	3
Detector ID	DET#1	DET#2	DET#3
Detector Name	FID	PTCD	ECD
# of Channels	1	1	1

[Peak Table(Ch1)]
# of Peaks	3
Peak#	R.Time	I.Time	F.Time	Area	Height	A/H	Conc.	Mark	ID#	Name	k'	Plate #	Plate Ht.	Tailing	Resolution	Sep.Factor	Area Ratio	Height Ratio	Conc. %	Norm Conc.
1	1.476	1.435	1.538	24513	12036	2.037	173.061	   	1	CO	0.000	9678	15.499	1.293	0.000	0.000	0	0	14.207	14.207
2	1.571	1.538	1.626	3719	1918	1.939	71.917	 V 	2	CH4	0.065	11759	12.756	1.099	1.617	0.000	0	0	5.904	5.904
3	1.996	1.949	2.491	3877517	1851406	2.094	973.152	   	3	CO2	0.353	17231	8.705	1.338	7.161	5.462	0	0	79.889	79.889

[Peak Table(Ch2)]
# of Peaks	0

[Peak Table(Ch3)]
# of Peaks	5
Peak#	R.Time	I.Time	F.Time	Area	Height	A/H	Conc.	Mark	ID#	Name	k'	Plate #	Plate Ht.	Tailing	Resolution	Sep.Factor	Area Ratio	Height Ratio	Conc. %	Norm Conc.
1	2.462	2.352	2.510	2234	761	2.936	0.000	   			0.000	11521	13.020	0.000	0.000	0.000	0	0	0.000	0.000
2	2.532	2.510	2.579	1020	357	2.854	0.000	 V 			0.028	8231	18.223	0.000	0.685	0.000	0	0	0.000	0.000
3	2.605	2.579	2.675	639	167	3.819	0.000	 V 			0.058	3268	45.896	0.000	0.499	2.053	0	0	0.000	0.000
4	2.880	2.704	3.111	19282	4890	3.943	0.493	   	1	N2O	0.170	12950	11.583	1.495	1.940	2.923	0	0	100.000	100.000
5	3.463	3.155	3.547	1520	107	14.156	0.000	   	2	SF6	0.407	1726	86.904	0.646	2.683	2.395	0	0	0.000	0.000

[Compound Results(Ch1)]
# of IDs	6
ID#	Name	R.Time	Area	Height	Conc.	Curve	3rd	2nd	1st	Constant	Area Ratio	Height Ratio	Conc. %	Norm Conc.
1	CO	1.476	24513	12036	173.061	Linear	0.000000e+00	0.000000e+00	1.416423e+002	0.000000e+00	0	0	14.207	14.207
2	CH4	1.571	3719	1918	71.917	Linear	0.000000e+00	0.000000e+00	5.171738e+001	0.000000e+00	0	0	5.904	5.904
3	CO2	1.996	3877517	1851406	973.152	Linear	0.000000e+00	0.000000e+00	3.984494e+003	0.000000e+00	0	0	79.889	79.889
4	Ethylene	0.000	0	0	0.000	Linear	0.000000e+00	0.000000e+00	0.000000e+00	0.000000e+00	0	0	0.000	0.000
5	Acetylene	0.000	0	0	0.000	Linear	0.000000e+00	0.000000e+00	0.000000e+00	0.000000e+00	0	0	0.000	0.000
6	Ethane	0.000	0	0	0.000	Linear	0.000000e+00	0.000000e+00	0.000000e+00	0.000000e+00	0	0	0.000	0.000

[Compound Results(Ch2)]
# of IDs	5
ID#	Name	R.Time	Area	Height	Conc.	Curve	3rd	2nd	1st	Constant	Area Ratio	Height Ratio	Conc. %	Norm Conc.
1	Hydrogen	0.000	0	0	0.000	Linear	0.000000e+00	0.000000e+00	0.000000e+00	0.000000e+00	0	0	0.000	0.000
2	Oxygen	0.000	0	0	0.000	Linear	0.000000e+00	0.000000e+00	0.000000e+00	0.000000e+00	0	0	0.000	0.000
3	Nitrogen	0.000	0	0	0.000	Linear	0.000000e+00	0.000000e+00	0.000000e+00	0.000000e+00	0	0	0.000	0.000
4	Methane	0.000	0	0	0.000	Linear	0.000000e+00	0.000000e+00	0.000000e+00	0.000000e+00	0	0	0.000	0.000
5	Carbon Monoxide	0.000	0	0	0.000	Linear	0.000000e+00	0.000000e+00	0.000000e+00	0.000000e+00	0	0	0.000	0.000

[Compound Results(Ch3)]
# of IDs	2
ID#	Name	R.Time	Area	Height	Conc.	Curve	3rd	2nd	1st	Constant	Area Ratio	Height Ratio	Conc. %	Norm Conc.
1	N2O	2.880	19282	4890	0.493	Linear	0.000000e+00	0.000000e+00	3.915173e+004	0.000000e+00	0	0	100.000	100.000
2	SF6	3.463	1520	107	0.000	Linear	0.000000e+00	0.000000e+00	0.000000e+00	0.000000e+00	0	0	0.000	0.000

[Group Results(Ch1)]
# of Groups	0

[Group Results(Ch2)]
# of Groups	0

[Group Results(Ch3)]
# of Groups	0

[Chromatogram (Ch1)]
Interval(msec)	220
# of Points	1091
Start Time(min)	0.002
End Time(min)	3.998
R.Time (min)	Intensity
0.00167	-2
0.00533	-11
0.00900	-14
0.01267	-3
0.01633	4
0.02000	3
0.02367	0
0.02733	-5
0.03100	-12
0.03467	-17
0.03833	-11
0.04200	0
0.04567	10
0.04933	13
0.05300	11
0.05667	8
0.06033	5
0.06400	7
0.06767	9
0.07133	12
0.07500	13
0.07867	15
0.08233	17
0.08600	18
0.08967	19
0.09333	17
0.09700	17
0.10067	17
0.10433	14
0.10800	7
0.11167	-2
0.11533	-5
0.11900	-4
0.12267	-0
0.12633	4
0.13000	11
0.13367	18
0.13733	19
0.14100	16
0.14467	11
0.14833	5
0.15200	-2
0.15567	-4
0.15933	-4
0.16300	1
0.16667	6
0.17033	14
0.17400	21
0.17767	24
0.18133	26
0.18500	31
0.18867	33
0.19233	29
0.19600	25
0.19967	19
0.20333	13
0.20700	11
0.21067	9
0.21433	8
0.21800	12
0.22167	24
0.22533	37
0.22900	38
0.23267	30
0.23633	21
0.24000	11
0.24367	0
0.24733	-5
0.25100	-5
0.25467	-2
0.25833	3
0.26200	4
0.26567	1
0.26933	0
0.27300	1
0.27667	1
0.28033	2
0.28400	3
0.28767	7
0.29133	15
0.29500	23
0.29867	23
0.30233	20
0.30600	20
0.30967	22
0.31333	20
0.31700	12
0.32067	7
0.32433	7
0.32800	9
0.33167	10
0.33533	9
0.33900	12
0.34267	15
0.34633	17
0.35000	17
0.35367	14
0.35733	6
0.36100	-3
0.36467	-8
0.36833	-12
0.37200	-6
0.37567	3
0.37933	12
0.38300	20
0.38667	20
0.39033	17
0.39400	15
0.39767	13
0.40133	10
0.40500	5
0.40867	1
0.41233	-3
0.41600	3
0.41967	14
0.42333	19
0.42700	22
0.43067	20
0.43433	16
0.43800	12
0.44167	10
0.44533	9
0.44900	15
0.45267	20
0.45633	20
0.46000	17
0.46367	22
0.46733	20
0.47100	7
0.47467	-12
0.47833	-26
0.48200	-33
0.48567	-35
0.48933	-27
0.49300	-22
0.49667	-22
0.50033	-27
0.50400	-30
0.50767	-33
0.51133	-33
0.51500	-32
0.51867	-27
0.52233	-26
0.52600	-30
0.52967	-27
0.53333	-17
0.53700	-6
0.54067	6
0.54433	15
0.54800	21
0.55167	20
0.55533	12
0.55900	3
0.56267	-6
0.56633	-10
0.57000	-11
0.57367	-17
0.57733	-27
0.58100	-36
0.58467	-38
0.58833	-36
0.59200	-34
0.59567	-28
0.59933	-19
0.60300	-12
0.60667	-6
0.61033	-4
0.61400	-4
0.61767	-1
0.62133	1
0.62500	-2
0.62867	-8
0.63233	-17
0.63600	-21
0.63967	-27
0.64333	-31
0.64700	-30
0.65067	-26
0.65433	-19
0.65800	-14
0.66167	-10
0.66533	-8
0.66900	-9
0.67267	-15
0.67633	-23
0.68000	-29
0.68367	-34
0.68733	-39
0.69100	-43
0.69467	-41
0.69833	-30
0.70200	-22
0.70567	-17
0.70933	-12
0.71300	-10
0.71667	-8
0.72033	-6
0.72400	-9
0.72767	-16
0.73133	-20
0.73500	-24
0.73867	-27
0.74233	-26
0.74600	-19
0.74967	-13
0.75333	-8
0.75700	-7
0.76067	-8
0.76433	-8
0.76800	-6
0.77167	-2
0.77533	-0
0.77900	-14
0.78267	-19
0.78633	-24
0.79000	-31
0.79367	-36
0.79733	-38
0.80100	-33
0.80467	-22
0.80833	-14
0.81200	-11
0.81567	-12
0.81933	-17
0.82300	-23
0.82667	-28
0.83033	-28
0.83400	-24
0.83767	-17
0.84133	-13
0.84500	-10
0.84867	-12
0.85233	-19
0.85600	-27
0.85967	-26
0.86333	-26
0.86700	-31
0.87067	-33
0.87433	-35
0.87800	-37
0.88167	-34
0.88533	-25
0.88900	-14
0.89267	-4
0.89633	4
0.90000	8
0.90367	9
0.90733	4
0.91100	3
0.91467	3
0.91833	-0
0.92200	-1
0.92567	1
0.92933	9
0.93300	20
0.93667	23
0.94033	15
0.94400	8
0.94767	2
0.95133	-4
0.95500	-2
0.95867	4
0.96233	7
0.96600	2
0.96967	-5
0.97333	-11
0.97700	-17
0.98067	-21
0.98433	-18
0.98800	-11
0.99167	-5
0.99533	-0
0.99900	6
1.00267	14
1.00633	21
1.01000	21
1.01367	17
1.01733	10
1.02100	3
1.02467	-1
1.02833	-4
1.03200	-7
1.03567	-11
1.03933	-12
1.04300	-13
1.04667	-12
1.05033	-12
1.05400	-13
1.05767	-10
1.06133	-6
1.06500	-2
1.06867	1
1.07233	0
1.07600	-4
1.07967	-7
1.08333	-9
1.08700	-7
1.09067	-6
1.09433	-4
1.09800	-0
1.10167	6
1.10533	7
1.10900	-5
1.11267	-14
1.11633	-12
1.12000	-7
1.12367	-5
1.12733	-10
1.13100	-22
1.13467	-35
1.13833	-42
1.14200	-39
1.14567	-34
1.14933	-30
1.15300	-28
1.15667	-26
1.16033	-24
1.16400	-22
1.16767	-19
1.17133	-19
1.17500	-18
1.17867	-11
1.18233	-6
1.18600	-7
1.18967	-12
1.19333	-13
1.19700	-12
1.20067	-12
1.20433	-12
1.20800	-10
1.21167	-12
1.21533	-14
1.21900	-13
1.22267	-11
1.22633	-9
1.23000	-10
1.23367	-17
1.23733	-23
1.24100	-27
1.24467	-26
1.24833	-20
1.25200	-15
1.25567	-14
1.25933	-13
1.26300	-8
1.26667	-11
1.27033	-14
1.27400	-13
1.27767	-14
1.28133	-20
1.28500	-25
1.28867	-31
1.29233	-35
1.29600	-35
1.29967	-33
1.30333	-33
1.30700	-33
1.31067	-31
1.31433	-23
1.31800	-13
1.32167	-8
1.32533	-10
1.32900	-14
1.33267	-18
1.33633	-25
1.34000	-33
1.34367	-39
1.34733	-39
1.35100	-37
1.35467	-36
1.35833	-40
1.36200	-41
1.36567	-39
1.36933	-36
1.37300	-27
1.37667	-19
1.38033	-17
1.38400	-21
1.38767	-27
1.39133	-35
1.39500	-41
1.39867	-45
1.40233	-53
1.40600	-56
1.40967	-54
1.41333	-43
1.41700	-39
1.42067	-39
1.42433	-39
1.42800	-38
1.43167	-39
1.43533	-35
1.43900	-14
1.44267	25
1.44633	141
1.45000	476
1.45367	1379
1.45733	3126
1.46100	5458
1.46467	7812
1.46833	9795
1.47200	11228
1.47567	11995
1.47933	11966
1.48300	11106
1.48667	9581
1.49033	7720
1.49400	5869
1.49767	4260
1.50133	2972
1.50500	2021
1.50867	1337
1.51233	861
1.51600	537
1.51967	320
1.52333	181
1.52700	90
1.53067	32
1.53433	-4
1.53800	-22
1.54167	10
1.54533	125
1.54900	363
1.55267	707
1.55633	1083
1.56000	1419
1.56367	1673
1.56733	1829
1.57100	1864
1.57467	1748
1.57833	1506
1.58200	1191
1.58567	875
1.58933	600
1.59300	390
1.59667	234
1.60033	124
1.60400	48
1.60767	-4
1.61133	-31
1.61500	-44
1.61867	-52
1.62233	-57
1.62600	-62
1.62967	-71
1.63333	-76
1.63700	-71
1.64067	-71
1.64433	-79
1.64800	-86
1.65167	-89
1.65533	-85
1.65900	-74
1.66267	-66
1.66633	-73
1.67000	-84
1.67367	-88
1.67733	-87
1.68100	-88
1.68467	-92
1.68833	-96
1.69200	-101
1.69567	-106
1.69933	-111
1.70300	-112
1.70667	-107
1.71033	-97
1.71400	-86
1.71767	-75
1.72133	-70
1.72500	-71
1.72867	-72
1.73233	-69
1.73600	-66
1.73967	-67
1.74333	-67
1.74700	-65
1.75067	-60
1.75433	-56
1.75800	-54
1.76167	-51
1.76533	-49
1.76900	-56
1.77267	-66
1.77633	-72
1.78000	-72
1.78367	-71
1.78733	-67
1.79100	-66
1.79467	-66
1.79833	-69
1.80200	-73
1.80567	-75
1.80933	-76
1.81300	-71
1.81667	-61
1.82033	-49
1.82400	-40
1.82767	-34
1.83133	-34
1.83500	-38
1.83867	-42
1.84233	-48
1.84600	-52
1.84967	-52
1.85333	-46
1.85700	-42
1.86067	-45
1.86433	-53
1.86800	-57
1.87167	-52
1.87533	-46
1.87900	-44
1.88267	-45
1.88633	-47
1.89000	-48
1.89367	-44
1.89733	-43
1.90100	-39
1.90467	-34
1.90833	-34
1.91200	-40
1.91567	-49
1.91933	-55
1.92300	-57
1.92667	-52
1.93033	-42
1.93400	-40
1.93767	-46
1.94133	-49
1.94500	-51
1.94867	-47
1.95233	-25
1.95600	140
1.95967	1195
1.96333	6659
1.96700	28083
1.97067	92049
1.97433	237492
1.97800	488995
1.98167	826832
1.98533	1191072
1.98900	1513811
1.99267	1743683
1.99633	1851386
2.00000	1828883
2.00367	1690092
2.00733	1466864
2.01100	1201390
2.01467	934552
2.01833	696432
2.02200	502147
2.02567	353891
2.02933	246106
2.03300	170351
2.03667	118279
2.04033	82946
2.04400	59103
2.04767	43003
2.05133	32080
2.05500	24564
2.05867	19310
2.06233	15567
2.06600	12848
2.06967	10828
2.07333	9288
2.07700	8087
2.08067	7132
2.08433	6358
2.08800	5717
2.09167	5182
2.09533	4728
2.09900	4337
2.10267	4002
2.10633	3708
2.11000	3437
2.11367	3206
2.11733	3001
2.12100	2818
2.12467	2653
2.12833	2504
2.13200	2371
2.13567	2256
2.13933	2153
2.14300	2061
2.14667	1975
2.15033	1898
2.15400	1821
2.15767	1738
2.16133	1661
2.16500	1588
2.16867	1524
2.17233	1464
2.17600	1406
2.17967	1351
2.18333	1303
2.18700	1262
2.19067	1227
2.19433	1193
2.19800	1158
2.20167	1119
2.20533	1085
2.20900	1052
2.21267	1019
2.21633	983
2.22000	949
2.22367	923
2.22733	903
2.23100	885
2.23467	865
2.23833	847
2.24200	831
2.24567	812
2.24933	793
2.25300	774
2.25667	756
2.26033	737
2.26400	717
2.26767	698
2.27133	678
2.27500	656
2.27867	632
2.28233	596
2.28600	577
2.28967	582
2.29333	596
2.29700	605
2.30067	604
2.30433	594
2.30800	578
2.31167	558
2.31533	543
2.31900	533
2.32267	528
2.32633	524
2.33000	518
2.33367	511
2.33733	498
2.34100	485
2.34467	477
2.34833	469
2.35200	458
2.35567	446
2.35933	437
2.36300	435
2.36667	437
2.37033	436
2.37400	435
2.37767	433
2.38133	427
2.38500	418
2.38867	412
2.39233	408
2.39600	400
2.39967	390
2.40333	383
2.40700	373
2.41067	357
2.41433	344
2.41800	339
2.42167	344
2.42533	356
2.42900	366
2.43267	367
2.43633	361
2.44000	353
2.44367	344
2.44733	334
2.45100	325
2.45467	323
2.45833	322
2.46200	321
2.46567	323
2.46933	328
2.47300	325
2.47667	322
2.48033	320
2.48400	308
2.48767	292
2.49133	269
2.49500	251
2.49867	257
2.50233	263
2.50600	265
2.50967	266
2.51333	270
2.51700	270
2.52067	271
2.52433	280
2.52800	281
2.53167	280
2.53533	277
2.53900	276
2.54267	276
2.54633	271
2.55000	263
2.55367	252
2.55733	248
2.56100	245
2.56467	241
2.56833	239
2.57200	228
2.57567	229
2.57933	239
2.58300	241
2.58667	239
2.59033	236
2.59400	233
2.59767	223
2.60133	220
2.60500	219
2.60867	212
2.61233	206
2.61600	202
2.61967	201
2.62333	194
2.62700	186
2.63067	181
2.63433	184
2.63800	192
2.64167	195
2.64533	197
2.64900	195
2.65267	192
2.65633	193
2.66000	196
2.66367	199
2.66733	202
2.67100	205
2.67467	206
2.67833	203
2.68200	200
2.68567	195
2.68933	193
2.69300	190
2.69667	187
2.70033	187
2.70400	184
2.70767	176
2.71133	169
2.71500	170
2.71867	174
2.72233	178
2.72600	182
2.72967	186
2.73333	187
2.73700	185
2.74067	182
2.74433	178
2.74800	173
2.75167	168
2.75533	167
2.75900	166
2.76267	166
2.76633	167
2.77000	170
2.77367	174
2.77733	178
2.78100	182
2.78467	175
2.78833	163
2.79200	159
2.79567	163
2.79933	167
2.80300	167
2.80667	162
2.81033	157
2.81400	152
2.81767	146
2.82133	140
2.82500	135
2.82867	133
2.83233	134
2.83600	136
2.83967	138
2.84333	137
2.84700	134
2.85067	134
2.85433	139
2.85800	147
2.86167	154
2.86533	159
2.86900	155
2.87267	151
2.87633	144
2.88000	139
2.88367	138
2.88733	137
2.89100	138
2.89467	142
2.89833	148
2.90200	156
2.90567	161
2.90933	154
2.91300	150
2.91667	149
2.92033	148
2.92400	141
2.92767	136
2.93133	134
2.93500	129
2.93867	120
2.94233	111
2.94600	109
2.94967	110
2.95333	115
2.95700	120
2.96067	125
2.96433	127
2.96800	129
2.97167	132
2.97533	134
2.97900	136
2.98267	135
2.98633	134
2.99000	129
2.99367	129
2.99733	130
3.00100	131
3.00467	130
3.00833	121
3.01200	133
3.01567	143
3.01933	148
3.02300	141
3.02667	124
3.03033	112
3.03400	124
3.03767	137
3.04133	145
3.04500	147
3.04867	142
3.05233	130
3.05600	120
3.05967	115
3.06333	111
3.06700	108
3.07067	106
3.07433	107
3.07800	108
3.08167	112
3.08533	112
3.08900	109
3.09267	113
3.09633	122
3.10000	131
3.10367	135
3.10733	137
3.11100	140
3.11467	140
3.11833	139
3.12200	134
3.12567	123
3.12933	120
3.13300	120
3.13667	114
3.14033	105
3.14400	99
3.14767	98
3.15133	103
3.15500	108
3.15867	112
3.16233	114
3.16600	112
3.16967	103
3.17333	88
3.17700	73
3.18067	64
3.18433	64
3.18800	68
3.19167	72
3.19533	82
3.19900	91
3.20267	96
3.20633	100
3.21000	96
3.21367	86
3.21733	75
3.22100	68
3.22467	65
3.22833	67
3.23200	78
3.23567	92
3.23933	98
3.24300	96
3.24667	101
3.25033	105
3.25400	105
3.25767	105
3.26133	97
3.26500	87
3.26867	76
3.27233	66
3.27600	62
3.27967	62
3.28333	63
3.28700	66
3.29067	69
3.29433	71
3.29800	76
3.30167	82
3.30533	84
3.30900	82
3.31267	76
3.31633	71
3.32000	73
3.32367	80
3.32733	89
3.33100	95
3.33467	94
3.33833	85
3.34200	77
3.34567	72
3.34933	68
3.35300	70
3.35667	73
3.36033	83
3.36400	92
3.36767	101
3.37133	91
3.37500	74
3.37867	75
3.38233	82
3.38600	88
3.38967	95
3.39333	96
3.39700	93
3.40067	90
3.40433	88
3.40800	90
3.41167	91
3.41533	89
3.41900	82
3.42267	75
3.42633	74
3.43000	68
3.43367	53
3.43733	62
3.44100	63
3.44467	59
3.44833	56
3.45200	53
3.45567	49
3.45933	44
3.46300	42
3.46667	47
3.47033	54
3.47400	55
3.47767	51
3.48133	47
3.48500	47
3.48867	52
3.49233	60
3.49600	71
3.49967	77
3.50333	75
3.50700	70
3.51067	63
3.51433	60
3.51800	62
3.52167	58
3.52533	58
3.52900	66
3.53267	73
3.53633	72
3.54000	66
3.54367	58
3.54733	49
3.55100	44
3.55467	44
3.55833	46
3.56200	45
3.56567	43
3.56933	41
3.57300	38
3.57667	38
3.58033	42
3.58400	50
3.58767	55
3.59133	66
3.59500	75
3.59867	80
3.60233	82
3.60600	80
3.60967	73
3.61333	68
3.61700	65
3.62067	61
3.62433	55
3.62800	45
3.63167	38
3.63533	37
3.63900	39
3.64267	43
3.64633	47
3.65000	54
3.65367	56
3.65733	56
3.66100	55
3.66467	51
3.66833	48
3.67200	49
3.67567	50
3.67933	50
3.68300	48
3.68667	47
3.69033	46
3.69400	43
3.69767	42
3.70133	45
3.70500	50
3.70867	54
3.71233	53
3.71600	51
3.71967	46
3.72333	40
3.72700	31
3.73067	22
3.73433	17
3.73800	12
3.74167	9
3.74533	6
3.74900	5
3.75267	4
3.75633	8
3.76000	11
3.76367	8
3.76733	7
3.77100	6
3.77467	6
3.77833	9
3.78200	11
3.78567	12
3.78933	12
3.79300	12
3.79667	18
3.80033	29
3.80400	41
3.80767	50
3.81133	53
3.81500	56
3.81867	59
3.82233	59
3.82600	55
3.82967	47
3.83333	33
3.83700	23
3.84067	22
3.84433	30
3.84800	39
3.85167	49
3.85533	54
3.85900	47
3.86267	33
3.86633	19
3.87000	12
3.87367	8
3.87733	10
3.88100	14
3.88467	18
3.88833	21
3.89200	22
3.89567	22
3.89933	26
3.90300	26
3.90667	20
3.91033	14
3.91400	10
3.91767	10
3.92133	18
3.92500	27
3.92867	32
3.93233	31
3.93600	32
3.93967	37
3.94333	41
3.94700	43
3.95067	43
3.95433	44
3.95800	41
3.96167	36
3.96533	29
3.96900	17
3.97267	-3
3.97633	-18
3.98000	-19
3.98367	-12
3.98733	-10
3.99100	-15
3.99467	-20
3.99833	-20

[Chromatogram (Ch2)]
Interval(msec)	220
# of Points	1091
Start Time(min)	0.002
End Time(min)	3.998
R.Time (min)	Intensity
0.00167	-0
0.00533	-0
0.00900	0
0.01267	0
0.01633	1
0.02000	1
0.02367	1
0.02733	1
0.03100	1
0.03467	1
0.03833	1
0.04200	1
0.04567	2
0.04933	2
0.05300	2
0.05667	2
0.06033	2
0.06400	2
0.06767	2
0.07133	3
0.07500	3
0.07867	3
0.08233	3
0.08600	3
0.08967	3
0.09333	3
0.09700	3
0.10067	3
0.10433	3
0.10800	3
0.11167	2
0.11533	2
0.11900	2
0.12267	2
0.12633	2
0.13000	2
0.13367	3
0.13733	3
0.14100	3
0.14467	3
0.14833	3
0.15200	3
0.15567	3
0.15933	3
0.16300	2
0.16667	2
0.17033	2
0.17400	2
0.17767	2
0.18133	2
0.18500	1
0.18867	1
0.19233	1
0.19600	1
0.19967	0
0.20333	0
0.20700	-0
0.21067	-1
0.21433	-1
0.21800	-1
0.22167	-1
0.22533	-1
0.22900	-1
0.23267	-1
0.23633	-1
0.24000	-1
0.24367	-1
0.24733	-0
0.25100	-0
0.25467	-0
0.25833	-0
0.26200	-0
0.26567	-0
0.26933	0
0.27300	0
0.27667	1
0.28033	1
0.28400	1
0.28767	1
0.29133	1
0.29500	1
0.29867	1
0.30233	1
0.30600	1
0.30967	1
0.31333	1
0.31700	2
0.32067	2
0.32433	2
0.32800	2
0.33167	3
0.33533	3
0.33900	3
0.34267	4
0.34633	4
0.35000	4
0.35367	4
0.35733	5
0.36100	5
0.36467	5
0.36833	4
0.37200	4
0.37567	4
0.37933	4
0.38300	4
0.38667	4
0.39033	4
0.39400	4
0.39767	4
0.40133	4
0.40500	3
0.40867	3
0.41233	2
0.41600	2
0.41967	2
0.42333	1
0.42700	1
0.43067	1
0.43433	1
0.43800	1
0.44167	1
0.44533	1
0.44900	0
0.45267	0
0.45633	0
0.46000	-0
0.46367	-0
0.46733	-1
0.47100	-1
0.47467	-1
0.47833	-1
0.48200	-1
0.48567	-1
0.48933	-1
0.49300	-1
0.49667	-1
0.50033	-1
0.50400	-1
0.50767	-1
0.51133	-1
0.51500	-1
0.51867	-1
0.52233	-1
0.52600	-1
0.52967	-0
0.53333	1
0.53700	1
0.54067	2
0.54433	2
0.54800	3
0.55167	3
0.55533	3
0.55900	3
0.56267	4
0.56633	4
0.57000	4
0.57367	4
0.57733	4
0.58100	3
0.58467	3
0.58833	2
0.59200	2
0.59567	2
0.59933	2
0.60300	2
0.60667	2
0.61033	2
0.61400	2
0.61767	3
0.62133	3
0.62500	3
0.62867	3
0.63233	2
0.63600	2
0.63967	2
0.64333	1
0.64700	1
0.65067	1
0.65433	1
0.65800	0
0.66167	0
0.66533	0
0.66900	0
0.67267	0
0.67633	0
0.68000	0
0.68367	0
0.68733	1
0.69100	1
0.69467	1
0.69833	1
0.70200	1
0.70567	1
0.70933	1
0.71300	1
0.71667	1
0.72033	1
0.72400	1
0.72767	1
0.73133	1
0.73500	1
0.73867	0
0.74233	0
0.74600	0
0.74967	0
0.75333	0
0.75700	1
0.76067	1
0.76433	1
0.76800	1
0.77167	1
0.77533	1
0.77900	0
0.78267	0
0.78633	0
0.79000	0
0.79367	0
0.79733	1
0.80100	1
0.80467	1
0.80833	1
0.81200	1
0.81567	1
0.81933	0
0.82300	0
0.82667	0
0.83033	-0
0.83400	-0
0.83767	-0
0.84133	-0
0.84500	-0
0.84867	-0
0.85233	-0
0.85600	0
0.85967	0
0.86333	0
0.86700	1
0.87067	1
0.87433	1
0.87800	1
0.88167	1
0.88533	1
0.88900	1
0.89267	1
0.89633	1
0.90000	1
0.90367	1
0.90733	1
0.91100	1
0.91467	1
0.91833	1
0.92200	1
0.92567	2
0.92933	2
0.93300	2
0.93667	2
0.94033	2
0.94400	2
0.94767	2
0.95133	2
0.95500	2
0.95867	1
0.96233	1
0.96600	1
0.96967	1
0.97333	1
0.97700	2
0.98067	2
0.98433	2
0.98800	2
0.99167	2
0.99533	3
0.99900	3
1.00267	3
1.00633	3
1.01000	3
1.01367	3
1.01733	3
1.02100	3
1.02467	3
1.02833	2
1.03200	2
1.03567	1
1.03933	1
1.04300	0
1.04667	-0
1.05033	-1
1.05400	-1
1.05767	-1
1.06133	-1
1.06500	-0
1.06867	0
1.07233	0
1.07600	0
1.07967	0
1.08333	-0
1.08700	-0
1.09067	-1
1.09433	-1
1.09800	-1
1.10167	-1
1.10533	-1
1.10900	-1
1.11267	-1
1.11633	-1
1.12000	-1
1.12367	-1
1.12733	-1
1.13100	-1
1.13467	-1
1.13833	-1
1.14200	-1
1.14567	-2
1.14933	-2
1.15300	-2
1.15667	-2
1.16033	-2
1.16400	-2
1.16767	-1
1.17133	-1
1.17500	-0
1.17867	0
1.18233	1
1.18600	1
1.18967	1
1.19333	1
1.19700	1
1.20067	1
1.20433	1
1.20800	2
1.21167	2
1.21533	2
1.21900	2
1.22267	2
1.22633	2
1.23000	2
1.23367	2
1.23733	2
1.24100	2
1.24467	2
1.24833	2
1.25200	2
1.25567	1
1.25933	1
1.26300	1
1.26667	1
1.27033	1
1.27400	1
1.27767	1
1.28133	1
1.28500	1
1.28867	0
1.29233	0
1.29600	0
1.29967	0
1.30333	0
1.30700	-0
1.31067	-0
1.31433	-1
1.31800	-1
1.32167	-1
1.32533	-1
1.32900	-1
1.33267	-1
1.33633	-1
1.34000	-1
1.34367	-0
1.34733	-0
1.35100	-0
1.35467	0
1.35833	0
1.36200	1
1.36567	1
1.36933	1
1.37300	1
1.37667	1
1.38033	1
1.38400	0
1.38767	0
1.39133	-0
1.39500	-0
1.39867	-1
1.40233	-1
1.40600	-1
1.40967	-1
1.41333	-2
1.41700	-2
1.42067	-2
1.42433	-2
1.42800	-2
1.43167	-2
1.43533	-2
1.43900	-2
1.44267	-1
1.44633	-1
1.45000	-1
1.45367	-0
1.45733	-0
1.46100	-0
1.46467	-0
1.46833	-1
1.47200	-1
1.47567	-1
1.47933	-1
1.48300	-1
1.48667	-2
1.49033	-2
1.49400	-2
1.49767	-2
1.50133	-2
1.50500	-1
1.50867	-1
1.51233	-0
1.51600	-0
1.51967	0
1.52333	0
1.52700	1
1.53067	1
1.53433	1
1.53800	2
1.54167	2
1.54533	2
1.54900	1
1.55267	1
1.55633	1
1.56000	1
1.56367	1
1.56733	1
1.57100	0
1.57467	0
1.57833	0
1.58200	-0
1.58567	-0
1.58933	-1
1.59300	-1
1.59667	-2
1.60033	-3
1.60400	-4
1.60767	-5
1.61133	-7
1.61500	-9
1.61867	-12
1.62233	-14
1.62600	-17
1.62967	-21
1.63333	-25
1.63700	-28
1.64067	-32
1.64433	-36
1.64800	-40
1.65167	-44
1.65533	-48
1.65900	-51
1.66267	-55
1.66633	-59
1.67000	-64
1.67367	-69
1.67733	-73
1.68100	-78
1.68467	-83
1.68833	-87
1.69200	-90
1.69567	-94
1.69933	-96
1.70300	-99
1.70667	-101
1.71033	-103
1.71400	-104
1.71767	-105
1.72133	-105
1.72500	-106
1.72867	-105
1.73233	-105
1.73600	-105
1.73967	-104
1.74333	-104
1.74700	-103
1.75067	-103
1.75433	-102
1.75800	-102
1.76167	-102
1.76533	-103
1.76900	-104
1.77267	-105
1.77633	-107
1.78000	-109
1.78367	-110
1.78733	-111
1.79100	-112
1.79467	-113
1.79833	-114
1.80200	-114
1.80567	-115
1.80933	-115
1.81300	-114
1.81667	-114
1.82033	-113
1.82400	-113
1.82767	-112
1.83133	-112
1.83500	-112
1.83867	-112
1.84233	-112
1.84600	-112
1.84967	-112
1.85333	-113
1.85700	-113
1.86067	-113
1.86433	-114
1.86800	-114
1.87167	-113
1.87533	-113
1.87900	-112
1.88267	-112
1.88633	-112
1.89000	-112
1.89367	-112
1.89733	-112
1.90100	-111
1.90467	-111
1.90833	-110
1.91200	-109
1.91567	-109
1.91933	-108
1.92300	-108
1.92667	-108
1.93033	-108
1.93400	-108
1.93767	-108
1.94133	-108
1.94500	-108
1.94867	-108
1.95233	-108
1.95600	-107
1.95967	-107
1.96333	-106
1.96700	-106
1.97067	-105
1.97433	-105
1.97800	-105
1.98167	-105
1.98533	-106
1.98900	-106
1.99267	-106
1.99633	-106
2.00000	-106
2.00367	-105
2.00733	-105
2.01100	-104
2.01467	-103
2.01833	-103
2.02200	-102
2.02567	-102
2.02933	-102
2.03300	-102
2.03667	-101
2.04033	-101
2.04400	-101
2.04767	-101
2.05133	-101
2.05500	-101
2.05867	-100
2.06233	-100
2.06600	-99
2.06967	-99
2.07333	-99
2.07700	-99
2.08067	-99
2.08433	-99
2.08800	-99
2.09167	-99
2.09533	-99
2.09900	-98
2.10267	-98
2.10633	-97
2.11000	-96
2.11367	-95
2.11733	-95
2.12100	-94
2.12467	-94
2.12833	-94
2.13200	-95
2.13567	-95
2.13933	-94
2.14300	-94
2.14667	-94
2.15033	-93
2.15400	-93
2.15767	-92
2.16133	-92
2.16500	-91
2.16867	-90
2.17233	-90
2.17600	-89
2.17967	-89
2.18333	-89
2.18700	-88
2.19067	-88
2.19433	-88
2.19800	-87
2.20167	-87
2.20533	-87
2.20900	-87
2.21267	-87
2.21633	-87
2.22000	-87
2.22367	-87
2.22733	-86
2.23100	-86
2.23467	-85
2.23833	-85
2.24200	-85
2.24567	-85
2.24933	-84
2.25300	-84
2.25667	-84
2.26033	-83
2.26400	-83
2.26767	-83
2.27133	-82
2.27500	-82
2.27867	-82
2.28233	-82
2.28600	-82
2.28967	-81
2.29333	-81
2.29700	-81
2.30067	-81
2.30433	-81
2.30800	-81
2.31167	-80
2.31533	-80
2.31900	-79
2.32267	-79
2.32633	-78
2.33000	-77
2.33367	-77
2.33733	-76
2.34100	-75
2.34467	-74
2.34833	-74
2.35200	-73
2.35567	-73
2.35933	-72
2.36300	-71
2.36667	-70
2.37033	-69
2.37400	-68
2.37767	-65
2.38133	-62
2.38500	-59
2.38867	-55
2.39233	-51
2.39600	-46
2.39967	-41
2.40333	-37
2.40700	-32
2.41067	-27
2.41433	-22
2.41800	-18
2.42167	-15
2.42533	-13
2.42900	-10
2.43267	-9
2.43633	-7
2.44000	-6
2.44367	-5
2.44733	-4
2.45100	-3
2.45467	-3
2.45833	-2
2.46200	-2
2.46567	-2
2.46933	-1
2.47300	-1
2.47667	0
2.48033	1
2.48400	1
2.48767	2
2.49133	3
2.49500	3
2.49867	5
2.50233	6
2.50600	7
2.50967	8
2.51333	9
2.51700	10
2.52067	11
2.52433	12
2.52800	12
2.53167	13
2.53533	14
2.53900	15
2.54267	15
2.54633	16
2.55000	16
2.55367	16
2.55733	17
2.56100	17
2.56467	17
2.56833	17
2.57200	17
2.57567	17
2.57933	18
2.58300	18
2.58667	19
2.59033	19
2.59400	19
2.59767	19
2.60133	19
2.60500	19
2.60867	20
2.61233	20
2.61600	20
2.61967	21
2.62333	21
2.62700	21
2.63067	21
2.63433	21
2.63800	21
2.64167	21
2.64533	21
2.64900	21
2.65267	20
2.65633	20
2.66000	20
2.66367	20
2.66733	20
2.67100	21
2.67467	21
2.67833	21
2.68200	22
2.68567	22
2.68933	23
2.69300	23
2.69667	23
2.70033	23
2.70400	24
2.70767	24
2.71133	24
2.71500	24
2.71867	24
2.72233	24
2.72600	24
2.72967	24
2.73333	25
2.73700	25
2.74067	25
2.74433	26
2.74800	26
2.75167	27
2.75533	27
2.75900	27
2.76267	27
2.76633	27
2.77000	27
2.77367	28
2.77733	28
2.78100	28
2.78467	28
2.78833	29
2.79200	29
2.79567	29
2.79933	29
2.80300	29
2.80667	28
2.81033	28
2.81400	28
2.81767	27
2.82133	27
2.82500	26
2.82867	26
2.83233	26
2.83600	26
2.83967	25
2.84333	24
2.84700	22
2.85067	19
2.85433	13
2.85800	5
2.86167	-7
2.86533	-23
2.86900	-43
2.87267	-67
2.87633	-96
2.88000	-129
2.88367	-166
2.88733	-207
2.89100	-252
2.89467	-300
2.89833	-350
2.90200	-403
2.90567	-457
2.90933	-512
2.91300	-568
2.91667	-623
2.92033	-679
2.92400	-733
2.92767	-786
2.93133	-837
2.93500	-889
2.93867	-944
2.94233	-1003
2.94600	-1055
2.94967	-1090
2.95333	-1101
2.95700	-1086
2.96067	-1047
2.96433	-990
2.96800	-920
2.97167	-842
2.97533	-761
2.97900	-681
2.98267	-604
2.98633	-531
2.99000	-464
2.99367	-403
2.99733	-349
3.00100	-300
3.00467	-257
3.00833	-219
3.01200	-186
3.01567	-157
3.01933	-133
3.02300	-111
3.02667	-93
3.03033	-78
3.03400	-64
3.03767	-53
3.04133	-43
3.04500	-34
3.04867	-27
3.05233	-21
3.05600	-16
3.05967	-11
3.06333	-8
3.06700	-5
3.07067	-2
3.07433	0
3.07800	3
3.08167	5
3.08533	6
3.08900	8
3.09267	9
3.09633	10
3.10000	11
3.10367	12
3.10733	13
3.11100	13
3.11467	14
3.11833	14
3.12200	15
3.12567	15
3.12933	16
3.13300	16
3.13667	17
3.14033	17
3.14400	18
3.14767	18
3.15133	18
3.15500	19
3.15867	19
3.16233	20
3.16600	20
3.16967	21
3.17333	21
3.17700	21
3.18067	22
3.18433	22
3.18800	22
3.19167	22
3.19533	22
3.19900	22
3.20267	22
3.20633	22
3.21000	22
3.21367	22
3.21733	22
3.22100	22
3.22467	22
3.22833	22
3.23200	22
3.23567	22
3.23933	22
3.24300	22
3.24667	23
3.25033	23
3.25400	23
3.25767	23
3.26133	23
3.26500	23
3.26867	23
3.27233	24
3.27600	24
3.27967	24
3.28333	24
3.28700	24
3.29067	24
3.29433	24
3.29800	25
3.30167	25
3.30533	25
3.30900	25
3.31267	25
3.31633	25
3.32000	26
3.32367	26
3.32733	26
3.33100	26
3.33467	26
3.33833	26
3.34200	26
3.34567	26
3.34933	26
3.35300	26
3.35667	26
3.36033	26
3.36400	26
3.36767	26
3.37133	26
3.37500	27
3.37867	27
3.38233	27
3.38600	28
3.38967	28
3.39333	28
3.39700	28
3.40067	29
3.40433	29
3.40800	29
3.41167	29
3.41533	29
3.41900	29
3.42267	29
3.42633	29
3.43000	29
3.43367	29
3.43733	29
3.44100	29
3.44467	29
3.44833	29
3.45200	29
3.45567	29
3.45933	29
3.46300	29
3.46667	30
3.47033	30
3.47400	30
3.47767	30
3.48133	30
3.48500	30
3.48867	30
3.49233	30
3.49600	30
3.49967	29
3.50333	29
3.50700	29
3.51067	29
3.51433	28
3.51800	28
3.52167	28
3.52533	28
3.52900	28
3.53267	28
3.53633	28
3.54000	28
3.54367	28
3.54733	28
3.55100	28
3.55467	28
3.55833	28
3.56200	28
3.56567	28
3.56933	28
3.57300	28
3.57667	28
3.58033	28
3.58400	28
3.58767	28
3.59133	29
3.59500	29
3.59867	29
3.60233	29
3.60600	29
3.60967	29
3.61333	29
3.61700	28
3.62067	28
3.62433	28
3.62800	28
3.63167	28
3.63533	27
3.63900	27
3.64267	27
3.64633	27
3.65000	27
3.65367	28
3.65733	28
3.66100	28
3.66467	28
3.66833	28
3.67200	28
3.67567	28
3.67933	28
3.68300	28
3.68667	27
3.69033	27
3.69400	27
3.69767	27
3.70133	27
3.70500	27
3.70867	27
3.71233	27
3.71600	28
3.71967	28
3.72333	28
3.72700	28
3.73067	28
3.73433	28
3.73800	28
3.74167	28
3.74533	28
3.74900	28
3.75267	28
3.75633	28
3.76000	28
3.76367	28
3.76733	28
3.77100	28
3.77467	29
3.77833	29
3.78200	28
3.78567	28
3.78933	28
3.79300	28
3.79667	28
3.80033	28
3.80400	28
3.80767	28
3.81133	28
3.81500	28
3.81867	28
3.82233	28
3.82600	28
3.82967	28
3.83333	28
3.83700	28
3.84067	28
3.84433	28
3.84800	28
3.85167	28
3.85533	28
3.85900	28
3.86267	29
3.86633	28
3.87000	29
3.87367	29
3.87733	29
3.88100	29
3.88467	29
3.88833	29
3.89200	29
3.89567	29
3.89933	29
3.90300	29
3.90667	30
3.91033	30
3.91400	31
3.91767	31
3.92133	31
3.92500	31
3.92867	31
3.93233	30
3.93600	30
3.93967	30
3.94333	30
3.94700	30
3.95067	29
3.95433	29
3.95800	29
3.96167	28
3.96533	28
3.96900	28
3.97267	28
3.97633	28
3.98000	28
3.98367	28
3.98733	28
3.99100	28
3.99467	28
3.99833	28

[Chromatogram (Ch3)]
Interval(msec)	220
# of Points	1091
Start Time(min)	0.002
End Time(min)	3.998
R.Time (min)	Intensity
0.00167	-0
0.00533	1
0.00900	2
0.01267	3
0.01633	2
0.02000	0
0.02367	-2
0.02733	-3
0.03100	-3
0.03467	-2
0.03833	-4
0.04200	-5
0.04567	-6
0.04933	-7
0.05300	-5
0.05667	-2
0.06033	-0
0.06400	-0
0.06767	-1
0.07133	-3
0.07500	-4
0.07867	-3
0.08233	-4
0.08600	-5
0.08967	-5
0.09333	-4
0.09700	-4
0.10067	-1
0.10433	-2
0.10800	-2
0.11167	-1
0.11533	1
0.11900	2
0.12267	1
0.12633	1
0.13000	-0
0.13367	-2
0.13733	-2
0.14100	-4
0.14467	-4
0.14833	-3
0.15200	-3
0.15567	-2
0.15933	-1
0.16300	1
0.16667	0
0.17033	-2
0.17400	-1
0.17767	1
0.18133	0
0.18500	-1
0.18867	-4
0.19233	-6
0.19600	-7
0.19967	-10
0.20333	-11
0.20700	-11
0.21067	-9
0.21433	-9
0.21800	-9
0.22167	-9
0.22533	-7
0.22900	-5
0.23267	-3
0.23633	-2
0.24000	-2
0.24367	-4
0.24733	-4
0.25100	-3
0.25467	-2
0.25833	0
0.26200	1
0.26567	1
0.26933	0
0.27300	0
0.27667	-0
0.28033	-2
0.28400	-3
0.28767	-3
0.29133	-3
0.29500	-4
0.29867	-2
0.30233	-0
0.30600	1
0.30967	-0
0.31333	-2
0.31700	-2
0.32067	-4
0.32433	-6
0.32800	-4
0.33167	-2
0.33533	-2
0.33900	-1
0.34267	0
0.34633	-1
0.35000	-1
0.35367	-0
0.35733	-2
0.36100	-4
0.36467	-3
0.36833	-1
0.37200	-1
0.37567	-2
0.37933	-3
0.38300	-3
0.38667	-5
0.39033	-6
0.39400	-7
0.39767	-6
0.40133	-4
0.40500	-6
0.40867	-8
0.41233	-5
0.41600	-1
0.41967	1
0.42333	1
0.42700	1
0.43067	0
0.43433	1
0.43800	1
0.44167	-1
0.44533	-2
0.44900	-2
0.45267	-3
0.45633	-3
0.46000	-3
0.46367	-2
0.46733	-1
0.47100	-3
0.47467	-4
0.47833	-5
0.48200	-4
0.48567	-4
0.48933	-4
0.49300	-3
0.49667	-4
0.50033	-5
0.50400	-5
0.50767	-4
0.51133	-2
0.51500	-2
0.51867	-2
0.52233	-4
0.52600	-4
0.52967	-3
0.53333	-3
0.53700	-4
0.54067	-5
0.54433	-5
0.54800	-6
0.55167	-7
0.55533	-7
0.55900	-4
0.56267	-2
0.56633	-3
0.57000	-2
0.57367	-2
0.57733	-2
0.58100	-1
0.58467	1
0.58833	4
0.59200	5
0.59567	3
0.59933	2
0.60300	1
0.60667	-1
0.61033	-3
0.61400	-2
0.61767	-1
0.62133	-2
0.62500	-2
0.62867	0
0.63233	0
0.63600	-0
0.63967	1
0.64333	4
0.64700	6
0.65067	6
0.65433	4
0.65800	2
0.66167	-1
0.66533	-4
0.66900	-5
0.67267	-3
0.67633	-1
0.68000	-4
0.68367	-6
0.68733	-4
0.69100	-3
0.69467	-2
0.69833	-2
0.70200	-1
0.70567	-0
0.70933	0
0.71300	0
0.71667	1
0.72033	-0
0.72400	-1
0.72767	-1
0.73133	-0
0.73500	1
0.73867	-1
0.74233	-2
0.74600	-2
0.74967	-0
0.75333	2
0.75700	3
0.76067	2
0.76433	2
0.76800	4
0.77167	4
0.77533	6
0.77900	8
0.78267	7
0.78633	6
0.79000	5
0.79367	4
0.79733	4
0.80100	4
0.80467	6
0.80833	6
0.81200	6
0.81567	6
0.81933	6
0.82300	7
0.82667	6
0.83033	6
0.83400	5
0.83767	6
0.84133	6
0.84500	5
0.84867	4
0.85233	4
0.85600	5
0.85967	6
0.86333	6
0.86700	6
0.87067	6
0.87433	7
0.87800	8
0.88167	9
0.88533	9
0.88900	7
0.89267	5
0.89633	4
0.90000	5
0.90367	6
0.90733	6
0.91100	7
0.91467	8
0.91833	11
0.92200	13
0.92567	12
0.92933	10
0.93300	9
0.93667	8
0.94033	7
0.94400	6
0.94767	5
0.95133	5
0.95500	5
0.95867	4
0.96233	4
0.96600	4
0.96967	3
0.97333	3
0.97700	6
0.98067	8
0.98433	10
0.98800	10
0.99167	10
0.99533	9
0.99900	8
1.00267	7
1.00633	5
1.01000	5
1.01367	7
1.01733	9
1.02100	11
1.02467	11
1.02833	9
1.03200	6
1.03567	6
1.03933	7
1.04300	7
1.04667	9
1.05033	11
1.05400	11
1.05767	11
1.06133	12
1.06500	10
1.06867	8
1.07233	7
1.07600	8
1.07967	9
1.08333	7
1.08700	8
1.09067	9
1.09433	11
1.09800	11
1.10167	12
1.10533	13
1.10900	11
1.11267	8
1.11633	7
1.12000	7
1.12367	5
1.12733	5
1.13100	5
1.13467	7
1.13833	9
1.14200	11
1.14567	10
1.14933	9
1.15300	8
1.15667	8
1.16033	8
1.16400	7
1.16767	7
1.17133	6
1.17500	7
1.17867	7
1.18233	8
1.18600	9
1.18967	8
1.19333	7
1.19700	6
1.20067	5
1.20433	7
1.20800	9
1.21167	10
1.21533	11
1.21900	12
1.22267	11
1.22633	10
1.23000	9
1.23367	12
1.23733	13
1.24100	12
1.24467	11
1.24833	10
1.25200	10
1.25567	11
1.25933	10
1.26300	9
1.26667	9
1.27033	9
1.27400	10
1.27767	10
1.28133	11
1.28500	11
1.28867	10
1.29233	10
1.29600	11
1.29967	12
1.30333	12
1.30700	13
1.31067	15
1.31433	15
1.31800	14
1.32167	12
1.32533	11
1.32900	12
1.33267	12
1.33633	13
1.34000	13
1.34367	12
1.34733	11
1.35100	12
1.35467	12
1.35833	12
1.36200	11
1.36567	9
1.36933	10
1.37300	12
1.37667	14
1.38033	12
1.38400	12
1.38767	13
1.39133	13
1.39500	13
1.39867	13
1.40233	13
1.40600	12
1.40967	10
1.41333	9
1.41700	9
1.42067	10
1.42433	8
1.42800	9
1.43167	10
1.43533	12
1.43900	12
1.44267	10
1.44633	10
1.45000	12
1.45367	12
1.45733	11
1.46100	10
1.46467	9
1.46833	9
1.47200	9
1.47567	11
1.47933	12
1.48300	11
1.48667	10
1.49033	10
1.49400	13
1.49767	14
1.50133	13
1.50500	12
1.50867	10
1.51233	9
1.51600	11
1.51967	12
1.52333	13
1.52700	13
1.53067	14
1.53433	16
1.53800	15
1.54167	14
1.54533	14
1.54900	14
1.55267	13
1.55633	12
1.56000	10
1.56367	9
1.56733	7
1.57100	7
1.57467	9
1.57833	9
1.58200	11
1.58567	12
1.58933	12
1.59300	13
1.59667	12
1.60033	12
1.60400	14
1.60767	14
1.61133	13
1.61500	12
1.61867	11
1.62233	11
1.62600	12
1.62967	11
1.63333	11
1.63700	12
1.64067	14
1.64433	15
1.64800	15
1.65167	14
1.65533	16
1.65900	18
1.66267	19
1.66633	21
1.67000	21
1.67367	21
1.67733	19
1.68100	18
1.68467	19
1.68833	22
1.69200	27
1.69567	26
1.69933	24
1.70300	25
1.70667	26
1.71033	27
1.71400	29
1.71767	30
1.72133	29
1.72500	27
1.72867	26
1.73233	26
1.73600	25
1.73967	24
1.74333	25
1.74700	26
1.75067	27
1.75433	28
1.75800	26
1.76167	25
1.76533	27
1.76900	30
1.77267	32
1.77633	31
1.78000	32
1.78367	35
1.78733	37
1.79100	39
1.79467	42
1.79833	45
1.80200	45
1.80567	43
1.80933	41
1.81300	40
1.81667	37
1.82033	36
1.82400	37
1.82767	38
1.83133	40
1.83500	43
1.83867	44
1.84233	47
1.84600	48
1.84967	49
1.85333	49
1.85700	49
1.86067	47
1.86433	46
1.86800	46
1.87167	48
1.87533	50
1.87900	51
1.88267	54
1.88633	56
1.89000	58
1.89367	60
1.89733	62
1.90100	62
1.90467	61
1.90833	61
1.91200	61
1.91567	61
1.91933	61
1.92300	63
1.92667	65
1.93033	68
1.93400	68
1.93767	67
1.94133	65
1.94500	65
1.94867	66
1.95233	64
1.95600	63
1.95967	64
1.96333	66
1.96700	68
1.97067	71
1.97433	73
1.97800	73
1.98167	74
1.98533	73
1.98900	75
1.99267	77
1.99633	81
2.00000	82
2.00367	82
2.00733	84
2.01100	84
2.01467	85
2.01833	86
2.02200	88
2.02567	90
2.02933	92
2.03300	92
2.03667	91
2.04033	90
2.04400	91
2.04767	92
2.05133	96
2.05500	100
2.05867	101
2.06233	101
2.06600	102
2.06967	105
2.07333	108
2.07700	110
2.08067	113
2.08433	113
2.08800	112
2.09167	113
2.09533	113
2.09900	114
2.10267	116
2.10633	117
2.11000	120
2.11367	121
2.11733	124
2.12100	128
2.12467	129
2.12833	130
2.13200	131
2.13567	132
2.13933	133
2.14300	135
2.14667	137
2.15033	137
2.15400	139
2.15767	142
2.16133	144
2.16500	145
2.16867	146
2.17233	149
2.17600	151
2.17967	152
2.18333	152
2.18700	153
2.19067	153
2.19433	154
2.19800	155
2.20167	156
2.20533	158
2.20900	160
2.21267	162
2.21633	165
2.22000	168
2.22367	171
2.22733	172
2.23100	173
2.23467	174
2.23833	175
2.24200	174
2.24567	173
2.24933	174
2.25300	174
2.25667	174
2.26033	177
2.26400	180
2.26767	182
2.27133	184
2.27500	186
2.27867	188
2.28233	190
2.28600	190
2.28967	190
2.29333	190
2.29700	194
2.30067	196
2.30433	197
2.30800	199
2.31167	203
2.31533	206
2.31900	209
2.32267	210
2.32633	212
2.33000	215
2.33367	215
2.33733	216
2.34100	216
2.34467	218
2.34833	221
2.35200	224
2.35567	226
2.35933	229
2.36300	229
2.36667	229
2.37033	231
2.37400	232
2.37767	233
2.38133	235
2.38500	236
2.38867	236
2.39233	235
2.39600	236
2.39967	238
2.40333	241
2.40700	244
2.41067	246
2.41433	248
2.41800	251
2.42167	255
2.42533	255
2.42900	254
2.43267	254
2.43633	253
2.44000	257
2.44367	322
2.44733	487
2.45100	667
2.45467	816
2.45833	900
2.46200	905
2.46567	860
2.46933	799
2.47300	741
2.47667	697
2.48033	663
2.48400	623
2.48767	573
2.49133	520
2.49500	469
2.49867	426
2.50233	395
2.50600	374
2.50967	365
2.51333	369
2.51700	387
2.52067	416
2.52433	440
2.52800	453
2.53167	451
2.53533	431
2.53900	401
2.54267	367
2.54633	335
2.55000	303
2.55367	276
2.55733	255
2.56100	236
2.56467	222
2.56833	212
2.57200	204
2.57567	198
2.57933	195
2.58300	195
2.58667	196
2.59033	200
2.59400	206
2.59767	208
2.60133	209
2.60500	208
2.60867	203
2.61233	198
2.61600	190
2.61967	180
2.62333	168
2.62700	158
2.63067	149
2.63433	140
2.63800	129
2.64167	115
2.64533	101
2.64900	87
2.65267	72
2.65633	57
2.66000	42
2.66367	27
2.66733	11
2.67100	-1
2.67467	-10
2.67833	-16
2.68200	-19
2.68567	-19
2.68933	-20
2.69300	-21
2.69667	-20
2.70033	-18
2.70400	-15
2.70767	-11
2.71133	-6
2.71500	-2
2.71867	4
2.72233	11
2.72600	16
2.72967	19
2.73333	22
2.73700	26
2.74067	29
2.74433	32
2.74800	34
2.75167	36
2.75533	38
2.75900	43
2.76267	46
2.76633	49
2.77000	52
2.77367	57
2.77733	62
2.78100	67
2.78467	70
2.78833	75
2.79200	80
2.79567	85
2.79933	92
2.80300	100
2.80667	106
2.81033	113
2.81400	120
2.81767	129
2.82133	141
2.82500	161
2.82867	198
2.83233	266
2.83600	384
2.83967	572
2.84333	852
2.84700	1235
2.85067	1714
2.85433	2267
2.85800	2859
2.86167	3446
2.86533	3980
2.86900	4416
2.87267	4725
2.87633	4892
2.88000	4917
2.88367	4818
2.88733	4616
2.89100	4339
2.89467	4016
2.89833	3673
2.90200	3324
2.90567	2986
2.90933	2665
2.91300	2367
2.91667	2095
2.92033	1848
2.92400	1627
2.92767	1430
2.93133	1256
2.93500	1102
2.93867	970
2.94233	855
2.94600	752
2.94967	664
2.95333	588
2.95700	522
2.96067	463
2.96433	413
2.96800	369
2.97167	331
2.97533	296
2.97900	265
2.98267	240
2.98633	219
2.99000	201
2.99367	187
2.99733	174
3.00100	163
3.00467	152
3.00833	142
3.01200	131
3.01567	122
3.01933	117
3.02300	112
3.02667	110
3.03033	107
3.03400	104
3.03767	103
3.04133	102
3.04500	100
3.04867	98
3.05233	95
3.05600	94
3.05967	93
3.06333	93
3.06700	92
3.07067	91
3.07433	90
3.07800	85
3.08167	83
3.08533	83
3.08900	84
3.09267	84
3.09633	83
3.10000	83
3.10367	82
3.10733	81
3.11100	82
3.11467	84
3.11833	85
3.12200	86
3.12567	86
3.12933	84
3.13300	83
3.13667	83
3.14033	84
3.14400	84
3.14767	84
3.15133	86
3.15500	87
3.15867	88
3.16233	89
3.16600	91
3.16967	91
3.17333	92
3.17700	94
3.18067	98
3.18433	99
3.18800	101
3.19167	101
3.19533	102
3.19900	102
3.20267	103
3.20633	105
3.21000	107
3.21367	110
3.21733	112
3.22100	112
3.22467	111
3.22833	114
3.23200	115
3.23567	118
3.23933	124
3.24300	128
3.24667	128
3.25033	127
3.25400	126
3.25767	127
3.26133	129
3.26500	132
3.26867	136
3.27233	139
3.27600	141
3.27967	144
3.28333	147
3.28700	148
3.29067	148
3.29433	149
3.29800	151
3.30167	154
3.30533	156
3.30900	158
3.31267	162
3.31633	164
3.32000	167
3.32367	169
3.32733	169
3.33100	171
3.33467	173
3.33833	175
3.34200	178
3.34567	178
3.34933	179
3.35300	180
3.35667	185
3.36033	189
3.36400	194
3.36767	195
3.37133	196
3.37500	197
3.37867	198
3.38233	199
3.38600	200
3.38967	201
3.39333	203
3.39700	204
3.40067	204
3.40433	206
3.40800	207
3.41167	207
3.41533	209
3.41900	210
3.42267	212
3.42633	211
3.43000	211
3.43367	212
3.43733	213
3.44100	212
3.44467	211
3.44833	212
3.45200	214
3.45567	216
3.45933	220
3.46300	221
3.46667	219
3.47033	218
3.47400	216
3.47767	214
3.48133	215
3.48500	214
3.48867	215
3.49233	216
3.49600	217
3.49967	218
3.50333	217
3.50700	216
3.51067	215
3.51433	217
3.51800	218
3.52167	219
3.52533	219
3.52900	218
3.53267	217
3.53633	208
3.54000	177
3.54367	144
3.54733	120
3.55100	112
3.55467	117
3.55833	135
3.56200	159
3.56567	191
3.56933	226
3.57300	263
3.57667	297
3.58033	329
3.58400	359
3.58767	389
3.59133	412
3.59500	432
3.59867	451
3.60233	468
3.60600	484
3.60967	498
3.61333	509
3.61700	519
3.62067	529
3.62433	539
3.62800	548
3.63167	554
3.63533	557
3.63900	562
3.64267	569
3.64633	575
3.65000	579
3.65367	582
3.65733	585
3.66100	589
3.66467	593
3.66833	595
3.67200	596
3.67567	596
3.67933	598
3.68300	601
3.68667	604
3.69033	606
3.69400	607
3.69767	607
3.70133	608
3.70500	608
3.70867	607
3.71233	607
3.71600	605
3.71967	606
3.72333	607
3.72700	606
3.73067	609
3.73433	612
3.73800	613
3.74167	613
3.74533	613
3.74900	610
3.75267	608
3.75633	609
3.76000	609
3.76367	608
3.76733	608
3.77100	609
3.77467	611
3.77833	612
3.78200	611
3.78567	611
3.78933	614
3.79300	614
3.79667	612
3.80033	613
3.80400	614
3.80767	615
3.81133	615
3.81500	614
3.81867	615
3.82233	617
3.82600	616
3.82967	615
3.83333	613
3.83700	612
3.84067	613
3.84433	615
3.84800	617
3.85167	617
3.85533	617
3.85900	617
3.86267	618
3.86633	619
3.87000	619
3.87367	618
3.87733	614
3.88100	612
3.88467	613
3.88833	614
3.89200	612
3.89567	609
3.89933	608
3.90300	608
3.90667	607
3.91033	604
3.91400	602
3.91767	602
3.92133	601
3.92500	600
3.92867	597
3.93233	595
3.93600	595
3.93967	596
3.94333	597
3.94700	596
3.95067	595
3.95433	594
3.95800	593
3.96167	591
3.96533	587
3.96900	584
3.97267	582
3.97633	580
3.98000	579
3.98367	580
3.98733	581
3.99100	579
3.99467	575
3.99833	571

[Status Trace (Column Oven Temperature)]
Interval(msec)	1000
# of Points	240
Start Time(min)	0.001
End Time(min)	3.985
Intensity Units	
Intensity Multiplier	1
R.Time (min)	Intensity
0.00137	35.06
0.01803	35.06
0.03470	35.05
0.05137	35.04
0.06803	35.04
0.08470	35.03
0.10137	35.03
0.11803	35.04
0.13470	35.03
0.15137	35.03
0.16803	35.03
0.18470	35.04
0.20137	35.05
0.21803	35.06
0.23470	35.06
0.25137	35.06
0.26803	35.06
0.28470	35.06
0.30137	35.06
0.31803	35.05
0.33470	35.04
0.35137	35.02
0.36803	35.02
0.38470	35.00
0.40137	35.00
0.41803	35.00
0.43470	35.02
0.45137	35.03
0.46803	35.04
0.48470	35.04
0.50137	35.05
0.51803	35.05
0.53470	35.03
0.55137	35.02
0.56803	35.02
0.58470	35.02
0.60137	35.02
0.61803	35.01
0.63470	35.01
0.65137	35.01
0.66803	35.01
0.68470	35.01
0.70137	35.02
0.71803	35.00
0.73470	35.01
0.75137	35.02
0.76803	35.01
0.78470	35.02
0.80137	35.01
0.81803	35.02
0.83470	35.02
0.85137	35.02
0.86803	35.02
0.88470	35.01
0.90137	35.01
0.91803	35.00
0.93470	34.99
0.95137	34.99
0.96803	34.99
0.98470	34.97
1.00137	34.97
1.01803	34.96
1.03470	34.97
1.05137	34.98
1.06803	34.99
1.08470	34.98
1.10137	34.98
1.11803	34.98
1.13470	34.99
1.15137	35.01
1.16803	35.00
1.18470	34.99
1.20137	34.99
1.21803	34.98
1.23470	34.99
1.25137	34.98
1.26803	34.97
1.28470	34.97
1.30137	34.97
1.31803	34.98
1.33470	34.98
1.35137	34.98
1.36803	34.96
1.38470	34.96
1.40137	34.97
1.41803	34.98
1.43470	34.99
1.45137	34.98
1.46803	34.98
1.48470	34.99
1.50137	34.99
1.51803	34.98
1.53470	34.97
1.55137	34.97
1.56803	34.96
1.58470	34.97
1.60137	35.01
1.61803	35.10
1.63470	35.28
1.65137	35.51
1.66803	35.83
1.68470	36.20
1.70137	36.57
1.71803	36.91
1.73470	37.22
1.75137	37.52
1.76803	37.86
1.78470	38.21
1.80137	38.55
1.81803	38.88
1.83470	39.21
1.85137	39.54
1.86803	39.87
1.88470	40.20
1.90137	40.54
1.91803	40.85
1.93470	41.19
1.95137	41.53
1.96803	41.82
1.98470	42.17
2.00137	42.48
2.01803	42.80
2.03470	43.13
2.05137	43.46
2.06803	43.77
2.08470	44.12
2.10137	44.45
2.11803	44.76
2.13470	45.09
2.15137	45.43
2.16803	45.75
2.18470	46.07
2.20137	46.40
2.21803	46.73
2.23470	47.06
2.25137	47.38
2.26803	47.72
2.28470	48.05
2.30137	48.39
2.31803	48.72
2.33470	49.03
2.35137	49.32
2.36803	49.60
2.38470	49.73
2.40137	49.75
2.41803	49.74
2.43470	49.74
2.45137	49.74
2.46803	49.75
2.48470	49.76
2.50137	49.76
2.51803	49.78
2.53470	49.78
2.55137	49.80
2.56803	49.82
2.58470	49.81
2.60137	49.82
2.61803	49.81
2.63470	49.81
2.65137	49.82
2.66803	49.84
2.68470	49.85
2.70137	49.85
2.71803	49.86
2.73470	49.86
2.75137	49.86
2.76803	49.85
2.78470	49.85
2.80137	49.86
2.81803	49.88
2.83470	49.89
2.85137	49.91
2.86803	49.92
2.88470	49.93
2.90137	49.93
2.91803	49.94
2.93470	49.94
2.95137	49.94
2.96803	49.95
2.98470	49.95
3.00137	49.96
3.01803	49.97
3.03470	49.99
3.05137	49.99
3.06803	50.01
3.08470	50.01
3.10137	50.03
3.11803	50.03
3.13470	50.04
3.15137	50.05
3.16803	50.04
3.18470	50.04
3.20137	50.05
3.21803	50.05
3.23470	50.07
3.25137	50.07
3.26803	50.08
3.28470	50.09
3.30137	50.10
3.31803	50.10
3.33470	50.10
3.35137	50.10
3.36803	50.10
3.38470	50.10
3.40137	50.09
3.41803	50.08
3.43470	50.07
3.45137	50.06
3.46803	50.05
3.48470	50.05
3.50137	50.05
3.51803	50.06
3.53470	50.06
3.55137	50.06
3.56803	50.05
3.58470	50.05
3.60137	50.04
3.61803	50.06
3.63470	50.07
3.65137	50.07
3.66803	50.07
3.68470	50.08
3.70137	50.07
3.71803	50.08
3.73470	50.08
3.75137	50.08
3.76803	50.08
3.78470	50.08
3.80137	50.08
3.81803	50.08
3.83470	50.08
3.85137	50.08
3.86803	50.09
3.88470	50.09
3.90137	50.08
3.91803	50.06
3.93470	50.05
3.95137	50.05
3.96803	50.05
3.98470	50.05

[Status Trace (Injection Unit Temperature)]
Interval(msec)	1000
# of Points	240
Start Time(min)	0.001
End Time(min)	3.985
Intensity Units	
Intensity Multiplier	1
R.Time (min)	Intensity
0.00137	99.98
0.01803	99.98
0.03470	99.98
0.05137	99.98
0.06803	99.98
0.08470	99.98
0.10137	99.99
0.11803	99.99
0.13470	99.99
0.15137	99.99
0.16803	99.99
0.18470	99.99
0.20137	99.99
0.21803	99.99
0.23470	99.99
0.25137	99.99
0.26803	99.99
0.28470	99.99
0.30137	99.99
0.31803	99.98
0.33470	99.99
0.35137	99.99
0.36803	99.99
0.38470	99.99
0.40137	99.99
0.41803	99.99
0.43470	99.99
0.45137	99.99
0.46803	99.99
0.48470	99.99
0.50137	99.99
0.51803	99.99
0.53470	99.98
0.55137	99.98
0.56803	99.98
0.58470	99.98
0.60137	99.99
0.61803	99.99
0.63470	99.98
0.65137	99.99
0.66803	99.98
0.68470	99.99
0.70137	99.99
0.71803	99.98
0.73470	99.98
0.75137	99.98
0.76803	99.99
0.78470	99.99
0.80137	99.99
0.81803	99.99
0.83470	99.99
0.85137	99.98
0.86803	99.98
0.88470	99.98
0.90137	99.98
0.91803	99.98
0.93470	99.98
0.95137	99.98
0.96803	99.98
0.98470	99.98
1.00137	99.98
1.01803	99.98
1.03470	99.98
1.05137	99.98
1.06803	99.98
1.08470	99.98
1.10137	99.97
1.11803	99.98
1.13470	99.97
1.15137	99.98
1.16803	99.98
1.18470	99.97
1.20137	99.98
1.21803	99.97
1.23470	99.97
1.25137	99.98
1.26803	99.98
1.28470	99.98
1.30137	99.98
1.31803	99.98
1.33470	99.98
1.35137	99.97
1.36803	99.98
1.38470	99.98
1.40137	99.98
1.41803	99.98
1.43470	99.98
1.45137	99.98
1.46803	99.97
1.48470	99.98
1.50137	99.98
1.51803	99.97
1.53470	99.98
1.55137	99.98
1.56803	99.98
1.58470	99.98
1.60137	99.98
1.61803	99.98
1.63470	99.98
1.65137	99.98
1.66803	99.98
1.68470	99.98
1.70137	99.99
1.71803	99.99
1.73470	99.99
1.75137	99.98
1.76803	99.98
1.78470	99.98
1.80137	99.98
1.81803	99.98
1.83470	99.98
1.85137	99.98
1.86803	99.98
1.88470	99.98
1.90137	99.98
1.91803	99.98
1.93470	99.98
1.95137	99.98
1.96803	99.98
1.98470	99.98
2.00137	99.98
2.01803	99.98
2.03470	99.98
2.05137	99.98
2.06803	99.98
2.08470	99.98
2.10137	99.98
2.11803	99.97
2.13470	99.97
2.15137	99.97
2.16803	99.97
2.18470	99.97
2.20137	99.97
2.21803	99.97
2.23470	99.97
2.25137	99.97
2.26803	99.97
2.28470	99.97
2.30137	99.97
2.31803	99.97
2.33470	99.97
2.35137	99.97
2.36803	99.97
2.38470	99.97
2.40137	99.97
2.41803	99.98
2.43470	99.96
2.45137	99.97
2.46803	99.97
2.48470	99.97
2.50137	99.97
2.51803	99.97
2.53470	99.97
2.55137	99.97
2.56803	99.97
2.58470	99.97
2.60137	99.97
2.61803	99.97
2.63470	99.97
2.65137	99.98
2.66803	99.98
2.68470	99.98
2.70137	99.98
2.71803	99.98
2.73470	99.98
2.75137	99.99
2.76803	99.98
2.78470	99.99
2.80137	99.99
2.81803	99.99
2.83470	99.99
2.85137	99.99
2.86803	99.99
2.88470	100.00
2.90137	100.00
2.91803	100.00
2.93470	100.00
2.95137	100.00
2.96803	100.00
2.98470	100.00
3.00137	100.01
3.01803	100.01
3.03470	100.01
3.05137	100.01
3.06803	100.00
3.08470	100.02
3.10137	100.01
3.11803	100.01
3.13470	100.01
3.15137	100.02
3.16803	100.02
3.18470	100.01
3.20137	100.02
3.21803	100.02
3.23470	100.02
3.25137	100.03
3.26803	100.02
3.28470	100.02
3.30137	100.03
3.31803	100.03
3.33470	100.03
3.35137	100.03
3.36803	100.03
3.38470	100.03
3.40137	100.03
3.41803	100.03
3.43470	100.03
3.45137	100.03
3.46803	100.03
3.48470	100.03
3.50137	100.04
3.51803	100.04
3.53470	100.04
3.55137	100.03
3.56803	100.04
3.58470	100.04
3.60137	100.04
3.61803	100.04
3.63470	100.04
3.65137	100.04
3.66803	100.04
3.68470	100.04
3.70137	100.04
3.71803	100.04
3.73470	100.04
3.75137	100.04
3.76803	100.04
3.78470	100.05
3.80137	100.05
3.81803	100.04
3.83470	100.04
3.85137	100.05
3.86803	100.04
3.88470	100.04
3.90137	100.05
3.91803	100.05
3.93470	100.04
3.95137	100.04
3.96803	100.04
3.98470	100.04

[Status Trace (Carrier Gas Pressure)]
Interval(msec)	1000
# of Points	240
Start Time(min)	0.001
End Time(min)	3.985
Intensity Units	
Intensity Multiplier	1
R.Time (min)	Intensity
0.00137	58.00
0.01803	56.56
0.03470	56.16
0.05137	58.47
0.06803	59.90
0.08470	58.37
0.10137	57.97
0.11803	58.00
0.13470	58.01
0.15137	58.01
0.16803	58.00
0.18470	58.00
0.20137	58.00
0.21803	58.00
0.23470	58.00
0.25137	58.00
0.26803	58.00
0.28470	58.00
0.30137	58.00
0.31803	58.00
0.33470	58.00
0.35137	58.00
0.36803	58.00
0.38470	58.00
0.40137	58.00
0.41803	58.00
0.43470	58.00
0.45137	58.00
0.46803	58.00
0.48470	58.00
0.50137	58.00
0.51803	58.00
0.53470	58.00
0.55137	58.00
0.56803	58.00
0.58470	58.00
0.60137	58.00
0.61803	58.00
0.63470	58.00
0.65137	58.00
0.66803	58.00
0.68470	58.00
0.70137	58.00
0.71803	58.00
0.73470	58.00
0.75137	58.00
0.76803	58.00
0.78470	58.00
0.80137	58.00
0.81803	58.00
0.83470	58.00
0.85137	58.00
0.86803	58.00
0.88470	58.00
0.90137	58.00
0.91803	58.00
0.93470	58.00
0.95137	58.00
0.96803	58.00
0.98470	58.00
1.00137	58.00
1.01803	58.00
1.03470	58.00
1.05137	58.00
1.06803	58.00
1.08470	58.00
1.10137	58.00
1.11803	58.00
1.13470	58.00
1.15137	58.00
1.16803	58.00
1.18470	58.00
1.20137	58.00
1.21803	58.00
1.23470	58.00
1.25137	58.00
1.26803	58.00
1.28470	58.00
1.30137	58.00
1.31803	58.00
1.33470	58.00
1.35137	58.00
1.36803	58.00
1.38470	58.00
1.40137	58.00
1.41803	58.00
1.43470	58.00
1.45137	58.00
1.46803	58.00
1.48470	58.00
1.50137	58.00
1.51803	58.00
1.53470	58.00
1.55137	58.00
1.56803	58.00
1.58470	58.00
1.60137	58.00
1.61803	58.00
1.63470	58.00
1.65137	58.00
1.66803	58.01
1.68470	58.01
1.70137	58.00
1.71803	58.00
1.73470	58.00
1.75137	58.00
1.76803	58.00
1.78470	58.00
1.80137	58.00
1.81803	58.00
1.83470	58.00
1.85137	58.00
1.86803	58.00
1.88470	58.00
1.90137	58.00
1.91803	58.00
1.93470	58.00
1.95137	58.00
1.96803	58.00
1.98470	58.00
2.00137	58.00
2.01803	58.00
2.03470	58.00
2.05137	58.00
2.06803	58.00
2.08470	58.00
2.10137	58.00
2.11803	58.00
2.13470	58.00
2.15137	58.00
2.16803	58.00
2.18470	58.00
2.20137	58.00
2.21803	58.00
2.23470	58.00
2.25137	58.00
2.26803	58.00
2.28470	58.00
2.30137	58.00
2.31803	58.00
2.33470	58.00
2.35137	58.00
2.36803	58.00
2.38470	57.99
2.40137	57.99
2.41803	58.00
2.43470	58.00
2.45137	58.00
2.46803	58.00
2.48470	58.00
2.50137	58.00
2.51803	57.99
2.53470	57.99
2.55137	58.00
2.56803	58.00
2.58470	58.00
2.60137	58.00
2.61803	58.00
2.63470	58.00
2.65137	58.00
2.66803	58.00
2.68470	58.00
2.70137	58.00
2.71803	58.00
2.73470	58.00
2.75137	58.00
2.76803	58.00
2.78470	58.00
2.80137	58.00
2.81803	58.00
2.83470	58.00
2.85137	58.00
2.86803	58.00
2.88470	58.00
2.90137	58.00
2.91803	58.00
2.93470	58.00
2.95137	58.00
2.96803	58.00
2.98470	58.00
3.00137	58.00
3.01803	58.00
3.03470	58.00
3.05137	58.00
3.06803	58.00
3.08470	58.00
3.10137	58.00
3.11803	58.00
3.13470	58.00
3.15137	58.00
3.16803	58.00
3.18470	58.00
3.20137	58.00
3.21803	58.00
3.23470	58.00
3.25137	58.00
3.26803	58.00
3.28470	58.00
3.30137	58.00
3.31803	58.00
3.33470	58.00
3.35137	58.00
3.36803	58.00
3.38470	58.00
3.40137	58.00
3.41803	58.00
3.43470	58.00
3.45137	58.00
3.46803	58.00
3.48470	58.00
3.50137	58.00
3.51803	58.00
3.53470	58.00
3.55137	58.00
3.56803	58.00
3.58470	58.00
3.60137	58.00
3.61803	58.00
3.63470	58.00
3.65137	58.00
3.66803	58.00
3.68470	58.00
3.70137	58.00
3.71803	58.00
3.73470	58.00
3.75137	58.00
3.76803	58.00
3.78470	58.00
3.80137	58.00
3.81803	58.00
3.83470	58.00
3.85137	58.00
3.86803	58.00
3.88470	58.00
3.90137	58.00
3.91803	58.00
3.93470	58.00
3.95137	58.00
3.96803	58.00
3.98470	58.00

[Status Trace (Carrier Gas Flow)]
Interval(msec)	1000
# of Points	240
Start Time(min)	0.001
End Time(min)	3.985
Intensity Units	
Intensity Multiplier	1
R.Time (min)	Intensity
0.00137	34.52
0.01803	34.07
0.03470	34.54
0.05137	34.55
0.06803	34.50
0.08470	34.51
0.10137	34.52
0.11803	34.52
0.13470	34.52
0.15137	34.52
0.16803	34.52
0.18470	34.52
0.20137	34.52
0.21803	34.52
0.23470	34.52
0.25137	34.52
0.26803	34.51
0.28470	34.52
0.30137	34.52
0.31803	34.52
0.33470	34.52
0.35137	34.52
0.36803	34.52
0.38470	34.52
0.40137	34.52
0.41803	34.52
0.43470	34.52
0.45137	34.52
0.46803	34.52
0.48470	34.52
0.50137	34.52
0.51803	34.52
0.53470	34.52
0.55137	34.52
0.56803	34.52
0.58470	34.52
0.60137	34.52
0.61803	34.52
0.63470	34.52
0.65137	34.52
0.66803	34.52
0.68470	34.51
0.70137	34.52
0.71803	34.52
0.73470	34.52
0.75137	34.52
0.76803	34.52
0.78470	34.52
0.80137	34.52
0.81803	34.52
0.83470	34.52
0.85137	34.52
0.86803	34.52
0.88470	34.52
0.90137	34.52
0.91803	34.52
0.93470	34.52
0.95137	34.52
0.96803	34.52
0.98470	34.52
1.00137	34.52
1.01803	34.52
1.03470	34.51
1.05137	34.52
1.06803	34.52
1.08470	34.52
1.10137	34.52
1.11803	34.52
1.13470	34.52
1.15137	34.52
1.16803	34.52
1.18470	34.52
1.20137	34.52
1.21803	34.52
1.23470	34.52
1.25137	34.52
1.26803	34.52
1.28470	34.52
1.30137	34.52
1.31803	34.52
1.33470	34.52
1.35137	34.52
1.36803	34.52
1.38470	34.52
1.40137	34.52
1.41803	34.52
1.43470	34.52
1.45137	34.52
1.46803	34.52
1.48470	34.51
1.50137	34.52
1.51803	34.52
1.53470	34.52
1.55137	34.52
1.56803	34.52
1.58470	34.52
1.60137	34.52
1.61803	34.52
1.63470	34.52
1.65137	34.52
1.66803	34.52
1.68470	34.52
1.70137	34.52
1.71803	34.52
1.73470	34.51
1.75137	34.52
1.76803	34.52
1.78470	34.52
1.80137	34.52
1.81803	34.51
1.83470	34.52
1.85137	34.52
1.86803	34.51
1.88470	34.52
1.90137	34.52
1.91803	34.52
1.93470	34.52
1.95137	34.52
1.96803	34.52
1.98470	34.52
2.00137	34.52
2.01803	34.52
2.03470	34.52
2.05137	34.52
2.06803	34.52
2.08470	34.52
2.10137	34.52
2.11803	34.52
2.13470	34.52
2.15137	34.52
2.16803	34.52
2.18470	34.52
2.20137	34.52
2.21803	34.52
2.23470	34.52
2.25137	34.51
2.26803	34.52
2.28470	34.52
2.30137	34.52
2.31803	34.52
2.33470	34.52
2.35137	34.52
2.36803	34.51
2.38470	34.55
2.40137	34.52
2.41803	34.52
2.43470	34.52
2.45137	34.52
2.46803	34.52
2.48470	34.52
2.50137	34.52
2.51803	34.51
2.53470	34.52
2.55137	34.52
2.56803	34.52
2.58470	34.53
2.60137	34.52
2.61803	34.52
2.63470	34.52
2.65137	34.52
2.66803	34.52
2.68470	34.52
2.70137	34.52
2.71803	34.52
2.73470	34.52
2.75137	34.52
2.76803	34.52
2.78470	34.52
2.80137	34.52
2.81803	34.52
2.83470	34.52
2.85137	34.52
2.86803	34.52
2.88470	34.52
2.90137	34.52
2.91803	34.52
2.93470	34.52
2.95137	34.52
2.96803	34.52
2.98470	34.52
3.00137	34.52
3.01803	34.52
3.03470	34.52
3.05137	34.52
3.06803	34.52
3.08470	34.52
3.10137	34.52
3.11803	34.52
3.13470	34.52
3.15137	34.52
3.16803	34.52
3.18470	34.52
3.20137	34.52
3.21803	34.52
3.23470	34.52
3.25137	34.52
3.26803	34.52
3.28470	34.52
3.30137	34.52
3.31803	34.52
3.33470	34.52
3.35137	34.52
3.36803	34.52
3.38470	34.52
3.40137	34.52
3.41803	34.52
3.43470	34.52
3.45137	34.52
3.46803	34.52
3.48470	34.52
3.50137	34.52
3.51803	34.52
3.53470	34.51
3.55137	34.52
3.56803	34.52
3.58470	34.52
3.60137	34.51
3.61803	34.52
3.63470	34.52
3.65137	34.52
3.66803	34.52
3.68470	34.52
3.70137	34.52
3.71803	34.51
3.73470	34.51
3.75137	34.52
3.76803	34.52
3.78470	34.52
3.80137	34.52
3.81803	34.52
3.83470	34.52
3.85137	34.52
3.86803	34.52
3.88470	34.52
3.90137	34.52
3.91803	34.52
3.93470	34.52
3.95137	34.52
3.96803	34.52
3.98470	34.51

[Status Trace (Column Flow)]
Interval(msec)	1000
# of Points	240
Start Time(min)	0.001
End Time(min)	3.985
Intensity Units	
Intensity Multiplier	1
R.Time (min)	Intensity
0.00137	5.55
0.01803	5.38
0.03470	5.33
0.05137	5.60
0.06803	5.77
0.08470	5.59
0.10137	5.55
0.11803	5.55
0.13470	5.55
0.15137	5.55
0.16803	5.55
0.18470	5.55
0.20137	5.55
0.21803	5.55
0.23470	5.55
0.25137	5.55
0.26803	5.55
0.28470	5.55
0.30137	5.55
0.31803	5.55
0.33470	5.55
0.35137	5.55
0.36803	5.55
0.38470	5.55
0.40137	5.55
0.41803	5.55
0.43470	5.55
0.45137	5.55
0.46803	5.55
0.48470	5.55
0.50137	5.55
0.51803	5.55
0.53470	5.55
0.55137	5.55
0.56803	5.55
0.58470	5.55
0.60137	5.55
0.61803	5.55
0.63470	5.55
0.65137	5.55
0.66803	5.55
0.68470	5.55
0.70137	5.55
0.71803	5.55
0.73470	5.55
0.75137	5.55
0.76803	5.55
0.78470	5.55
0.80137	5.55
0.81803	5.55
0.83470	5.55
0.85137	5.55
0.86803	5.55
0.88470	5.55
0.90137	5.55
0.91803	5.55
0.93470	5.55
0.95137	5.55
0.96803	5.55
0.98470	5.55
1.00137	5.55
1.01803	5.55
1.03470	5.55
1.05137	5.55
1.06803	5.55
1.08470	5.55
1.10137	5.55
1.11803	5.55
1.13470	5.55
1.15137	5.55
1.16803	5.55
1.18470	5.55
1.20137	5.55
1.21803	5.55
1.23470	5.55
1.25137	5.55
1.26803	5.55
1.28470	5.55
1.30137	5.55
1.31803	5.55
1.33470	5.55
1.35137	5.55
1.36803	5.55
1.38470	5.55
1.40137	5.55
1.41803	5.55
1.43470	5.55
1.45137	5.55
1.46803	5.55
1.48470	5.55
1.50137	5.55
1.51803	5.55
1.53470	5.55
1.55137	5.55
1.56803	5.55
1.58470	5.55
1.60137	5.55
1.61803	5.55
1.63470	5.54
1.65137	5.53
1.66803	5.52
1.68470	5.51
1.70137	5.50
1.71803	5.49
1.73470	5.48
1.75137	5.47
1.76803	5.46
1.78470	5.45
1.80137	5.44
1.81803	5.43
1.83470	5.42
1.85137	5.41
1.86803	5.40
1.88470	5.39
1.90137	5.38
1.91803	5.37
1.93470	5.36
1.95137	5.35
1.96803	5.34
1.98470	5.33
2.00137	5.32
2.01803	5.31
2.03470	5.30
2.05137	5.29
2.06803	5.28
2.08470	5.27
2.10137	5.26
2.11803	5.25
2.13470	5.24
2.15137	5.23
2.16803	5.22
2.18470	5.22
2.20137	5.21
2.21803	5.20
2.23470	5.19
2.25137	5.18
2.26803	5.17
2.28470	5.16
2.30137	5.15
2.31803	5.14
2.33470	5.13
2.35137	5.12
2.36803	5.12
2.38470	5.11
2.40137	5.11
2.41803	5.11
2.43470	5.11
2.45137	5.11
2.46803	5.11
2.48470	5.11
2.50137	5.11
2.51803	5.11
2.53470	5.11
2.55137	5.11
2.56803	5.11
2.58470	5.11
2.60137	5.11
2.61803	5.11
2.63470	5.11
2.65137	5.11
2.66803	5.11
2.68470	5.11
2.70137	5.11
2.71803	5.11
2.73470	5.11
2.75137	5.11
2.76803	5.11
2.78470	5.11
2.80137	5.11
2.81803	5.11
2.83470	5.11
2.85137	5.11
2.86803	5.11
2.88470	5.11
2.90137	5.11
2.91803	5.11
2.93470	5.11
2.95137	5.11
2.96803	5.11
2.98470	5.11
3.00137	5.11
3.01803	5.10
3.03470	5.10
3.05137	5.10
3.06803	5.10
3.08470	5.10
3.10137	5.10
3.11803	5.10
3.13470	5.10
3.15137	5.10
3.16803	5.10
3.18470	5.10
3.20137	5.10
3.21803	5.10
3.23470	5.10
3.25137	5.10
3.26803	5.10
3.28470	5.10
3.30137	5.10
3.31803	5.10
3.33470	5.10
3.35137	5.10
3.36803	5.10
3.38470	5.10
3.40137	5.10
3.41803	5.10
3.43470	5.10
3.45137	5.10
3.46803	5.10
3.48470	5.10
3.50137	5.10
3.51803	5.10
3.53470	5.10
3.55137	5.10
3.56803	5.10
3.58470	5.10
3.60137	5.10
3.61803	5.10
3.63470	5.10
3.65137	5.10
3.66803	5.10
3.68470	5.10
3.70137	5.10
3.71803	5.10
3.73470	5.10
3.75137	5.10
3.76803	5.10
3.78470	5.10
3.80137	5.10
3.81803	5.10
3.83470	5.10
3.85137	5.10
3.86803	5.10
3.88470	5.10
3.90137	5.10
3.91803	5.10
3.93470	5.10
3.95137	5.10
3.96803	5.10
3.98470	5.10

[Status Trace (Linear Velocity)]
Interval(msec)	1000
# of Points	240
Start Time(min)	0.001
End Time(min)	3.985
Intensity Units	
Intensity Multiplier	1
R.Time (min)	Intensity
0.00137	39.02
0.01803	38.07
0.03470	37.81
0.05137	39.33
0.06803	40.27
0.08470	39.26
0.10137	39.00
0.11803	39.02
0.13470	39.03
0.15137	39.02
0.16803	39.02
0.18470	39.02
0.20137	39.02
0.21803	39.02
0.23470	39.02
0.25137	39.02
0.26803	39.02
0.28470	39.02
0.30137	39.02
0.31803	39.02
0.33470	39.02
0.35137	39.02
0.36803	39.02
0.38470	39.02
0.40137	39.02
0.41803	39.02
0.43470	39.02
0.45137	39.02
0.46803	39.02
0.48470	39.02
0.50137	39.02
0.51803	39.02
0.53470	39.02
0.55137	39.02
0.56803	39.02
0.58470	39.02
0.60137	39.02
0.61803	39.02
0.63470	39.02
0.65137	39.02
0.66803	39.02
0.68470	39.02
0.70137	39.02
0.71803	39.02
0.73470	39.02
0.75137	39.02
0.76803	39.02
0.78470	39.02
0.80137	39.02
0.81803	39.02
0.83470	39.02
0.85137	39.02
0.86803	39.02
0.88470	39.02
0.90137	39.02
0.91803	39.02
0.93470	39.02
0.95137	39.02
0.96803	39.02
0.98470	39.03
1.00137	39.03
1.01803	39.03
1.03470	39.03
1.05137	39.03
1.06803	39.02
1.08470	39.02
1.10137	39.03
1.11803	39.03
1.13470	39.02
1.15137	39.02
1.16803	39.02
1.18470	39.02
1.20137	39.02
1.21803	39.02
1.23470	39.02
1.25137	39.03
1.26803	39.03
1.28470	39.03
1.30137	39.03
1.31803	39.03
1.33470	39.03
1.35137	39.03
1.36803	39.03
1.38470	39.03
1.40137	39.03
1.41803	39.03
1.43470	39.02
1.45137	39.02
1.46803	39.03
1.48470	39.02
1.50137	39.02
1.51803	39.02
1.53470	39.03
1.55137	39.03
1.56803	39.03
1.58470	39.03
1.60137	39.02
1.61803	39.02
1.63470	39.00
1.65137	38.98
1.66803	38.95
1.68470	38.91
1.70137	38.87
1.71803	38.84
1.73470	38.81
1.75137	38.78
1.76803	38.75
1.78470	38.72
1.80137	38.68
1.81803	38.65
1.83470	38.62
1.85137	38.59
1.86803	38.56
1.88470	38.53
1.90137	38.50
1.91803	38.47
1.93470	38.44
1.95137	38.41
1.96803	38.38
1.98470	38.35
2.00137	38.32
2.01803	38.29
2.03470	38.26
2.05137	38.23
2.06803	38.20
2.08470	38.17
2.10137	38.14
2.11803	38.11
2.13470	38.08
2.15137	38.05
2.16803	38.02
2.18470	37.99
2.20137	37.96
2.21803	37.93
2.23470	37.90
2.25137	37.87
2.26803	37.84
2.28470	37.81
2.30137	37.78
2.31803	37.75
2.33470	37.72
2.35137	37.70
2.36803	37.67
2.38470	37.66
2.40137	37.66
2.41803	37.66
2.43470	37.66
2.45137	37.66
2.46803	37.66
2.48470	37.66
2.50137	37.66
2.51803	37.65
2.53470	37.65
2.55137	37.66
2.56803	37.66
2.58470	37.66
2.60137	37.65
2.61803	37.66
2.63470	37.66
2.65137	37.65
2.66803	37.65
2.68470	37.65
2.70137	37.65
2.71803	37.65
2.73470	37.65
2.75137	37.65
2.76803	37.65
2.78470	37.65
2.80137	37.65
2.81803	37.65
2.83470	37.65
2.85137	37.65
2.86803	37.65
2.88470	37.65
2.90137	37.64
2.91803	37.64
2.93470	37.64
2.95137	37.64
2.96803	37.64
2.98470	37.64
3.00137	37.64
3.01803	37.64
3.03470	37.64
3.05137	37.64
3.06803	37.64
3.08470	37.64
3.10137	37.64
3.11803	37.64
3.13470	37.64
3.15137	37.63
3.16803	37.63
3.18470	37.64
3.20137	37.63
3.21803	37.63
3.23470	37.63
3.25137	37.63
3.26803	37.63
3.28470	37.63
3.30137	37.63
3.31803	37.63
3.33470	37.63
3.35137	37.63
3.36803	37.63
3.38470	37.63
3.40137	37.63
3.41803	37.63
3.43470	37.63
3.45137	37.63
3.46803	37.63
3.48470	37.63
3.50137	37.64
3.51803	37.63
3.53470	37.63
3.55137	37.63
3.56803	37.63
3.58470	37.63
3.60137	37.64
3.61803	37.63
3.63470	37.63
3.65137	37.63
3.66803	37.63
3.68470	37.63
3.70137	37.63
3.71803	37.63
3.73470	37.63
3.75137	37.63
3.76803	37.63
3.78470	37.63
3.80137	37.63
3.81803	37.63
3.83470	37.63
3.85137	37.63
3.86803	37.63
3.88470	37.63
3.90137	37.63
3.91803	37.63
3.93470	37.64
3.95137	37.63
3.96803	37.64
3.98470	37.63

