[Header]
Application Name	LabSolutions
Version	5.110
Data File Name	C:\Users\User\Desktop\GC Analyses\Jack\Nachusa Grasslands Sampling\T4 Timepoint July 12th\T4_07122022_076.gcd
Output Date	3/17/2023
Output Time	12:04:55 PM

[File Information]
Type	Data File
Generated	3/14/2023 11:55:02 PM
Generated by	System Administrator
Modified	3/15/2023 12:01:42 AM
Modified by	System Administrator

[Sample Information]
Operator Name	System Administrator
Acquired	3/14/2023 11:57:41 PM
Sample Type	0:Unknown
Level	0
Sample Name	076
Sample ID	076
ISTD Amount1	1
ISTD Amount2	1
ISTD Amount3	1
ISTD Amount4	1
ISTD Amount5	1
ISTD Amount6	1
ISTD Amount7	1
ISTD Amount8	1
ISTD Amount9	1
ISTD Amount10	1
ISTD Amount11	1
ISTD Amount12	1
ISTD Amount13	1
ISTD Amount14	1
ISTD Amount15	1
ISTD Amount16	1
ISTD Amount17	1
ISTD Amount18	1
ISTD Amount19	1
ISTD Amount20	1
ISTD Amount21	1
ISTD Amount22	1
ISTD Amount23	1
ISTD Amount24	1
ISTD Amount25	1
ISTD Amount26	1
ISTD Amount27	1
ISTD Amount28	1
ISTD Amount29	1
ISTD Amount30	1
ISTD Amount31	1
ISTD Amount32	1
Sample Amount	1
Dilution Factor	1
Vial#	75
Injection Volume	1
Injection Count	1
Bar Code	

[Original Files]
Data File	C:\Users\User\Desktop\GC Analyses\Jack\Nachusa Grasslands Sampling\T4 Timepoint July 12th\T4_07122022_076.gcd
Method File	C:\LabSolutions\Data\GHG_4min_2022\ghg3_togas_w_acet_4 min_new_int.gcm
Batch File	C:\LabSolutions\Data\AutoSamplerTesting\T4_07122022.gcb
Report Format File	c:\LabSolutions\System\DEFAULT.lsr

[File Description]


[Configuration]
Instrument Name	C0B7VH3-Instrument1
Instrument #	1
Line #	1
# of Detectors	3
Detector ID	DET#1	DET#2	DET#3
Detector Name	FID	PTCD	ECD
# of Channels	1	1	1

[Peak Table(Ch1)]
# of Peaks	3
Peak#	R.Time	I.Time	F.Time	Area	Height	A/H	Conc.	Mark	ID#	Name	k'	Plate #	Plate Ht.	Tailing	Resolution	Sep.Factor	Area Ratio	Height Ratio	Conc. %	Norm Conc.
1	1.476	1.417	1.538	23897	11707	2.041	168.714	   	1	CO	0.000	9646	15.550	1.290	0.000	0.000	0	0	15.128	15.128
2	1.571	1.538	1.619	3796	1948	1.949	73.399	 V 	2	CH4	0.065	11665	12.859	1.138	1.612	0.000	0	0	6.581	6.581
3	1.996	1.949	2.451	3478979	1662404	2.093	873.129	   	3	CO2	0.353	17250	8.696	1.331	7.149	5.462	0	0	78.291	78.291

[Peak Table(Ch2)]
# of Peaks	0

[Peak Table(Ch3)]
# of Peaks	6
Peak#	R.Time	I.Time	F.Time	Area	Height	A/H	Conc.	Mark	ID#	Name	k'	Plate #	Plate Ht.	Tailing	Resolution	Sep.Factor	Area Ratio	Height Ratio	Conc. %	Norm Conc.
1	2.462	2.235	2.510	3132	796	3.932	0.000	   			0.000	10064	14.905	0.000	0.000	0.000	0	0	0.000	0.000
2	2.532	2.510	2.583	1169	388	3.013	0.000	 V 			0.028	6207	24.165	0.000	0.615	0.000	0	0	0.000	0.000
3	2.605	2.583	2.678	625	176	3.552	0.000	 V 			0.058	2547	58.901	0.000	0.438	2.053	0	0	0.000	0.000
4	2.880	2.704	3.118	20496	4915	4.170	0.524	S  	1	N2O	0.170	12689	11.821	1.568	1.781	2.923	0	0	100.000	100.000
5	3.107	3.096	3.118	37	53	0.710	0.000	T  	2	SF6	0.262	257373	0.583	0.996	3.587	1.544	0	0	0.000	0.000
6	3.346	3.122	3.995	21265	701	30.324	0.000	   	2	SF6	0.359	228	657.145	1.918	0.524	1.369	0	0	0.000	0.000

[Compound Results(Ch1)]
# of IDs	6
ID#	Name	R.Time	Area	Height	Conc.	Curve	3rd	2nd	1st	Constant	Area Ratio	Height Ratio	Conc. %	Norm Conc.
1	CO	1.476	23897	11707	168.714	Linear	0.000000e+00	0.000000e+00	1.416423e+002	0.000000e+00	0	0	15.128	15.128
2	CH4	1.571	3796	1948	73.399	Linear	0.000000e+00	0.000000e+00	5.171738e+001	0.000000e+00	0	0	6.581	6.581
3	CO2	1.996	3478979	1662404	873.129	Linear	0.000000e+00	0.000000e+00	3.984494e+003	0.000000e+00	0	0	78.291	78.291
4	Ethylene	0.000	0	0	0.000	Linear	0.000000e+00	0.000000e+00	0.000000e+00	0.000000e+00	0	0	0.000	0.000
5	Acetylene	0.000	0	0	0.000	Linear	0.000000e+00	0.000000e+00	0.000000e+00	0.000000e+00	0	0	0.000	0.000
6	Ethane	0.000	0	0	0.000	Linear	0.000000e+00	0.000000e+00	0.000000e+00	0.000000e+00	0	0	0.000	0.000

[Compound Results(Ch2)]
# of IDs	5
ID#	Name	R.Time	Area	Height	Conc.	Curve	3rd	2nd	1st	Constant	Area Ratio	Height Ratio	Conc. %	Norm Conc.
1	Hydrogen	0.000	0	0	0.000	Linear	0.000000e+00	0.000000e+00	0.000000e+00	0.000000e+00	0	0	0.000	0.000
2	Oxygen	0.000	0	0	0.000	Linear	0.000000e+00	0.000000e+00	0.000000e+00	0.000000e+00	0	0	0.000	0.000
3	Nitrogen	0.000	0	0	0.000	Linear	0.000000e+00	0.000000e+00	0.000000e+00	0.000000e+00	0	0	0.000	0.000
4	Methane	0.000	0	0	0.000	Linear	0.000000e+00	0.000000e+00	0.000000e+00	0.000000e+00	0	0	0.000	0.000
5	Carbon Monoxide	0.000	0	0	0.000	Linear	0.000000e+00	0.000000e+00	0.000000e+00	0.000000e+00	0	0	0.000	0.000

[Compound Results(Ch3)]
# of IDs	2
ID#	Name	R.Time	Area	Height	Conc.	Curve	3rd	2nd	1st	Constant	Area Ratio	Height Ratio	Conc. %	Norm Conc.
1	N2O	2.880	20496	4915	0.524	Linear	0.000000e+00	0.000000e+00	3.915173e+004	0.000000e+00	0	0	100.000	100.000
2	SF6	3.346	21302	754	0.000	Linear	0.000000e+00	0.000000e+00	0.000000e+00	0.000000e+00	0	0	0.000	0.000

[Group Results(Ch1)]
# of Groups	0

[Group Results(Ch2)]
# of Groups	0

[Group Results(Ch3)]
# of Groups	0

[Chromatogram (Ch1)]
Interval(msec)	220
# of Points	1091
Start Time(min)	0.002
End Time(min)	3.998
R.Time (min)	Intensity
0.00167	27
0.00533	29
0.00900	27
0.01267	23
0.01633	24
0.02000	29
0.02367	31
0.02733	33
0.03100	30
0.03467	28
0.03833	30
0.04200	30
0.04567	23
0.04933	10
0.05300	-1
0.05667	-7
0.06033	-8
0.06400	-7
0.06767	-4
0.07133	-1
0.07500	3
0.07867	6
0.08233	10
0.08600	16
0.08967	20
0.09333	23
0.09700	21
0.10067	16
0.10433	10
0.10800	3
0.11167	2
0.11533	4
0.11900	8
0.12267	12
0.12633	18
0.13000	25
0.13367	30
0.13733	26
0.14100	20
0.14467	11
0.14833	1
0.15200	-5
0.15567	-5
0.15933	-3
0.16300	-2
0.16667	2
0.17033	9
0.17400	17
0.17767	24
0.18133	32
0.18500	38
0.18867	38
0.19233	36
0.19600	33
0.19967	31
0.20333	30
0.20700	29
0.21067	29
0.21433	27
0.21800	23
0.22167	21
0.22533	22
0.22900	27
0.23267	36
0.23633	42
0.24000	50
0.24367	58
0.24733	62
0.25100	61
0.25467	57
0.25833	54
0.26200	48
0.26567	37
0.26933	32
0.27300	31
0.27667	32
0.28033	31
0.28400	31
0.28767	34
0.29133	47
0.29500	62
0.29867	76
0.30233	88
0.30600	92
0.30967	89
0.31333	83
0.31700	75
0.32067	64
0.32433	56
0.32800	50
0.33167	42
0.33533	37
0.33900	37
0.34267	42
0.34633	44
0.35000	41
0.35367	38
0.35733	30
0.36100	15
0.36467	1
0.36833	-2
0.37200	4
0.37567	6
0.37933	8
0.38300	9
0.38667	10
0.39033	9
0.39400	9
0.39767	13
0.40133	12
0.40500	12
0.40867	13
0.41233	11
0.41600	7
0.41967	3
0.42333	-4
0.42700	-11
0.43067	-13
0.43433	-14
0.43800	-7
0.44167	1
0.44533	3
0.44900	-1
0.45267	-2
0.45633	-4
0.46000	-5
0.46367	-3
0.46733	1
0.47100	6
0.47467	4
0.47833	2
0.48200	4
0.48567	3
0.48933	-1
0.49300	-5
0.49667	-8
0.50033	-11
0.50400	-17
0.50767	-28
0.51133	-36
0.51500	-33
0.51867	-33
0.52233	-35
0.52600	-37
0.52967	-36
0.53333	-30
0.53700	-20
0.54067	-16
0.54433	-17
0.54800	-19
0.55167	-21
0.55533	-24
0.55900	-28
0.56267	-28
0.56633	-23
0.57000	-20
0.57367	-22
0.57733	-20
0.58100	-18
0.58467	-19
0.58833	-22
0.59200	-23
0.59567	-22
0.59933	-21
0.60300	-14
0.60667	-12
0.61033	-14
0.61400	-18
0.61767	-21
0.62133	-27
0.62500	-31
0.62867	-31
0.63233	-29
0.63600	-30
0.63967	-28
0.64333	-27
0.64700	-24
0.65067	-23
0.65433	-23
0.65800	-23
0.66167	-21
0.66533	-17
0.66900	-12
0.67267	-6
0.67633	-7
0.68000	-15
0.68367	-22
0.68733	-28
0.69100	-29
0.69467	-29
0.69833	-30
0.70200	-27
0.70567	-20
0.70933	-13
0.71300	-7
0.71667	-4
0.72033	-3
0.72400	-6
0.72767	-15
0.73133	-28
0.73500	-39
0.73867	-45
0.74233	-49
0.74600	-55
0.74967	-58
0.75333	-56
0.75700	-51
0.76067	-48
0.76433	-46
0.76800	-46
0.77167	-50
0.77533	-49
0.77900	-47
0.78267	-45
0.78633	-40
0.79000	-32
0.79367	-22
0.79733	-12
0.80100	-7
0.80467	-5
0.80833	-0
0.81200	7
0.81567	14
0.81933	11
0.82300	4
0.82667	-1
0.83033	-5
0.83400	-6
0.83767	-4
0.84133	2
0.84500	6
0.84867	9
0.85233	10
0.85600	8
0.85967	4
0.86333	-1
0.86700	-5
0.87067	-5
0.87433	-8
0.87800	-15
0.88167	-24
0.88533	-29
0.88900	-27
0.89267	-24
0.89633	-21
0.90000	-21
0.90367	-23
0.90733	-24
0.91100	-25
0.91467	-28
0.91833	-26
0.92200	-14
0.92567	-3
0.92933	3
0.93300	8
0.93667	10
0.94033	5
0.94400	-5
0.94767	-12
0.95133	-15
0.95500	-15
0.95867	-11
0.96233	-8
0.96600	-9
0.96967	-14
0.97333	-29
0.97700	-44
0.98067	-49
0.98433	-48
0.98800	-43
0.99167	-40
0.99533	-41
0.99900	-45
1.00267	-44
1.00633	-40
1.01000	-40
1.01367	-46
1.01733	-54
1.02100	-57
1.02467	-56
1.02833	-55
1.03200	-51
1.03567	-41
1.03933	-30
1.04300	-19
1.04667	-10
1.05033	-6
1.05400	-8
1.05767	-14
1.06133	-18
1.06500	-21
1.06867	-22
1.07233	-18
1.07600	-15
1.07967	-17
1.08333	-20
1.08700	-22
1.09067	-23
1.09433	-23
1.09800	-25
1.10167	-23
1.10533	-18
1.10900	-11
1.11267	-11
1.11633	-20
1.12000	-30
1.12367	-40
1.12733	-44
1.13100	-46
1.13467	-49
1.13833	-58
1.14200	-64
1.14567	-65
1.14933	-62
1.15300	-58
1.15667	-55
1.16033	-52
1.16400	-50
1.16767	-49
1.17133	-49
1.17500	-52
1.17867	-58
1.18233	-63
1.18600	-62
1.18967	-54
1.19333	-46
1.19700	-43
1.20067	-44
1.20433	-44
1.20800	-42
1.21167	-41
1.21533	-42
1.21900	-45
1.22267	-51
1.22633	-54
1.23000	-53
1.23367	-48
1.23733	-46
1.24100	-47
1.24467	-49
1.24833	-52
1.25200	-58
1.25567	-65
1.25933	-68
1.26300	-68
1.26667	-64
1.27033	-57
1.27400	-52
1.27767	-54
1.28133	-55
1.28500	-49
1.28867	-46
1.29233	-49
1.29600	-57
1.29967	-66
1.30333	-71
1.30700	-72
1.31067	-68
1.31433	-60
1.31800	-55
1.32167	-54
1.32533	-55
1.32900	-54
1.33267	-52
1.33633	-48
1.34000	-43
1.34367	-35
1.34733	-27
1.35100	-21
1.35467	-19
1.35833	-28
1.36200	-46
1.36567	-64
1.36933	-74
1.37300	-79
1.37667	-83
1.38033	-83
1.38400	-78
1.38767	-77
1.39133	-78
1.39500	-80
1.39867	-81
1.40233	-80
1.40600	-76
1.40967	-73
1.41333	-72
1.41700	-70
1.42067	-66
1.42433	-61
1.42800	-54
1.43167	-45
1.43533	-39
1.43900	-32
1.44267	-2
1.44633	108
1.45000	444
1.45367	1347
1.45733	3069
1.46100	5344
1.46467	7629
1.46833	9538
1.47200	10904
1.47567	11623
1.47933	11571
1.48300	10718
1.48667	9226
1.49033	7411
1.49400	5615
1.49767	4063
1.50133	2836
1.50500	1915
1.50867	1250
1.51233	788
1.51600	473
1.51967	265
1.52333	128
1.52700	37
1.53067	-24
1.53433	-60
1.53800	-72
1.54167	-42
1.54533	77
1.54900	323
1.55267	670
1.55633	1042
1.56000	1378
1.56367	1644
1.56733	1809
1.57100	1841
1.57467	1721
1.57833	1471
1.58200	1153
1.58567	834
1.58933	563
1.59300	355
1.59667	206
1.60033	101
1.60400	27
1.60767	-30
1.61133	-71
1.61500	-99
1.61867	-118
1.62233	-124
1.62600	-123
1.62967	-124
1.63333	-123
1.63700	-121
1.64067	-118
1.64433	-117
1.64800	-118
1.65167	-119
1.65533	-116
1.65900	-120
1.66267	-126
1.66633	-130
1.67000	-128
1.67367	-128
1.67733	-130
1.68100	-133
1.68467	-131
1.68833	-128
1.69200	-123
1.69567	-119
1.69933	-114
1.70300	-108
1.70667	-100
1.71033	-92
1.71400	-89
1.71767	-90
1.72133	-95
1.72500	-103
1.72867	-109
1.73233	-113
1.73600	-123
1.73967	-135
1.74333	-142
1.74700	-145
1.75067	-144
1.75433	-134
1.75800	-123
1.76167	-119
1.76533	-109
1.76900	-101
1.77267	-99
1.77633	-102
1.78000	-105
1.78367	-107
1.78733	-107
1.79100	-110
1.79467	-113
1.79833	-115
1.80200	-115
1.80567	-114
1.80933	-114
1.81300	-116
1.81667	-120
1.82033	-123
1.82400	-124
1.82767	-121
1.83133	-111
1.83500	-102
1.83867	-96
1.84233	-95
1.84600	-92
1.84967	-89
1.85333	-87
1.85700	-91
1.86067	-102
1.86433	-112
1.86800	-116
1.87167	-117
1.87533	-117
1.87900	-114
1.88267	-108
1.88633	-101
1.89000	-99
1.89367	-98
1.89733	-96
1.90100	-100
1.90467	-106
1.90833	-105
1.91200	-102
1.91567	-101
1.91933	-96
1.92300	-90
1.92667	-86
1.93033	-91
1.93400	-101
1.93767	-107
1.94133	-110
1.94500	-110
1.94867	-101
1.95233	-68
1.95600	100
1.95967	1124
1.96333	6333
1.96700	26406
1.97067	85160
1.97433	216544
1.97800	441994
1.98167	744108
1.98533	1069646
1.98900	1358400
1.99267	1564794
1.99633	1662335
2.00000	1643358
2.00367	1518677
2.00733	1317020
2.01100	1077211
2.01467	836670
2.01833	622543
2.02200	448229
2.02567	315479
2.02933	219150
2.03300	151552
2.03667	105152
2.04033	73706
2.04400	52511
2.04767	38208
2.05133	28486
2.05500	21804
2.05867	17135
2.06233	13807
2.06600	11386
2.06967	9581
2.07333	8205
2.07700	7138
2.08067	6292
2.08433	5606
2.08800	5036
2.09167	4559
2.09533	4153
2.09900	3807
2.10267	3514
2.10633	3259
2.11000	3036
2.11367	2836
2.11733	2654
2.12100	2485
2.12467	2324
2.12833	2173
2.13200	2039
2.13567	1926
2.13933	1834
2.14300	1755
2.14667	1684
2.15033	1615
2.15400	1548
2.15767	1482
2.16133	1415
2.16500	1347
2.16867	1282
2.17233	1228
2.17600	1182
2.17967	1139
2.18333	1091
2.18700	1042
2.19067	1000
2.19433	964
2.19800	932
2.20167	906
2.20533	886
2.20900	866
2.21267	840
2.21633	813
2.22000	791
2.22367	770
2.22733	753
2.23100	739
2.23467	721
2.23833	695
2.24200	669
2.24567	643
2.24933	616
2.25300	594
2.25667	582
2.26033	576
2.26400	564
2.26767	552
2.27133	543
2.27500	529
2.27867	513
2.28233	505
2.28600	504
2.28967	503
2.29333	497
2.29700	488
2.30067	470
2.30433	449
2.30800	427
2.31167	408
2.31533	399
2.31900	391
2.32267	384
2.32633	378
2.33000	376
2.33367	376
2.33733	370
2.34100	358
2.34467	345
2.34833	335
2.35200	333
2.35567	337
2.35933	338
2.36300	334
2.36667	326
2.37033	317
2.37400	313
2.37767	309
2.38133	297
2.38500	292
2.38867	287
2.39233	284
2.39600	279
2.39967	273
2.40333	267
2.40700	267
2.41067	269
2.41433	271
2.41800	271
2.42167	271
2.42533	270
2.42900	267
2.43267	264
2.43633	264
2.44000	266
2.44367	258
2.44733	247
2.45100	241
2.45467	236
2.45833	233
2.46200	233
2.46567	235
2.46933	236
2.47300	238
2.47667	236
2.48033	229
2.48400	223
2.48767	217
2.49133	209
2.49500	200
2.49867	191
2.50233	182
2.50600	176
2.50967	172
2.51333	170
2.51700	170
2.52067	177
2.52433	191
2.52800	203
2.53167	208
2.53533	203
2.53900	198
2.54267	194
2.54633	187
2.55000	182
2.55367	180
2.55733	178
2.56100	174
2.56467	167
2.56833	157
2.57200	150
2.57567	149
2.57933	150
2.58300	149
2.58667	145
2.59033	139
2.59400	137
2.59767	138
2.60133	137
2.60500	136
2.60867	135
2.61233	135
2.61600	139
2.61967	143
2.62333	145
2.62700	150
2.63067	158
2.63433	161
2.63800	160
2.64167	156
2.64533	147
2.64900	143
2.65267	143
2.65633	141
2.66000	133
2.66367	122
2.66733	117
2.67100	119
2.67467	118
2.67833	116
2.68200	118
2.68567	122
2.68933	128
2.69300	129
2.69667	129
2.70033	128
2.70400	125
2.70767	122
2.71133	120
2.71500	112
2.71867	104
2.72233	100
2.72600	96
2.72967	95
2.73333	95
2.73700	92
2.74067	93
2.74433	101
2.74800	107
2.75167	109
2.75533	108
2.75900	107
2.76267	111
2.76633	119
2.77000	122
2.77367	122
2.77733	120
2.78100	117
2.78467	114
2.78833	110
2.79200	111
2.79567	111
2.79933	108
2.80300	104
2.80667	102
2.81033	106
2.81400	108
2.81767	102
2.82133	98
2.82500	98
2.82867	102
2.83233	104
2.83600	103
2.83967	101
2.84333	105
2.84700	114
2.85067	122
2.85433	126
2.85800	127
2.86167	121
2.86533	111
2.86900	100
2.87267	87
2.87633	81
2.88000	79
2.88367	75
2.88733	73
2.89100	79
2.89467	84
2.89833	87
2.90200	89
2.90567	94
2.90933	101
2.91300	105
2.91667	108
2.92033	111
2.92400	111
2.92767	105
2.93133	101
2.93500	101
2.93867	104
2.94233	104
2.94600	105
2.94967	107
2.95333	105
2.95700	99
2.96067	92
2.96433	82
2.96800	77
2.97167	77
2.97533	79
2.97900	79
2.98267	76
2.98633	75
2.99000	76
2.99367	75
2.99733	76
3.00100	78
3.00467	79
3.00833	79
3.01200	76
3.01567	74
3.01933	71
3.02300	70
3.02667	73
3.03033	76
3.03400	78
3.03767	80
3.04133	85
3.04500	91
3.04867	92
3.05233	90
3.05600	84
3.05967	75
3.06333	71
3.06700	70
3.07067	73
3.07433	79
3.07800	83
3.08167	84
3.08533	82
3.08900	82
3.09267	81
3.09633	79
3.10000	77
3.10367	76
3.10733	72
3.11100	68
3.11467	69
3.11833	73
3.12200	76
3.12567	81
3.12933	85
3.13300	83
3.13667	78
3.14033	79
3.14400	83
3.14767	92
3.15133	97
3.15500	94
3.15867	89
3.16233	84
3.16600	79
3.16967	72
3.17333	64
3.17700	59
3.18067	57
3.18433	57
3.18800	57
3.19167	60
3.19533	63
3.19900	67
3.20267	69
3.20633	69
3.21000	69
3.21367	70
3.21733	73
3.22100	78
3.22467	78
3.22833	77
3.23200	77
3.23567	75
3.23933	76
3.24300	77
3.24667	79
3.25033	79
3.25400	79
3.25767	77
3.26133	75
3.26500	78
3.26867	87
3.27233	96
3.27600	97
3.27967	99
3.28333	98
3.28700	88
3.29067	72
3.29433	59
3.29800	52
3.30167	47
3.30533	50
3.30900	55
3.31267	60
3.31633	63
3.32000	63
3.32367	62
3.32733	61
3.33100	64
3.33467	71
3.33833	75
3.34200	72
3.34567	68
3.34933	65
3.35300	67
3.35667	71
3.36033	73
3.36400	77
3.36767	79
3.37133	79
3.37500	75
3.37867	70
3.38233	64
3.38600	66
3.38967	73
3.39333	77
3.39700	81
3.40067	84
3.40433	87
3.40800	88
3.41167	96
3.41533	110
3.41900	117
3.42267	112
3.42633	97
3.43000	77
3.43367	53
3.43733	32
3.44100	21
3.44467	19
3.44833	22
3.45200	23
3.45567	25
3.45933	28
3.46300	32
3.46667	37
3.47033	43
3.47400	48
3.47767	53
3.48133	59
3.48500	64
3.48867	61
3.49233	56
3.49600	51
3.49967	46
3.50333	41
3.50700	41
3.51067	48
3.51433	52
3.51800	53
3.52167	53
3.52533	53
3.52900	44
3.53267	43
3.53633	45
3.54000	52
3.54367	56
3.54733	52
3.55100	48
3.55467	43
3.55833	39
3.56200	40
3.56567	45
3.56933	50
3.57300	56
3.57667	61
3.58033	64
3.58400	63
3.58767	56
3.59133	47
3.59500	41
3.59867	40
3.60233	41
3.60600	46
3.60967	52
3.61333	48
3.61700	42
3.62067	37
3.62433	34
3.62800	38
3.63167	46
3.63533	51
3.63900	54
3.64267	54
3.64633	52
3.65000	49
3.65367	47
3.65733	47
3.66100	44
3.66467	33
3.66833	23
3.67200	18
3.67567	20
3.67933	27
3.68300	30
3.68667	28
3.69033	26
3.69400	30
3.69767	37
3.70133	40
3.70500	43
3.70867	40
3.71233	40
3.71600	41
3.71967	39
3.72333	35
3.72700	37
3.73067	42
3.73433	45
3.73800	48
3.74167	49
3.74533	49
3.74900	47
3.75267	43
3.75633	40
3.76000	33
3.76367	23
3.76733	16
3.77100	13
3.77467	15
3.77833	21
3.78200	22
3.78567	21
3.78933	28
3.79300	38
3.79667	44
3.80033	47
3.80400	46
3.80767	41
3.81133	33
3.81500	24
3.81867	18
3.82233	11
3.82600	7
3.82967	5
3.83333	12
3.83700	24
3.84067	30
3.84433	33
3.84800	33
3.85167	34
3.85533	39
3.85900	44
3.86267	43
3.86633	39
3.87000	35
3.87367	30
3.87733	24
3.88100	17
3.88467	11
3.88833	9
3.89200	10
3.89567	15
3.89933	20
3.90300	19
3.90667	16
3.91033	15
3.91400	15
3.91767	13
3.92133	13
3.92500	14
3.92867	12
3.93233	9
3.93600	7
3.93967	4
3.94333	1
3.94700	1
3.95067	5
3.95433	12
3.95800	17
3.96167	18
3.96533	17
3.96900	18
3.97267	22
3.97633	25
3.98000	27
3.98367	23
3.98733	18
3.99100	13
3.99467	9
3.99833	5

[Chromatogram (Ch2)]
Interval(msec)	220
# of Points	1091
Start Time(min)	0.002
End Time(min)	3.998
R.Time (min)	Intensity
0.00167	0
0.00533	0
0.00900	0
0.01267	0
0.01633	0
0.02000	-0
0.02367	-0
0.02733	-0
0.03100	-1
0.03467	-1
0.03833	-2
0.04200	-2
0.04567	-2
0.04933	-2
0.05300	-2
0.05667	-2
0.06033	-2
0.06400	-2
0.06767	-2
0.07133	-3
0.07500	-3
0.07867	-3
0.08233	-3
0.08600	-3
0.08967	-3
0.09333	-3
0.09700	-3
0.10067	-2
0.10433	-2
0.10800	-1
0.11167	-1
0.11533	-0
0.11900	-0
0.12267	0
0.12633	1
0.13000	1
0.13367	1
0.13733	1
0.14100	1
0.14467	1
0.14833	1
0.15200	1
0.15567	1
0.15933	1
0.16300	1
0.16667	1
0.17033	0
0.17400	0
0.17767	-0
0.18133	-1
0.18500	-1
0.18867	-1
0.19233	-2
0.19600	-2
0.19967	-2
0.20333	-3
0.20700	-3
0.21067	-4
0.21433	-4
0.21800	-4
0.22167	-4
0.22533	-4
0.22900	-4
0.23267	-4
0.23633	-4
0.24000	-4
0.24367	-4
0.24733	-4
0.25100	-4
0.25467	-4
0.25833	-4
0.26200	-4
0.26567	-3
0.26933	-3
0.27300	-3
0.27667	-2
0.28033	-2
0.28400	-1
0.28767	-1
0.29133	-0
0.29500	0
0.29867	0
0.30233	1
0.30600	1
0.30967	1
0.31333	1
0.31700	1
0.32067	1
0.32433	1
0.32800	1
0.33167	1
0.33533	0
0.33900	0
0.34267	-1
0.34633	-1
0.35000	-2
0.35367	-2
0.35733	-2
0.36100	-3
0.36467	-3
0.36833	-3
0.37200	-3
0.37567	-3
0.37933	-3
0.38300	-3
0.38667	-3
0.39033	-3
0.39400	-3
0.39767	-4
0.40133	-4
0.40500	-4
0.40867	-4
0.41233	-5
0.41600	-5
0.41967	-5
0.42333	-5
0.42700	-5
0.43067	-5
0.43433	-5
0.43800	-5
0.44167	-5
0.44533	-5
0.44900	-5
0.45267	-5
0.45633	-5
0.46000	-5
0.46367	-6
0.46733	-6
0.47100	-5
0.47467	-5
0.47833	-5
0.48200	-4
0.48567	-4
0.48933	-4
0.49300	-4
0.49667	-4
0.50033	-4
0.50400	-4
0.50767	-4
0.51133	-4
0.51500	-4
0.51867	-4
0.52233	-3
0.52600	-3
0.52967	-2
0.53333	-2
0.53700	-2
0.54067	-2
0.54433	-1
0.54800	-1
0.55167	-1
0.55533	-0
0.55900	0
0.56267	1
0.56633	1
0.57000	1
0.57367	2
0.57733	2
0.58100	2
0.58467	2
0.58833	3
0.59200	3
0.59567	3
0.59933	3
0.60300	2
0.60667	2
0.61033	2
0.61400	1
0.61767	1
0.62133	1
0.62500	1
0.62867	0
0.63233	0
0.63600	-0
0.63967	-1
0.64333	-1
0.64700	-1
0.65067	-1
0.65433	-2
0.65800	-2
0.66167	-2
0.66533	-2
0.66900	-2
0.67267	-2
0.67633	-2
0.68000	-2
0.68367	-2
0.68733	-2
0.69100	-2
0.69467	-2
0.69833	-3
0.70200	-3
0.70567	-4
0.70933	-4
0.71300	-5
0.71667	-5
0.72033	-5
0.72400	-5
0.72767	-5
0.73133	-5
0.73500	-5
0.73867	-4
0.74233	-4
0.74600	-4
0.74967	-4
0.75333	-4
0.75700	-4
0.76067	-4
0.76433	-3
0.76800	-3
0.77167	-3
0.77533	-3
0.77900	-3
0.78267	-3
0.78633	-2
0.79000	-2
0.79367	-2
0.79733	-2
0.80100	-1
0.80467	-1
0.80833	-0
0.81200	0
0.81567	0
0.81933	0
0.82300	0
0.82667	0
0.83033	0
0.83400	-0
0.83767	-0
0.84133	-1
0.84500	-1
0.84867	-2
0.85233	-2
0.85600	-2
0.85967	-3
0.86333	-3
0.86700	-3
0.87067	-3
0.87433	-3
0.87800	-3
0.88167	-3
0.88533	-3
0.88900	-3
0.89267	-3
0.89633	-3
0.90000	-2
0.90367	-2
0.90733	-1
0.91100	-1
0.91467	-1
0.91833	-1
0.92200	-1
0.92567	-1
0.92933	-2
0.93300	-2
0.93667	-2
0.94033	-2
0.94400	-2
0.94767	-2
0.95133	-2
0.95500	-2
0.95867	-2
0.96233	-2
0.96600	-2
0.96967	-1
0.97333	-1
0.97700	-1
0.98067	-0
0.98433	-0
0.98800	-0
0.99167	-0
0.99533	-0
0.99900	-0
1.00267	-0
1.00633	-0
1.01000	-1
1.01367	-1
1.01733	-1
1.02100	-1
1.02467	-2
1.02833	-2
1.03200	-2
1.03567	-1
1.03933	-1
1.04300	-1
1.04667	-0
1.05033	-0
1.05400	-0
1.05767	0
1.06133	0
1.06500	1
1.06867	0
1.07233	0
1.07600	0
1.07967	-0
1.08333	-0
1.08700	-0
1.09067	-0
1.09433	-1
1.09800	-1
1.10167	-1
1.10533	-1
1.10900	-1
1.11267	-1
1.11633	-1
1.12000	-1
1.12367	-1
1.12733	-1
1.13100	-1
1.13467	-1
1.13833	-2
1.14200	-2
1.14567	-2
1.14933	-3
1.15300	-3
1.15667	-4
1.16033	-4
1.16400	-4
1.16767	-5
1.17133	-5
1.17500	-5
1.17867	-5
1.18233	-5
1.18600	-5
1.18967	-5
1.19333	-5
1.19700	-5
1.20067	-5
1.20433	-5
1.20800	-5
1.21167	-5
1.21533	-4
1.21900	-4
1.22267	-3
1.22633	-3
1.23000	-2
1.23367	-2
1.23733	-2
1.24100	-2
1.24467	-2
1.24833	-2
1.25200	-2
1.25567	-2
1.25933	-2
1.26300	-1
1.26667	-1
1.27033	-1
1.27400	-1
1.27767	-1
1.28133	-1
1.28500	-1
1.28867	-1
1.29233	-1
1.29600	-1
1.29967	-1
1.30333	-1
1.30700	-1
1.31067	-1
1.31433	-1
1.31800	-1
1.32167	-1
1.32533	-1
1.32900	-1
1.33267	-1
1.33633	-2
1.34000	-2
1.34367	-2
1.34733	-2
1.35100	-2
1.35467	-2
1.35833	-2
1.36200	-2
1.36567	-2
1.36933	-2
1.37300	-3
1.37667	-3
1.38033	-3
1.38400	-3
1.38767	-3
1.39133	-4
1.39500	-4
1.39867	-4
1.40233	-4
1.40600	-5
1.40967	-5
1.41333	-5
1.41700	-5
1.42067	-5
1.42433	-4
1.42800	-4
1.43167	-4
1.43533	-4
1.43900	-3
1.44267	-2
1.44633	-2
1.45000	-1
1.45367	-1
1.45733	-0
1.46100	-0
1.46467	0
1.46833	0
1.47200	0
1.47567	0
1.47933	-0
1.48300	-0
1.48667	-0
1.49033	-1
1.49400	-1
1.49767	-1
1.50133	-1
1.50500	-1
1.50867	-2
1.51233	-3
1.51600	-3
1.51967	-3
1.52333	-4
1.52700	-4
1.53067	-4
1.53433	-4
1.53800	-4
1.54167	-4
1.54533	-4
1.54900	-4
1.55267	-4
1.55633	-4
1.56000	-4
1.56367	-4
1.56733	-4
1.57100	-4
1.57467	-5
1.57833	-5
1.58200	-6
1.58567	-6
1.58933	-7
1.59300	-7
1.59667	-7
1.60033	-8
1.60400	-8
1.60767	-9
1.61133	-10
1.61500	-12
1.61867	-14
1.62233	-17
1.62600	-20
1.62967	-23
1.63333	-26
1.63700	-29
1.64067	-32
1.64433	-36
1.64800	-39
1.65167	-43
1.65533	-46
1.65900	-50
1.66267	-53
1.66633	-58
1.67000	-62
1.67367	-66
1.67733	-71
1.68100	-76
1.68467	-81
1.68833	-85
1.69200	-89
1.69567	-93
1.69933	-96
1.70300	-99
1.70667	-101
1.71033	-103
1.71400	-104
1.71767	-105
1.72133	-106
1.72500	-107
1.72867	-108
1.73233	-108
1.73600	-109
1.73967	-109
1.74333	-110
1.74700	-110
1.75067	-110
1.75433	-109
1.75800	-109
1.76167	-109
1.76533	-109
1.76900	-109
1.77267	-110
1.77633	-110
1.78000	-111
1.78367	-112
1.78733	-112
1.79100	-112
1.79467	-112
1.79833	-111
1.80200	-111
1.80567	-111
1.80933	-111
1.81300	-112
1.81667	-112
1.82033	-113
1.82400	-113
1.82767	-113
1.83133	-114
1.83500	-114
1.83867	-115
1.84233	-115
1.84600	-115
1.84967	-115
1.85333	-115
1.85700	-115
1.86067	-114
1.86433	-114
1.86800	-113
1.87167	-113
1.87533	-113
1.87900	-113
1.88267	-113
1.88633	-113
1.89000	-113
1.89367	-113
1.89733	-113
1.90100	-113
1.90467	-114
1.90833	-113
1.91200	-113
1.91567	-112
1.91933	-112
1.92300	-111
1.92667	-110
1.93033	-110
1.93400	-110
1.93767	-110
1.94133	-110
1.94500	-111
1.94867	-111
1.95233	-111
1.95600	-111
1.95967	-111
1.96333	-111
1.96700	-110
1.97067	-110
1.97433	-109
1.97800	-109
1.98167	-109
1.98533	-108
1.98900	-108
1.99267	-108
1.99633	-108
2.00000	-108
2.00367	-107
2.00733	-107
2.01100	-107
2.01467	-107
2.01833	-107
2.02200	-107
2.02567	-107
2.02933	-107
2.03300	-106
2.03667	-106
2.04033	-106
2.04400	-105
2.04767	-104
2.05133	-104
2.05500	-103
2.05867	-103
2.06233	-103
2.06600	-103
2.06967	-102
2.07333	-101
2.07700	-100
2.08067	-99
2.08433	-99
2.08800	-98
2.09167	-98
2.09533	-98
2.09900	-98
2.10267	-98
2.10633	-98
2.11000	-98
2.11367	-98
2.11733	-98
2.12100	-97
2.12467	-97
2.12833	-96
2.13200	-96
2.13567	-95
2.13933	-95
2.14300	-95
2.14667	-94
2.15033	-94
2.15400	-94
2.15767	-94
2.16133	-94
2.16500	-94
2.16867	-94
2.17233	-95
2.17600	-94
2.17967	-94
2.18333	-93
2.18700	-93
2.19067	-92
2.19433	-92
2.19800	-92
2.20167	-92
2.20533	-92
2.20900	-92
2.21267	-92
2.21633	-92
2.22000	-91
2.22367	-91
2.22733	-90
2.23100	-89
2.23467	-89
2.23833	-89
2.24200	-88
2.24567	-88
2.24933	-88
2.25300	-88
2.25667	-88
2.26033	-87
2.26400	-86
2.26767	-85
2.27133	-84
2.27500	-84
2.27867	-83
2.28233	-83
2.28600	-82
2.28967	-82
2.29333	-82
2.29700	-81
2.30067	-81
2.30433	-81
2.30800	-81
2.31167	-81
2.31533	-81
2.31900	-81
2.32267	-80
2.32633	-80
2.33000	-79
2.33367	-79
2.33733	-78
2.34100	-78
2.34467	-78
2.34833	-77
2.35200	-76
2.35567	-75
2.35933	-73
2.36300	-72
2.36667	-70
2.37033	-68
2.37400	-66
2.37767	-63
2.38133	-59
2.38500	-55
2.38867	-51
2.39233	-47
2.39600	-42
2.39967	-38
2.40333	-33
2.40700	-29
2.41067	-25
2.41433	-21
2.41800	-19
2.42167	-16
2.42533	-15
2.42900	-13
2.43267	-11
2.43633	-10
2.44000	-8
2.44367	-7
2.44733	-6
2.45100	-6
2.45467	-5
2.45833	-4
2.46200	-4
2.46567	-4
2.46933	-3
2.47300	-3
2.47667	-2
2.48033	-1
2.48400	-1
2.48767	0
2.49133	2
2.49500	3
2.49867	4
2.50233	6
2.50600	7
2.50967	7
2.51333	8
2.51700	8
2.52067	8
2.52433	9
2.52800	9
2.53167	9
2.53533	9
2.53900	10
2.54267	11
2.54633	11
2.55000	12
2.55367	13
2.55733	13
2.56100	13
2.56467	14
2.56833	14
2.57200	14
2.57567	15
2.57933	15
2.58300	15
2.58667	14
2.59033	14
2.59400	14
2.59767	14
2.60133	14
2.60500	14
2.60867	14
2.61233	14
2.61600	14
2.61967	15
2.62333	15
2.62700	16
2.63067	16
2.63433	16
2.63800	16
2.64167	16
2.64533	16
2.64900	16
2.65267	16
2.65633	16
2.66000	16
2.66367	17
2.66733	17
2.67100	18
2.67467	18
2.67833	18
2.68200	18
2.68567	18
2.68933	19
2.69300	19
2.69667	19
2.70033	19
2.70400	19
2.70767	19
2.71133	20
2.71500	20
2.71867	21
2.72233	22
2.72600	23
2.72967	24
2.73333	24
2.73700	25
2.74067	25
2.74433	25
2.74800	24
2.75167	24
2.75533	23
2.75900	23
2.76267	23
2.76633	23
2.77000	23
2.77367	23
2.77733	24
2.78100	24
2.78467	25
2.78833	25
2.79200	26
2.79567	26
2.79933	26
2.80300	27
2.80667	27
2.81033	27
2.81400	27
2.81767	26
2.82133	26
2.82500	25
2.82867	24
2.83233	24
2.83600	23
2.83967	22
2.84333	21
2.84700	19
2.85067	15
2.85433	9
2.85800	1
2.86167	-11
2.86533	-28
2.86900	-48
2.87267	-73
2.87633	-102
2.88000	-136
2.88367	-174
2.88733	-216
2.89100	-261
2.89467	-309
2.89833	-360
2.90200	-413
2.90567	-467
2.90933	-522
2.91300	-578
2.91667	-633
2.92033	-688
2.92400	-741
2.92767	-793
2.93133	-843
2.93500	-894
2.93867	-950
2.94233	-1007
2.94600	-1058
2.94967	-1092
2.95333	-1101
2.95700	-1085
2.96067	-1045
2.96433	-988
2.96800	-917
2.97167	-840
2.97533	-759
2.97900	-679
2.98267	-602
2.98633	-530
2.99000	-464
2.99367	-403
2.99733	-349
3.00100	-300
3.00467	-258
3.00833	-221
3.01200	-188
3.01567	-160
3.01933	-135
3.02300	-114
3.02667	-96
3.03033	-81
3.03400	-68
3.03767	-56
3.04133	-46
3.04500	-37
3.04867	-30
3.05233	-23
3.05600	-18
3.05967	-14
3.06333	-10
3.06700	-7
3.07067	-5
3.07433	-2
3.07800	-0
3.08167	1
3.08533	2
3.08900	4
3.09267	5
3.09633	6
3.10000	7
3.10367	8
3.10733	8
3.11100	9
3.11467	10
3.11833	10
3.12200	11
3.12567	11
3.12933	12
3.13300	12
3.13667	13
3.14033	13
3.14400	14
3.14767	14
3.15133	15
3.15500	16
3.15867	16
3.16233	17
3.16600	17
3.16967	17
3.17333	17
3.17700	18
3.18067	18
3.18433	18
3.18800	18
3.19167	18
3.19533	19
3.19900	19
3.20267	19
3.20633	19
3.21000	20
3.21367	20
3.21733	20
3.22100	20
3.22467	20
3.22833	20
3.23200	21
3.23567	21
3.23933	21
3.24300	21
3.24667	21
3.25033	21
3.25400	21
3.25767	22
3.26133	22
3.26500	22
3.26867	22
3.27233	22
3.27600	22
3.27967	22
3.28333	22
3.28700	22
3.29067	22
3.29433	22
3.29800	22
3.30167	22
3.30533	22
3.30900	22
3.31267	22
3.31633	22
3.32000	22
3.32367	23
3.32733	23
3.33100	23
3.33467	23
3.33833	24
3.34200	24
3.34567	24
3.34933	24
3.35300	24
3.35667	24
3.36033	24
3.36400	24
3.36767	24
3.37133	24
3.37500	24
3.37867	24
3.38233	24
3.38600	24
3.38967	24
3.39333	24
3.39700	24
3.40067	24
3.40433	24
3.40800	24
3.41167	24
3.41533	23
3.41900	23
3.42267	23
3.42633	23
3.43000	23
3.43367	24
3.43733	24
3.44100	24
3.44467	24
3.44833	24
3.45200	25
3.45567	25
3.45933	25
3.46300	25
3.46667	25
3.47033	25
3.47400	25
3.47767	25
3.48133	25
3.48500	26
3.48867	26
3.49233	26
3.49600	26
3.49967	26
3.50333	26
3.50700	26
3.51067	26
3.51433	26
3.51800	26
3.52167	26
3.52533	26
3.52900	26
3.53267	26
3.53633	26
3.54000	26
3.54367	26
3.54733	26
3.55100	26
3.55467	26
3.55833	26
3.56200	26
3.56567	26
3.56933	26
3.57300	26
3.57667	26
3.58033	26
3.58400	27
3.58767	27
3.59133	27
3.59500	27
3.59867	27
3.60233	27
3.60600	27
3.60967	27
3.61333	27
3.61700	27
3.62067	27
3.62433	27
3.62800	27
3.63167	27
3.63533	27
3.63900	27
3.64267	27
3.64633	26
3.65000	26
3.65367	26
3.65733	26
3.66100	26
3.66467	25
3.66833	25
3.67200	25
3.67567	25
3.67933	25
3.68300	25
3.68667	25
3.69033	25
3.69400	25
3.69767	25
3.70133	24
3.70500	24
3.70867	25
3.71233	24
3.71600	24
3.71967	25
3.72333	25
3.72700	25
3.73067	25
3.73433	25
3.73800	25
3.74167	25
3.74533	25
3.74900	25
3.75267	25
3.75633	26
3.76000	26
3.76367	26
3.76733	26
3.77100	27
3.77467	27
3.77833	27
3.78200	27
3.78567	27
3.78933	27
3.79300	27
3.79667	27
3.80033	27
3.80400	27
3.80767	27
3.81133	27
3.81500	27
3.81867	27
3.82233	26
3.82600	26
3.82967	26
3.83333	25
3.83700	25
3.84067	25
3.84433	25
3.84800	25
3.85167	25
3.85533	25
3.85900	25
3.86267	25
3.86633	25
3.87000	26
3.87367	26
3.87733	26
3.88100	26
3.88467	26
3.88833	26
3.89200	26
3.89567	26
3.89933	26
3.90300	26
3.90667	26
3.91033	26
3.91400	25
3.91767	25
3.92133	24
3.92500	24
3.92867	24
3.93233	24
3.93600	24
3.93967	24
3.94333	24
3.94700	24
3.95067	24
3.95433	24
3.95800	24
3.96167	24
3.96533	24
3.96900	25
3.97267	25
3.97633	25
3.98000	25
3.98367	25
3.98733	25
3.99100	26
3.99467	26
3.99833	26

[Chromatogram (Ch3)]
Interval(msec)	220
# of Points	1091
Start Time(min)	0.002
End Time(min)	3.998
R.Time (min)	Intensity
0.00167	1
0.00533	2
0.00900	0
0.01267	0
0.01633	-0
0.02000	-0
0.02367	-2
0.02733	-3
0.03100	-2
0.03467	-1
0.03833	0
0.04200	1
0.04567	1
0.04933	3
0.05300	5
0.05667	8
0.06033	6
0.06400	2
0.06767	-1
0.07133	-1
0.07500	-3
0.07867	-2
0.08233	1
0.08600	2
0.08967	3
0.09333	4
0.09700	4
0.10067	3
0.10433	3
0.10800	3
0.11167	3
0.11533	2
0.11900	2
0.12267	1
0.12633	1
0.13000	0
0.13367	2
0.13733	1
0.14100	1
0.14467	2
0.14833	2
0.15200	2
0.15567	0
0.15933	-1
0.16300	-1
0.16667	-1
0.17033	1
0.17400	0
0.17767	1
0.18133	1
0.18500	-2
0.18867	-2
0.19233	-3
0.19600	-4
0.19967	-4
0.20333	-3
0.20700	-1
0.21067	0
0.21433	1
0.21800	1
0.22167	0
0.22533	-3
0.22900	-5
0.23267	-8
0.23633	-7
0.24000	-4
0.24367	-2
0.24733	-1
0.25100	0
0.25467	2
0.25833	2
0.26200	4
0.26567	6
0.26933	6
0.27300	2
0.27667	1
0.28033	-1
0.28400	0
0.28767	2
0.29133	2
0.29500	2
0.29867	2
0.30233	1
0.30600	3
0.30967	4
0.31333	4
0.31700	2
0.32067	-0
0.32433	0
0.32800	2
0.33167	2
0.33533	3
0.33900	4
0.34267	5
0.34633	6
0.35000	7
0.35367	7
0.35733	6
0.36100	4
0.36467	5
0.36833	8
0.37200	9
0.37567	9
0.37933	8
0.38300	5
0.38667	4
0.39033	4
0.39400	5
0.39767	4
0.40133	5
0.40500	5
0.40867	4
0.41233	3
0.41600	3
0.41967	5
0.42333	5
0.42700	7
0.43067	8
0.43433	6
0.43800	5
0.44167	4
0.44533	4
0.44900	4
0.45267	4
0.45633	5
0.46000	5
0.46367	4
0.46733	3
0.47100	3
0.47467	4
0.47833	2
0.48200	1
0.48567	-0
0.48933	0
0.49300	1
0.49667	1
0.50033	1
0.50400	1
0.50767	1
0.51133	-0
0.51500	0
0.51867	0
0.52233	-0
0.52600	2
0.52967	5
0.53333	8
0.53700	8
0.54067	7
0.54433	7
0.54800	6
0.55167	4
0.55533	2
0.55900	0
0.56267	1
0.56633	2
0.57000	3
0.57367	3
0.57733	4
0.58100	5
0.58467	6
0.58833	5
0.59200	4
0.59567	2
0.59933	-0
0.60300	0
0.60667	1
0.61033	-0
0.61400	-0
0.61767	-2
0.62133	-2
0.62500	-2
0.62867	-3
0.63233	-2
0.63600	0
0.63967	2
0.64333	1
0.64700	-1
0.65067	-2
0.65433	-1
0.65800	1
0.66167	3
0.66533	4
0.66900	3
0.67267	3
0.67633	3
0.68000	3
0.68367	5
0.68733	7
0.69100	7
0.69467	5
0.69833	3
0.70200	3
0.70567	4
0.70933	5
0.71300	5
0.71667	4
0.72033	5
0.72400	8
0.72767	8
0.73133	8
0.73500	9
0.73867	8
0.74233	6
0.74600	4
0.74967	4
0.75333	5
0.75700	4
0.76067	4
0.76433	3
0.76800	3
0.77167	3
0.77533	3
0.77900	2
0.78267	2
0.78633	2
0.79000	3
0.79367	3
0.79733	4
0.80100	7
0.80467	11
0.80833	14
0.81200	16
0.81567	16
0.81933	14
0.82300	12
0.82667	9
0.83033	9
0.83400	10
0.83767	8
0.84133	6
0.84500	5
0.84867	4
0.85233	3
0.85600	2
0.85967	3
0.86333	6
0.86700	7
0.87067	8
0.87433	8
0.87800	9
0.88167	11
0.88533	11
0.88900	10
0.89267	10
0.89633	8
0.90000	7
0.90367	7
0.90733	7
0.91100	7
0.91467	6
0.91833	6
0.92200	7
0.92567	9
0.92933	9
0.93300	10
0.93667	11
0.94033	11
0.94400	10
0.94767	8
0.95133	7
0.95500	8
0.95867	8
0.96233	8
0.96600	8
0.96967	6
0.97333	6
0.97700	6
0.98067	9
0.98433	11
0.98800	11
0.99167	13
0.99533	13
0.99900	12
1.00267	11
1.00633	11
1.01000	11
1.01367	11
1.01733	10
1.02100	9
1.02467	7
1.02833	7
1.03200	6
1.03567	5
1.03933	5
1.04300	5
1.04667	8
1.05033	10
1.05400	13
1.05767	13
1.06133	12
1.06500	11
1.06867	11
1.07233	12
1.07600	11
1.07967	11
1.08333	11
1.08700	11
1.09067	10
1.09433	10
1.09800	10
1.10167	10
1.10533	9
1.10900	8
1.11267	8
1.11633	9
1.12000	9
1.12367	10
1.12733	11
1.13100	12
1.13467	14
1.13833	15
1.14200	14
1.14567	13
1.14933	12
1.15300	11
1.15667	11
1.16033	12
1.16400	13
1.16767	13
1.17133	12
1.17500	12
1.17867	12
1.18233	11
1.18600	11
1.18967	11
1.19333	11
1.19700	11
1.20067	10
1.20433	10
1.20800	11
1.21167	12
1.21533	11
1.21900	11
1.22267	12
1.22633	11
1.23000	10
1.23367	9
1.23733	10
1.24100	10
1.24467	12
1.24833	12
1.25200	11
1.25567	12
1.25933	13
1.26300	14
1.26667	13
1.27033	14
1.27400	14
1.27767	15
1.28133	13
1.28500	12
1.28867	11
1.29233	9
1.29600	8
1.29967	8
1.30333	8
1.30700	8
1.31067	9
1.31433	11
1.31800	12
1.32167	12
1.32533	14
1.32900	14
1.33267	13
1.33633	14
1.34000	16
1.34367	16
1.34733	14
1.35100	14
1.35467	15
1.35833	15
1.36200	16
1.36567	16
1.36933	14
1.37300	14
1.37667	12
1.38033	11
1.38400	11
1.38767	11
1.39133	11
1.39500	11
1.39867	14
1.40233	14
1.40600	14
1.40967	14
1.41333	15
1.41700	15
1.42067	14
1.42433	14
1.42800	14
1.43167	12
1.43533	11
1.43900	13
1.44267	13
1.44633	14
1.45000	15
1.45367	15
1.45733	15
1.46100	14
1.46467	13
1.46833	14
1.47200	15
1.47567	16
1.47933	19
1.48300	18
1.48667	15
1.49033	12
1.49400	10
1.49767	10
1.50133	12
1.50500	14
1.50867	14
1.51233	13
1.51600	13
1.51967	12
1.52333	14
1.52700	16
1.53067	16
1.53433	16
1.53800	17
1.54167	18
1.54533	18
1.54900	15
1.55267	12
1.55633	12
1.56000	14
1.56367	14
1.56733	15
1.57100	18
1.57467	19
1.57833	19
1.58200	19
1.58567	17
1.58933	16
1.59300	14
1.59667	14
1.60033	14
1.60400	17
1.60767	19
1.61133	19
1.61500	19
1.61867	18
1.62233	16
1.62600	17
1.62967	19
1.63333	20
1.63700	19
1.64067	18
1.64433	17
1.64800	18
1.65167	20
1.65533	21
1.65900	22
1.66267	22
1.66633	22
1.67000	24
1.67367	23
1.67733	22
1.68100	22
1.68467	26
1.68833	29
1.69200	30
1.69567	30
1.69933	29
1.70300	27
1.70667	27
1.71033	28
1.71400	30
1.71767	32
1.72133	31
1.72500	31
1.72867	33
1.73233	35
1.73600	37
1.73967	38
1.74333	39
1.74700	38
1.75067	37
1.75433	37
1.75800	36
1.76167	35
1.76533	34
1.76900	34
1.77267	36
1.77633	38
1.78000	38
1.78367	37
1.78733	37
1.79100	36
1.79467	35
1.79833	37
1.80200	38
1.80567	39
1.80933	40
1.81300	41
1.81667	39
1.82033	38
1.82400	37
1.82767	37
1.83133	38
1.83500	39
1.83867	42
1.84233	45
1.84600	46
1.84967	45
1.85333	47
1.85700	49
1.86067	50
1.86433	51
1.86800	52
1.87167	53
1.87533	53
1.87900	53
1.88267	52
1.88633	50
1.89000	49
1.89367	52
1.89733	55
1.90100	55
1.90467	54
1.90833	55
1.91200	55
1.91567	56
1.91933	59
1.92300	61
1.92667	64
1.93033	63
1.93400	63
1.93767	65
1.94133	67
1.94500	68
1.94867	68
1.95233	68
1.95600	72
1.95967	74
1.96333	74
1.96700	73
1.97067	73
1.97433	73
1.97800	74
1.98167	75
1.98533	77
1.98900	79
1.99267	79
1.99633	78
2.00000	78
2.00367	81
2.00733	83
2.01100	87
2.01467	88
2.01833	89
2.02200	90
2.02567	93
2.02933	95
2.03300	98
2.03667	102
2.04033	104
2.04400	103
2.04767	102
2.05133	103
2.05500	104
2.05867	105
2.06233	107
2.06600	109
2.06967	111
2.07333	111
2.07700	112
2.08067	115
2.08433	118
2.08800	120
2.09167	122
2.09533	122
2.09900	124
2.10267	127
2.10633	129
2.11000	130
2.11367	130
2.11733	129
2.12100	131
2.12467	133
2.12833	136
2.13200	137
2.13567	137
2.13933	138
2.14300	139
2.14667	141
2.15033	142
2.15400	141
2.15767	140
2.16133	143
2.16500	148
2.16867	152
2.17233	154
2.17600	157
2.17967	159
2.18333	160
2.18700	161
2.19067	162
2.19433	161
2.19800	162
2.20167	163
2.20533	163
2.20900	163
2.21267	166
2.21633	169
2.22000	171
2.22367	171
2.22733	173
2.23100	175
2.23467	175
2.23833	177
2.24200	178
2.24567	182
2.24933	183
2.25300	182
2.25667	181
2.26033	182
2.26400	183
2.26767	185
2.27133	188
2.27500	191
2.27867	194
2.28233	196
2.28600	195
2.28967	195
2.29333	194
2.29700	194
2.30067	197
2.30433	199
2.30800	199
2.31167	203
2.31533	207
2.31900	211
2.32267	213
2.32633	213
2.33000	212
2.33367	213
2.33733	216
2.34100	218
2.34467	220
2.34833	220
2.35200	221
2.35567	223
2.35933	225
2.36300	226
2.36667	227
2.37033	230
2.37400	234
2.37767	235
2.38133	235
2.38500	234
2.38867	232
2.39233	233
2.39600	234
2.39967	234
2.40333	236
2.40700	239
2.41067	244
2.41433	249
2.41800	253
2.42167	254
2.42533	255
2.42900	258
2.43267	260
2.43633	259
2.44000	261
2.44367	322
2.44733	483
2.45100	658
2.45467	801
2.45833	882
2.46200	886
2.46567	843
2.46933	785
2.47300	729
2.47667	689
2.48033	657
2.48400	619
2.48767	570
2.49133	517
2.49500	468
2.49867	426
2.50233	396
2.50600	377
2.50967	368
2.51333	371
2.51700	387
2.52067	413
2.52433	435
2.52800	450
2.53167	451
2.53533	436
2.53900	409
2.54267	375
2.54633	340
2.55000	307
2.55367	277
2.55733	254
2.56100	236
2.56467	222
2.56833	213
2.57200	205
2.57567	201
2.57933	198
2.58300	196
2.58667	197
2.59033	201
2.59400	206
2.59767	210
2.60133	212
2.60500	211
2.60867	207
2.61233	199
2.61600	189
2.61967	177
2.62333	167
2.62700	157
2.63067	148
2.63433	139
2.63800	128
2.64167	119
2.64533	108
2.64900	96
2.65267	83
2.65633	70
2.66000	57
2.66367	45
2.66733	35
2.67100	24
2.67467	16
2.67833	7
2.68200	1
2.68567	-2
2.68933	-2
2.69300	-3
2.69667	-4
2.70033	-4
2.70400	-2
2.70767	2
2.71133	7
2.71500	12
2.71867	17
2.72233	22
2.72600	28
2.72967	33
2.73333	38
2.73700	43
2.74067	44
2.74433	45
2.74800	48
2.75167	52
2.75533	55
2.75900	58
2.76267	61
2.76633	65
2.77000	67
2.77367	70
2.77733	76
2.78100	82
2.78467	86
2.78833	89
2.79200	94
2.79567	96
2.79933	99
2.80300	103
2.80667	110
2.81033	116
2.81400	126
2.81767	137
2.82133	150
2.82500	172
2.82867	210
2.83233	278
2.83600	399
2.83967	595
2.84333	884
2.84700	1278
2.85067	1766
2.85433	2324
2.85800	2916
2.86167	3497
2.86533	4021
2.86900	4449
2.87267	4747
2.87633	4900
2.88000	4911
2.88367	4796
2.88733	4584
2.89100	4304
2.89467	3982
2.89833	3641
2.90200	3297
2.90567	2962
2.90933	2644
2.91300	2349
2.91667	2081
2.92033	1837
2.92400	1618
2.92767	1425
2.93133	1255
2.93500	1106
2.93867	974
2.94233	860
2.94600	760
2.94967	670
2.95333	593
2.95700	527
2.96067	472
2.96433	422
2.96800	378
2.97167	342
2.97533	309
2.97900	281
2.98267	259
2.98633	238
2.99000	219
2.99367	206
2.99733	192
3.00100	181
3.00467	172
3.00833	162
3.01200	153
3.01567	147
3.01933	143
3.02300	138
3.02667	133
3.03033	128
3.03400	123
3.03767	120
3.04133	118
3.04500	116
3.04867	115
3.05233	115
3.05600	115
3.05967	116
3.06333	117
3.06700	115
3.07067	113
3.07433	110
3.07800	108
3.08167	106
3.08533	104
3.08900	103
3.09267	103
3.09633	105
3.10000	105
3.10367	105
3.10733	102
3.11100	74
3.11467	28
3.11833	-7
3.12200	-9
3.12567	18
3.12933	64
3.13300	124
3.13667	188
3.14033	254
3.14400	315
3.14767	367
3.15133	413
3.15500	452
3.15867	486
3.16233	516
3.16600	540
3.16967	564
3.17333	584
3.17700	600
3.18067	614
3.18433	623
3.18800	632
3.19167	640
3.19533	648
3.19900	659
3.20267	667
3.20633	673
3.21000	677
3.21367	682
3.21733	687
3.22100	693
3.22467	697
3.22833	701
3.23200	705
3.23567	710
3.23933	716
3.24300	723
3.24667	730
3.25033	736
3.25400	742
3.25767	748
3.26133	752
3.26500	755
3.26867	758
3.27233	762
3.27600	767
3.27967	773
3.28333	780
3.28700	786
3.29067	792
3.29433	797
3.29800	804
3.30167	808
3.30533	810
3.30900	812
3.31267	816
3.31633	819
3.32000	821
3.32367	823
3.32733	827
3.33100	830
3.33467	832
3.33833	835
3.34200	839
3.34567	841
3.34933	842
3.35300	840
3.35667	839
3.36033	837
3.36400	837
3.36767	835
3.37133	832
3.37500	831
3.37867	831
3.38233	828
3.38600	827
3.38967	825
3.39333	821
3.39700	818
3.40067	815
3.40433	812
3.40800	809
3.41167	806
3.41533	802
3.41900	799
3.42267	796
3.42633	795
3.43000	791
3.43367	785
3.43733	781
3.44100	778
3.44467	775
3.44833	773
3.45200	770
3.45567	769
3.45933	767
3.46300	763
3.46667	760
3.47033	758
3.47400	757
3.47767	756
3.48133	755
3.48500	753
3.48867	751
3.49233	749
3.49600	747
3.49967	747
3.50333	748
3.50700	746
3.51067	744
3.51433	745
3.51800	745
3.52167	744
3.52533	743
3.52900	743
3.53267	742
3.53633	740
3.54000	738
3.54367	737
3.54733	736
3.55100	735
3.55467	735
3.55833	735
3.56200	736
3.56567	736
3.56933	734
3.57300	732
3.57667	733
3.58033	735
3.58400	737
3.58767	736
3.59133	736
3.59500	736
3.59867	736
3.60233	736
3.60600	736
3.60967	735
3.61333	731
3.61700	730
3.62067	728
3.62433	726
3.62800	728
3.63167	731
3.63533	732
3.63900	730
3.64267	727
3.64633	723
3.65000	720
3.65367	719
3.65733	717
3.66100	713
3.66467	710
3.66833	710
3.67200	711
3.67567	709
3.67933	707
3.68300	705
3.68667	703
3.69033	704
3.69400	704
3.69767	705
3.70133	704
3.70500	703
3.70867	702
3.71233	699
3.71600	697
3.71967	694
3.72333	691
3.72700	689
3.73067	688
3.73433	686
3.73800	687
3.74167	688
3.74533	688
3.74900	685
3.75267	682
3.75633	677
3.76000	673
3.76367	671
3.76733	669
3.77100	668
3.77467	666
3.77833	666
3.78200	666
3.78567	663
3.78933	661
3.79300	658
3.79667	654
3.80033	648
3.80400	645
3.80767	643
3.81133	642
3.81500	644
3.81867	646
3.82233	646
3.82600	646
3.82967	645
3.83333	641
3.83700	640
3.84067	638
3.84433	637
3.84800	633
3.85167	631
3.85533	630
3.85900	625
3.86267	622
3.86633	623
3.87000	620
3.87367	616
3.87733	613
3.88100	610
3.88467	610
3.88833	611
3.89200	612
3.89567	610
3.89933	609
3.90300	607
3.90667	603
3.91033	602
3.91400	603
3.91767	600
3.92133	599
3.92500	598
3.92867	599
3.93233	599
3.93600	600
3.93967	598
3.94333	596
3.94700	594
3.95067	591
3.95433	590
3.95800	590
3.96167	590
3.96533	589
3.96900	589
3.97267	587
3.97633	585
3.98000	582
3.98367	582
3.98733	579
3.99100	577
3.99467	572
3.99833	567

[Status Trace (Column Oven Temperature)]
Interval(msec)	1000
# of Points	240
Start Time(min)	0.015
End Time(min)	3.998
Intensity Units	
Intensity Multiplier	1
R.Time (min)	Intensity
0.01453	35.04
0.03120	35.04
0.04787	35.04
0.06453	35.04
0.08120	35.03
0.09787	35.03
0.11453	35.02
0.13120	35.01
0.14787	35.00
0.16453	35.00
0.18120	35.00
0.19787	35.02
0.21453	35.02
0.23120	35.03
0.24787	35.03
0.26453	35.03
0.28120	35.02
0.29787	35.01
0.31453	34.99
0.33120	34.99
0.34787	34.99
0.36453	35.00
0.38120	34.99
0.39787	35.00
0.41453	35.01
0.43120	35.02
0.44787	35.03
0.46453	35.05
0.48120	35.06
0.49787	35.06
0.51453	35.06
0.53120	35.04
0.54787	35.04
0.56453	35.02
0.58120	35.01
0.59787	35.00
0.61453	34.99
0.63120	34.99
0.64787	34.99
0.66453	34.99
0.68120	34.99
0.69787	35.00
0.71453	35.01
0.73120	35.02
0.74787	35.03
0.76453	35.02
0.78120	35.02
0.79787	35.01
0.81453	35.00
0.83120	35.00
0.84787	35.00
0.86453	35.01
0.88120	35.01
0.89787	35.01
0.91453	35.01
0.93120	35.01
0.94787	35.01
0.96453	35.00
0.98120	34.99
0.99787	34.98
1.01453	34.99
1.03120	34.99
1.04787	34.98
1.06453	34.97
1.08120	34.97
1.09787	34.97
1.11453	34.95
1.13120	34.95
1.14787	34.97
1.16453	34.99
1.18120	35.00
1.19787	35.01
1.21453	35.01
1.23120	35.00
1.24787	34.99
1.26453	34.98
1.28120	34.98
1.29787	34.97
1.31453	34.96
1.33120	34.97
1.34787	34.97
1.36453	34.97
1.38120	34.98
1.39787	34.99
1.41453	34.99
1.43120	34.99
1.44787	34.98
1.46453	34.97
1.48120	34.97
1.49787	34.96
1.51453	34.97
1.53120	34.98
1.54787	34.98
1.56453	34.99
1.58120	35.02
1.59787	35.04
1.61453	35.12
1.63120	35.26
1.64787	35.47
1.66453	35.75
1.68120	36.10
1.69787	36.47
1.71453	36.81
1.73120	37.15
1.74787	37.47
1.76453	37.80
1.78120	38.14
1.79787	38.46
1.81453	38.80
1.83120	39.13
1.84787	39.47
1.86453	39.78
1.88120	40.11
1.89787	40.46
1.91453	40.76
1.93120	41.08
1.94787	41.42
1.96453	41.75
1.98120	42.08
1.99787	42.40
2.01453	42.74
2.03120	43.07
2.04787	43.39
2.06453	43.72
2.08120	44.01
2.09787	44.36
2.11453	44.69
2.13120	45.01
2.14787	45.33
2.16453	45.68
2.18120	45.98
2.19787	46.32
2.21453	46.65
2.23120	46.99
2.24787	47.33
2.26453	47.64
2.28120	47.97
2.29787	48.29
2.31453	48.63
2.33120	48.94
2.34787	49.26
2.36453	49.52
2.38120	49.64
2.39787	49.65
2.41453	49.66
2.43120	49.66
2.44787	49.66
2.46453	49.69
2.48120	49.70
2.49787	49.69
2.51453	49.71
2.53120	49.74
2.54787	49.75
2.56453	49.76
2.58120	49.78
2.59787	49.80
2.61453	49.81
2.63120	49.81
2.64787	49.83
2.66453	49.83
2.68120	49.85
2.69787	49.87
2.71453	49.86
2.73120	49.84
2.74787	49.85
2.76453	49.87
2.78120	49.86
2.79787	49.84
2.81453	49.86
2.83120	49.89
2.84787	49.91
2.86453	49.93
2.88120	49.93
2.89787	49.94
2.91453	49.94
2.93120	49.93
2.94787	49.93
2.96453	49.93
2.98120	49.93
2.99787	49.94
3.01453	49.95
3.03120	49.96
3.04787	49.97
3.06453	49.98
3.08120	50.00
3.09787	50.02
3.11453	50.04
3.13120	50.05
3.14787	50.05
3.16453	50.06
3.18120	50.07
3.19787	50.07
3.21453	50.07
3.23120	50.08
3.24787	50.08
3.26453	50.08
3.28120	50.08
3.29787	50.09
3.31453	50.10
3.33120	50.09
3.34787	50.08
3.36453	50.08
3.38120	50.08
3.39787	50.08
3.41453	50.09
3.43120	50.09
3.44787	50.09
3.46453	50.10
3.48120	50.09
3.49787	50.08
3.51453	50.09
3.53120	50.08
3.54787	50.08
3.56453	50.08
3.58120	50.06
3.59787	50.06
3.61453	50.06
3.63120	50.06
3.64787	50.06
3.66453	50.06
3.68120	50.07
3.69787	50.07
3.71453	50.08
3.73120	50.08
3.74787	50.08
3.76453	50.08
3.78120	50.08
3.79787	50.07
3.81453	50.07
3.83120	50.07
3.84787	50.08
3.86453	50.07
3.88120	50.07
3.89787	50.07
3.91453	50.09
3.93120	50.10
3.94787	50.10
3.96453	50.11
3.98120	50.11
3.99787	50.10

[Status Trace (Injection Unit Temperature)]
Interval(msec)	1000
# of Points	240
Start Time(min)	0.015
End Time(min)	3.998
Intensity Units	
Intensity Multiplier	1
R.Time (min)	Intensity
0.01453	99.97
0.03120	99.97
0.04787	99.98
0.06453	99.98
0.08120	99.98
0.09787	99.98
0.11453	99.98
0.13120	99.97
0.14787	99.98
0.16453	99.98
0.18120	99.98
0.19787	99.98
0.21453	99.98
0.23120	99.98
0.24787	99.98
0.26453	99.98
0.28120	99.98
0.29787	99.98
0.31453	99.98
0.33120	99.98
0.34787	99.98
0.36453	99.98
0.38120	99.98
0.39787	99.98
0.41453	99.98
0.43120	99.98
0.44787	99.99
0.46453	99.98
0.48120	99.98
0.49787	99.98
0.51453	99.98
0.53120	99.98
0.54787	99.98
0.56453	99.98
0.58120	99.99
0.59787	99.98
0.61453	99.98
0.63120	99.98
0.64787	99.98
0.66453	99.98
0.68120	99.98
0.69787	99.98
0.71453	99.98
0.73120	99.98
0.74787	99.98
0.76453	99.98
0.78120	99.98
0.79787	99.98
0.81453	99.98
0.83120	99.98
0.84787	99.98
0.86453	99.98
0.88120	99.98
0.89787	99.98
0.91453	99.98
0.93120	99.98
0.94787	99.98
0.96453	99.98
0.98120	99.99
0.99787	99.98
1.01453	99.98
1.03120	99.98
1.04787	99.98
1.06453	99.98
1.08120	99.98
1.09787	99.98
1.11453	99.98
1.13120	99.98
1.14787	99.98
1.16453	99.98
1.18120	99.98
1.19787	99.98
1.21453	99.98
1.23120	99.98
1.24787	99.98
1.26453	99.98
1.28120	99.98
1.29787	99.98
1.31453	99.98
1.33120	99.98
1.34787	99.98
1.36453	99.98
1.38120	99.98
1.39787	99.98
1.41453	99.98
1.43120	99.98
1.44787	99.98
1.46453	99.98
1.48120	99.98
1.49787	99.98
1.51453	99.98
1.53120	99.98
1.54787	99.98
1.56453	99.98
1.58120	99.98
1.59787	99.98
1.61453	99.98
1.63120	99.99
1.64787	99.99
1.66453	99.98
1.68120	99.98
1.69787	99.98
1.71453	99.98
1.73120	99.99
1.74787	99.99
1.76453	99.98
1.78120	99.98
1.79787	99.98
1.81453	99.98
1.83120	99.98
1.84787	99.98
1.86453	99.98
1.88120	99.98
1.89787	99.98
1.91453	99.98
1.93120	99.98
1.94787	99.98
1.96453	99.98
1.98120	99.98
1.99787	99.98
2.01453	99.98
2.03120	99.97
2.04787	99.97
2.06453	99.97
2.08120	99.97
2.09787	99.98
2.11453	99.98
2.13120	99.97
2.14787	99.97
2.16453	99.97
2.18120	99.97
2.19787	99.97
2.21453	99.97
2.23120	99.97
2.24787	99.97
2.26453	99.97
2.28120	99.97
2.29787	99.97
2.31453	99.97
2.33120	99.97
2.34787	99.96
2.36453	99.97
2.38120	99.97
2.39787	99.96
2.41453	99.97
2.43120	99.97
2.44787	99.97
2.46453	99.97
2.48120	99.97
2.49787	99.97
2.51453	99.97
2.53120	99.97
2.54787	99.97
2.56453	99.97
2.58120	99.97
2.59787	99.97
2.61453	99.98
2.63120	99.97
2.64787	99.98
2.66453	99.98
2.68120	99.98
2.69787	99.98
2.71453	99.98
2.73120	99.99
2.74787	99.98
2.76453	99.98
2.78120	99.98
2.79787	99.99
2.81453	99.99
2.83120	99.99
2.84787	99.99
2.86453	100.00
2.88120	100.00
2.89787	100.00
2.91453	99.99
2.93120	100.00
2.94787	100.00
2.96453	100.00
2.98120	99.99
2.99787	100.00
3.01453	100.00
3.03120	100.01
3.04787	100.00
3.06453	100.01
3.08120	100.01
3.09787	100.01
3.11453	100.01
3.13120	100.01
3.14787	100.01
3.16453	100.02
3.18120	100.02
3.19787	100.01
3.21453	100.02
3.23120	100.02
3.24787	100.02
3.26453	100.03
3.28120	100.02
3.29787	100.03
3.31453	100.02
3.33120	100.02
3.34787	100.03
3.36453	100.03
3.38120	100.03
3.39787	100.03
3.41453	100.04
3.43120	100.03
3.44787	100.04
3.46453	100.04
3.48120	100.04
3.49787	100.04
3.51453	100.03
3.53120	100.04
3.54787	100.03
3.56453	100.04
3.58120	100.04
3.59787	100.04
3.61453	100.05
3.63120	100.04
3.64787	100.04
3.66453	100.05
3.68120	100.05
3.69787	100.04
3.71453	100.05
3.73120	100.05
3.74787	100.04
3.76453	100.05
3.78120	100.05
3.79787	100.05
3.81453	100.05
3.83120	100.04
3.84787	100.05
3.86453	100.05
3.88120	100.05
3.89787	100.05
3.91453	100.05
3.93120	100.05
3.94787	100.05
3.96453	100.04
3.98120	100.05
3.99787	100.05

[Status Trace (Carrier Gas Pressure)]
Interval(msec)	1000
# of Points	240
Start Time(min)	0.015
End Time(min)	3.998
Intensity Units	
Intensity Multiplier	1
R.Time (min)	Intensity
0.01453	57.25
0.03120	55.49
0.04787	57.98
0.06453	59.86
0.08120	58.70
0.09787	57.98
0.11453	58.00
0.13120	58.01
0.14787	58.01
0.16453	58.00
0.18120	58.00
0.19787	58.00
0.21453	58.00
0.23120	58.00
0.24787	58.00
0.26453	58.00
0.28120	58.00
0.29787	58.00
0.31453	58.00
0.33120	58.00
0.34787	58.00
0.36453	58.00
0.38120	58.00
0.39787	58.00
0.41453	58.00
0.43120	58.00
0.44787	58.00
0.46453	58.00
0.48120	58.00
0.49787	58.00
0.51453	58.00
0.53120	58.00
0.54787	58.00
0.56453	58.00
0.58120	58.00
0.59787	58.00
0.61453	58.00
0.63120	58.00
0.64787	58.00
0.66453	58.00
0.68120	58.00
0.69787	58.00
0.71453	58.00
0.73120	58.00
0.74787	58.00
0.76453	58.00
0.78120	58.00
0.79787	58.00
0.81453	58.00
0.83120	58.00
0.84787	58.00
0.86453	58.00
0.88120	58.00
0.89787	58.00
0.91453	58.00
0.93120	58.00
0.94787	58.00
0.96453	58.00
0.98120	58.00
0.99787	58.00
1.01453	58.00
1.03120	58.00
1.04787	58.00
1.06453	58.00
1.08120	58.00
1.09787	58.00
1.11453	58.00
1.13120	58.00
1.14787	58.00
1.16453	58.00
1.18120	58.00
1.19787	58.00
1.21453	58.00
1.23120	58.00
1.24787	58.00
1.26453	58.00
1.28120	58.00
1.29787	58.00
1.31453	58.00
1.33120	58.00
1.34787	58.00
1.36453	58.00
1.38120	58.00
1.39787	58.00
1.41453	58.00
1.43120	58.00
1.44787	58.00
1.46453	58.00
1.48120	58.00
1.49787	58.00
1.51453	58.00
1.53120	58.00
1.54787	58.00
1.56453	58.00
1.58120	58.00
1.59787	58.00
1.61453	58.00
1.63120	58.01
1.64787	58.00
1.66453	58.00
1.68120	58.01
1.69787	58.00
1.71453	58.00
1.73120	58.00
1.74787	58.00
1.76453	58.00
1.78120	58.00
1.79787	58.00
1.81453	58.00
1.83120	58.00
1.84787	58.00
1.86453	58.00
1.88120	58.00
1.89787	58.00
1.91453	58.00
1.93120	58.00
1.94787	58.00
1.96453	58.00
1.98120	58.00
1.99787	58.00
2.01453	58.00
2.03120	58.00
2.04787	58.00
2.06453	58.00
2.08120	58.00
2.09787	58.00
2.11453	58.00
2.13120	58.00
2.14787	58.00
2.16453	58.00
2.18120	58.00
2.19787	58.00
2.21453	58.00
2.23120	58.00
2.24787	58.00
2.26453	58.00
2.28120	58.00
2.29787	58.00
2.31453	58.00
2.33120	58.00
2.34787	58.00
2.36453	58.00
2.38120	57.99
2.39787	57.99
2.41453	58.00
2.43120	58.00
2.44787	58.00
2.46453	58.00
2.48120	58.00
2.49787	58.00
2.51453	57.99
2.53120	57.99
2.54787	58.00
2.56453	58.00
2.58120	58.00
2.59787	58.00
2.61453	58.00
2.63120	58.00
2.64787	58.00
2.66453	58.00
2.68120	58.00
2.69787	58.00
2.71453	58.00
2.73120	58.00
2.74787	58.00
2.76453	58.00
2.78120	58.00
2.79787	58.00
2.81453	58.00
2.83120	58.00
2.84787	58.00
2.86453	58.00
2.88120	58.00
2.89787	58.00
2.91453	58.00
2.93120	58.00
2.94787	58.00
2.96453	58.00
2.98120	58.00
2.99787	58.00
3.01453	58.00
3.03120	58.00
3.04787	58.00
3.06453	58.00
3.08120	58.00
3.09787	58.00
3.11453	58.00
3.13120	58.00
3.14787	58.00
3.16453	58.00
3.18120	58.00
3.19787	58.00
3.21453	58.00
3.23120	58.00
3.24787	58.00
3.26453	58.00
3.28120	58.00
3.29787	58.00
3.31453	58.00
3.33120	58.00
3.34787	58.00
3.36453	58.00
3.38120	58.00
3.39787	58.00
3.41453	58.00
3.43120	58.00
3.44787	58.00
3.46453	58.00
3.48120	58.00
3.49787	58.00
3.51453	58.00
3.53120	58.00
3.54787	58.00
3.56453	58.00
3.58120	58.00
3.59787	58.00
3.61453	58.00
3.63120	58.00
3.64787	58.00
3.66453	58.00
3.68120	58.00
3.69787	58.00
3.71453	58.00
3.73120	58.00
3.74787	58.00
3.76453	58.00
3.78120	58.00
3.79787	58.00
3.81453	58.00
3.83120	58.00
3.84787	58.00
3.86453	58.00
3.88120	58.00
3.89787	58.00
3.91453	58.00
3.93120	58.00
3.94787	58.00
3.96453	58.00
3.98120	58.00
3.99787	58.00

[Status Trace (Carrier Gas Flow)]
Interval(msec)	1000
# of Points	240
Start Time(min)	0.015
End Time(min)	3.998
Intensity Units	
Intensity Multiplier	1
R.Time (min)	Intensity
0.01453	33.89
0.03120	34.54
0.04787	34.54
0.06453	34.51
0.08120	34.51
0.09787	34.52
0.11453	34.51
0.13120	34.52
0.14787	34.52
0.16453	34.52
0.18120	34.52
0.19787	34.52
0.21453	34.51
0.23120	34.52
0.24787	34.52
0.26453	34.52
0.28120	34.52
0.29787	34.52
0.31453	34.51
0.33120	34.52
0.34787	34.52
0.36453	34.52
0.38120	34.52
0.39787	34.52
0.41453	34.52
0.43120	34.52
0.44787	34.52
0.46453	34.52
0.48120	34.52
0.49787	34.52
0.51453	34.51
0.53120	34.52
0.54787	34.52
0.56453	34.52
0.58120	34.51
0.59787	34.52
0.61453	34.52
0.63120	34.51
0.64787	34.52
0.66453	34.52
0.68120	34.52
0.69787	34.52
0.71453	34.52
0.73120	34.51
0.74787	34.52
0.76453	34.52
0.78120	34.52
0.79787	34.52
0.81453	34.52
0.83120	34.52
0.84787	34.52
0.86453	34.51
0.88120	34.52
0.89787	34.52
0.91453	34.52
0.93120	34.52
0.94787	34.52
0.96453	34.52
0.98120	34.52
0.99787	34.52
1.01453	34.51
1.03120	34.52
1.04787	34.52
1.06453	34.52
1.08120	34.51
1.09787	34.52
1.11453	34.52
1.13120	34.52
1.14787	34.51
1.16453	34.52
1.18120	34.52
1.19787	34.52
1.21453	34.52
1.23120	34.52
1.24787	34.52
1.26453	34.52
1.28120	34.52
1.29787	34.52
1.31453	34.52
1.33120	34.52
1.34787	34.52
1.36453	34.52
1.38120	34.52
1.39787	34.51
1.41453	34.52
1.43120	34.52
1.44787	34.52
1.46453	34.52
1.48120	34.52
1.49787	34.52
1.51453	34.52
1.53120	34.52
1.54787	34.52
1.56453	34.52
1.58120	34.52
1.59787	34.52
1.61453	34.52
1.63120	34.51
1.64787	34.52
1.66453	34.52
1.68120	34.52
1.69787	34.52
1.71453	34.52
1.73120	34.52
1.74787	34.52
1.76453	34.52
1.78120	34.51
1.79787	34.52
1.81453	34.52
1.83120	34.52
1.84787	34.52
1.86453	34.52
1.88120	34.51
1.89787	34.52
1.91453	34.51
1.93120	34.52
1.94787	34.52
1.96453	34.52
1.98120	34.52
1.99787	34.52
2.01453	34.52
2.03120	34.52
2.04787	34.52
2.06453	34.52
2.08120	34.52
2.09787	34.52
2.11453	34.52
2.13120	34.52
2.14787	34.52
2.16453	34.52
2.18120	34.52
2.19787	34.52
2.21453	34.52
2.23120	34.52
2.24787	34.52
2.26453	34.52
2.28120	34.52
2.29787	34.52
2.31453	34.52
2.33120	34.52
2.34787	34.52
2.36453	34.52
2.38120	34.51
2.39787	34.52
2.41453	34.52
2.43120	34.52
2.44787	34.52
2.46453	34.52
2.48120	34.52
2.49787	34.52
2.51453	34.52
2.53120	34.52
2.54787	34.52
2.56453	34.52
2.58120	34.52
2.59787	34.52
2.61453	34.52
2.63120	34.52
2.64787	34.52
2.66453	34.52
2.68120	34.52
2.69787	34.52
2.71453	34.52
2.73120	34.52
2.74787	34.52
2.76453	34.52
2.78120	34.52
2.79787	34.52
2.81453	34.52
2.83120	34.52
2.84787	34.52
2.86453	34.52
2.88120	34.52
2.89787	34.52
2.91453	34.52
2.93120	34.52
2.94787	34.52
2.96453	34.52
2.98120	34.52
2.99787	34.52
3.01453	34.52
3.03120	34.52
3.04787	34.51
3.06453	34.52
3.08120	34.51
3.09787	34.52
3.11453	34.51
3.13120	34.51
3.14787	34.51
3.16453	34.52
3.18120	34.51
3.19787	34.52
3.21453	34.52
3.23120	34.52
3.24787	34.52
3.26453	34.52
3.28120	34.52
3.29787	34.51
3.31453	34.52
3.33120	34.52
3.34787	34.52
3.36453	34.52
3.38120	34.52
3.39787	34.51
3.41453	34.52
3.43120	34.52
3.44787	34.52
3.46453	34.51
3.48120	34.52
3.49787	34.52
3.51453	34.52
3.53120	34.52
3.54787	34.52
3.56453	34.51
3.58120	34.52
3.59787	34.51
3.61453	34.52
3.63120	34.52
3.64787	34.52
3.66453	34.52
3.68120	34.51
3.69787	34.52
3.71453	34.52
3.73120	34.52
3.74787	34.52
3.76453	34.52
3.78120	34.52
3.79787	34.52
3.81453	34.52
3.83120	34.52
3.84787	34.52
3.86453	34.52
3.88120	34.52
3.89787	34.51
3.91453	34.51
3.93120	34.52
3.94787	34.52
3.96453	34.52
3.98120	34.52
3.99787	34.53

[Status Trace (Column Flow)]
Interval(msec)	1000
# of Points	240
Start Time(min)	0.015
End Time(min)	3.998
Intensity Units	
Intensity Multiplier	1
R.Time (min)	Intensity
0.01453	5.46
0.03120	5.26
0.04787	5.55
0.06453	5.77
0.08120	5.63
0.09787	5.55
0.11453	5.55
0.13120	5.55
0.14787	5.55
0.16453	5.55
0.18120	5.55
0.19787	5.55
0.21453	5.55
0.23120	5.55
0.24787	5.55
0.26453	5.55
0.28120	5.55
0.29787	5.55
0.31453	5.55
0.33120	5.55
0.34787	5.55
0.36453	5.55
0.38120	5.55
0.39787	5.55
0.41453	5.55
0.43120	5.55
0.44787	5.55
0.46453	5.55
0.48120	5.55
0.49787	5.55
0.51453	5.55
0.53120	5.55
0.54787	5.55
0.56453	5.55
0.58120	5.55
0.59787	5.55
0.61453	5.55
0.63120	5.55
0.64787	5.55
0.66453	5.55
0.68120	5.55
0.69787	5.55
0.71453	5.55
0.73120	5.55
0.74787	5.55
0.76453	5.55
0.78120	5.55
0.79787	5.55
0.81453	5.55
0.83120	5.55
0.84787	5.55
0.86453	5.55
0.88120	5.55
0.89787	5.55
0.91453	5.55
0.93120	5.55
0.94787	5.55
0.96453	5.55
0.98120	5.55
0.99787	5.55
1.01453	5.55
1.03120	5.55
1.04787	5.55
1.06453	5.55
1.08120	5.55
1.09787	5.55
1.11453	5.55
1.13120	5.55
1.14787	5.55
1.16453	5.55
1.18120	5.55
1.19787	5.55
1.21453	5.55
1.23120	5.55
1.24787	5.55
1.26453	5.55
1.28120	5.55
1.29787	5.55
1.31453	5.55
1.33120	5.55
1.34787	5.55
1.36453	5.55
1.38120	5.55
1.39787	5.55
1.41453	5.55
1.43120	5.55
1.44787	5.55
1.46453	5.55
1.48120	5.55
1.49787	5.55
1.51453	5.55
1.53120	5.55
1.54787	5.55
1.56453	5.55
1.58120	5.55
1.59787	5.55
1.61453	5.55
1.63120	5.54
1.64787	5.54
1.66453	5.53
1.68120	5.52
1.69787	5.51
1.71453	5.50
1.73120	5.48
1.74787	5.47
1.76453	5.46
1.78120	5.45
1.79787	5.44
1.81453	5.43
1.83120	5.42
1.84787	5.41
1.86453	5.40
1.88120	5.39
1.89787	5.38
1.91453	5.37
1.93120	5.36
1.94787	5.35
1.96453	5.34
1.98120	5.33
1.99787	5.32
2.01453	5.31
2.03120	5.30
2.04787	5.30
2.06453	5.29
2.08120	5.28
2.09787	5.27
2.11453	5.26
2.13120	5.25
2.14787	5.24
2.16453	5.23
2.18120	5.22
2.19787	5.21
2.21453	5.20
2.23120	5.19
2.24787	5.18
2.26453	5.17
2.28120	5.17
2.29787	5.15
2.31453	5.14
2.33120	5.14
2.34787	5.13
2.36453	5.12
2.38120	5.12
2.39787	5.12
2.41453	5.12
2.43120	5.12
2.44787	5.12
2.46453	5.12
2.48120	5.11
2.49787	5.11
2.51453	5.11
2.53120	5.11
2.54787	5.11
2.56453	5.11
2.58120	5.11
2.59787	5.11
2.61453	5.11
2.63120	5.11
2.64787	5.11
2.66453	5.11
2.68120	5.11
2.69787	5.11
2.71453	5.11
2.73120	5.11
2.74787	5.11
2.76453	5.11
2.78120	5.11
2.79787	5.11
2.81453	5.11
2.83120	5.11
2.84787	5.11
2.86453	5.11
2.88120	5.11
2.89787	5.11
2.91453	5.11
2.93120	5.11
2.94787	5.11
2.96453	5.11
2.98120	5.11
2.99787	5.11
3.01453	5.11
3.03120	5.11
3.04787	5.11
3.06453	5.11
3.08120	5.11
3.09787	5.11
3.11453	5.11
3.13120	5.11
3.14787	5.11
3.16453	5.11
3.18120	5.10
3.19787	5.10
3.21453	5.10
3.23120	5.10
3.24787	5.10
3.26453	5.10
3.28120	5.10
3.29787	5.10
3.31453	5.10
3.33120	5.10
3.34787	5.10
3.36453	5.10
3.38120	5.10
3.39787	5.10
3.41453	5.10
3.43120	5.10
3.44787	5.10
3.46453	5.10
3.48120	5.10
3.49787	5.10
3.51453	5.10
3.53120	5.10
3.54787	5.10
3.56453	5.10
3.58120	5.11
3.59787	5.11
3.61453	5.10
3.63120	5.11
3.64787	5.11
3.66453	5.10
3.68120	5.10
3.69787	5.10
3.71453	5.10
3.73120	5.10
3.74787	5.10
3.76453	5.10
3.78120	5.10
3.79787	5.10
3.81453	5.10
3.83120	5.10
3.84787	5.10
3.86453	5.10
3.88120	5.10
3.89787	5.10
3.91453	5.10
3.93120	5.10
3.94787	5.10
3.96453	5.10
3.98120	5.10
3.99787	5.10

[Status Trace (Linear Velocity)]
Interval(msec)	1000
# of Points	240
Start Time(min)	0.015
End Time(min)	3.998
Intensity Units	
Intensity Multiplier	1
R.Time (min)	Intensity
0.01453	38.53
0.03120	37.37
0.04787	39.01
0.06453	40.24
0.08120	39.48
0.09787	39.01
0.11453	39.02
0.13120	39.03
0.14787	39.03
0.16453	39.03
0.18120	39.03
0.19787	39.02
0.21453	39.02
0.23120	39.02
0.24787	39.02
0.26453	39.02
0.28120	39.02
0.29787	39.02
0.31453	39.03
0.33120	39.03
0.34787	39.03
0.36453	39.02
0.38120	39.02
0.39787	39.02
0.41453	39.02
0.43120	39.02
0.44787	39.02
0.46453	39.02
0.48120	39.02
0.49787	39.02
0.51453	39.02
0.53120	39.02
0.54787	39.02
0.56453	39.02
0.58120	39.02
0.59787	39.02
0.61453	39.02
0.63120	39.03
0.64787	39.02
0.66453	39.03
0.68120	39.02
0.69787	39.02
0.71453	39.02
0.73120	39.02
0.74787	39.02
0.76453	39.02
0.78120	39.02
0.79787	39.02
0.81453	39.02
0.83120	39.02
0.84787	39.02
0.86453	39.02
0.88120	39.02
0.89787	39.02
0.91453	39.02
0.93120	39.02
0.94787	39.02
0.96453	39.02
0.98120	39.02
0.99787	39.03
1.01453	39.02
1.03120	39.02
1.04787	39.03
1.06453	39.03
1.08120	39.03
1.09787	39.03
1.11453	39.03
1.13120	39.03
1.14787	39.03
1.16453	39.03
1.18120	39.02
1.19787	39.02
1.21453	39.02
1.23120	39.02
1.24787	39.02
1.26453	39.03
1.28120	39.03
1.29787	39.03
1.31453	39.03
1.33120	39.03
1.34787	39.03
1.36453	39.03
1.38120	39.03
1.39787	39.03
1.41453	39.02
1.43120	39.02
1.44787	39.03
1.46453	39.03
1.48120	39.03
1.49787	39.03
1.51453	39.03
1.53120	39.03
1.54787	39.03
1.56453	39.02
1.58120	39.02
1.59787	39.02
1.61453	39.01
1.63120	39.00
1.64787	38.98
1.66453	38.95
1.68120	38.92
1.69787	38.89
1.71453	38.85
1.73120	38.82
1.74787	38.79
1.76453	38.76
1.78120	38.73
1.79787	38.69
1.81453	38.66
1.83120	38.63
1.84787	38.60
1.86453	38.57
1.88120	38.54
1.89787	38.51
1.91453	38.48
1.93120	38.45
1.94787	38.42
1.96453	38.39
1.98120	38.36
1.99787	38.33
2.01453	38.29
2.03120	38.26
2.04787	38.23
2.06453	38.20
2.08120	38.18
2.09787	38.15
2.11453	38.12
2.13120	38.09
2.14787	38.06
2.16453	38.03
2.18120	38.00
2.19787	37.97
2.21453	37.94
2.23120	37.91
2.24787	37.88
2.26453	37.85
2.28120	37.83
2.29787	37.79
2.31453	37.76
2.33120	37.73
2.34787	37.70
2.36453	37.68
2.38120	37.67
2.39787	37.67
2.41453	37.67
2.43120	37.67
2.44787	37.67
2.46453	37.67
2.48120	37.67
2.49787	37.67
2.51453	37.66
2.53120	37.66
2.54787	37.66
2.56453	37.66
2.58120	37.66
2.59787	37.66
2.61453	37.66
2.63120	37.66
2.64787	37.65
2.66453	37.65
2.68120	37.65
2.69787	37.65
2.71453	37.65
2.73120	37.65
2.74787	37.65
2.76453	37.65
2.78120	37.65
2.79787	37.65
2.81453	37.65
2.83120	37.65
2.84787	37.65
2.86453	37.65
2.88120	37.65
2.89787	37.64
2.91453	37.64
2.93120	37.65
2.94787	37.65
2.96453	37.65
2.98120	37.65
2.99787	37.64
3.01453	37.64
3.03120	37.64
3.04787	37.64
3.06453	37.64
3.08120	37.64
3.09787	37.64
3.11453	37.64
3.13120	37.64
3.14787	37.63
3.16453	37.63
3.18120	37.63
3.19787	37.63
3.21453	37.63
3.23120	37.63
3.24787	37.63
3.26453	37.63
3.28120	37.63
3.29787	37.63
3.31453	37.63
3.33120	37.63
3.34787	37.63
3.36453	37.63
3.38120	37.63
3.39787	37.63
3.41453	37.63
3.43120	37.63
3.44787	37.63
3.46453	37.63
3.48120	37.63
3.49787	37.63
3.51453	37.63
3.53120	37.63
3.54787	37.63
3.56453	37.63
3.58120	37.63
3.59787	37.63
3.61453	37.63
3.63120	37.63
3.64787	37.63
3.66453	37.63
3.68120	37.63
3.69787	37.63
3.71453	37.63
3.73120	37.63
3.74787	37.63
3.76453	37.63
3.78120	37.63
3.79787	37.63
3.81453	37.63
3.83120	37.63
3.84787	37.63
3.86453	37.63
3.88120	37.63
3.89787	37.63
3.91453	37.63
3.93120	37.63
3.94787	37.63
3.96453	37.63
3.98120	37.63
3.99787	37.63

