[Header]
Application Name	LabSolutions
Version	5.110
Data File Name	C:\Users\User\Desktop\GC Analyses\Jack\Nachusa Grasslands Sampling\T4 Timepoint July 12th\T4_07122022_083.gcd
Output Date	3/17/2023
Output Time	12:04:56 PM

[File Information]
Type	Data File
Generated	3/15/2023 12:42:45 AM
Generated by	System Administrator
Modified	3/15/2023 12:49:29 AM
Modified by	System Administrator

[Sample Information]
Operator Name	System Administrator
Acquired	3/15/2023 12:45:28 AM
Sample Type	0:Unknown
Level	0
Sample Name	083
Sample ID	083
ISTD Amount1	1
ISTD Amount2	1
ISTD Amount3	1
ISTD Amount4	1
ISTD Amount5	1
ISTD Amount6	1
ISTD Amount7	1
ISTD Amount8	1
ISTD Amount9	1
ISTD Amount10	1
ISTD Amount11	1
ISTD Amount12	1
ISTD Amount13	1
ISTD Amount14	1
ISTD Amount15	1
ISTD Amount16	1
ISTD Amount17	1
ISTD Amount18	1
ISTD Amount19	1
ISTD Amount20	1
ISTD Amount21	1
ISTD Amount22	1
ISTD Amount23	1
ISTD Amount24	1
ISTD Amount25	1
ISTD Amount26	1
ISTD Amount27	1
ISTD Amount28	1
ISTD Amount29	1
ISTD Amount30	1
ISTD Amount31	1
ISTD Amount32	1
Sample Amount	1
Dilution Factor	1
Vial#	82
Injection Volume	1
Injection Count	1
Bar Code	

[Original Files]
Data File	C:\Users\User\Desktop\GC Analyses\Jack\Nachusa Grasslands Sampling\T4 Timepoint July 12th\T4_07122022_083.gcd
Method File	C:\LabSolutions\Data\GHG_4min_2022\ghg3_togas_w_acet_4 min_new_int.gcm
Batch File	C:\LabSolutions\Data\AutoSamplerTesting\T4_07122022.gcb
Report Format File	c:\LabSolutions\System\DEFAULT.lsr

[File Description]


[Configuration]
Instrument Name	C0B7VH3-Instrument1
Instrument #	1
Line #	1
# of Detectors	3
Detector ID	DET#1	DET#2	DET#3
Detector Name	FID	PTCD	ECD
# of Channels	1	1	1

[Peak Table(Ch1)]
# of Peaks	3
Peak#	R.Time	I.Time	F.Time	Area	Height	A/H	Conc.	Mark	ID#	Name	k'	Plate #	Plate Ht.	Tailing	Resolution	Sep.Factor	Area Ratio	Height Ratio	Conc. %	Norm Conc.
1	1.479	1.443	1.505	1030	424	2.431	7.270	   	1	CO	0.000	1911	78.499	0.833	0.000	0.000	0	0	0.783	0.783
2	1.571	1.534	1.626	19615	9953	1.971	379.271	   	2	CH4	0.062	11578	12.955	1.140	0.946	0.000	0	0	40.875	40.875
3	2.000	1.952	2.356	2156970	1030600	2.093	541.341	   	3	CO2	0.352	17456	8.593	1.185	7.213	5.680	0	0	58.342	58.342

[Peak Table(Ch2)]
# of Peaks	0

[Peak Table(Ch3)]
# of Peaks	6
Peak#	R.Time	I.Time	F.Time	Area	Height	A/H	Conc.	Mark	ID#	Name	k'	Plate #	Plate Ht.	Tailing	Resolution	Sep.Factor	Area Ratio	Height Ratio	Conc. %	Norm Conc.
1	2.462	2.345	2.510	2116	737	2.872	0.000	   			0.000	12341	12.155	0.000	0.000	0.000	0	0	0.000	0.000
2	2.532	2.510	2.576	816	314	2.597	0.000	 V 			0.028	9542	15.719	0.000	0.724	0.000	0	0	0.000	0.000
3	2.616	2.576	2.686	575	133	4.321	0.000	 V 			0.063	4959	30.251	0.000	0.669	2.211	0	0	0.000	0.000
4	2.880	2.700	3.067	57822	14662	3.944	1.477	   	1	N2O	0.170	12529	11.972	1.561	2.099	2.714	0	0	100.000	100.000
5	3.159	3.071	3.166	2522	608	4.147	0.000	   	2	SF6	0.283	131	1146.326	0.000	0.462	1.667	0	0	0.000	0.000
6	3.302	3.166	3.995	19286	694	27.774	0.000	 V 	2	SF6	0.341	26	5736.650	0.000	0.078	1.205	0	0	0.000	0.000

[Compound Results(Ch1)]
# of IDs	6
ID#	Name	R.Time	Area	Height	Conc.	Curve	3rd	2nd	1st	Constant	Area Ratio	Height Ratio	Conc. %	Norm Conc.
1	CO	1.479	1030	424	7.270	Linear	0.000000e+00	0.000000e+00	1.416423e+002	0.000000e+00	0	0	0.783	0.783
2	CH4	1.571	19615	9953	379.271	Linear	0.000000e+00	0.000000e+00	5.171738e+001	0.000000e+00	0	0	40.875	40.875
3	CO2	2.000	2156970	1030600	541.341	Linear	0.000000e+00	0.000000e+00	3.984494e+003	0.000000e+00	0	0	58.342	58.342
4	Ethylene	0.000	0	0	0.000	Linear	0.000000e+00	0.000000e+00	0.000000e+00	0.000000e+00	0	0	0.000	0.000
5	Acetylene	0.000	0	0	0.000	Linear	0.000000e+00	0.000000e+00	0.000000e+00	0.000000e+00	0	0	0.000	0.000
6	Ethane	0.000	0	0	0.000	Linear	0.000000e+00	0.000000e+00	0.000000e+00	0.000000e+00	0	0	0.000	0.000

[Compound Results(Ch2)]
# of IDs	5
ID#	Name	R.Time	Area	Height	Conc.	Curve	3rd	2nd	1st	Constant	Area Ratio	Height Ratio	Conc. %	Norm Conc.
1	Hydrogen	0.000	0	0	0.000	Linear	0.000000e+00	0.000000e+00	0.000000e+00	0.000000e+00	0	0	0.000	0.000
2	Oxygen	0.000	0	0	0.000	Linear	0.000000e+00	0.000000e+00	0.000000e+00	0.000000e+00	0	0	0.000	0.000
3	Nitrogen	0.000	0	0	0.000	Linear	0.000000e+00	0.000000e+00	0.000000e+00	0.000000e+00	0	0	0.000	0.000
4	Methane	0.000	0	0	0.000	Linear	0.000000e+00	0.000000e+00	0.000000e+00	0.000000e+00	0	0	0.000	0.000
5	Carbon Monoxide	0.000	0	0	0.000	Linear	0.000000e+00	0.000000e+00	0.000000e+00	0.000000e+00	0	0	0.000	0.000

[Compound Results(Ch3)]
# of IDs	2
ID#	Name	R.Time	Area	Height	Conc.	Curve	3rd	2nd	1st	Constant	Area Ratio	Height Ratio	Conc. %	Norm Conc.
1	N2O	2.880	57822	14662	1.477	Linear	0.000000e+00	0.000000e+00	3.915173e+004	0.000000e+00	0	0	100.000	100.000
2	SF6	3.302	21808	1303	0.000	Linear	0.000000e+00	0.000000e+00	0.000000e+00	0.000000e+00	0	0	0.000	0.000

[Group Results(Ch1)]
# of Groups	0

[Group Results(Ch2)]
# of Groups	0

[Group Results(Ch3)]
# of Groups	0

[Chromatogram (Ch1)]
Interval(msec)	220
# of Points	1091
Start Time(min)	0.002
End Time(min)	3.998
R.Time (min)	Intensity
0.00167	15
0.00533	23
0.00900	27
0.01267	26
0.01633	23
0.02000	19
0.02367	19
0.02733	26
0.03100	31
0.03467	31
0.03833	20
0.04200	9
0.04567	4
0.04933	6
0.05300	10
0.05667	10
0.06033	9
0.06400	11
0.06767	13
0.07133	16
0.07500	17
0.07867	18
0.08233	17
0.08600	29
0.08967	39
0.09333	43
0.09700	36
0.10067	27
0.10433	25
0.10800	27
0.11167	27
0.11533	29
0.11900	38
0.12267	44
0.12633	46
0.13000	43
0.13367	36
0.13733	23
0.14100	36
0.14467	42
0.14833	45
0.15200	49
0.15567	52
0.15933	58
0.16300	64
0.16667	66
0.17033	66
0.17400	69
0.17767	76
0.18133	83
0.18500	88
0.18867	90
0.19233	91
0.19600	88
0.19967	85
0.20333	80
0.20700	81
0.21067	103
0.21433	112
0.21800	115
0.22167	121
0.22533	131
0.22900	132
0.23267	122
0.23633	110
0.24000	105
0.24367	100
0.24733	94
0.25100	95
0.25467	99
0.25833	96
0.26200	98
0.26567	103
0.26933	107
0.27300	108
0.27667	101
0.28033	92
0.28400	90
0.28767	91
0.29133	91
0.29500	86
0.29867	80
0.30233	72
0.30600	60
0.30967	50
0.31333	45
0.31700	44
0.32067	42
0.32433	43
0.32800	49
0.33167	53
0.33533	52
0.33900	46
0.34267	39
0.34633	31
0.35000	29
0.35367	28
0.35733	26
0.36100	24
0.36467	28
0.36833	34
0.37200	40
0.37567	45
0.37933	45
0.38300	42
0.38667	39
0.39033	35
0.39400	29
0.39767	29
0.40133	39
0.40500	61
0.40867	69
0.41233	60
0.41600	42
0.41967	24
0.42333	8
0.42700	-5
0.43067	-12
0.43433	-15
0.43800	-19
0.44167	-24
0.44533	-15
0.44900	-6
0.45267	-2
0.45633	2
0.46000	7
0.46367	13
0.46733	21
0.47100	31
0.47467	34
0.47833	33
0.48200	31
0.48567	30
0.48933	27
0.49300	20
0.49667	10
0.50033	6
0.50400	5
0.50767	2
0.51133	2
0.51500	4
0.51867	7
0.52233	10
0.52600	10
0.52967	7
0.53333	4
0.53700	6
0.54067	7
0.54433	6
0.54800	1
0.55167	2
0.55533	5
0.55900	15
0.56267	29
0.56633	35
0.57000	31
0.57367	25
0.57733	19
0.58100	15
0.58467	16
0.58833	13
0.59200	9
0.59567	8
0.59933	10
0.60300	16
0.60667	15
0.61033	15
0.61400	19
0.61767	24
0.62133	25
0.62500	19
0.62867	11
0.63233	8
0.63600	4
0.63967	-4
0.64333	-8
0.64700	-3
0.65067	8
0.65433	18
0.65800	23
0.66167	23
0.66533	23
0.66900	26
0.67267	25
0.67633	23
0.68000	18
0.68367	16
0.68733	14
0.69100	13
0.69467	12
0.69833	12
0.70200	12
0.70567	13
0.70933	16
0.71300	18
0.71667	16
0.72033	11
0.72400	8
0.72767	6
0.73133	8
0.73500	13
0.73867	16
0.74233	20
0.74600	21
0.74967	24
0.75333	26
0.75700	31
0.76067	32
0.76433	28
0.76800	28
0.77167	35
0.77533	42
0.77900	44
0.78267	44
0.78633	43
0.79000	43
0.79367	48
0.79733	54
0.80100	63
0.80467	77
0.80833	85
0.81200	84
0.81567	77
0.81933	64
0.82300	47
0.82667	31
0.83033	24
0.83400	17
0.83767	17
0.84133	18
0.84500	18
0.84867	17
0.85233	20
0.85600	26
0.85967	33
0.86333	39
0.86700	41
0.87067	42
0.87433	46
0.87800	44
0.88167	46
0.88533	57
0.88900	60
0.89267	53
0.89633	40
0.90000	34
0.90367	32
0.90733	30
0.91100	22
0.91467	14
0.91833	9
0.92200	8
0.92567	15
0.92933	27
0.93300	41
0.93667	48
0.94033	52
0.94400	58
0.94767	57
0.95133	49
0.95500	41
0.95867	33
0.96233	27
0.96600	21
0.96967	18
0.97333	20
0.97700	25
0.98067	33
0.98433	35
0.98800	33
0.99167	26
0.99533	23
0.99900	26
1.00267	33
1.00633	38
1.01000	44
1.01367	46
1.01733	44
1.02100	41
1.02467	36
1.02833	32
1.03200	29
1.03567	19
1.03933	12
1.04300	11
1.04667	16
1.05033	27
1.05400	37
1.05767	41
1.06133	41
1.06500	40
1.06867	37
1.07233	31
1.07600	24
1.07967	8
1.08333	-15
1.08700	-13
1.09067	17
1.09433	31
1.09800	43
1.10167	42
1.10533	33
1.10900	26
1.11267	27
1.11633	33
1.12000	40
1.12367	42
1.12733	40
1.13100	30
1.13467	14
1.13833	4
1.14200	3
1.14567	8
1.14933	12
1.15300	16
1.15667	18
1.16033	19
1.16400	17
1.16767	13
1.17133	8
1.17500	2
1.17867	-4
1.18233	-7
1.18600	-8
1.18967	-6
1.19333	-4
1.19700	-5
1.20067	-6
1.20433	-2
1.20800	4
1.21167	14
1.21533	22
1.21900	28
1.22267	30
1.22633	23
1.23000	17
1.23367	16
1.23733	10
1.24100	7
1.24467	6
1.24833	6
1.25200	7
1.25567	10
1.25933	11
1.26300	17
1.26667	25
1.27033	29
1.27400	27
1.27767	25
1.28133	28
1.28500	27
1.28867	24
1.29233	20
1.29600	17
1.29967	15
1.30333	14
1.30700	19
1.31067	27
1.31433	29
1.31800	28
1.32167	27
1.32533	25
1.32900	25
1.33267	25
1.33633	18
1.34000	15
1.34367	9
1.34733	0
1.35100	-5
1.35467	-5
1.35833	-4
1.36200	-2
1.36567	-2
1.36933	-5
1.37300	-8
1.37667	-8
1.38033	-8
1.38400	-4
1.38767	1
1.39133	2
1.39500	-3
1.39867	-10
1.40233	-13
1.40600	-5
1.40967	-2
1.41333	-2
1.41700	-0
1.42067	2
1.42433	4
1.42800	3
1.43167	1
1.43533	-1
1.43900	8
1.44267	41
1.44633	133
1.45000	244
1.45367	317
1.45733	359
1.46100	386
1.46467	399
1.46833	398
1.47200	400
1.47567	411
1.47933	418
1.48300	397
1.48667	339
1.49033	256
1.49400	165
1.49767	79
1.50133	10
1.50500	-38
1.50867	-72
1.51233	-99
1.51600	-118
1.51967	-128
1.52333	-132
1.52700	-131
1.53067	-127
1.53433	-118
1.53800	-71
1.54167	140
1.54533	827
1.54900	2169
1.55267	4020
1.55633	5982
1.56000	7699
1.56367	8994
1.56733	9762
1.57100	9877
1.57467	9246
1.57833	7973
1.58200	6364
1.58567	4762
1.58933	3394
1.59300	2331
1.59667	1553
1.60033	1009
1.60400	644
1.60767	408
1.61133	253
1.61500	145
1.61867	70
1.62233	20
1.62600	-14
1.62967	-37
1.63333	-51
1.63700	-55
1.64067	-50
1.64433	-47
1.64800	-47
1.65167	-48
1.65533	-48
1.65900	-47
1.66267	-47
1.66633	-48
1.67000	-52
1.67367	-57
1.67733	-62
1.68100	-65
1.68467	-66
1.68833	-68
1.69200	-67
1.69567	-64
1.69933	-60
1.70300	-47
1.70667	-32
1.71033	-28
1.71400	-34
1.71767	-40
1.72133	-40
1.72500	-40
1.72867	-40
1.73233	-45
1.73600	-43
1.73967	-35
1.74333	-24
1.74700	-19
1.75067	-18
1.75433	-15
1.75800	-9
1.76167	-5
1.76533	-11
1.76900	-28
1.77267	-34
1.77633	-30
1.78000	-23
1.78367	-26
1.78733	-31
1.79100	-28
1.79467	-34
1.79833	-40
1.80200	-46
1.80567	-50
1.80933	-52
1.81300	-51
1.81667	-52
1.82033	-57
1.82400	-60
1.82767	-57
1.83133	-51
1.83500	-42
1.83867	-35
1.84233	-30
1.84600	-28
1.84967	-30
1.85333	-30
1.85700	-28
1.86067	-29
1.86433	-27
1.86800	-24
1.87167	-25
1.87533	-26
1.87900	-26
1.88267	-26
1.88633	-26
1.89000	-31
1.89367	-37
1.89733	-39
1.90100	-49
1.90467	-44
1.90833	-27
1.91200	-16
1.91567	-8
1.91933	-6
1.92300	-11
1.92667	-18
1.93033	-28
1.93400	-37
1.93767	-38
1.94133	-39
1.94500	-42
1.94867	-43
1.95233	-27
1.95600	68
1.95967	637
1.96333	3490
1.96700	14406
1.97067	46394
1.97433	118585
1.97800	245331
1.98167	421359
1.98533	619974
1.98900	805348
1.99267	947152
1.99633	1025347
2.00000	1030610
2.00367	966052
2.00733	847333
2.01100	698821
2.01467	545857
2.01833	407669
2.02200	294236
2.02567	207434
2.02933	144252
2.03300	99830
2.03667	69305
2.04033	48611
2.04400	34661
2.04767	25243
2.05133	18849
2.05500	14455
2.05867	11383
2.06233	9193
2.06600	7607
2.06967	6422
2.07333	5518
2.07700	4813
2.08067	4250
2.08433	3792
2.08800	3411
2.09167	3092
2.09533	2822
2.09900	2598
2.10267	2411
2.10633	2243
2.11000	2091
2.11367	1952
2.11733	1827
2.12100	1717
2.12467	1615
2.12833	1527
2.13200	1445
2.13567	1369
2.13933	1297
2.14300	1226
2.14667	1161
2.15033	1104
2.15400	1054
2.15767	1011
2.16133	976
2.16500	945
2.16867	916
2.17233	887
2.17600	860
2.17967	831
2.18333	794
2.18700	764
2.19067	736
2.19433	710
2.19800	687
2.20167	664
2.20533	642
2.20900	626
2.21267	611
2.21633	598
2.22000	586
2.22367	575
2.22733	561
2.23100	547
2.23467	532
2.23833	519
2.24200	511
2.24567	506
2.24933	503
2.25300	497
2.25667	490
2.26033	476
2.26400	460
2.26767	445
2.27133	432
2.27500	423
2.27867	411
2.28233	398
2.28600	387
2.28967	376
2.29333	366
2.29700	360
2.30067	355
2.30433	348
2.30800	343
2.31167	335
2.31533	327
2.31900	318
2.32267	309
2.32633	301
2.33000	296
2.33367	292
2.33733	292
2.34100	295
2.34467	297
2.34833	296
2.35200	292
2.35567	287
2.35933	284
2.36300	283
2.36667	282
2.37033	281
2.37400	283
2.37767	284
2.38133	288
2.38500	285
2.38867	281
2.39233	273
2.39600	266
2.39967	257
2.40333	251
2.40700	249
2.41067	251
2.41433	253
2.41800	251
2.42167	243
2.42533	237
2.42900	230
2.43267	226
2.43633	229
2.44000	234
2.44367	234
2.44733	231
2.45100	225
2.45467	218
2.45833	209
2.46200	196
2.46567	187
2.46933	178
2.47300	173
2.47667	168
2.48033	163
2.48400	163
2.48767	166
2.49133	170
2.49500	175
2.49867	181
2.50233	184
2.50600	182
2.50967	179
2.51333	170
2.51700	169
2.52067	170
2.52433	171
2.52800	172
2.53167	175
2.53533	174
2.53900	172
2.54267	178
2.54633	186
2.55000	192
2.55367	199
2.55733	200
2.56100	187
2.56467	169
2.56833	157
2.57200	152
2.57567	152
2.57933	151
2.58300	154
2.58667	157
2.59033	156
2.59400	153
2.59767	149
2.60133	152
2.60500	155
2.60867	155
2.61233	154
2.61600	157
2.61967	162
2.62333	162
2.62700	161
2.63067	165
2.63433	165
2.63800	162
2.64167	152
2.64533	143
2.64900	143
2.65267	151
2.65633	159
2.66000	161
2.66367	157
2.66733	148
2.67100	146
2.67467	143
2.67833	134
2.68200	131
2.68567	131
2.68933	129
2.69300	126
2.69667	127
2.70033	126
2.70400	121
2.70767	111
2.71133	104
2.71500	104
2.71867	113
2.72233	121
2.72600	127
2.72967	131
2.73333	134
2.73700	137
2.74067	139
2.74433	139
2.74800	135
2.75167	131
2.75533	133
2.75900	138
2.76267	140
2.76633	137
2.77000	127
2.77367	115
2.77733	107
2.78100	100
2.78467	93
2.78833	90
2.79200	93
2.79567	96
2.79933	101
2.80300	102
2.80667	98
2.81033	100
2.81400	103
2.81767	106
2.82133	109
2.82500	110
2.82867	114
2.83233	119
2.83600	118
2.83967	113
2.84333	109
2.84700	107
2.85067	107
2.85433	104
2.85800	111
2.86167	112
2.86533	101
2.86900	88
2.87267	80
2.87633	77
2.88000	78
2.88367	80
2.88733	88
2.89100	99
2.89467	113
2.89833	123
2.90200	123
2.90567	114
2.90933	97
2.91300	83
2.91667	81
2.92033	85
2.92400	91
2.92767	96
2.93133	103
2.93500	108
2.93867	106
2.94233	98
2.94600	89
2.94967	83
2.95333	81
2.95700	81
2.96067	87
2.96433	98
2.96800	110
2.97167	120
2.97533	118
2.97900	114
2.98267	111
2.98633	100
2.99000	102
2.99367	99
2.99733	93
3.00100	89
3.00467	80
3.00833	70
3.01200	67
3.01567	62
3.01933	59
3.02300	59
3.02667	63
3.03033	70
3.03400	79
3.03767	85
3.04133	84
3.04500	84
3.04867	91
3.05233	99
3.05600	106
3.05967	107
3.06333	107
3.06700	104
3.07067	103
3.07433	100
3.07800	89
3.08167	76
3.08533	68
3.08900	68
3.09267	70
3.09633	70
3.10000	67
3.10367	61
3.10733	59
3.11100	76
3.11467	84
3.11833	89
3.12200	91
3.12567	85
3.12933	68
3.13300	53
3.13667	54
3.14033	68
3.14400	67
3.14767	68
3.15133	70
3.15500	74
3.15867	77
3.16233	79
3.16600	73
3.16967	81
3.17333	91
3.17700	92
3.18067	87
3.18433	79
3.18800	74
3.19167	78
3.19533	78
3.19900	74
3.20267	70
3.20633	71
3.21000	76
3.21367	79
3.21733	78
3.22100	76
3.22467	72
3.22833	63
3.23200	52
3.23567	46
3.23933	42
3.24300	42
3.24667	48
3.25033	54
3.25400	56
3.25767	62
3.26133	68
3.26500	70
3.26867	71
3.27233	77
3.27600	84
3.27967	86
3.28333	87
3.28700	89
3.29067	82
3.29433	73
3.29800	74
3.30167	78
3.30533	76
3.30900	71
3.31267	62
3.31633	68
3.32000	82
3.32367	96
3.32733	100
3.33100	90
3.33467	77
3.33833	68
3.34200	64
3.34567	62
3.34933	57
3.35300	50
3.35667	40
3.36033	31
3.36400	36
3.36767	41
3.37133	44
3.37500	44
3.37867	38
3.38233	29
3.38600	21
3.38967	17
3.39333	17
3.39700	21
3.40067	27
3.40433	32
3.40800	38
3.41167	45
3.41533	49
3.41900	50
3.42267	42
3.42633	36
3.43000	34
3.43367	32
3.43733	33
3.44100	37
3.44467	48
3.44833	54
3.45200	59
3.45567	60
3.45933	61
3.46300	58
3.46667	50
3.47033	42
3.47400	39
3.47767	39
3.48133	44
3.48500	54
3.48867	66
3.49233	66
3.49600	61
3.49967	60
3.50333	61
3.50700	58
3.51067	52
3.51433	43
3.51800	36
3.52167	38
3.52533	49
3.52900	57
3.53267	58
3.53633	55
3.54000	49
3.54367	39
3.54733	33
3.55100	33
3.55467	33
3.55833	29
3.56200	23
3.56567	19
3.56933	21
3.57300	27
3.57667	35
3.58033	37
3.58400	40
3.58767	49
3.59133	53
3.59500	52
3.59867	48
3.60233	44
3.60600	39
3.60967	32
3.61333	25
3.61700	16
3.62067	9
3.62433	7
3.62800	9
3.63167	16
3.63533	26
3.63900	31
3.64267	31
3.64633	30
3.65000	28
3.65367	28
3.65733	32
3.66100	32
3.66467	25
3.66833	15
3.67200	8
3.67567	7
3.67933	13
3.68300	16
3.68667	18
3.69033	20
3.69400	18
3.69767	14
3.70133	9
3.70500	6
3.70867	7
3.71233	10
3.71600	6
3.71967	-7
3.72333	-12
3.72700	-9
3.73067	-3
3.73433	5
3.73800	12
3.74167	24
3.74533	32
3.74900	29
3.75267	23
3.75633	18
3.76000	13
3.76367	21
3.76733	22
3.77100	16
3.77467	23
3.77833	26
3.78200	31
3.78567	32
3.78933	26
3.79300	15
3.79667	6
3.80033	4
3.80400	7
3.80767	7
3.81133	8
3.81500	11
3.81867	11
3.82233	12
3.82600	11
3.82967	6
3.83333	4
3.83700	5
3.84067	7
3.84433	4
3.84800	1
3.85167	-0
3.85533	0
3.85900	5
3.86267	3
3.86633	6
3.87000	12
3.87367	14
3.87733	11
3.88100	8
3.88467	4
3.88833	2
3.89200	-3
3.89567	-6
3.89933	-8
3.90300	-7
3.90667	-2
3.91033	6
3.91400	10
3.91767	11
3.92133	9
3.92500	7
3.92867	2
3.93233	-5
3.93600	-10
3.93967	-11
3.94333	-7
3.94700	-3
3.95067	-3
3.95433	-10
3.95800	-17
3.96167	-20
3.96533	-18
3.96900	-19
3.97267	-17
3.97633	-10
3.98000	-4
3.98367	-0
3.98733	-1
3.99100	-4
3.99467	-2
3.99833	-3

[Chromatogram (Ch2)]
Interval(msec)	220
# of Points	1091
Start Time(min)	0.002
End Time(min)	3.998
R.Time (min)	Intensity
0.00167	-2
0.00533	-2
0.00900	-2
0.01267	-2
0.01633	-2
0.02000	-1
0.02367	-1
0.02733	-1
0.03100	0
0.03467	0
0.03833	1
0.04200	1
0.04567	1
0.04933	1
0.05300	1
0.05667	1
0.06033	1
0.06400	1
0.06767	1
0.07133	1
0.07500	0
0.07867	0
0.08233	0
0.08600	-0
0.08967	-0
0.09333	-0
0.09700	-0
0.10067	0
0.10433	0
0.10800	0
0.11167	0
0.11533	-0
0.11900	-0
0.12267	-1
0.12633	-1
0.13000	-1
0.13367	-1
0.13733	-1
0.14100	-1
0.14467	-1
0.14833	-1
0.15200	-1
0.15567	-1
0.15933	-1
0.16300	-1
0.16667	-1
0.17033	-1
0.17400	-1
0.17767	-1
0.18133	-1
0.18500	-1
0.18867	-1
0.19233	-1
0.19600	-1
0.19967	-0
0.20333	-0
0.20700	-0
0.21067	-0
0.21433	-0
0.21800	-0
0.22167	-0
0.22533	-0
0.22900	-0
0.23267	-0
0.23633	-0
0.24000	-0
0.24367	0
0.24733	0
0.25100	0
0.25467	0
0.25833	0
0.26200	-0
0.26567	-0
0.26933	-0
0.27300	-0
0.27667	0
0.28033	0
0.28400	-0
0.28767	-0
0.29133	-0
0.29500	-0
0.29867	-0
0.30233	-0
0.30600	-1
0.30967	-1
0.31333	-1
0.31700	-1
0.32067	-1
0.32433	-1
0.32800	-1
0.33167	-1
0.33533	-2
0.33900	-2
0.34267	-2
0.34633	-2
0.35000	-2
0.35367	-3
0.35733	-3
0.36100	-3
0.36467	-3
0.36833	-3
0.37200	-3
0.37567	-3
0.37933	-3
0.38300	-2
0.38667	-2
0.39033	-2
0.39400	-2
0.39767	-2
0.40133	-1
0.40500	-1
0.40867	-1
0.41233	-1
0.41600	-1
0.41967	-0
0.42333	-0
0.42700	0
0.43067	0
0.43433	1
0.43800	1
0.44167	1
0.44533	0
0.44900	0
0.45267	-0
0.45633	-0
0.46000	-1
0.46367	-1
0.46733	-1
0.47100	-1
0.47467	-2
0.47833	-2
0.48200	-2
0.48567	-2
0.48933	-3
0.49300	-3
0.49667	-3
0.50033	-3
0.50400	-3
0.50767	-3
0.51133	-2
0.51500	-2
0.51867	-2
0.52233	-2
0.52600	-2
0.52967	-2
0.53333	-2
0.53700	-2
0.54067	-2
0.54433	-2
0.54800	-2
0.55167	-3
0.55533	-3
0.55900	-3
0.56267	-3
0.56633	-3
0.57000	-3
0.57367	-3
0.57733	-3
0.58100	-2
0.58467	-2
0.58833	-2
0.59200	-2
0.59567	-2
0.59933	-2
0.60300	-2
0.60667	-2
0.61033	-2
0.61400	-2
0.61767	-2
0.62133	-2
0.62500	-2
0.62867	-2
0.63233	-2
0.63600	-2
0.63967	-3
0.64333	-3
0.64700	-3
0.65067	-3
0.65433	-3
0.65800	-3
0.66167	-3
0.66533	-3
0.66900	-3
0.67267	-3
0.67633	-3
0.68000	-3
0.68367	-3
0.68733	-3
0.69100	-3
0.69467	-4
0.69833	-4
0.70200	-4
0.70567	-4
0.70933	-3
0.71300	-3
0.71667	-3
0.72033	-3
0.72400	-3
0.72767	-3
0.73133	-3
0.73500	-3
0.73867	-3
0.74233	-3
0.74600	-3
0.74967	-3
0.75333	-3
0.75700	-3
0.76067	-3
0.76433	-3
0.76800	-2
0.77167	-2
0.77533	-1
0.77900	-1
0.78267	-1
0.78633	-1
0.79000	-1
0.79367	-1
0.79733	-1
0.80100	-1
0.80467	-1
0.80833	-0
0.81200	-0
0.81567	-0
0.81933	-0
0.82300	-0
0.82667	-0
0.83033	-0
0.83400	-0
0.83767	-0
0.84133	-0
0.84500	0
0.84867	0
0.85233	0
0.85600	0
0.85967	-0
0.86333	-0
0.86700	-0
0.87067	-0
0.87433	-0
0.87800	-1
0.88167	-1
0.88533	-1
0.88900	-1
0.89267	-1
0.89633	-1
0.90000	-1
0.90367	-1
0.90733	-1
0.91100	-1
0.91467	-1
0.91833	-2
0.92200	-2
0.92567	-2
0.92933	-2
0.93300	-2
0.93667	-2
0.94033	-2
0.94400	-3
0.94767	-3
0.95133	-3
0.95500	-3
0.95867	-3
0.96233	-3
0.96600	-3
0.96967	-3
0.97333	-3
0.97700	-3
0.98067	-3
0.98433	-2
0.98800	-2
0.99167	-2
0.99533	-2
0.99900	-2
1.00267	-2
1.00633	-2
1.01000	-3
1.01367	-3
1.01733	-4
1.02100	-4
1.02467	-4
1.02833	-4
1.03200	-4
1.03567	-4
1.03933	-5
1.04300	-5
1.04667	-5
1.05033	-5
1.05400	-5
1.05767	-5
1.06133	-4
1.06500	-4
1.06867	-4
1.07233	-4
1.07600	-4
1.07967	-4
1.08333	-4
1.08700	-4
1.09067	-3
1.09433	-3
1.09800	-3
1.10167	-3
1.10533	-3
1.10900	-4
1.11267	-4
1.11633	-4
1.12000	-4
1.12367	-4
1.12733	-5
1.13100	-5
1.13467	-5
1.13833	-5
1.14200	-5
1.14567	-5
1.14933	-6
1.15300	-6
1.15667	-5
1.16033	-5
1.16400	-5
1.16767	-5
1.17133	-4
1.17500	-4
1.17867	-4
1.18233	-4
1.18600	-4
1.18967	-4
1.19333	-4
1.19700	-4
1.20067	-5
1.20433	-4
1.20800	-4
1.21167	-4
1.21533	-4
1.21900	-4
1.22267	-4
1.22633	-3
1.23000	-3
1.23367	-3
1.23733	-2
1.24100	-2
1.24467	-2
1.24833	-2
1.25200	-2
1.25567	-2
1.25933	-2
1.26300	-2
1.26667	-2
1.27033	-1
1.27400	-1
1.27767	-1
1.28133	-1
1.28500	-0
1.28867	-0
1.29233	0
1.29600	0
1.29967	0
1.30333	1
1.30700	1
1.31067	1
1.31433	1
1.31800	1
1.32167	1
1.32533	1
1.32900	1
1.33267	1
1.33633	1
1.34000	1
1.34367	1
1.34733	1
1.35100	1
1.35467	0
1.35833	0
1.36200	0
1.36567	0
1.36933	-0
1.37300	-0
1.37667	-0
1.38033	0
1.38400	0
1.38767	0
1.39133	0
1.39500	0
1.39867	0
1.40233	-0
1.40600	-0
1.40967	-1
1.41333	-1
1.41700	-2
1.42067	-2
1.42433	-3
1.42800	-3
1.43167	-3
1.43533	-3
1.43900	-3
1.44267	-4
1.44633	-4
1.45000	-5
1.45367	-5
1.45733	-6
1.46100	-7
1.46467	-7
1.46833	-7
1.47200	-7
1.47567	-7
1.47933	-7
1.48300	-7
1.48667	-8
1.49033	-8
1.49400	-8
1.49767	-7
1.50133	-7
1.50500	-7
1.50867	-7
1.51233	-6
1.51600	-6
1.51967	-5
1.52333	-5
1.52700	-5
1.53067	-5
1.53433	-4
1.53800	-4
1.54167	-4
1.54533	-5
1.54900	-4
1.55267	-4
1.55633	-4
1.56000	-3
1.56367	-3
1.56733	-3
1.57100	-2
1.57467	-2
1.57833	-2
1.58200	-2
1.58567	-2
1.58933	-2
1.59300	-2
1.59667	-3
1.60033	-4
1.60400	-5
1.60767	-6
1.61133	-8
1.61500	-10
1.61867	-12
1.62233	-14
1.62600	-17
1.62967	-20
1.63333	-23
1.63700	-26
1.64067	-30
1.64433	-34
1.64800	-38
1.65167	-42
1.65533	-46
1.65900	-50
1.66267	-55
1.66633	-60
1.67000	-65
1.67367	-70
1.67733	-75
1.68100	-80
1.68467	-85
1.68833	-89
1.69200	-93
1.69567	-96
1.69933	-99
1.70300	-101
1.70667	-103
1.71033	-105
1.71400	-106
1.71767	-107
1.72133	-108
1.72500	-108
1.72867	-108
1.73233	-108
1.73600	-108
1.73967	-108
1.74333	-107
1.74700	-107
1.75067	-106
1.75433	-105
1.75800	-105
1.76167	-105
1.76533	-105
1.76900	-106
1.77267	-107
1.77633	-108
1.78000	-110
1.78367	-111
1.78733	-112
1.79100	-113
1.79467	-114
1.79833	-114
1.80200	-114
1.80567	-115
1.80933	-115
1.81300	-116
1.81667	-116
1.82033	-116
1.82400	-117
1.82767	-117
1.83133	-116
1.83500	-116
1.83867	-116
1.84233	-115
1.84600	-115
1.84967	-115
1.85333	-115
1.85700	-115
1.86067	-114
1.86433	-114
1.86800	-114
1.87167	-114
1.87533	-113
1.87900	-113
1.88267	-114
1.88633	-114
1.89000	-114
1.89367	-114
1.89733	-114
1.90100	-114
1.90467	-114
1.90833	-114
1.91200	-114
1.91567	-113
1.91933	-113
1.92300	-112
1.92667	-112
1.93033	-111
1.93400	-111
1.93767	-111
1.94133	-111
1.94500	-112
1.94867	-112
1.95233	-112
1.95600	-113
1.95967	-113
1.96333	-114
1.96700	-114
1.97067	-115
1.97433	-114
1.97800	-114
1.98167	-113
1.98533	-113
1.98900	-112
1.99267	-112
1.99633	-111
2.00000	-111
2.00367	-110
2.00733	-109
2.01100	-108
2.01467	-108
2.01833	-108
2.02200	-109
2.02567	-109
2.02933	-109
2.03300	-109
2.03667	-109
2.04033	-109
2.04400	-108
2.04767	-107
2.05133	-106
2.05500	-105
2.05867	-104
2.06233	-103
2.06600	-103
2.06967	-102
2.07333	-102
2.07700	-102
2.08067	-102
2.08433	-102
2.08800	-102
2.09167	-102
2.09533	-101
2.09900	-101
2.10267	-101
2.10633	-101
2.11000	-101
2.11367	-101
2.11733	-101
2.12100	-100
2.12467	-100
2.12833	-99
2.13200	-98
2.13567	-98
2.13933	-97
2.14300	-97
2.14667	-96
2.15033	-96
2.15400	-96
2.15767	-96
2.16133	-96
2.16500	-96
2.16867	-95
2.17233	-95
2.17600	-95
2.17967	-94
2.18333	-94
2.18700	-93
2.19067	-93
2.19433	-93
2.19800	-92
2.20167	-91
2.20533	-90
2.20900	-90
2.21267	-89
2.21633	-89
2.22000	-89
2.22367	-90
2.22733	-90
2.23100	-90
2.23467	-90
2.23833	-90
2.24200	-90
2.24567	-89
2.24933	-89
2.25300	-89
2.25667	-88
2.26033	-88
2.26400	-88
2.26767	-88
2.27133	-87
2.27500	-87
2.27867	-87
2.28233	-87
2.28600	-87
2.28967	-87
2.29333	-87
2.29700	-86
2.30067	-85
2.30433	-84
2.30800	-83
2.31167	-83
2.31533	-83
2.31900	-82
2.32267	-82
2.32633	-81
2.33000	-81
2.33367	-80
2.33733	-79
2.34100	-78
2.34467	-77
2.34833	-76
2.35200	-74
2.35567	-73
2.35933	-72
2.36300	-70
2.36667	-68
2.37033	-66
2.37400	-64
2.37767	-61
2.38133	-57
2.38500	-54
2.38867	-50
2.39233	-46
2.39600	-42
2.39967	-37
2.40333	-33
2.40700	-29
2.41067	-25
2.41433	-22
2.41800	-19
2.42167	-16
2.42533	-14
2.42900	-12
2.43267	-11
2.43633	-10
2.44000	-9
2.44367	-8
2.44733	-8
2.45100	-7
2.45467	-7
2.45833	-6
2.46200	-5
2.46567	-4
2.46933	-3
2.47300	-2
2.47667	-2
2.48033	-1
2.48400	0
2.48767	1
2.49133	1
2.49500	2
2.49867	2
2.50233	3
2.50600	4
2.50967	4
2.51333	5
2.51700	6
2.52067	7
2.52433	8
2.52800	8
2.53167	9
2.53533	9
2.53900	9
2.54267	10
2.54633	10
2.55000	11
2.55367	12
2.55733	12
2.56100	12
2.56467	12
2.56833	12
2.57200	12
2.57567	11
2.57933	11
2.58300	12
2.58667	12
2.59033	13
2.59400	14
2.59767	15
2.60133	15
2.60500	16
2.60867	16
2.61233	17
2.61600	17
2.61967	18
2.62333	18
2.62700	18
2.63067	18
2.63433	18
2.63800	18
2.64167	18
2.64533	18
2.64900	19
2.65267	19
2.65633	19
2.66000	19
2.66367	19
2.66733	19
2.67100	19
2.67467	19
2.67833	19
2.68200	19
2.68567	19
2.68933	20
2.69300	20
2.69667	20
2.70033	20
2.70400	20
2.70767	21
2.71133	21
2.71500	21
2.71867	21
2.72233	21
2.72600	21
2.72967	21
2.73333	22
2.73700	22
2.74067	23
2.74433	23
2.74800	24
2.75167	24
2.75533	25
2.75900	25
2.76267	25
2.76633	25
2.77000	25
2.77367	24
2.77733	23
2.78100	23
2.78467	22
2.78833	22
2.79200	21
2.79567	21
2.79933	21
2.80300	21
2.80667	21
2.81033	22
2.81400	22
2.81767	23
2.82133	24
2.82500	24
2.82867	25
2.83233	25
2.83600	25
2.83967	25
2.84333	24
2.84700	21
2.85067	17
2.85433	10
2.85800	-0
2.86167	-14
2.86533	-33
2.86900	-56
2.87267	-85
2.87633	-120
2.88000	-160
2.88367	-206
2.88733	-257
2.89100	-313
2.89467	-374
2.89833	-439
2.90200	-509
2.90567	-582
2.90933	-658
2.91300	-737
2.91667	-819
2.92033	-904
2.92400	-990
2.92767	-1079
2.93133	-1169
2.93500	-1261
2.93867	-1354
2.94233	-1441
2.94600	-1510
2.94967	-1548
2.95333	-1551
2.95700	-1517
2.96067	-1453
2.96433	-1366
2.96800	-1264
2.97167	-1153
2.97533	-1041
2.97900	-931
2.98267	-825
2.98633	-727
2.99000	-637
2.99367	-555
2.99733	-481
3.00100	-416
3.00467	-358
3.00833	-308
3.01200	-264
3.01567	-226
3.01933	-193
3.02300	-165
3.02667	-140
3.03033	-119
3.03400	-101
3.03767	-85
3.04133	-72
3.04500	-61
3.04867	-51
3.05233	-43
3.05600	-35
3.05967	-29
3.06333	-24
3.06700	-19
3.07067	-14
3.07433	-11
3.07800	-8
3.08167	-5
3.08533	-3
3.08900	-1
3.09267	1
3.09633	2
3.10000	3
3.10367	4
3.10733	5
3.11100	6
3.11467	7
3.11833	7
3.12200	8
3.12567	9
3.12933	9
3.13300	10
3.13667	11
3.14033	11
3.14400	12
3.14767	12
3.15133	13
3.15500	13
3.15867	14
3.16233	15
3.16600	15
3.16967	16
3.17333	16
3.17700	16
3.18067	16
3.18433	16
3.18800	16
3.19167	16
3.19533	16
3.19900	16
3.20267	16
3.20633	16
3.21000	16
3.21367	16
3.21733	17
3.22100	17
3.22467	17
3.22833	17
3.23200	17
3.23567	17
3.23933	18
3.24300	18
3.24667	18
3.25033	18
3.25400	18
3.25767	18
3.26133	19
3.26500	19
3.26867	20
3.27233	20
3.27600	20
3.27967	21
3.28333	21
3.28700	22
3.29067	22
3.29433	22
3.29800	22
3.30167	22
3.30533	22
3.30900	22
3.31267	23
3.31633	23
3.32000	23
3.32367	24
3.32733	24
3.33100	24
3.33467	24
3.33833	25
3.34200	25
3.34567	25
3.34933	25
3.35300	25
3.35667	26
3.36033	26
3.36400	26
3.36767	26
3.37133	26
3.37500	26
3.37867	26
3.38233	26
3.38600	26
3.38967	26
3.39333	26
3.39700	26
3.40067	26
3.40433	26
3.40800	26
3.41167	26
3.41533	26
3.41900	26
3.42267	26
3.42633	26
3.43000	26
3.43367	26
3.43733	26
3.44100	26
3.44467	26
3.44833	26
3.45200	26
3.45567	26
3.45933	26
3.46300	26
3.46667	25
3.47033	25
3.47400	25
3.47767	25
3.48133	25
3.48500	26
3.48867	26
3.49233	26
3.49600	26
3.49967	26
3.50333	26
3.50700	26
3.51067	26
3.51433	26
3.51800	26
3.52167	26
3.52533	26
3.52900	26
3.53267	27
3.53633	27
3.54000	27
3.54367	27
3.54733	27
3.55100	27
3.55467	27
3.55833	27
3.56200	26
3.56567	26
3.56933	26
3.57300	26
3.57667	26
3.58033	26
3.58400	26
3.58767	25
3.59133	25
3.59500	25
3.59867	25
3.60233	25
3.60600	25
3.60967	25
3.61333	25
3.61700	25
3.62067	25
3.62433	25
3.62800	25
3.63167	25
3.63533	25
3.63900	25
3.64267	24
3.64633	24
3.65000	24
3.65367	24
3.65733	23
3.66100	23
3.66467	23
3.66833	23
3.67200	23
3.67567	23
3.67933	23
3.68300	23
3.68667	23
3.69033	23
3.69400	23
3.69767	23
3.70133	23
3.70500	24
3.70867	24
3.71233	24
3.71600	25
3.71967	25
3.72333	25
3.72700	25
3.73067	25
3.73433	25
3.73800	25
3.74167	25
3.74533	25
3.74900	25
3.75267	25
3.75633	26
3.76000	26
3.76367	26
3.76733	26
3.77100	26
3.77467	26
3.77833	26
3.78200	26
3.78567	26
3.78933	26
3.79300	26
3.79667	25
3.80033	25
3.80400	25
3.80767	25
3.81133	25
3.81500	25
3.81867	25
3.82233	25
3.82600	25
3.82967	24
3.83333	24
3.83700	24
3.84067	23
3.84433	23
3.84800	23
3.85167	23
3.85533	23
3.85900	23
3.86267	23
3.86633	23
3.87000	23
3.87367	23
3.87733	23
3.88100	23
3.88467	24
3.88833	24
3.89200	24
3.89567	24
3.89933	24
3.90300	24
3.90667	24
3.91033	24
3.91400	24
3.91767	24
3.92133	24
3.92500	24
3.92867	24
3.93233	24
3.93600	24
3.93967	24
3.94333	24
3.94700	24
3.95067	24
3.95433	24
3.95800	24
3.96167	24
3.96533	24
3.96900	25
3.97267	25
3.97633	25
3.98000	25
3.98367	26
3.98733	26
3.99100	26
3.99467	26
3.99833	26

[Chromatogram (Ch3)]
Interval(msec)	220
# of Points	1091
Start Time(min)	0.002
End Time(min)	3.998
R.Time (min)	Intensity
0.00167	-1
0.00533	-3
0.00900	-5
0.01267	-6
0.01633	-6
0.02000	-4
0.02367	-1
0.02733	2
0.03100	3
0.03467	3
0.03833	0
0.04200	-3
0.04567	-3
0.04933	-2
0.05300	1
0.05667	3
0.06033	2
0.06400	2
0.06767	-1
0.07133	-4
0.07500	-2
0.07867	1
0.08233	3
0.08600	4
0.08967	5
0.09333	5
0.09700	5
0.10067	3
0.10433	3
0.10800	3
0.11167	3
0.11533	4
0.11900	4
0.12267	7
0.12633	7
0.13000	5
0.13367	3
0.13733	3
0.14100	2
0.14467	2
0.14833	3
0.15200	6
0.15567	10
0.15933	11
0.16300	10
0.16667	10
0.17033	9
0.17400	5
0.17767	3
0.18133	5
0.18500	7
0.18867	9
0.19233	10
0.19600	10
0.19967	10
0.20333	11
0.20700	13
0.21067	14
0.21433	13
0.21800	11
0.22167	9
0.22533	7
0.22900	7
0.23267	7
0.23633	6
0.24000	6
0.24367	5
0.24733	4
0.25100	6
0.25467	6
0.25833	6
0.26200	7
0.26567	7
0.26933	7
0.27300	7
0.27667	8
0.28033	8
0.28400	8
0.28767	6
0.29133	4
0.29500	4
0.29867	7
0.30233	7
0.30600	7
0.30967	7
0.31333	6
0.31700	8
0.32067	7
0.32433	7
0.32800	6
0.33167	6
0.33533	5
0.33900	7
0.34267	8
0.34633	9
0.35000	9
0.35367	11
0.35733	10
0.36100	11
0.36467	12
0.36833	10
0.37200	10
0.37567	9
0.37933	10
0.38300	10
0.38667	11
0.39033	11
0.39400	10
0.39767	8
0.40133	9
0.40500	13
0.40867	14
0.41233	13
0.41600	12
0.41967	11
0.42333	9
0.42700	8
0.43067	5
0.43433	5
0.43800	6
0.44167	9
0.44533	10
0.44900	10
0.45267	9
0.45633	10
0.46000	12
0.46367	13
0.46733	15
0.47100	16
0.47467	16
0.47833	16
0.48200	17
0.48567	18
0.48933	19
0.49300	20
0.49667	20
0.50033	20
0.50400	20
0.50767	19
0.51133	19
0.51500	18
0.51867	17
0.52233	17
0.52600	16
0.52967	17
0.53333	19
0.53700	21
0.54067	22
0.54433	20
0.54800	18
0.55167	19
0.55533	21
0.55900	21
0.56267	20
0.56633	20
0.57000	20
0.57367	19
0.57733	18
0.58100	17
0.58467	16
0.58833	16
0.59200	15
0.59567	15
0.59933	15
0.60300	15
0.60667	14
0.61033	14
0.61400	16
0.61767	16
0.62133	16
0.62500	15
0.62867	14
0.63233	12
0.63600	13
0.63967	14
0.64333	14
0.64700	13
0.65067	12
0.65433	10
0.65800	10
0.66167	10
0.66533	9
0.66900	10
0.67267	9
0.67633	8
0.68000	9
0.68367	10
0.68733	11
0.69100	12
0.69467	11
0.69833	9
0.70200	6
0.70567	6
0.70933	7
0.71300	10
0.71667	10
0.72033	10
0.72400	9
0.72767	9
0.73133	9
0.73500	8
0.73867	7
0.74233	6
0.74600	7
0.74967	7
0.75333	7
0.75700	9
0.76067	11
0.76433	13
0.76800	14
0.77167	16
0.77533	15
0.77900	13
0.78267	11
0.78633	9
0.79000	9
0.79367	9
0.79733	8
0.80100	7
0.80467	6
0.80833	3
0.81200	3
0.81567	3
0.81933	5
0.82300	6
0.82667	5
0.83033	5
0.83400	4
0.83767	4
0.84133	4
0.84500	4
0.84867	4
0.85233	3
0.85600	3
0.85967	6
0.86333	9
0.86700	11
0.87067	10
0.87433	7
0.87800	4
0.88167	5
0.88533	5
0.88900	5
0.89267	4
0.89633	1
0.90000	0
0.90367	1
0.90733	3
0.91100	4
0.91467	3
0.91833	3
0.92200	5
0.92567	7
0.92933	8
0.93300	8
0.93667	7
0.94033	7
0.94400	7
0.94767	7
0.95133	7
0.95500	7
0.95867	7
0.96233	5
0.96600	5
0.96967	8
0.97333	7
0.97700	5
0.98067	5
0.98433	5
0.98800	5
0.99167	7
0.99533	7
0.99900	7
1.00267	7
1.00633	6
1.01000	7
1.01367	8
1.01733	10
1.02100	11
1.02467	10
1.02833	8
1.03200	5
1.03567	1
1.03933	-1
1.04300	-1
1.04667	2
1.05033	4
1.05400	6
1.05767	7
1.06133	7
1.06500	7
1.06867	8
1.07233	9
1.07600	10
1.07967	9
1.08333	8
1.08700	8
1.09067	8
1.09433	8
1.09800	8
1.10167	10
1.10533	11
1.10900	14
1.11267	14
1.11633	13
1.12000	11
1.12367	9
1.12733	8
1.13100	7
1.13467	9
1.13833	11
1.14200	9
1.14567	7
1.14933	6
1.15300	6
1.15667	7
1.16033	6
1.16400	7
1.16767	9
1.17133	10
1.17500	11
1.17867	11
1.18233	11
1.18600	10
1.18967	10
1.19333	9
1.19700	9
1.20067	8
1.20433	6
1.20800	2
1.21167	2
1.21533	3
1.21900	4
1.22267	4
1.22633	6
1.23000	7
1.23367	8
1.23733	10
1.24100	12
1.24467	14
1.24833	15
1.25200	13
1.25567	11
1.25933	9
1.26300	8
1.26667	10
1.27033	11
1.27400	12
1.27767	14
1.28133	13
1.28500	11
1.28867	13
1.29233	14
1.29600	13
1.29967	12
1.30333	11
1.30700	14
1.31067	15
1.31433	14
1.31800	14
1.32167	13
1.32533	12
1.32900	11
1.33267	11
1.33633	12
1.34000	13
1.34367	14
1.34733	13
1.35100	13
1.35467	14
1.35833	13
1.36200	12
1.36567	12
1.36933	12
1.37300	12
1.37667	11
1.38033	13
1.38400	13
1.38767	13
1.39133	11
1.39500	11
1.39867	13
1.40233	15
1.40600	15
1.40967	16
1.41333	17
1.41700	15
1.42067	13
1.42433	13
1.42800	13
1.43167	14
1.43533	14
1.43900	14
1.44267	15
1.44633	16
1.45000	15
1.45367	16
1.45733	16
1.46100	16
1.46467	17
1.46833	17
1.47200	16
1.47567	18
1.47933	20
1.48300	20
1.48667	20
1.49033	19
1.49400	15
1.49767	12
1.50133	14
1.50500	15
1.50867	15
1.51233	15
1.51600	14
1.51967	13
1.52333	12
1.52700	11
1.53067	11
1.53433	12
1.53800	13
1.54167	16
1.54533	18
1.54900	20
1.55267	20
1.55633	18
1.56000	17
1.56367	15
1.56733	11
1.57100	9
1.57467	9
1.57833	12
1.58200	13
1.58567	12
1.58933	13
1.59300	13
1.59667	13
1.60033	12
1.60400	11
1.60767	12
1.61133	14
1.61500	16
1.61867	16
1.62233	16
1.62600	16
1.62967	15
1.63333	15
1.63700	17
1.64067	18
1.64433	18
1.64800	16
1.65167	16
1.65533	16
1.65900	20
1.66267	24
1.66633	25
1.67000	26
1.67367	26
1.67733	27
1.68100	28
1.68467	28
1.68833	29
1.69200	31
1.69567	32
1.69933	32
1.70300	34
1.70667	35
1.71033	35
1.71400	34
1.71767	36
1.72133	37
1.72500	40
1.72867	42
1.73233	42
1.73600	40
1.73967	38
1.74333	37
1.74700	38
1.75067	40
1.75433	43
1.75800	45
1.76167	47
1.76533	47
1.76900	47
1.77267	46
1.77633	45
1.78000	44
1.78367	46
1.78733	50
1.79100	52
1.79467	54
1.79833	56
1.80200	57
1.80567	58
1.80933	60
1.81300	60
1.81667	62
1.82033	62
1.82400	60
1.82767	58
1.83133	59
1.83500	61
1.83867	62
1.84233	60
1.84600	60
1.84967	60
1.85333	60
1.85700	59
1.86067	57
1.86433	58
1.86800	61
1.87167	62
1.87533	64
1.87900	65
1.88267	64
1.88633	63
1.89000	63
1.89367	65
1.89733	66
1.90100	67
1.90467	66
1.90833	66
1.91200	67
1.91567	70
1.91933	71
1.92300	70
1.92667	68
1.93033	69
1.93400	72
1.93767	75
1.94133	75
1.94500	75
1.94867	76
1.95233	80
1.95600	81
1.95967	83
1.96333	84
1.96700	83
1.97067	81
1.97433	82
1.97800	82
1.98167	83
1.98533	85
1.98900	88
1.99267	89
1.99633	89
2.00000	88
2.00367	88
2.00733	88
2.01100	91
2.01467	93
2.01833	93
2.02200	94
2.02567	96
2.02933	99
2.03300	99
2.03667	99
2.04033	99
2.04400	101
2.04767	102
2.05133	103
2.05500	106
2.05867	109
2.06233	111
2.06600	113
2.06967	116
2.07333	117
2.07700	117
2.08067	118
2.08433	118
2.08800	119
2.09167	120
2.09533	123
2.09900	124
2.10267	125
2.10633	127
2.11000	127
2.11367	129
2.11733	131
2.12100	134
2.12467	136
2.12833	138
2.13200	138
2.13567	137
2.13933	137
2.14300	138
2.14667	140
2.15033	144
2.15400	147
2.15767	149
2.16133	151
2.16500	152
2.16867	153
2.17233	156
2.17600	156
2.17967	156
2.18333	156
2.18700	154
2.19067	156
2.19433	160
2.19800	162
2.20167	161
2.20533	161
2.20900	163
2.21267	164
2.21633	167
2.22000	170
2.22367	172
2.22733	170
2.23100	169
2.23467	170
2.23833	172
2.24200	174
2.24567	175
2.24933	176
2.25300	179
2.25667	182
2.26033	183
2.26400	186
2.26767	186
2.27133	189
2.27500	192
2.27867	193
2.28233	194
2.28600	196
2.28967	198
2.29333	201
2.29700	202
2.30067	202
2.30433	201
2.30800	203
2.31167	206
2.31533	208
2.31900	210
2.32267	208
2.32633	207
2.33000	208
2.33367	212
2.33733	215
2.34100	217
2.34467	218
2.34833	220
2.35200	222
2.35567	222
2.35933	222
2.36300	224
2.36667	226
2.37033	227
2.37400	228
2.37767	230
2.38133	229
2.38500	229
2.38867	227
2.39233	225
2.39600	227
2.39967	229
2.40333	233
2.40700	237
2.41067	240
2.41433	245
2.41800	248
2.42167	248
2.42533	249
2.42900	250
2.43267	253
2.43633	252
2.44000	251
2.44367	310
2.44733	473
2.45100	650
2.45467	797
2.45833	880
2.46200	882
2.46567	832
2.46933	767
2.47300	707
2.47667	663
2.48033	630
2.48400	592
2.48767	544
2.49133	492
2.49500	439
2.49867	396
2.50233	363
2.50600	342
2.50967	333
2.51333	337
2.51700	352
2.52067	375
2.52433	399
2.52800	414
2.53167	416
2.53533	402
2.53900	375
2.54267	342
2.54633	306
2.55000	272
2.55367	242
2.55733	217
2.56100	197
2.56467	182
2.56833	172
2.57200	164
2.57567	159
2.57933	157
2.58300	159
2.58667	160
2.59033	161
2.59400	165
2.59767	170
2.60133	175
2.60500	181
2.60867	184
2.61233	183
2.61600	182
2.61967	179
2.62333	175
2.62700	168
2.63067	161
2.63433	153
2.63800	144
2.64167	136
2.64533	129
2.64900	118
2.65267	104
2.65633	89
2.66000	74
2.66367	61
2.66733	50
2.67100	38
2.67467	28
2.67833	19
2.68200	11
2.68567	5
2.68933	0
2.69300	-1
2.69667	-1
2.70033	1
2.70400	4
2.70767	7
2.71133	10
2.71500	11
2.71867	13
2.72233	17
2.72600	20
2.72967	21
2.73333	24
2.73700	27
2.74067	29
2.74433	31
2.74800	34
2.75167	37
2.75533	39
2.75900	40
2.76267	44
2.76633	49
2.77000	55
2.77367	59
2.77733	62
2.78100	66
2.78467	68
2.78833	70
2.79200	74
2.79567	78
2.79933	82
2.80300	87
2.80667	92
2.81033	98
2.81400	107
2.81767	119
2.82133	140
2.82500	191
2.82867	304
2.83233	524
2.83600	912
2.83967	1533
2.84333	2435
2.84700	3632
2.85067	5098
2.85433	6766
2.85800	8537
2.86167	10281
2.86533	11858
2.86900	13144
2.87267	14056
2.87633	14555
2.88000	14646
2.88367	14371
2.88733	13797
2.89100	13004
2.89467	12075
2.89833	11077
2.90200	10060
2.90567	9059
2.90933	8104
2.91300	7213
2.91667	6392
2.92033	5643
2.92400	4969
2.92767	4367
2.93133	3830
2.93500	3355
2.93867	2936
2.94233	2568
2.94600	2242
2.94967	1957
2.95333	1707
2.95700	1488
2.96067	1298
2.96433	1133
2.96800	989
2.97167	863
2.97533	755
2.97900	662
2.98267	582
2.98633	512
2.99000	451
2.99367	399
2.99733	353
3.00100	313
3.00467	279
3.00833	250
3.01200	224
3.01567	201
3.01933	184
3.02300	171
3.02667	157
3.03033	144
3.03400	133
3.03767	127
3.04133	120
3.04500	115
3.04867	109
3.05233	104
3.05600	92
3.05967	54
3.06333	0
3.06700	-34
3.07067	-36
3.07433	-10
3.07800	36
3.08167	95
3.08533	160
3.08900	225
3.09267	285
3.09633	336
3.10000	379
3.10367	419
3.10733	455
3.11100	483
3.11467	505
3.11833	524
3.12200	539
3.12567	551
3.12933	563
3.13300	575
3.13667	586
3.14033	595
3.14400	602
3.14767	608
3.15133	616
3.15500	623
3.15867	627
3.16233	627
3.16600	627
3.16967	629
3.17333	633
3.17700	637
3.18067	641
3.18433	643
3.18800	644
3.19167	647
3.19533	653
3.19900	655
3.20267	659
3.20633	664
3.21000	668
3.21367	672
3.21733	677
3.22100	682
3.22467	689
3.22833	693
3.23200	695
3.23567	699
3.23933	706
3.24300	714
3.24667	722
3.25033	730
3.25400	738
3.25767	745
3.26133	748
3.26500	751
3.26867	756
3.27233	761
3.27600	766
3.27967	772
3.28333	777
3.28700	782
3.29067	787
3.29433	792
3.29800	797
3.30167	801
3.30533	802
3.30900	803
3.31267	804
3.31633	808
3.32000	812
3.32367	812
3.32733	810
3.33100	806
3.33467	804
3.33833	801
3.34200	799
3.34567	800
3.34933	800
3.35300	798
3.35667	795
3.36033	792
3.36400	789
3.36767	784
3.37133	781
3.37500	776
3.37867	772
3.38233	769
3.38600	766
3.38967	764
3.39333	762
3.39700	760
3.40067	756
3.40433	753
3.40800	747
3.41167	741
3.41533	739
3.41900	737
3.42267	733
3.42633	730
3.43000	729
3.43367	727
3.43733	726
3.44100	725
3.44467	724
3.44833	721
3.45200	717
3.45567	714
3.45933	712
3.46300	710
3.46667	710
3.47033	708
3.47400	707
3.47767	707
3.48133	705
3.48500	703
3.48867	702
3.49233	701
3.49600	700
3.49967	698
3.50333	699
3.50700	701
3.51067	698
3.51433	696
3.51800	695
3.52167	695
3.52533	693
3.52900	691
3.53267	689
3.53633	687
3.54000	685
3.54367	686
3.54733	684
3.55100	683
3.55467	682
3.55833	682
3.56200	682
3.56567	681
3.56933	681
3.57300	681
3.57667	682
3.58033	682
3.58400	681
3.58767	680
3.59133	679
3.59500	679
3.59867	679
3.60233	678
3.60600	677
3.60967	677
3.61333	677
3.61700	675
3.62067	676
3.62433	675
3.62800	674
3.63167	673
3.63533	672
3.63900	671
3.64267	670
3.64633	666
3.65000	661
3.65367	657
3.65733	656
3.66100	657
3.66467	656
3.66833	654
3.67200	654
3.67567	652
3.67933	651
3.68300	649
3.68667	647
3.69033	647
3.69400	645
3.69767	643
3.70133	641
3.70500	641
3.70867	639
3.71233	636
3.71600	633
3.71967	631
3.72333	630
3.72700	628
3.73067	626
3.73433	625
3.73800	623
3.74167	619
3.74533	616
3.74900	614
3.75267	611
3.75633	612
3.76000	612
3.76367	609
3.76733	606
3.77100	606
3.77467	607
3.77833	607
3.78200	608
3.78567	607
3.78933	603
3.79300	601
3.79667	599
3.80033	597
3.80400	594
3.80767	592
3.81133	593
3.81500	595
3.81867	597
3.82233	597
3.82600	594
3.82967	591
3.83333	588
3.83700	586
3.84067	586
3.84433	585
3.84800	582
3.85167	579
3.85533	577
3.85900	575
3.86267	574
3.86633	571
3.87000	567
3.87367	566
3.87733	564
3.88100	563
3.88467	563
3.88833	564
3.89200	563
3.89567	559
3.89933	554
3.90300	553
3.90667	551
3.91033	550
3.91400	549
3.91767	549
3.92133	548
3.92500	545
3.92867	544
3.93233	544
3.93600	543
3.93967	540
3.94333	537
3.94700	536
3.95067	536
3.95433	537
3.95800	538
3.96167	536
3.96533	534
3.96900	535
3.97267	536
3.97633	536
3.98000	536
3.98367	535
3.98733	533
3.99100	533
3.99467	532
3.99833	528

[Status Trace (Column Oven Temperature)]
Interval(msec)	1000
# of Points	240
Start Time(min)	0.001
End Time(min)	3.984
Intensity Units	
Intensity Multiplier	1
R.Time (min)	Intensity
0.00097	35.04
0.01763	35.04
0.03430	35.02
0.05097	35.01
0.06763	35.00
0.08430	35.01
0.10097	35.01
0.11763	35.02
0.13430	35.02
0.15097	35.03
0.16763	35.03
0.18430	35.01
0.20097	35.00
0.21763	35.00
0.23430	35.00
0.25097	34.98
0.26763	34.98
0.28430	34.97
0.30097	34.97
0.31763	34.97
0.33430	34.97
0.35097	34.98
0.36763	34.99
0.38430	35.00
0.40097	34.99
0.41763	34.98
0.43430	34.97
0.45097	34.98
0.46763	34.99
0.48430	34.99
0.50097	34.99
0.51763	34.99
0.53430	34.98
0.55097	34.99
0.56763	34.99
0.58430	34.99
0.60097	35.00
0.61763	35.00
0.63430	35.00
0.65097	35.00
0.66763	35.01
0.68430	35.01
0.70097	35.02
0.71763	35.03
0.73430	35.03
0.75097	35.03
0.76763	35.02
0.78430	35.02
0.80097	35.02
0.81763	35.00
0.83430	35.00
0.85097	34.98
0.86763	34.99
0.88430	34.98
0.90097	34.97
0.91763	34.98
0.93430	34.98
0.95097	34.98
0.96763	34.98
0.98430	34.98
1.00097	34.98
1.01763	34.99
1.03430	35.00
1.05097	35.00
1.06763	35.01
1.08430	35.01
1.10097	35.01
1.11763	35.02
1.13430	35.03
1.15097	35.03
1.16763	35.03
1.18430	35.03
1.20097	35.03
1.21763	35.02
1.23430	35.03
1.25097	35.03
1.26763	35.01
1.28430	35.00
1.30097	34.99
1.31763	34.97
1.33430	34.96
1.35097	34.94
1.36763	34.94
1.38430	34.94
1.40097	34.94
1.41763	34.94
1.43430	34.95
1.45097	34.98
1.46763	35.00
1.48430	35.02
1.50097	35.02
1.51763	35.01
1.53430	35.01
1.55097	35.01
1.56763	35.01
1.58430	35.00
1.60097	35.03
1.61763	35.11
1.63430	35.27
1.65097	35.50
1.66763	35.82
1.68430	36.20
1.70097	36.57
1.71763	36.91
1.73430	37.23
1.75097	37.51
1.76763	37.85
1.78430	38.20
1.80097	38.52
1.81763	38.86
1.83430	39.18
1.85097	39.52
1.86763	39.83
1.88430	40.17
1.90097	40.50
1.91763	40.82
1.93430	41.14
1.95097	41.48
1.96763	41.82
1.98430	42.16
2.00097	42.47
2.01763	42.80
2.03430	43.15
2.05097	43.46
2.06763	43.79
2.08430	44.11
2.10097	44.45
2.11763	44.77
2.13430	45.10
2.15097	45.43
2.16763	45.76
2.18430	46.10
2.20097	46.41
2.21763	46.74
2.23430	47.06
2.25097	47.38
2.26763	47.72
2.28430	48.07
2.30097	48.40
2.31763	48.72
2.33430	49.04
2.35097	49.34
2.36763	49.55
2.38430	49.63
2.40097	49.64
2.41763	49.63
2.43430	49.65
2.45097	49.65
2.46763	49.67
2.48430	49.68
2.50097	49.70
2.51763	49.70
2.53430	49.72
2.55097	49.72
2.56763	49.77
2.58430	49.79
2.60097	49.81
2.61763	49.81
2.63430	49.82
2.65097	49.82
2.66763	49.84
2.68430	49.83
2.70097	49.85
2.71763	49.86
2.73430	49.85
2.75097	49.84
2.76763	49.86
2.78430	49.89
2.80097	49.91
2.81763	49.89
2.83430	49.89
2.85097	49.89
2.86763	49.88
2.88430	49.89
2.90097	49.89
2.91763	49.90
2.93430	49.90
2.95097	49.92
2.96763	49.94
2.98430	49.96
3.00097	49.98
3.01763	50.00
3.03430	50.01
3.05097	50.02
3.06763	50.02
3.08430	50.03
3.10097	50.05
3.11763	50.06
3.13430	50.05
3.15097	50.06
3.16763	50.06
3.18430	50.07
3.20097	50.09
3.21763	50.09
3.23430	50.10
3.25097	50.11
3.26763	50.11
3.28430	50.10
3.30097	50.09
3.31763	50.09
3.33430	50.08
3.35097	50.07
3.36763	50.06
3.38430	50.06
3.40097	50.05
3.41763	50.04
3.43430	50.04
3.45097	50.04
3.46763	50.04
3.48430	50.04
3.50097	50.03
3.51763	50.03
3.53430	50.03
3.55097	50.03
3.56763	50.03
3.58430	50.03
3.60097	50.02
3.61763	50.03
3.63430	50.03
3.65097	50.04
3.66763	50.06
3.68430	50.07
3.70097	50.07
3.71763	50.08
3.73430	50.07
3.75097	50.06
3.76763	50.06
3.78430	50.06
3.80097	50.06
3.81763	50.06
3.83430	50.07
3.85097	50.08
3.86763	50.09
3.88430	50.08
3.90097	50.09
3.91763	50.09
3.93430	50.08
3.95097	50.08
3.96763	50.08
3.98430	50.08

[Status Trace (Injection Unit Temperature)]
Interval(msec)	1000
# of Points	240
Start Time(min)	0.001
End Time(min)	3.984
Intensity Units	
Intensity Multiplier	1
R.Time (min)	Intensity
0.00097	99.98
0.01763	99.98
0.03430	99.98
0.05097	99.98
0.06763	99.98
0.08430	99.98
0.10097	99.98
0.11763	99.98
0.13430	99.99
0.15097	99.99
0.16763	99.98
0.18430	99.98
0.20097	99.98
0.21763	99.99
0.23430	99.99
0.25097	99.99
0.26763	99.98
0.28430	99.98
0.30097	99.99
0.31763	99.98
0.33430	99.98
0.35097	99.98
0.36763	99.98
0.38430	99.99
0.40097	99.98
0.41763	99.98
0.43430	99.98
0.45097	99.99
0.46763	99.98
0.48430	99.98
0.50097	99.98
0.51763	99.98
0.53430	99.98
0.55097	99.98
0.56763	99.98
0.58430	99.98
0.60097	99.98
0.61763	99.98
0.63430	99.97
0.65097	99.97
0.66763	99.98
0.68430	99.97
0.70097	99.98
0.71763	99.98
0.73430	99.98
0.75097	99.98
0.76763	99.98
0.78430	99.98
0.80097	99.98
0.81763	99.98
0.83430	99.98
0.85097	99.98
0.86763	99.98
0.88430	99.98
0.90097	99.98
0.91763	99.98
0.93430	99.98
0.95097	99.98
0.96763	99.98
0.98430	99.97
1.00097	99.98
1.01763	99.98
1.03430	99.98
1.05097	99.98
1.06763	99.98
1.08430	99.98
1.10097	99.98
1.11763	99.98
1.13430	99.98
1.15097	99.98
1.16763	99.98
1.18430	99.98
1.20097	99.98
1.21763	99.98
1.23430	99.98
1.25097	99.98
1.26763	99.98
1.28430	99.98
1.30097	99.98
1.31763	99.98
1.33430	99.98
1.35097	99.98
1.36763	99.98
1.38430	99.98
1.40097	99.99
1.41763	99.98
1.43430	99.98
1.45097	99.98
1.46763	99.98
1.48430	99.99
1.50097	99.99
1.51763	99.98
1.53430	99.98
1.55097	99.98
1.56763	99.98
1.58430	99.98
1.60097	99.98
1.61763	99.98
1.63430	99.99
1.65097	99.98
1.66763	99.98
1.68430	99.98
1.70097	99.98
1.71763	99.98
1.73430	99.98
1.75097	99.98
1.76763	99.98
1.78430	99.98
1.80097	99.98
1.81763	99.98
1.83430	99.98
1.85097	99.98
1.86763	99.97
1.88430	99.97
1.90097	99.98
1.91763	99.97
1.93430	99.97
1.95097	99.97
1.96763	99.97
1.98430	99.97
2.00097	99.97
2.01763	99.97
2.03430	99.97
2.05097	99.97
2.06763	99.97
2.08430	99.97
2.10097	99.96
2.11763	99.96
2.13430	99.96
2.15097	99.97
2.16763	99.97
2.18430	99.97
2.20097	99.96
2.21763	99.97
2.23430	99.97
2.25097	99.97
2.26763	99.96
2.28430	99.97
2.30097	99.97
2.31763	99.97
2.33430	99.97
2.35097	99.97
2.36763	99.97
2.38430	99.97
2.40097	99.96
2.41763	99.97
2.43430	99.97
2.45097	99.96
2.46763	99.97
2.48430	99.97
2.50097	99.97
2.51763	99.97
2.53430	99.97
2.55097	99.97
2.56763	99.97
2.58430	99.98
2.60097	99.97
2.61763	99.98
2.63430	99.98
2.65097	99.98
2.66763	99.98
2.68430	99.98
2.70097	99.98
2.71763	99.98
2.73430	99.99
2.75097	99.99
2.76763	99.99
2.78430	99.99
2.80097	99.99
2.81763	99.99
2.83430	99.99
2.85097	99.99
2.86763	99.99
2.88430	99.99
2.90097	100.00
2.91763	100.00
2.93430	100.00
2.95097	100.00
2.96763	100.00
2.98430	100.00
3.00097	100.01
3.01763	100.01
3.03430	100.01
3.05097	100.01
3.06763	100.01
3.08430	100.01
3.10097	100.01
3.11763	100.02
3.13430	100.02
3.15097	100.02
3.16763	100.02
3.18430	100.02
3.20097	100.02
3.21763	100.02
3.23430	100.02
3.25097	100.02
3.26763	100.02
3.28430	100.03
3.30097	100.03
3.31763	100.03
3.33430	100.03
3.35097	100.03
3.36763	100.03
3.38430	100.03
3.40097	100.03
3.41763	100.03
3.43430	100.03
3.45097	100.03
3.46763	100.03
3.48430	100.03
3.50097	100.04
3.51763	100.04
3.53430	100.03
3.55097	100.03
3.56763	100.03
3.58430	100.04
3.60097	100.04
3.61763	100.04
3.63430	100.04
3.65097	100.04
3.66763	100.04
3.68430	100.04
3.70097	100.04
3.71763	100.04
3.73430	100.04
3.75097	100.04
3.76763	100.04
3.78430	100.04
3.80097	100.04
3.81763	100.04
3.83430	100.04
3.85097	100.04
3.86763	100.04
3.88430	100.04
3.90097	100.04
3.91763	100.04
3.93430	100.03
3.95097	100.04
3.96763	100.04
3.98430	100.04

[Status Trace (Carrier Gas Pressure)]
Interval(msec)	1000
# of Points	240
Start Time(min)	0.001
End Time(min)	3.984
Intensity Units	
Intensity Multiplier	1
R.Time (min)	Intensity
0.00097	58.00
0.01763	56.55
0.03430	56.16
0.05097	58.34
0.06763	59.90
0.08430	58.37
0.10097	57.97
0.11763	58.00
0.13430	58.01
0.15097	58.01
0.16763	58.00
0.18430	58.00
0.20097	58.00
0.21763	58.00
0.23430	58.00
0.25097	58.00
0.26763	58.00
0.28430	58.00
0.30097	58.00
0.31763	58.00
0.33430	58.00
0.35097	58.00
0.36763	58.00
0.38430	58.00
0.40097	58.00
0.41763	58.00
0.43430	58.00
0.45097	58.00
0.46763	58.00
0.48430	58.00
0.50097	58.00
0.51763	58.00
0.53430	58.00
0.55097	58.00
0.56763	58.00
0.58430	58.00
0.60097	58.00
0.61763	58.00
0.63430	58.00
0.65097	58.00
0.66763	58.00
0.68430	58.00
0.70097	58.00
0.71763	58.00
0.73430	58.00
0.75097	58.00
0.76763	58.00
0.78430	58.00
0.80097	58.00
0.81763	58.00
0.83430	58.00
0.85097	58.00
0.86763	58.00
0.88430	58.00
0.90097	58.00
0.91763	58.00
0.93430	58.00
0.95097	58.00
0.96763	58.00
0.98430	58.00
1.00097	58.00
1.01763	58.00
1.03430	58.00
1.05097	58.00
1.06763	58.00
1.08430	58.00
1.10097	58.00
1.11763	58.00
1.13430	58.00
1.15097	58.00
1.16763	58.00
1.18430	58.00
1.20097	58.00
1.21763	58.00
1.23430	58.00
1.25097	58.00
1.26763	58.00
1.28430	58.00
1.30097	58.00
1.31763	58.00
1.33430	58.00
1.35097	58.00
1.36763	58.00
1.38430	58.00
1.40097	58.00
1.41763	58.00
1.43430	58.00
1.45097	58.00
1.46763	58.00
1.48430	58.00
1.50097	58.00
1.51763	58.00
1.53430	58.00
1.55097	58.00
1.56763	58.00
1.58430	58.00
1.60097	58.00
1.61763	58.00
1.63430	58.00
1.65097	58.01
1.66763	58.01
1.68430	58.00
1.70097	58.00
1.71763	58.00
1.73430	58.00
1.75097	58.00
1.76763	58.00
1.78430	58.00
1.80097	58.00
1.81763	58.00
1.83430	58.00
1.85097	58.00
1.86763	58.00
1.88430	58.00
1.90097	58.00
1.91763	58.00
1.93430	58.00
1.95097	58.00
1.96763	58.00
1.98430	58.00
2.00097	58.00
2.01763	58.00
2.03430	58.00
2.05097	58.00
2.06763	58.00
2.08430	58.00
2.10097	58.00
2.11763	58.00
2.13430	58.00
2.15097	58.00
2.16763	58.00
2.18430	58.00
2.20097	58.00
2.21763	58.00
2.23430	58.00
2.25097	58.00
2.26763	58.00
2.28430	58.00
2.30097	58.00
2.31763	58.00
2.33430	58.00
2.35097	58.00
2.36763	58.00
2.38430	57.99
2.40097	57.99
2.41763	58.00
2.43430	58.00
2.45097	58.00
2.46763	58.00
2.48430	58.00
2.50097	58.00
2.51763	57.99
2.53430	57.99
2.55097	58.00
2.56763	58.00
2.58430	58.00
2.60097	58.00
2.61763	58.00
2.63430	58.00
2.65097	58.00
2.66763	58.00
2.68430	58.00
2.70097	58.00
2.71763	58.00
2.73430	58.00
2.75097	58.00
2.76763	58.00
2.78430	58.00
2.80097	58.00
2.81763	58.00
2.83430	58.00
2.85097	58.00
2.86763	58.00
2.88430	58.00
2.90097	58.00
2.91763	58.00
2.93430	58.00
2.95097	58.00
2.96763	58.00
2.98430	58.00
3.00097	58.00
3.01763	58.00
3.03430	58.00
3.05097	58.00
3.06763	58.00
3.08430	58.00
3.10097	58.00
3.11763	58.00
3.13430	58.00
3.15097	58.00
3.16763	58.00
3.18430	58.00
3.20097	58.00
3.21763	58.00
3.23430	58.00
3.25097	58.00
3.26763	58.00
3.28430	58.00
3.30097	58.00
3.31763	58.00
3.33430	58.00
3.35097	58.00
3.36763	58.00
3.38430	58.00
3.40097	58.00
3.41763	58.00
3.43430	58.00
3.45097	58.00
3.46763	58.00
3.48430	58.00
3.50097	58.00
3.51763	58.00
3.53430	58.00
3.55097	58.00
3.56763	58.00
3.58430	58.00
3.60097	58.00
3.61763	58.00
3.63430	58.00
3.65097	58.00
3.66763	58.00
3.68430	58.00
3.70097	58.00
3.71763	58.00
3.73430	58.00
3.75097	58.00
3.76763	58.00
3.78430	58.00
3.80097	58.00
3.81763	58.00
3.83430	58.00
3.85097	58.00
3.86763	58.00
3.88430	58.00
3.90097	58.00
3.91763	58.00
3.93430	58.00
3.95097	58.00
3.96763	58.00
3.98430	58.00

[Status Trace (Carrier Gas Flow)]
Interval(msec)	1000
# of Points	240
Start Time(min)	0.001
End Time(min)	3.984
Intensity Units	
Intensity Multiplier	1
R.Time (min)	Intensity
0.00097	34.52
0.01763	34.04
0.03430	34.54
0.05097	34.55
0.06763	34.50
0.08430	34.51
0.10097	34.52
0.11763	34.52
0.13430	34.52
0.15097	34.52
0.16763	34.52
0.18430	34.52
0.20097	34.52
0.21763	34.52
0.23430	34.52
0.25097	34.52
0.26763	34.52
0.28430	34.52
0.30097	34.52
0.31763	34.51
0.33430	34.52
0.35097	34.52
0.36763	34.52
0.38430	34.52
0.40097	34.52
0.41763	34.52
0.43430	34.52
0.45097	34.51
0.46763	34.52
0.48430	34.52
0.50097	34.52
0.51763	34.52
0.53430	34.52
0.55097	34.52
0.56763	34.52
0.58430	34.52
0.60097	34.52
0.61763	34.52
0.63430	34.52
0.65097	34.52
0.66763	34.52
0.68430	34.52
0.70097	34.52
0.71763	34.52
0.73430	34.52
0.75097	34.52
0.76763	34.52
0.78430	34.51
0.80097	34.52
0.81763	34.52
0.83430	34.51
0.85097	34.51
0.86763	34.52
0.88430	34.53
0.90097	34.51
0.91763	34.52
0.93430	34.52
0.95097	34.52
0.96763	34.52
0.98430	34.52
1.00097	34.52
1.01763	34.52
1.03430	34.52
1.05097	34.52
1.06763	34.52
1.08430	34.52
1.10097	34.52
1.11763	34.52
1.13430	34.52
1.15097	34.52
1.16763	34.53
1.18430	34.52
1.20097	34.52
1.21763	34.51
1.23430	34.52
1.25097	34.52
1.26763	34.52
1.28430	34.52
1.30097	34.52
1.31763	34.52
1.33430	34.52
1.35097	34.52
1.36763	34.52
1.38430	34.52
1.40097	34.52
1.41763	34.51
1.43430	34.52
1.45097	34.52
1.46763	34.51
1.48430	34.51
1.50097	34.52
1.51763	34.52
1.53430	34.52
1.55097	34.52
1.56763	34.52
1.58430	34.52
1.60097	34.52
1.61763	34.52
1.63430	34.52
1.65097	34.52
1.66763	34.52
1.68430	34.52
1.70097	34.51
1.71763	34.52
1.73430	34.52
1.75097	34.51
1.76763	34.51
1.78430	34.52
1.80097	34.52
1.81763	34.52
1.83430	34.51
1.85097	34.52
1.86763	34.51
1.88430	34.52
1.90097	34.51
1.91763	34.52
1.93430	34.52
1.95097	34.52
1.96763	34.52
1.98430	34.51
2.00097	34.52
2.01763	34.52
2.03430	34.53
2.05097	34.52
2.06763	34.52
2.08430	34.52
2.10097	34.51
2.11763	34.52
2.13430	34.52
2.15097	34.52
2.16763	34.52
2.18430	34.51
2.20097	34.52
2.21763	34.52
2.23430	34.52
2.25097	34.52
2.26763	34.52
2.28430	34.52
2.30097	34.52
2.31763	34.52
2.33430	34.52
2.35097	34.52
2.36763	34.52
2.38430	34.53
2.40097	34.51
2.41763	34.52
2.43430	34.53
2.45097	34.52
2.46763	34.51
2.48430	34.52
2.50097	34.52
2.51763	34.52
2.53430	34.52
2.55097	34.52
2.56763	34.52
2.58430	34.52
2.60097	34.52
2.61763	34.52
2.63430	34.52
2.65097	34.52
2.66763	34.52
2.68430	34.51
2.70097	34.52
2.71763	34.52
2.73430	34.52
2.75097	34.52
2.76763	34.52
2.78430	34.52
2.80097	34.52
2.81763	34.52
2.83430	34.52
2.85097	34.52
2.86763	34.52
2.88430	34.52
2.90097	34.52
2.91763	34.52
2.93430	34.52
2.95097	34.51
2.96763	34.52
2.98430	34.52
3.00097	34.52
3.01763	34.52
3.03430	34.52
3.05097	34.52
3.06763	34.52
3.08430	34.52
3.10097	34.52
3.11763	34.52
3.13430	34.52
3.15097	34.52
3.16763	34.52
3.18430	34.52
3.20097	34.52
3.21763	34.51
3.23430	34.52
3.25097	34.52
3.26763	34.52
3.28430	34.52
3.30097	34.52
3.31763	34.52
3.33430	34.52
3.35097	34.52
3.36763	34.52
3.38430	34.52
3.40097	34.52
3.41763	34.52
3.43430	34.52
3.45097	34.52
3.46763	34.52
3.48430	34.52
3.50097	34.52
3.51763	34.52
3.53430	34.52
3.55097	34.52
3.56763	34.52
3.58430	34.51
3.60097	34.52
3.61763	34.52
3.63430	34.51
3.65097	34.52
3.66763	34.52
3.68430	34.53
3.70097	34.52
3.71763	34.52
3.73430	34.52
3.75097	34.52
3.76763	34.51
3.78430	34.52
3.80097	34.52
3.81763	34.52
3.83430	34.51
3.85097	34.52
3.86763	34.52
3.88430	34.52
3.90097	34.52
3.91763	34.51
3.93430	34.52
3.95097	34.52
3.96763	34.51
3.98430	34.52

[Status Trace (Column Flow)]
Interval(msec)	1000
# of Points	240
Start Time(min)	0.001
End Time(min)	3.984
Intensity Units	
Intensity Multiplier	1
R.Time (min)	Intensity
0.00097	5.55
0.01763	5.38
0.03430	5.33
0.05097	5.59
0.06763	5.77
0.08430	5.59
0.10097	5.55
0.11763	5.55
0.13430	5.55
0.15097	5.55
0.16763	5.55
0.18430	5.55
0.20097	5.55
0.21763	5.55
0.23430	5.55
0.25097	5.55
0.26763	5.55
0.28430	5.55
0.30097	5.55
0.31763	5.55
0.33430	5.55
0.35097	5.55
0.36763	5.55
0.38430	5.55
0.40097	5.55
0.41763	5.55
0.43430	5.55
0.45097	5.55
0.46763	5.55
0.48430	5.55
0.50097	5.55
0.51763	5.55
0.53430	5.55
0.55097	5.55
0.56763	5.55
0.58430	5.55
0.60097	5.55
0.61763	5.55
0.63430	5.55
0.65097	5.55
0.66763	5.55
0.68430	5.55
0.70097	5.55
0.71763	5.55
0.73430	5.55
0.75097	5.55
0.76763	5.55
0.78430	5.55
0.80097	5.55
0.81763	5.55
0.83430	5.55
0.85097	5.55
0.86763	5.55
0.88430	5.55
0.90097	5.55
0.91763	5.55
0.93430	5.55
0.95097	5.55
0.96763	5.55
0.98430	5.55
1.00097	5.55
1.01763	5.55
1.03430	5.55
1.05097	5.55
1.06763	5.55
1.08430	5.55
1.10097	5.55
1.11763	5.55
1.13430	5.55
1.15097	5.55
1.16763	5.55
1.18430	5.55
1.20097	5.55
1.21763	5.55
1.23430	5.55
1.25097	5.55
1.26763	5.55
1.28430	5.55
1.30097	5.55
1.31763	5.55
1.33430	5.55
1.35097	5.55
1.36763	5.55
1.38430	5.55
1.40097	5.55
1.41763	5.55
1.43430	5.55
1.45097	5.55
1.46763	5.55
1.48430	5.55
1.50097	5.55
1.51763	5.55
1.53430	5.55
1.55097	5.55
1.56763	5.55
1.58430	5.55
1.60097	5.55
1.61763	5.55
1.63430	5.54
1.65097	5.53
1.66763	5.52
1.68430	5.51
1.70097	5.50
1.71763	5.49
1.73430	5.48
1.75097	5.47
1.76763	5.46
1.78430	5.45
1.80097	5.44
1.81763	5.43
1.83430	5.42
1.85097	5.41
1.86763	5.40
1.88430	5.39
1.90097	5.38
1.91763	5.37
1.93430	5.36
1.95097	5.35
1.96763	5.34
1.98430	5.33
2.00097	5.32
2.01763	5.31
2.03430	5.30
2.05097	5.29
2.06763	5.28
2.08430	5.27
2.10097	5.26
2.11763	5.25
2.13430	5.24
2.15097	5.23
2.16763	5.22
2.18430	5.21
2.20097	5.21
2.21763	5.20
2.23430	5.19
2.25097	5.18
2.26763	5.17
2.28430	5.16
2.30097	5.15
2.31763	5.14
2.33430	5.13
2.35097	5.12
2.36763	5.12
2.38430	5.11
2.40097	5.11
2.41763	5.11
2.43430	5.11
2.45097	5.11
2.46763	5.11
2.48430	5.11
2.50097	5.11
2.51763	5.11
2.53430	5.11
2.55097	5.11
2.56763	5.11
2.58430	5.11
2.60097	5.11
2.61763	5.11
2.63430	5.11
2.65097	5.11
2.66763	5.11
2.68430	5.11
2.70097	5.11
2.71763	5.11
2.73430	5.11
2.75097	5.11
2.76763	5.11
2.78430	5.11
2.80097	5.11
2.81763	5.11
2.83430	5.11
2.85097	5.11
2.86763	5.11
2.88430	5.11
2.90097	5.11
2.91763	5.11
2.93430	5.11
2.95097	5.11
2.96763	5.11
2.98430	5.11
3.00097	5.10
3.01763	5.10
3.03430	5.10
3.05097	5.10
3.06763	5.10
3.08430	5.10
3.10097	5.10
3.11763	5.10
3.13430	5.10
3.15097	5.10
3.16763	5.10
3.18430	5.10
3.20097	5.10
3.21763	5.10
3.23430	5.10
3.25097	5.10
3.26763	5.10
3.28430	5.10
3.30097	5.10
3.31763	5.10
3.33430	5.10
3.35097	5.10
3.36763	5.10
3.38430	5.10
3.40097	5.10
3.41763	5.10
3.43430	5.10
3.45097	5.10
3.46763	5.10
3.48430	5.10
3.50097	5.10
3.51763	5.10
3.53430	5.10
3.55097	5.10
3.56763	5.10
3.58430	5.10
3.60097	5.10
3.61763	5.10
3.63430	5.10
3.65097	5.10
3.66763	5.10
3.68430	5.10
3.70097	5.10
3.71763	5.10
3.73430	5.10
3.75097	5.10
3.76763	5.10
3.78430	5.10
3.80097	5.10
3.81763	5.10
3.83430	5.10
3.85097	5.10
3.86763	5.10
3.88430	5.10
3.90097	5.10
3.91763	5.10
3.93430	5.10
3.95097	5.10
3.96763	5.10
3.98430	5.10

[Status Trace (Linear Velocity)]
Interval(msec)	1000
# of Points	240
Start Time(min)	0.001
End Time(min)	3.984
Intensity Units	
Intensity Multiplier	1
R.Time (min)	Intensity
0.00097	39.02
0.01763	38.07
0.03430	37.81
0.05097	39.25
0.06763	40.27
0.08430	39.27
0.10097	39.00
0.11763	39.02
0.13430	39.03
0.15097	39.02
0.16763	39.02
0.18430	39.02
0.20097	39.02
0.21763	39.02
0.23430	39.02
0.25097	39.03
0.26763	39.03
0.28430	39.03
0.30097	39.03
0.31763	39.03
0.33430	39.03
0.35097	39.03
0.36763	39.02
0.38430	39.02
0.40097	39.02
0.41763	39.02
0.43430	39.03
0.45097	39.03
0.46763	39.02
0.48430	39.02
0.50097	39.02
0.51763	39.02
0.53430	39.02
0.55097	39.02
0.56763	39.02
0.58430	39.02
0.60097	39.02
0.61763	39.02
0.63430	39.02
0.65097	39.02
0.66763	39.02
0.68430	39.02
0.70097	39.02
0.71763	39.02
0.73430	39.02
0.75097	39.02
0.76763	39.02
0.78430	39.02
0.80097	39.02
0.81763	39.02
0.83430	39.02
0.85097	39.02
0.86763	39.03
0.88430	39.03
0.90097	39.03
0.91763	39.03
0.93430	39.03
0.95097	39.03
0.96763	39.02
0.98430	39.02
1.00097	39.03
1.01763	39.02
1.03430	39.02
1.05097	39.02
1.06763	39.02
1.08430	39.02
1.10097	39.02
1.11763	39.02
1.13430	39.02
1.15097	39.02
1.16763	39.02
1.18430	39.02
1.20097	39.02
1.21763	39.02
1.23430	39.02
1.25097	39.02
1.26763	39.02
1.28430	39.02
1.30097	39.02
1.31763	39.03
1.33430	39.03
1.35097	39.03
1.36763	39.03
1.38430	39.03
1.40097	39.03
1.41763	39.03
1.43430	39.03
1.45097	39.03
1.46763	39.02
1.48430	39.02
1.50097	39.02
1.51763	39.02
1.53430	39.02
1.55097	39.02
1.56763	39.02
1.58430	39.02
1.60097	39.02
1.61763	39.02
1.63430	39.00
1.65097	38.98
1.66763	38.95
1.68430	38.91
1.70097	38.87
1.71763	38.84
1.73430	38.81
1.75097	38.78
1.76763	38.75
1.78430	38.72
1.80097	38.69
1.81763	38.66
1.83430	38.63
1.85097	38.59
1.86763	38.56
1.88430	38.53
1.90097	38.50
1.91763	38.47
1.93430	38.44
1.95097	38.41
1.96763	38.38
1.98430	38.35
2.00097	38.32
2.01763	38.29
2.03430	38.26
2.05097	38.23
2.06763	38.20
2.08430	38.17
2.10097	38.14
2.11763	38.11
2.13430	38.08
2.15097	38.05
2.16763	38.02
2.18430	37.99
2.20097	37.96
2.21763	37.93
2.23430	37.90
2.25097	37.87
2.26763	37.84
2.28430	37.81
2.30097	37.78
2.31763	37.75
2.33430	37.72
2.35097	37.70
2.36763	37.68
2.38430	37.67
2.40097	37.67
2.41763	37.67
2.43430	37.67
2.45097	37.67
2.46763	37.67
2.48430	37.67
2.50097	37.67
2.51763	37.66
2.53430	37.66
2.55097	37.66
2.56763	37.66
2.58430	37.66
2.60097	37.65
2.61763	37.66
2.63430	37.65
2.65097	37.65
2.66763	37.65
2.68430	37.65
2.70097	37.65
2.71763	37.65
2.73430	37.65
2.75097	37.65
2.76763	37.65
2.78430	37.65
2.80097	37.65
2.81763	37.65
2.83430	37.65
2.85097	37.65
2.86763	37.65
2.88430	37.65
2.90097	37.65
2.91763	37.65
2.93430	37.65
2.95097	37.65
2.96763	37.64
2.98430	37.64
3.00097	37.64
3.01763	37.64
3.03430	37.64
3.05097	37.64
3.06763	37.64
3.08430	37.64
3.10097	37.63
3.11763	37.63
3.13430	37.63
3.15097	37.63
3.16763	37.63
3.18430	37.63
3.20097	37.63
3.21763	37.63
3.23430	37.63
3.25097	37.63
3.26763	37.63
3.28430	37.63
3.30097	37.63
3.31763	37.63
3.33430	37.63
3.35097	37.63
3.36763	37.63
3.38430	37.63
3.40097	37.63
3.41763	37.64
3.43430	37.64
3.45097	37.64
3.46763	37.64
3.48430	37.64
3.50097	37.64
3.51763	37.64
3.53430	37.64
3.55097	37.64
3.56763	37.64
3.58430	37.64
3.60097	37.64
3.61763	37.64
3.63430	37.64
3.65097	37.64
3.66763	37.63
3.68430	37.63
3.70097	37.63
3.71763	37.63
3.73430	37.63
3.75097	37.63
3.76763	37.63
3.78430	37.63
3.80097	37.63
3.81763	37.63
3.83430	37.63
3.85097	37.63
3.86763	37.63
3.88430	37.63
3.90097	37.63
3.91763	37.63
3.93430	37.63
3.95097	37.63
3.96763	37.63
3.98430	37.63

