[Header]
Application Name	LabSolutions
Version	5.110
Data File Name	C:\Users\User\Desktop\GC Analyses\Jack\Nachusa Grasslands Sampling\T4 Timepoint July 12th\T4_07122022_061.gcd
Output Date	3/17/2023
Output Time	12:04:54 PM

[File Information]
Type	Data File
Generated	3/14/2023 10:12:11 PM
Generated by	System Administrator
Modified	3/14/2023 10:18:57 PM
Modified by	System Administrator

[Sample Information]
Operator Name	System Administrator
Acquired	3/14/2023 10:14:56 PM
Sample Type	0:Unknown
Level	0
Sample Name	061
Sample ID	061
ISTD Amount1	1
ISTD Amount2	1
ISTD Amount3	1
ISTD Amount4	1
ISTD Amount5	1
ISTD Amount6	1
ISTD Amount7	1
ISTD Amount8	1
ISTD Amount9	1
ISTD Amount10	1
ISTD Amount11	1
ISTD Amount12	1
ISTD Amount13	1
ISTD Amount14	1
ISTD Amount15	1
ISTD Amount16	1
ISTD Amount17	1
ISTD Amount18	1
ISTD Amount19	1
ISTD Amount20	1
ISTD Amount21	1
ISTD Amount22	1
ISTD Amount23	1
ISTD Amount24	1
ISTD Amount25	1
ISTD Amount26	1
ISTD Amount27	1
ISTD Amount28	1
ISTD Amount29	1
ISTD Amount30	1
ISTD Amount31	1
ISTD Amount32	1
Sample Amount	1
Dilution Factor	1
Vial#	60
Injection Volume	1
Injection Count	1
Bar Code	

[Original Files]
Data File	C:\Users\User\Desktop\GC Analyses\Jack\Nachusa Grasslands Sampling\T4 Timepoint July 12th\T4_07122022_061.gcd
Method File	C:\LabSolutions\Data\GHG_4min_2022\ghg3_togas_w_acet_4 min_new_int.gcm
Batch File	C:\LabSolutions\Data\AutoSamplerTesting\T4_07122022.gcb
Report Format File	c:\LabSolutions\System\DEFAULT.lsr

[File Description]


[Configuration]
Instrument Name	C0B7VH3-Instrument1
Instrument #	1
Line #	1
# of Detectors	3
Detector ID	DET#1	DET#2	DET#3
Detector Name	FID	PTCD	ECD
# of Channels	1	1	1

[Peak Table(Ch1)]
# of Peaks	3
Peak#	R.Time	I.Time	F.Time	Area	Height	A/H	Conc.	Mark	ID#	Name	k'	Plate #	Plate Ht.	Tailing	Resolution	Sep.Factor	Area Ratio	Height Ratio	Conc. %	Norm Conc.
1	1.476	1.432	1.538	26153	12883	2.030	184.644	   	1	CO	0.000	9705	15.456	1.296	0.000	0.000	0	0	13.694	13.694
2	1.571	1.538	1.619	3919	2029	1.931	75.783	   	2	CH4	0.065	11923	12.581	1.134	1.623	0.000	0	0	5.620	5.620
3	1.996	1.941	2.491	4334796	2076204	2.088	1087.916	   	3	CO2	0.353	17193	8.724	1.319	7.182	5.462	0	0	80.685	80.685

[Peak Table(Ch2)]
# of Peaks	0

[Peak Table(Ch3)]
# of Peaks	5
Peak#	R.Time	I.Time	F.Time	Area	Height	A/H	Conc.	Mark	ID#	Name	k'	Plate #	Plate Ht.	Tailing	Resolution	Sep.Factor	Area Ratio	Height Ratio	Conc. %	Norm Conc.
1	2.462	2.326	2.510	2355	729	3.231	0.000	   			0.000	9602	15.622	0.000	0.000	0.000	0	0	0.000	0.000
2	2.532	2.510	2.583	1283	412	3.112	0.000	 V 			0.028	5631	26.638	0.000	0.592	0.000	0	0	0.000	0.000
3	2.598	2.583	2.678	641	190	3.368	0.000	 V 			0.055	1277	117.474	0.000	0.310	1.947	0	0	0.000	0.000
4	2.880	2.708	3.115	18716	4738	3.950	0.478	   	1	N2O	0.170	12920	11.610	1.515	1.440	3.081	0	0	100.000	100.000
5	3.346	3.151	3.995	16564	579	28.597	0.000	   	2	SF6	0.359	242	619.469	2.145	0.969	2.114	0	0	0.000	0.000

[Compound Results(Ch1)]
# of IDs	6
ID#	Name	R.Time	Area	Height	Conc.	Curve	3rd	2nd	1st	Constant	Area Ratio	Height Ratio	Conc. %	Norm Conc.
1	CO	1.476	26153	12883	184.644	Linear	0.000000e+00	0.000000e+00	1.416423e+002	0.000000e+00	0	0	13.694	13.694
2	CH4	1.571	3919	2029	75.783	Linear	0.000000e+00	0.000000e+00	5.171738e+001	0.000000e+00	0	0	5.620	5.620
3	CO2	1.996	4334796	2076204	1087.916	Linear	0.000000e+00	0.000000e+00	3.984494e+003	0.000000e+00	0	0	80.685	80.685
4	Ethylene	0.000	0	0	0.000	Linear	0.000000e+00	0.000000e+00	0.000000e+00	0.000000e+00	0	0	0.000	0.000
5	Acetylene	0.000	0	0	0.000	Linear	0.000000e+00	0.000000e+00	0.000000e+00	0.000000e+00	0	0	0.000	0.000
6	Ethane	0.000	0	0	0.000	Linear	0.000000e+00	0.000000e+00	0.000000e+00	0.000000e+00	0	0	0.000	0.000

[Compound Results(Ch2)]
# of IDs	5
ID#	Name	R.Time	Area	Height	Conc.	Curve	3rd	2nd	1st	Constant	Area Ratio	Height Ratio	Conc. %	Norm Conc.
1	Hydrogen	0.000	0	0	0.000	Linear	0.000000e+00	0.000000e+00	0.000000e+00	0.000000e+00	0	0	0.000	0.000
2	Oxygen	0.000	0	0	0.000	Linear	0.000000e+00	0.000000e+00	0.000000e+00	0.000000e+00	0	0	0.000	0.000
3	Nitrogen	0.000	0	0	0.000	Linear	0.000000e+00	0.000000e+00	0.000000e+00	0.000000e+00	0	0	0.000	0.000
4	Methane	0.000	0	0	0.000	Linear	0.000000e+00	0.000000e+00	0.000000e+00	0.000000e+00	0	0	0.000	0.000
5	Carbon Monoxide	0.000	0	0	0.000	Linear	0.000000e+00	0.000000e+00	0.000000e+00	0.000000e+00	0	0	0.000	0.000

[Compound Results(Ch3)]
# of IDs	2
ID#	Name	R.Time	Area	Height	Conc.	Curve	3rd	2nd	1st	Constant	Area Ratio	Height Ratio	Conc. %	Norm Conc.
1	N2O	2.880	18716	4738	0.478	Linear	0.000000e+00	0.000000e+00	3.915173e+004	0.000000e+00	0	0	100.000	100.000
2	SF6	3.346	16564	579	0.000	Linear	0.000000e+00	0.000000e+00	0.000000e+00	0.000000e+00	0	0	0.000	0.000

[Group Results(Ch1)]
# of Groups	0

[Group Results(Ch2)]
# of Groups	0

[Group Results(Ch3)]
# of Groups	0

[Chromatogram (Ch1)]
Interval(msec)	220
# of Points	1091
Start Time(min)	0.002
End Time(min)	3.998
R.Time (min)	Intensity
0.00167	-7
0.00533	-9
0.00900	-8
0.01267	-4
0.01633	-2
0.02000	-2
0.02367	3
0.02733	10
0.03100	13
0.03467	7
0.03833	0
0.04200	-1
0.04567	-3
0.04933	-7
0.05300	-10
0.05667	-9
0.06033	-3
0.06400	2
0.06767	6
0.07133	9
0.07500	11
0.07867	13
0.08233	8
0.08600	-1
0.08967	-9
0.09333	-14
0.09700	-14
0.10067	-10
0.10433	-3
0.10800	6
0.11167	15
0.11533	17
0.11900	16
0.12267	10
0.12633	9
0.13000	11
0.13367	18
0.13733	27
0.14100	40
0.14467	52
0.14833	64
0.15200	72
0.15567	73
0.15933	71
0.16300	68
0.16667	64
0.17033	63
0.17400	60
0.17767	57
0.18133	54
0.18500	49
0.18867	49
0.19233	50
0.19600	50
0.19967	51
0.20333	51
0.20700	54
0.21067	57
0.21433	60
0.21800	64
0.22167	71
0.22533	76
0.22900	75
0.23267	68
0.23633	59
0.24000	51
0.24367	43
0.24733	35
0.25100	29
0.25467	28
0.25833	35
0.26200	44
0.26567	46
0.26933	44
0.27300	40
0.27667	32
0.28033	20
0.28400	12
0.28767	7
0.29133	3
0.29500	2
0.29867	3
0.30233	4
0.30600	2
0.30967	2
0.31333	3
0.31700	4
0.32067	7
0.32433	12
0.32800	12
0.33167	6
0.33533	-4
0.33900	-19
0.34267	-32
0.34633	-38
0.35000	-36
0.35367	-30
0.35733	-30
0.36100	-37
0.36467	-40
0.36833	-34
0.37200	-30
0.37567	-29
0.37933	-27
0.38300	-24
0.38667	-18
0.39033	-8
0.39400	-2
0.39767	-1
0.40133	-2
0.40500	-1
0.40867	6
0.41233	17
0.41600	25
0.41967	25
0.42333	21
0.42700	15
0.43067	8
0.43433	-1
0.43800	-14
0.44167	-28
0.44533	-40
0.44900	-48
0.45267	-48
0.45633	-42
0.46000	-33
0.46367	-21
0.46733	-8
0.47100	-0
0.47467	0
0.47833	-6
0.48200	-17
0.48567	-23
0.48933	-28
0.49300	-32
0.49667	-37
0.50033	-43
0.50400	-48
0.50767	-50
0.51133	-47
0.51500	-36
0.51867	-22
0.52233	-15
0.52600	-16
0.52967	-21
0.53333	-26
0.53700	-30
0.54067	-33
0.54433	-34
0.54800	-30
0.55167	-20
0.55533	-9
0.55900	-1
0.56267	4
0.56633	2
0.57000	-10
0.57367	-27
0.57733	-42
0.58100	-52
0.58467	-54
0.58833	-54
0.59200	-51
0.59567	-46
0.59933	-40
0.60300	-33
0.60667	-29
0.61033	-26
0.61400	-18
0.61767	-11
0.62133	-11
0.62500	-16
0.62867	-18
0.63233	-16
0.63600	-11
0.63967	-4
0.64333	-1
0.64700	-12
0.65067	-24
0.65433	-28
0.65800	-30
0.66167	-27
0.66533	-20
0.66900	-22
0.67267	-36
0.67633	-50
0.68000	-58
0.68367	-58
0.68733	-53
0.69100	-50
0.69467	-48
0.69833	-46
0.70200	-42
0.70567	-36
0.70933	-32
0.71300	-30
0.71667	-33
0.72033	-37
0.72400	-39
0.72767	-38
0.73133	-35
0.73500	-30
0.73867	-24
0.74233	-22
0.74600	-16
0.74967	-19
0.75333	-28
0.75700	-36
0.76067	-41
0.76433	-42
0.76800	-40
0.77167	-37
0.77533	-36
0.77900	-38
0.78267	-39
0.78633	-41
0.79000	-45
0.79367	-48
0.79733	-50
0.80100	-50
0.80467	-50
0.80833	-50
0.81200	-54
0.81567	-55
0.81933	-53
0.82300	-50
0.82667	-47
0.83033	-48
0.83400	-56
0.83767	-65
0.84133	-70
0.84500	-71
0.84867	-71
0.85233	-64
0.85600	-50
0.85967	-35
0.86333	-28
0.86700	-30
0.87067	-34
0.87433	-35
0.87800	-35
0.88167	-36
0.88533	-39
0.88900	-43
0.89267	-47
0.89633	-51
0.90000	-54
0.90367	-60
0.90733	-67
0.91100	-76
0.91467	-78
0.91833	-76
0.92200	-72
0.92567	-72
0.92933	-70
0.93300	-67
0.93667	-62
0.94033	-60
0.94400	-58
0.94767	-53
0.95133	-49
0.95500	-50
0.95867	-57
0.96233	-69
0.96600	-76
0.96967	-73
0.97333	-68
0.97700	-69
0.98067	-74
0.98433	-82
0.98800	-85
0.99167	-85
0.99533	-82
0.99900	-74
1.00267	-67
1.00633	-62
1.01000	-61
1.01367	-62
1.01733	-63
1.02100	-60
1.02467	-55
1.02833	-49
1.03200	-47
1.03567	-52
1.03933	-54
1.04300	-52
1.04667	-49
1.05033	-50
1.05400	-58
1.05767	-70
1.06133	-75
1.06500	-77
1.06867	-79
1.07233	-81
1.07600	-79
1.07967	-74
1.08333	-66
1.08700	-58
1.09067	-54
1.09433	-53
1.09800	-56
1.10167	-60
1.10533	-65
1.10900	-68
1.11267	-73
1.11633	-78
1.12000	-85
1.12367	-91
1.12733	-95
1.13100	-93
1.13467	-86
1.13833	-81
1.14200	-84
1.14567	-89
1.14933	-93
1.15300	-95
1.15667	-95
1.16033	-91
1.16400	-82
1.16767	-70
1.17133	-62
1.17500	-56
1.17867	-52
1.18233	-51
1.18600	-51
1.18967	-54
1.19333	-57
1.19700	-60
1.20067	-71
1.20433	-81
1.20800	-87
1.21167	-89
1.21533	-87
1.21900	-84
1.22267	-84
1.22633	-81
1.23000	-76
1.23367	-69
1.23733	-65
1.24100	-64
1.24467	-65
1.24833	-66
1.25200	-71
1.25567	-74
1.25933	-76
1.26300	-87
1.26667	-81
1.27033	-68
1.27400	-58
1.27767	-61
1.28133	-70
1.28500	-75
1.28867	-75
1.29233	-71
1.29600	-66
1.29967	-67
1.30333	-72
1.30700	-77
1.31067	-82
1.31433	-88
1.31800	-93
1.32167	-92
1.32533	-85
1.32900	-80
1.33267	-82
1.33633	-90
1.34000	-94
1.34367	-98
1.34733	-106
1.35100	-111
1.35467	-108
1.35833	-102
1.36200	-96
1.36567	-86
1.36933	-79
1.37300	-78
1.37667	-77
1.38033	-76
1.38400	-81
1.38767	-93
1.39133	-101
1.39500	-103
1.39867	-100
1.40233	-97
1.40600	-95
1.40967	-95
1.41333	-95
1.41700	-91
1.42067	-91
1.42433	-94
1.42800	-94
1.43167	-90
1.43533	-84
1.43900	-74
1.44267	-40
1.44633	79
1.45000	456
1.45367	1482
1.45733	3413
1.46100	5930
1.46467	8445
1.46833	10543
1.47200	12031
1.47567	12788
1.47933	12693
1.48300	11715
1.48667	10041
1.49033	8037
1.49400	6069
1.49767	4373
1.50133	3039
1.50500	2051
1.50867	1346
1.51233	866
1.51600	541
1.51967	320
1.52333	169
1.52700	61
1.53067	-17
1.53433	-74
1.53800	-101
1.54167	-70
1.54533	66
1.54900	339
1.55267	722
1.55633	1126
1.56000	1480
1.56367	1746
1.56733	1903
1.57100	1925
1.57467	1790
1.57833	1517
1.58200	1178
1.58567	848
1.58933	571
1.59300	354
1.59667	197
1.60033	90
1.60400	18
1.60767	-29
1.61133	-63
1.61500	-89
1.61867	-108
1.62233	-116
1.62600	-117
1.62967	-116
1.63333	-118
1.63700	-120
1.64067	-126
1.64433	-136
1.64800	-145
1.65167	-150
1.65533	-151
1.65900	-146
1.66267	-138
1.66633	-132
1.67000	-137
1.67367	-144
1.67733	-142
1.68100	-137
1.68467	-138
1.68833	-136
1.69200	-129
1.69567	-125
1.69933	-126
1.70300	-126
1.70667	-125
1.71033	-123
1.71400	-121
1.71767	-122
1.72133	-132
1.72500	-145
1.72867	-156
1.73233	-162
1.73600	-160
1.73967	-155
1.74333	-147
1.74700	-140
1.75067	-133
1.75433	-125
1.75800	-122
1.76167	-126
1.76533	-132
1.76900	-126
1.77267	-119
1.77633	-120
1.78000	-122
1.78367	-119
1.78733	-115
1.79100	-111
1.79467	-108
1.79833	-108
1.80200	-108
1.80567	-108
1.80933	-107
1.81300	-111
1.81667	-118
1.82033	-120
1.82400	-123
1.82767	-126
1.83133	-125
1.83500	-123
1.83867	-118
1.84233	-115
1.84600	-113
1.84967	-113
1.85333	-113
1.85700	-111
1.86067	-113
1.86433	-118
1.86800	-123
1.87167	-124
1.87533	-117
1.87900	-107
1.88267	-99
1.88633	-97
1.89000	-96
1.89367	-96
1.89733	-99
1.90100	-104
1.90467	-109
1.90833	-112
1.91200	-114
1.91567	-112
1.91933	-107
1.92300	-105
1.92667	-107
1.93033	-117
1.93400	-127
1.93767	-134
1.94133	-131
1.94500	-120
1.94867	-107
1.95233	-80
1.95600	108
1.95967	1380
1.96333	7987
1.96700	33822
1.97067	110499
1.97433	282724
1.97800	576187
1.98167	963485
1.98533	1373345
1.98900	1728456
1.99267	1972417
1.99633	2076112
2.00000	2035175
2.00367	1868038
2.00733	1612014
2.01100	1314073
2.01467	1018480
2.01833	756903
2.02200	544587
2.02567	383107
2.02933	265998
2.03300	183842
2.03667	127446
2.04033	89222
2.04400	63464
2.04767	46099
2.05133	34313
2.05500	26223
2.05867	20575
2.06233	16562
2.06600	13642
2.06967	11463
2.07333	9800
2.07700	8511
2.08067	7488
2.08433	6662
2.08800	5982
2.09167	5415
2.09533	4933
2.09900	4523
2.10267	4170
2.10633	3867
2.11000	3608
2.11367	3381
2.11733	3173
2.12100	2977
2.12467	2791
2.12833	2628
2.13200	2485
2.13567	2356
2.13933	2240
2.14300	2137
2.14667	2041
2.15033	1953
2.15400	1870
2.15767	1784
2.16133	1702
2.16500	1623
2.16867	1545
2.17233	1477
2.17600	1419
2.17967	1368
2.18333	1323
2.18700	1280
2.19067	1241
2.19433	1205
2.19800	1171
2.20167	1136
2.20533	1100
2.20900	1067
2.21267	1039
2.21633	1014
2.22000	989
2.22367	967
2.22733	942
2.23100	917
2.23467	894
2.23833	873
2.24200	855
2.24567	839
2.24933	819
2.25300	795
2.25667	771
2.26033	749
2.26400	733
2.26767	718
2.27133	705
2.27500	696
2.27867	689
2.28233	682
2.28600	669
2.28967	656
2.29333	644
2.29700	627
2.30067	608
2.30433	592
2.30800	579
2.31167	569
2.31533	559
2.31900	549
2.32267	535
2.32633	518
2.33000	501
2.33367	487
2.33733	477
2.34100	470
2.34467	466
2.34833	460
2.35200	452
2.35567	443
2.35933	433
2.36300	426
2.36667	420
2.37033	415
2.37400	410
2.37767	406
2.38133	406
2.38500	408
2.38867	408
2.39233	403
2.39600	397
2.39967	397
2.40333	397
2.40700	389
2.41067	383
2.41433	380
2.41800	376
2.42167	371
2.42533	364
2.42900	353
2.43267	339
2.43633	333
2.44000	331
2.44367	330
2.44733	325
2.45100	320
2.45467	318
2.45833	317
2.46200	311
2.46567	302
2.46933	296
2.47300	286
2.47667	276
2.48033	267
2.48400	263
2.48767	263
2.49133	260
2.49500	258
2.49867	259
2.50233	262
2.50600	261
2.50967	257
2.51333	254
2.51700	256
2.52067	264
2.52433	271
2.52800	276
2.53167	278
2.53533	285
2.53900	288
2.54267	286
2.54633	279
2.55000	267
2.55367	251
2.55733	233
2.56100	219
2.56467	211
2.56833	210
2.57200	211
2.57567	211
2.57933	209
2.58300	205
2.58667	203
2.59033	205
2.59400	206
2.59767	204
2.60133	200
2.60500	195
2.60867	195
2.61233	196
2.61600	197
2.61967	194
2.62333	191
2.62700	190
2.63067	189
2.63433	184
2.63800	182
2.64167	182
2.64533	180
2.64900	179
2.65267	179
2.65633	183
2.66000	186
2.66367	185
2.66733	180
2.67100	173
2.67467	161
2.67833	148
2.68200	138
2.68567	132
2.68933	131
2.69300	127
2.69667	119
2.70033	117
2.70400	118
2.70767	124
2.71133	132
2.71500	137
2.71867	142
2.72233	146
2.72600	146
2.72967	143
2.73333	139
2.73700	136
2.74067	134
2.74433	133
2.74800	137
2.75167	142
2.75533	146
2.75900	146
2.76267	143
2.76633	140
2.77000	138
2.77367	139
2.77733	140
2.78100	141
2.78467	142
2.78833	143
2.79200	142
2.79567	139
2.79933	133
2.80300	129
2.80667	127
2.81033	126
2.81400	124
2.81767	125
2.82133	131
2.82500	140
2.82867	146
2.83233	144
2.83600	138
2.83967	131
2.84333	122
2.84700	115
2.85067	112
2.85433	111
2.85800	109
2.86167	109
2.86533	113
2.86900	109
2.87267	100
2.87633	93
2.88000	84
2.88367	77
2.88733	80
2.89100	92
2.89467	105
2.89833	113
2.90200	114
2.90567	111
2.90933	109
2.91300	106
2.91667	105
2.92033	110
2.92400	120
2.92767	131
2.93133	126
2.93500	112
2.93867	98
2.94233	86
2.94600	80
2.94967	82
2.95333	85
2.95700	77
2.96067	68
2.96433	64
2.96800	62
2.97167	63
2.97533	67
2.97900	75
2.98267	87
2.98633	98
2.99000	104
2.99367	106
2.99733	103
3.00100	99
3.00467	97
3.00833	99
3.01200	103
3.01567	106
3.01933	105
3.02300	103
3.02667	104
3.03033	108
3.03400	105
3.03767	100
3.04133	98
3.04500	101
3.04867	102
3.05233	99
3.05600	93
3.05967	86
3.06333	81
3.06700	76
3.07067	76
3.07433	73
3.07800	70
3.08167	71
3.08533	76
3.08900	78
3.09267	81
3.09633	82
3.10000	81
3.10367	80
3.10733	82
3.11100	78
3.11467	76
3.11833	80
3.12200	89
3.12567	95
3.12933	98
3.13300	97
3.13667	93
3.14033	85
3.14400	77
3.14767	75
3.15133	78
3.15500	80
3.15867	81
3.16233	88
3.16600	96
3.16967	98
3.17333	94
3.17700	89
3.18067	83
3.18433	73
3.18800	61
3.19167	53
3.19533	46
3.19900	42
3.20267	45
3.20633	50
3.21000	54
3.21367	58
3.21733	61
3.22100	68
3.22467	75
3.22833	79
3.23200	79
3.23567	71
3.23933	57
3.24300	43
3.24667	35
3.25033	34
3.25400	33
3.25767	34
3.26133	38
3.26500	40
3.26867	44
3.27233	50
3.27600	52
3.27967	47
3.28333	45
3.28700	50
3.29067	48
3.29433	44
3.29800	38
3.30167	29
3.30533	29
3.30900	37
3.31267	46
3.31633	49
3.32000	51
3.32367	55
3.32733	58
3.33100	56
3.33467	51
3.33833	49
3.34200	51
3.34567	51
3.34933	50
3.35300	48
3.35667	50
3.36033	52
3.36400	52
3.36767	49
3.37133	46
3.37500	49
3.37867	58
3.38233	65
3.38600	64
3.38967	53
3.39333	43
3.39700	38
3.40067	30
3.40433	22
3.40800	20
3.41167	24
3.41533	31
3.41900	36
3.42267	35
3.42633	33
3.43000	29
3.43367	22
3.43733	13
3.44100	7
3.44467	5
3.44833	9
3.45200	17
3.45567	26
3.45933	32
3.46300	30
3.46667	31
3.47033	40
3.47400	48
3.47767	48
3.48133	46
3.48500	44
3.48867	44
3.49233	47
3.49600	43
3.49967	37
3.50333	39
3.50700	41
3.51067	33
3.51433	29
3.51800	27
3.52167	26
3.52533	27
3.52900	29
3.53267	30
3.53633	31
3.54000	33
3.54367	32
3.54733	26
3.55100	19
3.55467	12
3.55833	7
3.56200	8
3.56567	6
3.56933	7
3.57300	11
3.57667	7
3.58033	2
3.58400	-0
3.58767	3
3.59133	12
3.59500	20
3.59867	29
3.60233	34
3.60600	34
3.60967	31
3.61333	30
3.61700	33
3.62067	37
3.62433	41
3.62800	38
3.63167	27
3.63533	19
3.63900	18
3.64267	19
3.64633	22
3.65000	24
3.65367	26
3.65733	28
3.66100	25
3.66467	17
3.66833	6
3.67200	-2
3.67567	-10
3.67933	-19
3.68300	-17
3.68667	-13
3.69033	-4
3.69400	6
3.69767	6
3.70133	0
3.70500	-8
3.70867	-15
3.71233	-17
3.71600	-14
3.71967	-9
3.72333	-4
3.72700	4
3.73067	7
3.73433	11
3.73800	14
3.74167	10
3.74533	5
3.74900	2
3.75267	2
3.75633	2
3.76000	-1
3.76367	-8
3.76733	-14
3.77100	-12
3.77467	-8
3.77833	-1
3.78200	6
3.78567	9
3.78933	9
3.79300	14
3.79667	18
3.80033	19
3.80400	14
3.80767	5
3.81133	3
3.81500	-0
3.81867	-6
3.82233	-6
3.82600	-8
3.82967	-11
3.83333	-10
3.83700	-9
3.84067	-12
3.84433	-17
3.84800	-21
3.85167	-22
3.85533	-28
3.85900	-39
3.86267	-44
3.86633	-40
3.87000	-33
3.87367	-29
3.87733	-23
3.88100	-19
3.88467	-18
3.88833	-24
3.89200	-31
3.89567	-31
3.89933	-33
3.90300	-34
3.90667	-31
3.91033	-25
3.91400	-19
3.91767	-18
3.92133	-19
3.92500	-20
3.92867	-18
3.93233	-14
3.93600	-8
3.93967	-3
3.94333	-3
3.94700	-4
3.95067	-5
3.95433	-3
3.95800	3
3.96167	-1
3.96533	-17
3.96900	-26
3.97267	-32
3.97633	-38
3.98000	-42
3.98367	-44
3.98733	-36
3.99100	-25
3.99467	-18
3.99833	-17

[Chromatogram (Ch2)]
Interval(msec)	220
# of Points	1091
Start Time(min)	0.002
End Time(min)	3.998
R.Time (min)	Intensity
0.00167	-0
0.00533	-0
0.00900	-1
0.01267	-1
0.01633	-1
0.02000	-1
0.02367	-0
0.02733	-0
0.03100	0
0.03467	1
0.03833	1
0.04200	2
0.04567	2
0.04933	3
0.05300	3
0.05667	3
0.06033	3
0.06400	3
0.06767	3
0.07133	3
0.07500	3
0.07867	3
0.08233	3
0.08600	3
0.08967	3
0.09333	3
0.09700	3
0.10067	3
0.10433	2
0.10800	2
0.11167	2
0.11533	2
0.11900	2
0.12267	2
0.12633	2
0.13000	3
0.13367	3
0.13733	3
0.14100	3
0.14467	3
0.14833	2
0.15200	2
0.15567	2
0.15933	1
0.16300	1
0.16667	1
0.17033	1
0.17400	1
0.17767	1
0.18133	1
0.18500	1
0.18867	2
0.19233	2
0.19600	2
0.19967	2
0.20333	2
0.20700	2
0.21067	2
0.21433	2
0.21800	2
0.22167	2
0.22533	2
0.22900	2
0.23267	2
0.23633	2
0.24000	2
0.24367	2
0.24733	3
0.25100	3
0.25467	3
0.25833	3
0.26200	3
0.26567	3
0.26933	3
0.27300	3
0.27667	3
0.28033	3
0.28400	3
0.28767	3
0.29133	3
0.29500	2
0.29867	2
0.30233	2
0.30600	2
0.30967	2
0.31333	1
0.31700	1
0.32067	1
0.32433	1
0.32800	1
0.33167	1
0.33533	1
0.33900	1
0.34267	1
0.34633	1
0.35000	1
0.35367	1
0.35733	1
0.36100	0
0.36467	0
0.36833	0
0.37200	0
0.37567	0
0.37933	0
0.38300	0
0.38667	0
0.39033	1
0.39400	1
0.39767	1
0.40133	1
0.40500	1
0.40867	1
0.41233	2
0.41600	2
0.41967	2
0.42333	3
0.42700	3
0.43067	3
0.43433	3
0.43800	4
0.44167	4
0.44533	4
0.44900	4
0.45267	3
0.45633	3
0.46000	2
0.46367	2
0.46733	1
0.47100	1
0.47467	1
0.47833	1
0.48200	2
0.48567	2
0.48933	2
0.49300	2
0.49667	2
0.50033	2
0.50400	2
0.50767	2
0.51133	2
0.51500	2
0.51867	2
0.52233	2
0.52600	2
0.52967	2
0.53333	2
0.53700	2
0.54067	2
0.54433	2
0.54800	2
0.55167	2
0.55533	2
0.55900	2
0.56267	2
0.56633	3
0.57000	3
0.57367	3
0.57733	3
0.58100	3
0.58467	3
0.58833	3
0.59200	3
0.59567	3
0.59933	3
0.60300	3
0.60667	3
0.61033	3
0.61400	2
0.61767	1
0.62133	1
0.62500	-0
0.62867	-1
0.63233	-1
0.63600	-2
0.63967	-2
0.64333	-2
0.64700	-2
0.65067	-2
0.65433	-2
0.65800	-1
0.66167	-1
0.66533	-1
0.66900	-1
0.67267	-1
0.67633	-1
0.68000	-1
0.68367	-1
0.68733	-1
0.69100	-1
0.69467	-1
0.69833	-1
0.70200	-2
0.70567	-2
0.70933	-1
0.71300	-1
0.71667	-1
0.72033	-1
0.72400	-0
0.72767	0
0.73133	1
0.73500	1
0.73867	1
0.74233	2
0.74600	2
0.74967	2
0.75333	2
0.75700	1
0.76067	1
0.76433	1
0.76800	1
0.77167	1
0.77533	0
0.77900	0
0.78267	-0
0.78633	-0
0.79000	-0
0.79367	-0
0.79733	-0
0.80100	-0
0.80467	-0
0.80833	-0
0.81200	0
0.81567	0
0.81933	0
0.82300	0
0.82667	0
0.83033	0
0.83400	0
0.83767	1
0.84133	1
0.84500	1
0.84867	1
0.85233	1
0.85600	2
0.85967	2
0.86333	2
0.86700	2
0.87067	2
0.87433	3
0.87800	3
0.88167	4
0.88533	4
0.88900	4
0.89267	4
0.89633	4
0.90000	4
0.90367	4
0.90733	4
0.91100	4
0.91467	4
0.91833	4
0.92200	3
0.92567	3
0.92933	3
0.93300	2
0.93667	2
0.94033	2
0.94400	2
0.94767	1
0.95133	2
0.95500	2
0.95867	3
0.96233	3
0.96600	3
0.96967	3
0.97333	3
0.97700	3
0.98067	3
0.98433	3
0.98800	2
0.99167	2
0.99533	2
0.99900	1
1.00267	1
1.00633	1
1.01000	0
1.01367	0
1.01733	0
1.02100	-0
1.02467	-1
1.02833	-1
1.03200	-1
1.03567	-0
1.03933	-0
1.04300	-0
1.04667	-1
1.05033	-1
1.05400	-1
1.05767	-2
1.06133	-2
1.06500	-3
1.06867	-3
1.07233	-3
1.07600	-3
1.07967	-3
1.08333	-4
1.08700	-4
1.09067	-4
1.09433	-4
1.09800	-3
1.10167	-3
1.10533	-3
1.10900	-3
1.11267	-2
1.11633	-2
1.12000	-1
1.12367	-1
1.12733	-0
1.13100	-0
1.13467	0
1.13833	0
1.14200	0
1.14567	0
1.14933	0
1.15300	0
1.15667	0
1.16033	0
1.16400	0
1.16767	0
1.17133	0
1.17500	-0
1.17867	-0
1.18233	-0
1.18600	-0
1.18967	-0
1.19333	-1
1.19700	-0
1.20067	-0
1.20433	-0
1.20800	0
1.21167	1
1.21533	1
1.21900	1
1.22267	2
1.22633	2
1.23000	2
1.23367	3
1.23733	3
1.24100	3
1.24467	3
1.24833	3
1.25200	3
1.25567	3
1.25933	3
1.26300	3
1.26667	3
1.27033	2
1.27400	1
1.27767	1
1.28133	1
1.28500	0
1.28867	-0
1.29233	-1
1.29600	-1
1.29967	-1
1.30333	-1
1.30700	-0
1.31067	-0
1.31433	-0
1.31800	0
1.32167	0
1.32533	0
1.32900	0
1.33267	1
1.33633	1
1.34000	1
1.34367	1
1.34733	1
1.35100	1
1.35467	1
1.35833	1
1.36200	0
1.36567	0
1.36933	0
1.37300	0
1.37667	0
1.38033	0
1.38400	0
1.38767	1
1.39133	1
1.39500	1
1.39867	1
1.40233	0
1.40600	0
1.40967	0
1.41333	-0
1.41700	-0
1.42067	-1
1.42433	-1
1.42800	-1
1.43167	-1
1.43533	-1
1.43900	-1
1.44267	-1
1.44633	-1
1.45000	-1
1.45367	-1
1.45733	-1
1.46100	-1
1.46467	-1
1.46833	-1
1.47200	-1
1.47567	-1
1.47933	-1
1.48300	-1
1.48667	-1
1.49033	-1
1.49400	-2
1.49767	-2
1.50133	-2
1.50500	-1
1.50867	-1
1.51233	-1
1.51600	-1
1.51967	-0
1.52333	-0
1.52700	0
1.53067	0
1.53433	0
1.53800	0
1.54167	0
1.54533	0
1.54900	0
1.55267	0
1.55633	-0
1.56000	-0
1.56367	-0
1.56733	-0
1.57100	-0
1.57467	-0
1.57833	-0
1.58200	-0
1.58567	-0
1.58933	-1
1.59300	-1
1.59667	-2
1.60033	-4
1.60400	-5
1.60767	-7
1.61133	-9
1.61500	-11
1.61867	-14
1.62233	-17
1.62600	-19
1.62967	-22
1.63333	-25
1.63700	-28
1.64067	-32
1.64433	-35
1.64800	-38
1.65167	-41
1.65533	-45
1.65900	-48
1.66267	-52
1.66633	-56
1.67000	-61
1.67367	-65
1.67733	-70
1.68100	-75
1.68467	-81
1.68833	-86
1.69200	-90
1.69567	-94
1.69933	-97
1.70300	-100
1.70667	-102
1.71033	-104
1.71400	-105
1.71767	-105
1.72133	-106
1.72500	-106
1.72867	-105
1.73233	-105
1.73600	-104
1.73967	-103
1.74333	-102
1.74700	-101
1.75067	-100
1.75433	-100
1.75800	-100
1.76167	-101
1.76533	-103
1.76900	-104
1.77267	-106
1.77633	-107
1.78000	-109
1.78367	-110
1.78733	-112
1.79100	-113
1.79467	-114
1.79833	-114
1.80200	-114
1.80567	-113
1.80933	-113
1.81300	-112
1.81667	-111
1.82033	-111
1.82400	-111
1.82767	-111
1.83133	-111
1.83500	-112
1.83867	-112
1.84233	-113
1.84600	-113
1.84967	-113
1.85333	-113
1.85700	-113
1.86067	-113
1.86433	-113
1.86800	-113
1.87167	-113
1.87533	-113
1.87900	-113
1.88267	-114
1.88633	-114
1.89000	-114
1.89367	-113
1.89733	-113
1.90100	-112
1.90467	-112
1.90833	-111
1.91200	-110
1.91567	-110
1.91933	-109
1.92300	-109
1.92667	-108
1.93033	-108
1.93400	-108
1.93767	-108
1.94133	-108
1.94500	-108
1.94867	-108
1.95233	-108
1.95600	-108
1.95967	-108
1.96333	-108
1.96700	-107
1.97067	-107
1.97433	-107
1.97800	-106
1.98167	-106
1.98533	-106
1.98900	-105
1.99267	-105
1.99633	-104
2.00000	-104
2.00367	-104
2.00733	-103
2.01100	-103
2.01467	-104
2.01833	-104
2.02200	-105
2.02567	-105
2.02933	-105
2.03300	-105
2.03667	-105
2.04033	-104
2.04400	-104
2.04767	-104
2.05133	-104
2.05500	-104
2.05867	-104
2.06233	-104
2.06600	-103
2.06967	-103
2.07333	-102
2.07700	-101
2.08067	-100
2.08433	-100
2.08800	-99
2.09167	-98
2.09533	-98
2.09900	-97
2.10267	-97
2.10633	-97
2.11000	-97
2.11367	-97
2.11733	-97
2.12100	-97
2.12467	-96
2.12833	-96
2.13200	-96
2.13567	-96
2.13933	-95
2.14300	-95
2.14667	-94
2.15033	-93
2.15400	-92
2.15767	-92
2.16133	-92
2.16500	-92
2.16867	-92
2.17233	-92
2.17600	-92
2.17967	-92
2.18333	-91
2.18700	-91
2.19067	-90
2.19433	-89
2.19800	-89
2.20167	-89
2.20533	-89
2.20900	-89
2.21267	-88
2.21633	-88
2.22000	-87
2.22367	-87
2.22733	-86
2.23100	-85
2.23467	-84
2.23833	-84
2.24200	-83
2.24567	-82
2.24933	-82
2.25300	-82
2.25667	-83
2.26033	-83
2.26400	-83
2.26767	-83
2.27133	-83
2.27500	-83
2.27867	-82
2.28233	-82
2.28600	-81
2.28967	-80
2.29333	-79
2.29700	-78
2.30067	-77
2.30433	-77
2.30800	-76
2.31167	-76
2.31533	-77
2.31900	-77
2.32267	-77
2.32633	-76
2.33000	-75
2.33367	-75
2.33733	-75
2.34100	-75
2.34467	-75
2.34833	-74
2.35200	-74
2.35567	-73
2.35933	-72
2.36300	-70
2.36667	-68
2.37033	-67
2.37400	-64
2.37767	-61
2.38133	-57
2.38500	-54
2.38867	-49
2.39233	-45
2.39600	-40
2.39967	-35
2.40333	-31
2.40700	-27
2.41067	-23
2.41433	-19
2.41800	-16
2.42167	-13
2.42533	-12
2.42900	-10
2.43267	-9
2.43633	-8
2.44000	-7
2.44367	-6
2.44733	-5
2.45100	-4
2.45467	-3
2.45833	-3
2.46200	-2
2.46567	-2
2.46933	-1
2.47300	-1
2.47667	0
2.48033	1
2.48400	2
2.48767	3
2.49133	4
2.49500	4
2.49867	4
2.50233	5
2.50600	5
2.50967	6
2.51333	7
2.51700	8
2.52067	9
2.52433	11
2.52800	11
2.53167	12
2.53533	13
2.53900	13
2.54267	14
2.54633	14
2.55000	15
2.55367	15
2.55733	16
2.56100	16
2.56467	16
2.56833	16
2.57200	16
2.57567	17
2.57933	17
2.58300	17
2.58667	17
2.59033	17
2.59400	17
2.59767	17
2.60133	17
2.60500	17
2.60867	17
2.61233	17
2.61600	17
2.61967	17
2.62333	18
2.62700	18
2.63067	19
2.63433	19
2.63800	19
2.64167	19
2.64533	19
2.64900	20
2.65267	20
2.65633	20
2.66000	21
2.66367	21
2.66733	21
2.67100	22
2.67467	23
2.67833	23
2.68200	24
2.68567	24
2.68933	24
2.69300	23
2.69667	23
2.70033	23
2.70400	23
2.70767	23
2.71133	23
2.71500	24
2.71867	24
2.72233	25
2.72600	25
2.72967	26
2.73333	26
2.73700	26
2.74067	26
2.74433	26
2.74800	26
2.75167	26
2.75533	25
2.75900	25
2.76267	25
2.76633	25
2.77000	25
2.77367	25
2.77733	26
2.78100	26
2.78467	27
2.78833	27
2.79200	27
2.79567	28
2.79933	28
2.80300	28
2.80667	28
2.81033	29
2.81400	29
2.81767	29
2.82133	28
2.82500	28
2.82867	28
2.83233	29
2.83600	29
2.83967	28
2.84333	27
2.84700	26
2.85067	22
2.85433	17
2.85800	9
2.86167	-3
2.86533	-18
2.86900	-38
2.87267	-62
2.87633	-90
2.88000	-123
2.88367	-160
2.88733	-201
2.89100	-246
2.89467	-293
2.89833	-343
2.90200	-395
2.90567	-449
2.90933	-504
2.91300	-559
2.91667	-614
2.92033	-670
2.92400	-724
2.92767	-777
2.93133	-829
2.93500	-881
2.93867	-937
2.94233	-996
2.94600	-1049
2.94967	-1087
2.95333	-1100
2.95700	-1087
2.96067	-1050
2.96433	-994
2.96800	-925
2.97167	-848
2.97533	-768
2.97900	-688
2.98267	-610
2.98633	-537
2.99000	-470
2.99367	-409
2.99733	-353
3.00100	-304
3.00467	-261
3.00833	-223
3.01200	-189
3.01567	-161
3.01933	-136
3.02300	-114
3.02667	-96
3.03033	-80
3.03400	-66
3.03767	-54
3.04133	-44
3.04500	-35
3.04867	-28
3.05233	-22
3.05600	-16
3.05967	-11
3.06333	-7
3.06700	-3
3.07067	-0
3.07433	3
3.07800	5
3.08167	7
3.08533	8
3.08900	10
3.09267	11
3.09633	12
3.10000	13
3.10367	14
3.10733	15
3.11100	16
3.11467	16
3.11833	17
3.12200	17
3.12567	18
3.12933	18
3.13300	19
3.13667	19
3.14033	19
3.14400	20
3.14767	20
3.15133	20
3.15500	20
3.15867	20
3.16233	21
3.16600	21
3.16967	21
3.17333	21
3.17700	21
3.18067	22
3.18433	22
3.18800	22
3.19167	22
3.19533	23
3.19900	23
3.20267	23
3.20633	23
3.21000	23
3.21367	23
3.21733	23
3.22100	23
3.22467	23
3.22833	23
3.23200	23
3.23567	23
3.23933	23
3.24300	24
3.24667	24
3.25033	25
3.25400	25
3.25767	25
3.26133	25
3.26500	25
3.26867	26
3.27233	26
3.27600	26
3.27967	27
3.28333	27
3.28700	27
3.29067	28
3.29433	28
3.29800	28
3.30167	28
3.30533	28
3.30900	28
3.31267	28
3.31633	28
3.32000	29
3.32367	29
3.32733	29
3.33100	29
3.33467	29
3.33833	29
3.34200	29
3.34567	29
3.34933	30
3.35300	30
3.35667	30
3.36033	30
3.36400	31
3.36767	31
3.37133	31
3.37500	31
3.37867	31
3.38233	31
3.38600	31
3.38967	31
3.39333	31
3.39700	31
3.40067	31
3.40433	31
3.40800	31
3.41167	31
3.41533	30
3.41900	30
3.42267	29
3.42633	29
3.43000	29
3.43367	29
3.43733	29
3.44100	29
3.44467	29
3.44833	29
3.45200	29
3.45567	29
3.45933	29
3.46300	29
3.46667	29
3.47033	29
3.47400	29
3.47767	29
3.48133	29
3.48500	29
3.48867	29
3.49233	29
3.49600	29
3.49967	29
3.50333	29
3.50700	29
3.51067	28
3.51433	28
3.51800	28
3.52167	27
3.52533	27
3.52900	27
3.53267	27
3.53633	27
3.54000	27
3.54367	27
3.54733	27
3.55100	26
3.55467	26
3.55833	26
3.56200	27
3.56567	27
3.56933	27
3.57300	27
3.57667	27
3.58033	27
3.58400	27
3.58767	28
3.59133	28
3.59500	28
3.59867	28
3.60233	28
3.60600	28
3.60967	28
3.61333	28
3.61700	28
3.62067	28
3.62433	28
3.62800	28
3.63167	28
3.63533	28
3.63900	27
3.64267	27
3.64633	27
3.65000	27
3.65367	27
3.65733	27
3.66100	27
3.66467	27
3.66833	26
3.67200	26
3.67567	26
3.67933	26
3.68300	26
3.68667	26
3.69033	26
3.69400	26
3.69767	26
3.70133	26
3.70500	26
3.70867	26
3.71233	26
3.71600	26
3.71967	26
3.72333	26
3.72700	26
3.73067	26
3.73433	26
3.73800	26
3.74167	26
3.74533	26
3.74900	26
3.75267	26
3.75633	26
3.76000	26
3.76367	27
3.76733	27
3.77100	27
3.77467	27
3.77833	27
3.78200	28
3.78567	28
3.78933	28
3.79300	29
3.79667	29
3.80033	29
3.80400	29
3.80767	29
3.81133	29
3.81500	29
3.81867	29
3.82233	29
3.82600	29
3.82967	29
3.83333	29
3.83700	29
3.84067	29
3.84433	29
3.84800	28
3.85167	28
3.85533	28
3.85900	28
3.86267	28
3.86633	28
3.87000	28
3.87367	28
3.87733	28
3.88100	29
3.88467	29
3.88833	28
3.89200	28
3.89567	29
3.89933	29
3.90300	29
3.90667	29
3.91033	30
3.91400	30
3.91767	30
3.92133	30
3.92500	29
3.92867	29
3.93233	29
3.93600	29
3.93967	29
3.94333	29
3.94700	29
3.95067	29
3.95433	29
3.95800	29
3.96167	30
3.96533	30
3.96900	30
3.97267	29
3.97633	29
3.98000	29
3.98367	28
3.98733	28
3.99100	28
3.99467	27
3.99833	27

[Chromatogram (Ch3)]
Interval(msec)	220
# of Points	1091
Start Time(min)	0.002
End Time(min)	3.998
R.Time (min)	Intensity
0.00167	0
0.00533	-1
0.00900	-1
0.01267	-2
0.01633	-2
0.02000	-1
0.02367	-1
0.02733	-0
0.03100	1
0.03467	1
0.03833	1
0.04200	0
0.04567	1
0.04933	3
0.05300	4
0.05667	2
0.06033	1
0.06400	0
0.06767	-2
0.07133	-3
0.07500	-3
0.07867	-3
0.08233	-3
0.08600	-3
0.08967	-2
0.09333	-1
0.09700	-3
0.10067	-4
0.10433	-2
0.10800	-1
0.11167	-0
0.11533	1
0.11900	2
0.12267	1
0.12633	-1
0.13000	-1
0.13367	-1
0.13733	0
0.14100	3
0.14467	2
0.14833	1
0.15200	-2
0.15567	-1
0.15933	-2
0.16300	-5
0.16667	-7
0.17033	-7
0.17400	-7
0.17767	-7
0.18133	-6
0.18500	-4
0.18867	-3
0.19233	-3
0.19600	-3
0.19967	-1
0.20333	2
0.20700	4
0.21067	3
0.21433	2
0.21800	2
0.22167	1
0.22533	-1
0.22900	-3
0.23267	-5
0.23633	-6
0.24000	-7
0.24367	-8
0.24733	-9
0.25100	-8
0.25467	-8
0.25833	-8
0.26200	-6
0.26567	-7
0.26933	-9
0.27300	-10
0.27667	-11
0.28033	-10
0.28400	-9
0.28767	-8
0.29133	-6
0.29500	-6
0.29867	-8
0.30233	-7
0.30600	-6
0.30967	-6
0.31333	-6
0.31700	-6
0.32067	-6
0.32433	-5
0.32800	-3
0.33167	-1
0.33533	-1
0.33900	-3
0.34267	-2
0.34633	-1
0.35000	-0
0.35367	-0
0.35733	-1
0.36100	0
0.36467	2
0.36833	4
0.37200	3
0.37567	3
0.37933	2
0.38300	0
0.38667	-1
0.39033	-2
0.39400	-1
0.39767	-1
0.40133	-5
0.40500	-6
0.40867	-5
0.41233	-2
0.41600	-2
0.41967	-5
0.42333	-8
0.42700	-8
0.43067	-7
0.43433	-4
0.43800	-3
0.44167	-5
0.44533	-6
0.44900	-6
0.45267	-6
0.45633	-6
0.46000	-7
0.46367	-6
0.46733	-4
0.47100	-3
0.47467	-2
0.47833	-6
0.48200	-7
0.48567	-5
0.48933	-5
0.49300	-5
0.49667	-6
0.50033	-6
0.50400	-7
0.50767	-8
0.51133	-6
0.51500	-6
0.51867	-6
0.52233	-5
0.52600	-7
0.52967	-7
0.53333	-5
0.53700	-5
0.54067	-3
0.54433	-0
0.54800	1
0.55167	1
0.55533	1
0.55900	2
0.56267	0
0.56633	-1
0.57000	-4
0.57367	-4
0.57733	-4
0.58100	-2
0.58467	-1
0.58833	-2
0.59200	-4
0.59567	-5
0.59933	-6
0.60300	-6
0.60667	-6
0.61033	-6
0.61400	-5
0.61767	-4
0.62133	-3
0.62500	-2
0.62867	-2
0.63233	-2
0.63600	-1
0.63967	0
0.64333	1
0.64700	-1
0.65067	-1
0.65433	-2
0.65800	-2
0.66167	-3
0.66533	-2
0.66900	-0
0.67267	0
0.67633	1
0.68000	2
0.68367	2
0.68733	1
0.69100	0
0.69467	-0
0.69833	-1
0.70200	-1
0.70567	-2
0.70933	-2
0.71300	-2
0.71667	-2
0.72033	-2
0.72400	-3
0.72767	-0
0.73133	2
0.73500	3
0.73867	4
0.74233	4
0.74600	4
0.74967	5
0.75333	4
0.75700	4
0.76067	4
0.76433	4
0.76800	4
0.77167	3
0.77533	3
0.77900	2
0.78267	-0
0.78633	-1
0.79000	-0
0.79367	-1
0.79733	-1
0.80100	1
0.80467	2
0.80833	4
0.81200	4
0.81567	3
0.81933	4
0.82300	2
0.82667	2
0.83033	4
0.83400	5
0.83767	4
0.84133	3
0.84500	3
0.84867	4
0.85233	6
0.85600	6
0.85967	6
0.86333	7
0.86700	7
0.87067	6
0.87433	5
0.87800	4
0.88167	2
0.88533	-0
0.88900	-2
0.89267	-1
0.89633	0
0.90000	3
0.90367	5
0.90733	4
0.91100	4
0.91467	3
0.91833	1
0.92200	2
0.92567	2
0.92933	2
0.93300	-0
0.93667	-4
0.94033	-5
0.94400	-5
0.94767	-5
0.95133	-6
0.95500	-6
0.95867	-4
0.96233	-3
0.96600	-3
0.96967	-2
0.97333	-1
0.97700	-0
0.98067	-1
0.98433	-2
0.98800	-2
0.99167	-3
0.99533	-4
0.99900	-3
1.00267	-2
1.00633	0
1.01000	2
1.01367	2
1.01733	1
1.02100	0
1.02467	-0
1.02833	-0
1.03200	-1
1.03567	-2
1.03933	-4
1.04300	-4
1.04667	-3
1.05033	-1
1.05400	0
1.05767	3
1.06133	4
1.06500	3
1.06867	4
1.07233	5
1.07600	5
1.07967	3
1.08333	2
1.08700	2
1.09067	3
1.09433	0
1.09800	-2
1.10167	-2
1.10533	1
1.10900	2
1.11267	3
1.11633	4
1.12000	4
1.12367	5
1.12733	5
1.13100	5
1.13467	6
1.13833	4
1.14200	4
1.14567	4
1.14933	4
1.15300	4
1.15667	3
1.16033	4
1.16400	6
1.16767	11
1.17133	15
1.17500	12
1.17867	9
1.18233	9
1.18600	9
1.18967	10
1.19333	11
1.19700	11
1.20067	11
1.20433	11
1.20800	11
1.21167	10
1.21533	8
1.21900	8
1.22267	6
1.22633	6
1.23000	6
1.23367	7
1.23733	9
1.24100	12
1.24467	14
1.24833	13
1.25200	11
1.25567	10
1.25933	8
1.26300	8
1.26667	7
1.27033	6
1.27400	6
1.27767	6
1.28133	6
1.28500	7
1.28867	7
1.29233	8
1.29600	8
1.29967	8
1.30333	7
1.30700	6
1.31067	6
1.31433	6
1.31800	6
1.32167	8
1.32533	9
1.32900	10
1.33267	11
1.33633	13
1.34000	12
1.34367	8
1.34733	7
1.35100	8
1.35467	10
1.35833	12
1.36200	12
1.36567	12
1.36933	11
1.37300	12
1.37667	15
1.38033	15
1.38400	15
1.38767	15
1.39133	12
1.39500	9
1.39867	9
1.40233	7
1.40600	7
1.40967	10
1.41333	10
1.41700	11
1.42067	12
1.42433	12
1.42800	13
1.43167	13
1.43533	12
1.43900	9
1.44267	8
1.44633	9
1.45000	11
1.45367	10
1.45733	9
1.46100	8
1.46467	6
1.46833	6
1.47200	7
1.47567	8
1.47933	10
1.48300	10
1.48667	10
1.49033	9
1.49400	7
1.49767	8
1.50133	8
1.50500	7
1.50867	7
1.51233	8
1.51600	10
1.51967	8
1.52333	8
1.52700	6
1.53067	5
1.53433	6
1.53800	8
1.54167	8
1.54533	7
1.54900	7
1.55267	5
1.55633	3
1.56000	4
1.56367	7
1.56733	7
1.57100	9
1.57467	10
1.57833	13
1.58200	14
1.58567	13
1.58933	14
1.59300	16
1.59667	16
1.60033	16
1.60400	15
1.60767	18
1.61133	17
1.61500	17
1.61867	17
1.62233	16
1.62600	16
1.62967	18
1.63333	19
1.63700	18
1.64067	16
1.64433	16
1.64800	17
1.65167	19
1.65533	20
1.65900	19
1.66267	20
1.66633	20
1.67000	21
1.67367	21
1.67733	22
1.68100	24
1.68467	27
1.68833	29
1.69200	31
1.69567	32
1.69933	32
1.70300	30
1.70667	27
1.71033	24
1.71400	24
1.71767	23
1.72133	24
1.72500	26
1.72867	27
1.73233	26
1.73600	24
1.73967	24
1.74333	25
1.74700	27
1.75067	28
1.75433	28
1.75800	29
1.76167	32
1.76533	32
1.76900	32
1.77267	33
1.77633	33
1.78000	34
1.78367	34
1.78733	34
1.79100	34
1.79467	35
1.79833	35
1.80200	36
1.80567	36
1.80933	36
1.81300	36
1.81667	36
1.82033	35
1.82400	33
1.82767	32
1.83133	33
1.83500	36
1.83867	40
1.84233	44
1.84600	46
1.84967	46
1.85333	45
1.85700	45
1.86067	46
1.86433	45
1.86800	45
1.87167	44
1.87533	43
1.87900	43
1.88267	47
1.88633	50
1.89000	51
1.89367	52
1.89733	50
1.90100	49
1.90467	51
1.90833	52
1.91200	53
1.91567	53
1.91933	54
1.92300	56
1.92667	57
1.93033	57
1.93400	58
1.93767	60
1.94133	58
1.94500	56
1.94867	56
1.95233	57
1.95600	60
1.95967	63
1.96333	67
1.96700	67
1.97067	66
1.97433	66
1.97800	66
1.98167	68
1.98533	69
1.98900	70
1.99267	69
1.99633	71
2.00000	72
2.00367	74
2.00733	77
2.01100	80
2.01467	83
2.01833	86
2.02200	87
2.02567	88
2.02933	89
2.03300	89
2.03667	87
2.04033	85
2.04400	87
2.04767	90
2.05133	93
2.05500	97
2.05867	98
2.06233	96
2.06600	93
2.06967	94
2.07333	96
2.07700	100
2.08067	102
2.08433	104
2.08800	107
2.09167	109
2.09533	110
2.09900	109
2.10267	110
2.10633	113
2.11000	114
2.11367	114
2.11733	115
2.12100	117
2.12467	118
2.12833	118
2.13200	117
2.13567	118
2.13933	122
2.14300	124
2.14667	126
2.15033	128
2.15400	129
2.15767	134
2.16133	139
2.16500	143
2.16867	143
2.17233	143
2.17600	145
2.17967	148
2.18333	150
2.18700	153
2.19067	154
2.19433	154
2.19800	156
2.20167	156
2.20533	154
2.20900	155
2.21267	156
2.21633	159
2.22000	161
2.22367	162
2.22733	164
2.23100	166
2.23467	167
2.23833	168
2.24200	169
2.24567	169
2.24933	168
2.25300	169
2.25667	172
2.26033	173
2.26400	175
2.26767	176
2.27133	175
2.27500	174
2.27867	176
2.28233	179
2.28600	180
2.28967	183
2.29333	188
2.29700	192
2.30067	193
2.30433	192
2.30800	191
2.31167	193
2.31533	196
2.31900	198
2.32267	198
2.32633	198
2.33000	200
2.33367	202
2.33733	203
2.34100	203
2.34467	203
2.34833	202
2.35200	203
2.35567	206
2.35933	208
2.36300	210
2.36667	212
2.37033	213
2.37400	214
2.37767	213
2.38133	214
2.38500	215
2.38867	216
2.39233	216
2.39600	215
2.39967	217
2.40333	220
2.40700	222
2.41067	226
2.41433	229
2.41800	232
2.42167	236
2.42533	238
2.42900	238
2.43267	236
2.43633	235
2.44000	238
2.44367	300
2.44733	463
2.45100	637
2.45467	780
2.45833	861
2.46200	867
2.46567	830
2.46933	785
2.47300	749
2.47667	727
2.48033	709
2.48400	679
2.48767	634
2.49133	583
2.49500	534
2.49867	493
2.50233	462
2.50600	442
2.50967	434
2.51333	439
2.51700	457
2.52067	481
2.52433	504
2.52800	519
2.53167	520
2.53533	506
2.53900	480
2.54267	448
2.54633	415
2.55000	381
2.55367	350
2.55733	323
2.56100	305
2.56467	291
2.56833	279
2.57200	272
2.57567	268
2.57933	264
2.58300	263
2.58667	263
2.59033	266
2.59400	268
2.59767	269
2.60133	267
2.60500	262
2.60867	253
2.61233	241
2.61600	228
2.61967	215
2.62333	202
2.62700	191
2.63067	182
2.63433	170
2.63800	159
2.64167	148
2.64533	137
2.64900	126
2.65267	115
2.65633	104
2.66000	91
2.66367	79
2.66733	69
2.67100	61
2.67467	52
2.67833	43
2.68200	37
2.68567	34
2.68933	32
2.69300	32
2.69667	32
2.70033	32
2.70400	33
2.70767	35
2.71133	39
2.71500	45
2.71867	51
2.72233	55
2.72600	60
2.72967	64
2.73333	70
2.73700	75
2.74067	78
2.74433	81
2.74800	83
2.75167	85
2.75533	88
2.75900	92
2.76267	97
2.76633	100
2.77000	104
2.77367	108
2.77733	111
2.78100	114
2.78467	119
2.78833	123
2.79200	128
2.79567	133
2.79933	138
2.80300	142
2.80667	146
2.81033	150
2.81400	157
2.81767	166
2.82133	178
2.82500	198
2.82867	235
2.83233	300
2.83600	417
2.83967	605
2.84333	882
2.84700	1256
2.85067	1723
2.85433	2259
2.85800	2833
2.86167	3401
2.86533	3917
2.86900	4338
2.87267	4633
2.87633	4794
2.88000	4818
2.88367	4717
2.88733	4518
2.89100	4252
2.89467	3941
2.89833	3609
2.90200	3274
2.90567	2947
2.90933	2634
2.91300	2345
2.91667	2081
2.92033	1843
2.92400	1631
2.92767	1443
2.93133	1277
2.93500	1130
2.93867	1000
2.94233	887
2.94600	790
2.94967	705
2.95333	635
2.95700	574
2.96067	518
2.96433	465
2.96800	421
2.97167	382
2.97533	349
2.97900	323
2.98267	300
2.98633	277
2.99000	257
2.99367	239
2.99733	226
3.00100	214
3.00467	204
3.00833	196
3.01200	189
3.01567	184
3.01933	178
3.02300	173
3.02667	168
3.03033	164
3.03400	161
3.03767	159
3.04133	158
3.04500	155
3.04867	153
3.05233	152
3.05600	149
3.05967	148
3.06333	147
3.06700	146
3.07067	145
3.07433	144
3.07800	143
3.08167	142
3.08533	140
3.08900	138
3.09267	137
3.09633	139
3.10000	142
3.10367	142
3.10733	142
3.11100	141
3.11467	139
3.11833	139
3.12200	139
3.12567	142
3.12933	144
3.13300	148
3.13667	150
3.14033	148
3.14400	144
3.14767	143
3.15133	150
3.15500	161
3.15867	175
3.16233	200
3.16600	233
3.16967	272
3.17333	314
3.17700	354
3.18067	392
3.18433	429
3.18800	461
3.19167	490
3.19533	516
3.19900	539
3.20267	559
3.20633	576
3.21000	590
3.21367	602
3.21733	616
3.22100	630
3.22467	642
3.22833	655
3.23200	666
3.23567	674
3.23933	680
3.24300	686
3.24667	693
3.25033	699
3.25400	704
3.25767	712
3.26133	720
3.26500	728
3.26867	734
3.27233	738
3.27600	743
3.27967	749
3.28333	757
3.28700	766
3.29067	774
3.29433	780
3.29800	785
3.30167	791
3.30533	796
3.30900	802
3.31267	805
3.31633	809
3.32000	813
3.32367	816
3.32733	818
3.33100	819
3.33467	821
3.33833	823
3.34200	826
3.34567	828
3.34933	829
3.35300	829
3.35667	828
3.36033	826
3.36400	826
3.36767	825
3.37133	823
3.37500	822
3.37867	824
3.38233	824
3.38600	824
3.38967	821
3.39333	819
3.39700	816
3.40067	814
3.40433	812
3.40800	811
3.41167	810
3.41533	810
3.41900	808
3.42267	804
3.42633	800
3.43000	798
3.43367	795
3.43733	795
3.44100	793
3.44467	790
3.44833	788
3.45200	787
3.45567	783
3.45933	779
3.46300	778
3.46667	777
3.47033	774
3.47400	772
3.47767	770
3.48133	767
3.48500	765
3.48867	762
3.49233	759
3.49600	759
3.49967	759
3.50333	758
3.50700	757
3.51067	754
3.51433	755
3.51800	758
3.52167	757
3.52533	758
3.52900	756
3.53267	753
3.53633	752
3.54000	753
3.54367	753
3.54733	752
3.55100	749
3.55467	747
3.55833	747
3.56200	748
3.56567	746
3.56933	746
3.57300	747
3.57667	748
3.58033	747
3.58400	744
3.58767	744
3.59133	745
3.59500	745
3.59867	745
3.60233	746
3.60600	745
3.60967	743
3.61333	741
3.61700	739
3.62067	737
3.62433	736
3.62800	737
3.63167	736
3.63533	734
3.63900	731
3.64267	730
3.64633	729
3.65000	727
3.65367	728
3.65733	728
3.66100	725
3.66467	723
3.66833	723
3.67200	724
3.67567	724
3.67933	723
3.68300	721
3.68667	720
3.69033	717
3.69400	714
3.69767	713
3.70133	712
3.70500	711
3.70867	710
3.71233	707
3.71600	705
3.71967	703
3.72333	699
3.72700	696
3.73067	692
3.73433	688
3.73800	687
3.74167	688
3.74533	689
3.74900	690
3.75267	688
3.75633	685
3.76000	684
3.76367	682
3.76733	681
3.77100	679
3.77467	676
3.77833	673
3.78200	672
3.78567	670
3.78933	667
3.79300	663
3.79667	662
3.80033	663
3.80400	662
3.80767	663
3.81133	664
3.81500	660
3.81867	660
3.82233	657
3.82600	652
3.82967	649
3.83333	646
3.83700	645
3.84067	645
3.84433	644
3.84800	643
3.85167	640
3.85533	638
3.85900	637
3.86267	633
3.86633	629
3.87000	628
3.87367	629
3.87733	629
3.88100	626
3.88467	623
3.88833	623
3.89200	622
3.89567	619
3.89933	615
3.90300	612
3.90667	610
3.91033	609
3.91400	609
3.91767	607
3.92133	604
3.92500	601
3.92867	597
3.93233	595
3.93600	593
3.93967	593
3.94333	592
3.94700	592
3.95067	589
3.95433	587
3.95800	587
3.96167	585
3.96533	583
3.96900	580
3.97267	578
3.97633	577
3.98000	578
3.98367	580
3.98733	580
3.99100	580
3.99467	577
3.99833	574

[Status Trace (Column Oven Temperature)]
Interval(msec)	1000
# of Points	240
Start Time(min)	0.016
End Time(min)	3.999
Intensity Units	
Intensity Multiplier	1
R.Time (min)	Intensity
0.01603	35.09
0.03270	35.07
0.04937	35.06
0.06603	35.05
0.08270	35.05
0.09937	35.06
0.11603	35.06
0.13270	35.06
0.14937	35.06
0.16603	35.06
0.18270	35.05
0.19937	35.04
0.21603	35.03
0.23270	35.02
0.24937	35.02
0.26603	35.02
0.28270	35.02
0.29937	35.02
0.31603	35.03
0.33270	35.02
0.34937	35.03
0.36603	35.03
0.38270	35.03
0.39937	35.03
0.41603	35.01
0.43270	34.99
0.44937	35.00
0.46603	35.00
0.48270	35.00
0.49937	35.00
0.51603	35.00
0.53270	34.99
0.54937	34.98
0.56603	34.97
0.58270	34.97
0.59937	34.96
0.61603	34.97
0.63270	35.00
0.64937	35.00
0.66603	35.01
0.68270	35.02
0.69937	35.03
0.71603	35.02
0.73270	35.01
0.74937	35.00
0.76603	35.00
0.78270	35.01
0.79937	35.01
0.81603	35.00
0.83270	35.00
0.84937	35.00
0.86603	35.00
0.88270	34.99
0.89937	34.99
0.91603	34.97
0.93270	34.98
0.94937	34.97
0.96603	34.95
0.98270	34.96
0.99937	34.96
1.01603	34.96
1.03270	34.97
1.04937	34.98
1.06603	35.00
1.08270	35.01
1.09937	35.02
1.11603	35.01
1.13270	35.01
1.14937	35.01
1.16603	35.01
1.18270	35.00
1.19937	34.99
1.21603	34.99
1.23270	34.97
1.24937	34.97
1.26603	34.97
1.28270	34.99
1.29937	34.98
1.31603	34.98
1.33270	34.98
1.34937	34.97
1.36603	34.97
1.38270	34.96
1.39937	34.95
1.41603	34.96
1.43270	34.96
1.44937	34.97
1.46603	34.99
1.48270	35.00
1.49937	34.99
1.51603	34.98
1.53270	34.98
1.54937	34.98
1.56603	34.97
1.58270	34.99
1.59937	35.02
1.61603	35.12
1.63270	35.29
1.64937	35.50
1.66603	35.79
1.68270	36.16
1.69937	36.54
1.71603	36.87
1.73270	37.18
1.74937	37.47
1.76603	37.82
1.78270	38.17
1.79937	38.50
1.81603	38.82
1.83270	39.16
1.84937	39.50
1.86603	39.83
1.88270	40.17
1.89937	40.48
1.91603	40.81
1.93270	41.13
1.94937	41.47
1.96603	41.79
1.98270	42.12
1.99937	42.43
2.01603	42.76
2.03270	43.09
2.04937	43.44
2.06603	43.77
2.08270	44.08
2.09937	44.41
2.11603	44.73
2.13270	45.08
2.14937	45.38
2.16603	45.73
2.18270	46.06
2.19937	46.40
2.21603	46.73
2.23270	47.04
2.24937	47.37
2.26603	47.69
2.28270	48.02
2.29937	48.33
2.31603	48.67
2.33270	48.99
2.34937	49.30
2.36603	49.53
2.38270	49.66
2.39937	49.67
2.41603	49.66
2.43270	49.67
2.44937	49.67
2.46603	49.69
2.48270	49.69
2.49937	49.73
2.51603	49.72
2.53270	49.74
2.54937	49.75
2.56603	49.76
2.58270	49.78
2.59937	49.79
2.61603	49.81
2.63270	49.81
2.64937	49.82
2.66603	49.82
2.68270	49.83
2.69937	49.85
2.71603	49.85
2.73270	49.85
2.74937	49.87
2.76603	49.89
2.78270	49.89
2.79937	49.88
2.81603	49.88
2.83270	49.87
2.84937	49.87
2.86603	49.87
2.88270	49.88
2.89937	49.88
2.91603	49.90
2.93270	49.92
2.94937	49.95
2.96603	49.98
2.98270	50.00
2.99937	50.02
3.01603	50.04
3.03270	50.05
3.04937	50.05
3.06603	50.05
3.08270	50.06
3.09937	50.06
3.11603	50.05
3.13270	50.07
3.14937	50.07
3.16603	50.08
3.18270	50.08
3.19937	50.08
3.21603	50.09
3.23270	50.10
3.24937	50.10
3.26603	50.10
3.28270	50.10
3.29937	50.08
3.31603	50.08
3.33270	50.07
3.34937	50.05
3.36603	50.04
3.38270	50.03
3.39937	50.01
3.41603	50.01
3.43270	50.01
3.44937	50.00
3.46603	50.00
3.48270	50.00
3.49937	50.00
3.51603	50.01
3.53270	50.02
3.54937	50.03
3.56603	50.03
3.58270	50.03
3.59937	50.02
3.61603	50.02
3.63270	50.03
3.64937	50.04
3.66603	50.05
3.68270	50.06
3.69937	50.07
3.71603	50.08
3.73270	50.08
3.74937	50.09
3.76603	50.08
3.78270	50.08
3.79937	50.07
3.81603	50.07
3.83270	50.07
3.84937	50.07
3.86603	50.07
3.88270	50.08
3.89937	50.07
3.91603	50.06
3.93270	50.05
3.94937	50.05
3.96603	50.05
3.98270	50.06
3.99937	50.06

[Status Trace (Injection Unit Temperature)]
Interval(msec)	1000
# of Points	240
Start Time(min)	0.016
End Time(min)	3.999
Intensity Units	
Intensity Multiplier	1
R.Time (min)	Intensity
0.01603	99.98
0.03270	99.98
0.04937	99.98
0.06603	99.97
0.08270	99.98
0.09937	99.98
0.11603	99.98
0.13270	99.98
0.14937	99.98
0.16603	99.98
0.18270	99.98
0.19937	99.98
0.21603	99.98
0.23270	99.98
0.24937	99.98
0.26603	99.98
0.28270	99.99
0.29937	99.98
0.31603	99.98
0.33270	99.98
0.34937	99.98
0.36603	99.98
0.38270	99.99
0.39937	99.98
0.41603	99.98
0.43270	99.98
0.44937	99.98
0.46603	99.99
0.48270	99.98
0.49937	99.98
0.51603	99.98
0.53270	99.98
0.54937	99.99
0.56603	99.98
0.58270	99.98
0.59937	99.98
0.61603	99.98
0.63270	99.98
0.64937	99.99
0.66603	99.98
0.68270	99.98
0.69937	99.98
0.71603	99.98
0.73270	99.98
0.74937	99.98
0.76603	99.98
0.78270	99.98
0.79937	99.98
0.81603	99.98
0.83270	99.98
0.84937	99.98
0.86603	99.98
0.88270	99.98
0.89937	99.98
0.91603	99.98
0.93270	99.98
0.94937	99.98
0.96603	99.98
0.98270	99.98
0.99937	99.98
1.01603	99.98
1.03270	99.98
1.04937	99.98
1.06603	99.98
1.08270	99.98
1.09937	99.98
1.11603	99.98
1.13270	99.98
1.14937	99.98
1.16603	99.98
1.18270	99.98
1.19937	99.97
1.21603	99.98
1.23270	99.98
1.24937	99.98
1.26603	99.98
1.28270	99.98
1.29937	99.98
1.31603	99.98
1.33270	99.98
1.34937	99.98
1.36603	99.98
1.38270	99.98
1.39937	99.98
1.41603	99.98
1.43270	99.99
1.44937	99.98
1.46603	99.99
1.48270	99.99
1.49937	99.98
1.51603	99.99
1.53270	99.98
1.54937	99.99
1.56603	99.98
1.58270	99.98
1.59937	99.99
1.61603	99.99
1.63270	99.98
1.64937	99.99
1.66603	99.99
1.68270	99.98
1.69937	99.97
1.71603	99.98
1.73270	99.99
1.74937	99.98
1.76603	99.98
1.78270	99.98
1.79937	99.98
1.81603	99.98
1.83270	99.99
1.84937	99.97
1.86603	99.98
1.88270	99.98
1.89937	99.98
1.91603	99.97
1.93270	99.97
1.94937	99.98
1.96603	99.97
1.98270	99.97
1.99937	99.97
2.01603	99.97
2.03270	99.96
2.04937	99.97
2.06603	99.97
2.08270	99.97
2.09937	99.97
2.11603	99.97
2.13270	99.97
2.14937	99.97
2.16603	99.96
2.18270	99.97
2.19937	99.97
2.21603	99.96
2.23270	99.97
2.24937	99.97
2.26603	99.97
2.28270	99.97
2.29937	99.97
2.31603	99.97
2.33270	99.97
2.34937	99.96
2.36603	99.97
2.38270	99.97
2.39937	99.97
2.41603	99.97
2.43270	99.97
2.44937	99.97
2.46603	99.97
2.48270	99.97
2.49937	99.97
2.51603	99.97
2.53270	99.97
2.54937	99.98
2.56603	99.98
2.58270	99.98
2.59937	99.98
2.61603	99.98
2.63270	99.98
2.64937	99.98
2.66603	99.99
2.68270	99.99
2.69937	99.99
2.71603	99.99
2.73270	99.99
2.74937	99.99
2.76603	99.99
2.78270	99.99
2.79937	99.99
2.81603	100.00
2.83270	100.00
2.84937	100.00
2.86603	100.00
2.88270	100.00
2.89937	100.00
2.91603	100.01
2.93270	100.00
2.94937	100.01
2.96603	100.01
2.98270	100.01
2.99937	100.01
3.01603	100.01
3.03270	100.01
3.04937	100.02
3.06603	100.01
3.08270	100.02
3.09937	100.02
3.11603	100.02
3.13270	100.02
3.14937	100.02
3.16603	100.02
3.18270	100.02
3.19937	100.02
3.21603	100.02
3.23270	100.02
3.24937	100.02
3.26603	100.03
3.28270	100.03
3.29937	100.03
3.31603	100.03
3.33270	100.03
3.34937	100.03
3.36603	100.04
3.38270	100.04
3.39937	100.03
3.41603	100.03
3.43270	100.04
3.44937	100.04
3.46603	100.04
3.48270	100.04
3.49937	100.04
3.51603	100.03
3.53270	100.04
3.54937	100.04
3.56603	100.04
3.58270	100.04
3.59937	100.04
3.61603	100.04
3.63270	100.04
3.64937	100.04
3.66603	100.04
3.68270	100.04
3.69937	100.04
3.71603	100.04
3.73270	100.04
3.74937	100.04
3.76603	100.04
3.78270	100.04
3.79937	100.04
3.81603	100.04
3.83270	100.04
3.84937	100.04
3.86603	100.04
3.88270	100.04
3.89937	100.04
3.91603	100.04
3.93270	100.04
3.94937	100.04
3.96603	100.04
3.98270	100.04
3.99937	100.04

[Status Trace (Carrier Gas Pressure)]
Interval(msec)	1000
# of Points	240
Start Time(min)	0.016
End Time(min)	3.999
Intensity Units	
Intensity Multiplier	1
R.Time (min)	Intensity
0.01603	56.86
0.03270	55.77
0.04937	58.17
0.06603	59.90
0.08270	58.56
0.09937	57.97
0.11603	58.00
0.13270	58.01
0.14937	58.01
0.16603	58.00
0.18270	58.00
0.19937	58.00
0.21603	58.00
0.23270	58.00
0.24937	58.00
0.26603	58.00
0.28270	58.00
0.29937	58.00
0.31603	58.00
0.33270	58.00
0.34937	58.00
0.36603	58.00
0.38270	58.00
0.39937	58.00
0.41603	58.00
0.43270	58.00
0.44937	58.00
0.46603	58.00
0.48270	58.00
0.49937	58.00
0.51603	58.00
0.53270	58.00
0.54937	58.00
0.56603	58.00
0.58270	58.00
0.59937	58.00
0.61603	58.00
0.63270	58.00
0.64937	58.00
0.66603	58.00
0.68270	58.00
0.69937	58.00
0.71603	58.00
0.73270	58.00
0.74937	58.00
0.76603	58.00
0.78270	58.00
0.79937	58.00
0.81603	58.00
0.83270	58.00
0.84937	58.00
0.86603	58.00
0.88270	58.00
0.89937	58.00
0.91603	58.00
0.93270	58.00
0.94937	58.00
0.96603	58.00
0.98270	58.00
0.99937	58.00
1.01603	58.00
1.03270	58.00
1.04937	58.00
1.06603	58.00
1.08270	58.00
1.09937	58.00
1.11603	58.00
1.13270	58.00
1.14937	58.00
1.16603	58.00
1.18270	58.00
1.19937	58.00
1.21603	58.00
1.23270	58.00
1.24937	58.00
1.26603	58.00
1.28270	58.00
1.29937	58.00
1.31603	58.00
1.33270	58.00
1.34937	58.00
1.36603	58.00
1.38270	58.00
1.39937	58.00
1.41603	58.00
1.43270	58.00
1.44937	58.00
1.46603	58.00
1.48270	58.00
1.49937	58.00
1.51603	58.00
1.53270	58.00
1.54937	58.00
1.56603	58.00
1.58270	58.00
1.59937	58.00
1.61603	58.00
1.63270	58.00
1.64937	58.00
1.66603	58.01
1.68270	58.01
1.69937	58.00
1.71603	58.00
1.73270	58.00
1.74937	58.00
1.76603	58.00
1.78270	58.00
1.79937	58.00
1.81603	58.00
1.83270	58.00
1.84937	58.00
1.86603	58.00
1.88270	58.00
1.89937	58.00
1.91603	58.00
1.93270	58.00
1.94937	58.00
1.96603	58.00
1.98270	58.00
1.99937	58.00
2.01603	58.00
2.03270	58.00
2.04937	58.00
2.06603	58.00
2.08270	58.00
2.09937	58.00
2.11603	58.00
2.13270	58.00
2.14937	58.00
2.16603	58.00
2.18270	58.00
2.19937	58.00
2.21603	58.00
2.23270	58.00
2.24937	58.00
2.26603	58.00
2.28270	58.00
2.29937	58.00
2.31603	58.00
2.33270	58.00
2.34937	58.00
2.36603	58.00
2.38270	57.99
2.39937	57.99
2.41603	58.00
2.43270	58.00
2.44937	58.00
2.46603	58.00
2.48270	58.00
2.49937	58.00
2.51603	57.99
2.53270	57.99
2.54937	58.00
2.56603	58.00
2.58270	58.00
2.59937	58.00
2.61603	58.00
2.63270	58.00
2.64937	58.00
2.66603	58.00
2.68270	58.00
2.69937	58.00
2.71603	58.00
2.73270	58.00
2.74937	58.00
2.76603	58.00
2.78270	58.00
2.79937	58.00
2.81603	58.00
2.83270	58.00
2.84937	58.00
2.86603	58.00
2.88270	58.00
2.89937	58.00
2.91603	58.00
2.93270	58.00
2.94937	58.00
2.96603	58.00
2.98270	58.00
2.99937	58.00
3.01603	58.00
3.03270	58.00
3.04937	58.00
3.06603	58.00
3.08270	58.00
3.09937	58.00
3.11603	58.00
3.13270	58.00
3.14937	58.00
3.16603	58.00
3.18270	58.00
3.19937	58.00
3.21603	58.00
3.23270	58.00
3.24937	58.00
3.26603	58.00
3.28270	58.00
3.29937	58.00
3.31603	58.00
3.33270	58.00
3.34937	58.00
3.36603	58.00
3.38270	58.00
3.39937	58.00
3.41603	58.00
3.43270	58.00
3.44937	58.00
3.46603	58.00
3.48270	58.00
3.49937	58.00
3.51603	58.00
3.53270	58.00
3.54937	58.00
3.56603	58.00
3.58270	58.00
3.59937	58.00
3.61603	58.00
3.63270	58.00
3.64937	58.00
3.66603	58.00
3.68270	58.00
3.69937	58.00
3.71603	58.00
3.73270	58.00
3.74937	58.00
3.76603	58.00
3.78270	58.00
3.79937	58.00
3.81603	58.00
3.83270	58.00
3.84937	58.00
3.86603	58.00
3.88270	58.00
3.89937	58.00
3.91603	58.00
3.93270	58.00
3.94937	58.00
3.96603	58.00
3.98270	58.00
3.99937	58.00

[Status Trace (Carrier Gas Flow)]
Interval(msec)	1000
# of Points	240
Start Time(min)	0.016
End Time(min)	3.999
Intensity Units	
Intensity Multiplier	1
R.Time (min)	Intensity
0.01603	33.74
0.03270	34.54
0.04937	34.54
0.06603	34.50
0.08270	34.52
0.09937	34.52
0.11603	34.52
0.13270	34.51
0.14937	34.52
0.16603	34.52
0.18270	34.52
0.19937	34.53
0.21603	34.53
0.23270	34.51
0.24937	34.51
0.26603	34.52
0.28270	34.52
0.29937	34.52
0.31603	34.52
0.33270	34.52
0.34937	34.52
0.36603	34.52
0.38270	34.52
0.39937	34.52
0.41603	34.52
0.43270	34.52
0.44937	34.52
0.46603	34.52
0.48270	34.52
0.49937	34.51
0.51603	34.52
0.53270	34.52
0.54937	34.52
0.56603	34.52
0.58270	34.52
0.59937	34.52
0.61603	34.52
0.63270	34.52
0.64937	34.52
0.66603	34.52
0.68270	34.52
0.69937	34.51
0.71603	34.52
0.73270	34.53
0.74937	34.52
0.76603	34.52
0.78270	34.52
0.79937	34.52
0.81603	34.52
0.83270	34.52
0.84937	34.52
0.86603	34.52
0.88270	34.52
0.89937	34.51
0.91603	34.52
0.93270	34.52
0.94937	34.52
0.96603	34.52
0.98270	34.52
0.99937	34.52
1.01603	34.52
1.03270	34.52
1.04937	34.52
1.06603	34.52
1.08270	34.52
1.09937	34.52
1.11603	34.52
1.13270	34.52
1.14937	34.52
1.16603	34.52
1.18270	34.52
1.19937	34.52
1.21603	34.52
1.23270	34.52
1.24937	34.52
1.26603	34.52
1.28270	34.51
1.29937	34.52
1.31603	34.52
1.33270	34.52
1.34937	34.52
1.36603	34.52
1.38270	34.52
1.39937	34.52
1.41603	34.52
1.43270	34.52
1.44937	34.52
1.46603	34.52
1.48270	34.52
1.49937	34.52
1.51603	34.52
1.53270	34.52
1.54937	34.52
1.56603	34.52
1.58270	34.52
1.59937	34.52
1.61603	34.52
1.63270	34.52
1.64937	34.52
1.66603	34.52
1.68270	34.52
1.69937	34.52
1.71603	34.52
1.73270	34.51
1.74937	34.52
1.76603	34.52
1.78270	34.52
1.79937	34.51
1.81603	34.52
1.83270	34.52
1.84937	34.52
1.86603	34.52
1.88270	34.52
1.89937	34.52
1.91603	34.52
1.93270	34.52
1.94937	34.52
1.96603	34.51
1.98270	34.52
1.99937	34.51
2.01603	34.51
2.03270	34.52
2.04937	34.52
2.06603	34.52
2.08270	34.52
2.09937	34.52
2.11603	34.52
2.13270	34.52
2.14937	34.52
2.16603	34.52
2.18270	34.52
2.19937	34.52
2.21603	34.51
2.23270	34.52
2.24937	34.52
2.26603	34.52
2.28270	34.52
2.29937	34.52
2.31603	34.52
2.33270	34.52
2.34937	34.52
2.36603	34.52
2.38270	34.52
2.39937	34.51
2.41603	34.52
2.43270	34.52
2.44937	34.52
2.46603	34.52
2.48270	34.52
2.49937	34.52
2.51603	34.53
2.53270	34.52
2.54937	34.52
2.56603	34.51
2.58270	34.52
2.59937	34.52
2.61603	34.52
2.63270	34.52
2.64937	34.52
2.66603	34.51
2.68270	34.52
2.69937	34.52
2.71603	34.52
2.73270	34.53
2.74937	34.52
2.76603	34.52
2.78270	34.53
2.79937	34.52
2.81603	34.51
2.83270	34.52
2.84937	34.51
2.86603	34.52
2.88270	34.52
2.89937	34.52
2.91603	34.52
2.93270	34.52
2.94937	34.52
2.96603	34.52
2.98270	34.52
2.99937	34.51
3.01603	34.52
3.03270	34.52
3.04937	34.52
3.06603	34.52
3.08270	34.52
3.09937	34.51
3.11603	34.52
3.13270	34.52
3.14937	34.52
3.16603	34.52
3.18270	34.53
3.19937	34.52
3.21603	34.52
3.23270	34.52
3.24937	34.52
3.26603	34.52
3.28270	34.52
3.29937	34.51
3.31603	34.52
3.33270	34.52
3.34937	34.52
3.36603	34.51
3.38270	34.52
3.39937	34.52
3.41603	34.52
3.43270	34.52
3.44937	34.52
3.46603	34.53
3.48270	34.52
3.49937	34.51
3.51603	34.52
3.53270	34.51
3.54937	34.52
3.56603	34.52
3.58270	34.52
3.59937	34.52
3.61603	34.52
3.63270	34.52
3.64937	34.53
3.66603	34.52
3.68270	34.51
3.69937	34.52
3.71603	34.52
3.73270	34.52
3.74937	34.52
3.76603	34.52
3.78270	34.52
3.79937	34.52
3.81603	34.52
3.83270	34.52
3.84937	34.52
3.86603	34.52
3.88270	34.52
3.89937	34.52
3.91603	34.51
3.93270	34.52
3.94937	34.52
3.96603	34.52
3.98270	34.52
3.99937	34.51

[Status Trace (Column Flow)]
Interval(msec)	1000
# of Points	240
Start Time(min)	0.016
End Time(min)	3.999
Intensity Units	
Intensity Multiplier	1
R.Time (min)	Intensity
0.01603	5.42
0.03270	5.29
0.04937	5.57
0.06603	5.77
0.08270	5.62
0.09937	5.55
0.11603	5.55
0.13270	5.55
0.14937	5.55
0.16603	5.55
0.18270	5.55
0.19937	5.55
0.21603	5.55
0.23270	5.55
0.24937	5.55
0.26603	5.55
0.28270	5.55
0.29937	5.55
0.31603	5.55
0.33270	5.55
0.34937	5.55
0.36603	5.55
0.38270	5.55
0.39937	5.55
0.41603	5.55
0.43270	5.55
0.44937	5.55
0.46603	5.55
0.48270	5.55
0.49937	5.55
0.51603	5.55
0.53270	5.55
0.54937	5.55
0.56603	5.55
0.58270	5.55
0.59937	5.55
0.61603	5.55
0.63270	5.55
0.64937	5.55
0.66603	5.55
0.68270	5.55
0.69937	5.55
0.71603	5.55
0.73270	5.55
0.74937	5.55
0.76603	5.55
0.78270	5.55
0.79937	5.55
0.81603	5.55
0.83270	5.55
0.84937	5.55
0.86603	5.55
0.88270	5.55
0.89937	5.55
0.91603	5.55
0.93270	5.55
0.94937	5.55
0.96603	5.55
0.98270	5.55
0.99937	5.55
1.01603	5.55
1.03270	5.55
1.04937	5.55
1.06603	5.55
1.08270	5.55
1.09937	5.55
1.11603	5.55
1.13270	5.55
1.14937	5.55
1.16603	5.55
1.18270	5.55
1.19937	5.55
1.21603	5.55
1.23270	5.55
1.24937	5.55
1.26603	5.55
1.28270	5.55
1.29937	5.55
1.31603	5.55
1.33270	5.55
1.34937	5.55
1.36603	5.55
1.38270	5.55
1.39937	5.55
1.41603	5.55
1.43270	5.55
1.44937	5.55
1.46603	5.55
1.48270	5.55
1.49937	5.55
1.51603	5.55
1.53270	5.55
1.54937	5.55
1.56603	5.55
1.58270	5.55
1.59937	5.55
1.61603	5.55
1.63270	5.54
1.64937	5.54
1.66603	5.53
1.68270	5.52
1.69937	5.50
1.71603	5.49
1.73270	5.48
1.74937	5.48
1.76603	5.46
1.78270	5.45
1.79937	5.44
1.81603	5.43
1.83270	5.42
1.84937	5.41
1.86603	5.40
1.88270	5.39
1.89937	5.38
1.91603	5.37
1.93270	5.36
1.94937	5.35
1.96603	5.34
1.98270	5.33
1.99937	5.32
2.01603	5.31
2.03270	5.30
2.04937	5.29
2.06603	5.28
2.08270	5.28
2.09937	5.27
2.11603	5.26
2.13270	5.25
2.14937	5.24
2.16603	5.23
2.18270	5.22
2.19937	5.21
2.21603	5.20
2.23270	5.19
2.24937	5.18
2.26603	5.17
2.28270	5.16
2.29937	5.15
2.31603	5.14
2.33270	5.13
2.34937	5.13
2.36603	5.12
2.38270	5.12
2.39937	5.12
2.41603	5.12
2.43270	5.12
2.44937	5.12
2.46603	5.12
2.48270	5.12
2.49937	5.11
2.51603	5.11
2.53270	5.11
2.54937	5.11
2.56603	5.11
2.58270	5.11
2.59937	5.11
2.61603	5.11
2.63270	5.11
2.64937	5.11
2.66603	5.11
2.68270	5.11
2.69937	5.11
2.71603	5.11
2.73270	5.11
2.74937	5.11
2.76603	5.11
2.78270	5.11
2.79937	5.11
2.81603	5.11
2.83270	5.11
2.84937	5.11
2.86603	5.11
2.88270	5.11
2.89937	5.11
2.91603	5.11
2.93270	5.11
2.94937	5.11
2.96603	5.11
2.98270	5.11
2.99937	5.11
3.01603	5.11
3.03270	5.11
3.04937	5.11
3.06603	5.11
3.08270	5.11
3.09937	5.11
3.11603	5.11
3.13270	5.11
3.14937	5.10
3.16603	5.10
3.18270	5.10
3.19937	5.10
3.21603	5.10
3.23270	5.10
3.24937	5.10
3.26603	5.10
3.28270	5.10
3.29937	5.10
3.31603	5.10
3.33270	5.11
3.34937	5.11
3.36603	5.11
3.38270	5.11
3.39937	5.11
3.41603	5.11
3.43270	5.11
3.44937	5.11
3.46603	5.11
3.48270	5.11
3.49937	5.11
3.51603	5.11
3.53270	5.11
3.54937	5.11
3.56603	5.11
3.58270	5.11
3.59937	5.11
3.61603	5.11
3.63270	5.11
3.64937	5.11
3.66603	5.11
3.68270	5.10
3.69937	5.10
3.71603	5.10
3.73270	5.10
3.74937	5.10
3.76603	5.10
3.78270	5.10
3.79937	5.10
3.81603	5.10
3.83270	5.10
3.84937	5.10
3.86603	5.10
3.88270	5.10
3.89937	5.10
3.91603	5.10
3.93270	5.10
3.94937	5.11
3.96603	5.11
3.98270	5.10
3.99937	5.10

[Status Trace (Linear Velocity)]
Interval(msec)	1000
# of Points	240
Start Time(min)	0.016
End Time(min)	3.999
Intensity Units	
Intensity Multiplier	1
R.Time (min)	Intensity
0.01603	38.27
0.03270	37.55
0.04937	39.13
0.06603	40.26
0.08270	39.39
0.09937	39.00
0.11603	39.02
0.13270	39.03
0.14937	39.02
0.16603	39.02
0.18270	39.02
0.19937	39.02
0.21603	39.02
0.23270	39.02
0.24937	39.02
0.26603	39.02
0.28270	39.02
0.29937	39.02
0.31603	39.02
0.33270	39.02
0.34937	39.02
0.36603	39.02
0.38270	39.02
0.39937	39.02
0.41603	39.02
0.43270	39.02
0.44937	39.02
0.46603	39.02
0.48270	39.02
0.49937	39.02
0.51603	39.02
0.53270	39.02
0.54937	39.03
0.56603	39.03
0.58270	39.03
0.59937	39.03
0.61603	39.03
0.63270	39.02
0.64937	39.02
0.66603	39.02
0.68270	39.02
0.69937	39.02
0.71603	39.02
0.73270	39.02
0.74937	39.02
0.76603	39.02
0.78270	39.02
0.79937	39.02
0.81603	39.02
0.83270	39.02
0.84937	39.02
0.86603	39.02
0.88270	39.02
0.89937	39.03
0.91603	39.03
0.93270	39.03
0.94937	39.03
0.96603	39.03
0.98270	39.03
0.99937	39.03
1.01603	39.03
1.03270	39.03
1.04937	39.03
1.06603	39.02
1.08270	39.02
1.09937	39.02
1.11603	39.02
1.13270	39.02
1.14937	39.02
1.16603	39.02
1.18270	39.02
1.19937	39.02
1.21603	39.02
1.23270	39.03
1.24937	39.03
1.26603	39.03
1.28270	39.03
1.29937	39.03
1.31603	39.03
1.33270	39.03
1.34937	39.03
1.36603	39.03
1.38270	39.03
1.39937	39.03
1.41603	39.03
1.43270	39.03
1.44937	39.03
1.46603	39.03
1.48270	39.02
1.49937	39.02
1.51603	39.03
1.53270	39.03
1.54937	39.03
1.56603	39.03
1.58270	39.03
1.59937	39.02
1.61603	39.01
1.63270	39.00
1.64937	38.98
1.66603	38.95
1.68270	38.92
1.69937	38.88
1.71603	38.84
1.73270	38.81
1.74937	38.79
1.76603	38.76
1.78270	38.72
1.79937	38.69
1.81603	38.66
1.83270	38.63
1.84937	38.60
1.86603	38.56
1.88270	38.53
1.89937	38.50
1.91603	38.47
1.93270	38.44
1.94937	38.41
1.96603	38.38
1.98270	38.35
1.99937	38.32
2.01603	38.29
2.03270	38.26
2.04937	38.23
2.06603	38.20
2.08270	38.17
2.09937	38.14
2.11603	38.11
2.13270	38.08
2.14937	38.05
2.16603	38.02
2.18270	37.99
2.19937	37.96
2.21603	37.93
2.23270	37.90
2.24937	37.87
2.26603	37.85
2.28270	37.81
2.29937	37.79
2.31603	37.76
2.33270	37.73
2.34937	37.70
2.36603	37.68
2.38270	37.67
2.39937	37.66
2.41603	37.67
2.43270	37.67
2.44937	37.67
2.46603	37.67
2.48270	37.67
2.49937	37.66
2.51603	37.66
2.53270	37.66
2.54937	37.66
2.56603	37.66
2.58270	37.66
2.59937	37.66
2.61603	37.66
2.63270	37.66
2.64937	37.66
2.66603	37.66
2.68270	37.65
2.69937	37.65
2.71603	37.65
2.73270	37.65
2.74937	37.65
2.76603	37.65
2.78270	37.65
2.79937	37.65
2.81603	37.65
2.83270	37.65
2.84937	37.65
2.86603	37.65
2.88270	37.65
2.89937	37.65
2.91603	37.65
2.93270	37.65
2.94937	37.64
2.96603	37.64
2.98270	37.64
2.99937	37.64
3.01603	37.64
3.03270	37.63
3.04937	37.63
3.06603	37.63
3.08270	37.63
3.09937	37.63
3.11603	37.63
3.13270	37.63
3.14937	37.63
3.16603	37.63
3.18270	37.63
3.19937	37.63
3.21603	37.63
3.23270	37.63
3.24937	37.63
3.26603	37.63
3.28270	37.63
3.29937	37.63
3.31603	37.63
3.33270	37.63
3.34937	37.63
3.36603	37.64
3.38270	37.64
3.39937	37.64
3.41603	37.64
3.43270	37.64
3.44937	37.64
3.46603	37.64
3.48270	37.64
3.49937	37.64
3.51603	37.64
3.53270	37.64
3.54937	37.64
3.56603	37.64
3.58270	37.64
3.59937	37.64
3.61603	37.64
3.63270	37.64
3.64937	37.64
3.66603	37.64
3.68270	37.63
3.69937	37.63
3.71603	37.63
3.73270	37.63
3.74937	37.63
3.76603	37.63
3.78270	37.63
3.79937	37.63
3.81603	37.63
3.83270	37.63
3.84937	37.63
3.86603	37.63
3.88270	37.63
3.89937	37.63
3.91603	37.63
3.93270	37.64
3.94937	37.64
3.96603	37.64
3.98270	37.63
3.99937	37.64

