[Header]
Application Name	LabSolutions
Version	5.110
Data File Name	C:\Users\User\Desktop\GC Analyses\Jack\Nachusa Grasslands Sampling\T4 Timepoint July 12th\T4_07122022_038.gcd
Output Date	3/17/2023
Output Time	12:04:53 PM

[File Information]
Type	Data File
Generated	3/14/2023 7:34:59 PM
Generated by	System Administrator
Modified	3/14/2023 7:41:51 PM
Modified by	System Administrator

[Sample Information]
Operator Name	System Administrator
Acquired	3/14/2023 7:37:50 PM
Sample Type	0:Unknown
Level	0
Sample Name	038
Sample ID	038
ISTD Amount1	1
ISTD Amount2	1
ISTD Amount3	1
ISTD Amount4	1
ISTD Amount5	1
ISTD Amount6	1
ISTD Amount7	1
ISTD Amount8	1
ISTD Amount9	1
ISTD Amount10	1
ISTD Amount11	1
ISTD Amount12	1
ISTD Amount13	1
ISTD Amount14	1
ISTD Amount15	1
ISTD Amount16	1
ISTD Amount17	1
ISTD Amount18	1
ISTD Amount19	1
ISTD Amount20	1
ISTD Amount21	1
ISTD Amount22	1
ISTD Amount23	1
ISTD Amount24	1
ISTD Amount25	1
ISTD Amount26	1
ISTD Amount27	1
ISTD Amount28	1
ISTD Amount29	1
ISTD Amount30	1
ISTD Amount31	1
ISTD Amount32	1
Sample Amount	1
Dilution Factor	1
Vial#	37
Injection Volume	1
Injection Count	1
Bar Code	

[Original Files]
Data File	C:\Users\User\Desktop\GC Analyses\Jack\Nachusa Grasslands Sampling\T4 Timepoint July 12th\T4_07122022_038.gcd
Method File	C:\LabSolutions\Data\GHG_4min_2022\ghg3_togas_w_acet_4 min_new_int.gcm
Batch File	C:\LabSolutions\Data\AutoSamplerTesting\T4_07122022.gcb
Report Format File	c:\LabSolutions\System\DEFAULT.lsr

[File Description]


[Configuration]
Instrument Name	C0B7VH3-Instrument1
Instrument #	1
Line #	1
# of Detectors	3
Detector ID	DET#1	DET#2	DET#3
Detector Name	FID	PTCD	ECD
# of Channels	1	1	1

[Peak Table(Ch1)]
# of Peaks	3
Peak#	R.Time	I.Time	F.Time	Area	Height	A/H	Conc.	Mark	ID#	Name	k'	Plate #	Plate Ht.	Tailing	Resolution	Sep.Factor	Area Ratio	Height Ratio	Conc. %	Norm Conc.
1	1.476	1.439	1.538	24046	11854	2.029	169.769	   	1	CO	0.000	9614	15.602	1.271	0.000	0.000	0	0	18.770	18.770
2	1.571	1.538	1.630	3531	1793	1.970	68.279	 V 	2	CH4	0.065	11685	12.837	1.134	1.611	0.000	0	0	7.549	7.549
3	1.996	1.949	2.359	2655307	1272913	2.086	666.410	   	3	CO2	0.353	17345	8.648	1.320	7.163	5.462	0	0	73.681	73.681

[Peak Table(Ch2)]
# of Peaks	0

[Peak Table(Ch3)]
# of Peaks	5
Peak#	R.Time	I.Time	F.Time	Area	Height	A/H	Conc.	Mark	ID#	Name	k'	Plate #	Plate Ht.	Tailing	Resolution	Sep.Factor	Area Ratio	Height Ratio	Conc. %	Norm Conc.
1	2.462	2.275	2.510	2329	659	3.532	0.000	   			0.000	9470	15.840	0.000	0.000	0.000	0	0	0.000	0.000
2	2.528	2.510	2.583	1119	366	3.060	0.000	 V 			0.027	6537	22.946	0.000	0.583	0.000	0	0	0.000	0.000
3	2.598	2.583	2.686	609	167	3.638	0.000	 V 			0.055	1062	141.202	0.000	0.314	2.056	0	0	0.000	0.000
4	2.876	2.704	3.045	19324	4892	3.950	0.494	   	1	N2O	0.168	12947	11.586	1.641	1.327	3.054	0	0	100.000	100.000
5	3.298	3.049	3.995	20376	607	33.583	0.000	   	2	SF6	0.340	224	670.994	1.852	0.858	2.018	0	0	0.000	0.000

[Compound Results(Ch1)]
# of IDs	6
ID#	Name	R.Time	Area	Height	Conc.	Curve	3rd	2nd	1st	Constant	Area Ratio	Height Ratio	Conc. %	Norm Conc.
1	CO	1.476	24046	11854	169.769	Linear	0.000000e+00	0.000000e+00	1.416423e+002	0.000000e+00	0	0	18.770	18.770
2	CH4	1.571	3531	1793	68.279	Linear	0.000000e+00	0.000000e+00	5.171738e+001	0.000000e+00	0	0	7.549	7.549
3	CO2	1.996	2655307	1272913	666.410	Linear	0.000000e+00	0.000000e+00	3.984494e+003	0.000000e+00	0	0	73.681	73.681
4	Ethylene	0.000	0	0	0.000	Linear	0.000000e+00	0.000000e+00	0.000000e+00	0.000000e+00	0	0	0.000	0.000
5	Acetylene	0.000	0	0	0.000	Linear	0.000000e+00	0.000000e+00	0.000000e+00	0.000000e+00	0	0	0.000	0.000
6	Ethane	0.000	0	0	0.000	Linear	0.000000e+00	0.000000e+00	0.000000e+00	0.000000e+00	0	0	0.000	0.000

[Compound Results(Ch2)]
# of IDs	5
ID#	Name	R.Time	Area	Height	Conc.	Curve	3rd	2nd	1st	Constant	Area Ratio	Height Ratio	Conc. %	Norm Conc.
1	Hydrogen	0.000	0	0	0.000	Linear	0.000000e+00	0.000000e+00	0.000000e+00	0.000000e+00	0	0	0.000	0.000
2	Oxygen	0.000	0	0	0.000	Linear	0.000000e+00	0.000000e+00	0.000000e+00	0.000000e+00	0	0	0.000	0.000
3	Nitrogen	0.000	0	0	0.000	Linear	0.000000e+00	0.000000e+00	0.000000e+00	0.000000e+00	0	0	0.000	0.000
4	Methane	0.000	0	0	0.000	Linear	0.000000e+00	0.000000e+00	0.000000e+00	0.000000e+00	0	0	0.000	0.000
5	Carbon Monoxide	0.000	0	0	0.000	Linear	0.000000e+00	0.000000e+00	0.000000e+00	0.000000e+00	0	0	0.000	0.000

[Compound Results(Ch3)]
# of IDs	2
ID#	Name	R.Time	Area	Height	Conc.	Curve	3rd	2nd	1st	Constant	Area Ratio	Height Ratio	Conc. %	Norm Conc.
1	N2O	2.876	19324	4892	0.494	Linear	0.000000e+00	0.000000e+00	3.915173e+004	0.000000e+00	0	0	100.000	100.000
2	SF6	3.298	20376	607	0.000	Linear	0.000000e+00	0.000000e+00	0.000000e+00	0.000000e+00	0	0	0.000	0.000

[Group Results(Ch1)]
# of Groups	0

[Group Results(Ch2)]
# of Groups	0

[Group Results(Ch3)]
# of Groups	0

[Chromatogram (Ch1)]
Interval(msec)	220
# of Points	1091
Start Time(min)	0.002
End Time(min)	3.998
R.Time (min)	Intensity
0.00167	-1
0.00533	0
0.00900	1
0.01267	0
0.01633	-4
0.02000	-4
0.02367	-1
0.02733	5
0.03100	17
0.03467	26
0.03833	31
0.04200	32
0.04567	29
0.04933	27
0.05300	26
0.05667	27
0.06033	28
0.06400	27
0.06767	24
0.07133	25
0.07500	25
0.07867	28
0.08233	33
0.08600	39
0.08967	45
0.09333	52
0.09700	59
0.10067	70
0.10433	77
0.10800	75
0.11167	65
0.11533	53
0.11900	43
0.12267	34
0.12633	29
0.13000	28
0.13367	28
0.13733	22
0.14100	17
0.14467	21
0.14833	33
0.15200	41
0.15567	38
0.15933	36
0.16300	28
0.16667	15
0.17033	1
0.17400	-10
0.17767	-15
0.18133	-19
0.18500	-20
0.18867	-21
0.19233	-23
0.19600	-26
0.19967	-25
0.20333	-22
0.20700	-20
0.21067	-14
0.21433	-16
0.21800	-26
0.22167	-35
0.22533	-41
0.22900	-46
0.23267	-45
0.23633	-43
0.24000	-39
0.24367	-30
0.24733	-21
0.25100	-14
0.25467	-12
0.25833	-16
0.26200	-18
0.26567	-23
0.26933	-28
0.27300	-26
0.27667	-24
0.28033	-23
0.28400	-19
0.28767	-13
0.29133	-14
0.29500	-10
0.29867	-7
0.30233	-10
0.30600	-18
0.30967	-20
0.31333	-16
0.31700	-8
0.32067	-4
0.32433	-6
0.32800	-8
0.33167	-10
0.33533	-16
0.33900	-21
0.34267	-24
0.34633	-29
0.35000	-31
0.35367	-28
0.35733	-21
0.36100	-19
0.36467	-26
0.36833	-34
0.37200	-43
0.37567	-50
0.37933	-53
0.38300	-53
0.38667	-48
0.39033	-45
0.39400	-43
0.39767	-41
0.40133	-36
0.40500	-30
0.40867	-24
0.41233	-20
0.41600	-17
0.41967	-14
0.42333	-8
0.42700	-4
0.43067	-6
0.43433	-14
0.43800	-23
0.44167	-31
0.44533	-39
0.44900	-40
0.45267	-37
0.45633	-35
0.46000	-36
0.46367	-36
0.46733	-38
0.47100	-34
0.47467	-27
0.47833	-25
0.48200	-25
0.48567	-23
0.48933	-19
0.49300	-14
0.49667	-8
0.50033	-6
0.50400	-7
0.50767	-9
0.51133	-15
0.51500	-20
0.51867	-21
0.52233	-26
0.52600	-29
0.52967	-35
0.53333	-36
0.53700	-33
0.54067	-31
0.54433	-30
0.54800	-27
0.55167	-26
0.55533	-31
0.55900	-37
0.56267	-43
0.56633	-47
0.57000	-47
0.57367	-45
0.57733	-42
0.58100	-40
0.58467	-39
0.58833	-46
0.59200	-41
0.59567	-37
0.59933	-35
0.60300	-30
0.60667	-24
0.61033	-20
0.61400	-16
0.61767	-12
0.62133	-11
0.62500	-11
0.62867	-11
0.63233	-14
0.63600	-17
0.63967	-17
0.64333	-24
0.64700	-24
0.65067	-25
0.65433	-32
0.65800	-31
0.66167	-29
0.66533	-29
0.66900	-35
0.67267	-44
0.67633	-48
0.68000	-46
0.68367	-44
0.68733	-44
0.69100	-41
0.69467	-34
0.69833	-30
0.70200	-29
0.70567	-35
0.70933	-43
0.71300	-44
0.71667	-47
0.72033	-50
0.72400	-44
0.72767	-35
0.73133	-28
0.73500	-25
0.73867	-24
0.74233	-27
0.74600	-31
0.74967	-35
0.75333	-36
0.75700	-32
0.76067	-25
0.76433	-26
0.76800	-25
0.77167	-19
0.77533	-16
0.77900	-15
0.78267	-15
0.78633	-14
0.79000	-15
0.79367	-21
0.79733	-31
0.80100	-40
0.80467	-45
0.80833	-48
0.81200	-52
0.81567	-53
0.81933	-46
0.82300	-37
0.82667	-28
0.83033	-23
0.83400	-25
0.83767	-30
0.84133	-32
0.84500	-28
0.84867	-23
0.85233	-21
0.85600	-22
0.85967	-24
0.86333	-25
0.86700	-17
0.87067	-5
0.87433	2
0.87800	4
0.88167	4
0.88533	3
0.88900	1
0.89267	-3
0.89633	-6
0.90000	-8
0.90367	-13
0.90733	-19
0.91100	-17
0.91467	-8
0.91833	5
0.92200	11
0.92567	6
0.92933	-5
0.93300	-14
0.93667	-18
0.94033	-18
0.94400	-23
0.94767	-25
0.95133	-23
0.95500	-17
0.95867	-9
0.96233	-7
0.96600	-7
0.96967	-4
0.97333	1
0.97700	5
0.98067	1
0.98433	-3
0.98800	-2
0.99167	-5
0.99533	-13
0.99900	-18
1.00267	-23
1.00633	-27
1.01000	-30
1.01367	-30
1.01733	-24
1.02100	-17
1.02467	-11
1.02833	-7
1.03200	-5
1.03567	-5
1.03933	-1
1.04300	4
1.04667	8
1.05033	9
1.05400	7
1.05767	3
1.06133	-2
1.06500	-7
1.06867	-11
1.07233	-13
1.07600	-19
1.07967	-25
1.08333	-33
1.08700	-38
1.09067	-37
1.09433	-32
1.09800	-25
1.10167	-18
1.10533	-14
1.10900	-14
1.11267	-16
1.11633	-19
1.12000	-17
1.12367	-19
1.12733	-25
1.13100	-30
1.13467	-35
1.13833	-38
1.14200	-35
1.14567	-28
1.14933	-23
1.15300	-23
1.15667	-26
1.16033	-28
1.16400	-33
1.16767	-37
1.17133	-38
1.17500	-39
1.17867	-36
1.18233	-29
1.18600	-23
1.18967	-22
1.19333	-22
1.19700	-22
1.20067	-25
1.20433	-28
1.20800	-26
1.21167	-22
1.21533	-16
1.21900	-15
1.22267	-24
1.22633	-37
1.23000	-45
1.23367	-45
1.23733	-42
1.24100	-38
1.24467	-39
1.24833	-39
1.25200	-37
1.25567	-36
1.25933	-37
1.26300	-41
1.26667	-45
1.27033	-48
1.27400	-52
1.27767	-53
1.28133	-53
1.28500	-58
1.28867	-63
1.29233	-61
1.29600	-56
1.29967	-49
1.30333	-48
1.30700	-52
1.31067	-54
1.31433	-53
1.31800	-51
1.32167	-49
1.32533	-49
1.32900	-49
1.33267	-48
1.33633	-48
1.34000	-46
1.34367	-44
1.34733	-41
1.35100	-37
1.35467	-32
1.35833	-27
1.36200	-20
1.36567	-12
1.36933	-7
1.37300	-7
1.37667	-11
1.38033	-14
1.38400	-19
1.38767	-29
1.39133	-38
1.39500	-42
1.39867	-43
1.40233	-46
1.40600	-50
1.40967	-54
1.41333	-55
1.41700	-50
1.42067	-47
1.42433	-49
1.42800	-59
1.43167	-70
1.43533	-73
1.43900	-63
1.44267	-19
1.44633	119
1.45000	521
1.45367	1534
1.45733	3361
1.46100	5676
1.46467	7948
1.46833	9819
1.47200	11133
1.47567	11783
1.47933	11645
1.48300	10704
1.48667	9145
1.49033	7299
1.49400	5499
1.49767	3954
1.50133	2739
1.50500	1838
1.50867	1199
1.51233	752
1.51600	449
1.51967	243
1.52333	109
1.52700	25
1.53067	-28
1.53433	-57
1.53800	-64
1.54167	-28
1.54533	95
1.54900	331
1.55267	657
1.55633	1007
1.56000	1317
1.56367	1552
1.56733	1688
1.57100	1703
1.57467	1587
1.57833	1353
1.58200	1057
1.58567	764
1.58933	512
1.59300	317
1.59667	179
1.60033	84
1.60400	26
1.60767	-16
1.61133	-48
1.61500	-65
1.61867	-71
1.62233	-78
1.62600	-89
1.62967	-101
1.63333	-106
1.63700	-107
1.64067	-106
1.64433	-100
1.64800	-93
1.65167	-88
1.65533	-89
1.65900	-91
1.66267	-91
1.66633	-89
1.67000	-86
1.67367	-84
1.67733	-86
1.68100	-87
1.68467	-90
1.68833	-97
1.69200	-102
1.69567	-103
1.69933	-98
1.70300	-92
1.70667	-93
1.71033	-94
1.71400	-90
1.71767	-83
1.72133	-82
1.72500	-85
1.72867	-88
1.73233	-94
1.73600	-101
1.73967	-104
1.74333	-104
1.74700	-103
1.75067	-103
1.75433	-101
1.75800	-93
1.76167	-79
1.76533	-59
1.76900	-42
1.77267	-37
1.77633	-42
1.78000	-51
1.78367	-57
1.78733	-59
1.79100	-65
1.79467	-72
1.79833	-76
1.80200	-83
1.80567	-90
1.80933	-93
1.81300	-91
1.81667	-89
1.82033	-86
1.82400	-84
1.82767	-85
1.83133	-85
1.83500	-79
1.83867	-72
1.84233	-67
1.84600	-63
1.84967	-55
1.85333	-51
1.85700	-51
1.86067	-48
1.86433	-49
1.86800	-55
1.87167	-61
1.87533	-67
1.87900	-70
1.88267	-69
1.88633	-68
1.89000	-64
1.89367	-59
1.89733	-53
1.90100	-50
1.90467	-58
1.90833	-70
1.91200	-78
1.91567	-80
1.91933	-73
1.92300	-64
1.92667	-60
1.93033	-62
1.93400	-70
1.93767	-77
1.94133	-86
1.94500	-89
1.94867	-84
1.95233	-62
1.95600	86
1.95967	987
1.96333	5366
1.96700	21633
1.97067	67896
1.97433	169146
1.97800	340587
1.98167	569255
1.98533	816534
1.98900	1037177
1.99267	1196209
1.99633	1272868
2.00000	1259488
2.00367	1163771
2.00733	1007797
2.01100	822059
2.01467	636266
2.01833	471705
2.02200	338482
2.02567	237539
2.02933	164594
2.03300	113584
2.03667	78671
2.04033	55071
2.04400	39201
2.04767	28518
2.05133	21274
2.05500	16300
2.05867	12825
2.06233	10345
2.06600	8534
2.06967	7177
2.07333	6135
2.07700	5323
2.08067	4678
2.08433	4159
2.08800	3741
2.09167	3394
2.09533	3099
2.09900	2840
2.10267	2611
2.10633	2413
2.11000	2244
2.11367	2098
2.11733	1967
2.12100	1854
2.12467	1750
2.12833	1646
2.13200	1547
2.13567	1453
2.13933	1368
2.14300	1294
2.14667	1230
2.15033	1174
2.15400	1119
2.15767	1067
2.16133	1027
2.16500	996
2.16867	966
2.17233	932
2.17600	898
2.17967	866
2.18333	834
2.18700	805
2.19067	779
2.19433	754
2.19800	727
2.20167	697
2.20533	679
2.20900	665
2.21267	647
2.21633	628
2.22000	604
2.22367	587
2.22733	572
2.23100	558
2.23467	542
2.23833	520
2.24200	499
2.24567	483
2.24933	471
2.25300	464
2.25667	457
2.26033	448
2.26400	442
2.26767	437
2.27133	429
2.27500	417
2.27867	405
2.28233	394
2.28600	388
2.28967	382
2.29333	373
2.29700	362
2.30067	353
2.30433	349
2.30800	348
2.31167	349
2.31533	352
2.31900	352
2.32267	339
2.32633	319
2.33000	295
2.33367	272
2.33733	255
2.34100	244
2.34467	247
2.34833	257
2.35200	261
2.35567	260
2.35933	255
2.36300	248
2.36667	244
2.37033	245
2.37400	249
2.37767	254
2.38133	258
2.38500	256
2.38867	245
2.39233	231
2.39600	216
2.39967	207
2.40333	201
2.40700	197
2.41067	195
2.41433	197
2.41800	202
2.42167	208
2.42533	212
2.42900	213
2.43267	208
2.43633	204
2.44000	203
2.44367	198
2.44733	192
2.45100	185
2.45467	180
2.45833	176
2.46200	179
2.46567	183
2.46933	182
2.47300	181
2.47667	180
2.48033	178
2.48400	176
2.48767	173
2.49133	169
2.49500	168
2.49867	166
2.50233	162
2.50600	156
2.50967	152
2.51333	148
2.51700	143
2.52067	139
2.52433	142
2.52800	147
2.53167	150
2.53533	148
2.53900	144
2.54267	138
2.54633	135
2.55000	136
2.55367	137
2.55733	134
2.56100	132
2.56467	134
2.56833	137
2.57200	146
2.57567	155
2.57933	159
2.58300	151
2.58667	138
2.59033	128
2.59400	115
2.59767	102
2.60133	91
2.60500	81
2.60867	76
2.61233	73
2.61600	75
2.61967	81
2.62333	90
2.62700	101
2.63067	112
2.63433	123
2.63800	132
2.64167	135
2.64533	133
2.64900	125
2.65267	116
2.65633	107
2.66000	104
2.66367	103
2.66733	102
2.67100	104
2.67467	105
2.67833	108
2.68200	106
2.68567	99
2.68933	94
2.69300	91
2.69667	90
2.70033	93
2.70400	94
2.70767	90
2.71133	85
2.71500	79
2.71867	71
2.72233	66
2.72600	63
2.72967	64
2.73333	68
2.73700	75
2.74067	77
2.74433	79
2.74800	85
2.75167	96
2.75533	105
2.75900	108
2.76267	105
2.76633	99
2.77000	90
2.77367	85
2.77733	82
2.78100	81
2.78467	85
2.78833	92
2.79200	101
2.79567	102
2.79933	104
2.80300	101
2.80667	104
2.81033	103
2.81400	95
2.81767	86
2.82133	83
2.82500	84
2.82867	89
2.83233	94
2.83600	91
2.83967	84
2.84333	75
2.84700	67
2.85067	64
2.85433	63
2.85800	63
2.86167	63
2.86533	66
2.86900	73
2.87267	83
2.87633	90
2.88000	95
2.88367	95
2.88733	91
2.89100	88
2.89467	82
2.89833	74
2.90200	63
2.90567	54
2.90933	55
2.91300	65
2.91667	73
2.92033	77
2.92400	79
2.92767	82
2.93133	88
2.93500	86
2.93867	83
2.94233	83
2.94600	84
2.94967	84
2.95333	86
2.95700	82
2.96067	70
2.96433	54
2.96800	41
2.97167	36
2.97533	39
2.97900	42
2.98267	43
2.98633	46
2.99000	53
2.99367	62
2.99733	70
3.00100	80
3.00467	92
3.00833	100
3.01200	97
3.01567	87
3.01933	77
3.02300	66
3.02667	59
3.03033	56
3.03400	59
3.03767	64
3.04133	69
3.04500	74
3.04867	76
3.05233	76
3.05600	78
3.05967	82
3.06333	88
3.06700	92
3.07067	96
3.07433	101
3.07800	96
3.08167	85
3.08533	72
3.08900	59
3.09267	45
3.09633	33
3.10000	25
3.10367	22
3.10733	28
3.11100	39
3.11467	50
3.11833	54
3.12200	48
3.12567	37
3.12933	31
3.13300	33
3.13667	37
3.14033	41
3.14400	57
3.14767	78
3.15133	91
3.15500	94
3.15867	86
3.16233	74
3.16600	57
3.16967	38
3.17333	28
3.17700	30
3.18067	40
3.18433	51
3.18800	60
3.19167	62
3.19533	58
3.19900	51
3.20267	48
3.20633	38
3.21000	27
3.21367	23
3.21733	23
3.22100	30
3.22467	39
3.22833	48
3.23200	50
3.23567	55
3.23933	67
3.24300	77
3.24667	75
3.25033	67
3.25400	56
3.25767	47
3.26133	38
3.26500	36
3.26867	37
3.27233	41
3.27600	41
3.27967	40
3.28333	35
3.28700	27
3.29067	22
3.29433	23
3.29800	28
3.30167	34
3.30533	39
3.30900	48
3.31267	53
3.31633	52
3.32000	51
3.32367	50
3.32733	53
3.33100	53
3.33467	58
3.33833	63
3.34200	63
3.34567	60
3.34933	53
3.35300	47
3.35667	42
3.36033	38
3.36400	32
3.36767	25
3.37133	21
3.37500	18
3.37867	12
3.38233	8
3.38600	8
3.38967	9
3.39333	10
3.39700	15
3.40067	40
3.40433	68
3.40800	87
3.41167	94
3.41533	87
3.41900	79
3.42267	68
3.42633	56
3.43000	43
3.43367	30
3.43733	17
3.44100	7
3.44467	-1
3.44833	-2
3.45200	-5
3.45567	-2
3.45933	4
3.46300	7
3.46667	10
3.47033	11
3.47400	10
3.47767	7
3.48133	3
3.48500	5
3.48867	9
3.49233	11
3.49600	19
3.49967	24
3.50333	21
3.50700	14
3.51067	9
3.51433	7
3.51800	8
3.52167	16
3.52533	28
3.52900	33
3.53267	34
3.53633	24
3.54000	8
3.54367	-6
3.54733	-13
3.55100	-14
3.55467	-9
3.55833	-5
3.56200	1
3.56567	6
3.56933	3
3.57300	-5
3.57667	-13
3.58033	-16
3.58400	-13
3.58767	2
3.59133	16
3.59500	20
3.59867	16
3.60233	12
3.60600	8
3.60967	5
3.61333	3
3.61700	2
3.62067	6
3.62433	9
3.62800	8
3.63167	8
3.63533	10
3.63900	12
3.64267	9
3.64633	3
3.65000	1
3.65367	4
3.65733	6
3.66100	6
3.66467	9
3.66833	13
3.67200	17
3.67567	19
3.67933	21
3.68300	21
3.68667	18
3.69033	11
3.69400	4
3.69767	1
3.70133	1
3.70500	-0
3.70867	-3
3.71233	-7
3.71600	-18
3.71967	-34
3.72333	-32
3.72700	-21
3.73067	-18
3.73433	-21
3.73800	-24
3.74167	-20
3.74533	-10
3.74900	0
3.75267	4
3.75633	2
3.76000	-2
3.76367	-12
3.76733	-21
3.77100	-24
3.77467	-21
3.77833	-17
3.78200	-14
3.78567	-14
3.78933	-14
3.79300	-10
3.79667	-9
3.80033	-10
3.80400	-19
3.80767	-21
3.81133	-15
3.81500	-6
3.81867	-4
3.82233	-11
3.82600	-19
3.82967	-23
3.83333	-25
3.83700	-27
3.84067	-31
3.84433	-24
3.84800	-18
3.85167	-17
3.85533	-18
3.85900	-15
3.86267	-14
3.86633	-14
3.87000	-15
3.87367	-15
3.87733	-17
3.88100	-18
3.88467	-21
3.88833	-26
3.89200	-27
3.89567	-28
3.89933	-31
3.90300	-35
3.90667	-48
3.91033	-54
3.91400	-47
3.91767	-37
3.92133	-29
3.92500	-24
3.92867	-25
3.93233	-34
3.93600	-39
3.93967	-45
3.94333	-51
3.94700	-52
3.95067	-49
3.95433	-42
3.95800	-34
3.96167	-29
3.96533	-31
3.96900	-38
3.97267	-42
3.97633	-43
3.98000	-46
3.98367	-51
3.98733	-32
3.99100	-10
3.99467	4
3.99833	2

[Chromatogram (Ch2)]
Interval(msec)	220
# of Points	1091
Start Time(min)	0.002
End Time(min)	3.998
R.Time (min)	Intensity
0.00167	-1
0.00533	-1
0.00900	-1
0.01267	-1
0.01633	-1
0.02000	-1
0.02367	-2
0.02733	-2
0.03100	-2
0.03467	-2
0.03833	-2
0.04200	-2
0.04567	-2
0.04933	-2
0.05300	-2
0.05667	-2
0.06033	-2
0.06400	-2
0.06767	-2
0.07133	-1
0.07500	-1
0.07867	-1
0.08233	-0
0.08600	0
0.08967	1
0.09333	1
0.09700	2
0.10067	2
0.10433	2
0.10800	3
0.11167	3
0.11533	3
0.11900	3
0.12267	3
0.12633	3
0.13000	3
0.13367	3
0.13733	2
0.14100	3
0.14467	3
0.14833	4
0.15200	4
0.15567	4
0.15933	4
0.16300	4
0.16667	4
0.17033	4
0.17400	4
0.17767	4
0.18133	3
0.18500	3
0.18867	3
0.19233	2
0.19600	2
0.19967	2
0.20333	1
0.20700	1
0.21067	1
0.21433	1
0.21800	0
0.22167	0
0.22533	-0
0.22900	-1
0.23267	-1
0.23633	-1
0.24000	-1
0.24367	-1
0.24733	-2
0.25100	-2
0.25467	-2
0.25833	-2
0.26200	-2
0.26567	-1
0.26933	-1
0.27300	-1
0.27667	-1
0.28033	-1
0.28400	-1
0.28767	-1
0.29133	-1
0.29500	-1
0.29867	-1
0.30233	-1
0.30600	-1
0.30967	-0
0.31333	-0
0.31700	0
0.32067	0
0.32433	0
0.32800	1
0.33167	1
0.33533	1
0.33900	1
0.34267	1
0.34633	1
0.35000	1
0.35367	1
0.35733	1
0.36100	1
0.36467	1
0.36833	1
0.37200	2
0.37567	2
0.37933	2
0.38300	2
0.38667	2
0.39033	2
0.39400	1
0.39767	1
0.40133	1
0.40500	1
0.40867	1
0.41233	1
0.41600	0
0.41967	0
0.42333	0
0.42700	-0
0.43067	-0
0.43433	-0
0.43800	-0
0.44167	-0
0.44533	-0
0.44900	-1
0.45267	-1
0.45633	-1
0.46000	-1
0.46367	-1
0.46733	-1
0.47100	-1
0.47467	-0
0.47833	-0
0.48200	-0
0.48567	-0
0.48933	-0
0.49300	-1
0.49667	-1
0.50033	-1
0.50400	-1
0.50767	-1
0.51133	-1
0.51500	-1
0.51867	-1
0.52233	-1
0.52600	-1
0.52967	-1
0.53333	-1
0.53700	-1
0.54067	-1
0.54433	-2
0.54800	-2
0.55167	-2
0.55533	-2
0.55900	-2
0.56267	-2
0.56633	-1
0.57000	-1
0.57367	-0
0.57733	0
0.58100	1
0.58467	1
0.58833	1
0.59200	1
0.59567	1
0.59933	1
0.60300	0
0.60667	0
0.61033	0
0.61400	0
0.61767	0
0.62133	0
0.62500	0
0.62867	0
0.63233	0
0.63600	-0
0.63967	-1
0.64333	-1
0.64700	-1
0.65067	-1
0.65433	-1
0.65800	-2
0.66167	-2
0.66533	-1
0.66900	-1
0.67267	-1
0.67633	-1
0.68000	-1
0.68367	-1
0.68733	-1
0.69100	-1
0.69467	-1
0.69833	-1
0.70200	-1
0.70567	-2
0.70933	-2
0.71300	-2
0.71667	-3
0.72033	-3
0.72400	-3
0.72767	-3
0.73133	-3
0.73500	-3
0.73867	-3
0.74233	-3
0.74600	-3
0.74967	-3
0.75333	-2
0.75700	-2
0.76067	-2
0.76433	-1
0.76800	-1
0.77167	-1
0.77533	-1
0.77900	-0
0.78267	-0
0.78633	-0
0.79000	-0
0.79367	-0
0.79733	-0
0.80100	0
0.80467	0
0.80833	-0
0.81200	-1
0.81567	-1
0.81933	-1
0.82300	-2
0.82667	-2
0.83033	-2
0.83400	-3
0.83767	-3
0.84133	-3
0.84500	-3
0.84867	-3
0.85233	-3
0.85600	-2
0.85967	-1
0.86333	-1
0.86700	-0
0.87067	-0
0.87433	0
0.87800	0
0.88167	0
0.88533	1
0.88900	1
0.89267	1
0.89633	1
0.90000	1
0.90367	1
0.90733	1
0.91100	1
0.91467	1
0.91833	1
0.92200	1
0.92567	1
0.92933	1
0.93300	1
0.93667	1
0.94033	1
0.94400	1
0.94767	1
0.95133	1
0.95500	0
0.95867	-0
0.96233	-1
0.96600	-1
0.96967	-1
0.97333	-2
0.97700	-2
0.98067	-2
0.98433	-2
0.98800	-2
0.99167	-2
0.99533	-2
0.99900	-2
1.00267	-2
1.00633	-2
1.01000	-1
1.01367	-1
1.01733	-1
1.02100	-1
1.02467	-1
1.02833	-2
1.03200	-2
1.03567	-2
1.03933	-3
1.04300	-3
1.04667	-3
1.05033	-4
1.05400	-4
1.05767	-3
1.06133	-3
1.06500	-3
1.06867	-2
1.07233	-2
1.07600	-2
1.07967	-1
1.08333	-1
1.08700	-1
1.09067	-1
1.09433	-1
1.09800	-1
1.10167	-2
1.10533	-2
1.10900	-2
1.11267	-2
1.11633	-2
1.12000	-2
1.12367	-2
1.12733	-3
1.13100	-3
1.13467	-3
1.13833	-3
1.14200	-3
1.14567	-3
1.14933	-3
1.15300	-3
1.15667	-3
1.16033	-3
1.16400	-3
1.16767	-3
1.17133	-3
1.17500	-3
1.17867	-3
1.18233	-2
1.18600	-2
1.18967	-2
1.19333	-2
1.19700	-1
1.20067	-1
1.20433	-1
1.20800	-1
1.21167	-1
1.21533	-1
1.21900	-1
1.22267	-1
1.22633	-1
1.23000	-1
1.23367	-1
1.23733	-1
1.24100	-1
1.24467	-1
1.24833	-1
1.25200	-1
1.25567	-1
1.25933	-1
1.26300	-1
1.26667	-1
1.27033	-1
1.27400	-1
1.27767	-1
1.28133	-1
1.28500	-1
1.28867	-1
1.29233	-1
1.29600	-1
1.29967	-2
1.30333	-2
1.30700	-3
1.31067	-3
1.31433	-4
1.31800	-4
1.32167	-5
1.32533	-5
1.32900	-5
1.33267	-4
1.33633	-4
1.34000	-4
1.34367	-3
1.34733	-3
1.35100	-3
1.35467	-3
1.35833	-2
1.36200	-2
1.36567	-2
1.36933	-2
1.37300	-2
1.37667	-2
1.38033	-2
1.38400	-2
1.38767	-2
1.39133	-2
1.39500	-1
1.39867	-1
1.40233	-1
1.40600	-1
1.40967	-1
1.41333	-0
1.41700	-0
1.42067	0
1.42433	0
1.42800	0
1.43167	0
1.43533	0
1.43900	0
1.44267	-0
1.44633	-0
1.45000	-0
1.45367	-0
1.45733	-1
1.46100	-1
1.46467	-1
1.46833	-2
1.47200	-2
1.47567	-2
1.47933	-2
1.48300	-2
1.48667	-2
1.49033	-1
1.49400	-1
1.49767	-1
1.50133	-1
1.50500	-1
1.50867	-1
1.51233	-1
1.51600	-1
1.51967	-1
1.52333	-1
1.52700	-1
1.53067	-0
1.53433	-0
1.53800	-0
1.54167	-0
1.54533	-0
1.54900	-0
1.55267	-1
1.55633	-1
1.56000	-1
1.56367	-1
1.56733	-1
1.57100	-1
1.57467	-1
1.57833	-1
1.58200	-1
1.58567	-1
1.58933	-1
1.59300	-2
1.59667	-3
1.60033	-4
1.60400	-5
1.60767	-7
1.61133	-9
1.61500	-11
1.61867	-13
1.62233	-16
1.62600	-19
1.62967	-22
1.63333	-25
1.63700	-28
1.64067	-32
1.64433	-35
1.64800	-39
1.65167	-42
1.65533	-46
1.65900	-49
1.66267	-53
1.66633	-58
1.67000	-63
1.67367	-68
1.67733	-72
1.68100	-77
1.68467	-82
1.68833	-86
1.69200	-90
1.69567	-93
1.69933	-96
1.70300	-98
1.70667	-100
1.71033	-102
1.71400	-103
1.71767	-104
1.72133	-105
1.72500	-106
1.72867	-106
1.73233	-107
1.73600	-107
1.73967	-108
1.74333	-108
1.74700	-109
1.75067	-110
1.75433	-110
1.75800	-111
1.76167	-111
1.76533	-112
1.76900	-112
1.77267	-112
1.77633	-112
1.78000	-113
1.78367	-113
1.78733	-113
1.79100	-113
1.79467	-113
1.79833	-113
1.80200	-112
1.80567	-112
1.80933	-112
1.81300	-113
1.81667	-113
1.82033	-114
1.82400	-114
1.82767	-114
1.83133	-115
1.83500	-115
1.83867	-115
1.84233	-115
1.84600	-115
1.84967	-114
1.85333	-114
1.85700	-114
1.86067	-114
1.86433	-114
1.86800	-114
1.87167	-114
1.87533	-114
1.87900	-114
1.88267	-114
1.88633	-114
1.89000	-114
1.89367	-114
1.89733	-113
1.90100	-113
1.90467	-114
1.90833	-114
1.91200	-113
1.91567	-113
1.91933	-113
1.92300	-113
1.92667	-112
1.93033	-112
1.93400	-111
1.93767	-111
1.94133	-111
1.94500	-111
1.94867	-111
1.95233	-111
1.95600	-111
1.95967	-112
1.96333	-112
1.96700	-112
1.97067	-111
1.97433	-111
1.97800	-111
1.98167	-111
1.98533	-111
1.98900	-111
1.99267	-110
1.99633	-110
2.00000	-109
2.00367	-108
2.00733	-107
2.01100	-107
2.01467	-107
2.01833	-106
2.02200	-106
2.02567	-105
2.02933	-104
2.03300	-104
2.03667	-103
2.04033	-102
2.04400	-102
2.04767	-102
2.05133	-101
2.05500	-101
2.05867	-101
2.06233	-101
2.06600	-100
2.06967	-100
2.07333	-100
2.07700	-99
2.08067	-99
2.08433	-99
2.08800	-99
2.09167	-99
2.09533	-100
2.09900	-100
2.10267	-100
2.10633	-100
2.11000	-100
2.11367	-99
2.11733	-99
2.12100	-98
2.12467	-97
2.12833	-97
2.13200	-96
2.13567	-95
2.13933	-95
2.14300	-94
2.14667	-93
2.15033	-93
2.15400	-93
2.15767	-93
2.16133	-92
2.16500	-92
2.16867	-93
2.17233	-93
2.17600	-93
2.17967	-93
2.18333	-93
2.18700	-92
2.19067	-92
2.19433	-91
2.19800	-91
2.20167	-90
2.20533	-90
2.20900	-90
2.21267	-89
2.21633	-89
2.22000	-89
2.22367	-89
2.22733	-89
2.23100	-88
2.23467	-88
2.23833	-88
2.24200	-88
2.24567	-87
2.24933	-87
2.25300	-87
2.25667	-87
2.26033	-86
2.26400	-86
2.26767	-85
2.27133	-85
2.27500	-84
2.27867	-84
2.28233	-83
2.28600	-83
2.28967	-83
2.29333	-84
2.29700	-84
2.30067	-84
2.30433	-84
2.30800	-84
2.31167	-83
2.31533	-82
2.31900	-81
2.32267	-80
2.32633	-80
2.33000	-80
2.33367	-79
2.33733	-79
2.34100	-79
2.34467	-78
2.34833	-77
2.35200	-77
2.35567	-76
2.35933	-75
2.36300	-74
2.36667	-73
2.37033	-71
2.37400	-69
2.37767	-66
2.38133	-63
2.38500	-59
2.38867	-55
2.39233	-51
2.39600	-46
2.39967	-42
2.40333	-37
2.40700	-33
2.41067	-28
2.41433	-24
2.41800	-20
2.42167	-16
2.42533	-14
2.42900	-12
2.43267	-10
2.43633	-9
2.44000	-7
2.44367	-6
2.44733	-6
2.45100	-5
2.45467	-5
2.45833	-4
2.46200	-4
2.46567	-4
2.46933	-4
2.47300	-3
2.47667	-2
2.48033	-1
2.48400	-0
2.48767	1
2.49133	2
2.49500	3
2.49867	3
2.50233	4
2.50600	5
2.50967	5
2.51333	6
2.51700	7
2.52067	7
2.52433	8
2.52800	9
2.53167	10
2.53533	11
2.53900	11
2.54267	12
2.54633	13
2.55000	13
2.55367	13
2.55733	13
2.56100	13
2.56467	12
2.56833	12
2.57200	11
2.57567	11
2.57933	11
2.58300	11
2.58667	12
2.59033	13
2.59400	13
2.59767	14
2.60133	15
2.60500	16
2.60867	16
2.61233	17
2.61600	17
2.61967	17
2.62333	17
2.62700	16
2.63067	17
2.63433	17
2.63800	17
2.64167	17
2.64533	17
2.64900	18
2.65267	18
2.65633	18
2.66000	19
2.66367	19
2.66733	19
2.67100	19
2.67467	19
2.67833	20
2.68200	21
2.68567	21
2.68933	21
2.69300	22
2.69667	22
2.70033	22
2.70400	22
2.70767	22
2.71133	22
2.71500	22
2.71867	22
2.72233	22
2.72600	22
2.72967	22
2.73333	23
2.73700	23
2.74067	23
2.74433	24
2.74800	25
2.75167	25
2.75533	26
2.75900	26
2.76267	27
2.76633	27
2.77000	27
2.77367	27
2.77733	27
2.78100	27
2.78467	27
2.78833	27
2.79200	26
2.79567	26
2.79933	25
2.80300	24
2.80667	23
2.81033	23
2.81400	23
2.81767	22
2.82133	22
2.82500	22
2.82867	22
2.83233	22
2.83600	22
2.83967	22
2.84333	21
2.84700	20
2.85067	16
2.85433	11
2.85800	2
2.86167	-10
2.86533	-26
2.86900	-46
2.87267	-70
2.87633	-99
2.88000	-133
2.88367	-170
2.88733	-212
2.89100	-257
2.89467	-305
2.89833	-356
2.90200	-409
2.90567	-463
2.90933	-518
2.91300	-574
2.91667	-630
2.92033	-686
2.92400	-740
2.92767	-793
2.93133	-844
2.93500	-897
2.93867	-954
2.94233	-1013
2.94600	-1064
2.94967	-1099
2.95333	-1108
2.95700	-1092
2.96067	-1052
2.96433	-994
2.96800	-923
2.97167	-845
2.97533	-764
2.97900	-683
2.98267	-606
2.98633	-533
2.99000	-466
2.99367	-405
2.99733	-350
3.00100	-301
3.00467	-258
3.00833	-220
3.01200	-187
3.01567	-158
3.01933	-133
3.02300	-112
3.02667	-93
3.03033	-77
3.03400	-64
3.03767	-52
3.04133	-42
3.04500	-34
3.04867	-27
3.05233	-21
3.05600	-16
3.05967	-11
3.06333	-7
3.06700	-4
3.07067	-2
3.07433	1
3.07800	3
3.08167	4
3.08533	5
3.08900	6
3.09267	8
3.09633	8
3.10000	9
3.10367	10
3.10733	10
3.11100	11
3.11467	11
3.11833	12
3.12200	13
3.12567	13
3.12933	14
3.13300	14
3.13667	15
3.14033	15
3.14400	15
3.14767	15
3.15133	15
3.15500	15
3.15867	15
3.16233	15
3.16600	15
3.16967	15
3.17333	16
3.17700	16
3.18067	16
3.18433	16
3.18800	16
3.19167	17
3.19533	17
3.19900	17
3.20267	17
3.20633	17
3.21000	18
3.21367	18
3.21733	18
3.22100	18
3.22467	18
3.22833	19
3.23200	19
3.23567	20
3.23933	20
3.24300	21
3.24667	21
3.25033	22
3.25400	22
3.25767	22
3.26133	23
3.26500	23
3.26867	23
3.27233	24
3.27600	25
3.27967	25
3.28333	26
3.28700	26
3.29067	27
3.29433	27
3.29800	27
3.30167	27
3.30533	27
3.30900	27
3.31267	27
3.31633	27
3.32000	26
3.32367	26
3.32733	26
3.33100	26
3.33467	27
3.33833	27
3.34200	26
3.34567	26
3.34933	26
3.35300	26
3.35667	26
3.36033	26
3.36400	26
3.36767	26
3.37133	26
3.37500	26
3.37867	26
3.38233	26
3.38600	26
3.38967	26
3.39333	25
3.39700	25
3.40067	25
3.40433	25
3.40800	24
3.41167	24
3.41533	24
3.41900	24
3.42267	24
3.42633	24
3.43000	24
3.43367	24
3.43733	24
3.44100	24
3.44467	24
3.44833	24
3.45200	24
3.45567	24
3.45933	24
3.46300	24
3.46667	25
3.47033	25
3.47400	25
3.47767	25
3.48133	25
3.48500	25
3.48867	25
3.49233	25
3.49600	25
3.49967	25
3.50333	25
3.50700	25
3.51067	25
3.51433	25
3.51800	25
3.52167	25
3.52533	25
3.52900	25
3.53267	26
3.53633	26
3.54000	26
3.54367	26
3.54733	27
3.55100	27
3.55467	27
3.55833	27
3.56200	27
3.56567	28
3.56933	28
3.57300	28
3.57667	28
3.58033	27
3.58400	27
3.58767	27
3.59133	26
3.59500	26
3.59867	25
3.60233	25
3.60600	25
3.60967	25
3.61333	25
3.61700	25
3.62067	25
3.62433	25
3.62800	25
3.63167	25
3.63533	25
3.63900	25
3.64267	25
3.64633	25
3.65000	25
3.65367	25
3.65733	25
3.66100	25
3.66467	25
3.66833	25
3.67200	25
3.67567	25
3.67933	26
3.68300	26
3.68667	26
3.69033	26
3.69400	26
3.69767	26
3.70133	26
3.70500	26
3.70867	26
3.71233	25
3.71600	25
3.71967	25
3.72333	25
3.72700	25
3.73067	24
3.73433	24
3.73800	24
3.74167	24
3.74533	24
3.74900	25
3.75267	25
3.75633	25
3.76000	26
3.76367	26
3.76733	26
3.77100	26
3.77467	26
3.77833	26
3.78200	26
3.78567	26
3.78933	26
3.79300	26
3.79667	26
3.80033	26
3.80400	26
3.80767	26
3.81133	26
3.81500	26
3.81867	26
3.82233	26
3.82600	26
3.82967	27
3.83333	27
3.83700	27
3.84067	27
3.84433	27
3.84800	27
3.85167	27
3.85533	27
3.85900	27
3.86267	27
3.86633	27
3.87000	27
3.87367	27
3.87733	27
3.88100	26
3.88467	26
3.88833	26
3.89200	26
3.89567	26
3.89933	25
3.90300	25
3.90667	25
3.91033	26
3.91400	26
3.91767	26
3.92133	26
3.92500	26
3.92867	26
3.93233	27
3.93600	27
3.93967	27
3.94333	27
3.94700	27
3.95067	27
3.95433	27
3.95800	26
3.96167	26
3.96533	26
3.96900	26
3.97267	25
3.97633	25
3.98000	25
3.98367	25
3.98733	25
3.99100	25
3.99467	25
3.99833	25

[Chromatogram (Ch3)]
Interval(msec)	220
# of Points	1091
Start Time(min)	0.002
End Time(min)	3.998
R.Time (min)	Intensity
0.00167	-1
0.00533	-0
0.00900	-0
0.01267	2
0.01633	3
0.02000	4
0.02367	3
0.02733	3
0.03100	5
0.03467	3
0.03833	3
0.04200	4
0.04567	7
0.04933	8
0.05300	8
0.05667	6
0.06033	4
0.06400	5
0.06767	5
0.07133	6
0.07500	5
0.07867	5
0.08233	5
0.08600	3
0.08967	-0
0.09333	-2
0.09700	-2
0.10067	-3
0.10433	-3
0.10800	-3
0.11167	-2
0.11533	-2
0.11900	-1
0.12267	0
0.12633	2
0.13000	0
0.13367	0
0.13733	2
0.14100	5
0.14467	6
0.14833	7
0.15200	7
0.15567	8
0.15933	8
0.16300	7
0.16667	7
0.17033	5
0.17400	4
0.17767	4
0.18133	4
0.18500	6
0.18867	5
0.19233	5
0.19600	4
0.19967	4
0.20333	4
0.20700	3
0.21067	3
0.21433	3
0.21800	2
0.22167	2
0.22533	3
0.22900	2
0.23267	2
0.23633	3
0.24000	4
0.24367	4
0.24733	5
0.25100	5
0.25467	6
0.25833	5
0.26200	6
0.26567	6
0.26933	6
0.27300	5
0.27667	4
0.28033	6
0.28400	8
0.28767	8
0.29133	8
0.29500	8
0.29867	8
0.30233	6
0.30600	5
0.30967	4
0.31333	4
0.31700	4
0.32067	3
0.32433	2
0.32800	2
0.33167	1
0.33533	0
0.33900	4
0.34267	4
0.34633	2
0.35000	3
0.35367	2
0.35733	4
0.36100	7
0.36467	8
0.36833	8
0.37200	8
0.37567	8
0.37933	8
0.38300	9
0.38667	8
0.39033	8
0.39400	6
0.39767	4
0.40133	4
0.40500	5
0.40867	7
0.41233	8
0.41600	9
0.41967	9
0.42333	9
0.42700	7
0.43067	7
0.43433	9
0.43800	10
0.44167	9
0.44533	8
0.44900	6
0.45267	6
0.45633	7
0.46000	6
0.46367	5
0.46733	5
0.47100	5
0.47467	6
0.47833	6
0.48200	6
0.48567	5
0.48933	6
0.49300	7
0.49667	7
0.50033	5
0.50400	5
0.50767	6
0.51133	6
0.51500	5
0.51867	3
0.52233	2
0.52600	2
0.52967	2
0.53333	5
0.53700	5
0.54067	3
0.54433	1
0.54800	2
0.55167	3
0.55533	6
0.55900	8
0.56267	8
0.56633	6
0.57000	4
0.57367	1
0.57733	1
0.58100	2
0.58467	2
0.58833	3
0.59200	5
0.59567	5
0.59933	4
0.60300	4
0.60667	5
0.61033	4
0.61400	3
0.61767	5
0.62133	8
0.62500	9
0.62867	8
0.63233	9
0.63600	8
0.63967	8
0.64333	7
0.64700	4
0.65067	4
0.65433	6
0.65800	8
0.66167	8
0.66533	7
0.66900	5
0.67267	5
0.67633	7
0.68000	8
0.68367	9
0.68733	9
0.69100	8
0.69467	8
0.69833	8
0.70200	8
0.70567	9
0.70933	11
0.71300	12
0.71667	12
0.72033	11
0.72400	11
0.72767	12
0.73133	12
0.73500	10
0.73867	10
0.74233	12
0.74600	13
0.74967	11
0.75333	8
0.75700	8
0.76067	7
0.76433	8
0.76800	9
0.77167	10
0.77533	10
0.77900	9
0.78267	9
0.78633	9
0.79000	8
0.79367	7
0.79733	6
0.80100	7
0.80467	9
0.80833	12
0.81200	12
0.81567	11
0.81933	10
0.82300	10
0.82667	10
0.83033	8
0.83400	6
0.83767	5
0.84133	6
0.84500	8
0.84867	9
0.85233	11
0.85600	15
0.85967	17
0.86333	16
0.86700	14
0.87067	11
0.87433	10
0.87800	8
0.88167	9
0.88533	10
0.88900	10
0.89267	9
0.89633	8
0.90000	9
0.90367	11
0.90733	11
0.91100	12
0.91467	12
0.91833	13
0.92200	13
0.92567	12
0.92933	11
0.93300	9
0.93667	9
0.94033	8
0.94400	9
0.94767	11
0.95133	13
0.95500	14
0.95867	13
0.96233	12
0.96600	12
0.96967	13
0.97333	13
0.97700	14
0.98067	13
0.98433	12
0.98800	13
0.99167	15
0.99533	16
0.99900	15
1.00267	15
1.00633	14
1.01000	13
1.01367	12
1.01733	10
1.02100	10
1.02467	12
1.02833	11
1.03200	11
1.03567	13
1.03933	13
1.04300	12
1.04667	11
1.05033	11
1.05400	11
1.05767	11
1.06133	14
1.06500	14
1.06867	14
1.07233	15
1.07600	16
1.07967	15
1.08333	16
1.08700	18
1.09067	19
1.09433	20
1.09800	20
1.10167	17
1.10533	14
1.10900	14
1.11267	15
1.11633	16
1.12000	17
1.12367	16
1.12733	14
1.13100	15
1.13467	15
1.13833	17
1.14200	17
1.14567	17
1.14933	19
1.15300	20
1.15667	20
1.16033	22
1.16400	23
1.16767	21
1.17133	18
1.17500	18
1.17867	17
1.18233	16
1.18600	18
1.18967	18
1.19333	17
1.19700	17
1.20067	16
1.20433	17
1.20800	18
1.21167	17
1.21533	15
1.21900	15
1.22267	19
1.22633	20
1.23000	20
1.23367	20
1.23733	18
1.24100	16
1.24467	17
1.24833	16
1.25200	17
1.25567	18
1.25933	19
1.26300	19
1.26667	17
1.27033	18
1.27400	19
1.27767	21
1.28133	23
1.28500	24
1.28867	23
1.29233	23
1.29600	22
1.29967	22
1.30333	23
1.30700	22
1.31067	23
1.31433	22
1.31800	22
1.32167	23
1.32533	25
1.32900	25
1.33267	23
1.33633	21
1.34000	21
1.34367	21
1.34733	23
1.35100	24
1.35467	24
1.35833	23
1.36200	23
1.36567	23
1.36933	21
1.37300	21
1.37667	21
1.38033	23
1.38400	25
1.38767	26
1.39133	24
1.39500	22
1.39867	20
1.40233	18
1.40600	20
1.40967	20
1.41333	21
1.41700	21
1.42067	21
1.42433	22
1.42800	23
1.43167	23
1.43533	23
1.43900	22
1.44267	21
1.44633	20
1.45000	21
1.45367	21
1.45733	22
1.46100	23
1.46467	22
1.46833	19
1.47200	16
1.47567	17
1.47933	19
1.48300	23
1.48667	25
1.49033	27
1.49400	29
1.49767	29
1.50133	28
1.50500	27
1.50867	26
1.51233	26
1.51600	25
1.51967	25
1.52333	24
1.52700	22
1.53067	21
1.53433	22
1.53800	21
1.54167	22
1.54533	22
1.54900	23
1.55267	23
1.55633	24
1.56000	25
1.56367	26
1.56733	27
1.57100	27
1.57467	27
1.57833	27
1.58200	27
1.58567	26
1.58933	26
1.59300	28
1.59667	29
1.60033	31
1.60400	33
1.60767	34
1.61133	35
1.61500	34
1.61867	34
1.62233	33
1.62600	33
1.62967	33
1.63333	32
1.63700	31
1.64067	31
1.64433	32
1.64800	35
1.65167	36
1.65533	36
1.65900	37
1.66267	36
1.66633	37
1.67000	41
1.67367	43
1.67733	43
1.68100	43
1.68467	44
1.68833	45
1.69200	45
1.69567	45
1.69933	47
1.70300	50
1.70667	52
1.71033	53
1.71400	51
1.71767	49
1.72133	49
1.72500	49
1.72867	49
1.73233	48
1.73600	49
1.73967	48
1.74333	49
1.74700	51
1.75067	53
1.75433	56
1.75800	56
1.76167	54
1.76533	51
1.76900	50
1.77267	48
1.77633	47
1.78000	48
1.78367	50
1.78733	52
1.79100	52
1.79467	51
1.79833	51
1.80200	51
1.80567	52
1.80933	53
1.81300	54
1.81667	53
1.82033	55
1.82400	55
1.82767	56
1.83133	59
1.83500	60
1.83867	60
1.84233	60
1.84600	58
1.84967	57
1.85333	56
1.85700	58
1.86067	61
1.86433	63
1.86800	62
1.87167	61
1.87533	61
1.87900	62
1.88267	63
1.88633	64
1.89000	65
1.89367	66
1.89733	66
1.90100	67
1.90467	70
1.90833	71
1.91200	72
1.91567	72
1.91933	72
1.92300	70
1.92667	68
1.93033	70
1.93400	73
1.93767	76
1.94133	77
1.94500	78
1.94867	78
1.95233	79
1.95600	78
1.95967	78
1.96333	79
1.96700	81
1.97067	84
1.97433	85
1.97800	85
1.98167	87
1.98533	91
1.98900	94
1.99267	94
1.99633	94
2.00000	93
2.00367	93
2.00733	93
2.01100	95
2.01467	97
2.01833	99
2.02200	102
2.02567	101
2.02933	98
2.03300	99
2.03667	101
2.04033	103
2.04400	103
2.04767	104
2.05133	105
2.05500	107
2.05867	109
2.06233	111
2.06600	111
2.06967	111
2.07333	112
2.07700	113
2.08067	115
2.08433	118
2.08800	122
2.09167	124
2.09533	124
2.09900	124
2.10267	124
2.10633	124
2.11000	124
2.11367	124
2.11733	125
2.12100	129
2.12467	132
2.12833	134
2.13200	133
2.13567	133
2.13933	135
2.14300	138
2.14667	142
2.15033	143
2.15400	142
2.15767	143
2.16133	146
2.16500	148
2.16867	151
2.17233	154
2.17600	155
2.17967	155
2.18333	155
2.18700	157
2.19067	157
2.19433	158
2.19800	158
2.20167	160
2.20533	163
2.20900	166
2.21267	167
2.21633	169
2.22000	169
2.22367	171
2.22733	171
2.23100	172
2.23467	173
2.23833	176
2.24200	178
2.24567	180
2.24933	180
2.25300	181
2.25667	180
2.26033	180
2.26400	181
2.26767	183
2.27133	186
2.27500	188
2.27867	190
2.28233	190
2.28600	190
2.28967	190
2.29333	191
2.29700	192
2.30067	192
2.30433	192
2.30800	193
2.31167	196
2.31533	199
2.31900	199
2.32267	201
2.32633	204
2.33000	205
2.33367	205
2.33733	207
2.34100	209
2.34467	211
2.34833	212
2.35200	215
2.35567	215
2.35933	214
2.36300	215
2.36667	215
2.37033	214
2.37400	214
2.37767	215
2.38133	216
2.38500	217
2.38867	216
2.39233	218
2.39600	220
2.39967	224
2.40333	229
2.40700	231
2.41067	233
2.41433	234
2.41800	233
2.42167	231
2.42533	230
2.42900	231
2.43267	231
2.43633	231
2.44000	235
2.44367	292
2.44733	438
2.45100	594
2.45467	722
2.45833	792
2.46200	794
2.46567	759
2.46933	717
2.47300	684
2.47667	666
2.48033	652
2.48400	627
2.48767	586
2.49133	540
2.49500	494
2.49867	455
2.50233	429
2.50600	412
2.50967	404
2.51333	410
2.51700	424
2.52067	445
2.52433	468
2.52800	482
2.53167	479
2.53533	463
2.53900	438
2.54267	409
2.54633	378
2.55000	348
2.55367	322
2.55733	302
2.56100	288
2.56467	276
2.56833	268
2.57200	263
2.57567	261
2.57933	259
2.58300	258
2.58667	259
2.59033	261
2.59400	263
2.59767	264
2.60133	263
2.60500	259
2.60867	253
2.61233	246
2.61600	239
2.61967	231
2.62333	221
2.62700	212
2.63067	204
2.63433	195
2.63800	185
2.64167	176
2.64533	167
2.64900	156
2.65267	146
2.65633	135
2.66000	123
2.66367	114
2.66733	105
2.67100	97
2.67467	88
2.67833	80
2.68200	76
2.68567	72
2.68933	70
2.69300	67
2.69667	67
2.70033	69
2.70400	71
2.70767	72
2.71133	75
2.71500	79
2.71867	81
2.72233	83
2.72600	87
2.72967	92
2.73333	97
2.73700	100
2.74067	103
2.74433	106
2.74800	109
2.75167	113
2.75533	118
2.75900	122
2.76267	123
2.76633	125
2.77000	129
2.77367	132
2.77733	133
2.78100	136
2.78467	139
2.78833	143
2.79200	147
2.79567	151
2.79933	154
2.80300	159
2.80667	164
2.81033	169
2.81400	176
2.81767	184
2.82133	197
2.82500	218
2.82867	259
2.83233	334
2.83600	464
2.83967	671
2.84333	974
2.84700	1379
2.85067	1879
2.85433	2449
2.85800	3049
2.86167	3633
2.86533	4154
2.86900	4568
2.87267	4847
2.87633	4982
2.88000	4979
2.88367	4855
2.88733	4636
2.89100	4347
2.89467	4018
2.89833	3670
2.90200	3322
2.90567	2986
2.90933	2669
2.91300	2375
2.91667	2109
2.92033	1867
2.92400	1652
2.92767	1462
2.93133	1296
2.93500	1149
2.93867	1018
2.94233	903
2.94600	804
2.94967	719
2.95333	645
2.95700	580
2.96067	523
2.96433	471
2.96800	427
2.97167	390
2.97533	360
2.97900	333
2.98267	309
2.98633	289
2.99000	272
2.99367	256
2.99733	243
3.00100	231
3.00467	220
3.00833	210
3.01200	203
3.01567	198
3.01933	193
3.02300	188
3.02667	184
3.03033	178
3.03400	172
3.03767	160
3.04133	131
3.04500	108
3.04867	109
3.05233	132
3.05600	173
3.05967	221
3.06333	269
3.06700	318
3.07067	363
3.07433	402
3.07800	435
3.08167	465
3.08533	491
3.08900	513
3.09267	532
3.09633	549
3.10000	563
3.10367	577
3.10733	589
3.11100	597
3.11467	606
3.11833	615
3.12200	625
3.12567	635
3.12933	642
3.13300	647
3.13667	653
3.14033	658
3.14400	663
3.14767	669
3.15133	674
3.15500	677
3.15867	682
3.16233	690
3.16600	696
3.16967	702
3.17333	708
3.17700	714
3.18067	722
3.18433	726
3.18800	730
3.19167	734
3.19533	738
3.19900	744
3.20267	749
3.20633	753
3.21000	757
3.21367	763
3.21733	769
3.22100	774
3.22467	781
3.22833	787
3.23200	791
3.23567	793
3.23933	798
3.24300	800
3.24667	801
3.25033	803
3.25400	806
3.25767	811
3.26133	815
3.26500	816
3.26867	818
3.27233	819
3.27600	821
3.27967	823
3.28333	827
3.28700	829
3.29067	831
3.29433	833
3.29800	835
3.30167	835
3.30533	834
3.30900	833
3.31267	833
3.31633	835
3.32000	834
3.32367	832
3.32733	827
3.33100	825
3.33467	825
3.33833	826
3.34200	825
3.34567	825
3.34933	825
3.35300	823
3.35667	820
3.36033	819
3.36400	818
3.36767	816
3.37133	814
3.37500	812
3.37867	811
3.38233	809
3.38600	807
3.38967	805
3.39333	803
3.39700	802
3.40067	801
3.40433	801
3.40800	801
3.41167	799
3.41533	798
3.41900	797
3.42267	795
3.42633	792
3.43000	787
3.43367	784
3.43733	782
3.44100	781
3.44467	782
3.44833	782
3.45200	783
3.45567	783
3.45933	782
3.46300	781
3.46667	781
3.47033	781
3.47400	780
3.47767	778
3.48133	774
3.48500	771
3.48867	770
3.49233	768
3.49600	765
3.49967	763
3.50333	760
3.50700	760
3.51067	760
3.51433	759
3.51800	758
3.52167	758
3.52533	758
3.52900	756
3.53267	754
3.53633	754
3.54000	753
3.54367	752
3.54733	749
3.55100	746
3.55467	743
3.55833	741
3.56200	740
3.56567	738
3.56933	737
3.57300	738
3.57667	740
3.58033	742
3.58400	742
3.58767	743
3.59133	741
3.59500	740
3.59867	741
3.60233	741
3.60600	739
3.60967	737
3.61333	734
3.61700	732
3.62067	730
3.62433	727
3.62800	725
3.63167	722
3.63533	720
3.63900	719
3.64267	719
3.64633	717
3.65000	715
3.65367	713
3.65733	712
3.66100	710
3.66467	709
3.66833	707
3.67200	703
3.67567	701
3.67933	700
3.68300	701
3.68667	701
3.69033	700
3.69400	699
3.69767	697
3.70133	694
3.70500	692
3.70867	689
3.71233	687
3.71600	686
3.71967	685
3.72333	683
3.72700	683
3.73067	682
3.73433	680
3.73800	680
3.74167	679
3.74533	675
3.74900	672
3.75267	670
3.75633	670
3.76000	672
3.76367	672
3.76733	669
3.77100	667
3.77467	665
3.77833	660
3.78200	655
3.78567	652
3.78933	651
3.79300	651
3.79667	652
3.80033	650
3.80400	646
3.80767	643
3.81133	641
3.81500	638
3.81867	636
3.82233	634
3.82600	632
3.82967	630
3.83333	629
3.83700	627
3.84067	624
3.84433	623
3.84800	620
3.85167	619
3.85533	615
3.85900	613
3.86267	612
3.86633	610
3.87000	608
3.87367	606
3.87733	603
3.88100	605
3.88467	607
3.88833	604
3.89200	602
3.89567	602
3.89933	603
3.90300	602
3.90667	601
3.91033	601
3.91400	599
3.91767	597
3.92133	595
3.92500	592
3.92867	589
3.93233	586
3.93600	583
3.93967	581
3.94333	581
3.94700	581
3.95067	579
3.95433	579
3.95800	577
3.96167	576
3.96533	575
3.96900	574
3.97267	573
3.97633	575
3.98000	573
3.98367	572
3.98733	570
3.99100	566
3.99467	563
3.99833	558

[Status Trace (Column Oven Temperature)]
Interval(msec)	1000
# of Points	240
Start Time(min)	0.006
End Time(min)	3.989
Intensity Units	
Intensity Multiplier	1
R.Time (min)	Intensity
0.00613	35.07
0.02280	35.08
0.03947	35.08
0.05613	35.09
0.07280	35.08
0.08947	35.07
0.10613	35.05
0.12280	35.05
0.13947	35.04
0.15613	35.03
0.17280	35.02
0.18947	35.02
0.20613	35.03
0.22280	35.04
0.23947	35.04
0.25613	35.06
0.27280	35.06
0.28947	35.05
0.30613	35.04
0.32280	35.04
0.33947	35.02
0.35613	35.02
0.37280	35.02
0.38947	35.01
0.40613	35.01
0.42280	35.00
0.43947	34.99
0.45613	34.99
0.47280	34.99
0.48947	34.99
0.50613	35.00
0.52280	35.01
0.53947	35.02
0.55613	35.01
0.57280	35.00
0.58947	35.00
0.60613	35.00
0.62280	34.99
0.63947	35.00
0.65613	35.00
0.67280	35.00
0.68947	35.00
0.70613	35.01
0.72280	35.01
0.73947	35.02
0.75613	35.03
0.77280	35.01
0.78947	35.00
0.80613	34.98
0.82280	35.00
0.83947	35.00
0.85613	35.00
0.87280	35.00
0.88947	35.00
0.90613	34.99
0.92280	34.99
0.93947	34.97
0.95613	34.98
0.97280	34.98
0.98947	34.97
1.00613	34.97
1.02280	34.98
1.03947	34.99
1.05613	35.00
1.07280	35.00
1.08947	35.00
1.10613	35.00
1.12280	35.01
1.13947	35.02
1.15613	35.02
1.17280	35.01
1.18947	35.01
1.20613	35.01
1.22280	35.01
1.23947	35.01
1.25613	35.00
1.27280	35.00
1.28947	34.99
1.30613	35.00
1.32280	35.01
1.33947	35.01
1.35613	35.01
1.37280	35.00
1.38947	35.00
1.40613	34.99
1.42280	34.98
1.43947	34.98
1.45613	34.98
1.47280	34.98
1.48947	34.98
1.50613	34.98
1.52280	34.97
1.53947	34.97
1.55613	34.98
1.57280	34.97
1.58947	34.98
1.60613	35.03
1.62280	35.15
1.63947	35.33
1.65613	35.57
1.67280	35.90
1.68947	36.26
1.70613	36.62
1.72280	36.96
1.73947	37.30
1.75613	37.64
1.77280	37.97
1.78947	38.31
1.80613	38.62
1.82280	38.96
1.83947	39.29
1.85613	39.62
1.87280	39.95
1.88947	40.28
1.90613	40.61
1.92280	40.94
1.93947	41.27
1.95613	41.61
1.97280	41.92
1.98947	42.26
2.00613	42.59
2.02280	42.91
2.03947	43.23
2.05613	43.54
2.07280	43.87
2.08947	44.20
2.10613	44.53
2.12280	44.84
2.13947	45.16
2.15613	45.49
2.17280	45.83
2.18947	46.14
2.20613	46.47
2.22280	46.80
2.23947	47.13
2.25613	47.45
2.27280	47.77
2.28947	48.14
2.30613	48.46
2.32280	48.80
2.33947	49.11
2.35613	49.41
2.37280	49.63
2.38947	49.70
2.40613	49.69
2.42280	49.69
2.43947	49.68
2.45613	49.69
2.47280	49.70
2.48947	49.72
2.50613	49.74
2.52280	49.75
2.53947	49.76
2.55613	49.78
2.57280	49.82
2.58947	49.82
2.60613	49.81
2.62280	49.82
2.63947	49.82
2.65613	49.83
2.67280	49.84
2.68947	49.84
2.70613	49.85
2.72280	49.87
2.73947	49.86
2.75613	49.85
2.77280	49.85
2.78947	49.86
2.80613	49.89
2.82280	49.90
2.83947	49.91
2.85613	49.90
2.87280	49.91
2.88947	49.91
2.90613	49.93
2.92280	49.95
2.93947	49.97
2.95613	49.97
2.97280	49.98
2.98947	49.98
3.00613	49.98
3.02280	49.97
3.03947	49.97
3.05613	49.98
3.07280	49.99
3.08947	50.01
3.10613	50.01
3.12280	50.03
3.13947	50.03
3.15613	50.05
3.17280	50.08
3.18947	50.09
3.20613	50.10
3.22280	50.11
3.23947	50.11
3.25613	50.10
3.27280	50.09
3.28947	50.07
3.30613	50.07
3.32280	50.05
3.33947	50.04
3.35613	50.03
3.37280	50.03
3.38947	50.03
3.40613	50.05
3.42280	50.06
3.43947	50.06
3.45613	50.06
3.47280	50.06
3.48947	50.06
3.50613	50.07
3.52280	50.06
3.53947	50.05
3.55613	50.04
3.57280	50.03
3.58947	50.05
3.60613	50.05
3.62280	50.06
3.63947	50.06
3.65613	50.07
3.67280	50.06
3.68947	50.06
3.70613	50.07
3.72280	50.08
3.73947	50.10
3.75613	50.09
3.77280	50.09
3.78947	50.09
3.80613	50.09
3.82280	50.08
3.83947	50.07
3.85613	50.06
3.87280	50.06
3.88947	50.06
3.90613	50.06
3.92280	50.05
3.93947	50.05
3.95613	50.05
3.97280	50.06
3.98947	50.06

[Status Trace (Injection Unit Temperature)]
Interval(msec)	1000
# of Points	240
Start Time(min)	0.006
End Time(min)	3.989
Intensity Units	
Intensity Multiplier	1
R.Time (min)	Intensity
0.00613	99.98
0.02280	99.98
0.03947	99.97
0.05613	99.98
0.07280	99.98
0.08947	99.98
0.10613	99.99
0.12280	99.97
0.13947	99.98
0.15613	99.98
0.17280	99.98
0.18947	99.98
0.20613	99.98
0.22280	99.98
0.23947	99.98
0.25613	99.98
0.27280	99.98
0.28947	99.98
0.30613	99.98
0.32280	99.98
0.33947	99.98
0.35613	99.98
0.37280	99.98
0.38947	99.98
0.40613	99.98
0.42280	99.98
0.43947	99.98
0.45613	99.98
0.47280	99.98
0.48947	99.98
0.50613	99.98
0.52280	99.98
0.53947	99.98
0.55613	99.98
0.57280	99.98
0.58947	99.98
0.60613	99.98
0.62280	99.98
0.63947	99.98
0.65613	99.99
0.67280	99.98
0.68947	99.98
0.70613	99.98
0.72280	99.98
0.73947	99.98
0.75613	99.98
0.77280	99.99
0.78947	99.98
0.80613	99.98
0.82280	99.98
0.83947	99.98
0.85613	99.98
0.87280	99.98
0.88947	99.98
0.90613	99.98
0.92280	99.99
0.93947	99.98
0.95613	99.98
0.97280	99.98
0.98947	99.99
1.00613	99.98
1.02280	99.98
1.03947	99.98
1.05613	99.98
1.07280	99.98
1.08947	99.98
1.10613	99.99
1.12280	99.98
1.13947	99.99
1.15613	99.98
1.17280	99.98
1.18947	99.98
1.20613	99.98
1.22280	99.99
1.23947	99.99
1.25613	99.99
1.27280	99.98
1.28947	99.98
1.30613	99.99
1.32280	99.98
1.33947	99.99
1.35613	99.99
1.37280	99.99
1.38947	99.99
1.40613	99.99
1.42280	99.99
1.43947	99.99
1.45613	99.98
1.47280	99.99
1.48947	99.98
1.50613	99.98
1.52280	99.98
1.53947	99.98
1.55613	99.98
1.57280	99.99
1.58947	99.99
1.60613	99.98
1.62280	99.99
1.63947	99.98
1.65613	99.99
1.67280	99.98
1.68947	99.98
1.70613	99.98
1.72280	99.98
1.73947	99.98
1.75613	99.98
1.77280	99.98
1.78947	99.98
1.80613	99.98
1.82280	99.98
1.83947	99.98
1.85613	99.98
1.87280	99.98
1.88947	99.98
1.90613	99.98
1.92280	99.97
1.93947	99.98
1.95613	99.98
1.97280	99.98
1.98947	99.98
2.00613	99.97
2.02280	99.97
2.03947	99.97
2.05613	99.97
2.07280	99.97
2.08947	99.97
2.10613	99.97
2.12280	99.98
2.13947	99.97
2.15613	99.97
2.17280	99.97
2.18947	99.97
2.20613	99.97
2.22280	99.98
2.23947	99.97
2.25613	99.97
2.27280	99.97
2.28947	99.97
2.30613	99.97
2.32280	99.97
2.33947	99.97
2.35613	99.98
2.37280	99.97
2.38947	99.97
2.40613	99.98
2.42280	99.98
2.43947	99.97
2.45613	99.97
2.47280	99.97
2.48947	99.97
2.50613	99.97
2.52280	99.98
2.53947	99.97
2.55613	99.97
2.57280	99.98
2.58947	99.97
2.60613	99.98
2.62280	99.98
2.63947	99.98
2.65613	99.98
2.67280	99.98
2.68947	99.98
2.70613	99.98
2.72280	99.99
2.73947	99.99
2.75613	99.99
2.77280	99.99
2.78947	99.99
2.80613	99.99
2.82280	99.99
2.83947	99.99
2.85613	99.99
2.87280	99.99
2.88947	100.00
2.90613	100.00
2.92280	100.00
2.93947	100.01
2.95613	100.00
2.97280	100.00
2.98947	100.00
3.00613	100.01
3.02280	100.00
3.03947	100.01
3.05613	100.01
3.07280	100.01
3.08947	100.01
3.10613	100.01
3.12280	100.01
3.13947	100.02
3.15613	100.01
3.17280	100.02
3.18947	100.02
3.20613	100.02
3.22280	100.02
3.23947	100.02
3.25613	100.02
3.27280	100.03
3.28947	100.02
3.30613	100.02
3.32280	100.02
3.33947	100.02
3.35613	100.03
3.37280	100.03
3.38947	100.03
3.40613	100.02
3.42280	100.03
3.43947	100.03
3.45613	100.03
3.47280	100.03
3.48947	100.03
3.50613	100.03
3.52280	100.03
3.53947	100.04
3.55613	100.03
3.57280	100.03
3.58947	100.03
3.60613	100.04
3.62280	100.04
3.63947	100.04
3.65613	100.03
3.67280	100.04
3.68947	100.04
3.70613	100.04
3.72280	100.04
3.73947	100.04
3.75613	100.04
3.77280	100.04
3.78947	100.04
3.80613	100.04
3.82280	100.05
3.83947	100.04
3.85613	100.04
3.87280	100.04
3.88947	100.04
3.90613	100.05
3.92280	100.04
3.93947	100.05
3.95613	100.05
3.97280	100.05
3.98947	100.05

[Status Trace (Carrier Gas Pressure)]
Interval(msec)	1000
# of Points	240
Start Time(min)	0.006
End Time(min)	3.989
Intensity Units	
Intensity Multiplier	1
R.Time (min)	Intensity
0.00613	58.00
0.02280	55.58
0.03947	56.83
0.05613	59.05
0.07280	59.57
0.08947	58.13
0.10613	57.98
0.12280	58.01
0.13947	58.01
0.15613	58.01
0.17280	58.00
0.18947	58.00
0.20613	58.00
0.22280	58.00
0.23947	58.00
0.25613	58.00
0.27280	58.00
0.28947	58.00
0.30613	58.00
0.32280	58.00
0.33947	58.00
0.35613	58.00
0.37280	58.00
0.38947	58.00
0.40613	58.00
0.42280	58.00
0.43947	58.00
0.45613	58.00
0.47280	58.00
0.48947	58.00
0.50613	58.00
0.52280	58.00
0.53947	58.00
0.55613	58.00
0.57280	58.00
0.58947	58.00
0.60613	58.00
0.62280	58.00
0.63947	58.00
0.65613	58.00
0.67280	58.00
0.68947	58.00
0.70613	58.00
0.72280	58.00
0.73947	58.00
0.75613	58.00
0.77280	58.00
0.78947	58.00
0.80613	58.00
0.82280	58.00
0.83947	58.00
0.85613	58.00
0.87280	58.00
0.88947	58.00
0.90613	58.00
0.92280	58.00
0.93947	58.00
0.95613	58.00
0.97280	58.00
0.98947	58.00
1.00613	58.00
1.02280	58.00
1.03947	58.00
1.05613	58.00
1.07280	58.00
1.08947	58.00
1.10613	58.00
1.12280	58.00
1.13947	58.00
1.15613	58.00
1.17280	58.00
1.18947	58.00
1.20613	58.00
1.22280	58.00
1.23947	58.00
1.25613	58.00
1.27280	58.00
1.28947	58.00
1.30613	58.00
1.32280	58.00
1.33947	58.00
1.35613	58.00
1.37280	58.00
1.38947	58.00
1.40613	58.00
1.42280	58.00
1.43947	58.00
1.45613	58.00
1.47280	58.00
1.48947	58.00
1.50613	58.00
1.52280	58.00
1.53947	58.00
1.55613	58.00
1.57280	58.00
1.58947	58.00
1.60613	58.00
1.62280	58.00
1.63947	58.00
1.65613	58.00
1.67280	58.01
1.68947	58.00
1.70613	58.00
1.72280	58.00
1.73947	58.00
1.75613	58.00
1.77280	58.00
1.78947	58.00
1.80613	58.00
1.82280	58.00
1.83947	58.00
1.85613	58.00
1.87280	58.00
1.88947	58.00
1.90613	58.00
1.92280	58.00
1.93947	58.00
1.95613	58.00
1.97280	58.00
1.98947	58.00
2.00613	58.00
2.02280	58.00
2.03947	58.00
2.05613	58.00
2.07280	58.00
2.08947	58.00
2.10613	58.00
2.12280	58.00
2.13947	58.00
2.15613	58.00
2.17280	58.00
2.18947	58.00
2.20613	58.00
2.22280	58.00
2.23947	58.00
2.25613	58.00
2.27280	58.00
2.28947	58.00
2.30613	58.00
2.32280	58.00
2.33947	58.00
2.35613	58.00
2.37280	58.00
2.38947	57.99
2.40613	57.99
2.42280	58.00
2.43947	58.00
2.45613	58.00
2.47280	58.00
2.48947	58.00
2.50613	57.99
2.52280	57.99
2.53947	58.00
2.55613	58.00
2.57280	58.00
2.58947	58.00
2.60613	58.00
2.62280	58.00
2.63947	58.00
2.65613	58.00
2.67280	58.00
2.68947	58.00
2.70613	58.00
2.72280	58.00
2.73947	58.00
2.75613	58.00
2.77280	58.00
2.78947	58.00
2.80613	58.00
2.82280	58.00
2.83947	58.00
2.85613	58.00
2.87280	58.00
2.88947	58.00
2.90613	58.00
2.92280	58.00
2.93947	58.00
2.95613	58.00
2.97280	58.00
2.98947	58.00
3.00613	58.00
3.02280	58.00
3.03947	58.00
3.05613	58.00
3.07280	58.00
3.08947	58.00
3.10613	58.00
3.12280	58.00
3.13947	58.00
3.15613	58.00
3.17280	58.00
3.18947	58.00
3.20613	58.00
3.22280	58.00
3.23947	58.00
3.25613	58.00
3.27280	58.00
3.28947	58.00
3.30613	58.00
3.32280	58.00
3.33947	58.00
3.35613	58.00
3.37280	58.00
3.38947	58.00
3.40613	58.00
3.42280	58.00
3.43947	58.00
3.45613	58.00
3.47280	58.00
3.48947	58.00
3.50613	58.00
3.52280	58.00
3.53947	58.00
3.55613	58.00
3.57280	58.00
3.58947	58.00
3.60613	58.00
3.62280	58.00
3.63947	58.00
3.65613	58.00
3.67280	58.00
3.68947	58.00
3.70613	58.00
3.72280	58.00
3.73947	58.00
3.75613	58.00
3.77280	58.00
3.78947	58.00
3.80613	58.00
3.82280	58.00
3.83947	58.00
3.85613	58.00
3.87280	58.00
3.88947	58.00
3.90613	58.00
3.92280	58.00
3.93947	58.00
3.95613	58.00
3.97280	58.00
3.98947	58.00

[Status Trace (Carrier Gas Flow)]
Interval(msec)	1000
# of Points	240
Start Time(min)	0.006
End Time(min)	3.989
Intensity Units	
Intensity Multiplier	1
R.Time (min)	Intensity
0.00613	34.52
0.02280	34.54
0.03947	34.55
0.05613	34.54
0.07280	34.49
0.08947	34.52
0.10613	34.52
0.12280	34.51
0.13947	34.52
0.15613	34.52
0.17280	34.52
0.18947	34.52
0.20613	34.51
0.22280	34.52
0.23947	34.52
0.25613	34.52
0.27280	34.52
0.28947	34.52
0.30613	34.52
0.32280	34.52
0.33947	34.52
0.35613	34.51
0.37280	34.51
0.38947	34.52
0.40613	34.52
0.42280	34.52
0.43947	34.52
0.45613	34.52
0.47280	34.52
0.48947	34.53
0.50613	34.52
0.52280	34.52
0.53947	34.52
0.55613	34.52
0.57280	34.52
0.58947	34.52
0.60613	34.51
0.62280	34.52
0.63947	34.52
0.65613	34.52
0.67280	34.51
0.68947	34.52
0.70613	34.52
0.72280	34.52
0.73947	34.52
0.75613	34.52
0.77280	34.52
0.78947	34.52
0.80613	34.52
0.82280	34.52
0.83947	34.52
0.85613	34.52
0.87280	34.52
0.88947	34.52
0.90613	34.52
0.92280	34.51
0.93947	34.52
0.95613	34.52
0.97280	34.52
0.98947	34.52
1.00613	34.52
1.02280	34.52
1.03947	34.52
1.05613	34.52
1.07280	34.52
1.08947	34.52
1.10613	34.52
1.12280	34.51
1.13947	34.52
1.15613	34.52
1.17280	34.52
1.18947	34.52
1.20613	34.52
1.22280	34.52
1.23947	34.53
1.25613	34.52
1.27280	34.52
1.28947	34.52
1.30613	34.52
1.32280	34.52
1.33947	34.52
1.35613	34.52
1.37280	34.52
1.38947	34.52
1.40613	34.52
1.42280	34.52
1.43947	34.53
1.45613	34.52
1.47280	34.52
1.48947	34.52
1.50613	34.52
1.52280	34.52
1.53947	34.51
1.55613	34.52
1.57280	34.53
1.58947	34.52
1.60613	34.51
1.62280	34.52
1.63947	34.52
1.65613	34.52
1.67280	34.52
1.68947	34.52
1.70613	34.52
1.72280	34.52
1.73947	34.52
1.75613	34.52
1.77280	34.52
1.78947	34.51
1.80613	34.52
1.82280	34.51
1.83947	34.52
1.85613	34.52
1.87280	34.52
1.88947	34.52
1.90613	34.52
1.92280	34.52
1.93947	34.51
1.95613	34.52
1.97280	34.52
1.98947	34.52
2.00613	34.52
2.02280	34.52
2.03947	34.52
2.05613	34.53
2.07280	34.52
2.08947	34.52
2.10613	34.52
2.12280	34.52
2.13947	34.52
2.15613	34.52
2.17280	34.52
2.18947	34.52
2.20613	34.52
2.22280	34.52
2.23947	34.52
2.25613	34.52
2.27280	34.51
2.28947	34.51
2.30613	34.52
2.32280	34.52
2.33947	34.52
2.35613	34.52
2.37280	34.52
2.38947	34.51
2.40613	34.52
2.42280	34.51
2.43947	34.52
2.45613	34.52
2.47280	34.52
2.48947	34.52
2.50613	34.47
2.52280	34.52
2.53947	34.51
2.55613	34.53
2.57280	34.52
2.58947	34.52
2.60613	34.52
2.62280	34.52
2.63947	34.52
2.65613	34.52
2.67280	34.52
2.68947	34.52
2.70613	34.52
2.72280	34.52
2.73947	34.52
2.75613	34.52
2.77280	34.52
2.78947	34.52
2.80613	34.53
2.82280	34.52
2.83947	34.52
2.85613	34.52
2.87280	34.52
2.88947	34.53
2.90613	34.52
2.92280	34.52
2.93947	34.52
2.95613	34.52
2.97280	34.52
2.98947	34.52
3.00613	34.52
3.02280	34.51
3.03947	34.52
3.05613	34.52
3.07280	34.52
3.08947	34.52
3.10613	34.51
3.12280	34.52
3.13947	34.52
3.15613	34.51
3.17280	34.52
3.18947	34.52
3.20613	34.52
3.22280	34.52
3.23947	34.52
3.25613	34.52
3.27280	34.52
3.28947	34.52
3.30613	34.52
3.32280	34.52
3.33947	34.52
3.35613	34.52
3.37280	34.52
3.38947	34.52
3.40613	34.52
3.42280	34.52
3.43947	34.52
3.45613	34.52
3.47280	34.52
3.48947	34.52
3.50613	34.52
3.52280	34.52
3.53947	34.52
3.55613	34.52
3.57280	34.52
3.58947	34.52
3.60613	34.52
3.62280	34.52
3.63947	34.52
3.65613	34.53
3.67280	34.52
3.68947	34.52
3.70613	34.51
3.72280	34.52
3.73947	34.52
3.75613	34.52
3.77280	34.52
3.78947	34.52
3.80613	34.52
3.82280	34.52
3.83947	34.52
3.85613	34.52
3.87280	34.52
3.88947	34.52
3.90613	34.51
3.92280	34.52
3.93947	34.52
3.95613	34.51
3.97280	34.53
3.98947	34.52

[Status Trace (Column Flow)]
Interval(msec)	1000
# of Points	240
Start Time(min)	0.006
End Time(min)	3.989
Intensity Units	
Intensity Multiplier	1
R.Time (min)	Intensity
0.00613	5.55
0.02280	5.27
0.03947	5.41
0.05613	5.67
0.07280	5.73
0.08947	5.56
0.10613	5.55
0.12280	5.55
0.13947	5.55
0.15613	5.55
0.17280	5.55
0.18947	5.55
0.20613	5.55
0.22280	5.55
0.23947	5.55
0.25613	5.55
0.27280	5.55
0.28947	5.55
0.30613	5.55
0.32280	5.55
0.33947	5.55
0.35613	5.55
0.37280	5.55
0.38947	5.55
0.40613	5.55
0.42280	5.55
0.43947	5.55
0.45613	5.55
0.47280	5.55
0.48947	5.55
0.50613	5.55
0.52280	5.55
0.53947	5.55
0.55613	5.55
0.57280	5.55
0.58947	5.55
0.60613	5.55
0.62280	5.55
0.63947	5.55
0.65613	5.55
0.67280	5.55
0.68947	5.55
0.70613	5.55
0.72280	5.55
0.73947	5.55
0.75613	5.55
0.77280	5.55
0.78947	5.55
0.80613	5.55
0.82280	5.55
0.83947	5.55
0.85613	5.55
0.87280	5.55
0.88947	5.55
0.90613	5.55
0.92280	5.55
0.93947	5.55
0.95613	5.55
0.97280	5.55
0.98947	5.55
1.00613	5.55
1.02280	5.55
1.03947	5.55
1.05613	5.55
1.07280	5.55
1.08947	5.55
1.10613	5.55
1.12280	5.55
1.13947	5.55
1.15613	5.55
1.17280	5.55
1.18947	5.55
1.20613	5.55
1.22280	5.55
1.23947	5.55
1.25613	5.55
1.27280	5.55
1.28947	5.55
1.30613	5.55
1.32280	5.55
1.33947	5.55
1.35613	5.55
1.37280	5.55
1.38947	5.55
1.40613	5.55
1.42280	5.55
1.43947	5.55
1.45613	5.55
1.47280	5.55
1.48947	5.55
1.50613	5.55
1.52280	5.55
1.53947	5.55
1.55613	5.55
1.57280	5.55
1.58947	5.55
1.60613	5.55
1.62280	5.55
1.63947	5.54
1.65613	5.53
1.67280	5.52
1.68947	5.51
1.70613	5.50
1.72280	5.49
1.73947	5.48
1.75613	5.47
1.77280	5.46
1.78947	5.45
1.80613	5.44
1.82280	5.43
1.83947	5.42
1.85613	5.41
1.87280	5.40
1.88947	5.39
1.90613	5.38
1.92280	5.37
1.93947	5.36
1.95613	5.35
1.97280	5.34
1.98947	5.33
2.00613	5.32
2.02280	5.31
2.03947	5.30
2.05613	5.29
2.07280	5.28
2.08947	5.27
2.10613	5.26
2.12280	5.25
2.13947	5.24
2.15613	5.23
2.17280	5.22
2.18947	5.21
2.20613	5.21
2.22280	5.20
2.23947	5.19
2.25613	5.18
2.27280	5.17
2.28947	5.16
2.30613	5.15
2.32280	5.14
2.33947	5.13
2.35613	5.12
2.37280	5.12
2.38947	5.11
2.40613	5.11
2.42280	5.11
2.43947	5.11
2.45613	5.11
2.47280	5.11
2.48947	5.11
2.50613	5.11
2.52280	5.11
2.53947	5.11
2.55613	5.11
2.57280	5.11
2.58947	5.11
2.60613	5.11
2.62280	5.11
2.63947	5.11
2.65613	5.11
2.67280	5.11
2.68947	5.11
2.70613	5.11
2.72280	5.11
2.73947	5.11
2.75613	5.11
2.77280	5.11
2.78947	5.11
2.80613	5.11
2.82280	5.11
2.83947	5.11
2.85613	5.11
2.87280	5.11
2.88947	5.11
2.90613	5.11
2.92280	5.11
2.93947	5.11
2.95613	5.11
2.97280	5.11
2.98947	5.11
3.00613	5.11
3.02280	5.11
3.03947	5.11
3.05613	5.11
3.07280	5.11
3.08947	5.11
3.10613	5.11
3.12280	5.11
3.13947	5.10
3.15613	5.10
3.17280	5.10
3.18947	5.10
3.20613	5.10
3.22280	5.10
3.23947	5.10
3.25613	5.10
3.27280	5.10
3.28947	5.10
3.30613	5.10
3.32280	5.10
3.33947	5.10
3.35613	5.11
3.37280	5.11
3.38947	5.11
3.40613	5.11
3.42280	5.10
3.43947	5.10
3.45613	5.10
3.47280	5.10
3.48947	5.10
3.50613	5.10
3.52280	5.10
3.53947	5.10
3.55613	5.11
3.57280	5.11
3.58947	5.10
3.60613	5.10
3.62280	5.10
3.63947	5.10
3.65613	5.10
3.67280	5.10
3.68947	5.10
3.70613	5.10
3.72280	5.10
3.73947	5.10
3.75613	5.10
3.77280	5.10
3.78947	5.10
3.80613	5.10
3.82280	5.10
3.83947	5.10
3.85613	5.10
3.87280	5.10
3.88947	5.10
3.90613	5.10
3.92280	5.10
3.93947	5.10
3.95613	5.10
3.97280	5.10
3.98947	5.10

[Status Trace (Linear Velocity)]
Interval(msec)	1000
# of Points	240
Start Time(min)	0.006
End Time(min)	3.989
Intensity Units	
Intensity Multiplier	1
R.Time (min)	Intensity
0.00613	39.02
0.02280	37.43
0.03947	38.25
0.05613	39.70
0.07280	40.04
0.08947	39.10
0.10613	39.00
0.12280	39.02
0.13947	39.03
0.15613	39.02
0.17280	39.02
0.18947	39.02
0.20613	39.02
0.22280	39.02
0.23947	39.02
0.25613	39.02
0.27280	39.02
0.28947	39.02
0.30613	39.02
0.32280	39.02
0.33947	39.02
0.35613	39.02
0.37280	39.02
0.38947	39.02
0.40613	39.02
0.42280	39.02
0.43947	39.03
0.45613	39.02
0.47280	39.02
0.48947	39.02
0.50613	39.02
0.52280	39.02
0.53947	39.02
0.55613	39.02
0.57280	39.02
0.58947	39.02
0.60613	39.02
0.62280	39.02
0.63947	39.02
0.65613	39.02
0.67280	39.02
0.68947	39.02
0.70613	39.02
0.72280	39.02
0.73947	39.02
0.75613	39.02
0.77280	39.02
0.78947	39.02
0.80613	39.03
0.82280	39.02
0.83947	39.02
0.85613	39.02
0.87280	39.02
0.88947	39.02
0.90613	39.02
0.92280	39.02
0.93947	39.03
0.95613	39.03
0.97280	39.03
0.98947	39.03
1.00613	39.03
1.02280	39.03
1.03947	39.03
1.05613	39.02
1.07280	39.02
1.08947	39.02
1.10613	39.02
1.12280	39.02
1.13947	39.02
1.15613	39.02
1.17280	39.02
1.18947	39.02
1.20613	39.02
1.22280	39.02
1.23947	39.02
1.25613	39.02
1.27280	39.02
1.28947	39.02
1.30613	39.02
1.32280	39.02
1.33947	39.02
1.35613	39.02
1.37280	39.02
1.38947	39.02
1.40613	39.02
1.42280	39.03
1.43947	39.03
1.45613	39.03
1.47280	39.03
1.48947	39.03
1.50613	39.03
1.52280	39.03
1.53947	39.03
1.55613	39.03
1.57280	39.03
1.58947	39.03
1.60613	39.02
1.62280	39.01
1.63947	38.99
1.65613	38.97
1.67280	38.94
1.68947	38.91
1.70613	38.87
1.72280	38.84
1.73947	38.81
1.75613	38.77
1.77280	38.74
1.78947	38.71
1.80613	38.68
1.82280	38.65
1.83947	38.62
1.85613	38.58
1.87280	38.55
1.88947	38.52
1.90613	38.49
1.92280	38.46
1.93947	38.43
1.95613	38.40
1.97280	38.37
1.98947	38.34
2.00613	38.31
2.02280	38.28
2.03947	38.25
2.05613	38.22
2.07280	38.19
2.08947	38.16
2.10613	38.13
2.12280	38.10
2.13947	38.07
2.15613	38.04
2.17280	38.01
2.18947	37.98
2.20613	37.95
2.22280	37.93
2.23947	37.89
2.25613	37.87
2.27280	37.84
2.28947	37.81
2.30613	37.78
2.32280	37.75
2.33947	37.72
2.35613	37.69
2.37280	37.67
2.38947	37.66
2.40613	37.66
2.42280	37.67
2.43947	37.67
2.45613	37.67
2.47280	37.66
2.48947	37.66
2.50613	37.66
2.52280	37.66
2.53947	37.66
2.55613	37.66
2.57280	37.66
2.58947	37.65
2.60613	37.66
2.62280	37.66
2.63947	37.65
2.65613	37.65
2.67280	37.65
2.68947	37.65
2.70613	37.65
2.72280	37.65
2.73947	37.65
2.75613	37.65
2.77280	37.65
2.78947	37.65
2.80613	37.65
2.82280	37.65
2.83947	37.65
2.85613	37.65
2.87280	37.65
2.88947	37.65
2.90613	37.65
2.92280	37.64
2.93947	37.64
2.95613	37.64
2.97280	37.64
2.98947	37.64
3.00613	37.64
3.02280	37.64
3.03947	37.64
3.05613	37.64
3.07280	37.64
3.08947	37.64
3.10613	37.64
3.12280	37.64
3.13947	37.64
3.15613	37.64
3.17280	37.63
3.18947	37.63
3.20613	37.63
3.22280	37.63
3.23947	37.63
3.25613	37.63
3.27280	37.63
3.28947	37.63
3.30613	37.63
3.32280	37.63
3.33947	37.64
3.35613	37.64
3.37280	37.64
3.38947	37.64
3.40613	37.64
3.42280	37.63
3.43947	37.63
3.45613	37.63
3.47280	37.63
3.48947	37.63
3.50613	37.63
3.52280	37.63
3.53947	37.63
3.55613	37.64
3.57280	37.64
3.58947	37.64
3.60613	37.63
3.62280	37.63
3.63947	37.63
3.65613	37.63
3.67280	37.63
3.68947	37.63
3.70613	37.63
3.72280	37.63
3.73947	37.63
3.75613	37.63
3.77280	37.63
3.78947	37.63
3.80613	37.63
3.82280	37.63
3.83947	37.63
3.85613	37.63
3.87280	37.63
3.88947	37.63
3.90613	37.63
3.92280	37.63
3.93947	37.63
3.95613	37.64
3.97280	37.63
3.98947	37.63

