[Header]
Application Name	LabSolutions
Version	5.110
Data File Name	C:\Users\User\Desktop\GC Analyses\Jack\Nachusa Grasslands Sampling\T4 Timepoint July 12th\T4_07122022_012.gcd
Output Date	3/17/2023
Output Time	12:04:51 PM

[File Information]
Type	Data File
Generated	3/14/2023 4:37:30 PM
Generated by	System Administrator
Modified	3/14/2023 4:44:13 PM
Modified by	System Administrator

[Sample Information]
Operator Name	System Administrator
Acquired	3/14/2023 4:40:11 PM
Sample Type	0:Unknown
Level	0
Sample Name	012
Sample ID	012
ISTD Amount1	1
ISTD Amount2	1
ISTD Amount3	1
ISTD Amount4	1
ISTD Amount5	1
ISTD Amount6	1
ISTD Amount7	1
ISTD Amount8	1
ISTD Amount9	1
ISTD Amount10	1
ISTD Amount11	1
ISTD Amount12	1
ISTD Amount13	1
ISTD Amount14	1
ISTD Amount15	1
ISTD Amount16	1
ISTD Amount17	1
ISTD Amount18	1
ISTD Amount19	1
ISTD Amount20	1
ISTD Amount21	1
ISTD Amount22	1
ISTD Amount23	1
ISTD Amount24	1
ISTD Amount25	1
ISTD Amount26	1
ISTD Amount27	1
ISTD Amount28	1
ISTD Amount29	1
ISTD Amount30	1
ISTD Amount31	1
ISTD Amount32	1
Sample Amount	1
Dilution Factor	1
Vial#	11
Injection Volume	1
Injection Count	1
Bar Code	

[Original Files]
Data File	C:\Users\User\Desktop\GC Analyses\Jack\Nachusa Grasslands Sampling\T4 Timepoint July 12th\T4_07122022_012.gcd
Method File	C:\LabSolutions\Data\GHG_4min_2022\ghg3_togas_w_acet_4 min_new_int.gcm
Batch File	C:\LabSolutions\Data\AutoSamplerTesting\T4_07122022.gcb
Report Format File	c:\LabSolutions\System\DEFAULT.lsr

[File Description]


[Configuration]
Instrument Name	C0B7VH3-Instrument1
Instrument #	1
Line #	1
# of Detectors	3
Detector ID	DET#1	DET#2	DET#3
Detector Name	FID	PTCD	ECD
# of Channels	1	1	1

[Peak Table(Ch1)]
# of Peaks	3
Peak#	R.Time	I.Time	F.Time	Area	Height	A/H	Conc.	Mark	ID#	Name	k'	Plate #	Plate Ht.	Tailing	Resolution	Sep.Factor	Area Ratio	Height Ratio	Conc. %	Norm Conc.
1	1.476	1.439	1.534	25284	12496	2.023	178.508	   	1	CO	0.000	9651	15.542	1.266	0.000	0.000	0	0	22.556	22.556
2	1.571	1.538	1.626	3441	1757	1.959	66.543	   	2	CH4	0.065	11665	12.859	1.115	1.612	0.000	0	0	8.408	8.408
3	1.996	1.952	2.312	2176973	1041762	2.090	546.361	   	3	CO2	0.353	17440	8.601	1.340	7.170	5.462	0	0	69.036	69.036

[Peak Table(Ch2)]
# of Peaks	0

[Peak Table(Ch3)]
# of Peaks	6
Peak#	R.Time	I.Time	F.Time	Area	Height	A/H	Conc.	Mark	ID#	Name	k'	Plate #	Plate Ht.	Tailing	Resolution	Sep.Factor	Area Ratio	Height Ratio	Conc. %	Norm Conc.
1	0.783	0.687	0.878	84	13	6.292	0.000	   			0.000	459	327.049	0.968	0.000	0.000	0	0	0.000	0.000
2	2.462	2.330	2.510	1889	602	3.137	0.000	   			2.146	9398	15.960	0.000	13.556	0.000	0	0	0.000	0.000
3	2.528	2.510	2.579	1102	368	2.995	0.000	 V 			2.230	5282	28.397	0.000	0.548	1.039	0	0	0.000	0.000
4	2.605	2.579	2.678	684	194	3.520	0.000	 V 			2.328	3259	46.022	0.000	0.479	1.044	0	0	0.000	0.000
5	2.880	2.697	3.082	18763	4846	3.872	0.479	   	1	N2O	2.680	13192	11.371	1.473	1.945	1.151	0	0	100.000	100.000
6	3.360	3.188	3.650	899	53	17.070	0.000	   	2	SF6	3.293	871	172.146	1.358	1.729	1.229	0	0	0.000	0.000

[Compound Results(Ch1)]
# of IDs	6
ID#	Name	R.Time	Area	Height	Conc.	Curve	3rd	2nd	1st	Constant	Area Ratio	Height Ratio	Conc. %	Norm Conc.
1	CO	1.476	25284	12496	178.508	Linear	0.000000e+00	0.000000e+00	1.416423e+002	0.000000e+00	0	0	22.556	22.556
2	CH4	1.571	3441	1757	66.543	Linear	0.000000e+00	0.000000e+00	5.171738e+001	0.000000e+00	0	0	8.408	8.408
3	CO2	1.996	2176973	1041762	546.361	Linear	0.000000e+00	0.000000e+00	3.984494e+003	0.000000e+00	0	0	69.036	69.036
4	Ethylene	0.000	0	0	0.000	Linear	0.000000e+00	0.000000e+00	0.000000e+00	0.000000e+00	0	0	0.000	0.000
5	Acetylene	0.000	0	0	0.000	Linear	0.000000e+00	0.000000e+00	0.000000e+00	0.000000e+00	0	0	0.000	0.000
6	Ethane	0.000	0	0	0.000	Linear	0.000000e+00	0.000000e+00	0.000000e+00	0.000000e+00	0	0	0.000	0.000

[Compound Results(Ch2)]
# of IDs	5
ID#	Name	R.Time	Area	Height	Conc.	Curve	3rd	2nd	1st	Constant	Area Ratio	Height Ratio	Conc. %	Norm Conc.
1	Hydrogen	0.000	0	0	0.000	Linear	0.000000e+00	0.000000e+00	0.000000e+00	0.000000e+00	0	0	0.000	0.000
2	Oxygen	0.000	0	0	0.000	Linear	0.000000e+00	0.000000e+00	0.000000e+00	0.000000e+00	0	0	0.000	0.000
3	Nitrogen	0.000	0	0	0.000	Linear	0.000000e+00	0.000000e+00	0.000000e+00	0.000000e+00	0	0	0.000	0.000
4	Methane	0.000	0	0	0.000	Linear	0.000000e+00	0.000000e+00	0.000000e+00	0.000000e+00	0	0	0.000	0.000
5	Carbon Monoxide	0.000	0	0	0.000	Linear	0.000000e+00	0.000000e+00	0.000000e+00	0.000000e+00	0	0	0.000	0.000

[Compound Results(Ch3)]
# of IDs	2
ID#	Name	R.Time	Area	Height	Conc.	Curve	3rd	2nd	1st	Constant	Area Ratio	Height Ratio	Conc. %	Norm Conc.
1	N2O	2.880	18763	4846	0.479	Linear	0.000000e+00	0.000000e+00	3.915173e+004	0.000000e+00	0	0	100.000	100.000
2	SF6	3.360	899	53	0.000	Linear	0.000000e+00	0.000000e+00	0.000000e+00	0.000000e+00	0	0	0.000	0.000

[Group Results(Ch1)]
# of Groups	0

[Group Results(Ch2)]
# of Groups	0

[Group Results(Ch3)]
# of Groups	0

[Chromatogram (Ch1)]
Interval(msec)	220
# of Points	1091
Start Time(min)	0.002
End Time(min)	3.998
R.Time (min)	Intensity
0.00167	-29
0.00533	-33
0.00900	-36
0.01267	-33
0.01633	-29
0.02000	-26
0.02367	-25
0.02733	-25
0.03100	-26
0.03467	-28
0.03833	-34
0.04200	-40
0.04567	-46
0.04933	-44
0.05300	-39
0.05667	-38
0.06033	-38
0.06400	-37
0.06767	-33
0.07133	-25
0.07500	-18
0.07867	-12
0.08233	-9
0.08600	-13
0.08967	-15
0.09333	-16
0.09700	-21
0.10067	-25
0.10433	-27
0.10800	-25
0.11167	-23
0.11533	-22
0.11900	-29
0.12267	-31
0.12633	-27
0.13000	-22
0.13367	-16
0.13733	-13
0.14100	-15
0.14467	-13
0.14833	-9
0.15200	-9
0.15567	-13
0.15933	-18
0.16300	-22
0.16667	-22
0.17033	-20
0.17400	-18
0.17767	-20
0.18133	-25
0.18500	-29
0.18867	-25
0.19233	-24
0.19600	-23
0.19967	-23
0.20333	-23
0.20700	-19
0.21067	-16
0.21433	-17
0.21800	-18
0.22167	-15
0.22533	-8
0.22900	-6
0.23267	-10
0.23633	-16
0.24000	-19
0.24367	-19
0.24733	-20
0.25100	-23
0.25467	-27
0.25833	-29
0.26200	-31
0.26567	-29
0.26933	-19
0.27300	-11
0.27667	-11
0.28033	-15
0.28400	-23
0.28767	-28
0.29133	-25
0.29500	-16
0.29867	-6
0.30233	-1
0.30600	-5
0.30967	-16
0.31333	-27
0.31700	-34
0.32067	-40
0.32433	-38
0.32800	-34
0.33167	-29
0.33533	-23
0.33900	-18
0.34267	-14
0.34633	-13
0.35000	-14
0.35367	-17
0.35733	-22
0.36100	-24
0.36467	-27
0.36833	-27
0.37200	-22
0.37567	-21
0.37933	-20
0.38300	-20
0.38667	-24
0.39033	-27
0.39400	-31
0.39767	-29
0.40133	-25
0.40500	-25
0.40867	-24
0.41233	-19
0.41600	-17
0.41967	-20
0.42333	-23
0.42700	-23
0.43067	-20
0.43433	-21
0.43800	-26
0.44167	-24
0.44533	-17
0.44900	-9
0.45267	-8
0.45633	-16
0.46000	-27
0.46367	-32
0.46733	-34
0.47100	-36
0.47467	-37
0.47833	-35
0.48200	-35
0.48567	-33
0.48933	-28
0.49300	-19
0.49667	-16
0.50033	-20
0.50400	-25
0.50767	-28
0.51133	-29
0.51500	-24
0.51867	-20
0.52233	-19
0.52600	-18
0.52967	-17
0.53333	-13
0.53700	-6
0.54067	-7
0.54433	-11
0.54800	-11
0.55167	-11
0.55533	-11
0.55900	-12
0.56267	-11
0.56633	-11
0.57000	-10
0.57367	-12
0.57733	-14
0.58100	-12
0.58467	-8
0.58833	-6
0.59200	-10
0.59567	-15
0.59933	-17
0.60300	-14
0.60667	-7
0.61033	-3
0.61400	-1
0.61767	-4
0.62133	-6
0.62500	-5
0.62867	0
0.63233	3
0.63600	1
0.63967	-5
0.64333	-10
0.64700	-17
0.65067	-22
0.65433	-21
0.65800	-16
0.66167	-10
0.66533	-7
0.66900	-7
0.67267	-8
0.67633	-11
0.68000	-13
0.68367	-17
0.68733	-18
0.69100	-13
0.69467	-2
0.69833	4
0.70200	5
0.70567	6
0.70933	1
0.71300	-4
0.71667	-12
0.72033	-17
0.72400	-18
0.72767	-17
0.73133	-14
0.73500	-9
0.73867	-2
0.74233	-2
0.74600	-10
0.74967	-18
0.75333	-21
0.75700	-22
0.76067	-23
0.76433	-25
0.76800	-32
0.77167	-36
0.77533	-33
0.77900	-28
0.78267	-25
0.78633	-30
0.79000	-32
0.79367	-29
0.79733	-28
0.80100	-24
0.80467	-17
0.80833	-10
0.81200	-6
0.81567	-2
0.81933	2
0.82300	-0
0.82667	-3
0.83033	-4
0.83400	-6
0.83767	-6
0.84133	-3
0.84500	2
0.84867	1
0.85233	-6
0.85600	-16
0.85967	-22
0.86333	-27
0.86700	-27
0.87067	-23
0.87433	-15
0.87800	-8
0.88167	-4
0.88533	-6
0.88900	-16
0.89267	-21
0.89633	-22
0.90000	-19
0.90367	-11
0.90733	-2
0.91100	7
0.91467	9
0.91833	7
0.92200	6
0.92567	5
0.92933	0
0.93300	-10
0.93667	-22
0.94033	-31
0.94400	-33
0.94767	-31
0.95133	-28
0.95500	-24
0.95867	-21
0.96233	-20
0.96600	-25
0.96967	-28
0.97333	-26
0.97700	-17
0.98067	-9
0.98433	-5
0.98800	-6
0.99167	-10
0.99533	-12
0.99900	-12
1.00267	-13
1.00633	-14
1.01000	-16
1.01367	-21
1.01733	-23
1.02100	-21
1.02467	-18
1.02833	-15
1.03200	-14
1.03567	-12
1.03933	-10
1.04300	-11
1.04667	-13
1.05033	-14
1.05400	-14
1.05767	-14
1.06133	-15
1.06500	-17
1.06867	-19
1.07233	-19
1.07600	-16
1.07967	-9
1.08333	-0
1.08700	8
1.09067	11
1.09433	3
1.09800	-9
1.10167	-22
1.10533	-35
1.10900	-48
1.11267	-55
1.11633	-52
1.12000	-44
1.12367	-36
1.12733	-30
1.13100	-28
1.13467	-27
1.13833	-26
1.14200	-28
1.14567	-30
1.14933	-30
1.15300	-28
1.15667	-27
1.16033	-25
1.16400	-23
1.16767	-22
1.17133	-18
1.17500	-13
1.17867	-8
1.18233	-4
1.18600	-3
1.18967	-10
1.19333	-20
1.19700	-30
1.20067	-37
1.20433	-40
1.20800	-39
1.21167	-34
1.21533	-29
1.21900	-29
1.22267	-27
1.22633	-25
1.23000	-22
1.23367	-18
1.23733	-17
1.24100	-23
1.24467	-30
1.24833	-36
1.25200	-39
1.25567	-36
1.25933	-31
1.26300	-24
1.26667	-22
1.27033	-27
1.27400	-37
1.27767	-41
1.28133	-44
1.28500	-47
1.28867	-43
1.29233	-37
1.29600	-33
1.29967	-33
1.30333	-37
1.30700	-42
1.31067	-45
1.31433	-47
1.31800	-48
1.32167	-50
1.32533	-50
1.32900	-48
1.33267	-43
1.33633	-38
1.34000	-37
1.34367	-41
1.34733	-44
1.35100	-44
1.35467	-43
1.35833	-43
1.36200	-42
1.36567	-43
1.36933	-43
1.37300	-38
1.37667	-31
1.38033	-23
1.38400	-20
1.38767	-13
1.39133	-3
1.39500	4
1.39867	4
1.40233	-1
1.40600	-14
1.40967	-24
1.41333	-28
1.41700	-27
1.42067	-21
1.42433	-16
1.42800	-13
1.43167	-16
1.43533	-16
1.43900	-2
1.44267	39
1.44633	181
1.45000	604
1.45367	1672
1.45733	3597
1.46100	6039
1.46467	8435
1.46833	10409
1.47200	11795
1.47567	12480
1.47933	12341
1.48300	11357
1.48667	9717
1.49033	7763
1.49400	5850
1.49767	4206
1.50133	2915
1.50500	1962
1.50867	1285
1.51233	817
1.51600	498
1.51967	282
1.52333	138
1.52700	48
1.53067	-7
1.53433	-38
1.53800	-39
1.54167	7
1.54533	137
1.54900	377
1.55267	699
1.55633	1039
1.56000	1336
1.56367	1560
1.56733	1691
1.57100	1710
1.57467	1596
1.57833	1367
1.58200	1075
1.58567	785
1.58933	536
1.59300	346
1.59667	213
1.60033	119
1.60400	53
1.60767	8
1.61133	-21
1.61500	-35
1.61867	-41
1.62233	-51
1.62600	-60
1.62967	-66
1.63333	-70
1.63700	-68
1.64067	-64
1.64433	-65
1.64800	-67
1.65167	-66
1.65533	-70
1.65900	-74
1.66267	-77
1.66633	-78
1.67000	-81
1.67367	-84
1.67733	-88
1.68100	-88
1.68467	-85
1.68833	-78
1.69200	-67
1.69567	-57
1.69933	-53
1.70300	-54
1.70667	-53
1.71033	-52
1.71400	-52
1.71767	-53
1.72133	-57
1.72500	-65
1.72867	-72
1.73233	-74
1.73600	-74
1.73967	-74
1.74333	-74
1.74700	-74
1.75067	-75
1.75433	-74
1.75800	-71
1.76167	-67
1.76533	-60
1.76900	-55
1.77267	-51
1.77633	-57
1.78000	-65
1.78367	-65
1.78733	-65
1.79100	-62
1.79467	-65
1.79833	-70
1.80200	-74
1.80567	-76
1.80933	-76
1.81300	-74
1.81667	-70
1.82033	-67
1.82400	-65
1.82767	-63
1.83133	-58
1.83500	-51
1.83867	-49
1.84233	-54
1.84600	-61
1.84967	-69
1.85333	-75
1.85700	-73
1.86067	-66
1.86433	-63
1.86800	-63
1.87167	-61
1.87533	-57
1.87900	-57
1.88267	-58
1.88633	-60
1.89000	-58
1.89367	-57
1.89733	-56
1.90100	-57
1.90467	-61
1.90833	-68
1.91200	-69
1.91567	-63
1.91933	-55
1.92300	-53
1.92667	-55
1.93033	-55
1.93400	-55
1.93767	-56
1.94133	-54
1.94500	-55
1.94867	-56
1.95233	-44
1.95600	61
1.95967	714
1.96333	3926
1.96700	15987
1.97067	50647
1.97433	127403
1.97800	259619
1.98167	440570
1.98533	642020
1.98900	827819
1.99267	967634
1.99633	1041756
2.00000	1041391
2.00367	970795
2.00733	847041
2.01100	695164
2.01467	540542
2.01833	402028
2.02200	289053
2.02567	203025
2.02933	140664
2.03300	96976
2.03667	67044
2.04033	46801
2.04400	33191
2.04767	24033
2.05133	17828
2.05500	13576
2.05867	10618
2.06233	8523
2.06600	7005
2.06967	5874
2.07333	5013
2.07700	4342
2.08067	3806
2.08433	3371
2.08800	3014
2.09167	2719
2.09533	2470
2.09900	2257
2.10267	2074
2.10633	1916
2.11000	1773
2.11367	1650
2.11733	1545
2.12100	1447
2.12467	1355
2.12833	1271
2.13200	1192
2.13567	1120
2.13933	1057
2.14300	1004
2.14667	960
2.15033	921
2.15400	887
2.15767	856
2.16133	827
2.16500	802
2.16867	774
2.17233	746
2.17600	719
2.17967	688
2.18333	654
2.18700	623
2.19067	599
2.19433	575
2.19800	551
2.20167	534
2.20533	523
2.20900	510
2.21267	496
2.21633	484
2.22000	471
2.22367	457
2.22733	446
2.23100	437
2.23467	428
2.23833	416
2.24200	400
2.24567	382
2.24933	365
2.25300	352
2.25667	343
2.26033	336
2.26400	330
2.26767	323
2.27133	315
2.27500	305
2.27867	295
2.28233	288
2.28600	281
2.28967	274
2.29333	269
2.29700	267
2.30067	267
2.30433	267
2.30800	266
2.31167	264
2.31533	263
2.31900	262
2.32267	263
2.32633	262
2.33000	259
2.33367	255
2.33733	250
2.34100	245
2.34467	241
2.34833	237
2.35200	235
2.35567	233
2.35933	224
2.36300	208
2.36667	194
2.37033	184
2.37400	178
2.37767	180
2.38133	189
2.38500	199
2.38867	204
2.39233	202
2.39600	193
2.39967	185
2.40333	181
2.40700	181
2.41067	187
2.41433	193
2.41800	195
2.42167	187
2.42533	176
2.42900	164
2.43267	152
2.43633	142
2.44000	140
2.44367	141
2.44733	143
2.45100	144
2.45467	144
2.45833	143
2.46200	150
2.46567	154
2.46933	158
2.47300	165
2.47667	169
2.48033	171
2.48400	166
2.48767	160
2.49133	156
2.49500	153
2.49867	154
2.50233	152
2.50600	148
2.50967	149
2.51333	152
2.51700	155
2.52067	154
2.52433	149
2.52800	141
2.53167	134
2.53533	131
2.53900	133
2.54267	138
2.54633	146
2.55000	149
2.55367	146
2.55733	139
2.56100	134
2.56467	135
2.56833	133
2.57200	126
2.57567	120
2.57933	121
2.58300	127
2.58667	134
2.59033	139
2.59400	143
2.59767	142
2.60133	145
2.60500	149
2.60867	150
2.61233	150
2.61600	151
2.61967	150
2.62333	145
2.62700	138
2.63067	133
2.63433	134
2.63800	133
2.64167	134
2.64533	131
2.64900	126
2.65267	122
2.65633	118
2.66000	114
2.66367	111
2.66733	110
2.67100	113
2.67467	120
2.67833	125
2.68200	130
2.68567	137
2.68933	145
2.69300	152
2.69667	154
2.70033	150
2.70400	140
2.70767	126
2.71133	112
2.71500	102
2.71867	98
2.72233	98
2.72600	103
2.72967	113
2.73333	121
2.73700	123
2.74067	127
2.74433	130
2.74800	136
2.75167	145
2.75533	151
2.75900	151
2.76267	149
2.76633	144
2.77000	135
2.77367	128
2.77733	127
2.78100	130
2.78467	133
2.78833	133
2.79200	130
2.79567	129
2.79933	131
2.80300	135
2.80667	136
2.81033	133
2.81400	134
2.81767	138
2.82133	140
2.82500	139
2.82867	139
2.83233	139
2.83600	141
2.83967	139
2.84333	139
2.84700	141
2.85067	145
2.85433	153
2.85800	167
2.86167	182
2.86533	189
2.86900	185
2.87267	171
2.87633	153
2.88000	137
2.88367	127
2.88733	121
2.89100	116
2.89467	114
2.89833	115
2.90200	124
2.90567	131
2.90933	134
2.91300	134
2.91667	136
2.92033	140
2.92400	145
2.92767	150
2.93133	157
2.93500	167
2.93867	179
2.94233	183
2.94600	178
2.94967	167
2.95333	161
2.95700	152
2.96067	146
2.96433	144
2.96800	143
2.97167	140
2.97533	136
2.97900	136
2.98267	141
2.98633	148
2.99000	158
2.99367	170
2.99733	179
3.00100	183
3.00467	184
3.00833	187
3.01200	186
3.01567	183
3.01933	181
3.02300	176
3.02667	170
3.03033	171
3.03400	178
3.03767	183
3.04133	187
3.04500	191
3.04867	194
3.05233	194
3.05600	191
3.05967	181
3.06333	168
3.06700	160
3.07067	157
3.07433	157
3.07800	160
3.08167	166
3.08533	163
3.08900	165
3.09267	171
3.09633	174
3.10000	173
3.10367	171
3.10733	168
3.11100	164
3.11467	165
3.11833	169
3.12200	173
3.12567	176
3.12933	177
3.13300	177
3.13667	177
3.14033	179
3.14400	182
3.14767	185
3.15133	187
3.15500	190
3.15867	192
3.16233	190
3.16600	184
3.16967	174
3.17333	167
3.17700	167
3.18067	165
3.18433	165
3.18800	168
3.19167	173
3.19533	176
3.19900	179
3.20267	184
3.20633	187
3.21000	193
3.21367	197
3.21733	192
3.22100	186
3.22467	182
3.22833	181
3.23200	179
3.23567	176
3.23933	174
3.24300	171
3.24667	168
3.25033	171
3.25400	173
3.25767	172
3.26133	169
3.26500	169
3.26867	166
3.27233	159
3.27600	153
3.27967	147
3.28333	144
3.28700	141
3.29067	139
3.29433	139
3.29800	141
3.30167	147
3.30533	153
3.30900	159
3.31267	165
3.31633	168
3.32000	170
3.32367	172
3.32733	174
3.33100	170
3.33467	164
3.33833	162
3.34200	160
3.34567	159
3.34933	157
3.35300	153
3.35667	152
3.36033	152
3.36400	155
3.36767	161
3.37133	160
3.37500	154
3.37867	153
3.38233	155
3.38600	154
3.38967	157
3.39333	163
3.39700	170
3.40067	180
3.40433	196
3.40800	214
3.41167	223
3.41533	224
3.41900	215
3.42267	202
3.42633	185
3.43000	171
3.43367	157
3.43733	143
3.44100	133
3.44467	125
3.44833	115
3.45200	109
3.45567	112
3.45933	123
3.46300	136
3.46667	149
3.47033	155
3.47400	153
3.47767	150
3.48133	153
3.48500	158
3.48867	152
3.49233	140
3.49600	135
3.49967	140
3.50333	147
3.50700	157
3.51067	163
3.51433	165
3.51800	168
3.52167	172
3.52533	174
3.52900	174
3.53267	170
3.53633	165
3.54000	158
3.54367	149
3.54733	147
3.55100	149
3.55467	155
3.55833	161
3.56200	162
3.56567	161
3.56933	159
3.57300	161
3.57667	163
3.58033	160
3.58400	153
3.58767	148
3.59133	145
3.59500	144
3.59867	149
3.60233	157
3.60600	162
3.60967	162
3.61333	162
3.61700	167
3.62067	177
3.62433	184
3.62800	185
3.63167	179
3.63533	170
3.63900	162
3.64267	156
3.64633	154
3.65000	153
3.65367	155
3.65733	158
3.66100	159
3.66467	158
3.66833	153
3.67200	152
3.67567	151
3.67933	146
3.68300	144
3.68667	147
3.69033	154
3.69400	163
3.69767	168
3.70133	164
3.70500	156
3.70867	151
3.71233	149
3.71600	154
3.71967	164
3.72333	168
3.72700	163
3.73067	159
3.73433	157
3.73800	160
3.74167	165
3.74533	167
3.74900	171
3.75267	172
3.75633	168
3.76000	159
3.76367	151
3.76733	146
3.77100	146
3.77467	143
3.77833	139
3.78200	133
3.78567	132
3.78933	136
3.79300	143
3.79667	149
3.80033	153
3.80400	153
3.80767	146
3.81133	141
3.81500	139
3.81867	138
3.82233	142
3.82600	145
3.82967	145
3.83333	142
3.83700	143
3.84067	143
3.84433	139
3.84800	136
3.85167	135
3.85533	134
3.85900	135
3.86267	134
3.86633	138
3.87000	147
3.87367	147
3.87733	146
3.88100	145
3.88467	145
3.88833	143
3.89200	144
3.89567	139
3.89933	127
3.90300	120
3.90667	122
3.91033	125
3.91400	127
3.91767	125
3.92133	121
3.92500	121
3.92867	123
3.93233	122
3.93600	115
3.93967	110
3.94333	111
3.94700	117
3.95067	119
3.95433	116
3.95800	114
3.96167	117
3.96533	120
3.96900	123
3.97267	128
3.97633	134
3.98000	132
3.98367	126
3.98733	121
3.99100	121
3.99467	119
3.99833	115

[Chromatogram (Ch2)]
Interval(msec)	220
# of Points	1091
Start Time(min)	0.002
End Time(min)	3.998
R.Time (min)	Intensity
0.00167	-1
0.00533	-1
0.00900	-1
0.01267	-1
0.01633	-2
0.02000	-2
0.02367	-2
0.02733	-1
0.03100	-1
0.03467	-1
0.03833	-0
0.04200	-0
0.04567	0
0.04933	0
0.05300	0
0.05667	1
0.06033	1
0.06400	2
0.06767	2
0.07133	2
0.07500	2
0.07867	3
0.08233	3
0.08600	3
0.08967	3
0.09333	3
0.09700	3
0.10067	3
0.10433	3
0.10800	3
0.11167	2
0.11533	2
0.11900	2
0.12267	2
0.12633	2
0.13000	2
0.13367	2
0.13733	2
0.14100	2
0.14467	2
0.14833	2
0.15200	2
0.15567	2
0.15933	2
0.16300	2
0.16667	2
0.17033	3
0.17400	3
0.17767	3
0.18133	3
0.18500	3
0.18867	3
0.19233	3
0.19600	3
0.19967	3
0.20333	3
0.20700	3
0.21067	3
0.21433	3
0.21800	3
0.22167	3
0.22533	3
0.22900	3
0.23267	3
0.23633	3
0.24000	3
0.24367	3
0.24733	3
0.25100	3
0.25467	3
0.25833	3
0.26200	3
0.26567	3
0.26933	3
0.27300	3
0.27667	4
0.28033	4
0.28400	4
0.28767	3
0.29133	3
0.29500	3
0.29867	3
0.30233	2
0.30600	2
0.30967	2
0.31333	1
0.31700	1
0.32067	0
0.32433	-0
0.32800	-0
0.33167	-1
0.33533	-1
0.33900	-1
0.34267	-1
0.34633	-1
0.35000	-0
0.35367	-0
0.35733	0
0.36100	1
0.36467	1
0.36833	2
0.37200	2
0.37567	2
0.37933	2
0.38300	2
0.38667	2
0.39033	2
0.39400	2
0.39767	2
0.40133	2
0.40500	2
0.40867	2
0.41233	2
0.41600	1
0.41967	1
0.42333	1
0.42700	1
0.43067	1
0.43433	1
0.43800	1
0.44167	2
0.44533	2
0.44900	2
0.45267	2
0.45633	2
0.46000	2
0.46367	2
0.46733	2
0.47100	2
0.47467	2
0.47833	2
0.48200	2
0.48567	2
0.48933	2
0.49300	2
0.49667	2
0.50033	1
0.50400	1
0.50767	1
0.51133	1
0.51500	2
0.51867	2
0.52233	2
0.52600	2
0.52967	2
0.53333	2
0.53700	2
0.54067	2
0.54433	2
0.54800	2
0.55167	2
0.55533	2
0.55900	2
0.56267	2
0.56633	2
0.57000	2
0.57367	2
0.57733	3
0.58100	2
0.58467	2
0.58833	2
0.59200	2
0.59567	2
0.59933	2
0.60300	2
0.60667	2
0.61033	2
0.61400	1
0.61767	1
0.62133	1
0.62500	1
0.62867	1
0.63233	0
0.63600	0
0.63967	-0
0.64333	0
0.64700	0
0.65067	0
0.65433	0
0.65800	0
0.66167	-0
0.66533	-0
0.66900	-0
0.67267	-0
0.67633	-0
0.68000	-0
0.68367	-0
0.68733	0
0.69100	0
0.69467	0
0.69833	1
0.70200	1
0.70567	1
0.70933	1
0.71300	1
0.71667	2
0.72033	2
0.72400	2
0.72767	2
0.73133	2
0.73500	2
0.73867	2
0.74233	3
0.74600	3
0.74967	3
0.75333	3
0.75700	3
0.76067	2
0.76433	2
0.76800	2
0.77167	2
0.77533	2
0.77900	2
0.78267	2
0.78633	2
0.79000	2
0.79367	2
0.79733	2
0.80100	2
0.80467	2
0.80833	2
0.81200	2
0.81567	2
0.81933	2
0.82300	2
0.82667	1
0.83033	1
0.83400	1
0.83767	1
0.84133	1
0.84500	1
0.84867	1
0.85233	1
0.85600	1
0.85967	1
0.86333	1
0.86700	1
0.87067	1
0.87433	1
0.87800	1
0.88167	1
0.88533	1
0.88900	1
0.89267	1
0.89633	1
0.90000	1
0.90367	1
0.90733	1
0.91100	1
0.91467	0
0.91833	0
0.92200	-0
0.92567	-0
0.92933	-1
0.93300	-1
0.93667	-1
0.94033	-1
0.94400	-2
0.94767	-2
0.95133	-2
0.95500	-2
0.95867	-3
0.96233	-3
0.96600	-3
0.96967	-3
0.97333	-3
0.97700	-3
0.98067	-3
0.98433	-3
0.98800	-3
0.99167	-3
0.99533	-2
0.99900	-2
1.00267	-2
1.00633	-1
1.01000	-1
1.01367	-1
1.01733	-1
1.02100	-1
1.02467	-0
1.02833	0
1.03200	1
1.03567	1
1.03933	1
1.04300	2
1.04667	2
1.05033	2
1.05400	2
1.05767	2
1.06133	2
1.06500	2
1.06867	2
1.07233	2
1.07600	2
1.07967	2
1.08333	1
1.08700	1
1.09067	1
1.09433	1
1.09800	0
1.10167	0
1.10533	-0
1.10900	-0
1.11267	-0
1.11633	-1
1.12000	-1
1.12367	-0
1.12733	-0
1.13100	-0
1.13467	-0
1.13833	-0
1.14200	0
1.14567	0
1.14933	1
1.15300	1
1.15667	1
1.16033	1
1.16400	1
1.16767	0
1.17133	-0
1.17500	-1
1.17867	-1
1.18233	-1
1.18600	-2
1.18967	-2
1.19333	-2
1.19700	-2
1.20067	-2
1.20433	-2
1.20800	-2
1.21167	-2
1.21533	-2
1.21900	-2
1.22267	-2
1.22633	-2
1.23000	-3
1.23367	-3
1.23733	-3
1.24100	-3
1.24467	-3
1.24833	-2
1.25200	-2
1.25567	-2
1.25933	-2
1.26300	-2
1.26667	-2
1.27033	-2
1.27400	-2
1.27767	-2
1.28133	-2
1.28500	-2
1.28867	-2
1.29233	-2
1.29600	-1
1.29967	-1
1.30333	-1
1.30700	-1
1.31067	-1
1.31433	-0
1.31800	-0
1.32167	-1
1.32533	-1
1.32900	-1
1.33267	-1
1.33633	-1
1.34000	-1
1.34367	-1
1.34733	-1
1.35100	-2
1.35467	-2
1.35833	-2
1.36200	-2
1.36567	-2
1.36933	-2
1.37300	-2
1.37667	-2
1.38033	-2
1.38400	-2
1.38767	-2
1.39133	-1
1.39500	-1
1.39867	-1
1.40233	-1
1.40600	-1
1.40967	-1
1.41333	-1
1.41700	-1
1.42067	-1
1.42433	-1
1.42800	-0
1.43167	-0
1.43533	-0
1.43900	0
1.44267	0
1.44633	0
1.45000	0
1.45367	0
1.45733	0
1.46100	0
1.46467	0
1.46833	1
1.47200	1
1.47567	1
1.47933	1
1.48300	1
1.48667	1
1.49033	1
1.49400	2
1.49767	1
1.50133	1
1.50500	1
1.50867	1
1.51233	1
1.51600	1
1.51967	1
1.52333	1
1.52700	1
1.53067	1
1.53433	1
1.53800	1
1.54167	1
1.54533	1
1.54900	0
1.55267	0
1.55633	0
1.56000	-0
1.56367	-0
1.56733	-1
1.57100	-1
1.57467	-2
1.57833	-2
1.58200	-2
1.58567	-3
1.58933	-3
1.59300	-4
1.59667	-4
1.60033	-5
1.60400	-6
1.60767	-7
1.61133	-9
1.61500	-11
1.61867	-13
1.62233	-15
1.62600	-18
1.62967	-21
1.63333	-24
1.63700	-28
1.64067	-31
1.64433	-35
1.64800	-39
1.65167	-42
1.65533	-46
1.65900	-49
1.66267	-53
1.66633	-56
1.67000	-59
1.67367	-63
1.67733	-67
1.68100	-71
1.68467	-76
1.68833	-80
1.69200	-84
1.69567	-88
1.69933	-92
1.70300	-95
1.70667	-97
1.71033	-100
1.71400	-101
1.71767	-103
1.72133	-104
1.72500	-105
1.72867	-105
1.73233	-106
1.73600	-106
1.73967	-107
1.74333	-108
1.74700	-108
1.75067	-109
1.75433	-109
1.75800	-109
1.76167	-109
1.76533	-109
1.76900	-109
1.77267	-109
1.77633	-110
1.78000	-110
1.78367	-110
1.78733	-111
1.79100	-112
1.79467	-112
1.79833	-113
1.80200	-113
1.80567	-114
1.80933	-114
1.81300	-114
1.81667	-113
1.82033	-112
1.82400	-111
1.82767	-110
1.83133	-109
1.83500	-108
1.83867	-108
1.84233	-108
1.84600	-109
1.84967	-109
1.85333	-110
1.85700	-110
1.86067	-111
1.86433	-111
1.86800	-111
1.87167	-112
1.87533	-112
1.87900	-112
1.88267	-113
1.88633	-113
1.89000	-113
1.89367	-113
1.89733	-113
1.90100	-113
1.90467	-112
1.90833	-112
1.91200	-111
1.91567	-111
1.91933	-111
1.92300	-111
1.92667	-112
1.93033	-112
1.93400	-112
1.93767	-111
1.94133	-110
1.94500	-110
1.94867	-109
1.95233	-108
1.95600	-108
1.95967	-108
1.96333	-108
1.96700	-108
1.97067	-107
1.97433	-107
1.97800	-107
1.98167	-107
1.98533	-108
1.98900	-108
1.99267	-108
1.99633	-108
2.00000	-108
2.00367	-107
2.00733	-107
2.01100	-107
2.01467	-107
2.01833	-107
2.02200	-106
2.02567	-105
2.02933	-104
2.03300	-104
2.03667	-103
2.04033	-103
2.04400	-104
2.04767	-104
2.05133	-104
2.05500	-104
2.05867	-103
2.06233	-102
2.06600	-101
2.06967	-100
2.07333	-100
2.07700	-99
2.08067	-99
2.08433	-99
2.08800	-99
2.09167	-99
2.09533	-99
2.09900	-99
2.10267	-99
2.10633	-98
2.11000	-98
2.11367	-97
2.11733	-96
2.12100	-96
2.12467	-95
2.12833	-94
2.13200	-94
2.13567	-94
2.13933	-94
2.14300	-94
2.14667	-95
2.15033	-95
2.15400	-95
2.15767	-95
2.16133	-94
2.16500	-93
2.16867	-93
2.17233	-92
2.17600	-91
2.17967	-90
2.18333	-89
2.18700	-88
2.19067	-88
2.19433	-88
2.19800	-88
2.20167	-88
2.20533	-89
2.20900	-89
2.21267	-89
2.21633	-88
2.22000	-88
2.22367	-88
2.22733	-88
2.23100	-88
2.23467	-88
2.23833	-87
2.24200	-86
2.24567	-86
2.24933	-85
2.25300	-84
2.25667	-84
2.26033	-84
2.26400	-84
2.26767	-83
2.27133	-83
2.27500	-83
2.27867	-83
2.28233	-82
2.28600	-82
2.28967	-81
2.29333	-81
2.29700	-80
2.30067	-80
2.30433	-79
2.30800	-79
2.31167	-79
2.31533	-79
2.31900	-79
2.32267	-78
2.32633	-78
2.33000	-78
2.33367	-77
2.33733	-77
2.34100	-77
2.34467	-77
2.34833	-77
2.35200	-76
2.35567	-75
2.35933	-74
2.36300	-73
2.36667	-72
2.37033	-70
2.37400	-68
2.37767	-65
2.38133	-61
2.38500	-58
2.38867	-53
2.39233	-49
2.39600	-45
2.39967	-40
2.40333	-36
2.40700	-31
2.41067	-27
2.41433	-23
2.41800	-20
2.42167	-17
2.42533	-14
2.42900	-12
2.43267	-10
2.43633	-9
2.44000	-7
2.44367	-6
2.44733	-6
2.45100	-5
2.45467	-5
2.45833	-4
2.46200	-4
2.46567	-3
2.46933	-3
2.47300	-2
2.47667	-1
2.48033	0
2.48400	2
2.48767	3
2.49133	4
2.49500	6
2.49867	7
2.50233	8
2.50600	9
2.50967	10
2.51333	11
2.51700	11
2.52067	11
2.52433	12
2.52800	12
2.53167	13
2.53533	14
2.53900	14
2.54267	14
2.54633	14
2.55000	14
2.55367	15
2.55733	15
2.56100	15
2.56467	16
2.56833	16
2.57200	16
2.57567	15
2.57933	15
2.58300	14
2.58667	14
2.59033	14
2.59400	14
2.59767	15
2.60133	15
2.60500	16
2.60867	17
2.61233	17
2.61600	18
2.61967	18
2.62333	18
2.62700	18
2.63067	18
2.63433	18
2.63800	17
2.64167	17
2.64533	17
2.64900	18
2.65267	18
2.65633	19
2.66000	19
2.66367	20
2.66733	20
2.67100	20
2.67467	20
2.67833	21
2.68200	21
2.68567	21
2.68933	22
2.69300	22
2.69667	22
2.70033	22
2.70400	23
2.70767	23
2.71133	23
2.71500	23
2.71867	23
2.72233	24
2.72600	24
2.72967	24
2.73333	25
2.73700	25
2.74067	25
2.74433	25
2.74800	25
2.75167	25
2.75533	25
2.75900	25
2.76267	25
2.76633	25
2.77000	25
2.77367	25
2.77733	25
2.78100	25
2.78467	26
2.78833	26
2.79200	26
2.79567	26
2.79933	27
2.80300	27
2.80667	28
2.81033	28
2.81400	29
2.81767	29
2.82133	29
2.82500	29
2.82867	30
2.83233	30
2.83600	30
2.83967	29
2.84333	28
2.84700	26
2.85067	23
2.85433	17
2.85800	9
2.86167	-3
2.86533	-19
2.86900	-38
2.87267	-62
2.87633	-91
2.88000	-124
2.88367	-161
2.88733	-203
2.89100	-247
2.89467	-295
2.89833	-346
2.90200	-399
2.90567	-453
2.90933	-508
2.91300	-564
2.91667	-620
2.92033	-676
2.92400	-731
2.92767	-784
2.93133	-836
2.93500	-888
2.93867	-944
2.94233	-1003
2.94600	-1057
2.94967	-1095
2.95333	-1108
2.95700	-1096
2.96067	-1059
2.96433	-1003
2.96800	-933
2.97167	-856
2.97533	-775
2.97900	-694
2.98267	-616
2.98633	-543
2.99000	-475
2.99367	-414
2.99733	-358
3.00100	-308
3.00467	-264
3.00833	-226
3.01200	-192
3.01567	-163
3.01933	-137
3.02300	-116
3.02667	-97
3.03033	-81
3.03400	-67
3.03767	-55
3.04133	-45
3.04500	-36
3.04867	-28
3.05233	-22
3.05600	-17
3.05967	-12
3.06333	-8
3.06700	-5
3.07067	-2
3.07433	0
3.07800	3
3.08167	5
3.08533	6
3.08900	7
3.09267	9
3.09633	10
3.10000	11
3.10367	12
3.10733	13
3.11100	14
3.11467	15
3.11833	15
3.12200	16
3.12567	17
3.12933	17
3.13300	18
3.13667	18
3.14033	18
3.14400	19
3.14767	19
3.15133	19
3.15500	19
3.15867	19
3.16233	20
3.16600	20
3.16967	20
3.17333	20
3.17700	20
3.18067	20
3.18433	20
3.18800	20
3.19167	20
3.19533	20
3.19900	20
3.20267	20
3.20633	20
3.21000	21
3.21367	21
3.21733	21
3.22100	21
3.22467	21
3.22833	21
3.23200	22
3.23567	22
3.23933	22
3.24300	22
3.24667	22
3.25033	22
3.25400	22
3.25767	22
3.26133	22
3.26500	23
3.26867	23
3.27233	24
3.27600	24
3.27967	25
3.28333	25
3.28700	26
3.29067	27
3.29433	27
3.29800	27
3.30167	27
3.30533	28
3.30900	28
3.31267	28
3.31633	28
3.32000	28
3.32367	28
3.32733	28
3.33100	28
3.33467	28
3.33833	28
3.34200	28
3.34567	28
3.34933	28
3.35300	28
3.35667	28
3.36033	27
3.36400	27
3.36767	27
3.37133	27
3.37500	27
3.37867	27
3.38233	27
3.38600	27
3.38967	26
3.39333	26
3.39700	26
3.40067	26
3.40433	26
3.40800	26
3.41167	26
3.41533	26
3.41900	26
3.42267	26
3.42633	26
3.43000	26
3.43367	26
3.43733	26
3.44100	26
3.44467	26
3.44833	26
3.45200	26
3.45567	27
3.45933	27
3.46300	27
3.46667	27
3.47033	27
3.47400	27
3.47767	28
3.48133	28
3.48500	27
3.48867	27
3.49233	27
3.49600	27
3.49967	27
3.50333	27
3.50700	27
3.51067	27
3.51433	27
3.51800	27
3.52167	26
3.52533	26
3.52900	26
3.53267	26
3.53633	26
3.54000	25
3.54367	25
3.54733	25
3.55100	25
3.55467	25
3.55833	25
3.56200	25
3.56567	26
3.56933	26
3.57300	26
3.57667	26
3.58033	26
3.58400	26
3.58767	26
3.59133	26
3.59500	26
3.59867	26
3.60233	26
3.60600	26
3.60967	26
3.61333	26
3.61700	27
3.62067	27
3.62433	27
3.62800	27
3.63167	27
3.63533	28
3.63900	28
3.64267	28
3.64633	28
3.65000	28
3.65367	28
3.65733	27
3.66100	27
3.66467	27
3.66833	27
3.67200	26
3.67567	26
3.67933	26
3.68300	26
3.68667	26
3.69033	26
3.69400	26
3.69767	26
3.70133	26
3.70500	26
3.70867	26
3.71233	26
3.71600	27
3.71967	27
3.72333	27
3.72700	27
3.73067	27
3.73433	27
3.73800	27
3.74167	27
3.74533	27
3.74900	26
3.75267	26
3.75633	26
3.76000	26
3.76367	26
3.76733	26
3.77100	25
3.77467	25
3.77833	25
3.78200	25
3.78567	26
3.78933	26
3.79300	26
3.79667	26
3.80033	26
3.80400	26
3.80767	26
3.81133	27
3.81500	27
3.81867	27
3.82233	27
3.82600	27
3.82967	27
3.83333	27
3.83700	27
3.84067	27
3.84433	27
3.84800	27
3.85167	28
3.85533	28
3.85900	28
3.86267	28
3.86633	28
3.87000	27
3.87367	27
3.87733	27
3.88100	26
3.88467	26
3.88833	26
3.89200	26
3.89567	25
3.89933	25
3.90300	25
3.90667	25
3.91033	25
3.91400	25
3.91767	25
3.92133	25
3.92500	25
3.92867	25
3.93233	25
3.93600	25
3.93967	26
3.94333	26
3.94700	26
3.95067	26
3.95433	26
3.95800	26
3.96167	26
3.96533	26
3.96900	27
3.97267	27
3.97633	27
3.98000	27
3.98367	27
3.98733	27
3.99100	27
3.99467	27
3.99833	27

[Chromatogram (Ch3)]
Interval(msec)	220
# of Points	1091
Start Time(min)	0.002
End Time(min)	3.998
R.Time (min)	Intensity
0.00167	-1
0.00533	-1
0.00900	-0
0.01267	2
0.01633	2
0.02000	2
0.02367	2
0.02733	2
0.03100	2
0.03467	3
0.03833	3
0.04200	3
0.04567	5
0.04933	4
0.05300	5
0.05667	5
0.06033	5
0.06400	5
0.06767	4
0.07133	2
0.07500	1
0.07867	1
0.08233	-0
0.08600	-2
0.08967	-1
0.09333	-1
0.09700	-1
0.10067	-2
0.10433	-2
0.10800	-2
0.11167	-1
0.11533	0
0.11900	0
0.12267	-2
0.12633	-2
0.13000	-1
0.13367	-1
0.13733	-3
0.14100	-3
0.14467	-2
0.14833	-0
0.15200	0
0.15567	1
0.15933	1
0.16300	1
0.16667	2
0.17033	2
0.17400	1
0.17767	-1
0.18133	-1
0.18500	1
0.18867	2
0.19233	3
0.19600	4
0.19967	4
0.20333	4
0.20700	4
0.21067	1
0.21433	-2
0.21800	-4
0.22167	-3
0.22533	-2
0.22900	-2
0.23267	-2
0.23633	-0
0.24000	0
0.24367	1
0.24733	2
0.25100	2
0.25467	0
0.25833	-1
0.26200	0
0.26567	1
0.26933	1
0.27300	1
0.27667	3
0.28033	3
0.28400	4
0.28767	3
0.29133	4
0.29500	2
0.29867	1
0.30233	-0
0.30600	0
0.30967	-1
0.31333	0
0.31700	1
0.32067	1
0.32433	1
0.32800	2
0.33167	2
0.33533	5
0.33900	8
0.34267	7
0.34633	4
0.35000	2
0.35367	1
0.35733	2
0.36100	3
0.36467	4
0.36833	4
0.37200	3
0.37567	4
0.37933	3
0.38300	3
0.38667	4
0.39033	5
0.39400	5
0.39767	5
0.40133	3
0.40500	1
0.40867	-1
0.41233	0
0.41600	4
0.41967	5
0.42333	5
0.42700	4
0.43067	4
0.43433	4
0.43800	5
0.44167	5
0.44533	4
0.44900	3
0.45267	2
0.45633	1
0.46000	-0
0.46367	1
0.46733	2
0.47100	1
0.47467	2
0.47833	3
0.48200	4
0.48567	5
0.48933	5
0.49300	4
0.49667	3
0.50033	3
0.50400	2
0.50767	2
0.51133	3
0.51500	4
0.51867	5
0.52233	3
0.52600	0
0.52967	-2
0.53333	-1
0.53700	-2
0.54067	-2
0.54433	-2
0.54800	-3
0.55167	-2
0.55533	0
0.55900	4
0.56267	7
0.56633	9
0.57000	7
0.57367	6
0.57733	5
0.58100	5
0.58467	5
0.58833	4
0.59200	3
0.59567	3
0.59933	1
0.60300	1
0.60667	3
0.61033	6
0.61400	6
0.61767	4
0.62133	4
0.62500	4
0.62867	5
0.63233	4
0.63600	5
0.63967	7
0.64333	10
0.64700	12
0.65067	11
0.65433	8
0.65800	7
0.66167	7
0.66533	7
0.66900	7
0.67267	7
0.67633	6
0.68000	5
0.68367	6
0.68733	9
0.69100	11
0.69467	13
0.69833	15
0.70200	15
0.70567	16
0.70933	16
0.71300	14
0.71667	14
0.72033	16
0.72400	18
0.72767	19
0.73133	17
0.73500	16
0.73867	16
0.74233	16
0.74600	16
0.74967	18
0.75333	20
0.75700	21
0.76067	21
0.76433	20
0.76800	20
0.77167	20
0.77533	20
0.77900	22
0.78267	24
0.78633	23
0.79000	21
0.79367	22
0.79733	23
0.80100	23
0.80467	20
0.80833	21
0.81200	20
0.81567	19
0.81933	18
0.82300	17
0.82667	15
0.83033	15
0.83400	18
0.83767	21
0.84133	21
0.84500	19
0.84867	18
0.85233	16
0.85600	17
0.85967	17
0.86333	16
0.86700	14
0.87067	13
0.87433	12
0.87800	12
0.88167	11
0.88533	11
0.88900	11
0.89267	13
0.89633	16
0.90000	17
0.90367	17
0.90733	14
0.91100	12
0.91467	11
0.91833	11
0.92200	11
0.92567	13
0.92933	13
0.93300	13
0.93667	14
0.94033	14
0.94400	13
0.94767	11
0.95133	9
0.95500	8
0.95867	8
0.96233	9
0.96600	11
0.96967	12
0.97333	14
0.97700	16
0.98067	17
0.98433	16
0.98800	14
0.99167	13
0.99533	12
0.99900	10
1.00267	9
1.00633	10
1.01000	12
1.01367	13
1.01733	12
1.02100	12
1.02467	11
1.02833	11
1.03200	9
1.03567	8
1.03933	7
1.04300	6
1.04667	7
1.05033	9
1.05400	11
1.05767	11
1.06133	12
1.06500	14
1.06867	15
1.07233	13
1.07600	10
1.07967	8
1.08333	8
1.08700	7
1.09067	6
1.09433	9
1.09800	9
1.10167	9
1.10533	11
1.10900	13
1.11267	12
1.11633	11
1.12000	10
1.12367	10
1.12733	10
1.13100	11
1.13467	11
1.13833	12
1.14200	14
1.14567	15
1.14933	15
1.15300	14
1.15667	12
1.16033	11
1.16400	11
1.16767	10
1.17133	10
1.17500	8
1.17867	8
1.18233	7
1.18600	8
1.18967	11
1.19333	13
1.19700	14
1.20067	13
1.20433	13
1.20800	12
1.21167	13
1.21533	14
1.21900	14
1.22267	13
1.22633	13
1.23000	13
1.23367	15
1.23733	17
1.24100	17
1.24467	14
1.24833	12
1.25200	13
1.25567	15
1.25933	15
1.26300	14
1.26667	13
1.27033	14
1.27400	15
1.27767	16
1.28133	16
1.28500	15
1.28867	14
1.29233	15
1.29600	16
1.29967	17
1.30333	17
1.30700	16
1.31067	15
1.31433	14
1.31800	14
1.32167	16
1.32533	15
1.32900	15
1.33267	14
1.33633	16
1.34000	19
1.34367	20
1.34733	19
1.35100	18
1.35467	18
1.35833	18
1.36200	17
1.36567	15
1.36933	13
1.37300	14
1.37667	16
1.38033	18
1.38400	18
1.38767	16
1.39133	14
1.39500	15
1.39867	17
1.40233	16
1.40600	15
1.40967	14
1.41333	14
1.41700	17
1.42067	20
1.42433	21
1.42800	21
1.43167	20
1.43533	18
1.43900	17
1.44267	18
1.44633	17
1.45000	17
1.45367	17
1.45733	17
1.46100	16
1.46467	18
1.46833	19
1.47200	18
1.47567	17
1.47933	16
1.48300	15
1.48667	12
1.49033	12
1.49400	13
1.49767	15
1.50133	16
1.50500	16
1.50867	16
1.51233	16
1.51600	16
1.51967	14
1.52333	12
1.52700	13
1.53067	16
1.53433	16
1.53800	15
1.54167	16
1.54533	17
1.54900	18
1.55267	18
1.55633	18
1.56000	18
1.56367	20
1.56733	22
1.57100	22
1.57467	21
1.57833	18
1.58200	17
1.58567	17
1.58933	17
1.59300	17
1.59667	17
1.60033	18
1.60400	19
1.60767	22
1.61133	22
1.61500	22
1.61867	23
1.62233	24
1.62600	26
1.62967	26
1.63333	26
1.63700	24
1.64067	21
1.64433	20
1.64800	21
1.65167	24
1.65533	27
1.65900	27
1.66267	27
1.66633	28
1.67000	29
1.67367	30
1.67733	32
1.68100	33
1.68467	34
1.68833	35
1.69200	34
1.69567	33
1.69933	33
1.70300	34
1.70667	33
1.71033	34
1.71400	35
1.71767	35
1.72133	35
1.72500	34
1.72867	31
1.73233	30
1.73600	31
1.73967	33
1.74333	35
1.74700	35
1.75067	34
1.75433	34
1.75800	36
1.76167	37
1.76533	36
1.76900	35
1.77267	36
1.77633	36
1.78000	36
1.78367	37
1.78733	38
1.79100	39
1.79467	42
1.79833	44
1.80200	44
1.80567	44
1.80933	45
1.81300	44
1.81667	43
1.82033	43
1.82400	44
1.82767	44
1.83133	44
1.83500	44
1.83867	45
1.84233	45
1.84600	47
1.84967	48
1.85333	49
1.85700	49
1.86067	47
1.86433	46
1.86800	45
1.87167	43
1.87533	42
1.87900	45
1.88267	49
1.88633	52
1.89000	54
1.89367	54
1.89733	54
1.90100	53
1.90467	55
1.90833	57
1.91200	60
1.91567	63
1.91933	67
1.92300	71
1.92667	70
1.93033	71
1.93400	72
1.93767	72
1.94133	71
1.94500	69
1.94867	67
1.95233	69
1.95600	71
1.95967	74
1.96333	76
1.96700	76
1.97067	76
1.97433	80
1.97800	83
1.98167	84
1.98533	85
1.98900	89
1.99267	90
1.99633	90
2.00000	90
2.00367	90
2.00733	92
2.01100	94
2.01467	95
2.01833	96
2.02200	99
2.02567	103
2.02933	104
2.03300	103
2.03667	104
2.04033	106
2.04400	107
2.04767	107
2.05133	109
2.05500	110
2.05867	113
2.06233	115
2.06600	116
2.06967	116
2.07333	118
2.07700	120
2.08067	121
2.08433	123
2.08800	125
2.09167	127
2.09533	128
2.09900	127
2.10267	127
2.10633	127
2.11000	129
2.11367	131
2.11733	135
2.12100	139
2.12467	140
2.12833	137
2.13200	136
2.13567	139
2.13933	143
2.14300	146
2.14667	147
2.15033	147
2.15400	149
2.15767	150
2.16133	152
2.16500	154
2.16867	157
2.17233	159
2.17600	161
2.17967	163
2.18333	164
2.18700	165
2.19067	167
2.19433	168
2.19800	167
2.20167	167
2.20533	167
2.20900	169
2.21267	170
2.21633	172
2.22000	173
2.22367	175
2.22733	180
2.23100	183
2.23467	185
2.23833	185
2.24200	185
2.24567	185
2.24933	184
2.25300	184
2.25667	184
2.26033	182
2.26400	182
2.26767	182
2.27133	183
2.27500	183
2.27867	183
2.28233	188
2.28600	191
2.28967	192
2.29333	192
2.29700	193
2.30067	194
2.30433	195
2.30800	196
2.31167	198
2.31533	200
2.31900	201
2.32267	203
2.32633	204
2.33000	204
2.33367	205
2.33733	206
2.34100	205
2.34467	204
2.34833	204
2.35200	203
2.35567	202
2.35933	201
2.36300	200
2.36667	200
2.37033	203
2.37400	206
2.37767	206
2.38133	206
2.38500	208
2.38867	206
2.39233	207
2.39600	208
2.39967	213
2.40333	217
2.40700	221
2.41067	224
2.41433	225
2.41800	227
2.42167	228
2.42533	229
2.42900	231
2.43267	233
2.43633	234
2.44000	235
2.44367	287
2.44733	425
2.45100	573
2.45467	698
2.45833	770
2.46200	778
2.46567	753
2.46933	725
2.47300	707
2.47667	699
2.48033	686
2.48400	658
2.48767	619
2.49133	576
2.49500	534
2.49867	502
2.50233	479
2.50600	466
2.50967	464
2.51333	473
2.51700	492
2.52067	513
2.52433	526
2.52800	530
2.53167	523
2.53533	503
2.53900	474
2.54267	443
2.54633	416
2.55000	392
2.55367	370
2.55733	352
2.56100	341
2.56467	332
2.56833	324
2.57200	320
2.57567	316
2.57933	314
2.58300	314
2.58667	315
2.59033	320
2.59400	327
2.59767	334
2.60133	340
2.60500	340
2.60867	337
2.61233	331
2.61600	322
2.61967	311
2.62333	300
2.62700	289
2.63067	276
2.63433	260
2.63800	242
2.64167	228
2.64533	216
2.64900	202
2.65267	187
2.65633	173
2.66000	163
2.66367	155
2.66733	146
2.67100	137
2.67467	133
2.67833	131
2.68200	129
2.68567	127
2.68933	125
2.69300	126
2.69667	130
2.70033	134
2.70400	137
2.70767	139
2.71133	142
2.71500	145
2.71867	150
2.72233	156
2.72600	161
2.72967	165
2.73333	168
2.73700	170
2.74067	172
2.74433	178
2.74800	183
2.75167	186
2.75533	190
2.75900	192
2.76267	195
2.76633	200
2.77000	204
2.77367	207
2.77733	211
2.78100	215
2.78467	217
2.78833	219
2.79200	224
2.79567	229
2.79933	232
2.80300	234
2.80667	240
2.81033	248
2.81400	256
2.81767	263
2.82133	275
2.82500	292
2.82867	327
2.83233	394
2.83600	513
2.83967	707
2.84333	995
2.84700	1383
2.85067	1869
2.85433	2429
2.85800	3024
2.86167	3608
2.86533	4132
2.86900	4557
2.87267	4854
2.87633	5009
2.88000	5024
2.88367	4916
2.88733	4707
2.89100	4425
2.89467	4099
2.89833	3752
2.90200	3402
2.90567	3065
2.90933	2744
2.91300	2446
2.91667	2174
2.92033	1928
2.92400	1712
2.92767	1519
2.93133	1348
2.93500	1198
2.93867	1065
2.94233	950
2.94600	853
2.94967	768
2.95333	695
2.95700	632
2.96067	576
2.96433	527
2.96800	484
2.97167	446
2.97533	416
2.97900	388
2.98267	365
2.98633	345
2.99000	329
2.99367	315
2.99733	303
3.00100	292
3.00467	282
3.00833	273
3.01200	265
3.01567	259
3.01933	255
3.02300	252
3.02667	246
3.03033	242
3.03400	239
3.03767	238
3.04133	237
3.04500	238
3.04867	238
3.05233	236
3.05600	234
3.05967	231
3.06333	228
3.06700	229
3.07067	230
3.07433	231
3.07800	231
3.08167	231
3.08533	231
3.08900	233
3.09267	235
3.09633	236
3.10000	236
3.10367	234
3.10733	234
3.11100	235
3.11467	234
3.11833	235
3.12200	237
3.12567	237
3.12933	236
3.13300	237
3.13667	237
3.14033	236
3.14400	237
3.14767	238
3.15133	239
3.15500	240
3.15867	240
3.16233	239
3.16600	238
3.16967	238
3.17333	240
3.17700	241
3.18067	241
3.18433	243
3.18800	245
3.19167	248
3.19533	250
3.19900	253
3.20267	256
3.20633	259
3.21000	261
3.21367	263
3.21733	264
3.22100	266
3.22467	267
3.22833	268
3.23200	271
3.23567	274
3.23933	275
3.24300	278
3.24667	281
3.25033	284
3.25400	285
3.25767	288
3.26133	290
3.26500	290
3.26867	289
3.27233	289
3.27600	292
3.27967	294
3.28333	298
3.28700	300
3.29067	301
3.29433	302
3.29800	302
3.30167	303
3.30533	305
3.30900	305
3.31267	304
3.31633	305
3.32000	308
3.32367	310
3.32733	311
3.33100	314
3.33467	316
3.33833	317
3.34200	318
3.34567	321
3.34933	324
3.35300	325
3.35667	326
3.36033	327
3.36400	326
3.36767	325
3.37133	326
3.37500	327
3.37867	327
3.38233	327
3.38600	327
3.38967	327
3.39333	330
3.39700	332
3.40067	333
3.40433	334
3.40800	334
3.41167	335
3.41533	335
3.41900	333
3.42267	334
3.42633	337
3.43000	338
3.43367	339
3.43733	339
3.44100	339
3.44467	339
3.44833	339
3.45200	339
3.45567	340
3.45933	340
3.46300	341
3.46667	342
3.47033	340
3.47400	338
3.47767	336
3.48133	335
3.48500	335
3.48867	335
3.49233	335
3.49600	335
3.49967	335
3.50333	334
3.50700	334
3.51067	334
3.51433	333
3.51800	332
3.52167	332
3.52533	332
3.52900	333
3.53267	334
3.53633	335
3.54000	335
3.54367	334
3.54733	333
3.55100	332
3.55467	331
3.55833	331
3.56200	334
3.56567	334
3.56933	335
3.57300	334
3.57667	334
3.58033	332
3.58400	329
3.58767	328
3.59133	328
3.59500	329
3.59867	332
3.60233	333
3.60600	331
3.60967	330
3.61333	329
3.61700	329
3.62067	331
3.62433	332
3.62800	331
3.63167	331
3.63533	331
3.63900	331
3.64267	330
3.64633	327
3.65000	324
3.65367	321
3.65733	320
3.66100	323
3.66467	327
3.66833	332
3.67200	338
3.67567	347
3.67933	358
3.68300	373
3.68667	389
3.69033	404
3.69400	418
3.69767	436
3.70133	454
3.70500	469
3.70867	483
3.71233	495
3.71600	508
3.71967	521
3.72333	533
3.72700	542
3.73067	548
3.73433	553
3.73800	560
3.74167	568
3.74533	573
3.74900	577
3.75267	579
3.75633	582
3.76000	586
3.76367	588
3.76733	589
3.77100	590
3.77467	592
3.77833	597
3.78200	601
3.78567	603
3.78933	603
3.79300	600
3.79667	597
3.80033	595
3.80400	596
3.80767	598
3.81133	600
3.81500	605
3.81867	607
3.82233	608
3.82600	610
3.82967	611
3.83333	612
3.83700	612
3.84067	611
3.84433	610
3.84800	611
3.85167	614
3.85533	615
3.85900	615
3.86267	614
3.86633	613
3.87000	611
3.87367	610
3.87733	610
3.88100	610
3.88467	608
3.88833	607
3.89200	609
3.89567	611
3.89933	611
3.90300	611
3.90667	609
3.91033	606
3.91400	604
3.91767	602
3.92133	601
3.92500	601
3.92867	602
3.93233	602
3.93600	602
3.93967	599
3.94333	597
3.94700	596
3.95067	597
3.95433	596
3.95800	593
3.96167	589
3.96533	589
3.96900	589
3.97267	590
3.97633	591
3.98000	590
3.98367	587
3.98733	584
3.99100	584
3.99467	583
3.99833	578

[Status Trace (Column Oven Temperature)]
Interval(msec)	1000
# of Points	240
Start Time(min)	0.001
End Time(min)	3.984
Intensity Units	
Intensity Multiplier	1
R.Time (min)	Intensity
0.00113	35.08
0.01780	35.08
0.03447	35.08
0.05113	35.06
0.06780	35.07
0.08447	35.06
0.10113	35.06
0.11780	35.06
0.13447	35.06
0.15113	35.06
0.16780	35.05
0.18447	35.04
0.20113	35.03
0.21780	35.03
0.23447	35.02
0.25113	35.02
0.26780	35.02
0.28447	35.01
0.30113	35.02
0.31780	35.02
0.33447	35.03
0.35113	35.03
0.36780	35.03
0.38447	35.02
0.40113	35.02
0.41780	35.01
0.43447	35.01
0.45113	35.01
0.46780	35.01
0.48447	35.01
0.50113	35.01
0.51780	35.01
0.53447	35.01
0.55113	35.00
0.56780	34.99
0.58447	34.98
0.60113	34.98
0.61780	34.99
0.63447	34.99
0.65113	34.99
0.66780	35.00
0.68447	35.00
0.70113	35.00
0.71780	35.00
0.73447	35.00
0.75113	34.99
0.76780	34.99
0.78447	34.99
0.80113	34.98
0.81780	34.98
0.83447	34.98
0.85113	34.98
0.86780	34.98
0.88447	34.97
0.90113	34.97
0.91780	34.99
0.93447	34.99
0.95113	35.00
0.96780	35.01
0.98447	35.02
1.00113	35.01
1.01780	35.01
1.03447	35.00
1.05113	34.99
1.06780	34.99
1.08447	34.99
1.10113	35.00
1.11780	34.99
1.13447	34.99
1.15113	34.99
1.16780	35.01
1.18447	35.01
1.20113	35.01
1.21780	35.02
1.23447	35.02
1.25113	35.03
1.26780	35.02
1.28447	35.02
1.30113	35.01
1.31780	35.02
1.33447	35.02
1.35113	35.04
1.36780	35.03
1.38447	35.02
1.40113	35.03
1.41780	35.03
1.43447	35.02
1.45113	35.02
1.46780	35.00
1.48447	35.00
1.50113	34.99
1.51780	34.99
1.53447	34.99
1.55113	34.99
1.56780	35.00
1.58447	35.02
1.60113	35.06
1.61780	35.15
1.63447	35.32
1.65113	35.54
1.66780	35.81
1.68447	36.16
1.70113	36.52
1.71780	36.87
1.73447	37.21
1.75113	37.55
1.76780	37.87
1.78447	38.20
1.80113	38.55
1.81780	38.86
1.83447	39.17
1.85113	39.51
1.86780	39.83
1.88447	40.18
1.90113	40.50
1.91780	40.84
1.93447	41.16
1.95113	41.49
1.96780	41.81
1.98447	42.15
2.00113	42.49
2.01780	42.80
2.03447	43.11
2.05113	43.46
2.06780	43.77
2.08447	44.11
2.10113	44.44
2.11780	44.75
2.13447	45.07
2.15113	45.41
2.16780	45.74
2.18447	46.04
2.20113	46.37
2.21780	46.70
2.23447	47.03
2.25113	47.36
2.26780	47.70
2.28447	48.03
2.30113	48.36
2.31780	48.68
2.33447	49.02
2.35113	49.31
2.36780	49.57
2.38447	49.69
2.40113	49.70
2.41780	49.70
2.43447	49.70
2.45113	49.70
2.46780	49.72
2.48447	49.72
2.50113	49.72
2.51780	49.73
2.53447	49.73
2.55113	49.77
2.56780	49.78
2.58447	49.80
2.60113	49.81
2.61780	49.80
2.63447	49.82
2.65113	49.83
2.66780	49.85
2.68447	49.85
2.70113	49.86
2.71780	49.85
2.73447	49.85
2.75113	49.86
2.76780	49.87
2.78447	49.87
2.80113	49.86
2.81780	49.86
2.83447	49.85
2.85113	49.86
2.86780	49.88
2.88447	49.89
2.90113	49.90
2.91780	49.92
2.93447	49.94
2.95113	49.95
2.96780	49.97
2.98447	49.98
3.00113	49.99
3.01780	50.00
3.03447	50.02
3.05113	50.02
3.06780	50.03
3.08447	50.04
3.10113	50.04
3.11780	50.05
3.13447	50.05
3.15113	50.05
3.16780	50.07
3.18447	50.07
3.20113	50.08
3.21780	50.09
3.23447	50.10
3.25113	50.11
3.26780	50.10
3.28447	50.08
3.30113	50.06
3.31780	50.05
3.33447	50.04
3.35113	50.03
3.36780	50.04
3.38447	50.03
3.40113	50.04
3.41780	50.04
3.43447	50.05
3.45113	50.05
3.46780	50.04
3.48447	50.04
3.50113	50.04
3.51780	50.04
3.53447	50.06
3.55113	50.07
3.56780	50.07
3.58447	50.08
3.60113	50.08
3.61780	50.07
3.63447	50.07
3.65113	50.07
3.66780	50.08
3.68447	50.08
3.70113	50.08
3.71780	50.08
3.73447	50.07
3.75113	50.07
3.76780	50.08
3.78447	50.08
3.80113	50.08
3.81780	50.07
3.83447	50.06
3.85113	50.06
3.86780	50.06
3.88447	50.07
3.90113	50.08
3.91780	50.07
3.93447	50.08
3.95113	50.07
3.96780	50.06
3.98447	50.05

[Status Trace (Injection Unit Temperature)]
Interval(msec)	1000
# of Points	240
Start Time(min)	0.001
End Time(min)	3.984
Intensity Units	
Intensity Multiplier	1
R.Time (min)	Intensity
0.00113	99.98
0.01780	99.98
0.03447	99.98
0.05113	99.99
0.06780	99.98
0.08447	99.99
0.10113	99.98
0.11780	99.99
0.13447	99.98
0.15113	99.98
0.16780	99.99
0.18447	99.99
0.20113	99.99
0.21780	99.99
0.23447	99.98
0.25113	99.99
0.26780	99.99
0.28447	99.99
0.30113	99.99
0.31780	99.99
0.33447	99.99
0.35113	99.99
0.36780	99.99
0.38447	99.99
0.40113	99.99
0.41780	99.99
0.43447	99.99
0.45113	99.99
0.46780	99.99
0.48447	99.99
0.50113	99.99
0.51780	99.98
0.53447	99.99
0.55113	99.99
0.56780	99.99
0.58447	99.99
0.60113	99.99
0.61780	99.98
0.63447	99.98
0.65113	99.99
0.66780	99.98
0.68447	99.99
0.70113	99.99
0.71780	99.98
0.73447	99.98
0.75113	99.98
0.76780	99.98
0.78447	99.98
0.80113	99.98
0.81780	99.98
0.83447	99.98
0.85113	99.98
0.86780	99.98
0.88447	99.98
0.90113	99.98
0.91780	99.98
0.93447	99.98
0.95113	99.98
0.96780	99.98
0.98447	99.98
1.00113	99.98
1.01780	99.97
1.03447	99.98
1.05113	99.98
1.06780	99.98
1.08447	99.97
1.10113	99.98
1.11780	99.97
1.13447	99.98
1.15113	99.98
1.16780	99.97
1.18447	99.98
1.20113	99.98
1.21780	99.98
1.23447	99.98
1.25113	99.98
1.26780	99.98
1.28447	99.98
1.30113	99.98
1.31780	99.98
1.33447	99.98
1.35113	99.99
1.36780	99.99
1.38447	99.98
1.40113	99.99
1.41780	99.99
1.43447	99.99
1.45113	99.99
1.46780	99.98
1.48447	99.98
1.50113	99.99
1.51780	99.99
1.53447	99.99
1.55113	99.99
1.56780	99.98
1.58447	99.98
1.60113	99.99
1.61780	99.99
1.63447	99.99
1.65113	99.99
1.66780	99.99
1.68447	99.99
1.70113	99.99
1.71780	99.99
1.73447	99.99
1.75113	99.99
1.76780	99.99
1.78447	99.99
1.80113	99.99
1.81780	99.98
1.83447	99.98
1.85113	99.98
1.86780	99.98
1.88447	99.98
1.90113	99.98
1.91780	99.98
1.93447	99.98
1.95113	99.97
1.96780	99.97
1.98447	99.98
2.00113	99.97
2.01780	99.97
2.03447	99.97
2.05113	99.97
2.06780	99.97
2.08447	99.97
2.10113	99.96
2.11780	99.97
2.13447	99.97
2.15113	99.96
2.16780	99.96
2.18447	99.96
2.20113	99.96
2.21780	99.96
2.23447	99.96
2.25113	99.97
2.26780	99.96
2.28447	99.96
2.30113	99.96
2.31780	99.96
2.33447	99.96
2.35113	99.96
2.36780	99.96
2.38447	99.96
2.40113	99.96
2.41780	99.97
2.43447	99.96
2.45113	99.97
2.46780	99.97
2.48447	99.97
2.50113	99.97
2.51780	99.97
2.53447	99.97
2.55113	99.97
2.56780	99.98
2.58447	99.97
2.60113	99.98
2.61780	99.97
2.63447	99.97
2.65113	99.98
2.66780	99.98
2.68447	99.98
2.70113	99.98
2.71780	99.98
2.73447	99.99
2.75113	99.99
2.76780	99.99
2.78447	99.99
2.80113	100.00
2.81780	100.00
2.83447	99.99
2.85113	100.00
2.86780	100.00
2.88447	100.00
2.90113	100.00
2.91780	100.00
2.93447	100.00
2.95113	100.01
2.96780	100.01
2.98447	100.01
3.00113	100.01
3.01780	100.01
3.03447	100.01
3.05113	100.02
3.06780	100.02
3.08447	100.01
3.10113	100.02
3.11780	100.02
3.13447	100.02
3.15113	100.02
3.16780	100.02
3.18447	100.02
3.20113	100.03
3.21780	100.03
3.23447	100.03
3.25113	100.03
3.26780	100.03
3.28447	100.03
3.30113	100.03
3.31780	100.03
3.33447	100.03
3.35113	100.04
3.36780	100.03
3.38447	100.03
3.40113	100.04
3.41780	100.03
3.43447	100.04
3.45113	100.04
3.46780	100.04
3.48447	100.04
3.50113	100.04
3.51780	100.04
3.53447	100.04
3.55113	100.04
3.56780	100.04
3.58447	100.05
3.60113	100.05
3.61780	100.05
3.63447	100.04
3.65113	100.04
3.66780	100.05
3.68447	100.05
3.70113	100.05
3.71780	100.04
3.73447	100.04
3.75113	100.04
3.76780	100.04
3.78447	100.04
3.80113	100.04
3.81780	100.05
3.83447	100.04
3.85113	100.05
3.86780	100.05
3.88447	100.05
3.90113	100.05
3.91780	100.04
3.93447	100.04
3.95113	100.04
3.96780	100.04
3.98447	100.05

[Status Trace (Carrier Gas Pressure)]
Interval(msec)	1000
# of Points	240
Start Time(min)	0.001
End Time(min)	3.984
Intensity Units	
Intensity Multiplier	1
R.Time (min)	Intensity
0.00113	58.00
0.01780	56.45
0.03447	56.10
0.05113	58.44
0.06780	59.87
0.08447	58.37
0.10113	57.97
0.11780	58.00
0.13447	58.01
0.15113	58.01
0.16780	58.00
0.18447	58.00
0.20113	58.00
0.21780	58.00
0.23447	58.00
0.25113	58.00
0.26780	58.00
0.28447	58.00
0.30113	58.00
0.31780	58.00
0.33447	58.00
0.35113	58.00
0.36780	58.00
0.38447	58.00
0.40113	58.00
0.41780	58.00
0.43447	58.00
0.45113	58.00
0.46780	58.00
0.48447	58.00
0.50113	58.00
0.51780	58.00
0.53447	58.00
0.55113	58.00
0.56780	58.00
0.58447	58.00
0.60113	58.00
0.61780	58.00
0.63447	58.00
0.65113	58.00
0.66780	58.00
0.68447	58.00
0.70113	58.00
0.71780	58.00
0.73447	58.00
0.75113	58.00
0.76780	58.00
0.78447	58.00
0.80113	58.00
0.81780	58.00
0.83447	58.00
0.85113	58.00
0.86780	58.00
0.88447	58.00
0.90113	58.00
0.91780	58.00
0.93447	58.00
0.95113	58.00
0.96780	58.00
0.98447	58.00
1.00113	58.00
1.01780	58.00
1.03447	58.00
1.05113	58.00
1.06780	58.00
1.08447	58.00
1.10113	58.00
1.11780	58.00
1.13447	58.00
1.15113	58.00
1.16780	58.00
1.18447	58.00
1.20113	58.00
1.21780	58.00
1.23447	58.00
1.25113	58.00
1.26780	58.00
1.28447	58.00
1.30113	58.00
1.31780	58.00
1.33447	58.00
1.35113	58.00
1.36780	58.00
1.38447	58.00
1.40113	58.00
1.41780	58.00
1.43447	58.00
1.45113	58.00
1.46780	58.00
1.48447	58.00
1.50113	58.00
1.51780	58.00
1.53447	58.00
1.55113	58.00
1.56780	58.00
1.58447	58.00
1.60113	58.00
1.61780	58.00
1.63447	58.01
1.65113	58.00
1.66780	58.00
1.68447	58.01
1.70113	58.00
1.71780	58.00
1.73447	58.00
1.75113	58.00
1.76780	58.00
1.78447	58.00
1.80113	58.00
1.81780	58.00
1.83447	58.00
1.85113	58.00
1.86780	58.00
1.88447	58.00
1.90113	58.00
1.91780	58.00
1.93447	58.00
1.95113	58.00
1.96780	58.00
1.98447	58.00
2.00113	58.00
2.01780	58.00
2.03447	58.00
2.05113	58.00
2.06780	58.00
2.08447	58.00
2.10113	58.00
2.11780	58.00
2.13447	58.00
2.15113	58.00
2.16780	58.00
2.18447	58.00
2.20113	58.00
2.21780	58.00
2.23447	58.00
2.25113	58.00
2.26780	58.00
2.28447	58.00
2.30113	58.00
2.31780	58.00
2.33447	58.00
2.35113	58.00
2.36780	58.00
2.38447	57.99
2.40113	57.99
2.41780	58.00
2.43447	58.00
2.45113	58.00
2.46780	58.00
2.48447	58.00
2.50113	58.00
2.51780	58.00
2.53447	57.99
2.55113	58.00
2.56780	58.00
2.58447	58.00
2.60113	58.00
2.61780	58.00
2.63447	58.00
2.65113	58.00
2.66780	58.00
2.68447	58.00
2.70113	58.00
2.71780	58.00
2.73447	58.00
2.75113	58.00
2.76780	58.00
2.78447	58.00
2.80113	58.00
2.81780	58.00
2.83447	58.00
2.85113	58.00
2.86780	58.00
2.88447	58.00
2.90113	58.00
2.91780	58.00
2.93447	58.00
2.95113	58.00
2.96780	58.00
2.98447	58.00
3.00113	58.00
3.01780	58.00
3.03447	58.00
3.05113	58.00
3.06780	58.00
3.08447	58.00
3.10113	58.00
3.11780	58.00
3.13447	58.00
3.15113	58.00
3.16780	58.00
3.18447	58.00
3.20113	58.00
3.21780	58.00
3.23447	58.00
3.25113	58.00
3.26780	58.00
3.28447	58.00
3.30113	58.00
3.31780	58.00
3.33447	58.00
3.35113	58.00
3.36780	58.00
3.38447	58.00
3.40113	58.00
3.41780	58.00
3.43447	58.00
3.45113	58.00
3.46780	58.00
3.48447	58.00
3.50113	58.00
3.51780	58.00
3.53447	58.00
3.55113	58.00
3.56780	58.00
3.58447	58.00
3.60113	58.00
3.61780	58.00
3.63447	58.00
3.65113	58.00
3.66780	58.00
3.68447	58.00
3.70113	58.00
3.71780	58.00
3.73447	58.00
3.75113	58.00
3.76780	58.00
3.78447	58.00
3.80113	58.00
3.81780	58.00
3.83447	58.00
3.85113	58.00
3.86780	58.00
3.88447	58.00
3.90113	58.00
3.91780	58.00
3.93447	58.00
3.95113	58.00
3.96780	58.00
3.98447	58.00

[Status Trace (Carrier Gas Flow)]
Interval(msec)	1000
# of Points	240
Start Time(min)	0.001
End Time(min)	3.984
Intensity Units	
Intensity Multiplier	1
R.Time (min)	Intensity
0.00113	34.51
0.01780	34.37
0.03447	34.54
0.05113	34.54
0.06780	34.49
0.08447	34.52
0.10113	34.52
0.11780	34.52
0.13447	34.52
0.15113	34.52
0.16780	34.52
0.18447	34.51
0.20113	34.52
0.21780	34.52
0.23447	34.52
0.25113	34.52
0.26780	34.52
0.28447	34.52
0.30113	34.52
0.31780	34.52
0.33447	34.52
0.35113	34.52
0.36780	34.52
0.38447	34.52
0.40113	34.52
0.41780	34.52
0.43447	34.52
0.45113	34.52
0.46780	34.51
0.48447	34.52
0.50113	34.52
0.51780	34.52
0.53447	34.52
0.55113	34.52
0.56780	34.52
0.58447	34.52
0.60113	34.52
0.61780	34.52
0.63447	34.51
0.65113	34.51
0.66780	34.52
0.68447	34.53
0.70113	34.53
0.71780	34.53
0.73447	34.52
0.75113	34.51
0.76780	34.51
0.78447	34.50
0.80113	34.51
0.81780	34.51
0.83447	34.52
0.85113	34.51
0.86780	34.51
0.88447	34.52
0.90113	34.52
0.91780	34.52
0.93447	34.52
0.95113	34.52
0.96780	34.52
0.98447	34.52
1.00113	34.52
1.01780	34.52
1.03447	34.52
1.05113	34.52
1.06780	34.52
1.08447	34.52
1.10113	34.51
1.11780	34.52
1.13447	34.52
1.15113	34.52
1.16780	34.52
1.18447	34.52
1.20113	34.52
1.21780	34.52
1.23447	34.53
1.25113	34.52
1.26780	34.52
1.28447	34.52
1.30113	34.52
1.31780	34.52
1.33447	34.52
1.35113	34.52
1.36780	34.52
1.38447	34.52
1.40113	34.51
1.41780	34.52
1.43447	34.52
1.45113	34.52
1.46780	34.52
1.48447	34.52
1.50113	34.53
1.51780	34.52
1.53447	34.52
1.55113	34.52
1.56780	34.52
1.58447	34.52
1.60113	34.52
1.61780	34.52
1.63447	34.52
1.65113	34.52
1.66780	34.52
1.68447	34.53
1.70113	34.51
1.71780	34.52
1.73447	34.52
1.75113	34.52
1.76780	34.52
1.78447	34.52
1.80113	34.51
1.81780	34.52
1.83447	34.52
1.85113	34.52
1.86780	34.52
1.88447	34.51
1.90113	34.51
1.91780	34.52
1.93447	34.52
1.95113	34.52
1.96780	34.52
1.98447	34.52
2.00113	34.51
2.01780	34.51
2.03447	34.53
2.05113	34.52
2.06780	34.52
2.08447	34.52
2.10113	34.52
2.11780	34.52
2.13447	34.52
2.15113	34.52
2.16780	34.52
2.18447	34.52
2.20113	34.51
2.21780	34.52
2.23447	34.52
2.25113	34.52
2.26780	34.52
2.28447	34.52
2.30113	34.52
2.31780	34.52
2.33447	34.52
2.35113	34.51
2.36780	34.52
2.38447	34.52
2.40113	34.51
2.41780	34.52
2.43447	34.51
2.45113	34.52
2.46780	34.53
2.48447	34.52
2.50113	34.51
2.51780	34.52
2.53447	34.52
2.55113	34.52
2.56780	34.52
2.58447	34.52
2.60113	34.51
2.61780	34.51
2.63447	34.52
2.65113	34.52
2.66780	34.51
2.68447	34.52
2.70113	34.53
2.71780	34.52
2.73447	34.52
2.75113	34.52
2.76780	34.52
2.78447	34.51
2.80113	34.52
2.81780	34.52
2.83447	34.52
2.85113	34.52
2.86780	34.52
2.88447	34.52
2.90113	34.53
2.91780	34.52
2.93447	34.52
2.95113	34.52
2.96780	34.52
2.98447	34.51
3.00113	34.52
3.01780	34.52
3.03447	34.52
3.05113	34.52
3.06780	34.52
3.08447	34.52
3.10113	34.52
3.11780	34.52
3.13447	34.52
3.15113	34.52
3.16780	34.52
3.18447	34.52
3.20113	34.52
3.21780	34.52
3.23447	34.52
3.25113	34.52
3.26780	34.52
3.28447	34.52
3.30113	34.52
3.31780	34.52
3.33447	34.52
3.35113	34.52
3.36780	34.51
3.38447	34.52
3.40113	34.52
3.41780	34.52
3.43447	34.52
3.45113	34.52
3.46780	34.53
3.48447	34.52
3.50113	34.52
3.51780	34.51
3.53447	34.52
3.55113	34.52
3.56780	34.52
3.58447	34.52
3.60113	34.52
3.61780	34.52
3.63447	34.52
3.65113	34.52
3.66780	34.52
3.68447	34.53
3.70113	34.52
3.71780	34.52
3.73447	34.52
3.75113	34.52
3.76780	34.52
3.78447	34.52
3.80113	34.52
3.81780	34.53
3.83447	34.52
3.85113	34.52
3.86780	34.51
3.88447	34.52
3.90113	34.51
3.91780	34.51
3.93447	34.52
3.95113	34.52
3.96780	34.51
3.98447	34.52

[Status Trace (Column Flow)]
Interval(msec)	1000
# of Points	240
Start Time(min)	0.001
End Time(min)	3.984
Intensity Units	
Intensity Multiplier	1
R.Time (min)	Intensity
0.00113	5.55
0.01780	5.37
0.03447	5.33
0.05113	5.61
0.06780	5.77
0.08447	5.60
0.10113	5.55
0.11780	5.55
0.13447	5.56
0.15113	5.55
0.16780	5.55
0.18447	5.55
0.20113	5.56
0.21780	5.56
0.23447	5.56
0.25113	5.55
0.26780	5.55
0.28447	5.56
0.30113	5.56
0.31780	5.56
0.33447	5.55
0.35113	5.55
0.36780	5.55
0.38447	5.55
0.40113	5.56
0.41780	5.56
0.43447	5.56
0.45113	5.56
0.46780	5.56
0.48447	5.56
0.50113	5.56
0.51780	5.56
0.53447	5.56
0.55113	5.56
0.56780	5.56
0.58447	5.56
0.60113	5.56
0.61780	5.56
0.63447	5.56
0.65113	5.56
0.66780	5.56
0.68447	5.56
0.70113	5.56
0.71780	5.56
0.73447	5.56
0.75113	5.56
0.76780	5.56
0.78447	5.56
0.80113	5.56
0.81780	5.56
0.83447	5.56
0.85113	5.56
0.86780	5.56
0.88447	5.56
0.90113	5.56
0.91780	5.56
0.93447	5.56
0.95113	5.56
0.96780	5.56
0.98447	5.56
1.00113	5.56
1.01780	5.56
1.03447	5.56
1.05113	5.56
1.06780	5.56
1.08447	5.56
1.10113	5.56
1.11780	5.56
1.13447	5.56
1.15113	5.56
1.16780	5.56
1.18447	5.56
1.20113	5.56
1.21780	5.56
1.23447	5.55
1.25113	5.55
1.26780	5.56
1.28447	5.56
1.30113	5.56
1.31780	5.56
1.33447	5.56
1.35113	5.55
1.36780	5.55
1.38447	5.56
1.40113	5.55
1.41780	5.55
1.43447	5.55
1.45113	5.56
1.46780	5.56
1.48447	5.56
1.50113	5.56
1.51780	5.56
1.53447	5.56
1.55113	5.56
1.56780	5.56
1.58447	5.55
1.60113	5.55
1.61780	5.55
1.63447	5.55
1.65113	5.54
1.66780	5.53
1.68447	5.52
1.70113	5.51
1.71780	5.50
1.73447	5.49
1.75113	5.48
1.76780	5.47
1.78447	5.46
1.80113	5.44
1.81780	5.44
1.83447	5.43
1.85113	5.42
1.86780	5.41
1.88447	5.40
1.90113	5.39
1.91780	5.38
1.93447	5.37
1.95113	5.36
1.96780	5.35
1.98447	5.34
2.00113	5.33
2.01780	5.32
2.03447	5.31
2.05113	5.30
2.06780	5.29
2.08447	5.28
2.10113	5.27
2.11780	5.26
2.13447	5.25
2.15113	5.24
2.16780	5.23
2.18447	5.22
2.20113	5.21
2.21780	5.20
2.23447	5.19
2.25113	5.18
2.26780	5.17
2.28447	5.16
2.30113	5.16
2.31780	5.15
2.33447	5.14
2.35113	5.13
2.36780	5.12
2.38447	5.12
2.40113	5.12
2.41780	5.12
2.43447	5.12
2.45113	5.12
2.46780	5.12
2.48447	5.12
2.50113	5.12
2.51780	5.12
2.53447	5.12
2.55113	5.12
2.56780	5.12
2.58447	5.12
2.60113	5.12
2.61780	5.12
2.63447	5.11
2.65113	5.11
2.66780	5.11
2.68447	5.11
2.70113	5.11
2.71780	5.11
2.73447	5.11
2.75113	5.11
2.76780	5.11
2.78447	5.11
2.80113	5.11
2.81780	5.11
2.83447	5.11
2.85113	5.11
2.86780	5.11
2.88447	5.11
2.90113	5.11
2.91780	5.11
2.93447	5.11
2.95113	5.11
2.96780	5.11
2.98447	5.11
3.00113	5.11
3.01780	5.11
3.03447	5.11
3.05113	5.11
3.06780	5.11
3.08447	5.11
3.10113	5.11
3.11780	5.11
3.13447	5.11
3.15113	5.11
3.16780	5.11
3.18447	5.11
3.20113	5.11
3.21780	5.11
3.23447	5.11
3.25113	5.11
3.26780	5.11
3.28447	5.11
3.30113	5.11
3.31780	5.11
3.33447	5.11
3.35113	5.11
3.36780	5.11
3.38447	5.11
3.40113	5.11
3.41780	5.11
3.43447	5.11
3.45113	5.11
3.46780	5.11
3.48447	5.11
3.50113	5.11
3.51780	5.11
3.53447	5.11
3.55113	5.11
3.56780	5.11
3.58447	5.11
3.60113	5.11
3.61780	5.11
3.63447	5.11
3.65113	5.11
3.66780	5.11
3.68447	5.11
3.70113	5.11
3.71780	5.11
3.73447	5.11
3.75113	5.11
3.76780	5.11
3.78447	5.11
3.80113	5.11
3.81780	5.11
3.83447	5.11
3.85113	5.11
3.86780	5.11
3.88447	5.11
3.90113	5.11
3.91780	5.11
3.93447	5.11
3.95113	5.11
3.96780	5.11
3.98447	5.11

[Status Trace (Linear Velocity)]
Interval(msec)	1000
# of Points	240
Start Time(min)	0.001
End Time(min)	3.984
Intensity Units	
Intensity Multiplier	1
R.Time (min)	Intensity
0.00113	39.02
0.01780	38.00
0.03447	37.77
0.05113	39.31
0.06780	40.24
0.08447	39.26
0.10113	39.00
0.11780	39.02
0.13447	39.03
0.15113	39.02
0.16780	39.02
0.18447	39.02
0.20113	39.02
0.21780	39.02
0.23447	39.02
0.25113	39.02
0.26780	39.02
0.28447	39.02
0.30113	39.02
0.31780	39.02
0.33447	39.02
0.35113	39.02
0.36780	39.02
0.38447	39.02
0.40113	39.02
0.41780	39.02
0.43447	39.02
0.45113	39.02
0.46780	39.02
0.48447	39.02
0.50113	39.02
0.51780	39.02
0.53447	39.02
0.55113	39.02
0.56780	39.03
0.58447	39.03
0.60113	39.03
0.61780	39.03
0.63447	39.03
0.65113	39.03
0.66780	39.03
0.68447	39.02
0.70113	39.02
0.71780	39.02
0.73447	39.03
0.75113	39.03
0.76780	39.03
0.78447	39.03
0.80113	39.03
0.81780	39.03
0.83447	39.03
0.85113	39.03
0.86780	39.03
0.88447	39.03
0.90113	39.03
0.91780	39.03
0.93447	39.03
0.95113	39.02
0.96780	39.02
0.98447	39.02
1.00113	39.02
1.01780	39.02
1.03447	39.02
1.05113	39.03
1.06780	39.03
1.08447	39.03
1.10113	39.03
1.11780	39.03
1.13447	39.03
1.15113	39.03
1.16780	39.02
1.18447	39.02
1.20113	39.02
1.21780	39.02
1.23447	39.02
1.25113	39.02
1.26780	39.02
1.28447	39.02
1.30113	39.02
1.31780	39.02
1.33447	39.02
1.35113	39.02
1.36780	39.02
1.38447	39.02
1.40113	39.02
1.41780	39.02
1.43447	39.02
1.45113	39.02
1.46780	39.02
1.48447	39.03
1.50113	39.03
1.51780	39.03
1.53447	39.03
1.55113	39.03
1.56780	39.03
1.58447	39.02
1.60113	39.02
1.61780	39.01
1.63447	39.00
1.65113	38.98
1.66780	38.95
1.68447	38.92
1.70113	38.88
1.71780	38.85
1.73447	38.81
1.75113	38.78
1.76780	38.75
1.78447	38.72
1.80113	38.69
1.81780	38.66
1.83447	38.63
1.85113	38.60
1.86780	38.57
1.88447	38.53
1.90113	38.50
1.91780	38.47
1.93447	38.44
1.95113	38.41
1.96780	38.38
1.98447	38.35
2.00113	38.32
2.01780	38.29
2.03447	38.26
2.05113	38.23
2.06780	38.20
2.08447	38.17
2.10113	38.14
2.11780	38.11
2.13447	38.08
2.15113	38.05
2.16780	38.02
2.18447	37.99
2.20113	37.97
2.21780	37.93
2.23447	37.90
2.25113	37.88
2.26780	37.85
2.28447	37.81
2.30113	37.79
2.31780	37.76
2.33447	37.73
2.35113	37.70
2.36780	37.68
2.38447	37.66
2.40113	37.66
2.41780	37.67
2.43447	37.67
2.45113	37.67
2.46780	37.67
2.48447	37.66
2.50113	37.66
2.51780	37.66
2.53447	37.66
2.55113	37.66
2.56780	37.66
2.58447	37.66
2.60113	37.66
2.61780	37.66
2.63447	37.66
2.65113	37.65
2.66780	37.65
2.68447	37.65
2.70113	37.65
2.71780	37.65
2.73447	37.65
2.75113	37.65
2.76780	37.65
2.78447	37.65
2.80113	37.65
2.81780	37.65
2.83447	37.65
2.85113	37.65
2.86780	37.65
2.88447	37.65
2.90113	37.65
2.91780	37.65
2.93447	37.65
2.95113	37.64
2.96780	37.64
2.98447	37.64
3.00113	37.64
3.01780	37.64
3.03447	37.64
3.05113	37.64
3.06780	37.64
3.08447	37.64
3.10113	37.64
3.11780	37.64
3.13447	37.64
3.15113	37.64
3.16780	37.63
3.18447	37.63
3.20113	37.63
3.21780	37.63
3.23447	37.63
3.25113	37.63
3.26780	37.63
3.28447	37.63
3.30113	37.63
3.31780	37.64
3.33447	37.64
3.35113	37.64
3.36780	37.64
3.38447	37.64
3.40113	37.64
3.41780	37.64
3.43447	37.64
3.45113	37.64
3.46780	37.64
3.48447	37.64
3.50113	37.64
3.51780	37.64
3.53447	37.64
3.55113	37.63
3.56780	37.63
3.58447	37.63
3.60113	37.63
3.61780	37.63
3.63447	37.63
3.65113	37.63
3.66780	37.63
3.68447	37.63
3.70113	37.63
3.71780	37.63
3.73447	37.63
3.75113	37.63
3.76780	37.63
3.78447	37.63
3.80113	37.63
3.81780	37.63
3.83447	37.63
3.85113	37.63
3.86780	37.64
3.88447	37.63
3.90113	37.63
3.91780	37.63
3.93447	37.63
3.95113	37.63
3.96780	37.63
3.98447	37.64

