[Header]
Application Name	LabSolutions
Version	5.110
Data File Name	C:\Users\User\Desktop\GC Analyses\Jack\Nachusa Grasslands Sampling\T4 Timepoint July 12th\T4_07122022_048.gcd
Output Date	3/17/2023
Output Time	12:04:53 PM

[File Information]
Type	Data File
Generated	3/14/2023 8:43:17 PM
Generated by	System Administrator
Modified	3/14/2023 8:49:50 PM
Modified by	System Administrator

[Sample Information]
Operator Name	System Administrator
Acquired	3/14/2023 8:45:49 PM
Sample Type	0:Unknown
Level	0
Sample Name	048
Sample ID	048
ISTD Amount1	1
ISTD Amount2	1
ISTD Amount3	1
ISTD Amount4	1
ISTD Amount5	1
ISTD Amount6	1
ISTD Amount7	1
ISTD Amount8	1
ISTD Amount9	1
ISTD Amount10	1
ISTD Amount11	1
ISTD Amount12	1
ISTD Amount13	1
ISTD Amount14	1
ISTD Amount15	1
ISTD Amount16	1
ISTD Amount17	1
ISTD Amount18	1
ISTD Amount19	1
ISTD Amount20	1
ISTD Amount21	1
ISTD Amount22	1
ISTD Amount23	1
ISTD Amount24	1
ISTD Amount25	1
ISTD Amount26	1
ISTD Amount27	1
ISTD Amount28	1
ISTD Amount29	1
ISTD Amount30	1
ISTD Amount31	1
ISTD Amount32	1
Sample Amount	1
Dilution Factor	1
Vial#	47
Injection Volume	1
Injection Count	1
Bar Code	

[Original Files]
Data File	C:\Users\User\Desktop\GC Analyses\Jack\Nachusa Grasslands Sampling\T4 Timepoint July 12th\T4_07122022_048.gcd
Method File	C:\LabSolutions\Data\GHG_4min_2022\ghg3_togas_w_acet_4 min_new_int.gcm
Batch File	C:\LabSolutions\Data\AutoSamplerTesting\T4_07122022.gcb
Report Format File	c:\LabSolutions\System\DEFAULT.lsr

[File Description]


[Configuration]
Instrument Name	C0B7VH3-Instrument1
Instrument #	1
Line #	1
# of Detectors	3
Detector ID	DET#1	DET#2	DET#3
Detector Name	FID	PTCD	ECD
# of Channels	1	1	1

[Peak Table(Ch1)]
# of Peaks	3
Peak#	R.Time	I.Time	F.Time	Area	Height	A/H	Conc.	Mark	ID#	Name	k'	Plate #	Plate Ht.	Tailing	Resolution	Sep.Factor	Area Ratio	Height Ratio	Conc. %	Norm Conc.
1	1.476	1.435	1.542	45094	22069	2.043	318.366	   	1	CO	0.000	9705	15.456	1.333	0.000	0.000	0	0	31.318	31.318
2	1.571	1.542	1.626	3530	1797	1.964	68.249	 V 	2	CH4	0.065	11999	12.501	0.000	1.626	0.000	0	0	6.714	6.714
3	2.000	1.949	2.348	2509967	1200233	2.091	629.934	   	3	CO2	0.355	17399	8.621	1.193	7.270	5.500	0	0	61.968	61.968

[Peak Table(Ch2)]
# of Peaks	0

[Peak Table(Ch3)]
# of Peaks	5
Peak#	R.Time	I.Time	F.Time	Area	Height	A/H	Conc.	Mark	ID#	Name	k'	Plate #	Plate Ht.	Tailing	Resolution	Sep.Factor	Area Ratio	Height Ratio	Conc. %	Norm Conc.
1	2.462	2.323	2.510	2135	659	3.241	0.000	   			0.000	9136	16.419	0.000	0.000	0.000	0	0	0.000	0.000
2	2.528	2.510	2.579	1122	380	2.953	0.000	 V 			0.027	6047	24.804	0.000	0.566	0.000	0	0	0.000	0.000
3	2.609	2.579	2.686	725	187	3.879	0.000	 V 			0.060	1785	84.037	0.000	0.428	2.222	0	0	0.000	0.000
4	2.880	2.799	3.067	18062	4817	3.749	0.461	   	1	N2O	0.170	13329	11.254	1.512	1.565	2.850	0	0	100.000	100.000
5	3.441	3.181	3.654	1264	72	17.600	0.000	   	2	SF6	0.398	789	190.066	0.931	1.903	2.342	0	0	0.000	0.000

[Compound Results(Ch1)]
# of IDs	6
ID#	Name	R.Time	Area	Height	Conc.	Curve	3rd	2nd	1st	Constant	Area Ratio	Height Ratio	Conc. %	Norm Conc.
1	CO	1.476	45094	22069	318.366	Linear	0.000000e+00	0.000000e+00	1.416423e+002	0.000000e+00	0	0	31.318	31.318
2	CH4	1.571	3530	1797	68.249	Linear	0.000000e+00	0.000000e+00	5.171738e+001	0.000000e+00	0	0	6.714	6.714
3	CO2	2.000	2509967	1200233	629.934	Linear	0.000000e+00	0.000000e+00	3.984494e+003	0.000000e+00	0	0	61.968	61.968
4	Ethylene	0.000	0	0	0.000	Linear	0.000000e+00	0.000000e+00	0.000000e+00	0.000000e+00	0	0	0.000	0.000
5	Acetylene	0.000	0	0	0.000	Linear	0.000000e+00	0.000000e+00	0.000000e+00	0.000000e+00	0	0	0.000	0.000
6	Ethane	0.000	0	0	0.000	Linear	0.000000e+00	0.000000e+00	0.000000e+00	0.000000e+00	0	0	0.000	0.000

[Compound Results(Ch2)]
# of IDs	5
ID#	Name	R.Time	Area	Height	Conc.	Curve	3rd	2nd	1st	Constant	Area Ratio	Height Ratio	Conc. %	Norm Conc.
1	Hydrogen	0.000	0	0	0.000	Linear	0.000000e+00	0.000000e+00	0.000000e+00	0.000000e+00	0	0	0.000	0.000
2	Oxygen	0.000	0	0	0.000	Linear	0.000000e+00	0.000000e+00	0.000000e+00	0.000000e+00	0	0	0.000	0.000
3	Nitrogen	0.000	0	0	0.000	Linear	0.000000e+00	0.000000e+00	0.000000e+00	0.000000e+00	0	0	0.000	0.000
4	Methane	0.000	0	0	0.000	Linear	0.000000e+00	0.000000e+00	0.000000e+00	0.000000e+00	0	0	0.000	0.000
5	Carbon Monoxide	0.000	0	0	0.000	Linear	0.000000e+00	0.000000e+00	0.000000e+00	0.000000e+00	0	0	0.000	0.000

[Compound Results(Ch3)]
# of IDs	2
ID#	Name	R.Time	Area	Height	Conc.	Curve	3rd	2nd	1st	Constant	Area Ratio	Height Ratio	Conc. %	Norm Conc.
1	N2O	2.880	18062	4817	0.461	Linear	0.000000e+00	0.000000e+00	3.915173e+004	0.000000e+00	0	0	100.000	100.000
2	SF6	3.441	1264	72	0.000	Linear	0.000000e+00	0.000000e+00	0.000000e+00	0.000000e+00	0	0	0.000	0.000

[Group Results(Ch1)]
# of Groups	0

[Group Results(Ch2)]
# of Groups	0

[Group Results(Ch3)]
# of Groups	0

[Chromatogram (Ch1)]
Interval(msec)	220
# of Points	1091
Start Time(min)	0.002
End Time(min)	3.998
R.Time (min)	Intensity
0.00167	-4
0.00533	3
0.00900	13
0.01267	23
0.01633	27
0.02000	26
0.02367	21
0.02733	15
0.03100	9
0.03467	6
0.03833	6
0.04200	6
0.04567	8
0.04933	9
0.05300	10
0.05667	8
0.06033	3
0.06400	-2
0.06767	-10
0.07133	-17
0.07500	-20
0.07867	-17
0.08233	-5
0.08600	11
0.08967	18
0.09333	21
0.09700	23
0.10067	23
0.10433	33
0.10800	39
0.11167	33
0.11533	27
0.11900	22
0.12267	15
0.12633	9
0.13000	8
0.13367	9
0.13733	10
0.14100	12
0.14467	13
0.14833	13
0.15200	14
0.15567	11
0.15933	6
0.16300	6
0.16667	12
0.17033	22
0.17400	36
0.17767	45
0.18133	46
0.18500	45
0.18867	40
0.19233	33
0.19600	30
0.19967	23
0.20333	14
0.20700	9
0.21067	12
0.21433	19
0.21800	22
0.22167	24
0.22533	25
0.22900	27
0.23267	28
0.23633	33
0.24000	40
0.24367	44
0.24733	46
0.25100	43
0.25467	39
0.25833	37
0.26200	37
0.26567	39
0.26933	44
0.27300	49
0.27667	51
0.28033	49
0.28400	45
0.28767	48
0.29133	50
0.29500	49
0.29867	44
0.30233	37
0.30600	35
0.30967	31
0.31333	30
0.31700	31
0.32067	33
0.32433	34
0.32800	31
0.33167	24
0.33533	19
0.33900	20
0.34267	21
0.34633	22
0.35000	24
0.35367	29
0.35733	44
0.36100	57
0.36467	58
0.36833	52
0.37200	46
0.37567	39
0.37933	36
0.38300	37
0.38667	38
0.39033	41
0.39400	42
0.39767	43
0.40133	47
0.40500	50
0.40867	57
0.41233	66
0.41600	75
0.41967	84
0.42333	85
0.42700	75
0.43067	60
0.43433	48
0.43800	43
0.44167	43
0.44533	39
0.44900	34
0.45267	29
0.45633	25
0.46000	23
0.46367	27
0.46733	34
0.47100	40
0.47467	50
0.47833	53
0.48200	47
0.48567	44
0.48933	44
0.49300	43
0.49667	43
0.50033	43
0.50400	43
0.50767	42
0.51133	42
0.51500	47
0.51867	53
0.52233	61
0.52600	66
0.52967	59
0.53333	46
0.53700	33
0.54067	26
0.54433	25
0.54800	30
0.55167	36
0.55533	40
0.55900	42
0.56267	43
0.56633	43
0.57000	43
0.57367	44
0.57733	48
0.58100	49
0.58467	44
0.58833	36
0.59200	33
0.59567	35
0.59933	32
0.60300	26
0.60667	24
0.61033	22
0.61400	21
0.61767	19
0.62133	18
0.62500	22
0.62867	27
0.63233	37
0.63600	45
0.63967	52
0.64333	50
0.64700	44
0.65067	38
0.65433	31
0.65800	26
0.66167	26
0.66533	29
0.66900	31
0.67267	28
0.67633	23
0.68000	21
0.68367	22
0.68733	23
0.69100	27
0.69467	30
0.69833	32
0.70200	33
0.70567	33
0.70933	34
0.71300	33
0.71667	31
0.72033	32
0.72400	36
0.72767	37
0.73133	33
0.73500	26
0.73867	25
0.74233	24
0.74600	25
0.74967	33
0.75333	40
0.75700	45
0.76067	49
0.76433	49
0.76800	42
0.77167	33
0.77533	29
0.77900	26
0.78267	23
0.78633	26
0.79000	31
0.79367	34
0.79733	30
0.80100	22
0.80467	17
0.80833	10
0.81200	9
0.81567	10
0.81933	13
0.82300	21
0.82667	30
0.83033	43
0.83400	48
0.83767	46
0.84133	40
0.84500	34
0.84867	29
0.85233	22
0.85600	14
0.85967	9
0.86333	6
0.86700	7
0.87067	11
0.87433	14
0.87800	10
0.88167	5
0.88533	5
0.88900	9
0.89267	15
0.89633	21
0.90000	23
0.90367	23
0.90733	23
0.91100	25
0.91467	21
0.91833	14
0.92200	8
0.92567	6
0.92933	6
0.93300	4
0.93667	3
0.94033	-2
0.94400	-9
0.94767	-10
0.95133	-6
0.95500	3
0.95867	16
0.96233	25
0.96600	29
0.96967	33
0.97333	35
0.97700	29
0.98067	22
0.98433	13
0.98800	10
0.99167	9
0.99533	3
0.99900	-3
1.00267	-7
1.00633	-8
1.01000	-8
1.01367	-3
1.01733	2
1.02100	9
1.02467	17
1.02833	22
1.03200	22
1.03567	22
1.03933	25
1.04300	28
1.04667	30
1.05033	32
1.05400	30
1.05767	27
1.06133	22
1.06500	20
1.06867	19
1.07233	16
1.07600	11
1.07967	8
1.08333	12
1.08700	16
1.09067	11
1.09433	5
1.09800	7
1.10167	11
1.10533	9
1.10900	5
1.11267	5
1.11633	10
1.12000	17
1.12367	24
1.12733	28
1.13100	25
1.13467	16
1.13833	9
1.14200	7
1.14567	9
1.14933	14
1.15300	18
1.15667	14
1.16033	7
1.16400	2
1.16767	-1
1.17133	-5
1.17500	-12
1.17867	-17
1.18233	-20
1.18600	-18
1.18967	-9
1.19333	-2
1.19700	1
1.20067	4
1.20433	3
1.20800	2
1.21167	4
1.21533	5
1.21900	7
1.22267	11
1.22633	14
1.23000	14
1.23367	11
1.23733	8
1.24100	8
1.24467	9
1.24833	6
1.25200	-3
1.25567	-12
1.25933	-18
1.26300	-17
1.26667	-13
1.27033	-3
1.27400	4
1.27767	4
1.28133	0
1.28500	1
1.28867	6
1.29233	11
1.29600	11
1.29967	14
1.30333	24
1.30700	35
1.31067	35
1.31433	26
1.31800	12
1.32167	-4
1.32533	-18
1.32900	-27
1.33267	-27
1.33633	-27
1.34000	-34
1.34367	-39
1.34733	-39
1.35100	-39
1.35467	-36
1.35833	-31
1.36200	-22
1.36567	-12
1.36933	-8
1.37300	-8
1.37667	-9
1.38033	-7
1.38400	-3
1.38767	1
1.39133	-1
1.39500	-8
1.39867	-15
1.40233	-15
1.40600	-12
1.40967	-7
1.41333	-2
1.41700	0
1.42067	3
1.42433	1
1.42800	-2
1.43167	-1
1.43533	6
1.43900	15
1.44267	43
1.44633	180
1.45000	720
1.45367	2358
1.45733	5595
1.46100	9919
1.46467	14301
1.46833	18001
1.47200	20661
1.47567	22075
1.47933	22041
1.48300	20502
1.48667	17740
1.49033	14350
1.49400	10964
1.49767	8014
1.50133	5672
1.50500	3922
1.50867	2670
1.51233	1804
1.51600	1214
1.51967	818
1.52333	558
1.52700	385
1.53067	262
1.53433	173
1.53800	116
1.54167	112
1.54533	199
1.54900	415
1.55267	740
1.55633	1098
1.56000	1407
1.56367	1638
1.56733	1777
1.57100	1802
1.57467	1699
1.57833	1478
1.58200	1187
1.58567	893
1.58933	637
1.59300	432
1.59667	278
1.60033	171
1.60400	102
1.60767	61
1.61133	37
1.61500	22
1.61867	15
1.62233	11
1.62600	5
1.62967	-3
1.63333	-7
1.63700	-7
1.64067	-4
1.64433	4
1.64800	16
1.65167	20
1.65533	11
1.65900	1
1.66267	-2
1.66633	-5
1.67000	-11
1.67367	-19
1.67733	-26
1.68100	-29
1.68467	-30
1.68833	-34
1.69200	-43
1.69567	-46
1.69933	-43
1.70300	-36
1.70667	-28
1.71033	-18
1.71400	-16
1.71767	-20
1.72133	-25
1.72500	-28
1.72867	-27
1.73233	-23
1.73600	-18
1.73967	-12
1.74333	-4
1.74700	4
1.75067	6
1.75433	3
1.75800	1
1.76167	1
1.76533	5
1.76900	15
1.77267	23
1.77633	24
1.78000	22
1.78367	19
1.78733	14
1.79100	9
1.79467	3
1.79833	3
1.80200	4
1.80567	4
1.80933	4
1.81300	5
1.81667	4
1.82033	3
1.82400	3
1.82767	4
1.83133	3
1.83500	0
1.83867	-2
1.84233	0
1.84600	2
1.84967	1
1.85333	1
1.85700	4
1.86067	3
1.86433	-1
1.86800	-6
1.87167	-9
1.87533	-5
1.87900	1
1.88267	3
1.88633	5
1.89000	10
1.89367	16
1.89733	20
1.90100	23
1.90467	27
1.90833	27
1.91200	30
1.91567	34
1.91933	39
1.92300	47
1.92667	52
1.93033	52
1.93400	46
1.93767	35
1.94133	25
1.94500	24
1.94867	29
1.95233	39
1.95600	118
1.95967	674
1.96333	3581
1.96700	15117
1.97067	49941
1.97433	130454
1.97800	274511
1.98167	477368
1.98533	708185
1.98900	925732
1.99267	1093937
1.99633	1189013
2.00000	1200301
2.00367	1130605
2.00733	996652
2.01100	825957
2.01467	647963
2.01833	485574
2.02200	351250
2.02567	247881
2.02933	172369
2.03300	119168
2.03667	82560
2.04033	57724
2.04400	40985
2.04767	29707
2.05133	22068
2.05500	16832
2.05867	13184
2.06233	10599
2.06600	8732
2.06967	7343
2.07333	6288
2.07700	5466
2.08067	4811
2.08433	4276
2.08800	3833
2.09167	3467
2.09533	3161
2.09900	2897
2.10267	2672
2.10633	2480
2.11000	2312
2.11367	2158
2.11733	2017
2.12100	1894
2.12467	1788
2.12833	1694
2.13200	1610
2.13567	1531
2.13933	1457
2.14300	1386
2.14667	1320
2.15033	1266
2.15400	1214
2.15767	1162
2.16133	1112
2.16500	1068
2.16867	1027
2.17233	985
2.17600	947
2.17967	915
2.18333	886
2.18700	859
2.19067	831
2.19433	808
2.19800	786
2.20167	768
2.20533	748
2.20900	726
2.21267	704
2.21633	683
2.22000	661
2.22367	642
2.22733	630
2.23100	616
2.23467	596
2.23833	578
2.24200	564
2.24567	552
2.24933	540
2.25300	526
2.25667	512
2.26033	496
2.26400	484
2.26767	480
2.27133	478
2.27500	474
2.27867	471
2.28233	467
2.28600	460
2.28967	449
2.29333	438
2.29700	427
2.30067	417
2.30433	405
2.30800	396
2.31167	395
2.31533	396
2.31900	391
2.32267	381
2.32633	367
2.33000	354
2.33367	344
2.33733	342
2.34100	344
2.34467	341
2.34833	334
2.35200	328
2.35567	328
2.35933	332
2.36300	336
2.36667	340
2.37033	347
2.37400	354
2.37767	355
2.38133	348
2.38500	334
2.38867	316
2.39233	303
2.39600	294
2.39967	284
2.40333	275
2.40700	272
2.41067	279
2.41433	286
2.41800	286
2.42167	278
2.42533	267
2.42900	258
2.43267	253
2.43633	249
2.44000	250
2.44367	257
2.44733	260
2.45100	255
2.45467	251
2.45833	249
2.46200	248
2.46567	250
2.46933	254
2.47300	258
2.47667	259
2.48033	255
2.48400	251
2.48767	247
2.49133	244
2.49500	242
2.49867	239
2.50233	232
2.50600	226
2.50967	221
2.51333	217
2.51700	214
2.52067	213
2.52433	218
2.52800	219
2.53167	218
2.53533	217
2.53900	218
2.54267	220
2.54633	223
2.55000	224
2.55367	223
2.55733	219
2.56100	214
2.56467	212
2.56833	211
2.57200	207
2.57567	198
2.57933	187
2.58300	181
2.58667	181
2.59033	182
2.59400	185
2.59767	186
2.60133	189
2.60500	192
2.60867	195
2.61233	188
2.61600	178
2.61967	172
2.62333	171
2.62700	175
2.63067	182
2.63433	186
2.63800	184
2.64167	179
2.64533	175
2.64900	173
2.65267	171
2.65633	170
2.66000	169
2.66367	176
2.66733	183
2.67100	183
2.67467	184
2.67833	183
2.68200	177
2.68567	174
2.68933	175
2.69300	176
2.69667	176
2.70033	176
2.70400	173
2.70767	167
2.71133	163
2.71500	159
2.71867	158
2.72233	159
2.72600	156
2.72967	152
2.73333	152
2.73700	154
2.74067	156
2.74433	156
2.74800	157
2.75167	161
2.75533	161
2.75900	157
2.76267	154
2.76633	157
2.77000	160
2.77367	161
2.77733	160
2.78100	156
2.78467	153
2.78833	151
2.79200	148
2.79567	147
2.79933	150
2.80300	161
2.80667	173
2.81033	178
2.81400	171
2.81767	159
2.82133	150
2.82500	144
2.82867	142
2.83233	147
2.83600	152
2.83967	155
2.84333	157
2.84700	155
2.85067	155
2.85433	161
2.85800	171
2.86167	177
2.86533	174
2.86900	159
2.87267	148
2.87633	143
2.88000	141
2.88367	140
2.88733	139
2.89100	132
2.89467	121
2.89833	118
2.90200	119
2.90567	121
2.90933	129
2.91300	131
2.91667	133
2.92033	139
2.92400	143
2.92767	146
2.93133	146
2.93500	145
2.93867	146
2.94233	146
2.94600	148
2.94967	148
2.95333	145
2.95700	147
2.96067	150
2.96433	146
2.96800	136
2.97167	131
2.97533	133
2.97900	139
2.98267	143
2.98633	150
2.99000	157
2.99367	160
2.99733	159
3.00100	157
3.00467	158
3.00833	157
3.01200	151
3.01567	138
3.01933	128
3.02300	129
3.02667	132
3.03033	134
3.03400	138
3.03767	147
3.04133	151
3.04500	147
3.04867	140
3.05233	137
3.05600	137
3.05967	137
3.06333	134
3.06700	128
3.07067	127
3.07433	127
3.07800	126
3.08167	129
3.08533	132
3.08900	133
3.09267	136
3.09633	138
3.10000	133
3.10367	126
3.10733	124
3.11100	129
3.11467	134
3.11833	136
3.12200	132
3.12567	124
3.12933	114
3.13300	108
3.13667	103
3.14033	99
3.14400	100
3.14767	102
3.15133	103
3.15500	110
3.15867	116
3.16233	116
3.16600	115
3.16967	118
3.17333	125
3.17700	135
3.18067	146
3.18433	157
3.18800	158
3.19167	149
3.19533	131
3.19900	113
3.20267	104
3.20633	99
3.21000	93
3.21367	93
3.21733	98
3.22100	103
3.22467	107
3.22833	108
3.23200	105
3.23567	97
3.23933	91
3.24300	96
3.24667	105
3.25033	113
3.25400	116
3.25767	115
3.26133	114
3.26500	116
3.26867	117
3.27233	116
3.27600	114
3.27967	112
3.28333	111
3.28700	110
3.29067	110
3.29433	108
3.29800	102
3.30167	97
3.30533	95
3.30900	95
3.31267	96
3.31633	99
3.32000	99
3.32367	99
3.32733	102
3.33100	105
3.33467	103
3.33833	95
3.34200	86
3.34567	84
3.34933	87
3.35300	91
3.35667	93
3.36033	97
3.36400	99
3.36767	96
3.37133	93
3.37500	96
3.37867	101
3.38233	103
3.38600	105
3.38967	107
3.39333	107
3.39700	106
3.40067	106
3.40433	106
3.40800	110
3.41167	120
3.41533	122
3.41900	113
3.42267	102
3.42633	95
3.43000	92
3.43367	93
3.43733	98
3.44100	99
3.44467	98
3.44833	94
3.45200	92
3.45567	93
3.45933	92
3.46300	87
3.46667	86
3.47033	87
3.47400	83
3.47767	81
3.48133	79
3.48500	77
3.48867	74
3.49233	74
3.49600	77
3.49967	84
3.50333	85
3.50700	81
3.51067	78
3.51433	74
3.51800	72
3.52167	73
3.52533	82
3.52900	94
3.53267	100
3.53633	98
3.54000	92
3.54367	86
3.54733	79
3.55100	74
3.55467	75
3.55833	79
3.56200	86
3.56567	92
3.56933	92
3.57300	89
3.57667	82
3.58033	76
3.58400	71
3.58767	68
3.59133	65
3.59500	62
3.59867	59
3.60233	61
3.60600	65
3.60967	64
3.61333	61
3.61700	55
3.62067	51
3.62433	54
3.62800	63
3.63167	72
3.63533	78
3.63900	86
3.64267	94
3.64633	100
3.65000	107
3.65367	106
3.65733	98
3.66100	86
3.66467	81
3.66833	79
3.67200	72
3.67567	65
3.67933	61
3.68300	59
3.68667	57
3.69033	55
3.69400	56
3.69767	61
3.70133	68
3.70500	73
3.70867	74
3.71233	70
3.71600	65
3.71967	63
3.72333	66
3.72700	68
3.73067	62
3.73433	52
3.73800	46
3.74167	45
3.74533	46
3.74900	48
3.75267	47
3.75633	42
3.76000	41
3.76367	43
3.76733	44
3.77100	50
3.77467	60
3.77833	64
3.78200	62
3.78567	61
3.78933	61
3.79300	63
3.79667	65
3.80033	66
3.80400	66
3.80767	66
3.81133	62
3.81500	56
3.81867	54
3.82233	54
3.82600	52
3.82967	47
3.83333	43
3.83700	46
3.84067	50
3.84433	51
3.84800	49
3.85167	47
3.85533	48
3.85900	54
3.86267	62
3.86633	68
3.87000	68
3.87367	64
3.87733	57
3.88100	50
3.88467	48
3.88833	53
3.89200	55
3.89567	53
3.89933	47
3.90300	47
3.90667	49
3.91033	50
3.91400	50
3.91767	51
3.92133	50
3.92500	44
3.92867	33
3.93233	23
3.93600	16
3.93967	15
3.94333	22
3.94700	29
3.95067	36
3.95433	42
3.95800	43
3.96167	39
3.96533	33
3.96900	28
3.97267	30
3.97633	35
3.98000	39
3.98367	42
3.98733	40
3.99100	33
3.99467	29
3.99833	25

[Chromatogram (Ch2)]
Interval(msec)	220
# of Points	1091
Start Time(min)	0.002
End Time(min)	3.998
R.Time (min)	Intensity
0.00167	-2
0.00533	-3
0.00900	-3
0.01267	-4
0.01633	-4
0.02000	-4
0.02367	-4
0.02733	-4
0.03100	-4
0.03467	-4
0.03833	-4
0.04200	-4
0.04567	-4
0.04933	-4
0.05300	-3
0.05667	-3
0.06033	-3
0.06400	-3
0.06767	-3
0.07133	-3
0.07500	-2
0.07867	-2
0.08233	-1
0.08600	-1
0.08967	0
0.09333	1
0.09700	1
0.10067	2
0.10433	2
0.10800	2
0.11167	2
0.11533	2
0.11900	2
0.12267	1
0.12633	1
0.13000	1
0.13367	0
0.13733	-0
0.14100	-1
0.14467	-1
0.14833	-2
0.15200	-2
0.15567	-2
0.15933	-2
0.16300	-2
0.16667	-3
0.17033	-3
0.17400	-2
0.17767	-2
0.18133	-2
0.18500	-2
0.18867	-2
0.19233	-2
0.19600	-3
0.19967	-3
0.20333	-3
0.20700	-3
0.21067	-4
0.21433	-4
0.21800	-4
0.22167	-4
0.22533	-4
0.22900	-4
0.23267	-4
0.23633	-4
0.24000	-4
0.24367	-4
0.24733	-4
0.25100	-4
0.25467	-4
0.25833	-4
0.26200	-4
0.26567	-3
0.26933	-3
0.27300	-3
0.27667	-3
0.28033	-3
0.28400	-3
0.28767	-3
0.29133	-3
0.29500	-3
0.29867	-3
0.30233	-2
0.30600	-2
0.30967	-1
0.31333	-1
0.31700	-1
0.32067	-1
0.32433	-0
0.32800	-0
0.33167	-1
0.33533	-1
0.33900	-1
0.34267	-0
0.34633	-0
0.35000	0
0.35367	0
0.35733	1
0.36100	1
0.36467	1
0.36833	1
0.37200	1
0.37567	1
0.37933	1
0.38300	1
0.38667	1
0.39033	1
0.39400	1
0.39767	1
0.40133	0
0.40500	0
0.40867	0
0.41233	-0
0.41600	-0
0.41967	-0
0.42333	-0
0.42700	0
0.43067	0
0.43433	0
0.43800	0
0.44167	-0
0.44533	-0
0.44900	-1
0.45267	-1
0.45633	-1
0.46000	-2
0.46367	-2
0.46733	-2
0.47100	-2
0.47467	-3
0.47833	-3
0.48200	-2
0.48567	-2
0.48933	-2
0.49300	-2
0.49667	-1
0.50033	-1
0.50400	-0
0.50767	0
0.51133	0
0.51500	0
0.51867	0
0.52233	0
0.52600	0
0.52967	-0
0.53333	-0
0.53700	-1
0.54067	-1
0.54433	-1
0.54800	-1
0.55167	-1
0.55533	-1
0.55900	-1
0.56267	-1
0.56633	-1
0.57000	-0
0.57367	-0
0.57733	-0
0.58100	-0
0.58467	-0
0.58833	-0
0.59200	-0
0.59567	-0
0.59933	-0
0.60300	-1
0.60667	-1
0.61033	-1
0.61400	-1
0.61767	-2
0.62133	-2
0.62500	-2
0.62867	-3
0.63233	-3
0.63600	-3
0.63967	-4
0.64333	-4
0.64700	-4
0.65067	-4
0.65433	-4
0.65800	-4
0.66167	-3
0.66533	-3
0.66900	-3
0.67267	-3
0.67633	-2
0.68000	-2
0.68367	-2
0.68733	-2
0.69100	-2
0.69467	-2
0.69833	-2
0.70200	-2
0.70567	-2
0.70933	-2
0.71300	-2
0.71667	-2
0.72033	-2
0.72400	-2
0.72767	-2
0.73133	-2
0.73500	-2
0.73867	-2
0.74233	-2
0.74600	-2
0.74967	-3
0.75333	-3
0.75700	-3
0.76067	-3
0.76433	-3
0.76800	-3
0.77167	-3
0.77533	-3
0.77900	-3
0.78267	-3
0.78633	-3
0.79000	-3
0.79367	-3
0.79733	-3
0.80100	-2
0.80467	-2
0.80833	-2
0.81200	-2
0.81567	-3
0.81933	-3
0.82300	-3
0.82667	-3
0.83033	-3
0.83400	-3
0.83767	-4
0.84133	-4
0.84500	-4
0.84867	-4
0.85233	-4
0.85600	-4
0.85967	-3
0.86333	-3
0.86700	-3
0.87067	-2
0.87433	-2
0.87800	-1
0.88167	-1
0.88533	-1
0.88900	-1
0.89267	-0
0.89633	-0
0.90000	-0
0.90367	-0
0.90733	-0
0.91100	-0
0.91467	-0
0.91833	-0
0.92200	-1
0.92567	-1
0.92933	-2
0.93300	-2
0.93667	-2
0.94033	-3
0.94400	-3
0.94767	-4
0.95133	-4
0.95500	-4
0.95867	-4
0.96233	-4
0.96600	-4
0.96967	-4
0.97333	-4
0.97700	-4
0.98067	-3
0.98433	-3
0.98800	-3
0.99167	-2
0.99533	-2
0.99900	-2
1.00267	-2
1.00633	-2
1.01000	-2
1.01367	-2
1.01733	-2
1.02100	-2
1.02467	-2
1.02833	-2
1.03200	-2
1.03567	-2
1.03933	-2
1.04300	-2
1.04667	-2
1.05033	-2
1.05400	-2
1.05767	-2
1.06133	-2
1.06500	-2
1.06867	-2
1.07233	-2
1.07600	-2
1.07967	-3
1.08333	-3
1.08700	-3
1.09067	-3
1.09433	-3
1.09800	-3
1.10167	-3
1.10533	-3
1.10900	-4
1.11267	-4
1.11633	-4
1.12000	-4
1.12367	-4
1.12733	-3
1.13100	-3
1.13467	-2
1.13833	-2
1.14200	-1
1.14567	-1
1.14933	-1
1.15300	-1
1.15667	-1
1.16033	-1
1.16400	-1
1.16767	-1
1.17133	-2
1.17500	-2
1.17867	-2
1.18233	-2
1.18600	-2
1.18967	-2
1.19333	-2
1.19700	-1
1.20067	-1
1.20433	-1
1.20800	-1
1.21167	-0
1.21533	0
1.21900	1
1.22267	1
1.22633	1
1.23000	2
1.23367	2
1.23733	2
1.24100	3
1.24467	2
1.24833	2
1.25200	2
1.25567	1
1.25933	0
1.26300	-0
1.26667	-1
1.27033	-1
1.27400	-1
1.27767	-1
1.28133	-1
1.28500	-1
1.28867	-1
1.29233	-1
1.29600	-0
1.29967	-0
1.30333	-0
1.30700	-1
1.31067	-1
1.31433	-2
1.31800	-2
1.32167	-3
1.32533	-3
1.32900	-3
1.33267	-3
1.33633	-3
1.34000	-3
1.34367	-3
1.34733	-3
1.35100	-3
1.35467	-3
1.35833	-3
1.36200	-3
1.36567	-3
1.36933	-3
1.37300	-3
1.37667	-3
1.38033	-3
1.38400	-3
1.38767	-3
1.39133	-3
1.39500	-3
1.39867	-3
1.40233	-3
1.40600	-3
1.40967	-3
1.41333	-3
1.41700	-3
1.42067	-3
1.42433	-2
1.42800	-2
1.43167	-2
1.43533	-2
1.43900	-2
1.44267	-2
1.44633	-2
1.45000	-2
1.45367	-2
1.45733	-2
1.46100	-1
1.46467	-1
1.46833	-0
1.47200	-0
1.47567	0
1.47933	0
1.48300	0
1.48667	0
1.49033	0
1.49400	0
1.49767	-0
1.50133	-0
1.50500	-1
1.50867	-1
1.51233	-2
1.51600	-2
1.51967	-2
1.52333	-2
1.52700	-2
1.53067	-2
1.53433	-2
1.53800	-2
1.54167	-2
1.54533	-2
1.54900	-2
1.55267	-2
1.55633	-2
1.56000	-2
1.56367	-2
1.56733	-3
1.57100	-3
1.57467	-3
1.57833	-3
1.58200	-3
1.58567	-4
1.58933	-4
1.59300	-5
1.59667	-5
1.60033	-6
1.60400	-7
1.60767	-9
1.61133	-11
1.61500	-13
1.61867	-15
1.62233	-17
1.62600	-20
1.62967	-23
1.63333	-26
1.63700	-30
1.64067	-33
1.64433	-37
1.64800	-41
1.65167	-45
1.65533	-48
1.65900	-52
1.66267	-56
1.66633	-60
1.67000	-64
1.67367	-69
1.67733	-74
1.68100	-79
1.68467	-84
1.68833	-88
1.69200	-92
1.69567	-95
1.69933	-98
1.70300	-101
1.70667	-103
1.71033	-104
1.71400	-105
1.71767	-106
1.72133	-107
1.72500	-108
1.72867	-108
1.73233	-108
1.73600	-108
1.73967	-107
1.74333	-107
1.74700	-106
1.75067	-106
1.75433	-106
1.75800	-107
1.76167	-108
1.76533	-110
1.76900	-111
1.77267	-112
1.77633	-113
1.78000	-114
1.78367	-114
1.78733	-115
1.79100	-116
1.79467	-117
1.79833	-117
1.80200	-118
1.80567	-118
1.80933	-118
1.81300	-117
1.81667	-116
1.82033	-114
1.82400	-113
1.82767	-112
1.83133	-112
1.83500	-112
1.83867	-112
1.84233	-112
1.84600	-113
1.84967	-113
1.85333	-114
1.85700	-114
1.86067	-115
1.86433	-115
1.86800	-116
1.87167	-116
1.87533	-116
1.87900	-116
1.88267	-117
1.88633	-117
1.89000	-118
1.89367	-118
1.89733	-118
1.90100	-119
1.90467	-119
1.90833	-118
1.91200	-118
1.91567	-117
1.91933	-117
1.92300	-116
1.92667	-115
1.93033	-114
1.93400	-113
1.93767	-113
1.94133	-112
1.94500	-112
1.94867	-111
1.95233	-111
1.95600	-110
1.95967	-110
1.96333	-110
1.96700	-110
1.97067	-110
1.97433	-109
1.97800	-109
1.98167	-109
1.98533	-108
1.98900	-108
1.99267	-108
1.99633	-108
2.00000	-108
2.00367	-107
2.00733	-107
2.01100	-107
2.01467	-106
2.01833	-106
2.02200	-106
2.02567	-105
2.02933	-105
2.03300	-105
2.03667	-104
2.04033	-104
2.04400	-104
2.04767	-103
2.05133	-103
2.05500	-102
2.05867	-102
2.06233	-101
2.06600	-101
2.06967	-101
2.07333	-101
2.07700	-101
2.08067	-101
2.08433	-101
2.08800	-101
2.09167	-100
2.09533	-99
2.09900	-98
2.10267	-97
2.10633	-97
2.11000	-96
2.11367	-96
2.11733	-97
2.12100	-97
2.12467	-97
2.12833	-97
2.13200	-96
2.13567	-96
2.13933	-96
2.14300	-95
2.14667	-95
2.15033	-95
2.15400	-94
2.15767	-94
2.16133	-94
2.16500	-93
2.16867	-93
2.17233	-93
2.17600	-92
2.17967	-92
2.18333	-92
2.18700	-91
2.19067	-91
2.19433	-91
2.19800	-91
2.20167	-91
2.20533	-91
2.20900	-90
2.21267	-90
2.21633	-90
2.22000	-90
2.22367	-90
2.22733	-89
2.23100	-88
2.23467	-88
2.23833	-88
2.24200	-87
2.24567	-88
2.24933	-88
2.25300	-88
2.25667	-88
2.26033	-88
2.26400	-88
2.26767	-88
2.27133	-87
2.27500	-87
2.27867	-87
2.28233	-86
2.28600	-86
2.28967	-85
2.29333	-85
2.29700	-85
2.30067	-84
2.30433	-84
2.30800	-83
2.31167	-83
2.31533	-82
2.31900	-81
2.32267	-80
2.32633	-79
2.33000	-78
2.33367	-77
2.33733	-76
2.34100	-76
2.34467	-76
2.34833	-76
2.35200	-75
2.35567	-75
2.35933	-74
2.36300	-74
2.36667	-72
2.37033	-71
2.37400	-68
2.37767	-66
2.38133	-62
2.38500	-59
2.38867	-55
2.39233	-50
2.39600	-46
2.39967	-41
2.40333	-36
2.40700	-31
2.41067	-27
2.41433	-23
2.41800	-21
2.42167	-18
2.42533	-16
2.42900	-14
2.43267	-12
2.43633	-10
2.44000	-9
2.44367	-7
2.44733	-6
2.45100	-6
2.45467	-5
2.45833	-5
2.46200	-4
2.46567	-4
2.46933	-3
2.47300	-2
2.47667	-2
2.48033	-1
2.48400	0
2.48767	1
2.49133	2
2.49500	3
2.49867	4
2.50233	5
2.50600	6
2.50967	7
2.51333	8
2.51700	10
2.52067	11
2.52433	11
2.52800	11
2.53167	11
2.53533	12
2.53900	12
2.54267	12
2.54633	13
2.55000	13
2.55367	14
2.55733	14
2.56100	14
2.56467	14
2.56833	14
2.57200	14
2.57567	14
2.57933	15
2.58300	15
2.58667	15
2.59033	16
2.59400	16
2.59767	16
2.60133	16
2.60500	16
2.60867	17
2.61233	16
2.61600	16
2.61967	16
2.62333	16
2.62700	16
2.63067	16
2.63433	16
2.63800	16
2.64167	16
2.64533	16
2.64900	16
2.65267	16
2.65633	16
2.66000	16
2.66367	17
2.66733	17
2.67100	18
2.67467	19
2.67833	19
2.68200	20
2.68567	21
2.68933	21
2.69300	21
2.69667	22
2.70033	22
2.70400	22
2.70767	22
2.71133	22
2.71500	22
2.71867	22
2.72233	23
2.72600	23
2.72967	23
2.73333	23
2.73700	24
2.74067	24
2.74433	25
2.74800	25
2.75167	24
2.75533	24
2.75900	24
2.76267	23
2.76633	23
2.77000	23
2.77367	23
2.77733	22
2.78100	22
2.78467	23
2.78833	23
2.79200	23
2.79567	24
2.79933	24
2.80300	24
2.80667	25
2.81033	25
2.81400	25
2.81767	25
2.82133	26
2.82500	26
2.82867	26
2.83233	26
2.83600	26
2.83967	26
2.84333	25
2.84700	24
2.85067	21
2.85433	15
2.85800	7
2.86167	-5
2.86533	-20
2.86900	-40
2.87267	-64
2.87633	-93
2.88000	-127
2.88367	-164
2.88733	-206
2.89100	-251
2.89467	-299
2.89833	-350
2.90200	-403
2.90567	-458
2.90933	-513
2.91300	-569
2.91667	-625
2.92033	-681
2.92400	-736
2.92767	-789
2.93133	-841
2.93500	-893
2.93867	-949
2.94233	-1008
2.94600	-1061
2.94967	-1098
2.95333	-1111
2.95700	-1098
2.96067	-1060
2.96433	-1004
2.96800	-934
2.97167	-856
2.97533	-775
2.97900	-694
2.98267	-616
2.98633	-542
2.99000	-474
2.99367	-412
2.99733	-357
3.00100	-307
3.00467	-264
3.00833	-225
3.01200	-192
3.01567	-163
3.01933	-138
3.02300	-116
3.02667	-97
3.03033	-81
3.03400	-68
3.03767	-56
3.04133	-46
3.04500	-37
3.04867	-30
3.05233	-24
3.05600	-18
3.05967	-13
3.06333	-9
3.06700	-6
3.07067	-2
3.07433	0
3.07800	2
3.08167	4
3.08533	6
3.08900	7
3.09267	8
3.09633	9
3.10000	10
3.10367	11
3.10733	12
3.11100	13
3.11467	13
3.11833	14
3.12200	14
3.12567	14
3.12933	15
3.13300	15
3.13667	15
3.14033	15
3.14400	15
3.14767	15
3.15133	15
3.15500	16
3.15867	16
3.16233	17
3.16600	17
3.16967	17
3.17333	17
3.17700	18
3.18067	18
3.18433	18
3.18800	19
3.19167	19
3.19533	20
3.19900	20
3.20267	20
3.20633	21
3.21000	21
3.21367	21
3.21733	21
3.22100	21
3.22467	22
3.22833	22
3.23200	22
3.23567	22
3.23933	22
3.24300	22
3.24667	22
3.25033	22
3.25400	22
3.25767	22
3.26133	22
3.26500	22
3.26867	22
3.27233	23
3.27600	23
3.27967	23
3.28333	23
3.28700	24
3.29067	24
3.29433	24
3.29800	24
3.30167	25
3.30533	25
3.30900	25
3.31267	25
3.31633	25
3.32000	25
3.32367	25
3.32733	25
3.33100	25
3.33467	25
3.33833	25
3.34200	25
3.34567	25
3.34933	25
3.35300	25
3.35667	25
3.36033	25
3.36400	25
3.36767	25
3.37133	25
3.37500	25
3.37867	25
3.38233	25
3.38600	25
3.38967	25
3.39333	26
3.39700	26
3.40067	26
3.40433	26
3.40800	26
3.41167	27
3.41533	27
3.41900	27
3.42267	27
3.42633	27
3.43000	27
3.43367	27
3.43733	27
3.44100	26
3.44467	26
3.44833	26
3.45200	26
3.45567	26
3.45933	25
3.46300	25
3.46667	25
3.47033	25
3.47400	25
3.47767	25
3.48133	25
3.48500	25
3.48867	25
3.49233	25
3.49600	25
3.49967	25
3.50333	25
3.50700	25
3.51067	25
3.51433	25
3.51800	26
3.52167	26
3.52533	26
3.52900	26
3.53267	26
3.53633	25
3.54000	25
3.54367	26
3.54733	26
3.55100	26
3.55467	26
3.55833	26
3.56200	26
3.56567	26
3.56933	26
3.57300	26
3.57667	26
3.58033	25
3.58400	26
3.58767	26
3.59133	26
3.59500	26
3.59867	26
3.60233	26
3.60600	26
3.60967	26
3.61333	26
3.61700	26
3.62067	26
3.62433	26
3.62800	27
3.63167	27
3.63533	27
3.63900	27
3.64267	27
3.64633	27
3.65000	27
3.65367	28
3.65733	28
3.66100	28
3.66467	28
3.66833	28
3.67200	28
3.67567	28
3.67933	28
3.68300	28
3.68667	28
3.69033	28
3.69400	28
3.69767	27
3.70133	27
3.70500	27
3.70867	27
3.71233	27
3.71600	27
3.71967	27
3.72333	27
3.72700	27
3.73067	27
3.73433	27
3.73800	27
3.74167	27
3.74533	27
3.74900	27
3.75267	27
3.75633	27
3.76000	27
3.76367	27
3.76733	27
3.77100	27
3.77467	27
3.77833	26
3.78200	26
3.78567	26
3.78933	26
3.79300	26
3.79667	26
3.80033	26
3.80400	26
3.80767	26
3.81133	26
3.81500	26
3.81867	26
3.82233	26
3.82600	26
3.82967	26
3.83333	26
3.83700	27
3.84067	27
3.84433	27
3.84800	27
3.85167	27
3.85533	27
3.85900	27
3.86267	27
3.86633	27
3.87000	27
3.87367	27
3.87733	27
3.88100	27
3.88467	27
3.88833	27
3.89200	27
3.89567	26
3.89933	26
3.90300	26
3.90667	26
3.91033	26
3.91400	26
3.91767	27
3.92133	27
3.92500	27
3.92867	27
3.93233	27
3.93600	27
3.93967	27
3.94333	26
3.94700	26
3.95067	26
3.95433	26
3.95800	26
3.96167	26
3.96533	26
3.96900	26
3.97267	26
3.97633	26
3.98000	26
3.98367	26
3.98733	25
3.99100	25
3.99467	25
3.99833	25

[Chromatogram (Ch3)]
Interval(msec)	220
# of Points	1091
Start Time(min)	0.002
End Time(min)	3.998
R.Time (min)	Intensity
0.00167	1
0.00533	1
0.00900	1
0.01267	0
0.01633	-1
0.02000	-1
0.02367	-0
0.02733	1
0.03100	3
0.03467	3
0.03833	2
0.04200	2
0.04567	1
0.04933	2
0.05300	3
0.05667	5
0.06033	6
0.06400	3
0.06767	1
0.07133	1
0.07500	2
0.07867	3
0.08233	5
0.08600	7
0.08967	8
0.09333	8
0.09700	5
0.10067	1
0.10433	-1
0.10800	1
0.11167	1
0.11533	0
0.11900	-3
0.12267	-3
0.12633	-1
0.13000	0
0.13367	1
0.13733	3
0.14100	4
0.14467	6
0.14833	9
0.15200	7
0.15567	6
0.15933	6
0.16300	7
0.16667	7
0.17033	6
0.17400	4
0.17767	3
0.18133	3
0.18500	2
0.18867	2
0.19233	3
0.19600	5
0.19967	4
0.20333	4
0.20700	5
0.21067	6
0.21433	9
0.21800	10
0.22167	8
0.22533	7
0.22900	5
0.23267	4
0.23633	1
0.24000	1
0.24367	1
0.24733	1
0.25100	1
0.25467	1
0.25833	2
0.26200	4
0.26567	4
0.26933	4
0.27300	3
0.27667	2
0.28033	2
0.28400	3
0.28767	3
0.29133	5
0.29500	9
0.29867	13
0.30233	14
0.30600	15
0.30967	16
0.31333	15
0.31700	12
0.32067	12
0.32433	12
0.32800	11
0.33167	10
0.33533	8
0.33900	8
0.34267	8
0.34633	7
0.35000	9
0.35367	11
0.35733	10
0.36100	7
0.36467	5
0.36833	5
0.37200	5
0.37567	5
0.37933	7
0.38300	7
0.38667	7
0.39033	7
0.39400	9
0.39767	11
0.40133	12
0.40500	10
0.40867	9
0.41233	9
0.41600	10
0.41967	9
0.42333	7
0.42700	6
0.43067	6
0.43433	7
0.43800	8
0.44167	11
0.44533	12
0.44900	13
0.45267	15
0.45633	14
0.46000	12
0.46367	10
0.46733	8
0.47100	5
0.47467	5
0.47833	6
0.48200	7
0.48567	9
0.48933	9
0.49300	8
0.49667	8
0.50033	7
0.50400	6
0.50767	6
0.51133	6
0.51500	7
0.51867	7
0.52233	8
0.52600	7
0.52967	4
0.53333	3
0.53700	3
0.54067	3
0.54433	4
0.54800	3
0.55167	5
0.55533	7
0.55900	11
0.56267	12
0.56633	11
0.57000	8
0.57367	9
0.57733	10
0.58100	9
0.58467	7
0.58833	5
0.59200	5
0.59567	6
0.59933	7
0.60300	6
0.60667	7
0.61033	6
0.61400	6
0.61767	7
0.62133	7
0.62500	7
0.62867	6
0.63233	9
0.63600	11
0.63967	9
0.64333	8
0.64700	8
0.65067	9
0.65433	9
0.65800	9
0.66167	8
0.66533	8
0.66900	9
0.67267	12
0.67633	14
0.68000	13
0.68367	12
0.68733	11
0.69100	11
0.69467	12
0.69833	11
0.70200	9
0.70567	8
0.70933	9
0.71300	9
0.71667	9
0.72033	9
0.72400	9
0.72767	8
0.73133	8
0.73500	11
0.73867	13
0.74233	14
0.74600	13
0.74967	13
0.75333	12
0.75700	11
0.76067	11
0.76433	13
0.76800	14
0.77167	12
0.77533	12
0.77900	12
0.78267	12
0.78633	10
0.79000	9
0.79367	11
0.79733	12
0.80100	14
0.80467	15
0.80833	15
0.81200	17
0.81567	17
0.81933	16
0.82300	15
0.82667	15
0.83033	13
0.83400	13
0.83767	11
0.84133	10
0.84500	11
0.84867	13
0.85233	13
0.85600	14
0.85967	13
0.86333	13
0.86700	14
0.87067	16
0.87433	16
0.87800	15
0.88167	14
0.88533	16
0.88900	17
0.89267	16
0.89633	14
0.90000	13
0.90367	12
0.90733	11
0.91100	12
0.91467	15
0.91833	17
0.92200	17
0.92567	17
0.92933	18
0.93300	19
0.93667	22
0.94033	24
0.94400	23
0.94767	22
0.95133	20
0.95500	20
0.95867	20
0.96233	20
0.96600	21
0.96967	21
0.97333	21
0.97700	22
0.98067	22
0.98433	21
0.98800	22
0.99167	22
0.99533	20
0.99900	20
1.00267	20
1.00633	20
1.01000	21
1.01367	21
1.01733	21
1.02100	21
1.02467	21
1.02833	17
1.03200	14
1.03567	12
1.03933	12
1.04300	12
1.04667	14
1.05033	18
1.05400	21
1.05767	23
1.06133	20
1.06500	19
1.06867	18
1.07233	16
1.07600	16
1.07967	17
1.08333	19
1.08700	21
1.09067	19
1.09433	18
1.09800	18
1.10167	17
1.10533	16
1.10900	16
1.11267	18
1.11633	19
1.12000	18
1.12367	16
1.12733	16
1.13100	17
1.13467	18
1.13833	19
1.14200	20
1.14567	21
1.14933	22
1.15300	24
1.15667	24
1.16033	25
1.16400	26
1.16767	28
1.17133	28
1.17500	29
1.17867	27
1.18233	24
1.18600	21
1.18967	20
1.19333	22
1.19700	24
1.20067	24
1.20433	24
1.20800	22
1.21167	20
1.21533	19
1.21900	17
1.22267	17
1.22633	18
1.23000	19
1.23367	20
1.23733	20
1.24100	20
1.24467	21
1.24833	20
1.25200	19
1.25567	19
1.25933	18
1.26300	18
1.26667	19
1.27033	19
1.27400	18
1.27767	16
1.28133	16
1.28500	16
1.28867	18
1.29233	18
1.29600	20
1.29967	20
1.30333	21
1.30700	21
1.31067	22
1.31433	22
1.31800	22
1.32167	22
1.32533	21
1.32900	20
1.33267	21
1.33633	23
1.34000	24
1.34367	24
1.34733	24
1.35100	23
1.35467	21
1.35833	20
1.36200	19
1.36567	21
1.36933	23
1.37300	24
1.37667	24
1.38033	23
1.38400	23
1.38767	21
1.39133	18
1.39500	16
1.39867	15
1.40233	16
1.40600	18
1.40967	20
1.41333	21
1.41700	21
1.42067	20
1.42433	20
1.42800	21
1.43167	21
1.43533	20
1.43900	20
1.44267	19
1.44633	18
1.45000	20
1.45367	21
1.45733	19
1.46100	18
1.46467	15
1.46833	13
1.47200	14
1.47567	14
1.47933	17
1.48300	18
1.48667	17
1.49033	18
1.49400	19
1.49767	21
1.50133	20
1.50500	18
1.50867	17
1.51233	19
1.51600	20
1.51967	19
1.52333	19
1.52700	18
1.53067	19
1.53433	20
1.53800	22
1.54167	23
1.54533	24
1.54900	25
1.55267	27
1.55633	28
1.56000	30
1.56367	32
1.56733	32
1.57100	29
1.57467	27
1.57833	27
1.58200	29
1.58567	29
1.58933	29
1.59300	30
1.59667	32
1.60033	33
1.60400	35
1.60767	35
1.61133	36
1.61500	38
1.61867	38
1.62233	36
1.62600	35
1.62967	37
1.63333	38
1.63700	41
1.64067	42
1.64433	42
1.64800	42
1.65167	41
1.65533	38
1.65900	39
1.66267	40
1.66633	40
1.67000	39
1.67367	40
1.67733	44
1.68100	46
1.68467	47
1.68833	48
1.69200	48
1.69567	47
1.69933	45
1.70300	44
1.70667	42
1.71033	41
1.71400	41
1.71767	41
1.72133	42
1.72500	43
1.72867	45
1.73233	46
1.73600	46
1.73967	47
1.74333	48
1.74700	51
1.75067	52
1.75433	50
1.75800	49
1.76167	49
1.76533	52
1.76900	54
1.77267	52
1.77633	50
1.78000	51
1.78367	51
1.78733	52
1.79100	52
1.79467	54
1.79833	55
1.80200	54
1.80567	52
1.80933	51
1.81300	49
1.81667	49
1.82033	50
1.82400	50
1.82767	49
1.83133	51
1.83500	53
1.83867	54
1.84233	56
1.84600	54
1.84967	54
1.85333	56
1.85700	56
1.86067	56
1.86433	57
1.86800	58
1.87167	59
1.87533	59
1.87900	60
1.88267	60
1.88633	58
1.89000	57
1.89367	59
1.89733	61
1.90100	62
1.90467	62
1.90833	62
1.91200	61
1.91567	63
1.91933	64
1.92300	65
1.92667	66
1.93033	66
1.93400	67
1.93767	69
1.94133	73
1.94500	76
1.94867	75
1.95233	73
1.95600	72
1.95967	73
1.96333	75
1.96700	76
1.97067	77
1.97433	78
1.97800	79
1.98167	79
1.98533	80
1.98900	81
1.99267	81
1.99633	80
2.00000	81
2.00367	82
2.00733	84
2.01100	85
2.01467	85
2.01833	86
2.02200	89
2.02567	91
2.02933	94
2.03300	96
2.03667	99
2.04033	101
2.04400	100
2.04767	100
2.05133	101
2.05500	100
2.05867	100
2.06233	99
2.06600	98
2.06967	97
2.07333	97
2.07700	98
2.08067	100
2.08433	103
2.08800	105
2.09167	108
2.09533	112
2.09900	114
2.10267	115
2.10633	116
2.11000	118
2.11367	120
2.11733	120
2.12100	121
2.12467	123
2.12833	126
2.13200	129
2.13567	131
2.13933	129
2.14300	131
2.14667	134
2.15033	134
2.15400	134
2.15767	135
2.16133	137
2.16500	139
2.16867	141
2.17233	143
2.17600	143
2.17967	145
2.18333	146
2.18700	147
2.19067	150
2.19433	152
2.19800	155
2.20167	156
2.20533	159
2.20900	159
2.21267	159
2.21633	160
2.22000	160
2.22367	161
2.22733	162
2.23100	163
2.23467	163
2.23833	163
2.24200	164
2.24567	166
2.24933	170
2.25300	173
2.25667	176
2.26033	178
2.26400	179
2.26767	178
2.27133	180
2.27500	182
2.27867	182
2.28233	181
2.28600	180
2.28967	181
2.29333	184
2.29700	188
2.30067	191
2.30433	194
2.30800	197
2.31167	199
2.31533	200
2.31900	201
2.32267	202
2.32633	203
2.33000	204
2.33367	205
2.33733	204
2.34100	206
2.34467	210
2.34833	212
2.35200	215
2.35567	218
2.35933	219
2.36300	221
2.36667	222
2.37033	224
2.37400	225
2.37767	225
2.38133	224
2.38500	224
2.38867	223
2.39233	222
2.39600	224
2.39967	227
2.40333	229
2.40700	231
2.41067	236
2.41433	241
2.41800	243
2.42167	244
2.42533	243
2.42900	243
2.43267	244
2.43633	246
2.44000	251
2.44367	308
2.44733	455
2.45100	615
2.45467	746
2.45833	820
2.46200	827
2.46567	795
2.46933	756
2.47300	726
2.47667	708
2.48033	694
2.48400	669
2.48767	630
2.49133	585
2.49500	542
2.49867	506
2.50233	479
2.50600	461
2.50967	453
2.51333	459
2.51700	477
2.52067	501
2.52433	522
2.52800	532
2.53167	528
2.53533	510
2.53900	483
2.54267	452
2.54633	421
2.55000	390
2.55367	362
2.55733	342
2.56100	327
2.56467	317
2.56833	310
2.57200	305
2.57567	303
2.57933	302
2.58300	301
2.58667	301
2.59033	304
2.59400	309
2.59767	314
2.60133	319
2.60500	320
2.60867	319
2.61233	315
2.61600	310
2.61967	304
2.62333	296
2.62700	286
2.63067	273
2.63433	261
2.63800	249
2.64167	235
2.64533	219
2.64900	204
2.65267	190
2.65633	176
2.66000	164
2.66367	152
2.66733	141
2.67100	132
2.67467	125
2.67833	123
2.68200	119
2.68567	114
2.68933	111
2.69300	110
2.69667	111
2.70033	113
2.70400	114
2.70767	117
2.71133	118
2.71500	119
2.71867	122
2.72233	127
2.72600	132
2.72967	137
2.73333	140
2.73700	145
2.74067	149
2.74433	150
2.74800	151
2.75167	153
2.75533	154
2.75900	156
2.76267	160
2.76633	166
2.77000	172
2.77367	177
2.77733	179
2.78100	180
2.78467	180
2.78833	182
2.79200	184
2.79567	188
2.79933	193
2.80300	197
2.80667	202
2.81033	207
2.81400	214
2.81767	220
2.82133	230
2.82500	250
2.82867	282
2.83233	345
2.83600	455
2.83967	633
2.84333	900
2.84700	1270
2.85067	1738
2.85433	2283
2.85800	2874
2.86167	3465
2.86533	4008
2.86900	4461
2.87267	4787
2.87633	4968
2.88000	5007
2.88367	4918
2.88733	4725
2.89100	4456
2.89467	4139
2.89833	3796
2.90200	3447
2.90567	3104
2.90933	2779
2.91300	2476
2.91667	2198
2.92033	1949
2.92400	1730
2.92767	1533
2.93133	1358
2.93500	1206
2.93867	1069
2.94233	948
2.94600	841
2.94967	752
2.95333	673
2.95700	605
2.96067	548
2.96433	497
2.96800	453
2.97167	416
2.97533	383
2.97900	357
2.98267	333
2.98633	312
2.99000	294
2.99367	280
2.99733	267
3.00100	255
3.00467	243
3.00833	234
3.01200	227
3.01567	221
3.01933	216
3.02300	212
3.02667	210
3.03033	207
3.03400	204
3.03767	200
3.04133	198
3.04500	194
3.04867	191
3.05233	188
3.05600	185
3.05967	184
3.06333	183
3.06700	182
3.07067	181
3.07433	181
3.07800	180
3.08167	181
3.08533	182
3.08900	183
3.09267	184
3.09633	184
3.10000	182
3.10367	180
3.10733	180
3.11100	181
3.11467	183
3.11833	186
3.12200	187
3.12567	187
3.12933	186
3.13300	186
3.13667	186
3.14033	186
3.14400	188
3.14767	186
3.15133	184
3.15500	184
3.15867	184
3.16233	185
3.16600	185
3.16967	185
3.17333	188
3.17700	189
3.18067	192
3.18433	194
3.18800	195
3.19167	196
3.19533	198
3.19900	201
3.20267	203
3.20633	205
3.21000	208
3.21367	210
3.21733	211
3.22100	211
3.22467	212
3.22833	213
3.23200	214
3.23567	215
3.23933	217
3.24300	220
3.24667	222
3.25033	224
3.25400	223
3.25767	226
3.26133	230
3.26500	234
3.26867	236
3.27233	239
3.27600	240
3.27967	241
3.28333	242
3.28700	243
3.29067	244
3.29433	246
3.29800	246
3.30167	248
3.30533	253
3.30900	256
3.31267	255
3.31633	253
3.32000	254
3.32367	255
3.32733	258
3.33100	259
3.33467	261
3.33833	262
3.34200	265
3.34567	267
3.34933	270
3.35300	270
3.35667	273
3.36033	276
3.36400	278
3.36767	280
3.37133	281
3.37500	283
3.37867	285
3.38233	285
3.38600	283
3.38967	282
3.39333	280
3.39700	280
3.40067	283
3.40433	289
3.40800	293
3.41167	296
3.41533	297
3.41900	299
3.42267	301
3.42633	300
3.43000	301
3.43367	301
3.43733	304
3.44100	306
3.44467	305
3.44833	306
3.45200	307
3.45567	306
3.45933	304
3.46300	302
3.46667	302
3.47033	303
3.47400	302
3.47767	302
3.48133	302
3.48500	304
3.48867	307
3.49233	309
3.49600	309
3.49967	310
3.50333	310
3.50700	308
3.51067	308
3.51433	309
3.51800	310
3.52167	310
3.52533	310
3.52900	310
3.53267	312
3.53633	312
3.54000	311
3.54367	308
3.54733	307
3.55100	308
3.55467	310
3.55833	311
3.56200	311
3.56567	310
3.56933	308
3.57300	306
3.57667	305
3.58033	305
3.58400	304
3.58767	302
3.59133	303
3.59500	302
3.59867	301
3.60233	299
3.60600	299
3.60967	300
3.61333	301
3.61700	303
3.62067	304
3.62433	301
3.62800	299
3.63167	299
3.63533	300
3.63900	299
3.64267	296
3.64633	290
3.65000	279
3.65367	269
3.65733	264
3.66100	269
3.66467	283
3.66833	298
3.67200	319
3.67567	344
3.67933	367
3.68300	392
3.68667	415
3.69033	436
3.69400	457
3.69767	478
3.70133	496
3.70500	510
3.70867	521
3.71233	534
3.71600	546
3.71967	557
3.72333	566
3.72700	576
3.73067	583
3.73433	591
3.73800	599
3.74167	606
3.74533	611
3.74900	614
3.75267	618
3.75633	621
3.76000	623
3.76367	626
3.76733	628
3.77100	631
3.77467	633
3.77833	637
3.78200	639
3.78567	643
3.78933	647
3.79300	648
3.79667	647
3.80033	646
3.80400	644
3.80767	644
3.81133	644
3.81500	644
3.81867	644
3.82233	643
3.82600	644
3.82967	644
3.83333	644
3.83700	645
3.84067	648
3.84433	649
3.84800	647
3.85167	648
3.85533	649
3.85900	648
3.86267	646
3.86633	645
3.87000	646
3.87367	645
3.87733	642
3.88100	643
3.88467	643
3.88833	643
3.89200	644
3.89567	643
3.89933	642
3.90300	640
3.90667	639
3.91033	638
3.91400	638
3.91767	638
3.92133	636
3.92500	635
3.92867	636
3.93233	638
3.93600	639
3.93967	639
3.94333	638
3.94700	634
3.95067	631
3.95433	630
3.95800	631
3.96167	631
3.96533	632
3.96900	631
3.97267	630
3.97633	626
3.98000	625
3.98367	622
3.98733	621
3.99100	623
3.99467	624
3.99833	620

[Status Trace (Column Oven Temperature)]
Interval(msec)	1000
# of Points	240
Start Time(min)	0.003
End Time(min)	3.986
Intensity Units	
Intensity Multiplier	1
R.Time (min)	Intensity
0.00263	35.02
0.01930	35.02
0.03597	35.02
0.05263	35.03
0.06930	35.02
0.08597	35.01
0.10263	35.00
0.11930	34.99
0.13597	35.01
0.15263	35.02
0.16930	35.02
0.18597	35.02
0.20263	35.03
0.21930	35.04
0.23597	35.04
0.25263	35.04
0.26930	35.05
0.28597	35.05
0.30263	35.05
0.31930	35.05
0.33597	35.03
0.35263	35.02
0.36930	35.01
0.38597	35.00
0.40263	34.99
0.41930	34.99
0.43597	34.98
0.45263	34.98
0.46930	34.98
0.48597	34.98
0.50263	34.98
0.51930	34.98
0.53597	34.98
0.55263	34.97
0.56930	34.96
0.58597	34.96
0.60263	34.95
0.61930	34.96
0.63597	34.97
0.65263	34.98
0.66930	34.98
0.68597	34.98
0.70263	34.98
0.71930	34.98
0.73597	34.99
0.75263	35.00
0.76930	35.00
0.78597	35.00
0.80263	35.00
0.81930	35.00
0.83597	35.01
0.85263	35.01
0.86930	35.00
0.88597	35.00
0.90263	34.99
0.91930	35.00
0.93597	35.00
0.95263	35.03
0.96930	35.02
0.98597	35.03
1.00263	35.01
1.01930	35.02
1.03597	35.01
1.05263	35.02
1.06930	35.02
1.08597	35.02
1.10263	35.03
1.11930	35.03
1.13597	35.03
1.15263	35.03
1.16930	35.02
1.18597	35.02
1.20263	35.00
1.21930	35.00
1.23597	34.98
1.25263	34.98
1.26930	34.99
1.28597	34.98
1.30263	34.97
1.31930	34.99
1.33597	34.99
1.35263	34.99
1.36930	34.98
1.38597	34.99
1.40263	35.00
1.41930	35.00
1.43597	34.99
1.45263	34.98
1.46930	34.98
1.48597	34.97
1.50263	34.97
1.51930	34.97
1.53597	34.96
1.55263	34.97
1.56930	34.97
1.58597	34.98
1.60263	35.03
1.61930	35.14
1.63597	35.32
1.65263	35.54
1.66930	35.86
1.68597	36.22
1.70263	36.58
1.71930	36.92
1.73597	37.24
1.75263	37.55
1.76930	37.90
1.78597	38.24
1.80263	38.58
1.81930	38.88
1.83597	39.21
1.85263	39.55
1.86930	39.89
1.88597	40.23
1.90263	40.57
1.91930	40.91
1.93597	41.23
1.95263	41.55
1.96930	41.88
1.98597	42.21
2.00263	42.53
2.01930	42.86
2.03597	43.18
2.05263	43.50
2.06930	43.85
2.08597	44.16
2.10263	44.46
2.11930	44.81
2.13597	45.13
2.15263	45.46
2.16930	45.79
2.18597	46.11
2.20263	46.42
2.21930	46.75
2.23597	47.07
2.25263	47.41
2.26930	47.75
2.28597	48.08
2.30263	48.42
2.31930	48.74
2.33597	49.04
2.35263	49.37
2.36930	49.62
2.38597	49.71
2.40263	49.70
2.41930	49.73
2.43597	49.72
2.45263	49.72
2.46930	49.74
2.48597	49.74
2.50263	49.76
2.51930	49.77
2.53597	49.79
2.55263	49.79
2.56930	49.82
2.58597	49.81
2.60263	49.81
2.61930	49.83
2.63597	49.83
2.65263	49.86
2.66930	49.85
2.68597	49.85
2.70263	49.86
2.71930	49.85
2.73597	49.84
2.75263	49.87
2.76930	49.90
2.78597	49.90
2.80263	49.90
2.81930	49.90
2.83597	49.88
2.85263	49.87
2.86930	49.90
2.88597	49.91
2.90263	49.93
2.91930	49.94
2.93597	49.95
2.95263	49.96
2.96930	49.98
2.98597	49.99
3.00263	50.00
3.01930	50.00
3.03597	50.01
3.05263	50.02
3.06930	50.02
3.08597	50.02
3.10263	50.03
3.11930	50.04
3.13597	50.05
3.15263	50.06
3.16930	50.07
3.18597	50.07
3.20263	50.07
3.21930	50.09
3.23597	50.09
3.25263	50.10
3.26930	50.10
3.28597	50.09
3.30263	50.08
3.31930	50.08
3.33597	50.08
3.35263	50.08
3.36930	50.09
3.38597	50.08
3.40263	50.08
3.41930	50.07
3.43597	50.07
3.45263	50.07
3.46930	50.08
3.48597	50.09
3.50263	50.09
3.51930	50.09
3.53597	50.09
3.55263	50.09
3.56930	50.10
3.58597	50.10
3.60263	50.10
3.61930	50.09
3.63597	50.09
3.65263	50.09
3.66930	50.08
3.68597	50.08
3.70263	50.08
3.71930	50.08
3.73597	50.07
3.75263	50.06
3.76930	50.06
3.78597	50.06
3.80263	50.06
3.81930	50.07
3.83597	50.07
3.85263	50.06
3.86930	50.06
3.88597	50.06
3.90263	50.06
3.91930	50.06
3.93597	50.06
3.95263	50.06
3.96930	50.06
3.98597	50.07

[Status Trace (Injection Unit Temperature)]
Interval(msec)	1000
# of Points	240
Start Time(min)	0.003
End Time(min)	3.986
Intensity Units	
Intensity Multiplier	1
R.Time (min)	Intensity
0.00263	99.98
0.01930	99.98
0.03597	99.98
0.05263	99.98
0.06930	99.98
0.08597	99.97
0.10263	99.97
0.11930	99.97
0.13597	99.98
0.15263	99.98
0.16930	99.97
0.18597	99.98
0.20263	99.97
0.21930	99.97
0.23597	99.97
0.25263	99.98
0.26930	99.98
0.28597	99.98
0.30263	99.98
0.31930	99.98
0.33597	99.98
0.35263	99.98
0.36930	99.97
0.38597	99.97
0.40263	99.98
0.41930	99.98
0.43597	99.98
0.45263	99.98
0.46930	99.97
0.48597	99.97
0.50263	99.98
0.51930	99.97
0.53597	99.98
0.55263	99.98
0.56930	99.98
0.58597	99.98
0.60263	99.98
0.61930	99.98
0.63597	99.98
0.65263	99.98
0.66930	99.98
0.68597	99.98
0.70263	99.98
0.71930	99.98
0.73597	99.98
0.75263	99.97
0.76930	99.98
0.78597	99.98
0.80263	99.98
0.81930	99.98
0.83597	99.98
0.85263	99.98
0.86930	99.99
0.88597	99.98
0.90263	99.98
0.91930	99.98
0.93597	99.98
0.95263	99.98
0.96930	99.98
0.98597	99.98
1.00263	99.98
1.01930	99.97
1.03597	99.98
1.05263	99.98
1.06930	99.98
1.08597	99.98
1.10263	99.98
1.11930	99.98
1.13597	99.98
1.15263	99.98
1.16930	99.98
1.18597	99.98
1.20263	99.98
1.21930	99.98
1.23597	99.98
1.25263	99.98
1.26930	99.98
1.28597	99.98
1.30263	99.98
1.31930	99.98
1.33597	99.98
1.35263	99.98
1.36930	99.98
1.38597	99.98
1.40263	99.98
1.41930	99.98
1.43597	99.98
1.45263	99.98
1.46930	99.98
1.48597	99.98
1.50263	99.98
1.51930	99.98
1.53597	99.98
1.55263	99.98
1.56930	99.98
1.58597	99.98
1.60263	99.98
1.61930	99.98
1.63597	99.98
1.65263	99.98
1.66930	99.98
1.68597	99.98
1.70263	99.98
1.71930	99.98
1.73597	99.98
1.75263	99.98
1.76930	99.98
1.78597	99.98
1.80263	99.98
1.81930	99.98
1.83597	99.98
1.85263	99.98
1.86930	99.98
1.88597	99.97
1.90263	99.98
1.91930	99.98
1.93597	99.97
1.95263	99.97
1.96930	99.97
1.98597	99.97
2.00263	99.98
2.01930	99.97
2.03597	99.97
2.05263	99.97
2.06930	99.97
2.08597	99.97
2.10263	99.97
2.11930	99.96
2.13597	99.97
2.15263	99.97
2.16930	99.97
2.18597	99.97
2.20263	99.96
2.21930	99.96
2.23597	99.97
2.25263	99.97
2.26930	99.97
2.28597	99.96
2.30263	99.97
2.31930	99.96
2.33597	99.96
2.35263	99.96
2.36930	99.96
2.38597	99.96
2.40263	99.96
2.41930	99.96
2.43597	99.96
2.45263	99.96
2.46930	99.96
2.48597	99.96
2.50263	99.97
2.51930	99.97
2.53597	99.97
2.55263	99.97
2.56930	99.97
2.58597	99.97
2.60263	99.97
2.61930	99.97
2.63597	99.98
2.65263	99.98
2.66930	99.97
2.68597	99.98
2.70263	99.98
2.71930	99.98
2.73597	99.98
2.75263	99.98
2.76930	99.99
2.78597	99.98
2.80263	99.99
2.81930	99.99
2.83597	99.99
2.85263	99.99
2.86930	100.00
2.88597	100.00
2.90263	100.00
2.91930	100.00
2.93597	100.00
2.95263	100.00
2.96930	100.01
2.98597	100.01
3.00263	100.01
3.01930	100.01
3.03597	100.01
3.05263	100.02
3.06930	100.02
3.08597	100.02
3.10263	100.02
3.11930	100.02
3.13597	100.02
3.15263	100.02
3.16930	100.03
3.18597	100.03
3.20263	100.03
3.21930	100.02
3.23597	100.03
3.25263	100.03
3.26930	100.03
3.28597	100.03
3.30263	100.04
3.31930	100.03
3.33597	100.04
3.35263	100.04
3.36930	100.04
3.38597	100.04
3.40263	100.04
3.41930	100.04
3.43597	100.04
3.45263	100.04
3.46930	100.04
3.48597	100.04
3.50263	100.05
3.51930	100.05
3.53597	100.05
3.55263	100.05
3.56930	100.05
3.58597	100.05
3.60263	100.05
3.61930	100.05
3.63597	100.05
3.65263	100.05
3.66930	100.05
3.68597	100.05
3.70263	100.05
3.71930	100.05
3.73597	100.05
3.75263	100.05
3.76930	100.05
3.78597	100.05
3.80263	100.05
3.81930	100.05
3.83597	100.05
3.85263	100.05
3.86930	100.05
3.88597	100.05
3.90263	100.04
3.91930	100.04
3.93597	100.05
3.95263	100.05
3.96930	100.05
3.98597	100.04

[Status Trace (Carrier Gas Pressure)]
Interval(msec)	1000
# of Points	240
Start Time(min)	0.003
End Time(min)	3.986
Intensity Units	
Intensity Multiplier	1
R.Time (min)	Intensity
0.00263	58.00
0.01930	56.23
0.03597	56.41
0.05263	58.57
0.06930	59.85
0.08597	58.26
0.10263	57.97
0.11930	58.01
0.13597	58.01
0.15263	58.01
0.16930	58.00
0.18597	58.00
0.20263	58.00
0.21930	58.00
0.23597	58.00
0.25263	58.00
0.26930	58.00
0.28597	58.00
0.30263	58.00
0.31930	58.00
0.33597	58.00
0.35263	58.00
0.36930	58.00
0.38597	58.00
0.40263	58.00
0.41930	58.00
0.43597	58.00
0.45263	58.00
0.46930	58.00
0.48597	58.00
0.50263	58.00
0.51930	58.00
0.53597	58.00
0.55263	58.00
0.56930	58.00
0.58597	58.00
0.60263	58.00
0.61930	58.00
0.63597	58.00
0.65263	58.00
0.66930	58.00
0.68597	58.00
0.70263	58.00
0.71930	58.00
0.73597	58.00
0.75263	58.00
0.76930	58.00
0.78597	58.00
0.80263	58.00
0.81930	58.00
0.83597	58.00
0.85263	58.00
0.86930	58.00
0.88597	58.00
0.90263	58.00
0.91930	58.00
0.93597	58.00
0.95263	58.00
0.96930	58.00
0.98597	58.00
1.00263	58.00
1.01930	58.00
1.03597	58.00
1.05263	58.00
1.06930	58.00
1.08597	58.00
1.10263	58.00
1.11930	58.00
1.13597	58.00
1.15263	58.00
1.16930	58.00
1.18597	58.00
1.20263	58.00
1.21930	58.00
1.23597	58.00
1.25263	58.00
1.26930	58.00
1.28597	58.00
1.30263	58.00
1.31930	58.00
1.33597	58.00
1.35263	58.00
1.36930	58.00
1.38597	58.00
1.40263	58.00
1.41930	58.00
1.43597	58.00
1.45263	58.00
1.46930	58.00
1.48597	58.00
1.50263	58.00
1.51930	58.00
1.53597	58.00
1.55263	58.00
1.56930	58.00
1.58597	58.00
1.60263	58.00
1.61930	58.00
1.63597	58.00
1.65263	58.00
1.66930	58.01
1.68597	58.01
1.70263	58.00
1.71930	58.00
1.73597	58.00
1.75263	58.00
1.76930	58.00
1.78597	58.00
1.80263	58.00
1.81930	58.00
1.83597	58.00
1.85263	58.00
1.86930	58.00
1.88597	58.00
1.90263	58.00
1.91930	58.00
1.93597	58.00
1.95263	58.00
1.96930	58.00
1.98597	58.00
2.00263	58.00
2.01930	58.00
2.03597	58.00
2.05263	58.00
2.06930	58.00
2.08597	58.00
2.10263	58.00
2.11930	58.00
2.13597	58.00
2.15263	58.00
2.16930	58.00
2.18597	58.00
2.20263	58.00
2.21930	58.00
2.23597	58.00
2.25263	58.00
2.26930	58.00
2.28597	58.00
2.30263	58.00
2.31930	58.00
2.33597	58.00
2.35263	58.00
2.36930	58.00
2.38597	57.99
2.40263	57.99
2.41930	58.00
2.43597	58.00
2.45263	58.00
2.46930	58.00
2.48597	58.00
2.50263	57.98
2.51930	58.02
2.53597	57.99
2.55263	58.00
2.56930	58.00
2.58597	58.00
2.60263	58.00
2.61930	58.00
2.63597	58.00
2.65263	58.00
2.66930	58.00
2.68597	58.00
2.70263	58.00
2.71930	58.00
2.73597	58.00
2.75263	58.00
2.76930	58.00
2.78597	58.00
2.80263	58.00
2.81930	58.00
2.83597	58.00
2.85263	58.00
2.86930	58.00
2.88597	58.00
2.90263	58.00
2.91930	58.00
2.93597	58.00
2.95263	58.00
2.96930	58.00
2.98597	58.00
3.00263	58.00
3.01930	58.00
3.03597	58.00
3.05263	58.00
3.06930	58.00
3.08597	58.00
3.10263	58.00
3.11930	58.00
3.13597	58.00
3.15263	58.00
3.16930	58.00
3.18597	58.00
3.20263	58.00
3.21930	58.00
3.23597	58.00
3.25263	58.00
3.26930	58.00
3.28597	58.00
3.30263	58.00
3.31930	58.00
3.33597	58.00
3.35263	58.00
3.36930	58.00
3.38597	58.00
3.40263	58.00
3.41930	58.00
3.43597	58.00
3.45263	58.00
3.46930	58.00
3.48597	58.00
3.50263	58.00
3.51930	58.00
3.53597	58.00
3.55263	58.00
3.56930	58.00
3.58597	58.00
3.60263	58.00
3.61930	58.00
3.63597	58.00
3.65263	58.00
3.66930	58.00
3.68597	58.00
3.70263	58.00
3.71930	58.00
3.73597	58.00
3.75263	58.00
3.76930	58.00
3.78597	58.00
3.80263	58.00
3.81930	58.00
3.83597	58.00
3.85263	58.00
3.86930	58.00
3.88597	58.00
3.90263	58.00
3.91930	58.00
3.93597	58.00
3.95263	58.00
3.96930	58.00
3.98597	58.00

[Status Trace (Carrier Gas Flow)]
Interval(msec)	1000
# of Points	240
Start Time(min)	0.003
End Time(min)	3.986
Intensity Units	
Intensity Multiplier	1
R.Time (min)	Intensity
0.00263	34.52
0.01930	34.60
0.03597	34.54
0.05263	34.56
0.06930	34.50
0.08597	34.52
0.10263	34.52
0.11930	34.52
0.13597	34.52
0.15263	34.52
0.16930	34.52
0.18597	34.53
0.20263	34.52
0.21930	34.52
0.23597	34.52
0.25263	34.52
0.26930	34.51
0.28597	34.52
0.30263	34.52
0.31930	34.52
0.33597	34.51
0.35263	34.52
0.36930	34.53
0.38597	34.52
0.40263	34.52
0.41930	34.52
0.43597	34.52
0.45263	34.52
0.46930	34.51
0.48597	34.51
0.50263	34.52
0.51930	34.52
0.53597	34.52
0.55263	34.52
0.56930	34.52
0.58597	34.52
0.60263	34.52
0.61930	34.52
0.63597	34.52
0.65263	34.51
0.66930	34.52
0.68597	34.52
0.70263	34.52
0.71930	34.51
0.73597	34.52
0.75263	34.51
0.76930	34.52
0.78597	34.52
0.80263	34.52
0.81930	34.52
0.83597	34.52
0.85263	34.52
0.86930	34.51
0.88597	34.52
0.90263	34.52
0.91930	34.52
0.93597	34.52
0.95263	34.52
0.96930	34.52
0.98597	34.51
1.00263	34.52
1.01930	34.52
1.03597	34.52
1.05263	34.52
1.06930	34.52
1.08597	34.52
1.10263	34.52
1.11930	34.51
1.13597	34.52
1.15263	34.52
1.16930	34.52
1.18597	34.52
1.20263	34.52
1.21930	34.52
1.23597	34.52
1.25263	34.52
1.26930	34.52
1.28597	34.52
1.30263	34.51
1.31930	34.52
1.33597	34.51
1.35263	34.52
1.36930	34.52
1.38597	34.52
1.40263	34.52
1.41930	34.52
1.43597	34.52
1.45263	34.52
1.46930	34.52
1.48597	34.51
1.50263	34.51
1.51930	34.52
1.53597	34.52
1.55263	34.51
1.56930	34.52
1.58597	34.51
1.60263	34.52
1.61930	34.52
1.63597	34.51
1.65263	34.52
1.66930	34.53
1.68597	34.51
1.70263	34.52
1.71930	34.53
1.73597	34.53
1.75263	34.51
1.76930	34.53
1.78597	34.52
1.80263	34.52
1.81930	34.53
1.83597	34.51
1.85263	34.52
1.86930	34.52
1.88597	34.52
1.90263	34.51
1.91930	34.51
1.93597	34.52
1.95263	34.52
1.96930	34.51
1.98597	34.52
2.00263	34.52
2.01930	34.51
2.03597	34.51
2.05263	34.51
2.06930	34.52
2.08597	34.52
2.10263	34.52
2.11930	34.52
2.13597	34.53
2.15263	34.52
2.16930	34.52
2.18597	34.52
2.20263	34.52
2.21930	34.51
2.23597	34.52
2.25263	34.52
2.26930	34.52
2.28597	34.52
2.30263	34.52
2.31930	34.52
2.33597	34.52
2.35263	34.51
2.36930	34.52
2.38597	34.53
2.40263	34.52
2.41930	34.52
2.43597	34.52
2.45263	34.52
2.46930	34.51
2.48597	34.52
2.50263	34.57
2.51930	34.52
2.53597	34.52
2.55263	34.52
2.56930	34.53
2.58597	34.52
2.60263	34.52
2.61930	34.52
2.63597	34.52
2.65263	34.52
2.66930	34.52
2.68597	34.52
2.70263	34.52
2.71930	34.51
2.73597	34.51
2.75263	34.52
2.76930	34.52
2.78597	34.52
2.80263	34.51
2.81930	34.52
2.83597	34.52
2.85263	34.52
2.86930	34.52
2.88597	34.52
2.90263	34.53
2.91930	34.52
2.93597	34.52
2.95263	34.52
2.96930	34.53
2.98597	34.52
3.00263	34.52
3.01930	34.51
3.03597	34.52
3.05263	34.52
3.06930	34.52
3.08597	34.52
3.10263	34.52
3.11930	34.52
3.13597	34.52
3.15263	34.52
3.16930	34.52
3.18597	34.52
3.20263	34.52
3.21930	34.51
3.23597	34.52
3.25263	34.52
3.26930	34.51
3.28597	34.52
3.30263	34.52
3.31930	34.52
3.33597	34.52
3.35263	34.52
3.36930	34.52
3.38597	34.52
3.40263	34.52
3.41930	34.52
3.43597	34.52
3.45263	34.52
3.46930	34.52
3.48597	34.52
3.50263	34.52
3.51930	34.51
3.53597	34.52
3.55263	34.52
3.56930	34.52
3.58597	34.52
3.60263	34.51
3.61930	34.52
3.63597	34.51
3.65263	34.52
3.66930	34.52
3.68597	34.52
3.70263	34.52
3.71930	34.52
3.73597	34.52
3.75263	34.52
3.76930	34.52
3.78597	34.52
3.80263	34.52
3.81930	34.52
3.83597	34.52
3.85263	34.52
3.86930	34.52
3.88597	34.52
3.90263	34.51
3.91930	34.52
3.93597	34.52
3.95263	34.52
3.96930	34.52
3.98597	34.52

[Status Trace (Column Flow)]
Interval(msec)	1000
# of Points	240
Start Time(min)	0.003
End Time(min)	3.986
Intensity Units	
Intensity Multiplier	1
R.Time (min)	Intensity
0.00263	5.55
0.01930	5.35
0.03597	5.37
0.05263	5.62
0.06930	5.77
0.08597	5.58
0.10263	5.55
0.11930	5.55
0.13597	5.55
0.15263	5.55
0.16930	5.55
0.18597	5.55
0.20263	5.55
0.21930	5.55
0.23597	5.55
0.25263	5.55
0.26930	5.55
0.28597	5.55
0.30263	5.55
0.31930	5.55
0.33597	5.55
0.35263	5.55
0.36930	5.55
0.38597	5.55
0.40263	5.55
0.41930	5.55
0.43597	5.55
0.45263	5.55
0.46930	5.55
0.48597	5.55
0.50263	5.55
0.51930	5.55
0.53597	5.55
0.55263	5.55
0.56930	5.56
0.58597	5.56
0.60263	5.56
0.61930	5.56
0.63597	5.55
0.65263	5.55
0.66930	5.55
0.68597	5.55
0.70263	5.55
0.71930	5.55
0.73597	5.55
0.75263	5.55
0.76930	5.55
0.78597	5.55
0.80263	5.55
0.81930	5.55
0.83597	5.55
0.85263	5.55
0.86930	5.55
0.88597	5.55
0.90263	5.55
0.91930	5.55
0.93597	5.55
0.95263	5.55
0.96930	5.55
0.98597	5.55
1.00263	5.55
1.01930	5.55
1.03597	5.55
1.05263	5.55
1.06930	5.55
1.08597	5.55
1.10263	5.55
1.11930	5.55
1.13597	5.55
1.15263	5.55
1.16930	5.55
1.18597	5.55
1.20263	5.55
1.21930	5.55
1.23597	5.55
1.25263	5.55
1.26930	5.55
1.28597	5.55
1.30263	5.55
1.31930	5.55
1.33597	5.55
1.35263	5.55
1.36930	5.55
1.38597	5.55
1.40263	5.55
1.41930	5.55
1.43597	5.55
1.45263	5.55
1.46930	5.55
1.48597	5.55
1.50263	5.55
1.51930	5.55
1.53597	5.55
1.55263	5.55
1.56930	5.55
1.58597	5.55
1.60263	5.55
1.61930	5.55
1.63597	5.54
1.65263	5.54
1.66930	5.53
1.68597	5.52
1.70263	5.50
1.71930	5.49
1.73597	5.48
1.75263	5.47
1.76930	5.46
1.78597	5.45
1.80263	5.44
1.81930	5.43
1.83597	5.42
1.85263	5.41
1.86930	5.40
1.88597	5.39
1.90263	5.38
1.91930	5.37
1.93597	5.36
1.95263	5.35
1.96930	5.34
1.98597	5.33
2.00263	5.32
2.01930	5.31
2.03597	5.30
2.05263	5.29
2.06930	5.28
2.08597	5.27
2.10263	5.27
2.11930	5.26
2.13597	5.25
2.15263	5.24
2.16930	5.23
2.18597	5.22
2.20263	5.21
2.21930	5.20
2.23597	5.19
2.25263	5.18
2.26930	5.17
2.28597	5.16
2.30263	5.15
2.31930	5.14
2.33597	5.13
2.35263	5.13
2.36930	5.12
2.38597	5.12
2.40263	5.12
2.41930	5.12
2.43597	5.12
2.45263	5.12
2.46930	5.11
2.48597	5.11
2.50263	5.11
2.51930	5.12
2.53597	5.11
2.55263	5.11
2.56930	5.11
2.58597	5.11
2.60263	5.11
2.61930	5.11
2.63597	5.11
2.65263	5.11
2.66930	5.11
2.68597	5.11
2.70263	5.11
2.71930	5.11
2.73597	5.11
2.75263	5.11
2.76930	5.11
2.78597	5.11
2.80263	5.11
2.81930	5.11
2.83597	5.11
2.85263	5.11
2.86930	5.11
2.88597	5.11
2.90263	5.11
2.91930	5.11
2.93597	5.11
2.95263	5.11
2.96930	5.11
2.98597	5.11
3.00263	5.11
3.01930	5.11
3.03597	5.11
3.05263	5.11
3.06930	5.11
3.08597	5.11
3.10263	5.11
3.11930	5.11
3.13597	5.11
3.15263	5.11
3.16930	5.11
3.18597	5.11
3.20263	5.11
3.21930	5.11
3.23597	5.11
3.25263	5.11
3.26930	5.10
3.28597	5.11
3.30263	5.11
3.31930	5.11
3.33597	5.11
3.35263	5.11
3.36930	5.11
3.38597	5.11
3.40263	5.11
3.41930	5.11
3.43597	5.11
3.45263	5.11
3.46930	5.11
3.48597	5.11
3.50263	5.11
3.51930	5.11
3.53597	5.11
3.55263	5.11
3.56930	5.11
3.58597	5.10
3.60263	5.10
3.61930	5.11
3.63597	5.11
3.65263	5.11
3.66930	5.11
3.68597	5.11
3.70263	5.11
3.71930	5.11
3.73597	5.11
3.75263	5.11
3.76930	5.11
3.78597	5.11
3.80263	5.11
3.81930	5.11
3.83597	5.11
3.85263	5.11
3.86930	5.11
3.88597	5.11
3.90263	5.11
3.91930	5.11
3.93597	5.11
3.95263	5.11
3.96930	5.11
3.98597	5.11

[Status Trace (Linear Velocity)]
Interval(msec)	1000
# of Points	240
Start Time(min)	0.003
End Time(min)	3.986
Intensity Units	
Intensity Multiplier	1
R.Time (min)	Intensity
0.00263	39.02
0.01930	37.86
0.03597	37.98
0.05263	39.39
0.06930	40.24
0.08597	39.19
0.10263	39.00
0.11930	39.03
0.13597	39.03
0.15263	39.03
0.16930	39.02
0.18597	39.02
0.20263	39.02
0.21930	39.02
0.23597	39.02
0.25263	39.02
0.26930	39.02
0.28597	39.02
0.30263	39.02
0.31930	39.02
0.33597	39.02
0.35263	39.02
0.36930	39.02
0.38597	39.02
0.40263	39.03
0.41930	39.03
0.43597	39.03
0.45263	39.03
0.46930	39.03
0.48597	39.03
0.50263	39.03
0.51930	39.03
0.53597	39.03
0.55263	39.03
0.56930	39.03
0.58597	39.03
0.60263	39.03
0.61930	39.03
0.63597	39.03
0.65263	39.03
0.66930	39.03
0.68597	39.03
0.70263	39.03
0.71930	39.03
0.73597	39.03
0.75263	39.02
0.76930	39.02
0.78597	39.02
0.80263	39.02
0.81930	39.02
0.83597	39.02
0.85263	39.02
0.86930	39.02
0.88597	39.02
0.90263	39.03
0.91930	39.02
0.93597	39.02
0.95263	39.02
0.96930	39.02
0.98597	39.02
1.00263	39.02
1.01930	39.02
1.03597	39.02
1.05263	39.02
1.06930	39.02
1.08597	39.02
1.10263	39.02
1.11930	39.02
1.13597	39.02
1.15263	39.02
1.16930	39.02
1.18597	39.02
1.20263	39.02
1.21930	39.02
1.23597	39.03
1.25263	39.03
1.26930	39.03
1.28597	39.03
1.30263	39.03
1.31930	39.03
1.33597	39.02
1.35263	39.02
1.36930	39.03
1.38597	39.03
1.40263	39.02
1.41930	39.02
1.43597	39.03
1.45263	39.03
1.46930	39.03
1.48597	39.03
1.50263	39.03
1.51930	39.03
1.53597	39.03
1.55263	39.03
1.56930	39.03
1.58597	39.03
1.60263	39.02
1.61930	39.01
1.63597	39.00
1.65263	38.97
1.66930	38.94
1.68597	38.91
1.70263	38.87
1.71930	38.84
1.73597	38.81
1.75263	38.78
1.76930	38.75
1.78597	38.71
1.80263	38.68
1.81930	38.65
1.83597	38.62
1.85263	38.59
1.86930	38.56
1.88597	38.53
1.90263	38.50
1.91930	38.46
1.93597	38.43
1.95263	38.40
1.96930	38.37
1.98597	38.34
2.00263	38.31
2.01930	38.28
2.03597	38.25
2.05263	38.22
2.06930	38.19
2.08597	38.16
2.10263	38.14
2.11930	38.11
2.13597	38.08
2.15263	38.05
2.16930	38.02
2.18597	37.99
2.20263	37.96
2.21930	37.93
2.23597	37.90
2.25263	37.87
2.26930	37.84
2.28597	37.81
2.30263	37.78
2.31930	37.75
2.33597	37.72
2.35263	37.70
2.36930	37.67
2.38597	37.66
2.40263	37.66
2.41930	37.66
2.43597	37.66
2.45263	37.66
2.46930	37.66
2.48597	37.66
2.50263	37.65
2.51930	37.67
2.53597	37.65
2.55263	37.66
2.56930	37.66
2.58597	37.66
2.60263	37.66
2.61930	37.66
2.63597	37.65
2.65263	37.65
2.66930	37.65
2.68597	37.65
2.70263	37.65
2.71930	37.65
2.73597	37.65
2.75263	37.65
2.76930	37.65
2.78597	37.65
2.80263	37.65
2.81930	37.65
2.83597	37.65
2.85263	37.65
2.86930	37.65
2.88597	37.65
2.90263	37.65
2.91930	37.65
2.93597	37.64
2.95263	37.64
2.96930	37.64
2.98597	37.64
3.00263	37.64
3.01930	37.64
3.03597	37.64
3.05263	37.64
3.06930	37.64
3.08597	37.64
3.10263	37.64
3.11930	37.64
3.13597	37.64
3.15263	37.63
3.16930	37.63
3.18597	37.63
3.20263	37.63
3.21930	37.63
3.23597	37.63
3.25263	37.63
3.26930	37.63
3.28597	37.63
3.30263	37.63
3.31930	37.63
3.33597	37.63
3.35263	37.63
3.36930	37.63
3.38597	37.63
3.40263	37.63
3.41930	37.63
3.43597	37.63
3.45263	37.63
3.46930	37.63
3.48597	37.63
3.50263	37.63
3.51930	37.63
3.53597	37.63
3.55263	37.63
3.56930	37.63
3.58597	37.63
3.60263	37.63
3.61930	37.63
3.63597	37.63
3.65263	37.63
3.66930	37.63
3.68597	37.63
3.70263	37.63
3.71930	37.63
3.73597	37.63
3.75263	37.63
3.76930	37.64
3.78597	37.64
3.80263	37.63
3.81930	37.63
3.83597	37.63
3.85263	37.63
3.86930	37.63
3.88597	37.63
3.90263	37.63
3.91930	37.63
3.93597	37.63
3.95263	37.64
3.96930	37.63
3.98597	37.63

