[Header]
Application Name	LabSolutions
Version	5.110
Data File Name	C:\Users\User\Desktop\GC Analyses\Jack\Nachusa Grasslands Sampling\T4 Timepoint July 12th\T4_07122022_059.gcd
Output Date	3/17/2023
Output Time	12:04:54 PM

[File Information]
Type	Data File
Generated	3/14/2023 9:58:14 PM
Generated by	System Administrator
Modified	3/14/2023 10:05:04 PM
Modified by	System Administrator

[Sample Information]
Operator Name	System Administrator
Acquired	3/14/2023 10:01:04 PM
Sample Type	0:Unknown
Level	0
Sample Name	059
Sample ID	059
ISTD Amount1	1
ISTD Amount2	1
ISTD Amount3	1
ISTD Amount4	1
ISTD Amount5	1
ISTD Amount6	1
ISTD Amount7	1
ISTD Amount8	1
ISTD Amount9	1
ISTD Amount10	1
ISTD Amount11	1
ISTD Amount12	1
ISTD Amount13	1
ISTD Amount14	1
ISTD Amount15	1
ISTD Amount16	1
ISTD Amount17	1
ISTD Amount18	1
ISTD Amount19	1
ISTD Amount20	1
ISTD Amount21	1
ISTD Amount22	1
ISTD Amount23	1
ISTD Amount24	1
ISTD Amount25	1
ISTD Amount26	1
ISTD Amount27	1
ISTD Amount28	1
ISTD Amount29	1
ISTD Amount30	1
ISTD Amount31	1
ISTD Amount32	1
Sample Amount	1
Dilution Factor	1
Vial#	58
Injection Volume	1
Injection Count	1
Bar Code	

[Original Files]
Data File	C:\Users\User\Desktop\GC Analyses\Jack\Nachusa Grasslands Sampling\T4 Timepoint July 12th\T4_07122022_059.gcd
Method File	C:\LabSolutions\Data\GHG_4min_2022\ghg3_togas_w_acet_4 min_new_int.gcm
Batch File	C:\LabSolutions\Data\AutoSamplerTesting\T4_07122022.gcb
Report Format File	c:\LabSolutions\System\DEFAULT.lsr

[File Description]


[Configuration]
Instrument Name	C0B7VH3-Instrument1
Instrument #	1
Line #	1
# of Detectors	3
Detector ID	DET#1	DET#2	DET#3
Detector Name	FID	PTCD	ECD
# of Channels	1	1	1

[Peak Table(Ch1)]
# of Peaks	3
Peak#	R.Time	I.Time	F.Time	Area	Height	A/H	Conc.	Mark	ID#	Name	k'	Plate #	Plate Ht.	Tailing	Resolution	Sep.Factor	Area Ratio	Height Ratio	Conc. %	Norm Conc.
1	1.457	1.311	1.516	1572	443	3.546	11.100	   	1	CO	0.000	5896	25.441	0.811	0.000	0.000	0	0	1.191	1.191
2	1.571	1.538	1.622	19557	10002	1.955	378.144	   	2	CH4	0.078	11651	12.874	1.125	1.695	0.000	0	0	40.586	40.586
3	1.996	1.952	2.389	2161482	1030978	2.097	542.473	   	3	CO2	0.370	17383	8.629	1.342	7.161	4.742	0	0	58.223	58.223

[Peak Table(Ch2)]
# of Peaks	0

[Peak Table(Ch3)]
# of Peaks	5
Peak#	R.Time	I.Time	F.Time	Area	Height	A/H	Conc.	Mark	ID#	Name	k'	Plate #	Plate Ht.	Tailing	Resolution	Sep.Factor	Area Ratio	Height Ratio	Conc. %	Norm Conc.
1	2.462	2.279	2.510	2422	711	3.409	0.000	   			0.000	10105	14.844	0.000	0.000	0.000	0	0	0.000	0.000
2	2.528	2.510	2.579	1129	388	2.905	0.000	 V 			0.027	6035	24.855	0.000	0.579	0.000	0	0	0.000	0.000
3	2.609	2.579	2.693	784	179	4.380	0.000	 V 			0.060	2106	71.228	0.000	0.451	2.222	0	0	0.000	0.000
4	2.880	2.803	3.104	56605	14632	3.869	1.446	   	1	N2O	0.170	12689	11.821	1.551	1.646	2.850	0	0	100.000	100.000
5	3.316	3.107	3.995	18958	608	31.180	0.000	   	2	SF6	0.347	221	680.271	2.088	0.877	2.044	0	0	0.000	0.000

[Compound Results(Ch1)]
# of IDs	6
ID#	Name	R.Time	Area	Height	Conc.	Curve	3rd	2nd	1st	Constant	Area Ratio	Height Ratio	Conc. %	Norm Conc.
1	CO	1.457	1572	443	11.100	Linear	0.000000e+00	0.000000e+00	1.416423e+002	0.000000e+00	0	0	1.191	1.191
2	CH4	1.571	19557	10002	378.144	Linear	0.000000e+00	0.000000e+00	5.171738e+001	0.000000e+00	0	0	40.586	40.586
3	CO2	1.996	2161482	1030978	542.473	Linear	0.000000e+00	0.000000e+00	3.984494e+003	0.000000e+00	0	0	58.223	58.223
4	Ethylene	0.000	0	0	0.000	Linear	0.000000e+00	0.000000e+00	0.000000e+00	0.000000e+00	0	0	0.000	0.000
5	Acetylene	0.000	0	0	0.000	Linear	0.000000e+00	0.000000e+00	0.000000e+00	0.000000e+00	0	0	0.000	0.000
6	Ethane	0.000	0	0	0.000	Linear	0.000000e+00	0.000000e+00	0.000000e+00	0.000000e+00	0	0	0.000	0.000

[Compound Results(Ch2)]
# of IDs	5
ID#	Name	R.Time	Area	Height	Conc.	Curve	3rd	2nd	1st	Constant	Area Ratio	Height Ratio	Conc. %	Norm Conc.
1	Hydrogen	0.000	0	0	0.000	Linear	0.000000e+00	0.000000e+00	0.000000e+00	0.000000e+00	0	0	0.000	0.000
2	Oxygen	0.000	0	0	0.000	Linear	0.000000e+00	0.000000e+00	0.000000e+00	0.000000e+00	0	0	0.000	0.000
3	Nitrogen	0.000	0	0	0.000	Linear	0.000000e+00	0.000000e+00	0.000000e+00	0.000000e+00	0	0	0.000	0.000
4	Methane	0.000	0	0	0.000	Linear	0.000000e+00	0.000000e+00	0.000000e+00	0.000000e+00	0	0	0.000	0.000
5	Carbon Monoxide	0.000	0	0	0.000	Linear	0.000000e+00	0.000000e+00	0.000000e+00	0.000000e+00	0	0	0.000	0.000

[Compound Results(Ch3)]
# of IDs	2
ID#	Name	R.Time	Area	Height	Conc.	Curve	3rd	2nd	1st	Constant	Area Ratio	Height Ratio	Conc. %	Norm Conc.
1	N2O	2.880	56605	14632	1.446	Linear	0.000000e+00	0.000000e+00	3.915173e+004	0.000000e+00	0	0	100.000	100.000
2	SF6	3.316	18958	608	0.000	Linear	0.000000e+00	0.000000e+00	0.000000e+00	0.000000e+00	0	0	0.000	0.000

[Group Results(Ch1)]
# of Groups	0

[Group Results(Ch2)]
# of Groups	0

[Group Results(Ch3)]
# of Groups	0

[Chromatogram (Ch1)]
Interval(msec)	220
# of Points	1091
Start Time(min)	0.002
End Time(min)	3.998
R.Time (min)	Intensity
0.00167	-24
0.00533	-20
0.00900	-16
0.01267	-15
0.01633	-13
0.02000	-7
0.02367	4
0.02733	12
0.03100	18
0.03467	27
0.03833	38
0.04200	45
0.04567	44
0.04933	43
0.05300	42
0.05667	41
0.06033	35
0.06400	24
0.06767	10
0.07133	2
0.07500	-2
0.07867	8
0.08233	27
0.08600	44
0.08967	56
0.09333	63
0.09700	65
0.10067	59
0.10433	55
0.10800	55
0.11167	55
0.11533	56
0.11900	54
0.12267	51
0.12633	51
0.13000	52
0.13367	52
0.13733	53
0.14100	58
0.14467	59
0.14833	58
0.15200	56
0.15567	52
0.15933	46
0.16300	41
0.16667	44
0.17033	50
0.17400	55
0.17767	57
0.18133	54
0.18500	49
0.18867	43
0.19233	35
0.19600	31
0.19967	33
0.20333	34
0.20700	30
0.21067	24
0.21433	22
0.21800	20
0.22167	24
0.22533	33
0.22900	47
0.23267	57
0.23633	56
0.24000	46
0.24367	34
0.24733	21
0.25100	9
0.25467	-1
0.25833	-6
0.26200	-6
0.26567	-5
0.26933	-1
0.27300	1
0.27667	1
0.28033	-1
0.28400	-2
0.28767	-1
0.29133	0
0.29500	2
0.29867	9
0.30233	18
0.30600	22
0.30967	26
0.31333	29
0.31700	32
0.32067	34
0.32433	31
0.32800	25
0.33167	24
0.33533	26
0.33900	26
0.34267	23
0.34633	24
0.35000	26
0.35367	26
0.35733	21
0.36100	18
0.36467	17
0.36833	13
0.37200	6
0.37567	1
0.37933	-1
0.38300	-0
0.38667	-3
0.39033	-4
0.39400	2
0.39767	10
0.40133	16
0.40500	17
0.40867	16
0.41233	19
0.41600	30
0.41967	34
0.42333	30
0.42700	23
0.43067	10
0.43433	-4
0.43800	-11
0.44167	-9
0.44533	0
0.44900	6
0.45267	7
0.45633	5
0.46000	1
0.46367	-1
0.46733	-1
0.47100	2
0.47467	6
0.47833	13
0.48200	25
0.48567	30
0.48933	27
0.49300	22
0.49667	17
0.50033	16
0.50400	15
0.50767	10
0.51133	6
0.51500	7
0.51867	6
0.52233	9
0.52600	15
0.52967	23
0.53333	28
0.53700	29
0.54067	28
0.54433	26
0.54800	23
0.55167	22
0.55533	26
0.55900	29
0.56267	26
0.56633	17
0.57000	8
0.57367	3
0.57733	1
0.58100	0
0.58467	-1
0.58833	-1
0.59200	4
0.59567	11
0.59933	13
0.60300	14
0.60667	11
0.61033	15
0.61400	21
0.61767	29
0.62133	28
0.62500	20
0.62867	18
0.63233	19
0.63600	17
0.63967	12
0.64333	9
0.64700	8
0.65067	13
0.65433	20
0.65800	24
0.66167	24
0.66533	18
0.66900	12
0.67267	6
0.67633	1
0.68000	-0
0.68367	4
0.68733	6
0.69100	13
0.69467	26
0.69833	30
0.70200	26
0.70567	19
0.70933	14
0.71300	10
0.71667	8
0.72033	8
0.72400	9
0.72767	7
0.73133	1
0.73500	-3
0.73867	-3
0.74233	-1
0.74600	4
0.74967	9
0.75333	14
0.75700	20
0.76067	24
0.76433	20
0.76800	13
0.77167	8
0.77533	4
0.77900	1
0.78267	-1
0.78633	-3
0.79000	-2
0.79367	1
0.79733	1
0.80100	1
0.80467	5
0.80833	3
0.81200	-3
0.81567	-5
0.81933	5
0.82300	20
0.82667	30
0.83033	40
0.83400	48
0.83767	48
0.84133	40
0.84500	33
0.84867	29
0.85233	29
0.85600	30
0.85967	33
0.86333	33
0.86700	28
0.87067	22
0.87433	17
0.87800	14
0.88167	14
0.88533	16
0.88900	23
0.89267	33
0.89633	43
0.90000	49
0.90367	50
0.90733	51
0.91100	50
0.91467	47
0.91833	44
0.92200	43
0.92567	40
0.92933	35
0.93300	32
0.93667	33
0.94033	35
0.94400	34
0.94767	32
0.95133	31
0.95500	36
0.95867	41
0.96233	45
0.96600	45
0.96967	39
0.97333	34
0.97700	32
0.98067	32
0.98433	33
0.98800	35
0.99167	35
0.99533	37
0.99900	41
1.00267	41
1.00633	42
1.01000	41
1.01367	36
1.01733	30
1.02100	23
1.02467	18
1.02833	16
1.03200	15
1.03567	16
1.03933	22
1.04300	27
1.04667	26
1.05033	24
1.05400	24
1.05767	25
1.06133	24
1.06500	24
1.06867	26
1.07233	38
1.07600	49
1.07967	51
1.08333	48
1.08700	45
1.09067	41
1.09433	37
1.09800	35
1.10167	34
1.10533	37
1.10900	39
1.11267	38
1.11633	33
1.12000	25
1.12367	17
1.12733	17
1.13100	19
1.13467	14
1.13833	9
1.14200	7
1.14567	8
1.14933	11
1.15300	12
1.15667	15
1.16033	19
1.16400	22
1.16767	23
1.17133	27
1.17500	33
1.17867	39
1.18233	42
1.18600	41
1.18967	40
1.19333	41
1.19700	39
1.20067	36
1.20433	32
1.20800	25
1.21167	14
1.21533	5
1.21900	-3
1.22267	-8
1.22633	-11
1.23000	-11
1.23367	-10
1.23733	-12
1.24100	-10
1.24467	-6
1.24833	2
1.25200	12
1.25567	18
1.25933	23
1.26300	31
1.26667	40
1.27033	42
1.27400	38
1.27767	29
1.28133	16
1.28500	6
1.28867	-1
1.29233	-9
1.29600	-16
1.29967	-19
1.30333	-18
1.30700	-9
1.31067	1
1.31433	5
1.31800	4
1.32167	-2
1.32533	-7
1.32900	-9
1.33267	-4
1.33633	0
1.34000	6
1.34367	8
1.34733	7
1.35100	5
1.35467	0
1.35833	-11
1.36200	-18
1.36567	-20
1.36933	-17
1.37300	-10
1.37667	-4
1.38033	1
1.38400	6
1.38767	12
1.39133	18
1.39500	23
1.39867	28
1.40233	29
1.40600	23
1.40967	16
1.41333	10
1.41700	4
1.42067	5
1.42433	9
1.42800	12
1.43167	12
1.43533	9
1.43900	17
1.44267	52
1.44633	145
1.45000	262
1.45367	333
1.45733	346
1.46100	326
1.46467	294
1.46833	263
1.47200	247
1.47567	256
1.47933	268
1.48300	256
1.48667	218
1.49033	157
1.49400	91
1.49767	29
1.50133	-21
1.50500	-58
1.50867	-88
1.51233	-114
1.51600	-136
1.51967	-147
1.52333	-149
1.52700	-153
1.53067	-158
1.53433	-158
1.53800	-114
1.54167	125
1.54533	824
1.54900	2181
1.55267	4045
1.55633	6017
1.56000	7746
1.56367	9053
1.56733	9829
1.57100	9940
1.57467	9295
1.57833	8004
1.58200	6382
1.58567	4774
1.58933	3397
1.59300	2328
1.59667	1548
1.60033	999
1.60400	624
1.60767	373
1.61133	210
1.61500	111
1.61867	53
1.62233	19
1.62600	3
1.62967	-5
1.63333	-14
1.63700	-25
1.64067	-36
1.64433	-48
1.64800	-61
1.65167	-73
1.65533	-82
1.65900	-86
1.66267	-88
1.66633	-91
1.67000	-90
1.67367	-85
1.67733	-77
1.68100	-69
1.68467	-55
1.68833	-40
1.69200	-30
1.69567	-24
1.69933	-26
1.70300	-35
1.70667	-44
1.71033	-51
1.71400	-56
1.71767	-56
1.72133	-57
1.72500	-55
1.72867	-50
1.73233	-43
1.73600	-37
1.73967	-38
1.74333	-44
1.74700	-51
1.75067	-56
1.75433	-58
1.75800	-60
1.76167	-64
1.76533	-64
1.76900	-59
1.77267	-56
1.77633	-64
1.78000	-73
1.78367	-73
1.78733	-68
1.79100	-63
1.79467	-55
1.79833	-42
1.80200	-31
1.80567	-23
1.80933	-19
1.81300	-21
1.81667	-26
1.82033	-32
1.82400	-35
1.82767	-36
1.83133	-33
1.83500	-30
1.83867	-27
1.84233	-24
1.84600	-20
1.84967	-19
1.85333	-17
1.85700	-15
1.86067	-11
1.86433	-8
1.86800	-9
1.87167	-15
1.87533	-19
1.87900	-16
1.88267	-12
1.88633	-10
1.89000	-13
1.89367	-16
1.89733	-15
1.90100	-14
1.90467	-9
1.90833	-3
1.91200	-4
1.91567	-10
1.91933	-18
1.92300	-26
1.92667	-31
1.93033	-27
1.93400	-13
1.93767	-1
1.94133	5
1.94500	3
1.94867	-3
1.95233	-1
1.95600	90
1.95967	736
1.96333	3980
1.96700	16140
1.97067	50903
1.97433	127606
1.97800	259217
1.98167	438456
1.98533	637366
1.98900	820546
1.99267	958291
1.99633	1031002
2.00000	1030453
2.00367	960735
2.00733	838406
2.01100	688173
2.01467	535255
2.01833	398318
2.02200	286643
2.02567	201602
2.02933	139926
2.03300	96689
2.03667	67051
2.04033	46991
2.04400	33486
2.04767	24382
2.05133	18200
2.05500	13952
2.05867	10991
2.06233	8891
2.06600	7367
2.06967	6226
2.07333	5353
2.07700	4663
2.08067	4100
2.08433	3642
2.08800	3270
2.09167	2956
2.09533	2689
2.09900	2464
2.10267	2269
2.10633	2100
2.11000	1953
2.11367	1830
2.11733	1729
2.12100	1638
2.12467	1551
2.12833	1465
2.13200	1380
2.13567	1306
2.13933	1242
2.14300	1183
2.14667	1125
2.15033	1070
2.15400	1015
2.15767	967
2.16133	928
2.16500	898
2.16867	869
2.17233	842
2.17600	811
2.17967	780
2.18333	750
2.18700	720
2.19067	690
2.19433	664
2.19800	640
2.20167	619
2.20533	606
2.20900	597
2.21267	584
2.21633	570
2.22000	559
2.22367	548
2.22733	535
2.23100	521
2.23467	510
2.23833	496
2.24200	477
2.24567	461
2.24933	449
2.25300	439
2.25667	431
2.26033	423
2.26400	414
2.26767	409
2.27133	404
2.27500	400
2.27867	396
2.28233	389
2.28600	380
2.28967	374
2.29333	369
2.29700	362
2.30067	352
2.30433	343
2.30800	333
2.31167	329
2.31533	335
2.31900	336
2.32267	330
2.32633	322
2.33000	315
2.33367	312
2.33733	310
2.34100	306
2.34467	299
2.34833	290
2.35200	284
2.35567	281
2.35933	276
2.36300	270
2.36667	262
2.37033	255
2.37400	255
2.37767	254
2.38133	252
2.38500	251
2.38867	249
2.39233	244
2.39600	246
2.39967	248
2.40333	243
2.40700	238
2.41067	235
2.41433	235
2.41800	242
2.42167	250
2.42533	250
2.42900	243
2.43267	234
2.43633	230
2.44000	228
2.44367	220
2.44733	209
2.45100	200
2.45467	198
2.45833	198
2.46200	192
2.46567	182
2.46933	180
2.47300	181
2.47667	182
2.48033	181
2.48400	182
2.48767	186
2.49133	187
2.49500	182
2.49867	179
2.50233	178
2.50600	181
2.50967	189
2.51333	196
2.51700	196
2.52067	186
2.52433	172
2.52800	160
2.53167	149
2.53533	145
2.53900	145
2.54267	145
2.54633	148
2.55000	154
2.55367	155
2.55733	149
2.56100	138
2.56467	127
2.56833	123
2.57200	123
2.57567	128
2.57933	134
2.58300	139
2.58667	146
2.59033	151
2.59400	153
2.59767	154
2.60133	149
2.60500	141
2.60867	138
2.61233	141
2.61600	139
2.61967	132
2.62333	121
2.62700	113
2.63067	104
2.63433	101
2.63800	104
2.64167	110
2.64533	116
2.64900	118
2.65267	115
2.65633	110
2.66000	110
2.66367	114
2.66733	113
2.67100	109
2.67467	107
2.67833	107
2.68200	105
2.68567	100
2.68933	98
2.69300	103
2.69667	108
2.70033	108
2.70400	108
2.70767	110
2.71133	113
2.71500	117
2.71867	119
2.72233	120
2.72600	121
2.72967	123
2.73333	121
2.73700	121
2.74067	119
2.74433	122
2.74800	127
2.75167	128
2.75533	124
2.75900	117
2.76267	113
2.76633	110
2.77000	106
2.77367	104
2.77733	105
2.78100	106
2.78467	102
2.78833	98
2.79200	97
2.79567	99
2.79933	104
2.80300	108
2.80667	111
2.81033	112
2.81400	111
2.81767	110
2.82133	108
2.82500	109
2.82867	110
2.83233	114
2.83600	114
2.83967	106
2.84333	99
2.84700	95
2.85067	96
2.85433	101
2.85800	106
2.86167	106
2.86533	103
2.86900	98
2.87267	97
2.87633	96
2.88000	94
2.88367	94
2.88733	92
2.89100	91
2.89467	95
2.89833	98
2.90200	98
2.90567	97
2.90933	95
2.91300	97
2.91667	101
2.92033	104
2.92400	103
2.92767	102
2.93133	103
2.93500	106
2.93867	105
2.94233	102
2.94600	98
2.94967	98
2.95333	101
2.95700	105
2.96067	107
2.96433	109
2.96800	110
2.97167	105
2.97533	98
2.97900	92
2.98267	88
2.98633	84
2.99000	83
2.99367	82
2.99733	80
3.00100	81
3.00467	85
3.00833	89
3.01200	91
3.01567	88
3.01933	90
3.02300	88
3.02667	82
3.03033	73
3.03400	68
3.03767	70
3.04133	76
3.04500	79
3.04867	84
3.05233	83
3.05600	79
3.05967	79
3.06333	81
3.06700	84
3.07067	88
3.07433	87
3.07800	80
3.08167	78
3.08533	81
3.08900	79
3.09267	75
3.09633	71
3.10000	70
3.10367	71
3.10733	68
3.11100	65
3.11467	60
3.11833	58
3.12200	59
3.12567	60
3.12933	59
3.13300	59
3.13667	57
3.14033	55
3.14400	58
3.14767	65
3.15133	76
3.15500	85
3.15867	82
3.16233	78
3.16600	81
3.16967	89
3.17333	95
3.17700	89
3.18067	81
3.18433	74
3.18800	70
3.19167	70
3.19533	71
3.19900	63
3.20267	55
3.20633	52
3.21000	52
3.21367	55
3.21733	56
3.22100	54
3.22467	50
3.22833	45
3.23200	40
3.23567	38
3.23933	42
3.24300	54
3.24667	56
3.25033	48
3.25400	35
3.25767	25
3.26133	25
3.26500	31
3.26867	42
3.27233	55
3.27600	68
3.27967	74
3.28333	74
3.28700	67
3.29067	61
3.29433	57
3.29800	51
3.30167	43
3.30533	35
3.30900	28
3.31267	24
3.31633	24
3.32000	26
3.32367	23
3.32733	18
3.33100	17
3.33467	21
3.33833	27
3.34200	33
3.34567	38
3.34933	44
3.35300	51
3.35667	53
3.36033	49
3.36400	41
3.36767	35
3.37133	33
3.37500	39
3.37867	46
3.38233	47
3.38600	45
3.38967	47
3.39333	53
3.39700	59
3.40067	65
3.40433	68
3.40800	70
3.41167	68
3.41533	65
3.41900	58
3.42267	49
3.42633	41
3.43000	42
3.43367	47
3.43733	48
3.44100	44
3.44467	39
3.44833	33
3.45200	30
3.45567	29
3.45933	28
3.46300	28
3.46667	29
3.47033	28
3.47400	27
3.47767	29
3.48133	30
3.48500	29
3.48867	22
3.49233	19
3.49600	18
3.49967	17
3.50333	17
3.50700	15
3.51067	14
3.51433	15
3.51800	21
3.52167	32
3.52533	43
3.52900	53
3.53267	58
3.53633	52
3.54000	44
3.54367	38
3.54733	31
3.55100	27
3.55467	20
3.55833	13
3.56200	14
3.56567	17
3.56933	21
3.57300	23
3.57667	20
3.58033	16
3.58400	13
3.58767	11
3.59133	8
3.59500	3
3.59867	0
3.60233	-1
3.60600	-0
3.60967	4
3.61333	9
3.61700	13
3.62067	11
3.62433	8
3.62800	10
3.63167	14
3.63533	19
3.63900	23
3.64267	22
3.64633	19
3.65000	17
3.65367	14
3.65733	7
3.66100	0
3.66467	1
3.66833	6
3.67200	9
3.67567	10
3.67933	9
3.68300	7
3.68667	7
3.69033	10
3.69400	14
3.69767	18
3.70133	19
3.70500	24
3.70867	29
3.71233	35
3.71600	38
3.71967	36
3.72333	28
3.72700	16
3.73067	1
3.73433	-11
3.73800	-18
3.74167	-24
3.74533	-33
3.74900	-40
3.75267	-42
3.75633	-33
3.76000	-20
3.76367	-9
3.76733	-4
3.77100	-3
3.77467	-6
3.77833	-7
3.78200	-2
3.78567	6
3.78933	9
3.79300	7
3.79667	6
3.80033	4
3.80400	-4
3.80767	-12
3.81133	-19
3.81500	-22
3.81867	-21
3.82233	-16
3.82600	-13
3.82967	-11
3.83333	-8
3.83700	-3
3.84067	4
3.84433	6
3.84800	-0
3.85167	-10
3.85533	-21
3.85900	-30
3.86267	-34
3.86633	-34
3.87000	-32
3.87367	-31
3.87733	-26
3.88100	-21
3.88467	-15
3.88833	-15
3.89200	-20
3.89567	-25
3.89933	-23
3.90300	-18
3.90667	-15
3.91033	-11
3.91400	-9
3.91767	-9
3.92133	-10
3.92500	-12
3.92867	-15
3.93233	-17
3.93600	-16
3.93967	-12
3.94333	-12
3.94700	-19
3.95067	-22
3.95433	-24
3.95800	-27
3.96167	-23
3.96533	-19
3.96900	-16
3.97267	-13
3.97633	-11
3.98000	-13
3.98367	-15
3.98733	-18
3.99100	-21
3.99467	-21
3.99833	-22

[Chromatogram (Ch2)]
Interval(msec)	220
# of Points	1091
Start Time(min)	0.002
End Time(min)	3.998
R.Time (min)	Intensity
0.00167	-1
0.00533	-1
0.00900	-1
0.01267	-1
0.01633	-2
0.02000	-2
0.02367	-2
0.02733	-2
0.03100	-2
0.03467	-2
0.03833	-2
0.04200	-2
0.04567	-3
0.04933	-3
0.05300	-3
0.05667	-2
0.06033	-2
0.06400	-2
0.06767	-2
0.07133	-2
0.07500	-2
0.07867	-2
0.08233	-2
0.08600	-1
0.08967	-1
0.09333	-1
0.09700	-1
0.10067	-1
0.10433	-1
0.10800	-1
0.11167	-1
0.11533	-0
0.11900	-0
0.12267	-0
0.12633	-1
0.13000	-1
0.13367	-1
0.13733	-2
0.14100	-2
0.14467	-2
0.14833	-2
0.15200	-2
0.15567	-3
0.15933	-3
0.16300	-3
0.16667	-3
0.17033	-3
0.17400	-3
0.17767	-3
0.18133	-3
0.18500	-4
0.18867	-4
0.19233	-4
0.19600	-4
0.19967	-4
0.20333	-4
0.20700	-5
0.21067	-4
0.21433	-4
0.21800	-4
0.22167	-4
0.22533	-4
0.22900	-4
0.23267	-4
0.23633	-4
0.24000	-3
0.24367	-3
0.24733	-3
0.25100	-3
0.25467	-2
0.25833	-2
0.26200	-2
0.26567	-2
0.26933	-2
0.27300	-1
0.27667	-1
0.28033	-1
0.28400	-1
0.28767	-1
0.29133	-2
0.29500	-2
0.29867	-2
0.30233	-3
0.30600	-3
0.30967	-3
0.31333	-3
0.31700	-4
0.32067	-4
0.32433	-3
0.32800	-3
0.33167	-3
0.33533	-3
0.33900	-3
0.34267	-3
0.34633	-3
0.35000	-3
0.35367	-3
0.35733	-3
0.36100	-4
0.36467	-3
0.36833	-3
0.37200	-3
0.37567	-3
0.37933	-2
0.38300	-2
0.38667	-2
0.39033	-2
0.39400	-2
0.39767	-2
0.40133	-2
0.40500	-2
0.40867	-2
0.41233	-2
0.41600	-2
0.41967	-2
0.42333	-2
0.42700	-2
0.43067	-2
0.43433	-3
0.43800	-3
0.44167	-3
0.44533	-4
0.44900	-4
0.45267	-4
0.45633	-4
0.46000	-4
0.46367	-4
0.46733	-4
0.47100	-4
0.47467	-4
0.47833	-4
0.48200	-3
0.48567	-3
0.48933	-3
0.49300	-3
0.49667	-3
0.50033	-3
0.50400	-3
0.50767	-3
0.51133	-2
0.51500	-3
0.51867	-3
0.52233	-3
0.52600	-3
0.52967	-3
0.53333	-3
0.53700	-3
0.54067	-4
0.54433	-4
0.54800	-4
0.55167	-4
0.55533	-4
0.55900	-4
0.56267	-4
0.56633	-3
0.57000	-3
0.57367	-3
0.57733	-3
0.58100	-3
0.58467	-3
0.58833	-3
0.59200	-3
0.59567	-3
0.59933	-3
0.60300	-3
0.60667	-3
0.61033	-2
0.61400	-2
0.61767	-2
0.62133	-2
0.62500	-2
0.62867	-2
0.63233	-2
0.63600	-2
0.63967	-2
0.64333	-2
0.64700	-1
0.65067	-1
0.65433	-2
0.65800	-2
0.66167	-2
0.66533	-3
0.66900	-3
0.67267	-3
0.67633	-3
0.68000	-4
0.68367	-4
0.68733	-3
0.69100	-3
0.69467	-3
0.69833	-3
0.70200	-3
0.70567	-2
0.70933	-2
0.71300	-2
0.71667	-2
0.72033	-2
0.72400	-1
0.72767	-1
0.73133	-1
0.73500	-1
0.73867	-2
0.74233	-2
0.74600	-2
0.74967	-2
0.75333	-2
0.75700	-2
0.76067	-2
0.76433	-2
0.76800	-2
0.77167	-3
0.77533	-3
0.77900	-3
0.78267	-4
0.78633	-4
0.79000	-4
0.79367	-4
0.79733	-4
0.80100	-4
0.80467	-4
0.80833	-4
0.81200	-5
0.81567	-5
0.81933	-4
0.82300	-4
0.82667	-4
0.83033	-4
0.83400	-4
0.83767	-4
0.84133	-4
0.84500	-4
0.84867	-3
0.85233	-3
0.85600	-3
0.85967	-4
0.86333	-4
0.86700	-4
0.87067	-5
0.87433	-5
0.87800	-5
0.88167	-5
0.88533	-5
0.88900	-5
0.89267	-5
0.89633	-5
0.90000	-4
0.90367	-4
0.90733	-4
0.91100	-4
0.91467	-3
0.91833	-3
0.92200	-3
0.92567	-2
0.92933	-2
0.93300	-2
0.93667	-2
0.94033	-2
0.94400	-1
0.94767	-1
0.95133	-0
0.95500	-0
0.95867	-0
0.96233	0
0.96600	0
0.96967	0
0.97333	0
0.97700	0
0.98067	0
0.98433	0
0.98800	0
0.99167	-0
0.99533	-0
0.99900	-1
1.00267	-1
1.00633	-1
1.01000	-2
1.01367	-2
1.01733	-2
1.02100	-2
1.02467	-2
1.02833	-3
1.03200	-3
1.03567	-3
1.03933	-3
1.04300	-3
1.04667	-3
1.05033	-3
1.05400	-3
1.05767	-3
1.06133	-3
1.06500	-3
1.06867	-3
1.07233	-3
1.07600	-3
1.07967	-3
1.08333	-3
1.08700	-3
1.09067	-3
1.09433	-3
1.09800	-3
1.10167	-3
1.10533	-3
1.10900	-3
1.11267	-3
1.11633	-4
1.12000	-4
1.12367	-4
1.12733	-4
1.13100	-5
1.13467	-5
1.13833	-5
1.14200	-5
1.14567	-5
1.14933	-5
1.15300	-5
1.15667	-5
1.16033	-5
1.16400	-4
1.16767	-4
1.17133	-4
1.17500	-3
1.17867	-3
1.18233	-3
1.18600	-2
1.18967	-2
1.19333	-2
1.19700	-2
1.20067	-2
1.20433	-2
1.20800	-1
1.21167	-1
1.21533	-1
1.21900	-2
1.22267	-2
1.22633	-2
1.23000	-2
1.23367	-3
1.23733	-3
1.24100	-3
1.24467	-3
1.24833	-3
1.25200	-3
1.25567	-3
1.25933	-4
1.26300	-4
1.26667	-4
1.27033	-3
1.27400	-4
1.27767	-4
1.28133	-4
1.28500	-4
1.28867	-4
1.29233	-4
1.29600	-5
1.29967	-5
1.30333	-5
1.30700	-5
1.31067	-5
1.31433	-5
1.31800	-5
1.32167	-5
1.32533	-6
1.32900	-6
1.33267	-6
1.33633	-6
1.34000	-6
1.34367	-6
1.34733	-6
1.35100	-6
1.35467	-5
1.35833	-5
1.36200	-5
1.36567	-5
1.36933	-5
1.37300	-5
1.37667	-5
1.38033	-4
1.38400	-4
1.38767	-4
1.39133	-4
1.39500	-4
1.39867	-4
1.40233	-5
1.40600	-5
1.40967	-5
1.41333	-5
1.41700	-6
1.42067	-6
1.42433	-6
1.42800	-7
1.43167	-7
1.43533	-7
1.43900	-7
1.44267	-7
1.44633	-7
1.45000	-7
1.45367	-7
1.45733	-7
1.46100	-6
1.46467	-6
1.46833	-6
1.47200	-5
1.47567	-5
1.47933	-4
1.48300	-4
1.48667	-3
1.49033	-3
1.49400	-3
1.49767	-3
1.50133	-3
1.50500	-3
1.50867	-3
1.51233	-4
1.51600	-4
1.51967	-4
1.52333	-4
1.52700	-5
1.53067	-5
1.53433	-5
1.53800	-5
1.54167	-5
1.54533	-5
1.54900	-5
1.55267	-5
1.55633	-5
1.56000	-5
1.56367	-5
1.56733	-5
1.57100	-5
1.57467	-4
1.57833	-4
1.58200	-4
1.58567	-4
1.58933	-5
1.59300	-5
1.59667	-5
1.60033	-6
1.60400	-7
1.60767	-9
1.61133	-11
1.61500	-13
1.61867	-15
1.62233	-18
1.62600	-20
1.62967	-23
1.63333	-26
1.63700	-30
1.64067	-33
1.64433	-37
1.64800	-41
1.65167	-44
1.65533	-48
1.65900	-52
1.66267	-56
1.66633	-60
1.67000	-65
1.67367	-70
1.67733	-75
1.68100	-80
1.68467	-85
1.68833	-89
1.69200	-93
1.69567	-96
1.69933	-99
1.70300	-102
1.70667	-104
1.71033	-105
1.71400	-106
1.71767	-107
1.72133	-108
1.72500	-108
1.72867	-109
1.73233	-110
1.73600	-110
1.73967	-111
1.74333	-112
1.74700	-112
1.75067	-112
1.75433	-112
1.75800	-112
1.76167	-111
1.76533	-111
1.76900	-111
1.77267	-111
1.77633	-112
1.78000	-112
1.78367	-112
1.78733	-113
1.79100	-113
1.79467	-114
1.79833	-115
1.80200	-115
1.80567	-116
1.80933	-116
1.81300	-116
1.81667	-116
1.82033	-116
1.82400	-116
1.82767	-117
1.83133	-117
1.83500	-117
1.83867	-117
1.84233	-117
1.84600	-117
1.84967	-117
1.85333	-117
1.85700	-117
1.86067	-117
1.86433	-117
1.86800	-117
1.87167	-117
1.87533	-116
1.87900	-117
1.88267	-117
1.88633	-117
1.89000	-117
1.89367	-117
1.89733	-117
1.90100	-116
1.90467	-116
1.90833	-115
1.91200	-114
1.91567	-113
1.91933	-113
1.92300	-113
1.92667	-113
1.93033	-113
1.93400	-113
1.93767	-114
1.94133	-114
1.94500	-115
1.94867	-115
1.95233	-114
1.95600	-114
1.95967	-113
1.96333	-113
1.96700	-112
1.97067	-112
1.97433	-112
1.97800	-111
1.98167	-111
1.98533	-110
1.98900	-110
1.99267	-109
1.99633	-109
2.00000	-110
2.00367	-110
2.00733	-110
2.01100	-110
2.01467	-110
2.01833	-110
2.02200	-109
2.02567	-109
2.02933	-109
2.03300	-108
2.03667	-108
2.04033	-107
2.04400	-107
2.04767	-107
2.05133	-106
2.05500	-106
2.05867	-105
2.06233	-105
2.06600	-104
2.06967	-104
2.07333	-104
2.07700	-103
2.08067	-103
2.08433	-104
2.08800	-103
2.09167	-103
2.09533	-103
2.09900	-103
2.10267	-103
2.10633	-103
2.11000	-103
2.11367	-103
2.11733	-102
2.12100	-102
2.12467	-101
2.12833	-101
2.13200	-101
2.13567	-100
2.13933	-100
2.14300	-100
2.14667	-100
2.15033	-100
2.15400	-100
2.15767	-99
2.16133	-99
2.16500	-98
2.16867	-98
2.17233	-98
2.17600	-97
2.17967	-97
2.18333	-96
2.18700	-96
2.19067	-96
2.19433	-95
2.19800	-95
2.20167	-94
2.20533	-93
2.20900	-92
2.21267	-91
2.21633	-90
2.22000	-90
2.22367	-90
2.22733	-89
2.23100	-89
2.23467	-89
2.23833	-89
2.24200	-89
2.24567	-89
2.24933	-89
2.25300	-89
2.25667	-88
2.26033	-87
2.26400	-86
2.26767	-86
2.27133	-85
2.27500	-84
2.27867	-84
2.28233	-84
2.28600	-84
2.28967	-84
2.29333	-84
2.29700	-84
2.30067	-85
2.30433	-85
2.30800	-85
2.31167	-84
2.31533	-84
2.31900	-83
2.32267	-83
2.32633	-82
2.33000	-82
2.33367	-82
2.33733	-82
2.34100	-81
2.34467	-82
2.34833	-82
2.35200	-81
2.35567	-81
2.35933	-79
2.36300	-77
2.36667	-75
2.37033	-72
2.37400	-69
2.37767	-65
2.38133	-61
2.38500	-57
2.38867	-53
2.39233	-48
2.39600	-43
2.39967	-39
2.40333	-34
2.40700	-30
2.41067	-27
2.41433	-23
2.41800	-21
2.42167	-18
2.42533	-16
2.42900	-14
2.43267	-13
2.43633	-12
2.44000	-10
2.44367	-9
2.44733	-8
2.45100	-8
2.45467	-7
2.45833	-6
2.46200	-6
2.46567	-5
2.46933	-5
2.47300	-4
2.47667	-3
2.48033	-2
2.48400	-1
2.48767	-1
2.49133	0
2.49500	1
2.49867	2
2.50233	3
2.50600	5
2.50967	6
2.51333	7
2.51700	7
2.52067	8
2.52433	8
2.52800	8
2.53167	8
2.53533	8
2.53900	9
2.54267	9
2.54633	10
2.55000	10
2.55367	10
2.55733	10
2.56100	11
2.56467	11
2.56833	12
2.57200	12
2.57567	12
2.57933	12
2.58300	12
2.58667	12
2.59033	13
2.59400	13
2.59767	13
2.60133	14
2.60500	14
2.60867	15
2.61233	15
2.61600	15
2.61967	15
2.62333	14
2.62700	14
2.63067	14
2.63433	14
2.63800	14
2.64167	15
2.64533	15
2.64900	15
2.65267	15
2.65633	16
2.66000	16
2.66367	17
2.66733	17
2.67100	17
2.67467	17
2.67833	17
2.68200	17
2.68567	17
2.68933	17
2.69300	18
2.69667	18
2.70033	19
2.70400	19
2.70767	20
2.71133	21
2.71500	22
2.71867	22
2.72233	23
2.72600	23
2.72967	23
2.73333	23
2.73700	23
2.74067	23
2.74433	23
2.74800	23
2.75167	22
2.75533	22
2.75900	22
2.76267	22
2.76633	22
2.77000	22
2.77367	22
2.77733	22
2.78100	22
2.78467	23
2.78833	23
2.79200	24
2.79567	24
2.79933	24
2.80300	24
2.80667	24
2.81033	24
2.81400	24
2.81767	24
2.82133	24
2.82500	25
2.82867	25
2.83233	24
2.83600	24
2.83967	23
2.84333	21
2.84700	19
2.85067	15
2.85433	8
2.85800	-1
2.86167	-15
2.86533	-33
2.86900	-56
2.87267	-84
2.87633	-118
2.88000	-158
2.88367	-203
2.88733	-254
2.89100	-310
2.89467	-370
2.89833	-436
2.90200	-505
2.90567	-577
2.90933	-653
2.91300	-732
2.91667	-814
2.92033	-898
2.92400	-985
2.92767	-1074
2.93133	-1164
2.93500	-1256
2.93867	-1349
2.94233	-1437
2.94600	-1508
2.94967	-1549
2.95333	-1555
2.95700	-1524
2.96067	-1462
2.96433	-1376
2.96800	-1275
2.97167	-1165
2.97533	-1052
2.97900	-942
2.98267	-836
2.98633	-737
2.99000	-646
2.99367	-563
2.99733	-489
3.00100	-424
3.00467	-365
3.00833	-314
3.01200	-269
3.01567	-231
3.01933	-197
3.02300	-168
3.02667	-143
3.03033	-121
3.03400	-102
3.03767	-86
3.04133	-73
3.04500	-61
3.04867	-51
3.05233	-42
3.05600	-35
3.05967	-29
3.06333	-23
3.06700	-19
3.07067	-15
3.07433	-11
3.07800	-8
3.08167	-6
3.08533	-4
3.08900	-2
3.09267	-1
3.09633	0
3.10000	1
3.10367	2
3.10733	2
3.11100	3
3.11467	3
3.11833	4
3.12200	4
3.12567	5
3.12933	5
3.13300	6
3.13667	6
3.14033	7
3.14400	8
3.14767	8
3.15133	9
3.15500	10
3.15867	10
3.16233	10
3.16600	11
3.16967	11
3.17333	11
3.17700	12
3.18067	12
3.18433	13
3.18800	13
3.19167	13
3.19533	14
3.19900	14
3.20267	14
3.20633	15
3.21000	15
3.21367	16
3.21733	16
3.22100	17
3.22467	17
3.22833	18
3.23200	18
3.23567	18
3.23933	18
3.24300	18
3.24667	18
3.25033	18
3.25400	18
3.25767	17
3.26133	18
3.26500	18
3.26867	18
3.27233	18
3.27600	18
3.27967	18
3.28333	18
3.28700	18
3.29067	18
3.29433	18
3.29800	18
3.30167	18
3.30533	18
3.30900	19
3.31267	19
3.31633	19
3.32000	19
3.32367	19
3.32733	19
3.33100	19
3.33467	19
3.33833	19
3.34200	20
3.34567	20
3.34933	20
3.35300	20
3.35667	20
3.36033	21
3.36400	21
3.36767	21
3.37133	22
3.37500	22
3.37867	22
3.38233	23
3.38600	23
3.38967	23
3.39333	23
3.39700	23
3.40067	24
3.40433	24
3.40800	24
3.41167	24
3.41533	24
3.41900	24
3.42267	24
3.42633	24
3.43000	24
3.43367	25
3.43733	25
3.44100	25
3.44467	25
3.44833	25
3.45200	24
3.45567	24
3.45933	24
3.46300	24
3.46667	24
3.47033	24
3.47400	24
3.47767	24
3.48133	24
3.48500	25
3.48867	25
3.49233	25
3.49600	25
3.49967	25
3.50333	25
3.50700	25
3.51067	25
3.51433	24
3.51800	24
3.52167	24
3.52533	24
3.52900	24
3.53267	24
3.53633	24
3.54000	24
3.54367	24
3.54733	24
3.55100	24
3.55467	24
3.55833	24
3.56200	23
3.56567	23
3.56933	23
3.57300	23
3.57667	23
3.58033	23
3.58400	23
3.58767	23
3.59133	23
3.59500	23
3.59867	23
3.60233	23
3.60600	23
3.60967	23
3.61333	23
3.61700	23
3.62067	23
3.62433	23
3.62800	23
3.63167	23
3.63533	23
3.63900	23
3.64267	23
3.64633	22
3.65000	22
3.65367	22
3.65733	22
3.66100	22
3.66467	22
3.66833	22
3.67200	22
3.67567	22
3.67933	22
3.68300	23
3.68667	23
3.69033	23
3.69400	23
3.69767	23
3.70133	23
3.70500	24
3.70867	24
3.71233	24
3.71600	23
3.71967	23
3.72333	23
3.72700	23
3.73067	23
3.73433	23
3.73800	23
3.74167	22
3.74533	22
3.74900	22
3.75267	22
3.75633	22
3.76000	22
3.76367	22
3.76733	22
3.77100	22
3.77467	22
3.77833	22
3.78200	22
3.78567	22
3.78933	22
3.79300	22
3.79667	21
3.80033	21
3.80400	21
3.80767	21
3.81133	21
3.81500	21
3.81867	21
3.82233	21
3.82600	22
3.82967	22
3.83333	22
3.83700	22
3.84067	22
3.84433	21
3.84800	22
3.85167	22
3.85533	22
3.85900	22
3.86267	22
3.86633	22
3.87000	23
3.87367	23
3.87733	23
3.88100	23
3.88467	23
3.88833	23
3.89200	23
3.89567	23
3.89933	23
3.90300	23
3.90667	23
3.91033	22
3.91400	22
3.91767	22
3.92133	22
3.92500	22
3.92867	22
3.93233	22
3.93600	22
3.93967	22
3.94333	23
3.94700	23
3.95067	23
3.95433	24
3.95800	24
3.96167	24
3.96533	24
3.96900	24
3.97267	24
3.97633	24
3.98000	23
3.98367	23
3.98733	23
3.99100	23
3.99467	23
3.99833	23

[Chromatogram (Ch3)]
Interval(msec)	220
# of Points	1091
Start Time(min)	0.002
End Time(min)	3.998
R.Time (min)	Intensity
0.00167	0
0.00533	-0
0.00900	-1
0.01267	-1
0.01633	-1
0.02000	-1
0.02367	-2
0.02733	-4
0.03100	-4
0.03467	-3
0.03833	-3
0.04200	-3
0.04567	-2
0.04933	-2
0.05300	-3
0.05667	-4
0.06033	-4
0.06400	-4
0.06767	-5
0.07133	-3
0.07500	-3
0.07867	-4
0.08233	-5
0.08600	-6
0.08967	-8
0.09333	-7
0.09700	-5
0.10067	-5
0.10433	-3
0.10800	-1
0.11167	0
0.11533	0
0.11900	0
0.12267	-1
0.12633	-4
0.13000	-5
0.13367	-5
0.13733	-4
0.14100	-4
0.14467	-4
0.14833	-4
0.15200	-3
0.15567	-2
0.15933	0
0.16300	1
0.16667	3
0.17033	3
0.17400	4
0.17767	6
0.18133	5
0.18500	1
0.18867	-1
0.19233	-1
0.19600	0
0.19967	1
0.20333	1
0.20700	0
0.21067	0
0.21433	2
0.21800	4
0.22167	6
0.22533	7
0.22900	6
0.23267	5
0.23633	6
0.24000	7
0.24367	8
0.24733	8
0.25100	7
0.25467	5
0.25833	4
0.26200	2
0.26567	2
0.26933	3
0.27300	2
0.27667	2
0.28033	3
0.28400	3
0.28767	2
0.29133	-0
0.29500	-1
0.29867	1
0.30233	3
0.30600	4
0.30967	5
0.31333	6
0.31700	6
0.32067	6
0.32433	2
0.32800	-2
0.33167	-3
0.33533	-2
0.33900	-1
0.34267	-1
0.34633	-2
0.35000	-3
0.35367	-2
0.35733	0
0.36100	-0
0.36467	-0
0.36833	-2
0.37200	-1
0.37567	-0
0.37933	1
0.38300	1
0.38667	0
0.39033	-1
0.39400	-1
0.39767	-2
0.40133	-4
0.40500	-4
0.40867	-3
0.41233	1
0.41600	3
0.41967	4
0.42333	2
0.42700	1
0.43067	0
0.43433	-2
0.43800	-2
0.44167	-3
0.44533	-1
0.44900	-2
0.45267	-2
0.45633	-0
0.46000	-1
0.46367	-0
0.46733	-1
0.47100	-3
0.47467	-2
0.47833	-0
0.48200	1
0.48567	2
0.48933	2
0.49300	2
0.49667	3
0.50033	4
0.50400	2
0.50767	1
0.51133	-1
0.51500	-2
0.51867	-2
0.52233	-1
0.52600	-1
0.52967	-2
0.53333	-1
0.53700	-0
0.54067	2
0.54433	1
0.54800	-2
0.55167	-4
0.55533	-5
0.55900	-5
0.56267	-4
0.56633	-4
0.57000	-4
0.57367	-4
0.57733	-4
0.58100	-2
0.58467	-2
0.58833	-3
0.59200	-3
0.59567	-3
0.59933	-3
0.60300	-3
0.60667	-4
0.61033	-3
0.61400	-1
0.61767	0
0.62133	1
0.62500	-1
0.62867	-4
0.63233	-5
0.63600	-4
0.63967	-3
0.64333	-2
0.64700	-2
0.65067	-3
0.65433	-2
0.65800	-0
0.66167	0
0.66533	-1
0.66900	-0
0.67267	-1
0.67633	-3
0.68000	-7
0.68367	-9
0.68733	-6
0.69100	-5
0.69467	-7
0.69833	-10
0.70200	-9
0.70567	-6
0.70933	-4
0.71300	-2
0.71667	-1
0.72033	-2
0.72400	-3
0.72767	-3
0.73133	-2
0.73500	-0
0.73867	1
0.74233	-1
0.74600	-4
0.74967	-5
0.75333	-6
0.75700	-5
0.76067	-5
0.76433	-6
0.76800	-7
0.77167	-6
0.77533	-5
0.77900	-6
0.78267	-8
0.78633	-7
0.79000	-7
0.79367	-5
0.79733	-3
0.80100	-3
0.80467	-3
0.80833	-2
0.81200	-0
0.81567	1
0.81933	-1
0.82300	-4
0.82667	-4
0.83033	-3
0.83400	-2
0.83767	-1
0.84133	-2
0.84500	-2
0.84867	-1
0.85233	1
0.85600	3
0.85967	4
0.86333	1
0.86700	-2
0.87067	-1
0.87433	0
0.87800	1
0.88167	-0
0.88533	-3
0.88900	-6
0.89267	-6
0.89633	-4
0.90000	-2
0.90367	-1
0.90733	2
0.91100	5
0.91467	3
0.91833	-0
0.92200	-2
0.92567	-3
0.92933	-2
0.93300	-2
0.93667	-2
0.94033	-2
0.94400	-1
0.94767	-1
0.95133	-1
0.95500	-0
0.95867	1
0.96233	0
0.96600	-1
0.96967	-2
0.97333	-1
0.97700	0
0.98067	1
0.98433	2
0.98800	2
0.99167	-1
0.99533	-4
0.99900	-5
1.00267	-4
1.00633	-3
1.01000	-3
1.01367	-1
1.01733	-1
1.02100	-0
1.02467	1
1.02833	1
1.03200	1
1.03567	2
1.03933	3
1.04300	5
1.04667	7
1.05033	6
1.05400	7
1.05767	6
1.06133	6
1.06500	5
1.06867	4
1.07233	5
1.07600	7
1.07967	6
1.08333	7
1.08700	6
1.09067	7
1.09433	7
1.09800	7
1.10167	7
1.10533	5
1.10900	5
1.11267	5
1.11633	5
1.12000	6
1.12367	8
1.12733	9
1.13100	9
1.13467	8
1.13833	7
1.14200	6
1.14567	4
1.14933	2
1.15300	3
1.15667	4
1.16033	6
1.16400	8
1.16767	9
1.17133	8
1.17500	6
1.17867	4
1.18233	3
1.18600	3
1.18967	3
1.19333	3
1.19700	3
1.20067	3
1.20433	4
1.20800	4
1.21167	3
1.21533	5
1.21900	4
1.22267	3
1.22633	4
1.23000	4
1.23367	4
1.23733	4
1.24100	6
1.24467	6
1.24833	6
1.25200	4
1.25567	5
1.25933	6
1.26300	7
1.26667	7
1.27033	5
1.27400	4
1.27767	4
1.28133	3
1.28500	3
1.28867	4
1.29233	5
1.29600	5
1.29967	7
1.30333	6
1.30700	5
1.31067	4
1.31433	2
1.31800	2
1.32167	3
1.32533	5
1.32900	7
1.33267	7
1.33633	6
1.34000	6
1.34367	7
1.34733	9
1.35100	8
1.35467	6
1.35833	7
1.36200	9
1.36567	9
1.36933	6
1.37300	4
1.37667	5
1.38033	5
1.38400	7
1.38767	10
1.39133	10
1.39500	9
1.39867	10
1.40233	11
1.40600	11
1.40967	12
1.41333	12
1.41700	12
1.42067	11
1.42433	11
1.42800	11
1.43167	11
1.43533	9
1.43900	9
1.44267	10
1.44633	10
1.45000	10
1.45367	10
1.45733	12
1.46100	13
1.46467	13
1.46833	13
1.47200	12
1.47567	11
1.47933	11
1.48300	13
1.48667	17
1.49033	18
1.49400	16
1.49767	12
1.50133	9
1.50500	7
1.50867	8
1.51233	9
1.51600	9
1.51967	8
1.52333	9
1.52700	10
1.53067	11
1.53433	10
1.53800	10
1.54167	12
1.54533	14
1.54900	16
1.55267	16
1.55633	14
1.56000	13
1.56367	14
1.56733	15
1.57100	16
1.57467	15
1.57833	13
1.58200	13
1.58567	13
1.58933	11
1.59300	10
1.59667	10
1.60033	10
1.60400	9
1.60767	8
1.61133	9
1.61500	11
1.61867	12
1.62233	11
1.62600	11
1.62967	12
1.63333	14
1.63700	15
1.64067	14
1.64433	14
1.64800	17
1.65167	18
1.65533	17
1.65900	17
1.66267	18
1.66633	17
1.67000	19
1.67367	23
1.67733	25
1.68100	27
1.68467	26
1.68833	25
1.69200	25
1.69567	26
1.69933	28
1.70300	31
1.70667	34
1.71033	35
1.71400	36
1.71767	36
1.72133	36
1.72500	36
1.72867	35
1.73233	32
1.73600	33
1.73967	34
1.74333	34
1.74700	34
1.75067	32
1.75433	32
1.75800	32
1.76167	32
1.76533	32
1.76900	33
1.77267	34
1.77633	34
1.78000	33
1.78367	34
1.78733	36
1.79100	37
1.79467	39
1.79833	39
1.80200	40
1.80567	39
1.80933	38
1.81300	39
1.81667	40
1.82033	42
1.82400	43
1.82767	42
1.83133	41
1.83500	41
1.83867	41
1.84233	42
1.84600	46
1.84967	48
1.85333	48
1.85700	47
1.86067	45
1.86433	43
1.86800	44
1.87167	46
1.87533	49
1.87900	51
1.88267	52
1.88633	52
1.89000	52
1.89367	53
1.89733	54
1.90100	55
1.90467	55
1.90833	56
1.91200	58
1.91567	61
1.91933	65
1.92300	65
1.92667	64
1.93033	62
1.93400	61
1.93767	62
1.94133	65
1.94500	66
1.94867	68
1.95233	70
1.95600	71
1.95967	75
1.96333	76
1.96700	76
1.97067	74
1.97433	74
1.97800	75
1.98167	75
1.98533	75
1.98900	76
1.99267	78
1.99633	79
2.00000	80
2.00367	80
2.00733	82
2.01100	82
2.01467	81
2.01833	83
2.02200	85
2.02567	87
2.02933	90
2.03300	90
2.03667	91
2.04033	90
2.04400	91
2.04767	94
2.05133	97
2.05500	100
2.05867	100
2.06233	102
2.06600	104
2.06967	108
2.07333	110
2.07700	110
2.08067	110
2.08433	108
2.08800	108
2.09167	110
2.09533	113
2.09900	115
2.10267	116
2.10633	118
2.11000	122
2.11367	125
2.11733	124
2.12100	122
2.12467	121
2.12833	123
2.13200	124
2.13567	124
2.13933	127
2.14300	129
2.14667	130
2.15033	131
2.15400	133
2.15767	136
2.16133	137
2.16500	140
2.16867	142
2.17233	145
2.17600	147
2.17967	148
2.18333	149
2.18700	148
2.19067	149
2.19433	151
2.19800	154
2.20167	156
2.20533	156
2.20900	157
2.21267	158
2.21633	157
2.22000	157
2.22367	159
2.22733	161
2.23100	164
2.23467	168
2.23833	171
2.24200	171
2.24567	174
2.24933	177
2.25300	179
2.25667	178
2.26033	176
2.26400	174
2.26767	173
2.27133	174
2.27500	173
2.27867	175
2.28233	179
2.28600	181
2.28967	182
2.29333	182
2.29700	182
2.30067	183
2.30433	184
2.30800	184
2.31167	186
2.31533	187
2.31900	186
2.32267	189
2.32633	194
2.33000	198
2.33367	200
2.33733	201
2.34100	202
2.34467	203
2.34833	203
2.35200	204
2.35567	206
2.35933	208
2.36300	210
2.36667	212
2.37033	214
2.37400	215
2.37767	214
2.38133	214
2.38500	213
2.38867	212
2.39233	212
2.39600	214
2.39967	216
2.40333	218
2.40700	221
2.41067	225
2.41433	227
2.41800	229
2.42167	231
2.42533	234
2.42900	234
2.43267	233
2.43633	234
2.44000	236
2.44367	294
2.44733	450
2.45100	621
2.45467	764
2.45833	845
2.46200	852
2.46567	818
2.46933	773
2.47300	737
2.47667	714
2.48033	695
2.48400	665
2.48767	619
2.49133	567
2.49500	519
2.49867	481
2.50233	455
2.50600	440
2.50967	436
2.51333	442
2.51700	461
2.52067	485
2.52433	506
2.52800	518
2.53167	514
2.53533	497
2.53900	470
2.54267	437
2.54633	406
2.55000	374
2.55367	344
2.55733	319
2.56100	300
2.56467	289
2.56833	279
2.57200	273
2.57567	270
2.57933	267
2.58300	268
2.58667	271
2.59033	276
2.59400	279
2.59767	283
2.60133	287
2.60500	291
2.60867	294
2.61233	293
2.61600	291
2.61967	286
2.62333	283
2.62700	278
2.63067	271
2.63433	263
2.63800	256
2.64167	247
2.64533	235
2.64900	222
2.65267	208
2.65633	195
2.66000	181
2.66367	166
2.66733	152
2.67100	140
2.67467	131
2.67833	121
2.68200	113
2.68567	107
2.68933	103
2.69300	100
2.69667	97
2.70033	95
2.70400	98
2.70767	102
2.71133	107
2.71500	109
2.71867	111
2.72233	111
2.72600	114
2.72967	118
2.73333	121
2.73700	122
2.74067	123
2.74433	124
2.74800	128
2.75167	132
2.75533	136
2.75900	140
2.76267	142
2.76633	144
2.77000	147
2.77367	150
2.77733	150
2.78100	152
2.78467	155
2.78833	159
2.79200	163
2.79567	169
2.79933	178
2.80300	186
2.80667	191
2.81033	196
2.81400	202
2.81767	214
2.82133	238
2.82500	289
2.82867	403
2.83233	621
2.83600	1009
2.83967	1635
2.84333	2544
2.84700	3752
2.85067	5231
2.85433	6910
2.85800	8688
2.86167	10433
2.86533	12006
2.86900	13297
2.87267	14214
2.87633	14715
2.88000	14802
2.88367	14522
2.88733	13947
2.89100	13153
2.89467	12220
2.89833	11213
2.90200	10183
2.90567	9178
2.90933	8220
2.91300	7325
2.91667	6500
2.92033	5749
2.92400	5075
2.92767	4472
2.93133	3934
2.93500	3458
2.93867	3037
2.94233	2668
2.94600	2342
2.94967	2055
2.95333	1806
2.95700	1587
2.96067	1395
2.96433	1230
2.96800	1087
2.97167	962
2.97533	856
2.97900	762
2.98267	681
2.98633	610
2.99000	550
2.99367	498
2.99733	454
3.00100	415
3.00467	381
3.00833	353
3.01200	328
3.01567	306
3.01933	286
3.02300	270
3.02667	256
3.03033	245
3.03400	234
3.03767	226
3.04133	218
3.04500	209
3.04867	204
3.05233	201
3.05600	199
3.05967	194
3.06333	190
3.06700	189
3.07067	188
3.07433	188
3.07800	188
3.08167	187
3.08533	185
3.08900	182
3.09267	179
3.09633	166
3.10000	141
3.10367	124
3.10733	125
3.11100	142
3.11467	171
3.11833	211
3.12200	253
3.12567	297
3.12933	343
3.13300	385
3.13667	423
3.14033	459
3.14400	490
3.14767	516
3.15133	537
3.15500	557
3.15867	575
3.16233	591
3.16600	605
3.16967	619
3.17333	630
3.17700	641
3.18067	652
3.18433	663
3.18800	672
3.19167	680
3.19533	685
3.19900	690
3.20267	696
3.20633	702
3.21000	709
3.21367	716
3.21733	722
3.22100	727
3.22467	731
3.22833	736
3.23200	743
3.23567	752
3.23933	761
3.24300	769
3.24667	773
3.25033	774
3.25400	776
3.25767	779
3.26133	783
3.26500	787
3.26867	792
3.27233	798
3.27600	804
3.27967	807
3.28333	810
3.28700	814
3.29067	817
3.29433	818
3.29800	820
3.30167	823
3.30533	827
3.30900	832
3.31267	837
3.31633	839
3.32000	839
3.32367	839
3.32733	837
3.33100	836
3.33467	836
3.33833	837
3.34200	837
3.34567	836
3.34933	836
3.35300	837
3.35667	838
3.36033	838
3.36400	839
3.36767	837
3.37133	834
3.37500	832
3.37867	830
3.38233	829
3.38600	828
3.38967	829
3.39333	831
3.39700	832
3.40067	831
3.40433	830
3.40800	825
3.41167	820
3.41533	818
3.41900	818
3.42267	815
3.42633	810
3.43000	806
3.43367	805
3.43733	805
3.44100	806
3.44467	805
3.44833	801
3.45200	798
3.45567	797
3.45933	796
3.46300	794
3.46667	793
3.47033	794
3.47400	795
3.47767	797
3.48133	797
3.48500	794
3.48867	791
3.49233	789
3.49600	788
3.49967	786
3.50333	783
3.50700	780
3.51067	779
3.51433	776
3.51800	774
3.52167	774
3.52533	774
3.52900	773
3.53267	773
3.53633	775
3.54000	774
3.54367	771
3.54733	770
3.55100	770
3.55467	770
3.55833	770
3.56200	769
3.56567	768
3.56933	765
3.57300	763
3.57667	762
3.58033	761
3.58400	759
3.58767	757
3.59133	757
3.59500	758
3.59867	759
3.60233	761
3.60600	760
3.60967	759
3.61333	757
3.61700	755
3.62067	755
3.62433	754
3.62800	752
3.63167	750
3.63533	748
3.63900	746
3.64267	745
3.64633	744
3.65000	741
3.65367	738
3.65733	736
3.66100	735
3.66467	737
3.66833	735
3.67200	733
3.67567	732
3.67933	730
3.68300	728
3.68667	728
3.69033	726
3.69400	722
3.69767	719
3.70133	717
3.70500	714
3.70867	711
3.71233	709
3.71600	707
3.71967	706
3.72333	704
3.72700	701
3.73067	699
3.73433	697
3.73800	696
3.74167	692
3.74533	690
3.74900	689
3.75267	690
3.75633	688
3.76000	685
3.76367	683
3.76733	680
3.77100	678
3.77467	676
3.77833	676
3.78200	675
3.78567	672
3.78933	668
3.79300	665
3.79667	664
3.80033	663
3.80400	660
3.80767	659
3.81133	657
3.81500	653
3.81867	650
3.82233	649
3.82600	647
3.82967	645
3.83333	644
3.83700	644
3.84067	644
3.84433	642
3.84800	638
3.85167	635
3.85533	632
3.85900	630
3.86267	629
3.86633	627
3.87000	624
3.87367	622
3.87733	621
3.88100	621
3.88467	620
3.88833	619
3.89200	618
3.89567	616
3.89933	611
3.90300	610
3.90667	608
3.91033	605
3.91400	605
3.91767	605
3.92133	602
3.92500	598
3.92867	596
3.93233	593
3.93600	591
3.93967	591
3.94333	590
3.94700	589
3.95067	588
3.95433	589
3.95800	589
3.96167	586
3.96533	584
3.96900	581
3.97267	579
3.97633	577
3.98000	575
3.98367	574
3.98733	574
3.99100	574
3.99467	572
3.99833	568

[Status Trace (Column Oven Temperature)]
Interval(msec)	1000
# of Points	240
Start Time(min)	0.014
End Time(min)	3.998
Intensity Units	
Intensity Multiplier	1
R.Time (min)	Intensity
0.01430	34.99
0.03097	35.00
0.04763	35.01
0.06430	35.01
0.08097	35.01
0.09763	34.99
0.11430	34.99
0.13097	34.99
0.14763	35.00
0.16430	35.00
0.18097	35.01
0.19763	35.02
0.21430	35.02
0.23097	35.03
0.24763	35.03
0.26430	35.02
0.28097	35.01
0.29763	35.02
0.31430	35.02
0.33097	35.02
0.34763	35.02
0.36430	35.01
0.38097	35.00
0.39763	35.01
0.41430	35.00
0.43097	35.00
0.44763	35.01
0.46430	35.01
0.48097	35.02
0.49763	35.02
0.51430	35.01
0.53097	35.02
0.54763	35.03
0.56430	35.03
0.58097	35.02
0.59763	35.03
0.61430	35.02
0.63097	35.02
0.64763	35.01
0.66430	35.02
0.68097	35.01
0.69763	35.01
0.71430	35.00
0.73097	34.99
0.74763	34.99
0.76430	35.00
0.78097	35.01
0.79763	35.02
0.81430	35.03
0.83097	35.04
0.84763	35.03
0.86430	35.04
0.88097	35.05
0.89763	35.06
0.91430	35.04
0.93097	35.02
0.94763	35.02
0.96430	35.00
0.98097	34.99
0.99763	34.99
1.01430	35.00
1.03097	35.00
1.04763	35.00
1.06430	34.99
1.08097	34.99
1.09763	34.99
1.11430	34.99
1.13097	35.00
1.14763	35.01
1.16430	34.99
1.18097	34.99
1.19763	34.98
1.21430	34.98
1.23097	34.98
1.24763	34.98
1.26430	34.97
1.28097	34.98
1.29763	34.99
1.31430	34.99
1.33097	34.99
1.34763	34.99
1.36430	35.00
1.38097	35.00
1.39763	34.99
1.41430	35.01
1.43097	35.02
1.44763	35.02
1.46430	35.01
1.48097	35.00
1.49763	34.99
1.51430	34.99
1.53097	35.00
1.54763	35.00
1.56430	35.00
1.58097	35.00
1.59763	35.03
1.61430	35.12
1.63097	35.25
1.64763	35.46
1.66430	35.75
1.68097	36.11
1.69763	36.47
1.71430	36.80
1.73097	37.15
1.74763	37.48
1.76430	37.79
1.78097	38.12
1.79763	38.47
1.81430	38.81
1.83097	39.15
1.84763	39.46
1.86430	39.80
1.88097	40.13
1.89763	40.47
1.91430	40.78
1.93097	41.11
1.94763	41.44
1.96430	41.77
1.98097	42.08
1.99763	42.41
2.01430	42.74
2.03097	43.05
2.04763	43.38
2.06430	43.70
2.08097	44.04
2.09763	44.38
2.11430	44.71
2.13097	45.03
2.14763	45.37
2.16430	45.68
2.18097	46.00
2.19763	46.33
2.21430	46.63
2.23097	46.96
2.24763	47.29
2.26430	47.63
2.28097	47.95
2.29763	48.29
2.31430	48.61
2.33097	48.94
2.34763	49.31
2.36430	49.53
2.38097	49.63
2.39763	49.64
2.41430	49.63
2.43097	49.64
2.44763	49.65
2.46430	49.66
2.48097	49.66
2.49763	49.67
2.51430	49.67
2.53097	49.70
2.54763	49.72
2.56430	49.73
2.58097	49.74
2.59763	49.76
2.61430	49.79
2.63097	49.82
2.64763	49.84
2.66430	49.84
2.68097	49.86
2.69763	49.86
2.71430	49.84
2.73097	49.84
2.74763	49.85
2.76430	49.86
2.78097	49.86
2.79763	49.85
2.81430	49.84
2.83097	49.85
2.84763	49.87
2.86430	49.88
2.88097	49.89
2.89763	49.89
2.91430	49.90
2.93097	49.91
2.94763	49.92
2.96430	49.92
2.98097	49.94
2.99763	49.95
3.01430	49.96
3.03097	49.95
3.04763	49.95
3.06430	49.95
3.08097	49.95
3.09763	49.98
3.11430	50.01
3.13097	50.03
3.14763	50.03
3.16430	50.04
3.18097	50.05
3.19763	50.06
3.21430	50.06
3.23097	50.05
3.24763	50.06
3.26430	50.07
3.28097	50.09
3.29763	50.10
3.31430	50.10
3.33097	50.11
3.34763	50.11
3.36430	50.10
3.38097	50.08
3.39763	50.08
3.41430	50.07
3.43097	50.06
3.44763	50.06
3.46430	50.04
3.48097	50.03
3.49763	50.03
3.51430	50.03
3.53097	50.03
3.54763	50.03
3.56430	50.03
3.58097	50.03
3.59763	50.02
3.61430	50.03
3.63097	50.03
3.64763	50.04
3.66430	50.05
3.68097	50.05
3.69763	50.04
3.71430	50.04
3.73097	50.05
3.74763	50.06
3.76430	50.06
3.78097	50.07
3.79763	50.08
3.81430	50.07
3.83097	50.08
3.84763	50.07
3.86430	50.07
3.88097	50.06
3.89763	50.06
3.91430	50.07
3.93097	50.07
3.94763	50.07
3.96430	50.07
3.98097	50.08
3.99763	50.08

[Status Trace (Injection Unit Temperature)]
Interval(msec)	1000
# of Points	240
Start Time(min)	0.014
End Time(min)	3.998
Intensity Units	
Intensity Multiplier	1
R.Time (min)	Intensity
0.01430	99.98
0.03097	99.98
0.04763	99.98
0.06430	99.98
0.08097	99.98
0.09763	99.98
0.11430	99.98
0.13097	99.98
0.14763	99.98
0.16430	99.98
0.18097	99.98
0.19763	99.98
0.21430	99.98
0.23097	99.98
0.24763	99.97
0.26430	99.98
0.28097	99.98
0.29763	99.98
0.31430	99.97
0.33097	99.98
0.34763	99.98
0.36430	99.97
0.38097	99.97
0.39763	99.97
0.41430	99.97
0.43097	99.98
0.44763	99.97
0.46430	99.97
0.48097	99.97
0.49763	99.97
0.51430	99.97
0.53097	99.97
0.54763	99.96
0.56430	99.97
0.58097	99.98
0.59763	99.97
0.61430	99.98
0.63097	99.97
0.64763	99.97
0.66430	99.97
0.68097	99.98
0.69763	99.98
0.71430	99.98
0.73097	99.98
0.74763	99.98
0.76430	99.98
0.78097	99.98
0.79763	99.98
0.81430	99.98
0.83097	99.98
0.84763	99.98
0.86430	99.99
0.88097	99.99
0.89763	99.99
0.91430	99.99
0.93097	99.99
0.94763	99.99
0.96430	99.99
0.98097	99.99
0.99763	99.99
1.01430	99.99
1.03097	99.99
1.04763	99.99
1.06430	99.99
1.08097	100.00
1.09763	100.00
1.11430	99.99
1.13097	100.00
1.14763	99.99
1.16430	99.99
1.18097	100.00
1.19763	100.00
1.21430	99.99
1.23097	99.99
1.24763	99.99
1.26430	100.00
1.28097	100.00
1.29763	100.00
1.31430	100.00
1.33097	99.99
1.34763	99.99
1.36430	99.99
1.38097	100.00
1.39763	99.99
1.41430	99.99
1.43097	99.99
1.44763	99.99
1.46430	99.99
1.48097	99.99
1.49763	99.99
1.51430	99.99
1.53097	99.99
1.54763	99.99
1.56430	99.99
1.58097	99.98
1.59763	99.99
1.61430	99.99
1.63097	99.99
1.64763	99.99
1.66430	99.99
1.68097	99.99
1.69763	99.99
1.71430	99.98
1.73097	99.99
1.74763	99.99
1.76430	99.99
1.78097	99.98
1.79763	99.98
1.81430	99.98
1.83097	99.98
1.84763	99.98
1.86430	99.98
1.88097	99.98
1.89763	99.98
1.91430	99.98
1.93097	99.98
1.94763	99.98
1.96430	99.97
1.98097	99.98
1.99763	99.98
2.01430	99.98
2.03097	99.97
2.04763	99.98
2.06430	99.98
2.08097	99.98
2.09763	99.97
2.11430	99.98
2.13097	99.98
2.14763	99.97
2.16430	99.97
2.18097	99.98
2.19763	99.97
2.21430	99.98
2.23097	99.97
2.24763	99.97
2.26430	99.98
2.28097	99.97
2.29763	99.97
2.31430	99.97
2.33097	99.97
2.34763	99.97
2.36430	99.97
2.38097	99.97
2.39763	99.97
2.41430	99.97
2.43097	99.97
2.44763	99.97
2.46430	99.98
2.48097	99.98
2.49763	99.98
2.51430	99.98
2.53097	99.98
2.54763	99.97
2.56430	99.98
2.58097	99.98
2.59763	99.98
2.61430	99.98
2.63097	99.98
2.64763	99.98
2.66430	99.99
2.68097	99.99
2.69763	99.99
2.71430	99.99
2.73097	99.99
2.74763	99.99
2.76430	99.99
2.78097	99.99
2.79763	100.00
2.81430	100.00
2.83097	99.99
2.84763	100.00
2.86430	100.00
2.88097	100.00
2.89763	100.00
2.91430	100.01
2.93097	100.01
2.94763	100.01
2.96430	100.01
2.98097	100.01
2.99763	100.01
3.01430	100.01
3.03097	100.01
3.04763	100.02
3.06430	100.02
3.08097	100.02
3.09763	100.02
3.11430	100.02
3.13097	100.02
3.14763	100.02
3.16430	100.02
3.18097	100.02
3.19763	100.02
3.21430	100.03
3.23097	100.03
3.24763	100.03
3.26430	100.03
3.28097	100.03
3.29763	100.03
3.31430	100.03
3.33097	100.03
3.34763	100.03
3.36430	100.03
3.38097	100.04
3.39763	100.03
3.41430	100.04
3.43097	100.04
3.44763	100.04
3.46430	100.04
3.48097	100.04
3.49763	100.04
3.51430	100.03
3.53097	100.04
3.54763	100.04
3.56430	100.04
3.58097	100.04
3.59763	100.04
3.61430	100.04
3.63097	100.04
3.64763	100.03
3.66430	100.03
3.68097	100.04
3.69763	100.04
3.71430	100.04
3.73097	100.04
3.74763	100.04
3.76430	100.04
3.78097	100.04
3.79763	100.04
3.81430	100.04
3.83097	100.04
3.84763	100.04
3.86430	100.04
3.88097	100.04
3.89763	100.04
3.91430	100.04
3.93097	100.04
3.94763	100.04
3.96430	100.04
3.98097	100.03
3.99763	100.04

[Status Trace (Carrier Gas Pressure)]
Interval(msec)	1000
# of Points	240
Start Time(min)	0.014
End Time(min)	3.998
Intensity Units	
Intensity Multiplier	1
R.Time (min)	Intensity
0.01430	57.55
0.03097	55.52
0.04763	58.02
0.06430	59.83
0.08097	58.66
0.09763	57.98
0.11430	58.00
0.13097	58.01
0.14763	58.01
0.16430	58.00
0.18097	58.00
0.19763	58.00
0.21430	58.00
0.23097	58.00
0.24763	58.00
0.26430	58.00
0.28097	58.00
0.29763	58.00
0.31430	58.00
0.33097	58.00
0.34763	58.00
0.36430	58.00
0.38097	58.00
0.39763	58.00
0.41430	58.00
0.43097	58.00
0.44763	58.00
0.46430	58.00
0.48097	58.00
0.49763	58.00
0.51430	58.00
0.53097	58.00
0.54763	58.00
0.56430	58.00
0.58097	58.00
0.59763	58.00
0.61430	58.00
0.63097	58.00
0.64763	58.00
0.66430	58.00
0.68097	58.00
0.69763	58.00
0.71430	58.00
0.73097	58.00
0.74763	58.00
0.76430	58.00
0.78097	58.00
0.79763	58.00
0.81430	58.00
0.83097	58.00
0.84763	58.00
0.86430	58.00
0.88097	58.00
0.89763	58.00
0.91430	58.00
0.93097	58.00
0.94763	58.00
0.96430	58.00
0.98097	58.00
0.99763	58.00
1.01430	58.00
1.03097	58.00
1.04763	58.00
1.06430	58.00
1.08097	58.00
1.09763	58.00
1.11430	58.00
1.13097	58.00
1.14763	58.00
1.16430	58.00
1.18097	58.00
1.19763	58.00
1.21430	58.00
1.23097	58.00
1.24763	58.00
1.26430	58.00
1.28097	58.00
1.29763	58.00
1.31430	58.00
1.33097	58.00
1.34763	58.00
1.36430	58.00
1.38097	58.00
1.39763	58.00
1.41430	58.00
1.43097	58.00
1.44763	58.00
1.46430	58.00
1.48097	58.00
1.49763	58.00
1.51430	58.00
1.53097	58.00
1.54763	58.00
1.56430	58.00
1.58097	58.00
1.59763	58.00
1.61430	58.00
1.63097	58.00
1.64763	58.00
1.66430	58.01
1.68097	58.01
1.69763	58.00
1.71430	58.00
1.73097	58.00
1.74763	58.00
1.76430	58.00
1.78097	58.00
1.79763	58.00
1.81430	58.00
1.83097	58.00
1.84763	58.00
1.86430	58.00
1.88097	58.00
1.89763	58.00
1.91430	58.00
1.93097	58.00
1.94763	58.00
1.96430	58.00
1.98097	58.00
1.99763	58.00
2.01430	58.00
2.03097	58.00
2.04763	58.00
2.06430	58.00
2.08097	58.00
2.09763	58.00
2.11430	58.00
2.13097	58.00
2.14763	58.00
2.16430	58.00
2.18097	58.00
2.19763	58.00
2.21430	58.00
2.23097	58.00
2.24763	58.00
2.26430	58.00
2.28097	58.00
2.29763	58.00
2.31430	58.00
2.33097	58.00
2.34763	58.00
2.36430	58.00
2.38097	57.99
2.39763	57.99
2.41430	58.00
2.43097	58.00
2.44763	58.00
2.46430	58.00
2.48097	58.00
2.49763	58.00
2.51430	57.99
2.53097	57.99
2.54763	58.00
2.56430	58.00
2.58097	58.00
2.59763	58.00
2.61430	58.00
2.63097	58.00
2.64763	58.00
2.66430	58.00
2.68097	58.00
2.69763	58.00
2.71430	58.00
2.73097	58.00
2.74763	58.00
2.76430	58.00
2.78097	58.00
2.79763	58.00
2.81430	58.00
2.83097	58.00
2.84763	58.00
2.86430	58.00
2.88097	58.00
2.89763	58.00
2.91430	58.00
2.93097	58.00
2.94763	58.00
2.96430	58.00
2.98097	58.00
2.99763	58.00
3.01430	58.00
3.03097	58.00
3.04763	58.00
3.06430	58.00
3.08097	58.00
3.09763	58.00
3.11430	58.00
3.13097	58.00
3.14763	58.00
3.16430	58.00
3.18097	58.00
3.19763	58.00
3.21430	58.00
3.23097	58.00
3.24763	58.00
3.26430	58.00
3.28097	58.00
3.29763	58.00
3.31430	58.00
3.33097	58.00
3.34763	58.00
3.36430	58.00
3.38097	58.00
3.39763	58.00
3.41430	58.00
3.43097	58.00
3.44763	58.00
3.46430	58.00
3.48097	58.00
3.49763	58.00
3.51430	58.00
3.53097	58.00
3.54763	58.00
3.56430	58.00
3.58097	58.00
3.59763	58.00
3.61430	58.00
3.63097	58.00
3.64763	58.00
3.66430	58.00
3.68097	58.00
3.69763	58.00
3.71430	58.00
3.73097	58.00
3.74763	58.00
3.76430	58.00
3.78097	58.00
3.79763	58.00
3.81430	58.00
3.83097	58.00
3.84763	58.00
3.86430	58.00
3.88097	58.00
3.89763	58.00
3.91430	58.00
3.93097	58.00
3.94763	58.00
3.96430	58.00
3.98097	58.00
3.99763	58.00

[Status Trace (Carrier Gas Flow)]
Interval(msec)	1000
# of Points	240
Start Time(min)	0.014
End Time(min)	3.998
Intensity Units	
Intensity Multiplier	1
R.Time (min)	Intensity
0.01430	34.14
0.03097	34.53
0.04763	34.55
0.06430	34.52
0.08097	34.51
0.09763	34.52
0.11430	34.52
0.13097	34.52
0.14763	34.51
0.16430	34.52
0.18097	34.52
0.19763	34.52
0.21430	34.52
0.23097	34.52
0.24763	34.52
0.26430	34.52
0.28097	34.52
0.29763	34.52
0.31430	34.52
0.33097	34.52
0.34763	34.51
0.36430	34.52
0.38097	34.52
0.39763	34.52
0.41430	34.52
0.43097	34.52
0.44763	34.52
0.46430	34.52
0.48097	34.52
0.49763	34.51
0.51430	34.52
0.53097	34.52
0.54763	34.52
0.56430	34.52
0.58097	34.52
0.59763	34.52
0.61430	34.52
0.63097	34.52
0.64763	34.52
0.66430	34.52
0.68097	34.52
0.69763	34.52
0.71430	34.52
0.73097	34.52
0.74763	34.52
0.76430	34.51
0.78097	34.52
0.79763	34.52
0.81430	34.52
0.83097	34.51
0.84763	34.52
0.86430	34.52
0.88097	34.52
0.89763	34.53
0.91430	34.51
0.93097	34.52
0.94763	34.53
0.96430	34.52
0.98097	34.53
0.99763	34.52
1.01430	34.52
1.03097	34.51
1.04763	34.52
1.06430	34.52
1.08097	34.52
1.09763	34.52
1.11430	34.52
1.13097	34.51
1.14763	34.52
1.16430	34.52
1.18097	34.51
1.19763	34.52
1.21430	34.52
1.23097	34.52
1.24763	34.52
1.26430	34.52
1.28097	34.52
1.29763	34.52
1.31430	34.52
1.33097	34.52
1.34763	34.52
1.36430	34.52
1.38097	34.52
1.39763	34.52
1.41430	34.52
1.43097	34.52
1.44763	34.52
1.46430	34.52
1.48097	34.52
1.49763	34.52
1.51430	34.52
1.53097	34.52
1.54763	34.52
1.56430	34.52
1.58097	34.52
1.59763	34.52
1.61430	34.52
1.63097	34.52
1.64763	34.51
1.66430	34.52
1.68097	34.52
1.69763	34.53
1.71430	34.52
1.73097	34.52
1.74763	34.51
1.76430	34.52
1.78097	34.52
1.79763	34.51
1.81430	34.52
1.83097	34.52
1.84763	34.52
1.86430	34.52
1.88097	34.52
1.89763	34.52
1.91430	34.52
1.93097	34.52
1.94763	34.52
1.96430	34.53
1.98097	34.52
1.99763	34.52
2.01430	34.52
2.03097	34.52
2.04763	34.51
2.06430	34.52
2.08097	34.52
2.09763	34.52
2.11430	34.52
2.13097	34.52
2.14763	34.52
2.16430	34.52
2.18097	34.52
2.19763	34.52
2.21430	34.52
2.23097	34.52
2.24763	34.52
2.26430	34.52
2.28097	34.52
2.29763	34.51
2.31430	34.52
2.33097	34.52
2.34763	34.52
2.36430	34.52
2.38097	34.52
2.39763	34.51
2.41430	34.53
2.43097	34.52
2.44763	34.52
2.46430	34.51
2.48097	34.51
2.49763	34.52
2.51430	34.52
2.53097	34.52
2.54763	34.51
2.56430	34.51
2.58097	34.52
2.59763	34.52
2.61430	34.51
2.63097	34.52
2.64763	34.52
2.66430	34.53
2.68097	34.52
2.69763	34.52
2.71430	34.52
2.73097	34.52
2.74763	34.51
2.76430	34.52
2.78097	34.52
2.79763	34.51
2.81430	34.51
2.83097	34.52
2.84763	34.52
2.86430	34.52
2.88097	34.52
2.89763	34.51
2.91430	34.52
2.93097	34.52
2.94763	34.52
2.96430	34.52
2.98097	34.52
2.99763	34.53
3.01430	34.52
3.03097	34.52
3.04763	34.52
3.06430	34.52
3.08097	34.52
3.09763	34.51
3.11430	34.51
3.13097	34.52
3.14763	34.52
3.16430	34.52
3.18097	34.52
3.19763	34.52
3.21430	34.52
3.23097	34.52
3.24763	34.52
3.26430	34.53
3.28097	34.51
3.29763	34.52
3.31430	34.52
3.33097	34.52
3.34763	34.52
3.36430	34.52
3.38097	34.52
3.39763	34.52
3.41430	34.52
3.43097	34.52
3.44763	34.52
3.46430	34.53
3.48097	34.52
3.49763	34.52
3.51430	34.52
3.53097	34.52
3.54763	34.52
3.56430	34.52
3.58097	34.52
3.59763	34.52
3.61430	34.52
3.63097	34.52
3.64763	34.52
3.66430	34.52
3.68097	34.52
3.69763	34.52
3.71430	34.52
3.73097	34.52
3.74763	34.51
3.76430	34.51
3.78097	34.52
3.79763	34.52
3.81430	34.52
3.83097	34.52
3.84763	34.52
3.86430	34.52
3.88097	34.52
3.89763	34.53
3.91430	34.52
3.93097	34.52
3.94763	34.52
3.96430	34.52
3.98097	34.52
3.99763	34.53

[Status Trace (Column Flow)]
Interval(msec)	1000
# of Points	240
Start Time(min)	0.014
End Time(min)	3.998
Intensity Units	
Intensity Multiplier	1
R.Time (min)	Intensity
0.01430	5.50
0.03097	5.26
0.04763	5.55
0.06430	5.77
0.08097	5.63
0.09763	5.55
0.11430	5.55
0.13097	5.55
0.14763	5.55
0.16430	5.55
0.18097	5.55
0.19763	5.55
0.21430	5.55
0.23097	5.55
0.24763	5.55
0.26430	5.55
0.28097	5.55
0.29763	5.55
0.31430	5.55
0.33097	5.55
0.34763	5.55
0.36430	5.55
0.38097	5.55
0.39763	5.55
0.41430	5.55
0.43097	5.55
0.44763	5.55
0.46430	5.55
0.48097	5.55
0.49763	5.55
0.51430	5.55
0.53097	5.55
0.54763	5.55
0.56430	5.55
0.58097	5.55
0.59763	5.55
0.61430	5.55
0.63097	5.55
0.64763	5.55
0.66430	5.55
0.68097	5.55
0.69763	5.55
0.71430	5.55
0.73097	5.55
0.74763	5.55
0.76430	5.55
0.78097	5.55
0.79763	5.55
0.81430	5.55
0.83097	5.55
0.84763	5.55
0.86430	5.55
0.88097	5.55
0.89763	5.55
0.91430	5.55
0.93097	5.55
0.94763	5.55
0.96430	5.55
0.98097	5.55
0.99763	5.55
1.01430	5.55
1.03097	5.55
1.04763	5.55
1.06430	5.55
1.08097	5.55
1.09763	5.55
1.11430	5.55
1.13097	5.55
1.14763	5.55
1.16430	5.55
1.18097	5.55
1.19763	5.55
1.21430	5.55
1.23097	5.55
1.24763	5.55
1.26430	5.55
1.28097	5.55
1.29763	5.55
1.31430	5.55
1.33097	5.55
1.34763	5.55
1.36430	5.55
1.38097	5.55
1.39763	5.55
1.41430	5.55
1.43097	5.55
1.44763	5.55
1.46430	5.55
1.48097	5.55
1.49763	5.55
1.51430	5.55
1.53097	5.55
1.54763	5.55
1.56430	5.55
1.58097	5.55
1.59763	5.55
1.61430	5.55
1.63097	5.54
1.64763	5.54
1.66430	5.53
1.68097	5.52
1.69763	5.50
1.71430	5.49
1.73097	5.48
1.74763	5.47
1.76430	5.46
1.78097	5.45
1.79763	5.44
1.81430	5.43
1.83097	5.42
1.84763	5.41
1.86430	5.40
1.88097	5.39
1.89763	5.38
1.91430	5.37
1.93097	5.36
1.94763	5.35
1.96430	5.34
1.98097	5.33
1.99763	5.32
2.01430	5.31
2.03097	5.31
2.04763	5.30
2.06430	5.29
2.08097	5.28
2.09763	5.27
2.11430	5.26
2.13097	5.25
2.14763	5.24
2.16430	5.23
2.18097	5.22
2.19763	5.21
2.21430	5.20
2.23097	5.19
2.24763	5.18
2.26430	5.17
2.28097	5.16
2.29763	5.15
2.31430	5.15
2.33097	5.14
2.34763	5.13
2.36430	5.12
2.38097	5.12
2.39763	5.12
2.41430	5.12
2.43097	5.12
2.44763	5.12
2.46430	5.12
2.48097	5.12
2.49763	5.12
2.51430	5.11
2.53097	5.11
2.54763	5.11
2.56430	5.11
2.58097	5.11
2.59763	5.11
2.61430	5.11
2.63097	5.11
2.64763	5.11
2.66430	5.11
2.68097	5.11
2.69763	5.11
2.71430	5.11
2.73097	5.11
2.74763	5.11
2.76430	5.11
2.78097	5.11
2.79763	5.11
2.81430	5.11
2.83097	5.11
2.84763	5.11
2.86430	5.11
2.88097	5.11
2.89763	5.11
2.91430	5.11
2.93097	5.11
2.94763	5.11
2.96430	5.11
2.98097	5.11
2.99763	5.11
3.01430	5.11
3.03097	5.11
3.04763	5.11
3.06430	5.11
3.08097	5.11
3.09763	5.11
3.11430	5.11
3.13097	5.11
3.14763	5.11
3.16430	5.11
3.18097	5.11
3.19763	5.11
3.21430	5.10
3.23097	5.10
3.24763	5.10
3.26430	5.10
3.28097	5.10
3.29763	5.10
3.31430	5.10
3.33097	5.10
3.34763	5.10
3.36430	5.10
3.38097	5.10
3.39763	5.10
3.41430	5.10
3.43097	5.10
3.44763	5.11
3.46430	5.11
3.48097	5.11
3.49763	5.11
3.51430	5.11
3.53097	5.11
3.54763	5.11
3.56430	5.11
3.58097	5.11
3.59763	5.11
3.61430	5.11
3.63097	5.11
3.64763	5.10
3.66430	5.10
3.68097	5.10
3.69763	5.10
3.71430	5.10
3.73097	5.10
3.74763	5.10
3.76430	5.10
3.78097	5.10
3.79763	5.10
3.81430	5.10
3.83097	5.10
3.84763	5.10
3.86430	5.10
3.88097	5.10
3.89763	5.10
3.91430	5.10
3.93097	5.10
3.94763	5.10
3.96430	5.10
3.98097	5.10
3.99763	5.10

[Status Trace (Linear Velocity)]
Interval(msec)	1000
# of Points	240
Start Time(min)	0.014
End Time(min)	3.998
Intensity Units	
Intensity Multiplier	1
R.Time (min)	Intensity
0.01430	38.73
0.03097	37.40
0.04763	39.04
0.06430	40.22
0.08097	39.46
0.09763	39.01
0.11430	39.02
0.13097	39.03
0.14763	39.03
0.16430	39.03
0.18097	39.03
0.19763	39.02
0.21430	39.02
0.23097	39.02
0.24763	39.02
0.26430	39.02
0.28097	39.02
0.29763	39.02
0.31430	39.02
0.33097	39.02
0.34763	39.02
0.36430	39.02
0.38097	39.02
0.39763	39.02
0.41430	39.02
0.43097	39.02
0.44763	39.02
0.46430	39.02
0.48097	39.02
0.49763	39.02
0.51430	39.02
0.53097	39.02
0.54763	39.02
0.56430	39.02
0.58097	39.02
0.59763	39.02
0.61430	39.02
0.63097	39.02
0.64763	39.02
0.66430	39.02
0.68097	39.02
0.69763	39.02
0.71430	39.02
0.73097	39.02
0.74763	39.03
0.76430	39.02
0.78097	39.02
0.79763	39.02
0.81430	39.02
0.83097	39.02
0.84763	39.02
0.86430	39.02
0.88097	39.02
0.89763	39.02
0.91430	39.02
0.93097	39.02
0.94763	39.02
0.96430	39.02
0.98097	39.02
0.99763	39.02
1.01430	39.02
1.03097	39.02
1.04763	39.02
1.06430	39.02
1.08097	39.02
1.09763	39.03
1.11430	39.02
1.13097	39.02
1.14763	39.02
1.16430	39.02
1.18097	39.02
1.19763	39.03
1.21430	39.03
1.23097	39.03
1.24763	39.03
1.26430	39.03
1.28097	39.03
1.29763	39.02
1.31430	39.02
1.33097	39.02
1.34763	39.02
1.36430	39.02
1.38097	39.02
1.39763	39.02
1.41430	39.02
1.43097	39.02
1.44763	39.02
1.46430	39.02
1.48097	39.02
1.49763	39.03
1.51430	39.02
1.53097	39.02
1.54763	39.02
1.56430	39.02
1.58097	39.02
1.59763	39.02
1.61430	39.01
1.63097	39.00
1.64763	38.98
1.66430	38.95
1.68097	38.92
1.69763	38.88
1.71430	38.85
1.73097	38.82
1.74763	38.79
1.76430	38.76
1.78097	38.73
1.79763	38.69
1.81430	38.66
1.83097	38.63
1.84763	38.60
1.86430	38.57
1.88097	38.54
1.89763	38.51
1.91430	38.48
1.93097	38.45
1.94763	38.42
1.96430	38.38
1.98097	38.35
1.99763	38.33
2.01430	38.29
2.03097	38.27
2.04763	38.24
2.06430	38.21
2.08097	38.18
2.09763	38.15
2.11430	38.11
2.13097	38.08
2.14763	38.05
2.16430	38.03
2.18097	38.00
2.19763	37.97
2.21430	37.94
2.23097	37.91
2.24763	37.88
2.26430	37.85
2.28097	37.82
2.29763	37.79
2.31430	37.76
2.33097	37.73
2.34763	37.70
2.36430	37.68
2.38097	37.67
2.39763	37.67
2.41430	37.67
2.43097	37.67
2.44763	37.67
2.46430	37.67
2.48097	37.67
2.49763	37.67
2.51430	37.66
2.53097	37.66
2.54763	37.66
2.56430	37.66
2.58097	37.66
2.59763	37.66
2.61430	37.66
2.63097	37.66
2.64763	37.65
2.66430	37.65
2.68097	37.65
2.69763	37.65
2.71430	37.65
2.73097	37.65
2.74763	37.65
2.76430	37.65
2.78097	37.65
2.79763	37.65
2.81430	37.65
2.83097	37.65
2.84763	37.65
2.86430	37.65
2.88097	37.65
2.89763	37.65
2.91430	37.65
2.93097	37.65
2.94763	37.65
2.96430	37.65
2.98097	37.65
2.99763	37.64
3.01430	37.64
3.03097	37.64
3.04763	37.64
3.06430	37.64
3.08097	37.64
3.09763	37.64
3.11430	37.64
3.13097	37.64
3.14763	37.64
3.16430	37.64
3.18097	37.64
3.19763	37.63
3.21430	37.63
3.23097	37.63
3.24763	37.63
3.26430	37.63
3.28097	37.63
3.29763	37.63
3.31430	37.63
3.33097	37.63
3.34763	37.63
3.36430	37.63
3.38097	37.63
3.39763	37.63
3.41430	37.63
3.43097	37.63
3.44763	37.63
3.46430	37.64
3.48097	37.64
3.49763	37.64
3.51430	37.64
3.53097	37.64
3.54763	37.64
3.56430	37.64
3.58097	37.64
3.59763	37.64
3.61430	37.64
3.63097	37.64
3.64763	37.64
3.66430	37.63
3.68097	37.63
3.69763	37.64
3.71430	37.64
3.73097	37.64
3.74763	37.63
3.76430	37.63
3.78097	37.63
3.79763	37.63
3.81430	37.63
3.83097	37.63
3.84763	37.63
3.86430	37.63
3.88097	37.63
3.89763	37.63
3.91430	37.63
3.93097	37.63
3.94763	37.63
3.96430	37.63
3.98097	37.63
3.99763	37.63

