[Header]
Application Name	LabSolutions
Version	5.110
Data File Name	C:\Users\User\Desktop\GC Analyses\Jack\Nachusa Grasslands Sampling\T4 Timepoint July 12th\T4_07122022_086.gcd
Output Date	3/17/2023
Output Time	12:04:56 PM

[File Information]
Type	Data File
Generated	3/15/2023 1:02:59 AM
Generated by	System Administrator
Modified	3/15/2023 1:09:38 AM
Modified by	System Administrator

[Sample Information]
Operator Name	System Administrator
Acquired	3/15/2023 1:05:37 AM
Sample Type	0:Unknown
Level	0
Sample Name	086
Sample ID	086
ISTD Amount1	1
ISTD Amount2	1
ISTD Amount3	1
ISTD Amount4	1
ISTD Amount5	1
ISTD Amount6	1
ISTD Amount7	1
ISTD Amount8	1
ISTD Amount9	1
ISTD Amount10	1
ISTD Amount11	1
ISTD Amount12	1
ISTD Amount13	1
ISTD Amount14	1
ISTD Amount15	1
ISTD Amount16	1
ISTD Amount17	1
ISTD Amount18	1
ISTD Amount19	1
ISTD Amount20	1
ISTD Amount21	1
ISTD Amount22	1
ISTD Amount23	1
ISTD Amount24	1
ISTD Amount25	1
ISTD Amount26	1
ISTD Amount27	1
ISTD Amount28	1
ISTD Amount29	1
ISTD Amount30	1
ISTD Amount31	1
ISTD Amount32	1
Sample Amount	1
Dilution Factor	1
Vial#	85
Injection Volume	1
Injection Count	1
Bar Code	

[Original Files]
Data File	C:\Users\User\Desktop\GC Analyses\Jack\Nachusa Grasslands Sampling\T4 Timepoint July 12th\T4_07122022_086.gcd
Method File	C:\LabSolutions\Data\GHG_4min_2022\ghg3_togas_w_acet_4 min_new_int.gcm
Batch File	C:\LabSolutions\Data\AutoSamplerTesting\T4_07122022.gcb
Report Format File	c:\LabSolutions\System\DEFAULT.lsr

[File Description]


[Configuration]
Instrument Name	C0B7VH3-Instrument1
Instrument #	1
Line #	1
# of Detectors	3
Detector ID	DET#1	DET#2	DET#3
Detector Name	FID	PTCD	ECD
# of Channels	1	1	1

[Peak Table(Ch1)]
# of Peaks	3
Peak#	R.Time	I.Time	F.Time	Area	Height	A/H	Conc.	Mark	ID#	Name	k'	Plate #	Plate Ht.	Tailing	Resolution	Sep.Factor	Area Ratio	Height Ratio	Conc. %	Norm Conc.
1	1.476	1.432	1.538	23990	11789	2.035	169.372	   	1	CO	0.000	9657	15.533	1.289	0.000	0.000	0	0	14.348	14.348
2	1.571	1.538	1.619	3717	1927	1.929	71.868	 V 	2	CH4	0.065	11937	12.566	1.127	1.622	0.000	0	0	6.088	6.088
3	1.996	1.949	2.524	3742395	1788425	2.093	939.240	   	3	CO2	0.353	17174	8.734	1.317	7.182	5.462	0	0	79.564	79.564

[Peak Table(Ch2)]
# of Peaks	0

[Peak Table(Ch3)]
# of Peaks	5
Peak#	R.Time	I.Time	F.Time	Area	Height	A/H	Conc.	Mark	ID#	Name	k'	Plate #	Plate Ht.	Tailing	Resolution	Sep.Factor	Area Ratio	Height Ratio	Conc. %	Norm Conc.
1	2.462	2.348	2.510	2201	746	2.949	0.000	   			0.000	11716	12.803	0.000	0.000	0.000	0	0	0.000	0.000
2	2.532	2.510	2.576	930	340	2.737	0.000	 V 			0.028	8231	18.223	0.000	0.688	0.000	0	0	0.000	0.000
3	2.605	2.576	2.678	586	145	4.039	0.000	 V 			0.058	2651	56.576	0.000	0.467	2.053	0	0	0.000	0.000
4	2.880	2.799	3.030	17812	4757	3.745	0.455	   	1	N2O	0.170	13315	11.265	1.487	1.820	2.923	0	0	100.000	100.000
5	3.346	3.159	3.995	20299	718	28.288	0.000	   	2	SF6	0.359	232	646.922	2.176	0.952	2.114	0	0	0.000	0.000

[Compound Results(Ch1)]
# of IDs	6
ID#	Name	R.Time	Area	Height	Conc.	Curve	3rd	2nd	1st	Constant	Area Ratio	Height Ratio	Conc. %	Norm Conc.
1	CO	1.476	23990	11789	169.372	Linear	0.000000e+00	0.000000e+00	1.416423e+002	0.000000e+00	0	0	14.348	14.348
2	CH4	1.571	3717	1927	71.868	Linear	0.000000e+00	0.000000e+00	5.171738e+001	0.000000e+00	0	0	6.088	6.088
3	CO2	1.996	3742395	1788425	939.240	Linear	0.000000e+00	0.000000e+00	3.984494e+003	0.000000e+00	0	0	79.564	79.564
4	Ethylene	0.000	0	0	0.000	Linear	0.000000e+00	0.000000e+00	0.000000e+00	0.000000e+00	0	0	0.000	0.000
5	Acetylene	0.000	0	0	0.000	Linear	0.000000e+00	0.000000e+00	0.000000e+00	0.000000e+00	0	0	0.000	0.000
6	Ethane	0.000	0	0	0.000	Linear	0.000000e+00	0.000000e+00	0.000000e+00	0.000000e+00	0	0	0.000	0.000

[Compound Results(Ch2)]
# of IDs	5
ID#	Name	R.Time	Area	Height	Conc.	Curve	3rd	2nd	1st	Constant	Area Ratio	Height Ratio	Conc. %	Norm Conc.
1	Hydrogen	0.000	0	0	0.000	Linear	0.000000e+00	0.000000e+00	0.000000e+00	0.000000e+00	0	0	0.000	0.000
2	Oxygen	0.000	0	0	0.000	Linear	0.000000e+00	0.000000e+00	0.000000e+00	0.000000e+00	0	0	0.000	0.000
3	Nitrogen	0.000	0	0	0.000	Linear	0.000000e+00	0.000000e+00	0.000000e+00	0.000000e+00	0	0	0.000	0.000
4	Methane	0.000	0	0	0.000	Linear	0.000000e+00	0.000000e+00	0.000000e+00	0.000000e+00	0	0	0.000	0.000
5	Carbon Monoxide	0.000	0	0	0.000	Linear	0.000000e+00	0.000000e+00	0.000000e+00	0.000000e+00	0	0	0.000	0.000

[Compound Results(Ch3)]
# of IDs	2
ID#	Name	R.Time	Area	Height	Conc.	Curve	3rd	2nd	1st	Constant	Area Ratio	Height Ratio	Conc. %	Norm Conc.
1	N2O	2.880	17812	4757	0.455	Linear	0.000000e+00	0.000000e+00	3.915173e+004	0.000000e+00	0	0	100.000	100.000
2	SF6	3.346	20299	718	0.000	Linear	0.000000e+00	0.000000e+00	0.000000e+00	0.000000e+00	0	0	0.000	0.000

[Group Results(Ch1)]
# of Groups	0

[Group Results(Ch2)]
# of Groups	0

[Group Results(Ch3)]
# of Groups	0

[Chromatogram (Ch1)]
Interval(msec)	220
# of Points	1091
Start Time(min)	0.002
End Time(min)	3.998
R.Time (min)	Intensity
0.00167	-15
0.00533	-8
0.00900	-3
0.01267	-0
0.01633	-3
0.02000	5
0.02367	17
0.02733	25
0.03100	32
0.03467	39
0.03833	48
0.04200	53
0.04567	57
0.04933	60
0.05300	57
0.05667	53
0.06033	49
0.06400	44
0.06767	41
0.07133	51
0.07500	65
0.07867	72
0.08233	63
0.08600	45
0.08967	32
0.09333	24
0.09700	22
0.10067	24
0.10433	31
0.10800	41
0.11167	46
0.11533	46
0.11900	42
0.12267	31
0.12633	20
0.13000	13
0.13367	11
0.13733	13
0.14100	15
0.14467	19
0.14833	23
0.15200	21
0.15567	18
0.15933	19
0.16300	20
0.16667	22
0.17033	23
0.17400	27
0.17767	32
0.18133	42
0.18500	55
0.18867	65
0.19233	68
0.19600	66
0.19967	66
0.20333	65
0.20700	65
0.21067	64
0.21433	61
0.21800	60
0.22167	61
0.22533	62
0.22900	65
0.23267	67
0.23633	68
0.24000	67
0.24367	74
0.24733	82
0.25100	84
0.25467	85
0.25833	85
0.26200	83
0.26567	86
0.26933	98
0.27300	108
0.27667	114
0.28033	116
0.28400	119
0.28767	128
0.29133	138
0.29500	144
0.29867	143
0.30233	133
0.30600	128
0.30967	127
0.31333	132
0.31700	133
0.32067	134
0.32433	133
0.32800	129
0.33167	130
0.33533	138
0.33900	143
0.34267	146
0.34633	146
0.35000	145
0.35367	143
0.35733	139
0.36100	132
0.36467	119
0.36833	106
0.37200	94
0.37567	91
0.37933	95
0.38300	97
0.38667	97
0.39033	92
0.39400	83
0.39767	78
0.40133	74
0.40500	71
0.40867	69
0.41233	69
0.41600	70
0.41967	72
0.42333	74
0.42700	78
0.43067	84
0.43433	87
0.43800	84
0.44167	77
0.44533	70
0.44900	61
0.45267	51
0.45633	44
0.46000	41
0.46367	42
0.46733	46
0.47100	51
0.47467	57
0.47833	65
0.48200	70
0.48567	63
0.48933	47
0.49300	34
0.49667	28
0.50033	28
0.50400	34
0.50767	44
0.51133	56
0.51500	57
0.51867	46
0.52233	29
0.52600	17
0.52967	16
0.53333	23
0.53700	30
0.54067	39
0.54433	47
0.54800	49
0.55167	50
0.55533	47
0.55900	46
0.56267	45
0.56633	40
0.57000	38
0.57367	45
0.57733	57
0.58100	64
0.58467	59
0.58833	45
0.59200	35
0.59567	32
0.59933	30
0.60300	28
0.60667	27
0.61033	29
0.61400	34
0.61767	37
0.62133	37
0.62500	36
0.62867	35
0.63233	39
0.63600	44
0.63967	44
0.64333	39
0.64700	37
0.65067	40
0.65433	44
0.65800	46
0.66167	46
0.66533	42
0.66900	38
0.67267	35
0.67633	27
0.68000	18
0.68367	14
0.68733	8
0.69100	14
0.69467	31
0.69833	39
0.70200	37
0.70567	28
0.70933	26
0.71300	27
0.71667	32
0.72033	41
0.72400	48
0.72767	60
0.73133	69
0.73500	69
0.73867	64
0.74233	63
0.74600	54
0.74967	50
0.75333	45
0.75700	45
0.76067	47
0.76433	49
0.76800	53
0.77167	54
0.77533	52
0.77900	49
0.78267	42
0.78633	38
0.79000	39
0.79367	43
0.79733	48
0.80100	48
0.80467	46
0.80833	49
0.81200	52
0.81567	44
0.81933	36
0.82300	28
0.82667	26
0.83033	33
0.83400	43
0.83767	50
0.84133	55
0.84500	56
0.84867	53
0.85233	49
0.85600	46
0.85967	42
0.86333	34
0.86700	24
0.87067	16
0.87433	13
0.87800	18
0.88167	32
0.88533	46
0.88900	51
0.89267	49
0.89633	49
0.90000	52
0.90367	53
0.90733	49
0.91100	45
0.91467	41
0.91833	32
0.92200	31
0.92567	33
0.92933	31
0.93300	28
0.93667	24
0.94033	20
0.94400	20
0.94767	28
0.95133	38
0.95500	44
0.95867	41
0.96233	32
0.96600	25
0.96967	19
0.97333	17
0.97700	16
0.98067	16
0.98433	22
0.98800	31
0.99167	38
0.99533	35
0.99900	25
1.00267	16
1.00633	12
1.01000	13
1.01367	26
1.01733	42
1.02100	51
1.02467	54
1.02833	55
1.03200	50
1.03567	46
1.03933	44
1.04300	44
1.04667	46
1.05033	47
1.05400	51
1.05767	55
1.06133	55
1.06500	55
1.06867	53
1.07233	57
1.07600	65
1.07967	70
1.08333	69
1.08700	66
1.09067	67
1.09433	68
1.09800	69
1.10167	63
1.10533	57
1.10900	52
1.11267	45
1.11633	40
1.12000	37
1.12367	37
1.12733	39
1.13100	42
1.13467	45
1.13833	51
1.14200	55
1.14567	52
1.14933	50
1.15300	52
1.15667	62
1.16033	71
1.16400	63
1.16767	45
1.17133	31
1.17500	22
1.17867	17
1.18233	16
1.18600	19
1.18967	23
1.19333	24
1.19700	26
1.20067	30
1.20433	34
1.20800	38
1.21167	43
1.21533	50
1.21900	56
1.22267	56
1.22633	51
1.23000	46
1.23367	44
1.23733	48
1.24100	51
1.24467	50
1.24833	44
1.25200	38
1.25567	26
1.25933	12
1.26300	1
1.26667	0
1.27033	5
1.27400	14
1.27767	25
1.28133	35
1.28500	45
1.28867	51
1.29233	56
1.29600	58
1.29967	55
1.30333	51
1.30700	47
1.31067	42
1.31433	40
1.31800	39
1.32167	37
1.32533	35
1.32900	35
1.33267	35
1.33633	34
1.34000	30
1.34367	25
1.34733	19
1.35100	8
1.35467	-0
1.35833	-3
1.36200	-1
1.36567	3
1.36933	10
1.37300	13
1.37667	10
1.38033	10
1.38400	12
1.38767	15
1.39133	19
1.39500	23
1.39867	24
1.40233	26
1.40600	36
1.40967	43
1.41333	39
1.41700	31
1.42067	24
1.42433	20
1.42800	22
1.43167	31
1.43533	42
1.43900	57
1.44267	95
1.44633	211
1.45000	558
1.45367	1494
1.45733	3257
1.46100	5552
1.46467	7841
1.46833	9755
1.47200	11116
1.47567	11811
1.47933	11723
1.48300	10830
1.48667	9307
1.49033	7480
1.49400	5683
1.49767	4132
1.50133	2907
1.50500	1997
1.50867	1344
1.51233	892
1.51600	590
1.51967	390
1.52333	257
1.52700	164
1.53067	94
1.53433	45
1.53800	19
1.54167	41
1.54533	159
1.54900	411
1.55267	773
1.55633	1160
1.56000	1505
1.56367	1766
1.56733	1915
1.57100	1932
1.57467	1806
1.57833	1554
1.58200	1237
1.58567	920
1.58933	651
1.59300	443
1.59667	294
1.60033	189
1.60400	113
1.60767	61
1.61133	26
1.61500	4
1.61867	-4
1.62233	-5
1.62600	-10
1.62967	-20
1.63333	-26
1.63700	-27
1.64067	-30
1.64433	-33
1.64800	-32
1.65167	-27
1.65533	-27
1.65900	-31
1.66267	-39
1.66633	-43
1.67000	-43
1.67367	-45
1.67733	-44
1.68100	-42
1.68467	-41
1.68833	-38
1.69200	-32
1.69567	-25
1.69933	-18
1.70300	-15
1.70667	-20
1.71033	-27
1.71400	-30
1.71767	-29
1.72133	-24
1.72500	-17
1.72867	-10
1.73233	-8
1.73600	-10
1.73967	-10
1.74333	-11
1.74700	-14
1.75067	-14
1.75433	-15
1.75800	-16
1.76167	-20
1.76533	-24
1.76900	-25
1.77267	-23
1.77633	-20
1.78000	-14
1.78367	-12
1.78733	-15
1.79100	-20
1.79467	-27
1.79833	-32
1.80200	-29
1.80567	-24
1.80933	-18
1.81300	-12
1.81667	-8
1.82033	-9
1.82400	-8
1.82767	1
1.83133	4
1.83500	1
1.83867	-3
1.84233	-6
1.84600	-4
1.84967	-1
1.85333	1
1.85700	-4
1.86067	-6
1.86433	-5
1.86800	-3
1.87167	-1
1.87533	1
1.87900	2
1.88267	5
1.88633	7
1.89000	5
1.89367	1
1.89733	4
1.90100	12
1.90467	18
1.90833	19
1.91200	17
1.91567	13
1.91933	13
1.92300	19
1.92667	29
1.93033	36
1.93400	36
1.93767	33
1.94133	28
1.94500	24
1.94867	25
1.95233	45
1.95600	223
1.95967	1413
1.96333	7464
1.96700	30621
1.97067	98046
1.97433	246868
1.97800	497664
1.98167	827611
1.98533	1177252
1.98900	1481976
1.99267	1694379
1.99633	1788477
2.00000	1758005
2.00367	1616725
2.00733	1396465
2.01100	1138360
2.01467	881766
2.01833	654761
2.02200	470778
2.02567	331110
2.02933	229987
2.03300	159140
2.03667	110562
2.04033	77656
2.04400	55471
2.04767	40494
2.05133	30309
2.05500	23302
2.05867	18398
2.06233	14897
2.06600	12340
2.06967	10428
2.07333	8967
2.07700	7828
2.08067	6921
2.08433	6176
2.08800	5564
2.09167	5063
2.09533	4640
2.09900	4270
2.10267	3945
2.10633	3659
2.11000	3410
2.11367	3198
2.11733	3005
2.12100	2825
2.12467	2659
2.12833	2509
2.13200	2379
2.13567	2263
2.13933	2150
2.14300	2047
2.14667	1955
2.15033	1873
2.15400	1796
2.15767	1723
2.16133	1656
2.16500	1597
2.16867	1542
2.17233	1492
2.17600	1443
2.17967	1398
2.18333	1355
2.18700	1311
2.19067	1269
2.19433	1225
2.19800	1179
2.20167	1137
2.20533	1101
2.20900	1070
2.21267	1047
2.21633	1025
2.22000	1005
2.22367	982
2.22733	958
2.23100	931
2.23467	907
2.23833	886
2.24200	867
2.24567	848
2.24933	830
2.25300	811
2.25667	793
2.26033	776
2.26400	758
2.26767	742
2.27133	723
2.27500	704
2.27867	690
2.28233	676
2.28600	665
2.28967	651
2.29333	635
2.29700	628
2.30067	620
2.30433	613
2.30800	606
2.31167	601
2.31533	596
2.31900	589
2.32267	585
2.32633	583
2.33000	583
2.33367	582
2.33733	581
2.34100	572
2.34467	559
2.34833	547
2.35200	541
2.35567	539
2.35933	531
2.36300	509
2.36667	515
2.37033	508
2.37400	495
2.37767	481
2.38133	468
2.38500	457
2.38867	447
2.39233	438
2.39600	434
2.39967	434
2.40333	433
2.40700	434
2.41067	435
2.41433	432
2.41800	428
2.42167	427
2.42533	424
2.42900	425
2.43267	430
2.43633	433
2.44000	431
2.44367	424
2.44733	412
2.45100	404
2.45467	399
2.45833	390
2.46200	379
2.46567	374
2.46933	370
2.47300	370
2.47667	368
2.48033	366
2.48400	368
2.48767	368
2.49133	366
2.49500	370
2.49867	373
2.50233	369
2.50600	364
2.50967	365
2.51333	369
2.51700	369
2.52067	361
2.52433	350
2.52800	342
2.53167	340
2.53533	341
2.53900	343
2.54267	345
2.54633	346
2.55000	348
2.55367	345
2.55733	341
2.56100	339
2.56467	335
2.56833	334
2.57200	333
2.57567	331
2.57933	330
2.58300	328
2.58667	320
2.59033	310
2.59400	301
2.59767	293
2.60133	288
2.60500	284
2.60867	282
2.61233	282
2.61600	284
2.61967	289
2.62333	299
2.62700	306
2.63067	309
2.63433	307
2.63800	300
2.64167	294
2.64533	291
2.64900	291
2.65267	285
2.65633	276
2.66000	273
2.66367	277
2.66733	279
2.67100	282
2.67467	278
2.67833	273
2.68200	268
2.68567	264
2.68933	264
2.69300	266
2.69667	266
2.70033	262
2.70400	257
2.70767	257
2.71133	257
2.71500	257
2.71867	255
2.72233	254
2.72600	255
2.72967	256
2.73333	256
2.73700	255
2.74067	255
2.74433	258
2.74800	260
2.75167	260
2.75533	257
2.75900	253
2.76267	253
2.76633	255
2.77000	255
2.77367	251
2.77733	239
2.78100	226
2.78467	217
2.78833	216
2.79200	226
2.79567	239
2.79933	243
2.80300	240
2.80667	235
2.81033	229
2.81400	226
2.81767	227
2.82133	235
2.82500	243
2.82867	244
2.83233	237
2.83600	230
2.83967	228
2.84333	234
2.84700	236
2.85067	240
2.85433	245
2.85800	242
2.86167	235
2.86533	228
2.86900	224
2.87267	222
2.87633	221
2.88000	225
2.88367	232
2.88733	238
2.89100	239
2.89467	232
2.89833	222
2.90200	216
2.90567	213
2.90933	216
2.91300	218
2.91667	219
2.92033	220
2.92400	223
2.92767	226
2.93133	228
2.93500	227
2.93867	224
2.94233	224
2.94600	216
2.94967	209
2.95333	205
2.95700	204
2.96067	205
2.96433	207
2.96800	209
2.97167	210
2.97533	212
2.97900	215
2.98267	219
2.98633	221
2.99000	224
2.99367	227
2.99733	230
3.00100	231
3.00467	231
3.00833	231
3.01200	230
3.01567	229
3.01933	229
3.02300	228
3.02667	226
3.03033	224
3.03400	223
3.03767	220
3.04133	218
3.04500	220
3.04867	222
3.05233	221
3.05600	217
3.05967	214
3.06333	206
3.06700	194
3.07067	186
3.07433	181
3.07800	182
3.08167	188
3.08533	197
3.08900	206
3.09267	203
3.09633	198
3.10000	193
3.10367	186
3.10733	182
3.11100	181
3.11467	178
3.11833	175
3.12200	177
3.12567	184
3.12933	193
3.13300	199
3.13667	202
3.14033	202
3.14400	199
3.14767	195
3.15133	188
3.15500	183
3.15867	179
3.16233	164
3.16600	158
3.16967	164
3.17333	173
3.17700	180
3.18067	184
3.18433	184
3.18800	178
3.19167	168
3.19533	160
3.19900	152
3.20267	146
3.20633	143
3.21000	139
3.21367	135
3.21733	131
3.22100	130
3.22467	130
3.22833	138
3.23200	149
3.23567	160
3.23933	161
3.24300	160
3.24667	161
3.25033	162
3.25400	161
3.25767	159
3.26133	161
3.26500	163
3.26867	165
3.27233	165
3.27600	162
3.27967	160
3.28333	160
3.28700	158
3.29067	157
3.29433	156
3.29800	157
3.30167	154
3.30533	150
3.30900	146
3.31267	141
3.31633	140
3.32000	143
3.32367	147
3.32733	151
3.33100	150
3.33467	148
3.33833	148
3.34200	153
3.34567	154
3.34933	150
3.35300	150
3.35667	147
3.36033	143
3.36400	146
3.36767	148
3.37133	146
3.37500	143
3.37867	144
3.38233	142
3.38600	138
3.38967	139
3.39333	146
3.39700	151
3.40067	156
3.40433	158
3.40800	158
3.41167	152
3.41533	146
3.41900	139
3.42267	135
3.42633	134
3.43000	132
3.43367	128
3.43733	121
3.44100	119
3.44467	125
3.44833	136
3.45200	141
3.45567	137
3.45933	129
3.46300	126
3.46667	124
3.47033	125
3.47400	127
3.47767	130
3.48133	130
3.48500	132
3.48867	138
3.49233	141
3.49600	139
3.49967	135
3.50333	132
3.50700	135
3.51067	139
3.51433	136
3.51800	127
3.52167	121
3.52533	115
3.52900	113
3.53267	116
3.53633	122
3.54000	126
3.54367	129
3.54733	133
3.55100	133
3.55467	124
3.55833	113
3.56200	106
3.56567	104
3.56933	105
3.57300	106
3.57667	102
3.58033	105
3.58400	115
3.58767	121
3.59133	118
3.59500	114
3.59867	109
3.60233	114
3.60600	126
3.60967	138
3.61333	140
3.61700	132
3.62067	122
3.62433	113
3.62800	107
3.63167	104
3.63533	103
3.63900	103
3.64267	106
3.64633	109
3.65000	105
3.65367	97
3.65733	94
3.66100	101
3.66467	107
3.66833	110
3.67200	116
3.67567	119
3.67933	117
3.68300	113
3.68667	108
3.69033	100
3.69400	90
3.69767	86
3.70133	81
3.70500	75
3.70867	73
3.71233	72
3.71600	72
3.71967	76
3.72333	80
3.72700	83
3.73067	86
3.73433	90
3.73800	96
3.74167	104
3.74533	107
3.74900	103
3.75267	99
3.75633	96
3.76000	95
3.76367	93
3.76733	92
3.77100	92
3.77467	94
3.77833	97
3.78200	91
3.78567	83
3.78933	75
3.79300	75
3.79667	80
3.80033	84
3.80400	89
3.80767	86
3.81133	85
3.81500	84
3.81867	82
3.82233	80
3.82600	84
3.82967	90
3.83333	92
3.83700	90
3.84067	89
3.84433	93
3.84800	97
3.85167	97
3.85533	89
3.85900	80
3.86267	70
3.86633	60
3.87000	58
3.87367	58
3.87733	55
3.88100	52
3.88467	53
3.88833	61
3.89200	72
3.89567	81
3.89933	83
3.90300	82
3.90667	80
3.91033	79
3.91400	81
3.91767	78
3.92133	69
3.92500	62
3.92867	55
3.93233	54
3.93600	59
3.93967	62
3.94333	63
3.94700	64
3.95067	65
3.95433	63
3.95800	57
3.96167	55
3.96533	65
3.96900	75
3.97267	78
3.97633	77
3.98000	70
3.98367	65
3.98733	60
3.99100	59
3.99467	60
3.99833	64

[Chromatogram (Ch2)]
Interval(msec)	220
# of Points	1091
Start Time(min)	0.002
End Time(min)	3.998
R.Time (min)	Intensity
0.00167	1
0.00533	1
0.00900	1
0.01267	1
0.01633	0
0.02000	0
0.02367	1
0.02733	1
0.03100	1
0.03467	1
0.03833	1
0.04200	1
0.04567	1
0.04933	1
0.05300	2
0.05667	2
0.06033	2
0.06400	2
0.06767	2
0.07133	2
0.07500	2
0.07867	2
0.08233	3
0.08600	3
0.08967	3
0.09333	3
0.09700	3
0.10067	3
0.10433	3
0.10800	3
0.11167	3
0.11533	4
0.11900	4
0.12267	4
0.12633	4
0.13000	4
0.13367	4
0.13733	4
0.14100	4
0.14467	4
0.14833	4
0.15200	4
0.15567	4
0.15933	4
0.16300	4
0.16667	3
0.17033	3
0.17400	3
0.17767	4
0.18133	4
0.18500	4
0.18867	4
0.19233	4
0.19600	4
0.19967	4
0.20333	4
0.20700	4
0.21067	4
0.21433	4
0.21800	3
0.22167	3
0.22533	3
0.22900	2
0.23267	2
0.23633	2
0.24000	3
0.24367	3
0.24733	3
0.25100	3
0.25467	3
0.25833	3
0.26200	3
0.26567	3
0.26933	3
0.27300	3
0.27667	3
0.28033	4
0.28400	4
0.28767	4
0.29133	4
0.29500	4
0.29867	4
0.30233	4
0.30600	4
0.30967	5
0.31333	5
0.31700	5
0.32067	5
0.32433	5
0.32800	5
0.33167	5
0.33533	4
0.33900	4
0.34267	4
0.34633	4
0.35000	4
0.35367	4
0.35733	3
0.36100	3
0.36467	2
0.36833	2
0.37200	2
0.37567	2
0.37933	1
0.38300	1
0.38667	1
0.39033	1
0.39400	1
0.39767	2
0.40133	2
0.40500	2
0.40867	2
0.41233	3
0.41600	3
0.41967	3
0.42333	3
0.42700	3
0.43067	3
0.43433	3
0.43800	3
0.44167	3
0.44533	3
0.44900	3
0.45267	3
0.45633	3
0.46000	3
0.46367	3
0.46733	3
0.47100	3
0.47467	3
0.47833	3
0.48200	3
0.48567	3
0.48933	3
0.49300	3
0.49667	3
0.50033	3
0.50400	3
0.50767	3
0.51133	3
0.51500	3
0.51867	3
0.52233	3
0.52600	3
0.52967	3
0.53333	3
0.53700	3
0.54067	3
0.54433	3
0.54800	3
0.55167	3
0.55533	2
0.55900	2
0.56267	2
0.56633	2
0.57000	2
0.57367	2
0.57733	1
0.58100	1
0.58467	2
0.58833	2
0.59200	2
0.59567	2
0.59933	2
0.60300	2
0.60667	3
0.61033	3
0.61400	3
0.61767	3
0.62133	3
0.62500	3
0.62867	3
0.63233	2
0.63600	2
0.63967	2
0.64333	2
0.64700	2
0.65067	2
0.65433	2
0.65800	2
0.66167	2
0.66533	2
0.66900	2
0.67267	2
0.67633	2
0.68000	2
0.68367	2
0.68733	2
0.69100	2
0.69467	2
0.69833	3
0.70200	3
0.70567	3
0.70933	3
0.71300	2
0.71667	2
0.72033	1
0.72400	1
0.72767	-0
0.73133	-0
0.73500	-1
0.73867	-1
0.74233	-1
0.74600	-1
0.74967	-1
0.75333	-1
0.75700	-1
0.76067	-0
0.76433	0
0.76800	0
0.77167	0
0.77533	0
0.77900	0
0.78267	0
0.78633	0
0.79000	1
0.79367	1
0.79733	1
0.80100	1
0.80467	1
0.80833	1
0.81200	2
0.81567	2
0.81933	2
0.82300	2
0.82667	3
0.83033	3
0.83400	3
0.83767	3
0.84133	3
0.84500	4
0.84867	4
0.85233	4
0.85600	5
0.85967	5
0.86333	5
0.86700	5
0.87067	5
0.87433	5
0.87800	5
0.88167	5
0.88533	4
0.88900	4
0.89267	3
0.89633	3
0.90000	3
0.90367	2
0.90733	2
0.91100	2
0.91467	2
0.91833	2
0.92200	2
0.92567	1
0.92933	1
0.93300	1
0.93667	1
0.94033	1
0.94400	1
0.94767	1
0.95133	1
0.95500	1
0.95867	2
0.96233	2
0.96600	2
0.96967	2
0.97333	3
0.97700	3
0.98067	3
0.98433	3
0.98800	3
0.99167	3
0.99533	3
0.99900	3
1.00267	3
1.00633	3
1.01000	3
1.01367	3
1.01733	3
1.02100	3
1.02467	3
1.02833	3
1.03200	4
1.03567	4
1.03933	4
1.04300	4
1.04667	4
1.05033	5
1.05400	5
1.05767	5
1.06133	5
1.06500	5
1.06867	5
1.07233	5
1.07600	5
1.07967	4
1.08333	4
1.08700	3
1.09067	3
1.09433	3
1.09800	3
1.10167	3
1.10533	3
1.10900	2
1.11267	2
1.11633	2
1.12000	2
1.12367	1
1.12733	1
1.13100	1
1.13467	1
1.13833	2
1.14200	2
1.14567	2
1.14933	2
1.15300	2
1.15667	3
1.16033	2
1.16400	2
1.16767	3
1.17133	3
1.17500	3
1.17867	3
1.18233	3
1.18600	3
1.18967	2
1.19333	2
1.19700	2
1.20067	2
1.20433	1
1.20800	1
1.21167	0
1.21533	-0
1.21900	-1
1.22267	-2
1.22633	-2
1.23000	-2
1.23367	-3
1.23733	-3
1.24100	-3
1.24467	-4
1.24833	-4
1.25200	-4
1.25567	-3
1.25933	-3
1.26300	-3
1.26667	-2
1.27033	-2
1.27400	-2
1.27767	-1
1.28133	-1
1.28500	-1
1.28867	-1
1.29233	-1
1.29600	-1
1.29967	-1
1.30333	-1
1.30700	-1
1.31067	-1
1.31433	-1
1.31800	-0
1.32167	-0
1.32533	0
1.32900	1
1.33267	1
1.33633	1
1.34000	1
1.34367	1
1.34733	1
1.35100	1
1.35467	1
1.35833	1
1.36200	1
1.36567	1
1.36933	1
1.37300	1
1.37667	1
1.38033	1
1.38400	2
1.38767	2
1.39133	2
1.39500	1
1.39867	1
1.40233	1
1.40600	1
1.40967	1
1.41333	1
1.41700	1
1.42067	1
1.42433	1
1.42800	1
1.43167	1
1.43533	2
1.43900	1
1.44267	1
1.44633	1
1.45000	2
1.45367	2
1.45733	2
1.46100	2
1.46467	2
1.46833	2
1.47200	2
1.47567	2
1.47933	2
1.48300	2
1.48667	2
1.49033	2
1.49400	2
1.49767	2
1.50133	2
1.50500	2
1.50867	3
1.51233	3
1.51600	3
1.51967	2
1.52333	2
1.52700	2
1.53067	1
1.53433	1
1.53800	1
1.54167	1
1.54533	1
1.54900	1
1.55267	1
1.55633	1
1.56000	1
1.56367	0
1.56733	0
1.57100	-0
1.57467	-0
1.57833	-0
1.58200	-0
1.58567	-1
1.58933	-1
1.59300	-1
1.59667	-2
1.60033	-3
1.60400	-4
1.60767	-6
1.61133	-8
1.61500	-10
1.61867	-12
1.62233	-15
1.62600	-18
1.62967	-21
1.63333	-24
1.63700	-27
1.64067	-30
1.64433	-34
1.64800	-37
1.65167	-41
1.65533	-44
1.65900	-48
1.66267	-52
1.66633	-55
1.67000	-59
1.67367	-63
1.67733	-68
1.68100	-72
1.68467	-76
1.68833	-81
1.69200	-84
1.69567	-88
1.69933	-91
1.70300	-94
1.70667	-97
1.71033	-99
1.71400	-101
1.71767	-103
1.72133	-104
1.72500	-105
1.72867	-105
1.73233	-105
1.73600	-105
1.73967	-105
1.74333	-104
1.74700	-103
1.75067	-103
1.75433	-103
1.75800	-103
1.76167	-103
1.76533	-104
1.76900	-106
1.77267	-107
1.77633	-108
1.78000	-109
1.78367	-110
1.78733	-110
1.79100	-111
1.79467	-111
1.79833	-111
1.80200	-111
1.80567	-111
1.80933	-111
1.81300	-111
1.81667	-112
1.82033	-112
1.82400	-112
1.82767	-112
1.83133	-111
1.83500	-111
1.83867	-111
1.84233	-111
1.84600	-112
1.84967	-112
1.85333	-112
1.85700	-113
1.86067	-113
1.86433	-113
1.86800	-112
1.87167	-112
1.87533	-111
1.87900	-110
1.88267	-109
1.88633	-109
1.89000	-108
1.89367	-108
1.89733	-108
1.90100	-108
1.90467	-108
1.90833	-108
1.91200	-107
1.91567	-108
1.91933	-108
1.92300	-108
1.92667	-108
1.93033	-108
1.93400	-108
1.93767	-108
1.94133	-108
1.94500	-108
1.94867	-108
1.95233	-108
1.95600	-108
1.95967	-108
1.96333	-108
1.96700	-108
1.97067	-108
1.97433	-107
1.97800	-106
1.98167	-105
1.98533	-105
1.98900	-105
1.99267	-104
1.99633	-104
2.00000	-104
2.00367	-104
2.00733	-104
2.01100	-104
2.01467	-105
2.01833	-105
2.02200	-105
2.02567	-104
2.02933	-104
2.03300	-103
2.03667	-103
2.04033	-102
2.04400	-101
2.04767	-101
2.05133	-100
2.05500	-99
2.05867	-98
2.06233	-98
2.06600	-98
2.06967	-98
2.07333	-98
2.07700	-99
2.08067	-99
2.08433	-99
2.08800	-99
2.09167	-98
2.09533	-98
2.09900	-97
2.10267	-96
2.10633	-95
2.11000	-94
2.11367	-93
2.11733	-92
2.12100	-92
2.12467	-92
2.12833	-92
2.13200	-92
2.13567	-92
2.13933	-91
2.14300	-91
2.14667	-91
2.15033	-91
2.15400	-91
2.15767	-91
2.16133	-91
2.16500	-90
2.16867	-90
2.17233	-90
2.17600	-89
2.17967	-88
2.18333	-87
2.18700	-87
2.19067	-86
2.19433	-85
2.19800	-85
2.20167	-85
2.20533	-85
2.20900	-85
2.21267	-85
2.21633	-85
2.22000	-85
2.22367	-86
2.22733	-86
2.23100	-87
2.23467	-87
2.23833	-87
2.24200	-87
2.24567	-87
2.24933	-86
2.25300	-85
2.25667	-84
2.26033	-84
2.26400	-83
2.26767	-83
2.27133	-83
2.27500	-83
2.27867	-83
2.28233	-83
2.28600	-82
2.28967	-82
2.29333	-82
2.29700	-81
2.30067	-81
2.30433	-80
2.30800	-80
2.31167	-80
2.31533	-80
2.31900	-80
2.32267	-80
2.32633	-80
2.33000	-79
2.33367	-78
2.33733	-77
2.34100	-76
2.34467	-74
2.34833	-73
2.35200	-72
2.35567	-70
2.35933	-69
2.36300	-68
2.36667	-66
2.37033	-65
2.37400	-63
2.37767	-60
2.38133	-57
2.38500	-54
2.38867	-50
2.39233	-46
2.39600	-41
2.39967	-36
2.40333	-32
2.40700	-28
2.41067	-24
2.41433	-20
2.41800	-16
2.42167	-14
2.42533	-11
2.42900	-9
2.43267	-8
2.43633	-7
2.44000	-7
2.44367	-6
2.44733	-5
2.45100	-4
2.45467	-4
2.45833	-3
2.46200	-2
2.46567	-1
2.46933	-0
2.47300	1
2.47667	2
2.48033	3
2.48400	4
2.48767	5
2.49133	7
2.49500	8
2.49867	9
2.50233	9
2.50600	10
2.50967	10
2.51333	10
2.51700	10
2.52067	10
2.52433	10
2.52800	11
2.53167	12
2.53533	13
2.53900	14
2.54267	15
2.54633	16
2.55000	16
2.55367	16
2.55733	16
2.56100	16
2.56467	16
2.56833	17
2.57200	17
2.57567	17
2.57933	18
2.58300	18
2.58667	18
2.59033	18
2.59400	19
2.59767	19
2.60133	19
2.60500	19
2.60867	19
2.61233	18
2.61600	18
2.61967	18
2.62333	18
2.62700	18
2.63067	18
2.63433	19
2.63800	19
2.64167	20
2.64533	20
2.64900	21
2.65267	21
2.65633	22
2.66000	22
2.66367	22
2.66733	22
2.67100	22
2.67467	23
2.67833	23
2.68200	23
2.68567	23
2.68933	24
2.69300	24
2.69667	24
2.70033	25
2.70400	25
2.70767	24
2.71133	24
2.71500	24
2.71867	24
2.72233	24
2.72600	25
2.72967	25
2.73333	25
2.73700	26
2.74067	26
2.74433	27
2.74800	27
2.75167	28
2.75533	28
2.75900	28
2.76267	28
2.76633	28
2.77000	28
2.77367	27
2.77733	27
2.78100	27
2.78467	27
2.78833	27
2.79200	27
2.79567	27
2.79933	27
2.80300	27
2.80667	28
2.81033	28
2.81400	28
2.81767	28
2.82133	29
2.82500	29
2.82867	29
2.83233	29
2.83600	29
2.83967	28
2.84333	28
2.84700	26
2.85067	22
2.85433	17
2.85800	8
2.86167	-3
2.86533	-19
2.86900	-39
2.87267	-63
2.87633	-92
2.88000	-126
2.88367	-164
2.88733	-205
2.89100	-250
2.89467	-298
2.89833	-349
2.90200	-402
2.90567	-456
2.90933	-512
2.91300	-568
2.91667	-624
2.92033	-679
2.92400	-734
2.92767	-786
2.93133	-837
2.93500	-890
2.93867	-946
2.94233	-1005
2.94600	-1056
2.94967	-1090
2.95333	-1100
2.95700	-1084
2.96067	-1044
2.96433	-986
2.96800	-916
2.97167	-838
2.97533	-757
2.97900	-677
2.98267	-600
2.98633	-528
2.99000	-461
2.99367	-401
2.99733	-346
3.00100	-298
3.00467	-256
3.00833	-218
3.01200	-186
3.01567	-157
3.01933	-133
3.02300	-112
3.02667	-93
3.03033	-78
3.03400	-64
3.03767	-53
3.04133	-43
3.04500	-35
3.04867	-27
3.05233	-21
3.05600	-16
3.05967	-11
3.06333	-7
3.06700	-4
3.07067	-1
3.07433	2
3.07800	4
3.08167	6
3.08533	8
3.08900	9
3.09267	11
3.09633	12
3.10000	13
3.10367	14
3.10733	15
3.11100	16
3.11467	17
3.11833	17
3.12200	18
3.12567	19
3.12933	19
3.13300	20
3.13667	20
3.14033	20
3.14400	20
3.14767	20
3.15133	20
3.15500	20
3.15867	20
3.16233	20
3.16600	20
3.16967	21
3.17333	21
3.17700	21
3.18067	21
3.18433	21
3.18800	22
3.19167	22
3.19533	22
3.19900	22
3.20267	22
3.20633	22
3.21000	22
3.21367	22
3.21733	23
3.22100	23
3.22467	23
3.22833	23
3.23200	24
3.23567	24
3.23933	24
3.24300	25
3.24667	25
3.25033	25
3.25400	25
3.25767	26
3.26133	26
3.26500	26
3.26867	26
3.27233	26
3.27600	27
3.27967	27
3.28333	27
3.28700	27
3.29067	27
3.29433	27
3.29800	27
3.30167	27
3.30533	27
3.30900	27
3.31267	26
3.31633	26
3.32000	26
3.32367	26
3.32733	25
3.33100	25
3.33467	25
3.33833	25
3.34200	26
3.34567	26
3.34933	26
3.35300	26
3.35667	26
3.36033	26
3.36400	26
3.36767	26
3.37133	26
3.37500	26
3.37867	26
3.38233	26
3.38600	26
3.38967	26
3.39333	26
3.39700	26
3.40067	26
3.40433	26
3.40800	26
3.41167	27
3.41533	27
3.41900	27
3.42267	27
3.42633	28
3.43000	28
3.43367	28
3.43733	29
3.44100	29
3.44467	29
3.44833	29
3.45200	30
3.45567	30
3.45933	30
3.46300	30
3.46667	31
3.47033	31
3.47400	31
3.47767	31
3.48133	31
3.48500	31
3.48867	31
3.49233	32
3.49600	32
3.49967	32
3.50333	32
3.50700	32
3.51067	32
3.51433	32
3.51800	33
3.52167	33
3.52533	33
3.52900	33
3.53267	33
3.53633	33
3.54000	32
3.54367	32
3.54733	32
3.55100	32
3.55467	32
3.55833	32
3.56200	31
3.56567	31
3.56933	31
3.57300	31
3.57667	31
3.58033	30
3.58400	30
3.58767	30
3.59133	30
3.59500	30
3.59867	29
3.60233	29
3.60600	29
3.60967	29
3.61333	29
3.61700	29
3.62067	28
3.62433	28
3.62800	29
3.63167	29
3.63533	29
3.63900	29
3.64267	29
3.64633	29
3.65000	29
3.65367	29
3.65733	29
3.66100	28
3.66467	28
3.66833	28
3.67200	28
3.67567	28
3.67933	28
3.68300	28
3.68667	28
3.69033	28
3.69400	28
3.69767	28
3.70133	28
3.70500	27
3.70867	27
3.71233	27
3.71600	27
3.71967	27
3.72333	28
3.72700	28
3.73067	28
3.73433	28
3.73800	28
3.74167	28
3.74533	28
3.74900	28
3.75267	29
3.75633	29
3.76000	29
3.76367	29
3.76733	29
3.77100	29
3.77467	29
3.77833	29
3.78200	29
3.78567	29
3.78933	29
3.79300	29
3.79667	29
3.80033	28
3.80400	28
3.80767	28
3.81133	28
3.81500	28
3.81867	27
3.82233	27
3.82600	27
3.82967	27
3.83333	27
3.83700	27
3.84067	27
3.84433	27
3.84800	27
3.85167	27
3.85533	27
3.85900	27
3.86267	27
3.86633	28
3.87000	28
3.87367	28
3.87733	28
3.88100	28
3.88467	28
3.88833	28
3.89200	28
3.89567	28
3.89933	28
3.90300	28
3.90667	28
3.91033	29
3.91400	29
3.91767	29
3.92133	29
3.92500	30
3.92867	30
3.93233	30
3.93600	30
3.93967	30
3.94333	31
3.94700	31
3.95067	31
3.95433	31
3.95800	31
3.96167	31
3.96533	31
3.96900	31
3.97267	31
3.97633	31
3.98000	31
3.98367	31
3.98733	31
3.99100	31
3.99467	30
3.99833	30

[Chromatogram (Ch3)]
Interval(msec)	220
# of Points	1091
Start Time(min)	0.002
End Time(min)	3.998
R.Time (min)	Intensity
0.00167	-0
0.00533	-2
0.00900	-3
0.01267	-3
0.01633	-1
0.02000	1
0.02367	2
0.02733	2
0.03100	1
0.03467	-1
0.03833	-3
0.04200	-4
0.04567	-3
0.04933	-5
0.05300	-6
0.05667	-7
0.06033	-6
0.06400	-5
0.06767	-0
0.07133	3
0.07500	5
0.07867	3
0.08233	4
0.08600	3
0.08967	1
0.09333	-1
0.09700	-3
0.10067	-5
0.10433	-4
0.10800	-4
0.11167	-3
0.11533	0
0.11900	1
0.12267	1
0.12633	2
0.13000	2
0.13367	3
0.13733	3
0.14100	4
0.14467	2
0.14833	1
0.15200	1
0.15567	1
0.15933	-1
0.16300	-2
0.16667	-2
0.17033	-1
0.17400	-1
0.17767	1
0.18133	0
0.18500	-2
0.18867	-4
0.19233	-6
0.19600	-7
0.19967	-7
0.20333	-5
0.20700	-3
0.21067	-4
0.21433	-5
0.21800	-5
0.22167	-4
0.22533	-3
0.22900	-2
0.23267	-1
0.23633	1
0.24000	1
0.24367	-0
0.24733	-2
0.25100	-2
0.25467	-3
0.25833	-4
0.26200	-6
0.26567	-4
0.26933	-0
0.27300	4
0.27667	5
0.28033	5
0.28400	3
0.28767	3
0.29133	4
0.29500	2
0.29867	1
0.30233	-0
0.30600	-2
0.30967	-3
0.31333	-3
0.31700	-3
0.32067	-1
0.32433	0
0.32800	0
0.33167	-2
0.33533	-3
0.33900	-4
0.34267	-5
0.34633	-4
0.35000	-3
0.35367	-2
0.35733	-2
0.36100	-1
0.36467	1
0.36833	4
0.37200	5
0.37567	4
0.37933	4
0.38300	2
0.38667	1
0.39033	-1
0.39400	-2
0.39767	-2
0.40133	-3
0.40500	-5
0.40867	-5
0.41233	-4
0.41600	-1
0.41967	3
0.42333	4
0.42700	4
0.43067	3
0.43433	3
0.43800	4
0.44167	5
0.44533	5
0.44900	5
0.45267	4
0.45633	3
0.46000	4
0.46367	5
0.46733	5
0.47100	4
0.47467	4
0.47833	5
0.48200	6
0.48567	7
0.48933	7
0.49300	5
0.49667	2
0.50033	-2
0.50400	-2
0.50767	0
0.51133	2
0.51500	2
0.51867	1
0.52233	-1
0.52600	1
0.52967	1
0.53333	2
0.53700	3
0.54067	4
0.54433	4
0.54800	3
0.55167	4
0.55533	5
0.55900	5
0.56267	5
0.56633	7
0.57000	7
0.57367	5
0.57733	5
0.58100	3
0.58467	4
0.58833	3
0.59200	2
0.59567	2
0.59933	2
0.60300	3
0.60667	3
0.61033	2
0.61400	0
0.61767	1
0.62133	3
0.62500	6
0.62867	8
0.63233	9
0.63600	9
0.63967	6
0.64333	1
0.64700	-0
0.65067	1
0.65433	4
0.65800	7
0.66167	9
0.66533	9
0.66900	7
0.67267	6
0.67633	7
0.68000	8
0.68367	6
0.68733	4
0.69100	4
0.69467	5
0.69833	5
0.70200	4
0.70567	3
0.70933	2
0.71300	2
0.71667	3
0.72033	5
0.72400	5
0.72767	5
0.73133	7
0.73500	6
0.73867	6
0.74233	6
0.74600	7
0.74967	5
0.75333	3
0.75700	3
0.76067	5
0.76433	4
0.76800	3
0.77167	4
0.77533	4
0.77900	5
0.78267	6
0.78633	5
0.79000	4
0.79367	3
0.79733	4
0.80100	5
0.80467	6
0.80833	9
0.81200	9
0.81567	8
0.81933	8
0.82300	8
0.82667	9
0.83033	10
0.83400	9
0.83767	9
0.84133	7
0.84500	4
0.84867	3
0.85233	4
0.85600	5
0.85967	6
0.86333	6
0.86700	5
0.87067	4
0.87433	1
0.87800	1
0.88167	0
0.88533	-0
0.88900	0
0.89267	2
0.89633	5
0.90000	8
0.90367	9
0.90733	12
0.91100	12
0.91467	14
0.91833	13
0.92200	10
0.92567	8
0.92933	7
0.93300	7
0.93667	8
0.94033	9
0.94400	9
0.94767	8
0.95133	7
0.95500	8
0.95867	11
0.96233	12
0.96600	12
0.96967	13
0.97333	11
0.97700	10
0.98067	9
0.98433	8
0.98800	9
0.99167	9
0.99533	9
0.99900	8
1.00267	9
1.00633	8
1.01000	8
1.01367	9
1.01733	8
1.02100	9
1.02467	10
1.02833	9
1.03200	8
1.03567	7
1.03933	7
1.04300	9
1.04667	9
1.05033	8
1.05400	9
1.05767	10
1.06133	10
1.06500	12
1.06867	13
1.07233	14
1.07600	15
1.07967	14
1.08333	11
1.08700	9
1.09067	11
1.09433	13
1.09800	14
1.10167	12
1.10533	11
1.10900	11
1.11267	10
1.11633	10
1.12000	10
1.12367	11
1.12733	12
1.13100	12
1.13467	10
1.13833	9
1.14200	9
1.14567	9
1.14933	8
1.15300	8
1.15667	8
1.16033	9
1.16400	10
1.16767	12
1.17133	14
1.17500	15
1.17867	14
1.18233	12
1.18600	10
1.18967	8
1.19333	10
1.19700	10
1.20067	9
1.20433	10
1.20800	10
1.21167	10
1.21533	11
1.21900	10
1.22267	9
1.22633	10
1.23000	11
1.23367	13
1.23733	15
1.24100	15
1.24467	15
1.24833	17
1.25200	18
1.25567	19
1.25933	18
1.26300	18
1.26667	19
1.27033	20
1.27400	21
1.27767	22
1.28133	22
1.28500	22
1.28867	22
1.29233	20
1.29600	19
1.29967	18
1.30333	17
1.30700	17
1.31067	19
1.31433	18
1.31800	19
1.32167	19
1.32533	19
1.32900	18
1.33267	19
1.33633	20
1.34000	19
1.34367	18
1.34733	17
1.35100	15
1.35467	14
1.35833	13
1.36200	13
1.36567	13
1.36933	12
1.37300	13
1.37667	14
1.38033	14
1.38400	14
1.38767	15
1.39133	17
1.39500	18
1.39867	19
1.40233	19
1.40600	21
1.40967	19
1.41333	18
1.41700	19
1.42067	18
1.42433	15
1.42800	13
1.43167	14
1.43533	15
1.43900	15
1.44267	13
1.44633	13
1.45000	13
1.45367	13
1.45733	14
1.46100	14
1.46467	13
1.46833	15
1.47200	17
1.47567	17
1.47933	14
1.48300	14
1.48667	14
1.49033	15
1.49400	15
1.49767	15
1.50133	14
1.50500	13
1.50867	12
1.51233	10
1.51600	11
1.51967	12
1.52333	14
1.52700	15
1.53067	16
1.53433	16
1.53800	16
1.54167	16
1.54533	15
1.54900	15
1.55267	15
1.55633	15
1.56000	15
1.56367	16
1.56733	17
1.57100	17
1.57467	18
1.57833	20
1.58200	20
1.58567	21
1.58933	22
1.59300	24
1.59667	22
1.60033	21
1.60400	19
1.60767	18
1.61133	18
1.61500	18
1.61867	20
1.62233	23
1.62600	21
1.62967	19
1.63333	19
1.63700	21
1.64067	23
1.64433	25
1.64800	27
1.65167	27
1.65533	28
1.65900	30
1.66267	30
1.66633	30
1.67000	31
1.67367	30
1.67733	30
1.68100	30
1.68467	30
1.68833	30
1.69200	28
1.69567	30
1.69933	32
1.70300	35
1.70667	38
1.71033	40
1.71400	40
1.71767	40
1.72133	40
1.72500	41
1.72867	42
1.73233	42
1.73600	41
1.73967	39
1.74333	37
1.74700	36
1.75067	35
1.75433	36
1.75800	36
1.76167	36
1.76533	35
1.76900	36
1.77267	38
1.77633	40
1.78000	41
1.78367	43
1.78733	44
1.79100	44
1.79467	42
1.79833	41
1.80200	40
1.80567	40
1.80933	40
1.81300	41
1.81667	43
1.82033	44
1.82400	47
1.82767	47
1.83133	47
1.83500	48
1.83867	51
1.84233	53
1.84600	54
1.84967	52
1.85333	49
1.85700	46
1.86067	46
1.86433	48
1.86800	50
1.87167	51
1.87533	50
1.87900	51
1.88267	53
1.88633	57
1.89000	58
1.89367	61
1.89733	63
1.90100	65
1.90467	67
1.90833	68
1.91200	69
1.91567	69
1.91933	70
1.92300	71
1.92667	70
1.93033	69
1.93400	69
1.93767	71
1.94133	73
1.94500	73
1.94867	75
1.95233	75
1.95600	76
1.95967	79
1.96333	81
1.96700	82
1.97067	82
1.97433	84
1.97800	83
1.98167	82
1.98533	82
1.98900	82
1.99267	84
1.99633	88
2.00000	91
2.00367	92
2.00733	93
2.01100	95
2.01467	97
2.01833	99
2.02200	100
2.02567	100
2.02933	101
2.03300	103
2.03667	104
2.04033	103
2.04400	105
2.04767	106
2.05133	106
2.05500	105
2.05867	104
2.06233	107
2.06600	110
2.06967	113
2.07333	115
2.07700	117
2.08067	118
2.08433	120
2.08800	124
2.09167	127
2.09533	129
2.09900	133
2.10267	135
2.10633	135
2.11000	132
2.11367	131
2.11733	133
2.12100	134
2.12467	135
2.12833	137
2.13200	138
2.13567	140
2.13933	142
2.14300	144
2.14667	144
2.15033	144
2.15400	145
2.15767	146
2.16133	152
2.16500	156
2.16867	158
2.17233	157
2.17600	158
2.17967	158
2.18333	159
2.18700	159
2.19067	161
2.19433	163
2.19800	162
2.20167	164
2.20533	166
2.20900	169
2.21267	172
2.21633	175
2.22000	178
2.22367	179
2.22733	179
2.23100	180
2.23467	181
2.23833	180
2.24200	181
2.24567	182
2.24933	185
2.25300	189
2.25667	189
2.26033	190
2.26400	191
2.26767	191
2.27133	193
2.27500	195
2.27867	196
2.28233	196
2.28600	196
2.28967	201
2.29333	206
2.29700	210
2.30067	213
2.30433	214
2.30800	216
2.31167	217
2.31533	220
2.31900	222
2.32267	224
2.32633	226
2.33000	227
2.33367	226
2.33733	226
2.34100	228
2.34467	229
2.34833	230
2.35200	231
2.35567	231
2.35933	234
2.36300	238
2.36667	240
2.37033	241
2.37400	239
2.37767	240
2.38133	241
2.38500	239
2.38867	236
2.39233	236
2.39600	239
2.39967	244
2.40333	249
2.40700	256
2.41067	261
2.41433	263
2.41800	264
2.42167	264
2.42533	266
2.42900	269
2.43267	268
2.43633	266
2.44000	270
2.44367	335
2.44733	500
2.45100	676
2.45467	816
2.45833	894
2.46200	894
2.46567	845
2.46933	781
2.47300	721
2.47667	674
2.48033	640
2.48400	603
2.48767	556
2.49133	502
2.49500	450
2.49867	406
2.50233	375
2.50600	356
2.50967	349
2.51333	355
2.51700	371
2.52067	393
2.52433	416
2.52800	433
2.53167	437
2.53533	425
2.53900	402
2.54267	371
2.54633	335
2.55000	300
2.55367	268
2.55733	242
2.56100	221
2.56467	208
2.56833	196
2.57200	187
2.57567	182
2.57933	180
2.58300	180
2.58667	181
2.59033	184
2.59400	187
2.59767	189
2.60133	190
2.60500	188
2.60867	185
2.61233	180
2.61600	173
2.61967	166
2.62333	156
2.62700	145
2.63067	134
2.63433	124
2.63800	115
2.64167	104
2.64533	92
2.64900	79
2.65267	65
2.65633	52
2.66000	40
2.66367	30
2.66733	18
2.67100	8
2.67467	-3
2.67833	-10
2.68200	-13
2.68567	-17
2.68933	-20
2.69300	-20
2.69667	-18
2.70033	-14
2.70400	-8
2.70767	-3
2.71133	-1
2.71500	1
2.71867	5
2.72233	8
2.72600	12
2.72967	17
2.73333	22
2.73700	24
2.74067	25
2.74433	28
2.74800	34
2.75167	38
2.75533	40
2.75900	42
2.76267	46
2.76633	51
2.77000	56
2.77367	59
2.77733	61
2.78100	64
2.78467	66
2.78833	70
2.79200	74
2.79567	81
2.79933	86
2.80300	91
2.80667	97
2.81033	104
2.81400	112
2.81767	123
2.82133	137
2.82500	156
2.82867	190
2.83233	255
2.83600	372
2.83967	561
2.84333	839
2.84700	1219
2.85067	1693
2.85433	2239
2.85800	2824
2.86167	3403
2.86533	3927
2.86900	4359
2.87267	4664
2.87633	4824
2.88000	4846
2.88367	4746
2.88733	4545
2.89100	4269
2.89467	3950
2.89833	3609
2.90200	3265
2.90567	2929
2.90933	2613
2.91300	2318
2.91667	2049
2.92033	1807
2.92400	1590
2.92767	1399
2.93133	1230
2.93500	1081
2.93867	948
2.94233	833
2.94600	732
2.94967	644
2.95333	569
2.95700	502
2.96067	445
2.96433	395
2.96800	350
2.97167	311
2.97533	280
2.97900	252
2.98267	226
2.98633	205
2.99000	189
2.99367	175
2.99733	161
3.00100	149
3.00467	138
3.00833	130
3.01200	123
3.01567	115
3.01933	108
3.02300	104
3.02667	100
3.03033	96
3.03400	92
3.03767	90
3.04133	89
3.04500	87
3.04867	84
3.05233	83
3.05600	82
3.05967	82
3.06333	82
3.06700	81
3.07067	79
3.07433	76
3.07800	73
3.08167	73
3.08533	73
3.08900	73
3.09267	72
3.09633	72
3.10000	72
3.10367	72
3.10733	71
3.11100	71
3.11467	71
3.11833	72
3.12200	72
3.12567	72
3.12933	72
3.13300	74
3.13667	75
3.14033	75
3.14400	61
3.14767	19
3.15133	-31
3.15500	-58
3.15867	-52
3.16233	-21
3.16600	32
3.16967	94
3.17333	158
3.17700	222
3.18067	281
3.18433	338
3.18800	383
3.19167	419
3.19533	450
3.19900	477
3.20267	501
3.20633	523
3.21000	541
3.21367	556
3.21733	570
3.22100	583
3.22467	596
3.22833	609
3.23200	618
3.23567	626
3.23933	632
3.24300	637
3.24667	643
3.25033	649
3.25400	655
3.25767	662
3.26133	669
3.26500	673
3.26867	679
3.27233	685
3.27600	692
3.27967	697
3.28333	702
3.28700	708
3.29067	714
3.29433	720
3.29800	727
3.30167	735
3.30533	742
3.30900	747
3.31267	754
3.31633	760
3.32000	766
3.32367	774
3.32733	782
3.33100	785
3.33467	789
3.33833	792
3.34200	797
3.34567	801
3.34933	801
3.35300	801
3.35667	802
3.36033	803
3.36400	803
3.36767	801
3.37133	800
3.37500	803
3.37867	805
3.38233	807
3.38600	807
3.38967	806
3.39333	805
3.39700	802
3.40067	798
3.40433	794
3.40800	790
3.41167	787
3.41533	785
3.41900	783
3.42267	780
3.42633	778
3.43000	774
3.43367	767
3.43733	762
3.44100	758
3.44467	752
3.44833	748
3.45200	744
3.45567	739
3.45933	735
3.46300	732
3.46667	729
3.47033	725
3.47400	721
3.47767	718
3.48133	716
3.48500	714
3.48867	714
3.49233	715
3.49600	714
3.49967	714
3.50333	713
3.50700	711
3.51067	708
3.51433	706
3.51800	706
3.52167	706
3.52533	705
3.52900	704
3.53267	703
3.53633	702
3.54000	703
3.54367	703
3.54733	703
3.55100	704
3.55467	703
3.55833	702
3.56200	701
3.56567	700
3.56933	700
3.57300	701
3.57667	699
3.58033	697
3.58400	696
3.58767	695
3.59133	696
3.59500	695
3.59867	694
3.60233	694
3.60600	695
3.60967	696
3.61333	696
3.61700	695
3.62067	696
3.62433	696
3.62800	695
3.63167	695
3.63533	697
3.63900	699
3.64267	699
3.64633	696
3.65000	694
3.65367	691
3.65733	689
3.66100	688
3.66467	686
3.66833	683
3.67200	681
3.67567	679
3.67933	678
3.68300	679
3.68667	679
3.69033	678
3.69400	678
3.69767	677
3.70133	674
3.70500	672
3.70867	670
3.71233	669
3.71600	669
3.71967	666
3.72333	663
3.72700	661
3.73067	661
3.73433	660
3.73800	659
3.74167	658
3.74533	656
3.74900	654
3.75267	651
3.75633	651
3.76000	652
3.76367	650
3.76733	648
3.77100	648
3.77467	648
3.77833	647
3.78200	646
3.78567	643
3.78933	642
3.79300	640
3.79667	639
3.80033	636
3.80400	634
3.80767	635
3.81133	633
3.81500	633
3.81867	628
3.82233	623
3.82600	621
3.82967	620
3.83333	620
3.83700	620
3.84067	619
3.84433	615
3.84800	612
3.85167	612
3.85533	612
3.85900	612
3.86267	609
3.86633	606
3.87000	602
3.87367	599
3.87733	598
3.88100	597
3.88467	597
3.88833	596
3.89200	595
3.89567	596
3.89933	597
3.90300	597
3.90667	595
3.91033	590
3.91400	587
3.91767	587
3.92133	586
3.92500	583
3.92867	579
3.93233	576
3.93600	572
3.93967	571
3.94333	569
3.94700	567
3.95067	567
3.95433	566
3.95800	563
3.96167	561
3.96533	562
3.96900	563
3.97267	561
3.97633	559
3.98000	557
3.98367	555
3.98733	552
3.99100	553
3.99467	553
3.99833	550

[Status Trace (Column Oven Temperature)]
Interval(msec)	1000
# of Points	240
Start Time(min)	0.016
End Time(min)	3.999
Intensity Units	
Intensity Multiplier	1
R.Time (min)	Intensity
0.01613	35.09
0.03280	35.08
0.04947	35.09
0.06613	35.08
0.08280	35.07
0.09947	35.06
0.11613	35.06
0.13280	35.05
0.14947	35.05
0.16613	35.05
0.18280	35.04
0.19947	35.03
0.21613	35.03
0.23280	35.04
0.24947	35.02
0.26613	35.01
0.28280	35.01
0.29947	35.00
0.31613	35.00
0.33280	35.00
0.34947	35.00
0.36613	35.01
0.38280	35.01
0.39947	35.01
0.41613	35.01
0.43280	35.00
0.44947	35.01
0.46613	35.01
0.48280	35.00
0.49947	35.00
0.51613	35.00
0.53280	35.00
0.54947	35.00
0.56613	35.00
0.58280	35.00
0.59947	35.00
0.61613	34.99
0.63280	34.99
0.64947	34.99
0.66613	34.99
0.68280	34.99
0.69947	35.00
0.71613	35.00
0.73280	35.02
0.74947	35.03
0.76613	35.03
0.78280	35.03
0.79947	35.03
0.81613	35.03
0.83280	35.02
0.84947	35.02
0.86613	35.01
0.88280	35.01
0.89947	35.02
0.91613	35.02
0.93280	35.02
0.94947	35.02
0.96613	35.02
0.98280	35.02
0.99947	35.02
1.01613	35.01
1.03280	34.99
1.04947	34.98
1.06613	34.98
1.08280	34.98
1.09947	34.98
1.11613	34.98
1.13280	34.97
1.14947	34.97
1.16613	34.95
1.18280	34.94
1.19947	34.96
1.21613	34.98
1.23280	35.00
1.24947	35.02
1.26613	35.02
1.28280	35.02
1.29947	35.04
1.31613	35.03
1.33280	35.02
1.34947	35.02
1.36613	35.01
1.38280	35.00
1.39947	35.00
1.41613	35.00
1.43280	34.99
1.44947	34.99
1.46613	34.99
1.48280	34.98
1.49947	34.97
1.51613	34.97
1.53280	34.96
1.54947	34.97
1.56613	34.98
1.58280	34.99
1.59947	35.03
1.61613	35.13
1.63280	35.29
1.64947	35.51
1.66613	35.78
1.68280	36.14
1.69947	36.49
1.71613	36.86
1.73280	37.18
1.74947	37.48
1.76613	37.83
1.78280	38.17
1.79947	38.50
1.81613	38.83
1.83280	39.17
1.84947	39.51
1.86613	39.84
1.88280	40.14
1.89947	40.47
1.91613	40.79
1.93280	41.13
1.94947	41.46
1.96613	41.79
1.98280	42.10
1.99947	42.43
2.01613	42.77
2.03280	43.10
2.04947	43.41
2.06613	43.74
2.08280	44.09
2.09947	44.39
2.11613	44.70
2.13280	45.04
2.14947	45.38
2.16613	45.71
2.18280	46.02
2.19947	46.35
2.21613	46.67
2.23280	47.02
2.24947	47.34
2.26613	47.66
2.28280	48.00
2.29947	48.31
2.31613	48.67
2.33280	48.98
2.34947	49.28
2.36613	49.54
2.38280	49.66
2.39947	49.68
2.41613	49.67
2.43280	49.69
2.44947	49.69
2.46613	49.70
2.48280	49.70
2.49947	49.72
2.51613	49.76
2.53280	49.75
2.54947	49.77
2.56613	49.78
2.58280	49.79
2.59947	49.80
2.61613	49.81
2.63280	49.83
2.64947	49.82
2.66613	49.83
2.68280	49.83
2.69947	49.85
2.71613	49.86
2.73280	49.85
2.74947	49.84
2.76613	49.85
2.78280	49.87
2.79947	49.86
2.81613	49.85
2.83280	49.86
2.84947	49.85
2.86613	49.87
2.88280	49.88
2.89947	49.89
2.91613	49.91
2.93280	49.91
2.94947	49.93
2.96613	49.95
2.98280	49.97
2.99947	49.98
3.01613	50.00
3.03280	50.01
3.04947	50.02
3.06613	50.02
3.08280	50.02
3.09947	50.02
3.11613	50.02
3.13280	50.02
3.14947	50.02
3.16613	50.03
3.18280	50.05
3.19947	50.06
3.21613	50.07
3.23280	50.07
3.24947	50.06
3.26613	50.06
3.28280	50.06
3.29947	50.07
3.31613	50.07
3.33280	50.09
3.34947	50.09
3.36613	50.10
3.38280	50.11
3.39947	50.12
3.41613	50.12
3.43280	50.12
3.44947	50.10
3.46613	50.08
3.48280	50.06
3.49947	50.04
3.51613	50.03
3.53280	50.01
3.54947	50.00
3.56613	50.01
3.58280	50.01
3.59947	50.01
3.61613	50.01
3.63280	50.01
3.64947	50.02
3.66613	50.02
3.68280	50.03
3.69947	50.04
3.71613	50.03
3.73280	50.03
3.74947	50.03
3.76613	50.03
3.78280	50.03
3.79947	50.04
3.81613	50.04
3.83280	50.05
3.84947	50.06
3.86613	50.06
3.88280	50.08
3.89947	50.07
3.91613	50.07
3.93280	50.05
3.94947	50.05
3.96613	50.04
3.98280	50.03
3.99947	50.03

[Status Trace (Injection Unit Temperature)]
Interval(msec)	1000
# of Points	240
Start Time(min)	0.016
End Time(min)	3.999
Intensity Units	
Intensity Multiplier	1
R.Time (min)	Intensity
0.01613	99.98
0.03280	99.98
0.04947	99.98
0.06613	99.98
0.08280	99.98
0.09947	99.98
0.11613	99.98
0.13280	99.98
0.14947	99.99
0.16613	99.99
0.18280	99.98
0.19947	99.99
0.21613	99.98
0.23280	99.99
0.24947	99.98
0.26613	99.99
0.28280	99.98
0.29947	99.98
0.31613	99.99
0.33280	99.99
0.34947	99.98
0.36613	99.99
0.38280	99.99
0.39947	99.99
0.41613	99.99
0.43280	99.99
0.44947	99.99
0.46613	99.99
0.48280	99.99
0.49947	99.99
0.51613	99.99
0.53280	99.99
0.54947	99.99
0.56613	99.99
0.58280	99.99
0.59947	99.99
0.61613	99.99
0.63280	99.99
0.64947	99.99
0.66613	99.99
0.68280	99.99
0.69947	99.99
0.71613	99.99
0.73280	99.98
0.74947	99.99
0.76613	99.99
0.78280	99.99
0.79947	99.99
0.81613	99.99
0.83280	99.98
0.84947	99.99
0.86613	99.99
0.88280	99.98
0.89947	99.98
0.91613	99.99
0.93280	99.98
0.94947	99.98
0.96613	99.98
0.98280	99.98
0.99947	99.98
1.01613	99.98
1.03280	99.98
1.04947	99.98
1.06613	99.98
1.08280	99.98
1.09947	99.98
1.11613	99.98
1.13280	99.98
1.14947	99.98
1.16613	99.98
1.18280	99.98
1.19947	99.98
1.21613	99.98
1.23280	99.98
1.24947	99.98
1.26613	99.99
1.28280	99.98
1.29947	99.98
1.31613	99.99
1.33280	99.98
1.34947	99.99
1.36613	99.98
1.38280	99.99
1.39947	99.99
1.41613	99.99
1.43280	99.98
1.44947	99.99
1.46613	99.99
1.48280	99.99
1.49947	99.99
1.51613	99.99
1.53280	99.99
1.54947	99.98
1.56613	99.99
1.58280	99.99
1.59947	99.99
1.61613	99.99
1.63280	99.99
1.64947	99.99
1.66613	99.99
1.68280	99.99
1.69947	99.99
1.71613	99.99
1.73280	99.99
1.74947	99.99
1.76613	99.99
1.78280	99.99
1.79947	99.99
1.81613	99.99
1.83280	99.99
1.84947	99.99
1.86613	99.99
1.88280	99.99
1.89947	99.98
1.91613	99.99
1.93280	99.99
1.94947	99.99
1.96613	99.98
1.98280	99.98
1.99947	99.98
2.01613	99.98
2.03280	99.98
2.04947	99.98
2.06613	99.98
2.08280	99.97
2.09947	99.97
2.11613	99.97
2.13280	99.97
2.14947	99.97
2.16613	99.97
2.18280	99.97
2.19947	99.97
2.21613	99.97
2.23280	99.97
2.24947	99.96
2.26613	99.97
2.28280	99.97
2.29947	99.97
2.31613	99.97
2.33280	99.96
2.34947	99.97
2.36613	99.96
2.38280	99.96
2.39947	99.97
2.41613	99.97
2.43280	99.97
2.44947	99.96
2.46613	99.96
2.48280	99.97
2.49947	99.97
2.51613	99.97
2.53280	99.97
2.54947	99.97
2.56613	99.97
2.58280	99.97
2.59947	99.97
2.61613	99.98
2.63280	99.97
2.64947	99.98
2.66613	99.97
2.68280	99.98
2.69947	99.98
2.71613	99.99
2.73280	99.99
2.74947	99.99
2.76613	99.99
2.78280	99.99
2.79947	99.99
2.81613	99.99
2.83280	100.00
2.84947	100.00
2.86613	100.00
2.88280	100.00
2.89947	100.00
2.91613	100.00
2.93280	100.01
2.94947	100.01
2.96613	100.00
2.98280	100.01
2.99947	100.01
3.01613	100.01
3.03280	100.02
3.04947	100.02
3.06613	100.01
3.08280	100.01
3.09947	100.01
3.11613	100.02
3.13280	100.02
3.14947	100.02
3.16613	100.02
3.18280	100.03
3.19947	100.03
3.21613	100.03
3.23280	100.03
3.24947	100.03
3.26613	100.03
3.28280	100.03
3.29947	100.03
3.31613	100.03
3.33280	100.03
3.34947	100.03
3.36613	100.04
3.38280	100.03
3.39947	100.03
3.41613	100.04
3.43280	100.04
3.44947	100.04
3.46613	100.04
3.48280	100.03
3.49947	100.04
3.51613	100.04
3.53280	100.04
3.54947	100.04
3.56613	100.04
3.58280	100.04
3.59947	100.04
3.61613	100.04
3.63280	100.04
3.64947	100.04
3.66613	100.04
3.68280	100.04
3.69947	100.04
3.71613	100.04
3.73280	100.04
3.74947	100.04
3.76613	100.05
3.78280	100.04
3.79947	100.04
3.81613	100.04
3.83280	100.04
3.84947	100.05
3.86613	100.05
3.88280	100.04
3.89947	100.04
3.91613	100.05
3.93280	100.05
3.94947	100.05
3.96613	100.05
3.98280	100.04
3.99947	100.05

[Status Trace (Carrier Gas Pressure)]
Interval(msec)	1000
# of Points	240
Start Time(min)	0.016
End Time(min)	3.999
Intensity Units	
Intensity Multiplier	1
R.Time (min)	Intensity
0.01613	56.98
0.03280	55.87
0.04947	58.26
0.06613	59.89
0.08280	58.49
0.09947	57.97
0.11613	58.00
0.13280	58.01
0.14947	58.01
0.16613	58.00
0.18280	58.00
0.19947	58.00
0.21613	58.00
0.23280	58.00
0.24947	58.00
0.26613	58.00
0.28280	58.00
0.29947	58.00
0.31613	58.00
0.33280	58.00
0.34947	58.00
0.36613	58.00
0.38280	58.00
0.39947	58.00
0.41613	58.00
0.43280	58.00
0.44947	58.00
0.46613	58.00
0.48280	58.00
0.49947	58.00
0.51613	58.00
0.53280	58.00
0.54947	58.00
0.56613	58.00
0.58280	58.00
0.59947	58.00
0.61613	58.00
0.63280	58.00
0.64947	58.00
0.66613	58.00
0.68280	58.00
0.69947	58.00
0.71613	58.00
0.73280	58.00
0.74947	58.00
0.76613	58.00
0.78280	58.00
0.79947	58.00
0.81613	58.00
0.83280	58.00
0.84947	58.00
0.86613	58.00
0.88280	58.00
0.89947	58.00
0.91613	58.00
0.93280	58.00
0.94947	58.00
0.96613	58.00
0.98280	58.00
0.99947	58.00
1.01613	58.00
1.03280	58.00
1.04947	58.00
1.06613	58.00
1.08280	58.00
1.09947	58.00
1.11613	58.00
1.13280	58.00
1.14947	58.00
1.16613	58.00
1.18280	58.00
1.19947	58.00
1.21613	58.00
1.23280	58.00
1.24947	58.00
1.26613	58.00
1.28280	58.00
1.29947	58.00
1.31613	58.00
1.33280	58.00
1.34947	58.00
1.36613	58.00
1.38280	58.00
1.39947	58.00
1.41613	58.00
1.43280	58.00
1.44947	58.00
1.46613	58.00
1.48280	58.00
1.49947	58.00
1.51613	58.00
1.53280	58.00
1.54947	58.00
1.56613	58.00
1.58280	58.00
1.59947	58.00
1.61613	58.00
1.63280	58.00
1.64947	58.00
1.66613	58.00
1.68280	58.01
1.69947	58.00
1.71613	58.00
1.73280	58.00
1.74947	58.00
1.76613	58.00
1.78280	58.00
1.79947	58.00
1.81613	58.00
1.83280	58.00
1.84947	58.00
1.86613	58.00
1.88280	58.00
1.89947	58.00
1.91613	58.00
1.93280	58.00
1.94947	58.00
1.96613	58.00
1.98280	58.00
1.99947	58.00
2.01613	58.00
2.03280	58.00
2.04947	58.00
2.06613	58.00
2.08280	58.00
2.09947	58.00
2.11613	58.00
2.13280	58.00
2.14947	58.00
2.16613	58.00
2.18280	58.00
2.19947	58.00
2.21613	58.00
2.23280	58.00
2.24947	58.00
2.26613	58.00
2.28280	58.00
2.29947	58.00
2.31613	58.00
2.33280	58.00
2.34947	58.00
2.36613	58.00
2.38280	57.99
2.39947	57.99
2.41613	58.00
2.43280	58.00
2.44947	58.00
2.46613	58.00
2.48280	58.00
2.49947	58.00
2.51613	57.99
2.53280	57.99
2.54947	58.00
2.56613	58.00
2.58280	58.00
2.59947	58.00
2.61613	58.00
2.63280	58.00
2.64947	58.00
2.66613	58.00
2.68280	58.00
2.69947	58.00
2.71613	58.00
2.73280	58.00
2.74947	58.00
2.76613	58.00
2.78280	58.00
2.79947	58.00
2.81613	58.00
2.83280	58.00
2.84947	58.00
2.86613	58.00
2.88280	58.00
2.89947	58.00
2.91613	58.00
2.93280	58.00
2.94947	58.00
2.96613	58.00
2.98280	58.00
2.99947	58.00
3.01613	58.00
3.03280	58.00
3.04947	58.00
3.06613	58.00
3.08280	58.00
3.09947	58.00
3.11613	58.00
3.13280	58.00
3.14947	58.00
3.16613	58.00
3.18280	58.00
3.19947	58.00
3.21613	58.00
3.23280	58.00
3.24947	58.00
3.26613	58.00
3.28280	58.00
3.29947	58.00
3.31613	58.00
3.33280	58.00
3.34947	58.00
3.36613	58.00
3.38280	58.00
3.39947	58.00
3.41613	58.00
3.43280	58.00
3.44947	58.00
3.46613	58.00
3.48280	58.00
3.49947	58.00
3.51613	58.00
3.53280	58.00
3.54947	58.00
3.56613	58.00
3.58280	58.00
3.59947	58.00
3.61613	58.00
3.63280	58.00
3.64947	58.00
3.66613	58.00
3.68280	58.00
3.69947	58.00
3.71613	58.00
3.73280	58.00
3.74947	58.00
3.76613	58.00
3.78280	58.00
3.79947	58.00
3.81613	58.00
3.83280	58.00
3.84947	58.00
3.86613	58.00
3.88280	58.00
3.89947	58.00
3.91613	58.00
3.93280	58.00
3.94947	58.00
3.96613	58.00
3.98280	58.00
3.99947	58.00

[Status Trace (Carrier Gas Flow)]
Interval(msec)	1000
# of Points	240
Start Time(min)	0.016
End Time(min)	3.999
Intensity Units	
Intensity Multiplier	1
R.Time (min)	Intensity
0.01613	33.83
0.03280	34.54
0.04947	34.55
0.06613	34.50
0.08280	34.51
0.09947	34.52
0.11613	34.52
0.13280	34.52
0.14947	34.52
0.16613	34.52
0.18280	34.51
0.19947	34.52
0.21613	34.52
0.23280	34.52
0.24947	34.53
0.26613	34.52
0.28280	34.52
0.29947	34.52
0.31613	34.52
0.33280	34.52
0.34947	34.52
0.36613	34.52
0.38280	34.52
0.39947	34.52
0.41613	34.52
0.43280	34.52
0.44947	34.52
0.46613	34.52
0.48280	34.52
0.49947	34.52
0.51613	34.52
0.53280	34.52
0.54947	34.52
0.56613	34.52
0.58280	34.52
0.59947	34.52
0.61613	34.52
0.63280	34.52
0.64947	34.52
0.66613	34.52
0.68280	34.52
0.69947	34.52
0.71613	34.51
0.73280	34.52
0.74947	34.52
0.76613	34.52
0.78280	34.52
0.79947	34.52
0.81613	34.52
0.83280	34.52
0.84947	34.52
0.86613	34.52
0.88280	34.52
0.89947	34.52
0.91613	34.52
0.93280	34.52
0.94947	34.52
0.96613	34.52
0.98280	34.52
0.99947	34.52
1.01613	34.52
1.03280	34.52
1.04947	34.52
1.06613	34.52
1.08280	34.51
1.09947	34.52
1.11613	34.52
1.13280	34.52
1.14947	34.52
1.16613	34.51
1.18280	34.52
1.19947	34.52
1.21613	34.51
1.23280	34.51
1.24947	34.51
1.26613	34.52
1.28280	34.52
1.29947	34.52
1.31613	34.52
1.33280	34.52
1.34947	34.52
1.36613	34.52
1.38280	34.51
1.39947	34.53
1.41613	34.52
1.43280	34.52
1.44947	34.52
1.46613	34.52
1.48280	34.52
1.49947	34.51
1.51613	34.52
1.53280	34.52
1.54947	34.52
1.56613	34.53
1.58280	34.52
1.59947	34.52
1.61613	34.52
1.63280	34.52
1.64947	34.52
1.66613	34.52
1.68280	34.52
1.69947	34.51
1.71613	34.52
1.73280	34.52
1.74947	34.52
1.76613	34.52
1.78280	34.52
1.79947	34.52
1.81613	34.52
1.83280	34.52
1.84947	34.52
1.86613	34.52
1.88280	34.52
1.89947	34.52
1.91613	34.52
1.93280	34.52
1.94947	34.52
1.96613	34.52
1.98280	34.52
1.99947	34.52
2.01613	34.52
2.03280	34.52
2.04947	34.52
2.06613	34.52
2.08280	34.52
2.09947	34.52
2.11613	34.52
2.13280	34.52
2.14947	34.52
2.16613	34.52
2.18280	34.52
2.19947	34.52
2.21613	34.52
2.23280	34.52
2.24947	34.51
2.26613	34.52
2.28280	34.52
2.29947	34.52
2.31613	34.52
2.33280	34.52
2.34947	34.51
2.36613	34.52
2.38280	34.52
2.39947	34.52
2.41613	34.51
2.43280	34.52
2.44947	34.51
2.46613	34.52
2.48280	34.51
2.49947	34.52
2.51613	34.52
2.53280	34.52
2.54947	34.52
2.56613	34.52
2.58280	34.52
2.59947	34.52
2.61613	34.52
2.63280	34.52
2.64947	34.52
2.66613	34.53
2.68280	34.52
2.69947	34.52
2.71613	34.52
2.73280	34.52
2.74947	34.52
2.76613	34.52
2.78280	34.52
2.79947	34.52
2.81613	34.52
2.83280	34.52
2.84947	34.52
2.86613	34.52
2.88280	34.52
2.89947	34.52
2.91613	34.52
2.93280	34.51
2.94947	34.52
2.96613	34.51
2.98280	34.52
2.99947	34.52
3.01613	34.52
3.03280	34.52
3.04947	34.52
3.06613	34.52
3.08280	34.52
3.09947	34.52
3.11613	34.52
3.13280	34.52
3.14947	34.52
3.16613	34.52
3.18280	34.52
3.19947	34.52
3.21613	34.52
3.23280	34.52
3.24947	34.52
3.26613	34.52
3.28280	34.52
3.29947	34.52
3.31613	34.52
3.33280	34.52
3.34947	34.52
3.36613	34.52
3.38280	34.52
3.39947	34.52
3.41613	34.52
3.43280	34.52
3.44947	34.52
3.46613	34.52
3.48280	34.52
3.49947	34.51
3.51613	34.52
3.53280	34.52
3.54947	34.52
3.56613	34.52
3.58280	34.52
3.59947	34.52
3.61613	34.52
3.63280	34.52
3.64947	34.52
3.66613	34.52
3.68280	34.52
3.69947	34.52
3.71613	34.52
3.73280	34.52
3.74947	34.52
3.76613	34.52
3.78280	34.52
3.79947	34.52
3.81613	34.52
3.83280	34.52
3.84947	34.52
3.86613	34.52
3.88280	34.51
3.89947	34.52
3.91613	34.52
3.93280	34.52
3.94947	34.51
3.96613	34.52
3.98280	34.52
3.99947	34.52

[Status Trace (Column Flow)]
Interval(msec)	1000
# of Points	240
Start Time(min)	0.016
End Time(min)	3.999
Intensity Units	
Intensity Multiplier	1
R.Time (min)	Intensity
0.01613	5.43
0.03280	5.30
0.04947	5.58
0.06613	5.77
0.08280	5.60
0.09947	5.54
0.11613	5.55
0.13280	5.55
0.14947	5.55
0.16613	5.55
0.18280	5.55
0.19947	5.55
0.21613	5.55
0.23280	5.55
0.24947	5.55
0.26613	5.55
0.28280	5.55
0.29947	5.55
0.31613	5.55
0.33280	5.55
0.34947	5.55
0.36613	5.55
0.38280	5.55
0.39947	5.55
0.41613	5.55
0.43280	5.55
0.44947	5.55
0.46613	5.55
0.48280	5.55
0.49947	5.55
0.51613	5.55
0.53280	5.55
0.54947	5.55
0.56613	5.55
0.58280	5.55
0.59947	5.55
0.61613	5.55
0.63280	5.55
0.64947	5.55
0.66613	5.55
0.68280	5.55
0.69947	5.55
0.71613	5.55
0.73280	5.55
0.74947	5.55
0.76613	5.55
0.78280	5.55
0.79947	5.55
0.81613	5.55
0.83280	5.55
0.84947	5.55
0.86613	5.55
0.88280	5.55
0.89947	5.55
0.91613	5.55
0.93280	5.55
0.94947	5.55
0.96613	5.55
0.98280	5.55
0.99947	5.55
1.01613	5.55
1.03280	5.55
1.04947	5.55
1.06613	5.55
1.08280	5.55
1.09947	5.55
1.11613	5.55
1.13280	5.55
1.14947	5.55
1.16613	5.55
1.18280	5.55
1.19947	5.55
1.21613	5.55
1.23280	5.55
1.24947	5.55
1.26613	5.55
1.28280	5.55
1.29947	5.55
1.31613	5.55
1.33280	5.55
1.34947	5.55
1.36613	5.55
1.38280	5.55
1.39947	5.55
1.41613	5.55
1.43280	5.55
1.44947	5.55
1.46613	5.55
1.48280	5.55
1.49947	5.55
1.51613	5.55
1.53280	5.55
1.54947	5.55
1.56613	5.55
1.58280	5.55
1.59947	5.55
1.61613	5.55
1.63280	5.54
1.64947	5.53
1.66613	5.53
1.68280	5.51
1.69947	5.50
1.71613	5.49
1.73280	5.48
1.74947	5.47
1.76613	5.46
1.78280	5.45
1.79947	5.44
1.81613	5.43
1.83280	5.42
1.84947	5.41
1.86613	5.40
1.88280	5.39
1.89947	5.38
1.91613	5.37
1.93280	5.36
1.94947	5.35
1.96613	5.34
1.98280	5.33
1.99947	5.32
2.01613	5.31
2.03280	5.30
2.04947	5.29
2.06613	5.28
2.08280	5.27
2.09947	5.26
2.11613	5.25
2.13280	5.24
2.14947	5.23
2.16613	5.22
2.18280	5.22
2.19947	5.21
2.21613	5.20
2.23280	5.19
2.24947	5.18
2.26613	5.17
2.28280	5.16
2.29947	5.15
2.31613	5.14
2.33280	5.13
2.34947	5.12
2.36613	5.12
2.38280	5.11
2.39947	5.11
2.41613	5.11
2.43280	5.11
2.44947	5.11
2.46613	5.11
2.48280	5.11
2.49947	5.11
2.51613	5.11
2.53280	5.11
2.54947	5.11
2.56613	5.11
2.58280	5.11
2.59947	5.11
2.61613	5.11
2.63280	5.11
2.64947	5.11
2.66613	5.11
2.68280	5.11
2.69947	5.11
2.71613	5.11
2.73280	5.11
2.74947	5.11
2.76613	5.11
2.78280	5.11
2.79947	5.11
2.81613	5.11
2.83280	5.11
2.84947	5.11
2.86613	5.11
2.88280	5.11
2.89947	5.11
2.91613	5.11
2.93280	5.11
2.94947	5.11
2.96613	5.10
2.98280	5.10
2.99947	5.10
3.01613	5.10
3.03280	5.10
3.04947	5.10
3.06613	5.10
3.08280	5.10
3.09947	5.10
3.11613	5.10
3.13280	5.10
3.14947	5.10
3.16613	5.10
3.18280	5.10
3.19947	5.10
3.21613	5.10
3.23280	5.10
3.24947	5.10
3.26613	5.10
3.28280	5.10
3.29947	5.10
3.31613	5.10
3.33280	5.10
3.34947	5.10
3.36613	5.10
3.38280	5.10
3.39947	5.10
3.41613	5.10
3.43280	5.10
3.44947	5.10
3.46613	5.10
3.48280	5.10
3.49947	5.10
3.51613	5.10
3.53280	5.10
3.54947	5.10
3.56613	5.10
3.58280	5.10
3.59947	5.10
3.61613	5.10
3.63280	5.10
3.64947	5.10
3.66613	5.10
3.68280	5.10
3.69947	5.10
3.71613	5.10
3.73280	5.10
3.74947	5.10
3.76613	5.10
3.78280	5.10
3.79947	5.10
3.81613	5.10
3.83280	5.10
3.84947	5.10
3.86613	5.10
3.88280	5.10
3.89947	5.10
3.91613	5.10
3.93280	5.10
3.94947	5.10
3.96613	5.10
3.98280	5.10
3.99947	5.10

[Status Trace (Linear Velocity)]
Interval(msec)	1000
# of Points	240
Start Time(min)	0.016
End Time(min)	3.999
Intensity Units	
Intensity Multiplier	1
R.Time (min)	Intensity
0.01613	38.35
0.03280	37.62
0.04947	39.19
0.06613	40.25
0.08280	39.34
0.09947	39.00
0.11613	39.02
0.13280	39.02
0.14947	39.02
0.16613	39.02
0.18280	39.02
0.19947	39.02
0.21613	39.02
0.23280	39.02
0.24947	39.02
0.26613	39.02
0.28280	39.02
0.29947	39.02
0.31613	39.02
0.33280	39.02
0.34947	39.02
0.36613	39.02
0.38280	39.02
0.39947	39.02
0.41613	39.02
0.43280	39.02
0.44947	39.02
0.46613	39.02
0.48280	39.02
0.49947	39.02
0.51613	39.02
0.53280	39.02
0.54947	39.02
0.56613	39.02
0.58280	39.02
0.59947	39.02
0.61613	39.02
0.63280	39.02
0.64947	39.02
0.66613	39.02
0.68280	39.02
0.69947	39.02
0.71613	39.02
0.73280	39.02
0.74947	39.02
0.76613	39.02
0.78280	39.02
0.79947	39.02
0.81613	39.02
0.83280	39.02
0.84947	39.02
0.86613	39.02
0.88280	39.02
0.89947	39.02
0.91613	39.02
0.93280	39.02
0.94947	39.02
0.96613	39.02
0.98280	39.02
0.99947	39.02
1.01613	39.02
1.03280	39.02
1.04947	39.02
1.06613	39.03
1.08280	39.02
1.09947	39.02
1.11613	39.03
1.13280	39.03
1.14947	39.03
1.16613	39.03
1.18280	39.03
1.19947	39.03
1.21613	39.03
1.23280	39.02
1.24947	39.02
1.26613	39.02
1.28280	39.02
1.29947	39.02
1.31613	39.02
1.33280	39.02
1.34947	39.02
1.36613	39.02
1.38280	39.02
1.39947	39.02
1.41613	39.02
1.43280	39.02
1.44947	39.02
1.46613	39.02
1.48280	39.02
1.49947	39.03
1.51613	39.03
1.53280	39.03
1.54947	39.03
1.56613	39.03
1.58280	39.02
1.59947	39.02
1.61613	39.01
1.63280	39.00
1.64947	38.98
1.66613	38.95
1.68280	38.92
1.69947	38.88
1.71613	38.85
1.73280	38.81
1.74947	38.79
1.76613	38.75
1.78280	38.72
1.79947	38.69
1.81613	38.66
1.83280	38.63
1.84947	38.60
1.86613	38.56
1.88280	38.53
1.89947	38.50
1.91613	38.47
1.93280	38.44
1.94947	38.41
1.96613	38.38
1.98280	38.35
1.99947	38.32
2.01613	38.29
2.03280	38.26
2.04947	38.23
2.06613	38.20
2.08280	38.17
2.09947	38.14
2.11613	38.11
2.13280	38.08
2.14947	38.05
2.16613	38.02
2.18280	37.99
2.19947	37.96
2.21613	37.94
2.23280	37.90
2.24947	37.88
2.26613	37.85
2.28280	37.82
2.29947	37.79
2.31613	37.76
2.33280	37.73
2.34947	37.70
2.36613	37.68
2.38280	37.67
2.39947	37.66
2.41613	37.67
2.43280	37.67
2.44947	37.67
2.46613	37.66
2.48280	37.66
2.49947	37.66
2.51613	37.65
2.53280	37.65
2.54947	37.66
2.56613	37.66
2.58280	37.66
2.59947	37.66
2.61613	37.66
2.63280	37.65
2.64947	37.65
2.66613	37.65
2.68280	37.65
2.69947	37.65
2.71613	37.65
2.73280	37.65
2.74947	37.65
2.76613	37.65
2.78280	37.65
2.79947	37.65
2.81613	37.65
2.83280	37.65
2.84947	37.65
2.86613	37.65
2.88280	37.65
2.89947	37.65
2.91613	37.65
2.93280	37.65
2.94947	37.64
2.96613	37.64
2.98280	37.64
2.99947	37.64
3.01613	37.64
3.03280	37.64
3.04947	37.64
3.06613	37.64
3.08280	37.64
3.09947	37.64
3.11613	37.64
3.13280	37.64
3.14947	37.64
3.16613	37.64
3.18280	37.63
3.19947	37.63
3.21613	37.63
3.23280	37.63
3.24947	37.63
3.26613	37.63
3.28280	37.63
3.29947	37.63
3.31613	37.63
3.33280	37.63
3.34947	37.63
3.36613	37.63
3.38280	37.63
3.39947	37.63
3.41613	37.63
3.43280	37.63
3.44947	37.63
3.46613	37.63
3.48280	37.63
3.49947	37.63
3.51613	37.64
3.53280	37.64
3.54947	37.64
3.56613	37.64
3.58280	37.64
3.59947	37.64
3.61613	37.64
3.63280	37.64
3.64947	37.64
3.66613	37.64
3.68280	37.64
3.69947	37.64
3.71613	37.64
3.73280	37.64
3.74947	37.64
3.76613	37.64
3.78280	37.64
3.79947	37.64
3.81613	37.63
3.83280	37.63
3.84947	37.63
3.86613	37.63
3.88280	37.63
3.89947	37.63
3.91613	37.63
3.93280	37.63
3.94947	37.63
3.96613	37.63
3.98280	37.64
3.99947	37.64

