[Header]
Application Name	LabSolutions
Version	5.110
Data File Name	C:\Users\User\Desktop\GC Analyses\Jack\Nachusa Grasslands Sampling\T4 Timepoint July 12th\T4_07122022_044.gcd
Output Date	3/17/2023
Output Time	12:04:53 PM

[File Information]
Type	Data File
Generated	3/14/2023 8:15:47 PM
Generated by	System Administrator
Modified	3/14/2023 8:22:39 PM
Modified by	System Administrator

[Sample Information]
Operator Name	System Administrator
Acquired	3/14/2023 8:18:38 PM
Sample Type	0:Unknown
Level	0
Sample Name	044
Sample ID	044
ISTD Amount1	1
ISTD Amount2	1
ISTD Amount3	1
ISTD Amount4	1
ISTD Amount5	1
ISTD Amount6	1
ISTD Amount7	1
ISTD Amount8	1
ISTD Amount9	1
ISTD Amount10	1
ISTD Amount11	1
ISTD Amount12	1
ISTD Amount13	1
ISTD Amount14	1
ISTD Amount15	1
ISTD Amount16	1
ISTD Amount17	1
ISTD Amount18	1
ISTD Amount19	1
ISTD Amount20	1
ISTD Amount21	1
ISTD Amount22	1
ISTD Amount23	1
ISTD Amount24	1
ISTD Amount25	1
ISTD Amount26	1
ISTD Amount27	1
ISTD Amount28	1
ISTD Amount29	1
ISTD Amount30	1
ISTD Amount31	1
ISTD Amount32	1
Sample Amount	1
Dilution Factor	1
Vial#	43
Injection Volume	1
Injection Count	1
Bar Code	

[Original Files]
Data File	C:\Users\User\Desktop\GC Analyses\Jack\Nachusa Grasslands Sampling\T4 Timepoint July 12th\T4_07122022_044.gcd
Method File	C:\LabSolutions\Data\GHG_4min_2022\ghg3_togas_w_acet_4 min_new_int.gcm
Batch File	C:\LabSolutions\Data\AutoSamplerTesting\T4_07122022.gcb
Report Format File	c:\LabSolutions\System\DEFAULT.lsr

[File Description]


[Configuration]
Instrument Name	C0B7VH3-Instrument1
Instrument #	1
Line #	1
# of Detectors	3
Detector ID	DET#1	DET#2	DET#3
Detector Name	FID	PTCD	ECD
# of Channels	1	1	1

[Peak Table(Ch1)]
# of Peaks	3
Peak#	R.Time	I.Time	F.Time	Area	Height	A/H	Conc.	Mark	ID#	Name	k'	Plate #	Plate Ht.	Tailing	Resolution	Sep.Factor	Area Ratio	Height Ratio	Conc. %	Norm Conc.
1	1.476	1.432	1.538	34314	16937	2.026	242.260	   	1	CO	0.000	9694	15.473	1.291	0.000	0.000	0	0	25.634	25.634
2	1.571	1.538	1.626	3569	1776	2.009	69.001	 V 	2	CH4	0.065	11421	13.133	1.201	1.606	0.000	0	0	7.301	7.301
3	1.996	1.945	2.411	2525401	1210326	2.087	633.807	   	3	CO2	0.353	17411	8.615	1.330	7.129	5.462	0	0	67.065	67.065

[Peak Table(Ch2)]
# of Peaks	0

[Peak Table(Ch3)]
# of Peaks	6
Peak#	R.Time	I.Time	F.Time	Area	Height	A/H	Conc.	Mark	ID#	Name	k'	Plate #	Plate Ht.	Tailing	Resolution	Sep.Factor	Area Ratio	Height Ratio	Conc. %	Norm Conc.
1	1.120	0.794	1.289	279	18	15.684	0.000	   			0.000	492	304.957	0.755	0.000	0.000	0	0	0.000	0.000
2	2.462	2.337	2.510	1990	654	3.042	0.000	   			1.198	10686	14.037	0.000	9.029	0.000	0	0	0.000	0.000
3	2.532	2.510	2.587	1099	353	3.109	0.000	 V 			1.260	6705	22.370	0.000	0.636	1.052	0	0	0.000	0.000
4	2.605	2.587	2.682	562	162	3.468	0.000	 V 			1.326	3113	48.181	0.000	0.472	1.052	0	0	0.000	0.000
5	2.880	2.700	3.093	19427	4880	3.981	0.496	   	1	N2O	1.571	13005	11.534	1.531	1.911	1.185	0	0	100.000	100.000
6	3.287	3.096	3.995	19029	601	31.636	0.000	   	2	SF6	1.935	189	794.742	2.314	0.769	1.231	0	0	0.000	0.000

[Compound Results(Ch1)]
# of IDs	6
ID#	Name	R.Time	Area	Height	Conc.	Curve	3rd	2nd	1st	Constant	Area Ratio	Height Ratio	Conc. %	Norm Conc.
1	CO	1.476	34314	16937	242.260	Linear	0.000000e+00	0.000000e+00	1.416423e+002	0.000000e+00	0	0	25.634	25.634
2	CH4	1.571	3569	1776	69.001	Linear	0.000000e+00	0.000000e+00	5.171738e+001	0.000000e+00	0	0	7.301	7.301
3	CO2	1.996	2525401	1210326	633.807	Linear	0.000000e+00	0.000000e+00	3.984494e+003	0.000000e+00	0	0	67.065	67.065
4	Ethylene	0.000	0	0	0.000	Linear	0.000000e+00	0.000000e+00	0.000000e+00	0.000000e+00	0	0	0.000	0.000
5	Acetylene	0.000	0	0	0.000	Linear	0.000000e+00	0.000000e+00	0.000000e+00	0.000000e+00	0	0	0.000	0.000
6	Ethane	0.000	0	0	0.000	Linear	0.000000e+00	0.000000e+00	0.000000e+00	0.000000e+00	0	0	0.000	0.000

[Compound Results(Ch2)]
# of IDs	5
ID#	Name	R.Time	Area	Height	Conc.	Curve	3rd	2nd	1st	Constant	Area Ratio	Height Ratio	Conc. %	Norm Conc.
1	Hydrogen	0.000	0	0	0.000	Linear	0.000000e+00	0.000000e+00	0.000000e+00	0.000000e+00	0	0	0.000	0.000
2	Oxygen	0.000	0	0	0.000	Linear	0.000000e+00	0.000000e+00	0.000000e+00	0.000000e+00	0	0	0.000	0.000
3	Nitrogen	0.000	0	0	0.000	Linear	0.000000e+00	0.000000e+00	0.000000e+00	0.000000e+00	0	0	0.000	0.000
4	Methane	0.000	0	0	0.000	Linear	0.000000e+00	0.000000e+00	0.000000e+00	0.000000e+00	0	0	0.000	0.000
5	Carbon Monoxide	0.000	0	0	0.000	Linear	0.000000e+00	0.000000e+00	0.000000e+00	0.000000e+00	0	0	0.000	0.000

[Compound Results(Ch3)]
# of IDs	2
ID#	Name	R.Time	Area	Height	Conc.	Curve	3rd	2nd	1st	Constant	Area Ratio	Height Ratio	Conc. %	Norm Conc.
1	N2O	2.880	19427	4880	0.496	Linear	0.000000e+00	0.000000e+00	3.915173e+004	0.000000e+00	0	0	100.000	100.000
2	SF6	3.287	19029	601	0.000	Linear	0.000000e+00	0.000000e+00	0.000000e+00	0.000000e+00	0	0	0.000	0.000

[Group Results(Ch1)]
# of Groups	0

[Group Results(Ch2)]
# of Groups	0

[Group Results(Ch3)]
# of Groups	0

[Chromatogram (Ch1)]
Interval(msec)	220
# of Points	1091
Start Time(min)	0.002
End Time(min)	3.998
R.Time (min)	Intensity
0.00167	-29
0.00533	-33
0.00900	-35
0.01267	-32
0.01633	-27
0.02000	-24
0.02367	-21
0.02733	-18
0.03100	-14
0.03467	1
0.03833	10
0.04200	15
0.04567	21
0.04933	26
0.05300	33
0.05667	38
0.06033	44
0.06400	53
0.06767	56
0.07133	58
0.07500	59
0.07867	61
0.08233	64
0.08600	65
0.08967	63
0.09333	63
0.09700	68
0.10067	74
0.10433	74
0.10800	73
0.11167	75
0.11533	77
0.11900	80
0.12267	83
0.12633	87
0.13000	89
0.13367	82
0.13733	68
0.14100	54
0.14467	43
0.14833	37
0.15200	40
0.15567	46
0.15933	51
0.16300	52
0.16667	50
0.17033	49
0.17400	46
0.17767	39
0.18133	30
0.18500	21
0.18867	6
0.19233	-12
0.19600	-21
0.19967	-24
0.20333	-29
0.20700	-31
0.21067	-29
0.21433	-24
0.21800	-13
0.22167	-2
0.22533	7
0.22900	9
0.23267	7
0.23633	4
0.24000	-4
0.24367	-10
0.24733	-10
0.25100	-3
0.25467	0
0.25833	1
0.26200	2
0.26567	2
0.26933	0
0.27300	-2
0.27667	-5
0.28033	-11
0.28400	-21
0.28767	-16
0.29133	-9
0.29500	-12
0.29867	-9
0.30233	-9
0.30600	-14
0.30967	-14
0.31333	-6
0.31700	2
0.32067	5
0.32433	8
0.32800	5
0.33167	1
0.33533	2
0.33900	6
0.34267	14
0.34633	20
0.35000	16
0.35367	7
0.35733	-0
0.36100	-5
0.36467	-5
0.36833	-5
0.37200	-3
0.37567	2
0.37933	7
0.38300	12
0.38667	14
0.39033	13
0.39400	10
0.39767	5
0.40133	-0
0.40500	-9
0.40867	-15
0.41233	-16
0.41600	-13
0.41967	-13
0.42333	-10
0.42700	-7
0.43067	-2
0.43433	2
0.43800	2
0.44167	-2
0.44533	-5
0.44900	-7
0.45267	-10
0.45633	-9
0.46000	3
0.46367	8
0.46733	3
0.47100	-6
0.47467	-14
0.47833	-17
0.48200	-17
0.48567	-18
0.48933	-15
0.49300	-9
0.49667	-8
0.50033	-8
0.50400	-11
0.50767	-6
0.51133	2
0.51500	3
0.51867	2
0.52233	5
0.52600	9
0.52967	9
0.53333	5
0.53700	-3
0.54067	-5
0.54433	-2
0.54800	-1
0.55167	-4
0.55533	-10
0.55900	-17
0.56267	-20
0.56633	-17
0.57000	-7
0.57367	-2
0.57733	-16
0.58100	-24
0.58467	-26
0.58833	-15
0.59200	-2
0.59567	4
0.59933	3
0.60300	-1
0.60667	-9
0.61033	-16
0.61400	-17
0.61767	-13
0.62133	-11
0.62500	-14
0.62867	-15
0.63233	-19
0.63600	-19
0.63967	-14
0.64333	-14
0.64700	-18
0.65067	-26
0.65433	-34
0.65800	-40
0.66167	-37
0.66533	-24
0.66900	-8
0.67267	2
0.67633	3
0.68000	-5
0.68367	-15
0.68733	-16
0.69100	-12
0.69467	-8
0.69833	-7
0.70200	-8
0.70567	-11
0.70933	-16
0.71300	-22
0.71667	-25
0.72033	-27
0.72400	-28
0.72767	-27
0.73133	-24
0.73500	-19
0.73867	-16
0.74233	-9
0.74600	-0
0.74967	4
0.75333	3
0.75700	1
0.76067	5
0.76433	11
0.76800	19
0.77167	22
0.77533	17
0.77900	4
0.78267	-14
0.78633	-25
0.79000	-30
0.79367	-31
0.79733	-27
0.80100	-27
0.80467	-29
0.80833	-28
0.81200	-26
0.81567	-25
0.81933	-17
0.82300	-4
0.82667	12
0.83033	26
0.83400	28
0.83767	19
0.84133	-0
0.84500	-18
0.84867	-27
0.85233	-38
0.85600	-46
0.85967	-51
0.86333	-52
0.86700	-52
0.87067	-48
0.87433	-42
0.87800	-39
0.88167	-31
0.88533	-20
0.88900	-17
0.89267	-17
0.89633	-17
0.90000	-14
0.90367	-12
0.90733	-15
0.91100	-28
0.91467	-47
0.91833	-61
0.92200	-68
0.92567	-71
0.92933	-73
0.93300	-75
0.93667	-75
0.94033	-73
0.94400	-71
0.94767	-70
0.95133	-64
0.95500	-55
0.95867	-47
0.96233	-41
0.96600	-36
0.96967	-35
0.97333	-33
0.97700	-32
0.98067	-32
0.98433	-33
0.98800	-28
0.99167	-20
0.99533	-15
0.99900	-14
1.00267	-12
1.00633	-7
1.01000	-1
1.01367	7
1.01733	12
1.02100	12
1.02467	15
1.02833	13
1.03200	12
1.03567	10
1.03933	10
1.04300	13
1.04667	15
1.05033	16
1.05400	16
1.05767	15
1.06133	17
1.06500	18
1.06867	26
1.07233	39
1.07600	44
1.07967	41
1.08333	29
1.08700	13
1.09067	-1
1.09433	-15
1.09800	-27
1.10167	-33
1.10533	-31
1.10900	-22
1.11267	-9
1.11633	4
1.12000	12
1.12367	10
1.12733	2
1.13100	-6
1.13467	-10
1.13833	-12
1.14200	-14
1.14567	-15
1.14933	-17
1.15300	-16
1.15667	-10
1.16033	3
1.16400	19
1.16767	24
1.17133	21
1.17500	16
1.17867	7
1.18233	-2
1.18600	-9
1.18967	-16
1.19333	-20
1.19700	-21
1.20067	-18
1.20433	-15
1.20800	-14
1.21167	-18
1.21533	-22
1.21900	-28
1.22267	-30
1.22633	-27
1.23000	-20
1.23367	-11
1.23733	-4
1.24100	4
1.24467	10
1.24833	10
1.25200	-4
1.25567	-15
1.25933	-13
1.26300	-11
1.26667	-9
1.27033	-7
1.27400	-2
1.27767	-5
1.28133	-12
1.28500	-15
1.28867	-17
1.29233	-16
1.29600	-14
1.29967	-13
1.30333	-11
1.30700	-9
1.31067	-6
1.31433	-3
1.31800	-2
1.32167	-1
1.32533	-2
1.32900	-7
1.33267	-9
1.33633	-11
1.34000	-8
1.34367	-10
1.34733	-18
1.35100	-24
1.35467	-26
1.35833	-21
1.36200	-19
1.36567	-23
1.36933	-28
1.37300	-30
1.37667	-27
1.38033	-20
1.38400	-16
1.38767	-13
1.39133	-13
1.39500	-14
1.39867	-12
1.40233	-19
1.40600	-24
1.40967	-23
1.41333	-21
1.41700	-20
1.42067	-20
1.42433	-21
1.42800	-18
1.43167	-14
1.43533	-10
1.43900	-2
1.44267	36
1.44633	188
1.45000	690
1.45367	2080
1.45733	4675
1.46100	8011
1.46467	11308
1.46833	14041
1.47200	15962
1.47567	16905
1.47933	16707
1.48300	15368
1.48667	13150
1.49033	10524
1.49400	7955
1.49767	5753
1.50133	4023
1.50500	2739
1.50867	1826
1.51233	1193
1.51600	763
1.51967	478
1.52333	291
1.52700	163
1.53067	80
1.53433	30
1.53800	8
1.54167	26
1.54533	131
1.54900	359
1.55267	685
1.55633	1034
1.56000	1335
1.56367	1558
1.56733	1688
1.57100	1704
1.57467	1590
1.57833	1359
1.58200	1065
1.58567	775
1.58933	525
1.59300	332
1.59667	200
1.60033	119
1.60400	70
1.60767	36
1.61133	6
1.61500	-31
1.61867	-64
1.62233	-84
1.62600	-95
1.62967	-98
1.63333	-103
1.63700	-107
1.64067	-110
1.64433	-106
1.64800	-96
1.65167	-91
1.65533	-92
1.65900	-95
1.66267	-94
1.66633	-91
1.67000	-87
1.67367	-85
1.67733	-86
1.68100	-87
1.68467	-85
1.68833	-78
1.69200	-71
1.69567	-68
1.69933	-65
1.70300	-67
1.70667	-72
1.71033	-73
1.71400	-69
1.71767	-65
1.72133	-63
1.72500	-58
1.72867	-59
1.73233	-65
1.73600	-71
1.73967	-68
1.74333	-59
1.74700	-55
1.75067	-52
1.75433	-45
1.75800	-36
1.76167	-25
1.76533	-18
1.76900	-21
1.77267	-30
1.77633	-38
1.78000	-37
1.78367	-31
1.78733	-23
1.79100	-24
1.79467	-31
1.79833	-40
1.80200	-49
1.80567	-56
1.80933	-60
1.81300	-60
1.81667	-60
1.82033	-58
1.82400	-49
1.82767	-44
1.83133	-47
1.83500	-46
1.83867	-49
1.84233	-56
1.84600	-63
1.84967	-67
1.85333	-68
1.85700	-62
1.86067	-53
1.86433	-49
1.86800	-48
1.87167	-45
1.87533	-40
1.87900	-39
1.88267	-40
1.88633	-43
1.89000	-45
1.89367	-42
1.89733	-32
1.90100	-23
1.90467	-18
1.90833	-17
1.91200	-18
1.91567	-23
1.91933	-33
1.92300	-42
1.92667	-47
1.93033	-47
1.93400	-47
1.93767	-49
1.94133	-49
1.94500	-44
1.94867	-36
1.95233	-14
1.95600	117
1.95967	904
1.96333	4830
1.96700	19597
1.97067	61956
1.97433	155155
1.97800	314289
1.98167	529097
1.98533	763922
1.98900	976555
1.99267	1132530
1.99633	1210316
2.00000	1201889
2.00367	1113828
2.00733	966791
2.01100	789995
2.01467	612280
2.01833	454413
2.02200	326354
2.02567	229194
2.02933	158915
2.03300	109726
2.03667	76034
2.04033	53246
2.04400	37916
2.04767	27589
2.05133	20579
2.05500	15764
2.05867	12401
2.06233	10001
2.06600	8251
2.06967	6946
2.07333	5951
2.07700	5179
2.08067	4566
2.08433	4072
2.08800	3670
2.09167	3340
2.09533	3064
2.09900	2824
2.10267	2606
2.10633	2411
2.11000	2241
2.11367	2087
2.11733	1941
2.12100	1811
2.12467	1693
2.12833	1592
2.13200	1508
2.13567	1431
2.13933	1359
2.14300	1292
2.14667	1233
2.15033	1180
2.15400	1133
2.15767	1089
2.16133	1047
2.16500	1008
2.16867	970
2.17233	932
2.17600	895
2.17967	863
2.18333	832
2.18700	806
2.19067	787
2.19433	768
2.19800	745
2.20167	723
2.20533	702
2.20900	677
2.21267	652
2.21633	629
2.22000	611
2.22367	596
2.22733	581
2.23100	563
2.23467	552
2.23833	541
2.24200	527
2.24567	510
2.24933	490
2.25300	465
2.25667	446
2.26033	436
2.26400	428
2.26767	422
2.27133	420
2.27500	421
2.27867	417
2.28233	406
2.28600	394
2.28967	383
2.29333	374
2.29700	370
2.30067	364
2.30433	355
2.30800	345
2.31167	336
2.31533	332
2.31900	328
2.32267	323
2.32633	314
2.33000	303
2.33367	295
2.33733	293
2.34100	292
2.34467	293
2.34833	298
2.35200	303
2.35567	305
2.35933	300
2.36300	290
2.36667	277
2.37033	267
2.37400	258
2.37767	250
2.38133	245
2.38500	248
2.38867	254
2.39233	258
2.39600	264
2.39967	271
2.40333	276
2.40700	271
2.41067	261
2.41433	253
2.41800	249
2.42167	246
2.42533	242
2.42900	236
2.43267	232
2.43633	233
2.44000	230
2.44367	227
2.44733	227
2.45100	229
2.45467	227
2.45833	219
2.46200	209
2.46567	202
2.46933	198
2.47300	198
2.47667	196
2.48033	191
2.48400	188
2.48767	195
2.49133	200
2.49500	199
2.49867	194
2.50233	192
2.50600	192
2.50967	188
2.51333	183
2.51700	177
2.52067	171
2.52433	166
2.52800	162
2.53167	160
2.53533	163
2.53900	165
2.54267	162
2.54633	160
2.55000	158
2.55367	156
2.55733	151
2.56100	149
2.56467	150
2.56833	150
2.57200	149
2.57567	148
2.57933	149
2.58300	152
2.58667	157
2.59033	162
2.59400	167
2.59767	169
2.60133	164
2.60500	155
2.60867	151
2.61233	149
2.61600	145
2.61967	143
2.62333	147
2.62700	155
2.63067	158
2.63433	156
2.63800	153
2.64167	149
2.64533	140
2.64900	134
2.65267	130
2.65633	128
2.66000	128
2.66367	132
2.66733	131
2.67100	126
2.67467	118
2.67833	108
2.68200	101
2.68567	100
2.68933	101
2.69300	102
2.69667	107
2.70033	115
2.70400	121
2.70767	126
2.71133	126
2.71500	122
2.71867	122
2.72233	121
2.72600	122
2.72967	126
2.73333	129
2.73700	130
2.74067	127
2.74433	126
2.74800	125
2.75167	125
2.75533	124
2.75900	123
2.76267	119
2.76633	118
2.77000	125
2.77367	134
2.77733	136
2.78100	134
2.78467	135
2.78833	136
2.79200	128
2.79567	109
2.79933	87
2.80300	74
2.80667	70
2.81033	79
2.81400	95
2.81767	111
2.82133	117
2.82500	111
2.82867	98
2.83233	85
2.83600	73
2.83967	63
2.84333	55
2.84700	50
2.85067	44
2.85433	47
2.85800	55
2.86167	61
2.86533	69
2.86900	79
2.87267	84
2.87633	88
2.88000	93
2.88367	98
2.88733	103
2.89100	108
2.89467	112
2.89833	114
2.90200	110
2.90567	106
2.90933	103
2.91300	99
2.91667	91
2.92033	83
2.92400	75
2.92767	69
2.93133	69
2.93500	72
2.93867	77
2.94233	83
2.94600	91
2.94967	100
2.95333	105
2.95700	107
2.96067	107
2.96433	105
2.96800	104
2.97167	101
2.97533	98
2.97900	96
2.98267	97
2.98633	99
2.99000	99
2.99367	96
2.99733	98
3.00100	105
3.00467	111
3.00833	114
3.01200	115
3.01567	115
3.01933	115
3.02300	110
3.02667	104
3.03033	103
3.03400	110
3.03767	110
3.04133	103
3.04500	97
3.04867	91
3.05233	86
3.05600	85
3.05967	85
3.06333	84
3.06700	84
3.07067	82
3.07433	79
3.07800	80
3.08167	85
3.08533	88
3.08900	85
3.09267	80
3.09633	73
3.10000	66
3.10367	63
3.10733	67
3.11100	69
3.11467	72
3.11833	74
3.12200	69
3.12567	67
3.12933	66
3.13300	68
3.13667	67
3.14033	66
3.14400	66
3.14767	68
3.15133	70
3.15500	68
3.15867	66
3.16233	65
3.16600	65
3.16967	72
3.17333	79
3.17700	82
3.18067	79
3.18433	76
3.18800	75
3.19167	74
3.19533	73
3.19900	74
3.20267	77
3.20633	82
3.21000	90
3.21367	100
3.21733	111
3.22100	119
3.22467	116
3.22833	102
3.23200	86
3.23567	69
3.23933	52
3.24300	41
3.24667	31
3.25033	23
3.25400	22
3.25767	27
3.26133	38
3.26500	53
3.26867	65
3.27233	71
3.27600	71
3.27967	72
3.28333	72
3.28700	71
3.29067	69
3.29433	72
3.29800	77
3.30167	78
3.30533	72
3.30900	66
3.31267	63
3.31633	63
3.32000	65
3.32367	71
3.32733	72
3.33100	69
3.33467	69
3.33833	74
3.34200	76
3.34567	76
3.34933	75
3.35300	70
3.35667	64
3.36033	59
3.36400	56
3.36767	55
3.37133	55
3.37500	57
3.37867	58
3.38233	63
3.38600	68
3.38967	69
3.39333	68
3.39700	64
3.40067	61
3.40433	60
3.40800	63
3.41167	66
3.41533	70
3.41900	80
3.42267	90
3.42633	93
3.43000	94
3.43367	90
3.43733	79
3.44100	64
3.44467	53
3.44833	45
3.45200	37
3.45567	31
3.45933	29
3.46300	29
3.46667	30
3.47033	30
3.47400	29
3.47767	30
3.48133	34
3.48500	35
3.48867	34
3.49233	33
3.49600	31
3.49967	32
3.50333	43
3.50700	52
3.51067	60
3.51433	65
3.51800	69
3.52167	67
3.52533	61
3.52900	52
3.53267	42
3.53633	37
3.54000	34
3.54367	32
3.54733	33
3.55100	33
3.55467	35
3.55833	39
3.56200	47
3.56567	51
3.56933	54
3.57300	56
3.57667	52
3.58033	45
3.58400	33
3.58767	21
3.59133	16
3.59500	13
3.59867	13
3.60233	15
3.60600	16
3.60967	13
3.61333	11
3.61700	6
3.62067	7
3.62433	11
3.62800	16
3.63167	25
3.63533	33
3.63900	36
3.64267	37
3.64633	36
3.65000	34
3.65367	30
3.65733	28
3.66100	34
3.66467	39
3.66833	40
3.67200	38
3.67567	35
3.67933	35
3.68300	37
3.68667	39
3.69033	39
3.69400	39
3.69767	36
3.70133	35
3.70500	34
3.70867	33
3.71233	34
3.71600	37
3.71967	37
3.72333	35
3.72700	34
3.73067	36
3.73433	35
3.73800	31
3.74167	29
3.74533	30
3.74900	31
3.75267	28
3.75633	25
3.76000	22
3.76367	22
3.76733	25
3.77100	27
3.77467	24
3.77833	18
3.78200	13
3.78567	12
3.78933	13
3.79300	15
3.79667	21
3.80033	28
3.80400	33
3.80767	34
3.81133	34
3.81500	34
3.81867	35
3.82233	36
3.82600	34
3.82967	26
3.83333	14
3.83700	5
3.84067	2
3.84433	3
3.84800	8
3.85167	16
3.85533	21
3.85900	23
3.86267	21
3.86633	20
3.87000	21
3.87367	21
3.87733	22
3.88100	21
3.88467	21
3.88833	21
3.89200	17
3.89567	9
3.89933	4
3.90300	7
3.90667	13
3.91033	16
3.91400	23
3.91767	30
3.92133	30
3.92500	24
3.92867	16
3.93233	10
3.93600	7
3.93967	9
3.94333	9
3.94700	7
3.95067	2
3.95433	-1
3.95800	-0
3.96167	3
3.96533	10
3.96900	18
3.97267	21
3.97633	26
3.98000	28
3.98367	32
3.98733	40
3.99100	48
3.99467	51
3.99833	41

[Chromatogram (Ch2)]
Interval(msec)	220
# of Points	1091
Start Time(min)	0.002
End Time(min)	3.998
R.Time (min)	Intensity
0.00167	1
0.00533	1
0.00900	1
0.01267	2
0.01633	2
0.02000	2
0.02367	2
0.02733	2
0.03100	2
0.03467	2
0.03833	2
0.04200	2
0.04567	2
0.04933	2
0.05300	1
0.05667	1
0.06033	0
0.06400	0
0.06767	0
0.07133	0
0.07500	0
0.07867	1
0.08233	1
0.08600	1
0.08967	1
0.09333	1
0.09700	1
0.10067	1
0.10433	1
0.10800	2
0.11167	1
0.11533	1
0.11900	1
0.12267	2
0.12633	2
0.13000	1
0.13367	1
0.13733	2
0.14100	2
0.14467	2
0.14833	2
0.15200	2
0.15567	2
0.15933	2
0.16300	2
0.16667	3
0.17033	3
0.17400	3
0.17767	3
0.18133	3
0.18500	3
0.18867	3
0.19233	2
0.19600	2
0.19967	2
0.20333	1
0.20700	1
0.21067	1
0.21433	1
0.21800	1
0.22167	2
0.22533	2
0.22900	2
0.23267	2
0.23633	2
0.24000	2
0.24367	2
0.24733	2
0.25100	2
0.25467	2
0.25833	2
0.26200	2
0.26567	2
0.26933	2
0.27300	2
0.27667	2
0.28033	2
0.28400	2
0.28767	3
0.29133	3
0.29500	3
0.29867	3
0.30233	3
0.30600	3
0.30967	3
0.31333	3
0.31700	3
0.32067	3
0.32433	3
0.32800	3
0.33167	4
0.33533	4
0.33900	4
0.34267	4
0.34633	3
0.35000	3
0.35367	3
0.35733	3
0.36100	3
0.36467	2
0.36833	2
0.37200	2
0.37567	2
0.37933	2
0.38300	1
0.38667	1
0.39033	1
0.39400	0
0.39767	0
0.40133	0
0.40500	0
0.40867	0
0.41233	1
0.41600	1
0.41967	1
0.42333	0
0.42700	0
0.43067	-0
0.43433	-0
0.43800	-1
0.44167	-1
0.44533	-1
0.44900	-2
0.45267	-2
0.45633	-2
0.46000	-3
0.46367	-3
0.46733	-2
0.47100	-2
0.47467	-2
0.47833	-2
0.48200	-2
0.48567	-1
0.48933	-1
0.49300	-1
0.49667	-1
0.50033	-1
0.50400	-0
0.50767	-0
0.51133	-0
0.51500	-0
0.51867	-0
0.52233	-0
0.52600	0
0.52967	0
0.53333	1
0.53700	1
0.54067	1
0.54433	2
0.54800	2
0.55167	2
0.55533	2
0.55900	2
0.56267	2
0.56633	2
0.57000	1
0.57367	1
0.57733	1
0.58100	1
0.58467	1
0.58833	1
0.59200	1
0.59567	1
0.59933	1
0.60300	1
0.60667	1
0.61033	1
0.61400	1
0.61767	1
0.62133	1
0.62500	1
0.62867	1
0.63233	1
0.63600	1
0.63967	1
0.64333	1
0.64700	1
0.65067	0
0.65433	0
0.65800	-0
0.66167	-0
0.66533	0
0.66900	0
0.67267	1
0.67633	1
0.68000	1
0.68367	1
0.68733	1
0.69100	1
0.69467	1
0.69833	0
0.70200	0
0.70567	0
0.70933	0
0.71300	0
0.71667	0
0.72033	1
0.72400	1
0.72767	1
0.73133	1
0.73500	1
0.73867	1
0.74233	1
0.74600	1
0.74967	1
0.75333	1
0.75700	2
0.76067	2
0.76433	2
0.76800	2
0.77167	2
0.77533	2
0.77900	2
0.78267	2
0.78633	2
0.79000	1
0.79367	1
0.79733	1
0.80100	0
0.80467	0
0.80833	-0
0.81200	-1
0.81567	-1
0.81933	-1
0.82300	-1
0.82667	-1
0.83033	-1
0.83400	-2
0.83767	-2
0.84133	-1
0.84500	-1
0.84867	-1
0.85233	-1
0.85600	-0
0.85967	-0
0.86333	-0
0.86700	-1
0.87067	-1
0.87433	-0
0.87800	-0
0.88167	0
0.88533	0
0.88900	0
0.89267	0
0.89633	0
0.90000	0
0.90367	0
0.90733	1
0.91100	1
0.91467	1
0.91833	1
0.92200	1
0.92567	1
0.92933	1
0.93300	1
0.93667	1
0.94033	1
0.94400	1
0.94767	1
0.95133	0
0.95500	0
0.95867	-0
0.96233	-0
0.96600	-1
0.96967	-1
0.97333	-1
0.97700	-1
0.98067	-1
0.98433	-1
0.98800	-1
0.99167	-1
0.99533	-1
0.99900	-1
1.00267	-1
1.00633	-1
1.01000	-1
1.01367	-1
1.01733	-1
1.02100	-1
1.02467	-1
1.02833	-1
1.03200	-2
1.03567	-2
1.03933	-2
1.04300	-2
1.04667	-1
1.05033	-1
1.05400	-1
1.05767	-1
1.06133	-1
1.06500	-1
1.06867	-1
1.07233	-1
1.07600	-1
1.07967	-1
1.08333	-1
1.08700	-1
1.09067	-1
1.09433	-1
1.09800	-1
1.10167	-0
1.10533	-0
1.10900	-0
1.11267	-1
1.11633	-1
1.12000	-1
1.12367	-1
1.12733	-1
1.13100	-1
1.13467	-1
1.13833	-1
1.14200	-2
1.14567	-2
1.14933	-2
1.15300	-2
1.15667	-2
1.16033	-2
1.16400	-2
1.16767	-2
1.17133	-2
1.17500	-2
1.17867	-2
1.18233	-2
1.18600	-1
1.18967	-1
1.19333	-1
1.19700	-0
1.20067	-0
1.20433	-0
1.20800	-0
1.21167	-0
1.21533	-1
1.21900	-1
1.22267	-2
1.22633	-2
1.23000	-2
1.23367	-3
1.23733	-3
1.24100	-3
1.24467	-3
1.24833	-3
1.25200	-3
1.25567	-3
1.25933	-3
1.26300	-3
1.26667	-3
1.27033	-3
1.27400	-3
1.27767	-4
1.28133	-4
1.28500	-4
1.28867	-4
1.29233	-4
1.29600	-3
1.29967	-3
1.30333	-3
1.30700	-2
1.31067	-3
1.31433	-3
1.31800	-3
1.32167	-2
1.32533	-2
1.32900	-2
1.33267	-1
1.33633	-1
1.34000	-1
1.34367	-1
1.34733	-1
1.35100	-1
1.35467	-1
1.35833	-1
1.36200	-1
1.36567	-1
1.36933	-1
1.37300	-1
1.37667	-1
1.38033	-1
1.38400	-1
1.38767	-1
1.39133	-1
1.39500	-2
1.39867	-2
1.40233	-2
1.40600	-2
1.40967	-2
1.41333	-1
1.41700	-1
1.42067	-1
1.42433	-0
1.42800	-0
1.43167	-0
1.43533	0
1.43900	0
1.44267	-0
1.44633	-0
1.45000	-1
1.45367	-1
1.45733	-1
1.46100	-2
1.46467	-2
1.46833	-2
1.47200	-2
1.47567	-3
1.47933	-3
1.48300	-3
1.48667	-2
1.49033	-2
1.49400	-1
1.49767	-1
1.50133	-1
1.50500	-0
1.50867	-0
1.51233	-0
1.51600	0
1.51967	0
1.52333	0
1.52700	0
1.53067	0
1.53433	0
1.53800	0
1.54167	-0
1.54533	-0
1.54900	-1
1.55267	-1
1.55633	-1
1.56000	-1
1.56367	-1
1.56733	-1
1.57100	-1
1.57467	-1
1.57833	-0
1.58200	-0
1.58567	-1
1.58933	-1
1.59300	-1
1.59667	-2
1.60033	-3
1.60400	-4
1.60767	-5
1.61133	-7
1.61500	-9
1.61867	-12
1.62233	-15
1.62600	-18
1.62967	-21
1.63333	-25
1.63700	-29
1.64067	-33
1.64433	-37
1.64800	-41
1.65167	-45
1.65533	-48
1.65900	-52
1.66267	-56
1.66633	-61
1.67000	-65
1.67367	-70
1.67733	-75
1.68100	-80
1.68467	-84
1.68833	-88
1.69200	-92
1.69567	-95
1.69933	-97
1.70300	-99
1.70667	-101
1.71033	-103
1.71400	-105
1.71767	-106
1.72133	-107
1.72500	-107
1.72867	-108
1.73233	-107
1.73600	-107
1.73967	-107
1.74333	-106
1.74700	-106
1.75067	-106
1.75433	-105
1.75800	-105
1.76167	-105
1.76533	-105
1.76900	-105
1.77267	-106
1.77633	-107
1.78000	-109
1.78367	-110
1.78733	-111
1.79100	-112
1.79467	-113
1.79833	-113
1.80200	-113
1.80567	-113
1.80933	-113
1.81300	-113
1.81667	-113
1.82033	-113
1.82400	-113
1.82767	-112
1.83133	-112
1.83500	-112
1.83867	-112
1.84233	-113
1.84600	-113
1.84967	-113
1.85333	-113
1.85700	-113
1.86067	-114
1.86433	-114
1.86800	-114
1.87167	-113
1.87533	-113
1.87900	-113
1.88267	-113
1.88633	-112
1.89000	-112
1.89367	-113
1.89733	-113
1.90100	-113
1.90467	-113
1.90833	-113
1.91200	-113
1.91567	-112
1.91933	-111
1.92300	-111
1.92667	-110
1.93033	-110
1.93400	-110
1.93767	-110
1.94133	-110
1.94500	-109
1.94867	-109
1.95233	-109
1.95600	-109
1.95967	-109
1.96333	-109
1.96700	-109
1.97067	-109
1.97433	-109
1.97800	-109
1.98167	-109
1.98533	-109
1.98900	-109
1.99267	-108
1.99633	-108
2.00000	-107
2.00367	-107
2.00733	-106
2.01100	-105
2.01467	-105
2.01833	-104
2.02200	-104
2.02567	-105
2.02933	-105
2.03300	-105
2.03667	-105
2.04033	-105
2.04400	-105
2.04767	-105
2.05133	-105
2.05500	-105
2.05867	-104
2.06233	-104
2.06600	-104
2.06967	-103
2.07333	-102
2.07700	-101
2.08067	-101
2.08433	-100
2.08800	-100
2.09167	-100
2.09533	-100
2.09900	-100
2.10267	-100
2.10633	-99
2.11000	-99
2.11367	-99
2.11733	-98
2.12100	-98
2.12467	-98
2.12833	-98
2.13200	-97
2.13567	-97
2.13933	-96
2.14300	-96
2.14667	-95
2.15033	-95
2.15400	-95
2.15767	-95
2.16133	-95
2.16500	-94
2.16867	-94
2.17233	-94
2.17600	-94
2.17967	-94
2.18333	-93
2.18700	-93
2.19067	-93
2.19433	-92
2.19800	-91
2.20167	-91
2.20533	-91
2.20900	-90
2.21267	-90
2.21633	-89
2.22000	-89
2.22367	-89
2.22733	-89
2.23100	-89
2.23467	-89
2.23833	-89
2.24200	-89
2.24567	-89
2.24933	-89
2.25300	-89
2.25667	-88
2.26033	-88
2.26400	-87
2.26767	-86
2.27133	-86
2.27500	-85
2.27867	-84
2.28233	-84
2.28600	-83
2.28967	-83
2.29333	-82
2.29700	-82
2.30067	-81
2.30433	-81
2.30800	-81
2.31167	-80
2.31533	-80
2.31900	-79
2.32267	-79
2.32633	-79
2.33000	-79
2.33367	-79
2.33733	-78
2.34100	-78
2.34467	-78
2.34833	-77
2.35200	-77
2.35567	-76
2.35933	-75
2.36300	-74
2.36667	-72
2.37033	-70
2.37400	-67
2.37767	-64
2.38133	-61
2.38500	-57
2.38867	-53
2.39233	-49
2.39600	-44
2.39967	-39
2.40333	-35
2.40700	-31
2.41067	-27
2.41433	-23
2.41800	-20
2.42167	-17
2.42533	-15
2.42900	-13
2.43267	-12
2.43633	-10
2.44000	-9
2.44367	-7
2.44733	-7
2.45100	-6
2.45467	-5
2.45833	-4
2.46200	-3
2.46567	-2
2.46933	-2
2.47300	-1
2.47667	-1
2.48033	-0
2.48400	1
2.48767	2
2.49133	3
2.49500	4
2.49867	5
2.50233	6
2.50600	6
2.50967	7
2.51333	7
2.51700	7
2.52067	7
2.52433	8
2.52800	9
2.53167	10
2.53533	11
2.53900	12
2.54267	12
2.54633	13
2.55000	14
2.55367	15
2.55733	15
2.56100	16
2.56467	16
2.56833	16
2.57200	16
2.57567	16
2.57933	16
2.58300	16
2.58667	16
2.59033	16
2.59400	16
2.59767	16
2.60133	16
2.60500	16
2.60867	16
2.61233	16
2.61600	16
2.61967	16
2.62333	16
2.62700	16
2.63067	16
2.63433	17
2.63800	17
2.64167	17
2.64533	17
2.64900	17
2.65267	18
2.65633	18
2.66000	19
2.66367	19
2.66733	20
2.67100	20
2.67467	21
2.67833	21
2.68200	21
2.68567	21
2.68933	22
2.69300	22
2.69667	23
2.70033	23
2.70400	23
2.70767	23
2.71133	23
2.71500	23
2.71867	23
2.72233	23
2.72600	23
2.72967	23
2.73333	23
2.73700	23
2.74067	24
2.74433	24
2.74800	25
2.75167	25
2.75533	25
2.75900	25
2.76267	25
2.76633	24
2.77000	24
2.77367	24
2.77733	24
2.78100	24
2.78467	24
2.78833	24
2.79200	24
2.79567	25
2.79933	25
2.80300	25
2.80667	26
2.81033	26
2.81400	27
2.81767	27
2.82133	28
2.82500	28
2.82867	28
2.83233	28
2.83600	28
2.83967	28
2.84333	27
2.84700	25
2.85067	21
2.85433	16
2.85800	7
2.86167	-4
2.86533	-19
2.86900	-39
2.87267	-62
2.87633	-90
2.88000	-123
2.88367	-159
2.88733	-200
2.89100	-244
2.89467	-292
2.89833	-342
2.90200	-394
2.90567	-448
2.90933	-503
2.91300	-558
2.91667	-613
2.92033	-669
2.92400	-724
2.92767	-777
2.93133	-828
2.93500	-880
2.93867	-936
2.94233	-995
2.94600	-1049
2.94967	-1089
2.95333	-1105
2.95700	-1096
2.96067	-1062
2.96433	-1008
2.96800	-940
2.97167	-864
2.97533	-783
2.97900	-703
2.98267	-625
2.98633	-551
2.99000	-483
2.99367	-420
2.99733	-364
3.00100	-314
3.00467	-270
3.00833	-231
3.01200	-197
3.01567	-167
3.01933	-142
3.02300	-120
3.02667	-101
3.03033	-85
3.03400	-71
3.03767	-59
3.04133	-49
3.04500	-40
3.04867	-32
3.05233	-26
3.05600	-20
3.05967	-15
3.06333	-11
3.06700	-8
3.07067	-5
3.07433	-2
3.07800	0
3.08167	2
3.08533	4
3.08900	5
3.09267	6
3.09633	7
3.10000	8
3.10367	9
3.10733	10
3.11100	11
3.11467	12
3.11833	13
3.12200	13
3.12567	14
3.12933	14
3.13300	15
3.13667	15
3.14033	16
3.14400	16
3.14767	17
3.15133	17
3.15500	18
3.15867	18
3.16233	19
3.16600	19
3.16967	20
3.17333	20
3.17700	20
3.18067	20
3.18433	20
3.18800	21
3.19167	21
3.19533	21
3.19900	22
3.20267	22
3.20633	22
3.21000	22
3.21367	23
3.21733	23
3.22100	23
3.22467	23
3.22833	23
3.23200	23
3.23567	23
3.23933	22
3.24300	22
3.24667	22
3.25033	22
3.25400	22
3.25767	22
3.26133	22
3.26500	22
3.26867	22
3.27233	22
3.27600	22
3.27967	22
3.28333	23
3.28700	23
3.29067	23
3.29433	23
3.29800	23
3.30167	23
3.30533	23
3.30900	23
3.31267	23
3.31633	23
3.32000	23
3.32367	23
3.32733	23
3.33100	23
3.33467	23
3.33833	23
3.34200	23
3.34567	24
3.34933	24
3.35300	24
3.35667	24
3.36033	24
3.36400	25
3.36767	25
3.37133	26
3.37500	26
3.37867	27
3.38233	27
3.38600	27
3.38967	28
3.39333	28
3.39700	27
3.40067	27
3.40433	27
3.40800	27
3.41167	27
3.41533	27
3.41900	28
3.42267	28
3.42633	28
3.43000	28
3.43367	28
3.43733	28
3.44100	28
3.44467	27
3.44833	27
3.45200	27
3.45567	27
3.45933	27
3.46300	27
3.46667	28
3.47033	28
3.47400	28
3.47767	29
3.48133	29
3.48500	29
3.48867	29
3.49233	28
3.49600	28
3.49967	28
3.50333	28
3.50700	28
3.51067	27
3.51433	27
3.51800	27
3.52167	27
3.52533	27
3.52900	26
3.53267	26
3.53633	26
3.54000	26
3.54367	26
3.54733	26
3.55100	26
3.55467	26
3.55833	26
3.56200	26
3.56567	26
3.56933	26
3.57300	27
3.57667	27
3.58033	27
3.58400	27
3.58767	27
3.59133	27
3.59500	27
3.59867	27
3.60233	27
3.60600	27
3.60967	26
3.61333	26
3.61700	26
3.62067	27
3.62433	27
3.62800	27
3.63167	27
3.63533	27
3.63900	27
3.64267	26
3.64633	26
3.65000	26
3.65367	26
3.65733	26
3.66100	26
3.66467	26
3.66833	26
3.67200	27
3.67567	27
3.67933	27
3.68300	27
3.68667	27
3.69033	27
3.69400	27
3.69767	27
3.70133	26
3.70500	26
3.70867	26
3.71233	26
3.71600	26
3.71967	25
3.72333	25
3.72700	25
3.73067	25
3.73433	25
3.73800	25
3.74167	25
3.74533	25
3.74900	25
3.75267	25
3.75633	25
3.76000	25
3.76367	25
3.76733	26
3.77100	26
3.77467	26
3.77833	26
3.78200	26
3.78567	27
3.78933	27
3.79300	27
3.79667	27
3.80033	26
3.80400	26
3.80767	26
3.81133	26
3.81500	26
3.81867	26
3.82233	26
3.82600	26
3.82967	25
3.83333	25
3.83700	25
3.84067	25
3.84433	25
3.84800	25
3.85167	25
3.85533	25
3.85900	25
3.86267	25
3.86633	25
3.87000	25
3.87367	25
3.87733	26
3.88100	26
3.88467	26
3.88833	26
3.89200	26
3.89567	26
3.89933	26
3.90300	26
3.90667	27
3.91033	27
3.91400	27
3.91767	27
3.92133	27
3.92500	26
3.92867	26
3.93233	26
3.93600	26
3.93967	26
3.94333	26
3.94700	26
3.95067	26
3.95433	25
3.95800	25
3.96167	25
3.96533	25
3.96900	26
3.97267	26
3.97633	26
3.98000	26
3.98367	27
3.98733	27
3.99100	27
3.99467	27
3.99833	27

[Chromatogram (Ch3)]
Interval(msec)	220
# of Points	1091
Start Time(min)	0.002
End Time(min)	3.998
R.Time (min)	Intensity
0.00167	-1
0.00533	-1
0.00900	1
0.01267	2
0.01633	2
0.02000	1
0.02367	2
0.02733	3
0.03100	3
0.03467	4
0.03833	3
0.04200	1
0.04567	0
0.04933	0
0.05300	1
0.05667	2
0.06033	3
0.06400	3
0.06767	3
0.07133	3
0.07500	3
0.07867	4
0.08233	5
0.08600	4
0.08967	2
0.09333	1
0.09700	-1
0.10067	-2
0.10433	-2
0.10800	-1
0.11167	-2
0.11533	-3
0.11900	-4
0.12267	-5
0.12633	-3
0.13000	-3
0.13367	-5
0.13733	-6
0.14100	-7
0.14467	-5
0.14833	-3
0.15200	-2
0.15567	-2
0.15933	-0
0.16300	1
0.16667	1
0.17033	-1
0.17400	-3
0.17767	-5
0.18133	-5
0.18500	-6
0.18867	-7
0.19233	-6
0.19600	-5
0.19967	-5
0.20333	-3
0.20700	-1
0.21067	0
0.21433	-1
0.21800	-2
0.22167	-3
0.22533	-4
0.22900	-4
0.23267	-4
0.23633	-3
0.24000	-3
0.24367	-2
0.24733	-3
0.25100	-5
0.25467	-5
0.25833	-5
0.26200	-6
0.26567	-5
0.26933	-5
0.27300	-5
0.27667	-5
0.28033	-6
0.28400	-6
0.28767	-7
0.29133	-9
0.29500	-8
0.29867	-8
0.30233	-7
0.30600	-5
0.30967	-4
0.31333	-4
0.31700	-4
0.32067	-2
0.32433	-1
0.32800	-2
0.33167	-2
0.33533	-4
0.33900	-4
0.34267	-4
0.34633	-2
0.35000	-2
0.35367	-4
0.35733	-5
0.36100	-4
0.36467	-3
0.36833	-2
0.37200	-2
0.37567	-3
0.37933	-3
0.38300	-5
0.38667	-7
0.39033	-9
0.39400	-11
0.39767	-9
0.40133	-8
0.40500	-7
0.40867	-4
0.41233	-1
0.41600	1
0.41967	2
0.42333	1
0.42700	-2
0.43067	-3
0.43433	-4
0.43800	-6
0.44167	-5
0.44533	-3
0.44900	-2
0.45267	-2
0.45633	-1
0.46000	-1
0.46367	-3
0.46733	-3
0.47100	-3
0.47467	-3
0.47833	-3
0.48200	-2
0.48567	-1
0.48933	-1
0.49300	0
0.49667	3
0.50033	4
0.50400	6
0.50767	5
0.51133	2
0.51500	-1
0.51867	-3
0.52233	-2
0.52600	-1
0.52967	-1
0.53333	-2
0.53700	-2
0.54067	-2
0.54433	-0
0.54800	0
0.55167	-0
0.55533	-3
0.55900	-4
0.56267	-5
0.56633	-6
0.57000	-5
0.57367	-4
0.57733	-4
0.58100	-5
0.58467	-5
0.58833	-3
0.59200	-1
0.59567	1
0.59933	3
0.60300	3
0.60667	4
0.61033	4
0.61400	6
0.61767	5
0.62133	3
0.62500	1
0.62867	-0
0.63233	-0
0.63600	1
0.63967	2
0.64333	3
0.64700	2
0.65067	0
0.65433	-0
0.65800	-1
0.66167	0
0.66533	3
0.66900	4
0.67267	4
0.67633	5
0.68000	4
0.68367	3
0.68733	4
0.69100	6
0.69467	6
0.69833	5
0.70200	3
0.70567	3
0.70933	2
0.71300	2
0.71667	2
0.72033	4
0.72400	6
0.72767	5
0.73133	3
0.73500	4
0.73867	3
0.74233	1
0.74600	1
0.74967	2
0.75333	4
0.75700	6
0.76067	7
0.76433	6
0.76800	5
0.77167	6
0.77533	8
0.77900	8
0.78267	7
0.78633	6
0.79000	4
0.79367	4
0.79733	7
0.80100	9
0.80467	9
0.80833	11
0.81200	11
0.81567	9
0.81933	7
0.82300	8
0.82667	9
0.83033	9
0.83400	13
0.83767	15
0.84133	17
0.84500	17
0.84867	17
0.85233	16
0.85600	14
0.85967	15
0.86333	16
0.86700	16
0.87067	17
0.87433	17
0.87800	17
0.88167	16
0.88533	16
0.88900	16
0.89267	16
0.89633	15
0.90000	16
0.90367	16
0.90733	14
0.91100	14
0.91467	15
0.91833	15
0.92200	16
0.92567	19
0.92933	21
0.93300	20
0.93667	22
0.94033	21
0.94400	19
0.94767	18
0.95133	18
0.95500	18
0.95867	18
0.96233	18
0.96600	16
0.96967	13
0.97333	12
0.97700	11
0.98067	12
0.98433	14
0.98800	17
0.99167	19
0.99533	21
0.99900	22
1.00267	20
1.00633	20
1.01000	20
1.01367	21
1.01733	23
1.02100	23
1.02467	22
1.02833	22
1.03200	22
1.03567	22
1.03933	20
1.04300	20
1.04667	21
1.05033	23
1.05400	24
1.05767	24
1.06133	25
1.06500	26
1.06867	23
1.07233	21
1.07600	22
1.07967	24
1.08333	25
1.08700	26
1.09067	27
1.09433	26
1.09800	25
1.10167	23
1.10533	21
1.10900	23
1.11267	25
1.11633	26
1.12000	28
1.12367	28
1.12733	26
1.13100	24
1.13467	22
1.13833	21
1.14200	21
1.14567	20
1.14933	19
1.15300	18
1.15667	18
1.16033	19
1.16400	17
1.16767	16
1.17133	15
1.17500	15
1.17867	16
1.18233	17
1.18600	15
1.18967	14
1.19333	14
1.19700	14
1.20067	15
1.20433	17
1.20800	18
1.21167	18
1.21533	19
1.21900	20
1.22267	19
1.22633	17
1.23000	16
1.23367	15
1.23733	16
1.24100	17
1.24467	17
1.24833	18
1.25200	17
1.25567	15
1.25933	15
1.26300	17
1.26667	19
1.27033	21
1.27400	21
1.27767	20
1.28133	17
1.28500	14
1.28867	13
1.29233	12
1.29600	13
1.29967	14
1.30333	15
1.30700	17
1.31067	18
1.31433	20
1.31800	20
1.32167	18
1.32533	16
1.32900	17
1.33267	18
1.33633	17
1.34000	16
1.34367	14
1.34733	12
1.35100	13
1.35467	14
1.35833	17
1.36200	20
1.36567	21
1.36933	21
1.37300	19
1.37667	15
1.38033	12
1.38400	11
1.38767	12
1.39133	13
1.39500	14
1.39867	15
1.40233	15
1.40600	16
1.40967	16
1.41333	15
1.41700	15
1.42067	15
1.42433	17
1.42800	19
1.43167	20
1.43533	21
1.43900	20
1.44267	21
1.44633	21
1.45000	22
1.45367	22
1.45733	18
1.46100	16
1.46467	17
1.46833	18
1.47200	21
1.47567	24
1.47933	26
1.48300	25
1.48667	26
1.49033	26
1.49400	25
1.49767	26
1.50133	27
1.50500	28
1.50867	29
1.51233	30
1.51600	30
1.51967	28
1.52333	25
1.52700	25
1.53067	27
1.53433	30
1.53800	29
1.54167	26
1.54533	27
1.54900	29
1.55267	28
1.55633	28
1.56000	28
1.56367	28
1.56733	28
1.57100	26
1.57467	25
1.57833	24
1.58200	24
1.58567	24
1.58933	25
1.59300	27
1.59667	28
1.60033	27
1.60400	25
1.60767	23
1.61133	24
1.61500	26
1.61867	27
1.62233	28
1.62600	28
1.62967	27
1.63333	28
1.63700	29
1.64067	27
1.64433	26
1.64800	27
1.65167	29
1.65533	31
1.65900	31
1.66267	33
1.66633	37
1.67000	38
1.67367	38
1.67733	38
1.68100	40
1.68467	41
1.68833	41
1.69200	41
1.69567	41
1.69933	41
1.70300	43
1.70667	44
1.71033	46
1.71400	48
1.71767	48
1.72133	50
1.72500	51
1.72867	52
1.73233	53
1.73600	52
1.73967	51
1.74333	51
1.74700	52
1.75067	52
1.75433	52
1.75800	53
1.76167	54
1.76533	54
1.76900	56
1.77267	58
1.77633	59
1.78000	59
1.78367	57
1.78733	56
1.79100	55
1.79467	55
1.79833	57
1.80200	60
1.80567	63
1.80933	63
1.81300	64
1.81667	65
1.82033	64
1.82400	64
1.82767	64
1.83133	63
1.83500	63
1.83867	63
1.84233	66
1.84600	67
1.84967	67
1.85333	65
1.85700	64
1.86067	62
1.86433	60
1.86800	61
1.87167	63
1.87533	64
1.87900	65
1.88267	65
1.88633	64
1.89000	61
1.89367	59
1.89733	59
1.90100	59
1.90467	60
1.90833	62
1.91200	65
1.91567	69
1.91933	71
1.92300	72
1.92667	74
1.93033	73
1.93400	71
1.93767	71
1.94133	71
1.94500	73
1.94867	74
1.95233	74
1.95600	75
1.95967	77
1.96333	79
1.96700	79
1.97067	79
1.97433	81
1.97800	82
1.98167	83
1.98533	86
1.98900	88
1.99267	88
1.99633	89
2.00000	89
2.00367	90
2.00733	92
2.01100	95
2.01467	98
2.01833	98
2.02200	100
2.02567	101
2.02933	99
2.03300	98
2.03667	99
2.04033	100
2.04400	101
2.04767	101
2.05133	101
2.05500	102
2.05867	103
2.06233	104
2.06600	104
2.06967	104
2.07333	105
2.07700	105
2.08067	107
2.08433	110
2.08800	114
2.09167	118
2.09533	119
2.09900	119
2.10267	121
2.10633	121
2.11000	121
2.11367	122
2.11733	122
2.12100	122
2.12467	125
2.12833	128
2.13200	131
2.13567	131
2.13933	132
2.14300	134
2.14667	136
2.15033	139
2.15400	141
2.15767	143
2.16133	144
2.16500	143
2.16867	144
2.17233	146
2.17600	146
2.17967	147
2.18333	150
2.18700	152
2.19067	152
2.19433	153
2.19800	156
2.20167	158
2.20533	160
2.20900	162
2.21267	161
2.21633	161
2.22000	160
2.22367	161
2.22733	163
2.23100	164
2.23467	167
2.23833	168
2.24200	169
2.24567	169
2.24933	169
2.25300	171
2.25667	173
2.26033	174
2.26400	175
2.26767	177
2.27133	179
2.27500	179
2.27867	179
2.28233	181
2.28600	182
2.28967	182
2.29333	182
2.29700	183
2.30067	184
2.30433	185
2.30800	186
2.31167	188
2.31533	189
2.31900	192
2.32267	196
2.32633	200
2.33000	203
2.33367	204
2.33733	203
2.34100	203
2.34467	205
2.34833	207
2.35200	210
2.35567	210
2.35933	211
2.36300	211
2.36667	210
2.37033	208
2.37400	207
2.37767	209
2.38133	211
2.38500	212
2.38867	213
2.39233	214
2.39600	216
2.39967	218
2.40333	221
2.40700	222
2.41067	223
2.41433	224
2.41800	225
2.42167	227
2.42533	229
2.42900	230
2.43267	229
2.43633	228
2.44000	232
2.44367	289
2.44733	439
2.45100	601
2.45467	735
2.45833	811
2.46200	817
2.46567	782
2.46933	742
2.47300	709
2.47667	689
2.48033	672
2.48400	642
2.48767	599
2.49133	550
2.49500	504
2.49867	465
2.50233	437
2.50600	419
2.50967	414
2.51333	423
2.51700	442
2.52067	463
2.52433	483
2.52800	495
2.53167	493
2.53533	480
2.53900	454
2.54267	422
2.54633	390
2.55000	362
2.55367	336
2.55733	314
2.56100	295
2.56467	282
2.56833	275
2.57200	273
2.57567	271
2.57933	268
2.58300	264
2.58667	262
2.59033	264
2.59400	271
2.59767	278
2.60133	279
2.60500	279
2.60867	277
2.61233	271
2.61600	263
2.61967	255
2.62333	245
2.62700	236
2.63067	225
2.63433	216
2.63800	207
2.64167	199
2.64533	188
2.64900	176
2.65267	165
2.65633	152
2.66000	141
2.66367	133
2.66733	124
2.67100	114
2.67467	104
2.67833	96
2.68200	91
2.68567	91
2.68933	89
2.69300	87
2.69667	86
2.70033	87
2.70400	91
2.70767	93
2.71133	95
2.71500	99
2.71867	102
2.72233	104
2.72600	106
2.72967	108
2.73333	112
2.73700	116
2.74067	119
2.74433	123
2.74800	126
2.75167	130
2.75533	132
2.75900	134
2.76267	135
2.76633	138
2.77000	140
2.77367	145
2.77733	150
2.78100	154
2.78467	159
2.78833	163
2.79200	168
2.79567	172
2.79933	175
2.80300	179
2.80667	182
2.81033	186
2.81400	191
2.81767	199
2.82133	211
2.82500	230
2.82867	267
2.83233	336
2.83600	456
2.83967	652
2.84333	940
2.84700	1329
2.85067	1816
2.85433	2375
2.85800	2969
2.86167	3557
2.86533	4088
2.86900	4516
2.87267	4813
2.87633	4967
2.88000	4982
2.88367	4871
2.88733	4663
2.89100	4385
2.89467	4063
2.89833	3717
2.90200	3367
2.90567	3027
2.90933	2706
2.91300	2410
2.91667	2141
2.92033	1898
2.92400	1682
2.92767	1490
2.93133	1320
2.93500	1171
2.93867	1041
2.94233	926
2.94600	823
2.94967	735
2.95333	659
2.95700	594
2.96067	539
2.96433	491
2.96800	448
2.97167	410
2.97533	376
2.97900	345
2.98267	318
2.98633	296
2.99000	279
2.99367	263
2.99733	250
3.00100	239
3.00467	229
3.00833	219
3.01200	211
3.01567	205
3.01933	201
3.02300	196
3.02667	191
3.03033	188
3.03400	185
3.03767	182
3.04133	179
3.04500	178
3.04867	177
3.05233	175
3.05600	173
3.05967	173
3.06333	171
3.06700	169
3.07067	170
3.07433	171
3.07800	172
3.08167	172
3.08533	167
3.08900	146
3.09267	120
3.09633	112
3.10000	128
3.10367	160
3.10733	200
3.11100	244
3.11467	288
3.11833	331
3.12200	373
3.12567	412
3.12933	448
3.13300	478
3.13667	506
3.14033	528
3.14400	546
3.14767	562
3.15133	579
3.15500	594
3.15867	607
3.16233	618
3.16600	630
3.16967	640
3.17333	648
3.17700	657
3.18067	667
3.18433	675
3.18800	682
3.19167	691
3.19533	698
3.19900	703
3.20267	707
3.20633	714
3.21000	721
3.21367	728
3.21733	732
3.22100	737
3.22467	742
3.22833	747
3.23200	753
3.23567	760
3.23933	765
3.24300	770
3.24667	775
3.25033	780
3.25400	784
3.25767	787
3.26133	789
3.26500	792
3.26867	796
3.27233	799
3.27600	802
3.27967	804
3.28333	808
3.28700	812
3.29067	813
3.29433	814
3.29800	815
3.30167	816
3.30533	818
3.30900	820
3.31267	822
3.31633	823
3.32000	823
3.32367	823
3.32733	823
3.33100	823
3.33467	823
3.33833	823
3.34200	825
3.34567	824
3.34933	820
3.35300	819
3.35667	819
3.36033	818
3.36400	817
3.36767	817
3.37133	818
3.37500	817
3.37867	815
3.38233	812
3.38600	810
3.38967	808
3.39333	806
3.39700	803
3.40067	802
3.40433	799
3.40800	796
3.41167	795
3.41533	797
3.41900	799
3.42267	798
3.42633	797
3.43000	794
3.43367	793
3.43733	793
3.44100	791
3.44467	789
3.44833	787
3.45200	785
3.45567	784
3.45933	782
3.46300	780
3.46667	780
3.47033	779
3.47400	778
3.47767	775
3.48133	772
3.48500	771
3.48867	770
3.49233	768
3.49600	766
3.49967	766
3.50333	766
3.50700	764
3.51067	762
3.51433	758
3.51800	756
3.52167	754
3.52533	753
3.52900	752
3.53267	754
3.53633	756
3.54000	756
3.54367	754
3.54733	752
3.55100	751
3.55467	750
3.55833	749
3.56200	749
3.56567	749
3.56933	749
3.57300	748
3.57667	748
3.58033	748
3.58400	748
3.58767	747
3.59133	745
3.59500	745
3.59867	745
3.60233	743
3.60600	740
3.60967	739
3.61333	741
3.61700	741
3.62067	740
3.62433	739
3.62800	737
3.63167	736
3.63533	737
3.63900	737
3.64267	737
3.64633	739
3.65000	737
3.65367	734
3.65733	730
3.66100	727
3.66467	728
3.66833	728
3.67200	728
3.67567	725
3.67933	721
3.68300	718
3.68667	715
3.69033	714
3.69400	713
3.69767	710
3.70133	709
3.70500	709
3.70867	709
3.71233	706
3.71600	703
3.71967	702
3.72333	701
3.72700	699
3.73067	697
3.73433	697
3.73800	695
3.74167	693
3.74533	692
3.74900	690
3.75267	687
3.75633	682
3.76000	678
3.76367	678
3.76733	677
3.77100	675
3.77467	672
3.77833	672
3.78200	673
3.78567	671
3.78933	668
3.79300	664
3.79667	661
3.80033	659
3.80400	658
3.80767	657
3.81133	655
3.81500	654
3.81867	650
3.82233	645
3.82600	643
3.82967	642
3.83333	640
3.83700	638
3.84067	636
3.84433	636
3.84800	637
3.85167	637
3.85533	634
3.85900	630
3.86267	627
3.86633	625
3.87000	624
3.87367	623
3.87733	624
3.88100	622
3.88467	618
3.88833	615
3.89200	613
3.89567	614
3.89933	614
3.90300	611
3.90667	610
3.91033	608
3.91400	606
3.91767	603
3.92133	600
3.92500	598
3.92867	596
3.93233	594
3.93600	592
3.93967	592
3.94333	594
3.94700	595
3.95067	594
3.95433	590
3.95800	587
3.96167	586
3.96533	587
3.96900	586
3.97267	585
3.97633	582
3.98000	580
3.98367	579
3.98733	579
3.99100	578
3.99467	576
3.99833	572

[Status Trace (Column Oven Temperature)]
Interval(msec)	1000
# of Points	240
Start Time(min)	0.004
End Time(min)	3.988
Intensity Units	
Intensity Multiplier	1
R.Time (min)	Intensity
0.00430	35.08
0.02097	35.07
0.03763	35.07
0.05430	35.06
0.07097	35.05
0.08763	35.05
0.10430	35.06
0.12097	35.06
0.13763	35.05
0.15430	35.05
0.17097	35.04
0.18763	35.05
0.20430	35.05
0.22097	35.05
0.23763	35.04
0.25430	35.03
0.27097	35.02
0.28763	35.03
0.30430	35.02
0.32097	35.01
0.33763	35.00
0.35430	35.00
0.37097	35.01
0.38763	35.01
0.40430	35.01
0.42097	35.02
0.43763	35.03
0.45430	35.03
0.47097	35.04
0.48763	35.04
0.50430	35.03
0.52097	35.03
0.53763	35.02
0.55430	35.01
0.57097	35.02
0.58763	35.02
0.60430	35.02
0.62097	35.02
0.63763	35.02
0.65430	35.01
0.67097	35.01
0.68763	35.01
0.70430	35.01
0.72097	35.00
0.73763	35.00
0.75430	34.99
0.77097	34.98
0.78763	34.97
0.80430	34.99
0.82097	35.00
0.83763	35.01
0.85430	35.00
0.87097	34.99
0.88763	34.99
0.90430	34.99
0.92097	34.98
0.93763	34.97
0.95430	34.97
0.97097	34.98
0.98763	34.98
1.00430	34.98
1.02097	34.99
1.03763	34.99
1.05430	35.00
1.07097	35.01
1.08763	35.00
1.10430	35.00
1.12097	35.01
1.13763	35.00
1.15430	35.01
1.17097	35.00
1.18763	35.00
1.20430	34.99
1.22097	35.00
1.23763	35.00
1.25430	35.01
1.27097	35.01
1.28763	35.02
1.30430	35.01
1.32097	35.01
1.33763	35.01
1.35430	35.00
1.37097	35.00
1.38763	35.00
1.40430	34.99
1.42097	34.99
1.43763	34.98
1.45430	34.99
1.47097	34.99
1.48763	34.99
1.50430	34.98
1.52097	34.98
1.53763	34.96
1.55430	34.97
1.57097	34.97
1.58763	34.97
1.60430	35.02
1.62097	35.13
1.63763	35.31
1.65430	35.56
1.67097	35.90
1.68763	36.27
1.70430	36.62
1.72097	36.97
1.73763	37.28
1.75430	37.59
1.77097	37.93
1.78763	38.28
1.80430	38.60
1.82097	38.92
1.83763	39.25
1.85430	39.58
1.87097	39.91
1.88763	40.23
1.90430	40.57
1.92097	40.88
1.93763	41.21
1.95430	41.55
1.97097	41.87
1.98763	42.21
2.00430	42.53
2.02097	42.86
2.03763	43.19
2.05430	43.52
2.07097	43.83
2.08763	44.16
2.10430	44.48
2.12097	44.81
2.13763	45.14
2.15430	45.46
2.17097	45.79
2.18763	46.12
2.20430	46.44
2.22097	46.76
2.23763	47.12
2.25430	47.44
2.27097	47.77
2.28763	48.10
2.30430	48.42
2.32097	48.75
2.33763	49.08
2.35430	49.39
2.37097	49.60
2.38763	49.68
2.40430	49.69
2.42097	49.68
2.43763	49.69
2.45430	49.69
2.47097	49.71
2.48763	49.71
2.50430	49.73
2.52097	49.75
2.53763	49.75
2.55430	49.76
2.57097	49.77
2.58763	49.78
2.60430	49.80
2.62097	49.80
2.63763	49.81
2.65430	49.82
2.67097	49.83
2.68763	49.84
2.70430	49.83
2.72097	49.85
2.73763	49.85
2.75430	49.85
2.77097	49.87
2.78763	49.88
2.80430	49.87
2.82097	49.86
2.83763	49.86
2.85430	49.86
2.87097	49.86
2.88763	49.87
2.90430	49.88
2.92097	49.89
2.93763	49.90
2.95430	49.92
2.97097	49.94
2.98763	49.95
3.00430	49.97
3.02097	49.99
3.03763	50.00
3.05430	50.01
3.07097	50.01
3.08763	50.02
3.10430	50.03
3.12097	50.03
3.13763	50.04
3.15430	50.03
3.17097	50.03
3.18763	50.04
3.20430	50.03
3.22097	50.04
3.23763	50.05
3.25430	50.07
3.27097	50.09
3.28763	50.09
3.30430	50.10
3.32097	50.11
3.33763	50.12
3.35430	50.12
3.37097	50.10
3.38763	50.08
3.40430	50.08
3.42097	50.07
3.43763	50.07
3.45430	50.06
3.47097	50.04
3.48763	50.04
3.50430	50.05
3.52097	50.05
3.53763	50.05
3.55430	50.04
3.57097	50.04
3.58763	50.03
3.60430	50.04
3.62097	50.03
3.63763	50.03
3.65430	50.03
3.67097	50.03
3.68763	50.02
3.70430	50.03
3.72097	50.04
3.73763	50.05
3.75430	50.05
3.77097	50.05
3.78763	50.05
3.80430	50.05
3.82097	50.05
3.83763	50.05
3.85430	50.06
3.87097	50.06
3.88763	50.06
3.90430	50.06
3.92097	50.06
3.93763	50.08
3.95430	50.08
3.97097	50.08
3.98763	50.07

[Status Trace (Injection Unit Temperature)]
Interval(msec)	1000
# of Points	240
Start Time(min)	0.004
End Time(min)	3.988
Intensity Units	
Intensity Multiplier	1
R.Time (min)	Intensity
0.00430	99.98
0.02097	99.98
0.03763	99.98
0.05430	99.98
0.07097	99.98
0.08763	99.98
0.10430	99.98
0.12097	99.98
0.13763	99.98
0.15430	99.98
0.17097	99.98
0.18763	99.98
0.20430	99.98
0.22097	99.98
0.23763	99.98
0.25430	99.98
0.27097	99.98
0.28763	99.98
0.30430	99.98
0.32097	99.98
0.33763	99.98
0.35430	99.98
0.37097	99.98
0.38763	99.98
0.40430	99.98
0.42097	99.98
0.43763	99.99
0.45430	99.99
0.47097	99.99
0.48763	99.99
0.50430	99.99
0.52097	99.99
0.53763	99.98
0.55430	99.98
0.57097	99.98
0.58763	99.99
0.60430	99.99
0.62097	99.99
0.63763	99.99
0.65430	99.99
0.67097	99.98
0.68763	99.99
0.70430	99.99
0.72097	99.99
0.73763	99.99
0.75430	99.99
0.77097	99.99
0.78763	99.99
0.80430	99.99
0.82097	99.99
0.83763	99.99
0.85430	99.98
0.87097	99.98
0.88763	99.99
0.90430	99.98
0.92097	99.98
0.93763	99.98
0.95430	99.98
0.97097	99.98
0.98763	99.98
1.00430	99.98
1.02097	99.98
1.03763	99.98
1.05430	99.98
1.07097	99.98
1.08763	99.98
1.10430	99.98
1.12097	99.98
1.13763	99.98
1.15430	99.98
1.17097	99.97
1.18763	99.98
1.20430	99.98
1.22097	99.98
1.23763	99.98
1.25430	99.98
1.27097	99.98
1.28763	99.98
1.30430	99.98
1.32097	99.98
1.33763	99.98
1.35430	99.97
1.37097	99.98
1.38763	99.98
1.40430	99.97
1.42097	99.98
1.43763	99.98
1.45430	99.98
1.47097	99.98
1.48763	99.98
1.50430	99.98
1.52097	99.98
1.53763	99.98
1.55430	99.99
1.57097	99.98
1.58763	99.98
1.60430	99.99
1.62097	99.99
1.63763	99.99
1.65430	99.98
1.67097	99.99
1.68763	99.99
1.70430	99.99
1.72097	99.99
1.73763	99.99
1.75430	99.99
1.77097	99.99
1.78763	99.99
1.80430	99.99
1.82097	99.99
1.83763	99.99
1.85430	99.98
1.87097	99.98
1.88763	99.98
1.90430	99.98
1.92097	99.98
1.93763	99.98
1.95430	99.98
1.97097	99.98
1.98763	99.97
2.00430	99.97
2.02097	99.97
2.03763	99.97
2.05430	99.97
2.07097	99.97
2.08763	99.97
2.10430	99.97
2.12097	99.97
2.13763	99.97
2.15430	99.97
2.17097	99.97
2.18763	99.97
2.20430	99.97
2.22097	99.97
2.23763	99.97
2.25430	99.97
2.27097	99.97
2.28763	99.96
2.30430	99.97
2.32097	99.97
2.33763	99.97
2.35430	99.97
2.37097	99.97
2.38763	99.97
2.40430	99.97
2.42097	99.97
2.43763	99.97
2.45430	99.97
2.47097	99.97
2.48763	99.97
2.50430	99.97
2.52097	99.97
2.53763	99.97
2.55430	99.98
2.57097	99.98
2.58763	99.98
2.60430	99.98
2.62097	99.98
2.63763	99.98
2.65430	99.98
2.67097	99.98
2.68763	99.98
2.70430	99.99
2.72097	99.98
2.73763	99.99
2.75430	99.99
2.77097	99.99
2.78763	99.99
2.80430	99.99
2.82097	99.99
2.83763	99.99
2.85430	99.99
2.87097	100.00
2.88763	99.99
2.90430	100.00
2.92097	100.00
2.93763	100.00
2.95430	100.00
2.97097	100.00
2.98763	100.00
3.00430	100.01
3.02097	100.00
3.03763	100.01
3.05430	100.01
3.07097	100.01
3.08763	100.01
3.10430	100.01
3.12097	100.01
3.13763	100.01
3.15430	100.01
3.17097	100.02
3.18763	100.02
3.20430	100.01
3.22097	100.02
3.23763	100.02
3.25430	100.02
3.27097	100.02
3.28763	100.02
3.30430	100.02
3.32097	100.02
3.33763	100.02
3.35430	100.03
3.37097	100.03
3.38763	100.03
3.40430	100.03
3.42097	100.03
3.43763	100.03
3.45430	100.03
3.47097	100.03
3.48763	100.03
3.50430	100.04
3.52097	100.04
3.53763	100.04
3.55430	100.04
3.57097	100.04
3.58763	100.04
3.60430	100.04
3.62097	100.04
3.63763	100.04
3.65430	100.04
3.67097	100.05
3.68763	100.04
3.70430	100.04
3.72097	100.04
3.73763	100.05
3.75430	100.04
3.77097	100.05
3.78763	100.05
3.80430	100.05
3.82097	100.04
3.83763	100.05
3.85430	100.04
3.87097	100.05
3.88763	100.04
3.90430	100.05
3.92097	100.05
3.93763	100.05
3.95430	100.05
3.97097	100.04
3.98763	100.05

[Status Trace (Carrier Gas Pressure)]
Interval(msec)	1000
# of Points	240
Start Time(min)	0.004
End Time(min)	3.988
Intensity Units	
Intensity Multiplier	1
R.Time (min)	Intensity
0.00430	58.00
0.02097	55.88
0.03763	56.57
0.05430	58.83
0.07097	59.72
0.08763	58.20
0.10430	57.97
0.12097	58.01
0.13763	58.01
0.15430	58.01
0.17097	58.00
0.18763	58.00
0.20430	58.00
0.22097	58.00
0.23763	58.00
0.25430	58.00
0.27097	58.00
0.28763	58.00
0.30430	58.00
0.32097	58.00
0.33763	58.00
0.35430	58.00
0.37097	58.00
0.38763	58.00
0.40430	58.00
0.42097	58.00
0.43763	58.00
0.45430	58.00
0.47097	58.00
0.48763	58.00
0.50430	58.00
0.52097	58.00
0.53763	58.00
0.55430	58.00
0.57097	58.00
0.58763	58.00
0.60430	58.00
0.62097	58.00
0.63763	58.00
0.65430	58.00
0.67097	58.00
0.68763	58.00
0.70430	58.00
0.72097	58.00
0.73763	58.00
0.75430	58.00
0.77097	58.00
0.78763	58.00
0.80430	58.00
0.82097	58.00
0.83763	58.00
0.85430	58.00
0.87097	58.00
0.88763	58.00
0.90430	58.00
0.92097	58.00
0.93763	58.00
0.95430	58.00
0.97097	58.00
0.98763	58.00
1.00430	58.00
1.02097	58.00
1.03763	58.00
1.05430	58.00
1.07097	58.00
1.08763	58.00
1.10430	58.00
1.12097	58.00
1.13763	58.00
1.15430	58.00
1.17097	58.00
1.18763	58.00
1.20430	58.00
1.22097	58.00
1.23763	58.00
1.25430	58.00
1.27097	58.00
1.28763	58.00
1.30430	58.00
1.32097	58.00
1.33763	58.00
1.35430	58.00
1.37097	58.00
1.38763	58.00
1.40430	58.00
1.42097	58.00
1.43763	58.00
1.45430	58.00
1.47097	58.00
1.48763	58.00
1.50430	58.00
1.52097	58.00
1.53763	58.00
1.55430	58.00
1.57097	58.00
1.58763	58.00
1.60430	58.00
1.62097	58.00
1.63763	58.01
1.65430	58.00
1.67097	58.01
1.68763	58.00
1.70430	58.00
1.72097	58.00
1.73763	58.00
1.75430	58.00
1.77097	58.00
1.78763	58.00
1.80430	58.00
1.82097	58.00
1.83763	58.00
1.85430	58.00
1.87097	58.00
1.88763	58.00
1.90430	58.00
1.92097	58.00
1.93763	58.00
1.95430	58.00
1.97097	58.00
1.98763	58.00
2.00430	58.00
2.02097	58.00
2.03763	58.00
2.05430	58.00
2.07097	58.00
2.08763	58.00
2.10430	58.00
2.12097	58.00
2.13763	58.00
2.15430	58.00
2.17097	58.00
2.18763	58.00
2.20430	58.00
2.22097	58.00
2.23763	58.00
2.25430	58.00
2.27097	58.00
2.28763	58.00
2.30430	58.00
2.32097	58.00
2.33763	58.00
2.35430	58.00
2.37097	58.00
2.38763	57.99
2.40430	57.99
2.42097	58.00
2.43763	58.00
2.45430	58.00
2.47097	58.00
2.48763	58.00
2.50430	57.98
2.52097	57.99
2.53763	57.99
2.55430	58.00
2.57097	58.00
2.58763	58.00
2.60430	58.00
2.62097	58.00
2.63763	58.00
2.65430	58.00
2.67097	58.00
2.68763	58.00
2.70430	58.00
2.72097	58.00
2.73763	58.00
2.75430	58.00
2.77097	58.00
2.78763	58.00
2.80430	58.00
2.82097	58.00
2.83763	58.00
2.85430	58.00
2.87097	58.00
2.88763	58.00
2.90430	58.00
2.92097	58.00
2.93763	58.00
2.95430	58.00
2.97097	58.00
2.98763	58.00
3.00430	58.00
3.02097	58.00
3.03763	58.00
3.05430	58.00
3.07097	58.00
3.08763	58.00
3.10430	58.00
3.12097	58.00
3.13763	58.00
3.15430	58.00
3.17097	58.00
3.18763	58.00
3.20430	58.00
3.22097	58.00
3.23763	58.00
3.25430	58.00
3.27097	58.00
3.28763	58.00
3.30430	58.00
3.32097	58.00
3.33763	58.00
3.35430	58.00
3.37097	58.00
3.38763	58.00
3.40430	58.00
3.42097	58.00
3.43763	58.00
3.45430	58.00
3.47097	58.00
3.48763	58.00
3.50430	58.00
3.52097	58.00
3.53763	58.00
3.55430	58.00
3.57097	58.00
3.58763	58.00
3.60430	58.00
3.62097	58.00
3.63763	58.00
3.65430	58.00
3.67097	58.00
3.68763	58.00
3.70430	58.00
3.72097	58.00
3.73763	58.00
3.75430	58.00
3.77097	58.00
3.78763	58.00
3.80430	58.00
3.82097	58.00
3.83763	58.00
3.85430	58.00
3.87097	58.00
3.88763	58.00
3.90430	58.00
3.92097	58.00
3.93763	58.00
3.95430	58.00
3.97097	58.00
3.98763	58.00

[Status Trace (Carrier Gas Flow)]
Interval(msec)	1000
# of Points	240
Start Time(min)	0.004
End Time(min)	3.988
Intensity Units	
Intensity Multiplier	1
R.Time (min)	Intensity
0.00430	34.52
0.02097	34.55
0.03763	34.54
0.05430	34.55
0.07097	34.49
0.08763	34.51
0.10430	34.52
0.12097	34.52
0.13763	34.52
0.15430	34.52
0.17097	34.52
0.18763	34.53
0.20430	34.51
0.22097	34.51
0.23763	34.52
0.25430	34.52
0.27097	34.52
0.28763	34.51
0.30430	34.52
0.32097	34.52
0.33763	34.52
0.35430	34.52
0.37097	34.52
0.38763	34.52
0.40430	34.51
0.42097	34.52
0.43763	34.52
0.45430	34.52
0.47097	34.52
0.48763	34.52
0.50430	34.52
0.52097	34.53
0.53763	34.51
0.55430	34.51
0.57097	34.52
0.58763	34.52
0.60430	34.52
0.62097	34.52
0.63763	34.52
0.65430	34.52
0.67097	34.52
0.68763	34.52
0.70430	34.52
0.72097	34.52
0.73763	34.51
0.75430	34.53
0.77097	34.52
0.78763	34.51
0.80430	34.51
0.82097	34.52
0.83763	34.52
0.85430	34.52
0.87097	34.51
0.88763	34.52
0.90430	34.52
0.92097	34.52
0.93763	34.52
0.95430	34.52
0.97097	34.52
0.98763	34.51
1.00430	34.52
1.02097	34.52
1.03763	34.52
1.05430	34.53
1.07097	34.52
1.08763	34.52
1.10430	34.52
1.12097	34.51
1.13763	34.52
1.15430	34.53
1.17097	34.52
1.18763	34.52
1.20430	34.52
1.22097	34.52
1.23763	34.52
1.25430	34.52
1.27097	34.51
1.28763	34.52
1.30430	34.52
1.32097	34.52
1.33763	34.52
1.35430	34.52
1.37097	34.52
1.38763	34.52
1.40430	34.51
1.42097	34.52
1.43763	34.52
1.45430	34.52
1.47097	34.52
1.48763	34.52
1.50430	34.52
1.52097	34.52
1.53763	34.52
1.55430	34.52
1.57097	34.52
1.58763	34.52
1.60430	34.52
1.62097	34.52
1.63763	34.52
1.65430	34.52
1.67097	34.52
1.68763	34.52
1.70430	34.51
1.72097	34.52
1.73763	34.52
1.75430	34.52
1.77097	34.52
1.78763	34.52
1.80430	34.53
1.82097	34.52
1.83763	34.52
1.85430	34.52
1.87097	34.52
1.88763	34.52
1.90430	34.52
1.92097	34.51
1.93763	34.52
1.95430	34.52
1.97097	34.52
1.98763	34.52
2.00430	34.52
2.02097	34.52
2.03763	34.51
2.05430	34.52
2.07097	34.52
2.08763	34.52
2.10430	34.52
2.12097	34.51
2.13763	34.53
2.15430	34.52
2.17097	34.52
2.18763	34.52
2.20430	34.52
2.22097	34.53
2.23763	34.52
2.25430	34.52
2.27097	34.52
2.28763	34.52
2.30430	34.51
2.32097	34.51
2.33763	34.53
2.35430	34.52
2.37097	34.51
2.38763	34.52
2.40430	34.52
2.42097	34.51
2.43763	34.51
2.45430	34.52
2.47097	34.52
2.48763	34.52
2.50430	34.58
2.52097	34.52
2.53763	34.52
2.55430	34.52
2.57097	34.51
2.58763	34.51
2.60430	34.52
2.62097	34.52
2.63763	34.52
2.65430	34.52
2.67097	34.52
2.68763	34.52
2.70430	34.52
2.72097	34.52
2.73763	34.51
2.75430	34.52
2.77097	34.51
2.78763	34.52
2.80430	34.52
2.82097	34.52
2.83763	34.52
2.85430	34.51
2.87097	34.52
2.88763	34.51
2.90430	34.52
2.92097	34.51
2.93763	34.51
2.95430	34.52
2.97097	34.51
2.98763	34.51
3.00430	34.52
3.02097	34.53
3.03763	34.52
3.05430	34.51
3.07097	34.52
3.08763	34.52
3.10430	34.52
3.12097	34.52
3.13763	34.52
3.15430	34.52
3.17097	34.52
3.18763	34.52
3.20430	34.53
3.22097	34.53
3.23763	34.52
3.25430	34.52
3.27097	34.52
3.28763	34.51
3.30430	34.52
3.32097	34.52
3.33763	34.52
3.35430	34.52
3.37097	34.52
3.38763	34.52
3.40430	34.52
3.42097	34.53
3.43763	34.52
3.45430	34.52
3.47097	34.52
3.48763	34.51
3.50430	34.52
3.52097	34.52
3.53763	34.52
3.55430	34.52
3.57097	34.52
3.58763	34.52
3.60430	34.52
3.62097	34.52
3.63763	34.52
3.65430	34.52
3.67097	34.52
3.68763	34.52
3.70430	34.51
3.72097	34.52
3.73763	34.52
3.75430	34.52
3.77097	34.51
3.78763	34.52
3.80430	34.52
3.82097	34.52
3.83763	34.52
3.85430	34.52
3.87097	34.52
3.88763	34.52
3.90430	34.52
3.92097	34.52
3.93763	34.52
3.95430	34.52
3.97097	34.52
3.98763	34.52

[Status Trace (Column Flow)]
Interval(msec)	1000
# of Points	240
Start Time(min)	0.004
End Time(min)	3.988
Intensity Units	
Intensity Multiplier	1
R.Time (min)	Intensity
0.00430	5.55
0.02097	5.30
0.03763	5.38
0.05430	5.65
0.07097	5.75
0.08763	5.57
0.10430	5.55
0.12097	5.55
0.13763	5.55
0.15430	5.55
0.17097	5.55
0.18763	5.55
0.20430	5.55
0.22097	5.55
0.23763	5.55
0.25430	5.55
0.27097	5.55
0.28763	5.55
0.30430	5.55
0.32097	5.55
0.33763	5.55
0.35430	5.55
0.37097	5.55
0.38763	5.55
0.40430	5.55
0.42097	5.55
0.43763	5.55
0.45430	5.55
0.47097	5.55
0.48763	5.55
0.50430	5.55
0.52097	5.55
0.53763	5.55
0.55430	5.55
0.57097	5.55
0.58763	5.55
0.60430	5.55
0.62097	5.55
0.63763	5.55
0.65430	5.55
0.67097	5.55
0.68763	5.55
0.70430	5.55
0.72097	5.55
0.73763	5.55
0.75430	5.55
0.77097	5.55
0.78763	5.55
0.80430	5.55
0.82097	5.55
0.83763	5.55
0.85430	5.55
0.87097	5.55
0.88763	5.55
0.90430	5.55
0.92097	5.55
0.93763	5.55
0.95430	5.55
0.97097	5.55
0.98763	5.55
1.00430	5.55
1.02097	5.55
1.03763	5.55
1.05430	5.55
1.07097	5.55
1.08763	5.55
1.10430	5.55
1.12097	5.55
1.13763	5.55
1.15430	5.55
1.17097	5.55
1.18763	5.55
1.20430	5.55
1.22097	5.55
1.23763	5.55
1.25430	5.55
1.27097	5.55
1.28763	5.55
1.30430	5.55
1.32097	5.55
1.33763	5.55
1.35430	5.55
1.37097	5.55
1.38763	5.55
1.40430	5.55
1.42097	5.55
1.43763	5.55
1.45430	5.55
1.47097	5.55
1.48763	5.55
1.50430	5.55
1.52097	5.55
1.53763	5.55
1.55430	5.55
1.57097	5.55
1.58763	5.55
1.60430	5.55
1.62097	5.55
1.63763	5.54
1.65430	5.54
1.67097	5.53
1.68763	5.51
1.70430	5.50
1.72097	5.49
1.73763	5.48
1.75430	5.47
1.77097	5.46
1.78763	5.45
1.80430	5.44
1.82097	5.43
1.83763	5.42
1.85430	5.41
1.87097	5.40
1.88763	5.39
1.90430	5.38
1.92097	5.37
1.93763	5.36
1.95430	5.35
1.97097	5.34
1.98763	5.33
2.00430	5.32
2.02097	5.31
2.03763	5.30
2.05430	5.29
2.07097	5.28
2.08763	5.27
2.10430	5.26
2.12097	5.26
2.13763	5.25
2.15430	5.24
2.17097	5.23
2.18763	5.22
2.20430	5.21
2.22097	5.20
2.23763	5.19
2.25430	5.18
2.27097	5.17
2.28763	5.16
2.30430	5.15
2.32097	5.14
2.33763	5.13
2.35430	5.12
2.37097	5.12
2.38763	5.12
2.40430	5.12
2.42097	5.12
2.43763	5.12
2.45430	5.12
2.47097	5.12
2.48763	5.12
2.50430	5.11
2.52097	5.11
2.53763	5.11
2.55430	5.11
2.57097	5.11
2.58763	5.11
2.60430	5.11
2.62097	5.11
2.63763	5.11
2.65430	5.11
2.67097	5.11
2.68763	5.11
2.70430	5.11
2.72097	5.11
2.73763	5.11
2.75430	5.11
2.77097	5.11
2.78763	5.11
2.80430	5.11
2.82097	5.11
2.83763	5.11
2.85430	5.11
2.87097	5.11
2.88763	5.11
2.90430	5.11
2.92097	5.11
2.93763	5.11
2.95430	5.11
2.97097	5.11
2.98763	5.11
3.00430	5.11
3.02097	5.11
3.03763	5.11
3.05430	5.11
3.07097	5.11
3.08763	5.11
3.10430	5.11
3.12097	5.11
3.13763	5.11
3.15430	5.11
3.17097	5.11
3.18763	5.11
3.20430	5.11
3.22097	5.11
3.23763	5.11
3.25430	5.11
3.27097	5.11
3.28763	5.11
3.30430	5.11
3.32097	5.11
3.33763	5.10
3.35430	5.10
3.37097	5.11
3.38763	5.11
3.40430	5.11
3.42097	5.11
3.43763	5.11
3.45430	5.11
3.47097	5.11
3.48763	5.11
3.50430	5.11
3.52097	5.11
3.53763	5.11
3.55430	5.11
3.57097	5.11
3.58763	5.11
3.60430	5.11
3.62097	5.11
3.63763	5.11
3.65430	5.11
3.67097	5.11
3.68763	5.11
3.70430	5.11
3.72097	5.11
3.73763	5.11
3.75430	5.11
3.77097	5.11
3.78763	5.11
3.80430	5.11
3.82097	5.11
3.83763	5.11
3.85430	5.11
3.87097	5.11
3.88763	5.11
3.90430	5.11
3.92097	5.11
3.93763	5.11
3.95430	5.11
3.97097	5.11
3.98763	5.11

[Status Trace (Linear Velocity)]
Interval(msec)	1000
# of Points	240
Start Time(min)	0.004
End Time(min)	3.988
Intensity Units	
Intensity Multiplier	1
R.Time (min)	Intensity
0.00430	39.02
0.02097	37.63
0.03763	38.08
0.05430	39.56
0.07097	40.15
0.08763	39.15
0.10430	39.00
0.12097	39.02
0.13763	39.03
0.15430	39.02
0.17097	39.02
0.18763	39.02
0.20430	39.02
0.22097	39.02
0.23763	39.02
0.25430	39.02
0.27097	39.02
0.28763	39.02
0.30430	39.02
0.32097	39.02
0.33763	39.02
0.35430	39.02
0.37097	39.02
0.38763	39.02
0.40430	39.02
0.42097	39.02
0.43763	39.02
0.45430	39.02
0.47097	39.02
0.48763	39.02
0.50430	39.02
0.52097	39.02
0.53763	39.02
0.55430	39.02
0.57097	39.02
0.58763	39.02
0.60430	39.02
0.62097	39.02
0.63763	39.02
0.65430	39.02
0.67097	39.02
0.68763	39.02
0.70430	39.02
0.72097	39.02
0.73763	39.02
0.75430	39.03
0.77097	39.03
0.78763	39.03
0.80430	39.03
0.82097	39.02
0.83763	39.02
0.85430	39.02
0.87097	39.02
0.88763	39.02
0.90430	39.03
0.92097	39.03
0.93763	39.03
0.95430	39.03
0.97097	39.03
0.98763	39.03
1.00430	39.03
1.02097	39.03
1.03763	39.02
1.05430	39.02
1.07097	39.02
1.08763	39.02
1.10430	39.02
1.12097	39.02
1.13763	39.02
1.15430	39.02
1.17097	39.02
1.18763	39.02
1.20430	39.03
1.22097	39.02
1.23763	39.02
1.25430	39.02
1.27097	39.02
1.28763	39.02
1.30430	39.02
1.32097	39.02
1.33763	39.02
1.35430	39.02
1.37097	39.02
1.38763	39.02
1.40430	39.03
1.42097	39.02
1.43763	39.03
1.45430	39.03
1.47097	39.02
1.48763	39.03
1.50430	39.03
1.52097	39.03
1.53763	39.03
1.55430	39.03
1.57097	39.03
1.58763	39.03
1.60430	39.02
1.62097	39.01
1.63763	39.00
1.65430	38.97
1.67097	38.94
1.68763	38.91
1.70430	38.87
1.72097	38.84
1.73763	38.81
1.75430	38.78
1.77097	38.75
1.78763	38.71
1.80430	38.68
1.82097	38.65
1.83763	38.62
1.85430	38.59
1.87097	38.56
1.88763	38.53
1.90430	38.50
1.92097	38.47
1.93763	38.44
1.95430	38.41
1.97097	38.37
1.98763	38.34
2.00430	38.31
2.02097	38.28
2.03763	38.25
2.05430	38.22
2.07097	38.19
2.08763	38.16
2.10430	38.13
2.12097	38.10
2.13763	38.08
2.15430	38.05
2.17097	38.02
2.18763	37.99
2.20430	37.96
2.22097	37.93
2.23763	37.90
2.25430	37.87
2.27097	37.84
2.28763	37.81
2.30430	37.78
2.32097	37.75
2.33763	37.72
2.35430	37.69
2.37097	37.67
2.38763	37.66
2.40430	37.66
2.42097	37.67
2.43763	37.67
2.45430	37.67
2.47097	37.66
2.48763	37.66
2.50430	37.65
2.52097	37.66
2.53763	37.66
2.55430	37.66
2.57097	37.66
2.58763	37.66
2.60430	37.66
2.62097	37.66
2.63763	37.66
2.65430	37.66
2.67097	37.66
2.68763	37.65
2.70430	37.65
2.72097	37.65
2.73763	37.65
2.75430	37.65
2.77097	37.65
2.78763	37.65
2.80430	37.65
2.82097	37.65
2.83763	37.65
2.85430	37.65
2.87097	37.65
2.88763	37.65
2.90430	37.65
2.92097	37.65
2.93763	37.65
2.95430	37.65
2.97097	37.65
2.98763	37.64
3.00430	37.64
3.02097	37.64
3.03763	37.64
3.05430	37.64
3.07097	37.64
3.08763	37.64
3.10430	37.64
3.12097	37.64
3.13763	37.64
3.15430	37.64
3.17097	37.64
3.18763	37.64
3.20430	37.64
3.22097	37.64
3.23763	37.64
3.25430	37.63
3.27097	37.63
3.28763	37.63
3.30430	37.63
3.32097	37.63
3.33763	37.63
3.35430	37.63
3.37097	37.63
3.38763	37.63
3.40430	37.63
3.42097	37.63
3.43763	37.63
3.45430	37.63
3.47097	37.64
3.48763	37.64
3.50430	37.64
3.52097	37.64
3.53763	37.64
3.55430	37.64
3.57097	37.64
3.58763	37.64
3.60430	37.64
3.62097	37.64
3.63763	37.64
3.65430	37.64
3.67097	37.64
3.68763	37.64
3.70430	37.64
3.72097	37.64
3.73763	37.64
3.75430	37.64
3.77097	37.64
3.78763	37.64
3.80430	37.64
3.82097	37.64
3.83763	37.64
3.85430	37.63
3.87097	37.63
3.88763	37.63
3.90430	37.63
3.92097	37.63
3.93763	37.63
3.95430	37.63
3.97097	37.63
3.98763	37.63

