[Header]
Application Name	LabSolutions
Version	5.110
Data File Name	C:\Users\User\Desktop\GC Analyses\Jack\Nachusa Grasslands Sampling\T4 Timepoint July 12th\T4_07122022_023.gcd
Output Date	3/17/2023
Output Time	12:04:52 PM

[File Information]
Type	Data File
Generated	3/14/2023 5:52:44 PM
Generated by	System Administrator
Modified	3/14/2023 5:59:32 PM
Modified by	System Administrator

[Sample Information]
Operator Name	System Administrator
Acquired	3/14/2023 5:55:30 PM
Sample Type	0:Unknown
Level	0
Sample Name	023
Sample ID	023
ISTD Amount1	1
ISTD Amount2	1
ISTD Amount3	1
ISTD Amount4	1
ISTD Amount5	1
ISTD Amount6	1
ISTD Amount7	1
ISTD Amount8	1
ISTD Amount9	1
ISTD Amount10	1
ISTD Amount11	1
ISTD Amount12	1
ISTD Amount13	1
ISTD Amount14	1
ISTD Amount15	1
ISTD Amount16	1
ISTD Amount17	1
ISTD Amount18	1
ISTD Amount19	1
ISTD Amount20	1
ISTD Amount21	1
ISTD Amount22	1
ISTD Amount23	1
ISTD Amount24	1
ISTD Amount25	1
ISTD Amount26	1
ISTD Amount27	1
ISTD Amount28	1
ISTD Amount29	1
ISTD Amount30	1
ISTD Amount31	1
ISTD Amount32	1
Sample Amount	1
Dilution Factor	1
Vial#	22
Injection Volume	1
Injection Count	1
Bar Code	

[Original Files]
Data File	C:\Users\User\Desktop\GC Analyses\Jack\Nachusa Grasslands Sampling\T4 Timepoint July 12th\T4_07122022_023.gcd
Method File	C:\LabSolutions\Data\GHG_4min_2022\ghg3_togas_w_acet_4 min_new_int.gcm
Batch File	C:\LabSolutions\Data\AutoSamplerTesting\T4_07122022.gcb
Report Format File	c:\LabSolutions\System\DEFAULT.lsr

[File Description]


[Configuration]
Instrument Name	C0B7VH3-Instrument1
Instrument #	1
Line #	1
# of Detectors	3
Detector ID	DET#1	DET#2	DET#3
Detector Name	FID	PTCD	ECD
# of Channels	1	1	1

[Peak Table(Ch1)]
# of Peaks	3
Peak#	R.Time	I.Time	F.Time	Area	Height	A/H	Conc.	Mark	ID#	Name	k'	Plate #	Plate Ht.	Tailing	Resolution	Sep.Factor	Area Ratio	Height Ratio	Conc. %	Norm Conc.
1	1.479	1.443	1.509	1172	445	2.630	8.272	   	1	CO	0.000	8827	16.994	0.881	0.000	0.000	0	0	0.907	0.907
2	1.571	1.538	1.622	19465	9950	1.956	376.370	   	2	CH4	0.062	11665	12.859	1.122	1.513	0.000	0	0	41.268	41.268
3	2.000	1.952	2.334	2101291	1002588	2.096	527.367	   	3	CO2	0.352	17427	8.607	1.173	7.223	5.680	0	0	57.825	57.825

[Peak Table(Ch2)]
# of Peaks	0

[Peak Table(Ch3)]
# of Peaks	5
Peak#	R.Time	I.Time	F.Time	Area	Height	A/H	Conc.	Mark	ID#	Name	k'	Plate #	Plate Ht.	Tailing	Resolution	Sep.Factor	Area Ratio	Height Ratio	Conc. %	Norm Conc.
1	2.462	2.286	2.510	2169	608	3.568	0.000	   			0.000	9612	15.606	0.000	0.000	0.000	0	0	0.000	0.000
2	2.532	2.510	2.579	1000	337	2.968	0.000	 V 			0.028	6034	24.859	0.000	0.604	0.000	0	0	0.000	0.000
3	2.605	2.579	2.682	573	147	3.901	0.000	 V 			0.058	219	684.766	0.000	0.176	2.053	0	0	0.000	0.000
4	2.880	2.799	3.074	56533	14693	3.848	1.444	   	1	N2O	0.170	12685	11.825	1.527	0.682	2.923	0	0	100.000	100.000
5	3.342	3.162	3.995	16567	564	29.351	0.000	   	2	SF6	0.357	243	617.537	2.273	0.962	2.105	0	0	0.000	0.000

[Compound Results(Ch1)]
# of IDs	6
ID#	Name	R.Time	Area	Height	Conc.	Curve	3rd	2nd	1st	Constant	Area Ratio	Height Ratio	Conc. %	Norm Conc.
1	CO	1.479	1172	445	8.272	Linear	0.000000e+00	0.000000e+00	1.416423e+002	0.000000e+00	0	0	0.907	0.907
2	CH4	1.571	19465	9950	376.370	Linear	0.000000e+00	0.000000e+00	5.171738e+001	0.000000e+00	0	0	41.268	41.268
3	CO2	2.000	2101291	1002588	527.367	Linear	0.000000e+00	0.000000e+00	3.984494e+003	0.000000e+00	0	0	57.825	57.825
4	Ethylene	0.000	0	0	0.000	Linear	0.000000e+00	0.000000e+00	0.000000e+00	0.000000e+00	0	0	0.000	0.000
5	Acetylene	0.000	0	0	0.000	Linear	0.000000e+00	0.000000e+00	0.000000e+00	0.000000e+00	0	0	0.000	0.000
6	Ethane	0.000	0	0	0.000	Linear	0.000000e+00	0.000000e+00	0.000000e+00	0.000000e+00	0	0	0.000	0.000

[Compound Results(Ch2)]
# of IDs	5
ID#	Name	R.Time	Area	Height	Conc.	Curve	3rd	2nd	1st	Constant	Area Ratio	Height Ratio	Conc. %	Norm Conc.
1	Hydrogen	0.000	0	0	0.000	Linear	0.000000e+00	0.000000e+00	0.000000e+00	0.000000e+00	0	0	0.000	0.000
2	Oxygen	0.000	0	0	0.000	Linear	0.000000e+00	0.000000e+00	0.000000e+00	0.000000e+00	0	0	0.000	0.000
3	Nitrogen	0.000	0	0	0.000	Linear	0.000000e+00	0.000000e+00	0.000000e+00	0.000000e+00	0	0	0.000	0.000
4	Methane	0.000	0	0	0.000	Linear	0.000000e+00	0.000000e+00	0.000000e+00	0.000000e+00	0	0	0.000	0.000
5	Carbon Monoxide	0.000	0	0	0.000	Linear	0.000000e+00	0.000000e+00	0.000000e+00	0.000000e+00	0	0	0.000	0.000

[Compound Results(Ch3)]
# of IDs	2
ID#	Name	R.Time	Area	Height	Conc.	Curve	3rd	2nd	1st	Constant	Area Ratio	Height Ratio	Conc. %	Norm Conc.
1	N2O	2.880	56533	14693	1.444	Linear	0.000000e+00	0.000000e+00	3.915173e+004	0.000000e+00	0	0	100.000	100.000
2	SF6	3.342	16567	564	0.000	Linear	0.000000e+00	0.000000e+00	0.000000e+00	0.000000e+00	0	0	0.000	0.000

[Group Results(Ch1)]
# of Groups	0

[Group Results(Ch2)]
# of Groups	0

[Group Results(Ch3)]
# of Groups	0

[Chromatogram (Ch1)]
Interval(msec)	220
# of Points	1091
Start Time(min)	0.002
End Time(min)	3.998
R.Time (min)	Intensity
0.00167	31
0.00533	33
0.00900	26
0.01267	23
0.01633	28
0.02000	34
0.02367	40
0.02733	42
0.03100	37
0.03467	25
0.03833	15
0.04200	5
0.04567	0
0.04933	-3
0.05300	-0
0.05667	8
0.06033	19
0.06400	28
0.06767	36
0.07133	38
0.07500	29
0.07867	17
0.08233	10
0.08600	11
0.08967	11
0.09333	10
0.09700	15
0.10067	28
0.10433	38
0.10800	45
0.11167	47
0.11533	46
0.11900	47
0.12267	53
0.12633	58
0.13000	65
0.13367	70
0.13733	72
0.14100	74
0.14467	78
0.14833	82
0.15200	84
0.15567	87
0.15933	91
0.16300	96
0.16667	102
0.17033	112
0.17400	120
0.17767	120
0.18133	111
0.18500	95
0.18867	87
0.19233	90
0.19600	93
0.19967	91
0.20333	88
0.20700	84
0.21067	75
0.21433	68
0.21800	66
0.22167	64
0.22533	59
0.22900	54
0.23267	55
0.23633	56
0.24000	54
0.24367	46
0.24733	37
0.25100	34
0.25467	34
0.25833	38
0.26200	42
0.26567	47
0.26933	55
0.27300	55
0.27667	52
0.28033	51
0.28400	46
0.28767	46
0.29133	46
0.29500	44
0.29867	43
0.30233	38
0.30600	34
0.30967	27
0.31333	19
0.31700	16
0.32067	20
0.32433	30
0.32800	36
0.33167	34
0.33533	24
0.33900	12
0.34267	4
0.34633	-1
0.35000	-1
0.35367	4
0.35733	7
0.36100	8
0.36467	8
0.36833	6
0.37200	8
0.37567	13
0.37933	15
0.38300	19
0.38667	22
0.39033	28
0.39400	37
0.39767	44
0.40133	47
0.40500	50
0.40867	47
0.41233	42
0.41600	33
0.41967	25
0.42333	15
0.42700	6
0.43067	2
0.43433	1
0.43800	5
0.44167	9
0.44533	9
0.44900	5
0.45267	4
0.45633	9
0.46000	19
0.46367	28
0.46733	33
0.47100	34
0.47467	36
0.47833	39
0.48200	35
0.48567	31
0.48933	27
0.49300	28
0.49667	26
0.50033	25
0.50400	28
0.50767	29
0.51133	26
0.51500	20
0.51867	21
0.52233	21
0.52600	19
0.52967	21
0.53333	31
0.53700	44
0.54067	54
0.54433	62
0.54800	58
0.55167	47
0.55533	37
0.55900	26
0.56267	9
0.56633	-5
0.57000	-10
0.57367	-7
0.57733	8
0.58100	25
0.58467	33
0.58833	34
0.59200	32
0.59567	30
0.59933	22
0.60300	13
0.60667	5
0.61033	-1
0.61400	-2
0.61767	1
0.62133	5
0.62500	8
0.62867	8
0.63233	11
0.63600	14
0.63967	13
0.64333	15
0.64700	17
0.65067	19
0.65433	19
0.65800	20
0.66167	17
0.66533	15
0.66900	7
0.67267	-6
0.67633	-10
0.68000	-10
0.68367	-8
0.68733	-5
0.69100	-5
0.69467	-1
0.69833	5
0.70200	10
0.70567	15
0.70933	15
0.71300	8
0.71667	4
0.72033	4
0.72400	6
0.72767	10
0.73133	11
0.73500	11
0.73867	11
0.74233	10
0.74600	7
0.74967	3
0.75333	1
0.75700	2
0.76067	6
0.76433	13
0.76800	21
0.77167	31
0.77533	37
0.77900	34
0.78267	31
0.78633	33
0.79000	32
0.79367	26
0.79733	22
0.80100	17
0.80467	13
0.80833	10
0.81200	12
0.81567	16
0.81933	25
0.82300	34
0.82667	38
0.83033	40
0.83400	43
0.83767	42
0.84133	37
0.84500	30
0.84867	24
0.85233	18
0.85600	9
0.85967	-2
0.86333	-13
0.86700	-18
0.87067	-15
0.87433	-4
0.87800	9
0.88167	22
0.88533	31
0.88900	34
0.89267	32
0.89633	29
0.90000	22
0.90367	12
0.90733	7
0.91100	1
0.91467	-6
0.91833	-8
0.92200	-8
0.92567	-6
0.92933	-1
0.93300	8
0.93667	14
0.94033	15
0.94400	12
0.94767	8
0.95133	4
0.95500	2
0.95867	4
0.96233	8
0.96600	10
0.96967	12
0.97333	15
0.97700	18
0.98067	18
0.98433	15
0.98800	10
0.99167	4
0.99533	4
0.99900	12
1.00267	19
1.00633	23
1.01000	23
1.01367	17
1.01733	11
1.02100	6
1.02467	4
1.02833	4
1.03200	4
1.03567	-1
1.03933	-2
1.04300	6
1.04667	13
1.05033	20
1.05400	23
1.05767	22
1.06133	19
1.06500	12
1.06867	8
1.07233	11
1.07600	14
1.07967	14
1.08333	11
1.08700	12
1.09067	16
1.09433	17
1.09800	15
1.10167	8
1.10533	5
1.10900	8
1.11267	13
1.11633	15
1.12000	15
1.12367	10
1.12733	0
1.13100	-7
1.13467	-10
1.13833	-9
1.14200	-14
1.14567	-14
1.14933	-7
1.15300	-5
1.15667	-4
1.16033	-4
1.16400	4
1.16767	13
1.17133	21
1.17500	24
1.17867	26
1.18233	30
1.18600	30
1.18967	32
1.19333	36
1.19700	38
1.20067	32
1.20433	23
1.20800	15
1.21167	8
1.21533	8
1.21900	12
1.22267	16
1.22633	15
1.23000	8
1.23367	-1
1.23733	-5
1.24100	-3
1.24467	2
1.24833	8
1.25200	17
1.25567	30
1.25933	42
1.26300	46
1.26667	42
1.27033	40
1.27400	38
1.27767	37
1.28133	36
1.28500	40
1.28867	48
1.29233	59
1.29600	69
1.29967	72
1.30333	70
1.30700	66
1.31067	58
1.31433	41
1.31800	17
1.32167	5
1.32533	5
1.32900	13
1.33267	24
1.33633	34
1.34000	38
1.34367	34
1.34733	26
1.35100	23
1.35467	32
1.35833	45
1.36200	53
1.36567	56
1.36933	56
1.37300	56
1.37667	60
1.38033	62
1.38400	62
1.38767	59
1.39133	54
1.39500	45
1.39867	30
1.40233	14
1.40600	1
1.40967	-6
1.41333	-7
1.41700	-3
1.42067	7
1.42433	16
1.42800	19
1.43167	18
1.43533	15
1.43900	17
1.44267	45
1.44633	140
1.45000	274
1.45367	368
1.45733	414
1.46100	426
1.46467	414
1.46833	393
1.47200	384
1.47567	394
1.47933	409
1.48300	398
1.48667	349
1.49033	265
1.49400	171
1.49767	82
1.50133	8
1.50500	-54
1.50867	-103
1.51233	-137
1.51600	-161
1.51967	-174
1.52333	-169
1.52700	-153
1.53067	-136
1.53433	-115
1.53800	-54
1.54167	191
1.54533	897
1.54900	2257
1.55267	4119
1.55633	6088
1.56000	7808
1.56367	9098
1.56733	9853
1.57100	9943
1.57467	9281
1.57833	7980
1.58200	6360
1.58567	4765
1.58933	3406
1.59300	2352
1.59667	1581
1.60033	1037
1.60400	663
1.60767	416
1.61133	260
1.61500	166
1.61867	108
1.62233	68
1.62600	34
1.62967	7
1.63333	-8
1.63700	-15
1.64067	-17
1.64433	-18
1.64800	-23
1.65167	-31
1.65533	-41
1.65900	-45
1.66267	-43
1.66633	-38
1.67000	-35
1.67367	-33
1.67733	-29
1.68100	-22
1.68467	-17
1.68833	-16
1.69200	-19
1.69567	-24
1.69933	-26
1.70300	-14
1.70667	6
1.71033	19
1.71400	22
1.71767	11
1.72133	-10
1.72500	-29
1.72867	-40
1.73233	-44
1.73600	-44
1.73967	-42
1.74333	-39
1.74700	-40
1.75067	-41
1.75433	-41
1.75800	-39
1.76167	-34
1.76533	-27
1.76900	-18
1.77267	-6
1.77633	7
1.78000	16
1.78367	18
1.78733	18
1.79100	14
1.79467	5
1.79833	-6
1.80200	-13
1.80567	-16
1.80933	-20
1.81300	-19
1.81667	-12
1.82033	-4
1.82400	3
1.82767	7
1.83133	9
1.83500	7
1.83867	6
1.84233	6
1.84600	10
1.84967	12
1.85333	12
1.85700	8
1.86067	3
1.86433	2
1.86800	1
1.87167	3
1.87533	7
1.87900	14
1.88267	20
1.88633	20
1.89000	15
1.89367	18
1.89733	25
1.90100	30
1.90467	33
1.90833	31
1.91200	23
1.91567	12
1.91933	7
1.92300	11
1.92667	19
1.93033	22
1.93400	30
1.93767	45
1.94133	51
1.94500	53
1.94867	49
1.95233	51
1.95600	139
1.95967	762
1.96333	3918
1.96700	15754
1.97067	49549
1.97433	124076
1.97800	252005
1.98167	426187
1.98533	619338
1.98900	797218
1.99267	931052
1.99633	1002244
2.00000	1002672
2.00367	935766
2.00733	817295
2.01100	671255
2.01467	522289
2.01833	388730
2.02200	279718
2.02567	196654
2.02933	136406
2.03300	94165
2.03667	65201
2.04033	45601
2.04400	32410
2.04767	23522
2.05133	17496
2.05500	13362
2.05867	10480
2.06233	8434
2.06600	6951
2.06967	5844
2.07333	4998
2.07700	4340
2.08067	3817
2.08433	3397
2.08800	3056
2.09167	2778
2.09533	2542
2.09900	2332
2.10267	2148
2.10633	1991
2.11000	1851
2.11367	1729
2.11733	1627
2.12100	1535
2.12467	1451
2.12833	1371
2.13200	1302
2.13567	1239
2.13933	1181
2.14300	1132
2.14667	1088
2.15033	1045
2.15400	992
2.15767	941
2.16133	892
2.16500	851
2.16867	817
2.17233	788
2.17600	767
2.17967	747
2.18333	728
2.18700	711
2.19067	694
2.19433	670
2.19800	643
2.20167	623
2.20533	607
2.20900	592
2.21267	580
2.21633	566
2.22000	549
2.22367	536
2.22733	521
2.23100	503
2.23467	484
2.23833	467
2.24200	451
2.24567	438
2.24933	427
2.25300	422
2.25667	420
2.26033	415
2.26400	408
2.26767	406
2.27133	406
2.27500	401
2.27867	394
2.28233	389
2.28600	386
2.28967	380
2.29333	369
2.29700	359
2.30067	358
2.30433	352
2.30800	342
2.31167	328
2.31533	317
2.31900	316
2.32267	318
2.32633	318
2.33000	317
2.33367	315
2.33733	309
2.34100	303
2.34467	299
2.34833	296
2.35200	292
2.35567	285
2.35933	279
2.36300	277
2.36667	276
2.37033	273
2.37400	269
2.37767	265
2.38133	261
2.38500	257
2.38867	258
2.39233	257
2.39600	252
2.39967	251
2.40333	249
2.40700	248
2.41067	247
2.41433	245
2.41800	246
2.42167	250
2.42533	257
2.42900	267
2.43267	272
2.43633	270
2.44000	259
2.44367	249
2.44733	236
2.45100	223
2.45467	214
2.45833	211
2.46200	208
2.46567	207
2.46933	207
2.47300	211
2.47667	215
2.48033	215
2.48400	213
2.48767	214
2.49133	219
2.49500	218
2.49867	208
2.50233	197
2.50600	195
2.50967	194
2.51333	192
2.51700	189
2.52067	185
2.52433	181
2.52800	179
2.53167	179
2.53533	178
2.53900	178
2.54267	174
2.54633	171
2.55000	177
2.55367	191
2.55733	203
2.56100	212
2.56467	224
2.56833	231
2.57200	222
2.57567	202
2.57933	181
2.58300	163
2.58667	151
2.59033	143
2.59400	139
2.59767	134
2.60133	130
2.60500	132
2.60867	136
2.61233	143
2.61600	148
2.61967	153
2.62333	158
2.62700	164
2.63067	171
2.63433	172
2.63800	169
2.64167	165
2.64533	164
2.64900	161
2.65267	158
2.65633	159
2.66000	165
2.66367	164
2.66733	165
2.67100	171
2.67467	176
2.67833	175
2.68200	173
2.68567	171
2.68933	171
2.69300	171
2.69667	170
2.70033	170
2.70400	169
2.70767	168
2.71133	173
2.71500	179
2.71867	180
2.72233	178
2.72600	171
2.72967	167
2.73333	164
2.73700	154
2.74067	145
2.74433	137
2.74800	134
2.75167	132
2.75533	137
2.75900	139
2.76267	142
2.76633	147
2.77000	153
2.77367	156
2.77733	153
2.78100	148
2.78467	143
2.78833	140
2.79200	142
2.79567	147
2.79933	163
2.80300	172
2.80667	173
2.81033	172
2.81400	170
2.81767	169
2.82133	166
2.82500	156
2.82867	150
2.83233	151
2.83600	157
2.83967	160
2.84333	161
2.84700	160
2.85067	156
2.85433	156
2.85800	155
2.86167	155
2.86533	151
2.86900	149
2.87267	153
2.87633	162
2.88000	174
2.88367	189
2.88733	195
2.89100	186
2.89467	168
2.89833	153
2.90200	142
2.90567	135
2.90933	128
2.91300	124
2.91667	121
2.92033	121
2.92400	128
2.92767	136
2.93133	143
2.93500	149
2.93867	153
2.94233	146
2.94600	139
2.94967	128
2.95333	120
2.95700	116
2.96067	116
2.96433	124
2.96800	127
2.97167	129
2.97533	132
2.97900	131
2.98267	126
2.98633	122
2.99000	124
2.99367	128
2.99733	131
3.00100	136
3.00467	145
3.00833	152
3.01200	158
3.01567	157
3.01933	150
3.02300	145
3.02667	136
3.03033	133
3.03400	138
3.03767	150
3.04133	155
3.04500	161
3.04867	160
3.05233	155
3.05600	149
3.05967	144
3.06333	142
3.06700	140
3.07067	139
3.07433	141
3.07800	146
3.08167	153
3.08533	157
3.08900	162
3.09267	170
3.09633	174
3.10000	178
3.10367	181
3.10733	182
3.11100	179
3.11467	173
3.11833	164
3.12200	153
3.12567	142
3.12933	135
3.13300	132
3.13667	132
3.14033	130
3.14400	130
3.14767	129
3.15133	126
3.15500	124
3.15867	130
3.16233	136
3.16600	136
3.16967	136
3.17333	137
3.17700	140
3.18067	143
3.18433	144
3.18800	147
3.19167	152
3.19533	153
3.19900	149
3.20267	150
3.20633	154
3.21000	152
3.21367	146
3.21733	141
3.22100	138
3.22467	140
3.22833	139
3.23200	135
3.23567	131
3.23933	126
3.24300	125
3.24667	125
3.25033	125
3.25400	129
3.25767	131
3.26133	136
3.26500	136
3.26867	132
3.27233	126
3.27600	121
3.27967	113
3.28333	108
3.28700	107
3.29067	106
3.29433	109
3.29800	117
3.30167	124
3.30533	128
3.30900	132
3.31267	132
3.31633	127
3.32000	120
3.32367	115
3.32733	112
3.33100	113
3.33467	115
3.33833	117
3.34200	118
3.34567	117
3.34933	115
3.35300	115
3.35667	116
3.36033	118
3.36400	119
3.36767	118
3.37133	119
3.37500	122
3.37867	126
3.38233	126
3.38600	120
3.38967	113
3.39333	109
3.39700	108
3.40067	108
3.40433	107
3.40800	105
3.41167	102
3.41533	103
3.41900	108
3.42267	113
3.42633	117
3.43000	122
3.43367	125
3.43733	129
3.44100	133
3.44467	127
3.44833	113
3.45200	102
3.45567	96
3.45933	95
3.46300	99
3.46667	102
3.47033	104
3.47400	104
3.47767	103
3.48133	102
3.48500	101
3.48867	101
3.49233	99
3.49600	97
3.49967	103
3.50333	109
3.50700	112
3.51067	115
3.51433	117
3.51800	117
3.52167	117
3.52533	120
3.52900	122
3.53267	121
3.53633	121
3.54000	114
3.54367	106
3.54733	102
3.55100	103
3.55467	107
3.55833	109
3.56200	107
3.56567	103
3.56933	104
3.57300	106
3.57667	107
3.58033	101
3.58400	94
3.58767	85
3.59133	76
3.59500	70
3.59867	63
3.60233	62
3.60600	69
3.60967	81
3.61333	93
3.61700	93
3.62067	83
3.62433	79
3.62800	81
3.63167	82
3.63533	83
3.63900	78
3.64267	71
3.64633	66
3.65000	62
3.65367	58
3.65733	56
3.66100	62
3.66467	73
3.66833	87
3.67200	96
3.67567	93
3.67933	85
3.68300	82
3.68667	82
3.69033	85
3.69400	88
3.69767	91
3.70133	95
3.70500	93
3.70867	87
3.71233	81
3.71600	72
3.71967	65
3.72333	65
3.72700	71
3.73067	69
3.73433	64
3.73800	59
3.74167	55
3.74533	54
3.74900	59
3.75267	66
3.75633	65
3.76000	70
3.76367	74
3.76733	70
3.77100	63
3.77467	61
3.77833	63
3.78200	70
3.78567	76
3.78933	81
3.79300	82
3.79667	83
3.80033	80
3.80400	71
3.80767	63
3.81133	58
3.81500	49
3.81867	46
3.82233	49
3.82600	50
3.82967	55
3.83333	60
3.83700	60
3.84067	54
3.84433	47
3.84800	46
3.85167	51
3.85533	59
3.85900	65
3.86267	67
3.86633	67
3.87000	61
3.87367	53
3.87733	53
3.88100	56
3.88467	54
3.88833	52
3.89200	49
3.89567	54
3.89933	61
3.90300	66
3.90667	68
3.91033	64
3.91400	59
3.91767	51
3.92133	39
3.92500	31
3.92867	27
3.93233	27
3.93600	31
3.93967	39
3.94333	52
3.94700	68
3.95067	80
3.95433	90
3.95800	92
3.96167	89
3.96533	81
3.96900	69
3.97267	55
3.97633	43
3.98000	34
3.98367	30
3.98733	27
3.99100	25
3.99467	25
3.99833	27

[Chromatogram (Ch2)]
Interval(msec)	220
# of Points	1091
Start Time(min)	0.002
End Time(min)	3.998
R.Time (min)	Intensity
0.00167	1
0.00533	2
0.00900	3
0.01267	3
0.01633	3
0.02000	3
0.02367	3
0.02733	3
0.03100	3
0.03467	3
0.03833	3
0.04200	3
0.04567	3
0.04933	3
0.05300	3
0.05667	4
0.06033	4
0.06400	4
0.06767	4
0.07133	4
0.07500	4
0.07867	4
0.08233	4
0.08600	4
0.08967	5
0.09333	5
0.09700	4
0.10067	4
0.10433	4
0.10800	4
0.11167	3
0.11533	3
0.11900	2
0.12267	2
0.12633	2
0.13000	2
0.13367	2
0.13733	2
0.14100	2
0.14467	2
0.14833	2
0.15200	2
0.15567	2
0.15933	3
0.16300	3
0.16667	3
0.17033	3
0.17400	3
0.17767	4
0.18133	4
0.18500	4
0.18867	3
0.19233	3
0.19600	2
0.19967	2
0.20333	2
0.20700	1
0.21067	1
0.21433	1
0.21800	1
0.22167	1
0.22533	1
0.22900	1
0.23267	1
0.23633	1
0.24000	1
0.24367	1
0.24733	1
0.25100	1
0.25467	1
0.25833	0
0.26200	0
0.26567	0
0.26933	0
0.27300	1
0.27667	1
0.28033	1
0.28400	1
0.28767	1
0.29133	2
0.29500	2
0.29867	2
0.30233	2
0.30600	2
0.30967	2
0.31333	2
0.31700	1
0.32067	1
0.32433	1
0.32800	1
0.33167	0
0.33533	-0
0.33900	-0
0.34267	-1
0.34633	-1
0.35000	-1
0.35367	-2
0.35733	-2
0.36100	-1
0.36467	-1
0.36833	-1
0.37200	-1
0.37567	-0
0.37933	0
0.38300	1
0.38667	1
0.39033	1
0.39400	2
0.39767	2
0.40133	2
0.40500	3
0.40867	3
0.41233	3
0.41600	4
0.41967	4
0.42333	4
0.42700	5
0.43067	5
0.43433	5
0.43800	5
0.44167	5
0.44533	4
0.44900	4
0.45267	4
0.45633	3
0.46000	3
0.46367	2
0.46733	1
0.47100	1
0.47467	0
0.47833	-0
0.48200	-0
0.48567	-1
0.48933	-1
0.49300	-1
0.49667	-1
0.50033	-1
0.50400	-1
0.50767	-1
0.51133	-0
0.51500	-0
0.51867	-0
0.52233	0
0.52600	0
0.52967	1
0.53333	1
0.53700	1
0.54067	2
0.54433	2
0.54800	2
0.55167	2
0.55533	2
0.55900	2
0.56267	2
0.56633	2
0.57000	2
0.57367	2
0.57733	2
0.58100	2
0.58467	1
0.58833	1
0.59200	1
0.59567	1
0.59933	1
0.60300	1
0.60667	0
0.61033	0
0.61400	0
0.61767	-0
0.62133	-0
0.62500	-1
0.62867	-1
0.63233	-1
0.63600	-1
0.63967	-1
0.64333	-1
0.64700	-1
0.65067	-0
0.65433	-0
0.65800	0
0.66167	1
0.66533	1
0.66900	1
0.67267	1
0.67633	1
0.68000	1
0.68367	1
0.68733	1
0.69100	1
0.69467	1
0.69833	1
0.70200	0
0.70567	0
0.70933	0
0.71300	0
0.71667	0
0.72033	-0
0.72400	-0
0.72767	-0
0.73133	-1
0.73500	-1
0.73867	-1
0.74233	-1
0.74600	-1
0.74967	-1
0.75333	-1
0.75700	-1
0.76067	-2
0.76433	-2
0.76800	-2
0.77167	-2
0.77533	-2
0.77900	-2
0.78267	-2
0.78633	-1
0.79000	-1
0.79367	-1
0.79733	-1
0.80100	-1
0.80467	-2
0.80833	-2
0.81200	-2
0.81567	-2
0.81933	-2
0.82300	-2
0.82667	-2
0.83033	-2
0.83400	-2
0.83767	-1
0.84133	-1
0.84500	-1
0.84867	-1
0.85233	-1
0.85600	-1
0.85967	-1
0.86333	-1
0.86700	-0
0.87067	-0
0.87433	0
0.87800	1
0.88167	1
0.88533	1
0.88900	2
0.89267	2
0.89633	2
0.90000	2
0.90367	2
0.90733	3
0.91100	3
0.91467	3
0.91833	2
0.92200	2
0.92567	2
0.92933	2
0.93300	2
0.93667	3
0.94033	3
0.94400	3
0.94767	3
0.95133	3
0.95500	2
0.95867	3
0.96233	3
0.96600	3
0.96967	2
0.97333	2
0.97700	2
0.98067	1
0.98433	1
0.98800	0
0.99167	-0
0.99533	-1
0.99900	-1
1.00267	-2
1.00633	-2
1.01000	-3
1.01367	-3
1.01733	-3
1.02100	-3
1.02467	-3
1.02833	-3
1.03200	-3
1.03567	-3
1.03933	-3
1.04300	-3
1.04667	-3
1.05033	-3
1.05400	-2
1.05767	-2
1.06133	-2
1.06500	-1
1.06867	-1
1.07233	-1
1.07600	-1
1.07967	-0
1.08333	0
1.08700	1
1.09067	1
1.09433	2
1.09800	2
1.10167	2
1.10533	2
1.10900	3
1.11267	3
1.11633	3
1.12000	3
1.12367	2
1.12733	2
1.13100	2
1.13467	2
1.13833	2
1.14200	2
1.14567	2
1.14933	2
1.15300	2
1.15667	2
1.16033	2
1.16400	1
1.16767	1
1.17133	1
1.17500	1
1.17867	1
1.18233	1
1.18600	1
1.18967	1
1.19333	1
1.19700	1
1.20067	1
1.20433	1
1.20800	2
1.21167	2
1.21533	2
1.21900	2
1.22267	2
1.22633	2
1.23000	1
1.23367	1
1.23733	1
1.24100	1
1.24467	1
1.24833	0
1.25200	0
1.25567	1
1.25933	0
1.26300	0
1.26667	0
1.27033	-0
1.27400	-1
1.27767	-1
1.28133	-1
1.28500	-1
1.28867	-1
1.29233	-2
1.29600	-2
1.29967	-2
1.30333	-1
1.30700	-1
1.31067	-1
1.31433	-1
1.31800	-1
1.32167	-1
1.32533	-1
1.32900	-1
1.33267	-1
1.33633	-1
1.34000	-1
1.34367	-1
1.34733	-1
1.35100	-1
1.35467	-2
1.35833	-2
1.36200	-2
1.36567	-2
1.36933	-1
1.37300	-1
1.37667	-1
1.38033	-1
1.38400	-0
1.38767	-0
1.39133	-0
1.39500	-0
1.39867	-0
1.40233	-1
1.40600	-1
1.40967	-1
1.41333	-1
1.41700	-1
1.42067	-1
1.42433	-1
1.42800	-1
1.43167	-1
1.43533	-1
1.43900	-1
1.44267	-1
1.44633	-1
1.45000	-1
1.45367	-1
1.45733	-1
1.46100	-1
1.46467	-1
1.46833	-1
1.47200	-1
1.47567	-1
1.47933	-1
1.48300	-1
1.48667	-2
1.49033	-2
1.49400	-2
1.49767	-2
1.50133	-2
1.50500	-3
1.50867	-3
1.51233	-2
1.51600	-2
1.51967	-2
1.52333	-1
1.52700	-1
1.53067	-1
1.53433	-1
1.53800	-0
1.54167	-0
1.54533	-0
1.54900	0
1.55267	1
1.55633	1
1.56000	1
1.56367	2
1.56733	2
1.57100	2
1.57467	2
1.57833	2
1.58200	2
1.58567	2
1.58933	2
1.59300	1
1.59667	0
1.60033	-1
1.60400	-2
1.60767	-4
1.61133	-6
1.61500	-8
1.61867	-11
1.62233	-13
1.62600	-16
1.62967	-20
1.63333	-23
1.63700	-26
1.64067	-30
1.64433	-33
1.64800	-37
1.65167	-40
1.65533	-44
1.65900	-48
1.66267	-52
1.66633	-55
1.67000	-59
1.67367	-64
1.67733	-68
1.68100	-72
1.68467	-77
1.68833	-81
1.69200	-86
1.69567	-90
1.69933	-94
1.70300	-97
1.70667	-100
1.71033	-102
1.71400	-103
1.71767	-104
1.72133	-105
1.72500	-105
1.72867	-105
1.73233	-105
1.73600	-105
1.73967	-105
1.74333	-104
1.74700	-104
1.75067	-104
1.75433	-103
1.75800	-103
1.76167	-103
1.76533	-103
1.76900	-104
1.77267	-105
1.77633	-106
1.78000	-107
1.78367	-109
1.78733	-110
1.79100	-111
1.79467	-112
1.79833	-112
1.80200	-112
1.80567	-112
1.80933	-112
1.81300	-111
1.81667	-111
1.82033	-110
1.82400	-111
1.82767	-111
1.83133	-111
1.83500	-112
1.83867	-112
1.84233	-113
1.84600	-114
1.84967	-114
1.85333	-114
1.85700	-115
1.86067	-115
1.86433	-115
1.86800	-114
1.87167	-114
1.87533	-114
1.87900	-113
1.88267	-113
1.88633	-113
1.89000	-113
1.89367	-113
1.89733	-112
1.90100	-112
1.90467	-111
1.90833	-111
1.91200	-110
1.91567	-110
1.91933	-109
1.92300	-109
1.92667	-109
1.93033	-109
1.93400	-108
1.93767	-108
1.94133	-108
1.94500	-108
1.94867	-108
1.95233	-107
1.95600	-108
1.95967	-108
1.96333	-107
1.96700	-107
1.97067	-107
1.97433	-107
1.97800	-107
1.98167	-107
1.98533	-107
1.98900	-107
1.99267	-106
1.99633	-106
2.00000	-105
2.00367	-105
2.00733	-104
2.01100	-104
2.01467	-104
2.01833	-104
2.02200	-104
2.02567	-104
2.02933	-104
2.03300	-103
2.03667	-102
2.04033	-102
2.04400	-101
2.04767	-101
2.05133	-100
2.05500	-100
2.05867	-100
2.06233	-100
2.06600	-100
2.06967	-100
2.07333	-100
2.07700	-99
2.08067	-99
2.08433	-99
2.08800	-98
2.09167	-98
2.09533	-97
2.09900	-96
2.10267	-96
2.10633	-95
2.11000	-95
2.11367	-95
2.11733	-95
2.12100	-95
2.12467	-95
2.12833	-95
2.13200	-95
2.13567	-95
2.13933	-95
2.14300	-95
2.14667	-94
2.15033	-93
2.15400	-93
2.15767	-92
2.16133	-92
2.16500	-92
2.16867	-92
2.17233	-92
2.17600	-92
2.17967	-92
2.18333	-92
2.18700	-91
2.19067	-90
2.19433	-89
2.19800	-88
2.20167	-87
2.20533	-87
2.20900	-86
2.21267	-86
2.21633	-86
2.22000	-86
2.22367	-87
2.22733	-87
2.23100	-87
2.23467	-87
2.23833	-88
2.24200	-88
2.24567	-88
2.24933	-88
2.25300	-88
2.25667	-87
2.26033	-87
2.26400	-86
2.26767	-85
2.27133	-85
2.27500	-84
2.27867	-83
2.28233	-83
2.28600	-82
2.28967	-81
2.29333	-81
2.29700	-80
2.30067	-79
2.30433	-79
2.30800	-79
2.31167	-79
2.31533	-78
2.31900	-78
2.32267	-77
2.32633	-77
2.33000	-77
2.33367	-77
2.33733	-77
2.34100	-77
2.34467	-76
2.34833	-76
2.35200	-75
2.35567	-74
2.35933	-74
2.36300	-74
2.36667	-73
2.37033	-71
2.37400	-69
2.37767	-65
2.38133	-62
2.38500	-58
2.38867	-54
2.39233	-50
2.39600	-45
2.39967	-40
2.40333	-35
2.40700	-31
2.41067	-27
2.41433	-23
2.41800	-20
2.42167	-18
2.42533	-15
2.42900	-13
2.43267	-12
2.43633	-10
2.44000	-8
2.44367	-7
2.44733	-6
2.45100	-5
2.45467	-4
2.45833	-3
2.46200	-2
2.46567	-1
2.46933	-0
2.47300	0
2.47667	1
2.48033	2
2.48400	3
2.48767	4
2.49133	5
2.49500	6
2.49867	7
2.50233	7
2.50600	8
2.50967	9
2.51333	9
2.51700	10
2.52067	10
2.52433	10
2.52800	11
2.53167	11
2.53533	12
2.53900	12
2.54267	13
2.54633	13
2.55000	14
2.55367	14
2.55733	15
2.56100	15
2.56467	15
2.56833	15
2.57200	15
2.57567	15
2.57933	15
2.58300	15
2.58667	15
2.59033	15
2.59400	15
2.59767	16
2.60133	16
2.60500	16
2.60867	17
2.61233	18
2.61600	18
2.61967	18
2.62333	19
2.62700	19
2.63067	20
2.63433	20
2.63800	20
2.64167	20
2.64533	20
2.64900	20
2.65267	20
2.65633	20
2.66000	20
2.66367	20
2.66733	20
2.67100	21
2.67467	21
2.67833	21
2.68200	21
2.68567	21
2.68933	21
2.69300	21
2.69667	21
2.70033	21
2.70400	21
2.70767	21
2.71133	22
2.71500	23
2.71867	23
2.72233	24
2.72600	25
2.72967	25
2.73333	25
2.73700	25
2.74067	25
2.74433	25
2.74800	24
2.75167	23
2.75533	23
2.75900	23
2.76267	23
2.76633	23
2.77000	24
2.77367	24
2.77733	24
2.78100	25
2.78467	25
2.78833	25
2.79200	26
2.79567	26
2.79933	26
2.80300	27
2.80667	27
2.81033	27
2.81400	26
2.81767	26
2.82133	26
2.82500	27
2.82867	27
2.83233	27
2.83600	27
2.83967	26
2.84333	25
2.84700	23
2.85067	18
2.85433	11
2.85800	0
2.86167	-14
2.86533	-33
2.86900	-57
2.87267	-87
2.87633	-122
2.88000	-163
2.88367	-209
2.88733	-260
2.89100	-317
2.89467	-378
2.89833	-444
2.90200	-514
2.90567	-587
2.90933	-664
2.91300	-743
2.91667	-826
2.92033	-911
2.92400	-999
2.92767	-1088
2.93133	-1179
2.93500	-1272
2.93867	-1366
2.94233	-1453
2.94600	-1521
2.94967	-1558
2.95333	-1558
2.95700	-1522
2.96067	-1455
2.96433	-1367
2.96800	-1263
2.97167	-1152
2.97533	-1039
2.97900	-928
2.98267	-823
2.98633	-724
2.99000	-634
2.99367	-552
2.99733	-479
3.00100	-413
3.00467	-356
3.00833	-306
3.01200	-262
3.01567	-224
3.01933	-191
3.02300	-163
3.02667	-138
3.03033	-118
3.03400	-100
3.03767	-84
3.04133	-71
3.04500	-60
3.04867	-50
3.05233	-42
3.05600	-35
3.05967	-29
3.06333	-23
3.06700	-18
3.07067	-14
3.07433	-10
3.07800	-7
3.08167	-4
3.08533	-2
3.08900	-0
3.09267	2
3.09633	3
3.10000	5
3.10367	6
3.10733	7
3.11100	8
3.11467	9
3.11833	9
3.12200	10
3.12567	10
3.12933	10
3.13300	11
3.13667	11
3.14033	11
3.14400	11
3.14767	12
3.15133	12
3.15500	12
3.15867	12
3.16233	12
3.16600	13
3.16967	13
3.17333	13
3.17700	14
3.18067	14
3.18433	14
3.18800	15
3.19167	15
3.19533	16
3.19900	16
3.20267	17
3.20633	18
3.21000	19
3.21367	20
3.21733	21
3.22100	21
3.22467	22
3.22833	22
3.23200	22
3.23567	23
3.23933	23
3.24300	23
3.24667	23
3.25033	24
3.25400	24
3.25767	24
3.26133	25
3.26500	25
3.26867	26
3.27233	26
3.27600	27
3.27967	27
3.28333	27
3.28700	27
3.29067	27
3.29433	27
3.29800	27
3.30167	27
3.30533	27
3.30900	27
3.31267	26
3.31633	26
3.32000	26
3.32367	26
3.32733	26
3.33100	26
3.33467	26
3.33833	27
3.34200	27
3.34567	27
3.34933	27
3.35300	27
3.35667	27
3.36033	27
3.36400	27
3.36767	27
3.37133	27
3.37500	27
3.37867	27
3.38233	27
3.38600	27
3.38967	27
3.39333	27
3.39700	27
3.40067	27
3.40433	27
3.40800	27
3.41167	26
3.41533	26
3.41900	26
3.42267	25
3.42633	25
3.43000	25
3.43367	25
3.43733	25
3.44100	25
3.44467	25
3.44833	25
3.45200	25
3.45567	25
3.45933	24
3.46300	24
3.46667	24
3.47033	24
3.47400	24
3.47767	24
3.48133	24
3.48500	25
3.48867	25
3.49233	25
3.49600	25
3.49967	25
3.50333	26
3.50700	26
3.51067	26
3.51433	26
3.51800	26
3.52167	27
3.52533	27
3.52900	26
3.53267	26
3.53633	26
3.54000	26
3.54367	26
3.54733	26
3.55100	26
3.55467	26
3.55833	26
3.56200	26
3.56567	26
3.56933	26
3.57300	26
3.57667	25
3.58033	25
3.58400	25
3.58767	25
3.59133	25
3.59500	24
3.59867	24
3.60233	24
3.60600	24
3.60967	24
3.61333	24
3.61700	24
3.62067	24
3.62433	24
3.62800	24
3.63167	24
3.63533	24
3.63900	24
3.64267	24
3.64633	24
3.65000	24
3.65367	24
3.65733	24
3.66100	24
3.66467	24
3.66833	24
3.67200	24
3.67567	24
3.67933	24
3.68300	24
3.68667	24
3.69033	25
3.69400	25
3.69767	25
3.70133	25
3.70500	25
3.70867	26
3.71233	26
3.71600	26
3.71967	27
3.72333	27
3.72700	27
3.73067	27
3.73433	27
3.73800	28
3.74167	28
3.74533	28
3.74900	28
3.75267	28
3.75633	28
3.76000	28
3.76367	27
3.76733	27
3.77100	27
3.77467	27
3.77833	27
3.78200	27
3.78567	26
3.78933	26
3.79300	26
3.79667	26
3.80033	26
3.80400	26
3.80767	26
3.81133	26
3.81500	26
3.81867	26
3.82233	25
3.82600	25
3.82967	25
3.83333	25
3.83700	25
3.84067	25
3.84433	25
3.84800	25
3.85167	25
3.85533	25
3.85900	25
3.86267	25
3.86633	25
3.87000	25
3.87367	24
3.87733	24
3.88100	24
3.88467	25
3.88833	25
3.89200	25
3.89567	25
3.89933	26
3.90300	26
3.90667	26
3.91033	26
3.91400	26
3.91767	26
3.92133	25
3.92500	25
3.92867	25
3.93233	25
3.93600	25
3.93967	25
3.94333	25
3.94700	26
3.95067	26
3.95433	25
3.95800	25
3.96167	26
3.96533	26
3.96900	26
3.97267	26
3.97633	26
3.98000	26
3.98367	26
3.98733	26
3.99100	26
3.99467	26
3.99833	26

[Chromatogram (Ch3)]
Interval(msec)	220
# of Points	1091
Start Time(min)	0.002
End Time(min)	3.998
R.Time (min)	Intensity
0.00167	1
0.00533	2
0.00900	1
0.01267	-0
0.01633	-0
0.02000	-1
0.02367	-1
0.02733	-2
0.03100	-2
0.03467	-0
0.03833	2
0.04200	2
0.04567	3
0.04933	4
0.05300	5
0.05667	4
0.06033	3
0.06400	3
0.06767	3
0.07133	3
0.07500	2
0.07867	2
0.08233	0
0.08600	1
0.08967	1
0.09333	0
0.09700	1
0.10067	2
0.10433	2
0.10800	3
0.11167	4
0.11533	5
0.11900	7
0.12267	7
0.12633	6
0.13000	4
0.13367	3
0.13733	3
0.14100	1
0.14467	-1
0.14833	-1
0.15200	-2
0.15567	-3
0.15933	-3
0.16300	-3
0.16667	-2
0.17033	1
0.17400	3
0.17767	3
0.18133	3
0.18500	4
0.18867	6
0.19233	6
0.19600	6
0.19967	5
0.20333	4
0.20700	2
0.21067	2
0.21433	3
0.21800	4
0.22167	2
0.22533	-0
0.22900	-1
0.23267	-0
0.23633	-1
0.24000	-0
0.24367	2
0.24733	5
0.25100	7
0.25467	7
0.25833	5
0.26200	5
0.26567	5
0.26933	5
0.27300	4
0.27667	2
0.28033	1
0.28400	1
0.28767	1
0.29133	2
0.29500	4
0.29867	4
0.30233	2
0.30600	2
0.30967	2
0.31333	3
0.31700	4
0.32067	3
0.32433	2
0.32800	2
0.33167	1
0.33533	1
0.33900	1
0.34267	1
0.34633	-1
0.35000	-0
0.35367	3
0.35733	4
0.36100	4
0.36467	6
0.36833	7
0.37200	6
0.37567	3
0.37933	3
0.38300	3
0.38667	2
0.39033	2
0.39400	3
0.39767	4
0.40133	4
0.40500	4
0.40867	3
0.41233	2
0.41600	-0
0.41967	-1
0.42333	-1
0.42700	-2
0.43067	-1
0.43433	0
0.43800	1
0.44167	2
0.44533	2
0.44900	2
0.45267	1
0.45633	-1
0.46000	-0
0.46367	1
0.46733	2
0.47100	4
0.47467	5
0.47833	6
0.48200	8
0.48567	7
0.48933	6
0.49300	4
0.49667	4
0.50033	5
0.50400	7
0.50767	9
0.51133	9
0.51500	6
0.51867	3
0.52233	3
0.52600	4
0.52967	5
0.53333	5
0.53700	6
0.54067	5
0.54433	4
0.54800	2
0.55167	1
0.55533	1
0.55900	3
0.56267	5
0.56633	7
0.57000	6
0.57367	6
0.57733	3
0.58100	0
0.58467	1
0.58833	4
0.59200	5
0.59567	4
0.59933	5
0.60300	5
0.60667	4
0.61033	1
0.61400	-1
0.61767	-1
0.62133	-1
0.62500	1
0.62867	3
0.63233	6
0.63600	5
0.63967	4
0.64333	2
0.64700	1
0.65067	-0
0.65433	0
0.65800	3
0.66167	5
0.66533	7
0.66900	8
0.67267	9
0.67633	7
0.68000	7
0.68367	6
0.68733	5
0.69100	5
0.69467	7
0.69833	10
0.70200	10
0.70567	10
0.70933	8
0.71300	6
0.71667	7
0.72033	10
0.72400	12
0.72767	11
0.73133	10
0.73500	7
0.73867	6
0.74233	5
0.74600	5
0.74967	6
0.75333	7
0.75700	7
0.76067	8
0.76433	10
0.76800	11
0.77167	11
0.77533	12
0.77900	13
0.78267	11
0.78633	10
0.79000	11
0.79367	12
0.79733	13
0.80100	13
0.80467	13
0.80833	15
0.81200	15
0.81567	13
0.81933	14
0.82300	13
0.82667	10
0.83033	12
0.83400	13
0.83767	14
0.84133	14
0.84500	15
0.84867	15
0.85233	14
0.85600	12
0.85967	12
0.86333	13
0.86700	12
0.87067	12
0.87433	13
0.87800	12
0.88167	12
0.88533	12
0.88900	12
0.89267	12
0.89633	15
0.90000	17
0.90367	19
0.90733	19
0.91100	17
0.91467	16
0.91833	15
0.92200	13
0.92567	11
0.92933	9
0.93300	11
0.93667	14
0.94033	17
0.94400	18
0.94767	18
0.95133	18
0.95500	18
0.95867	20
0.96233	20
0.96600	21
0.96967	21
0.97333	20
0.97700	17
0.98067	13
0.98433	11
0.98800	11
0.99167	12
0.99533	14
0.99900	14
1.00267	14
1.00633	12
1.01000	13
1.01367	15
1.01733	15
1.02100	16
1.02467	18
1.02833	17
1.03200	15
1.03567	16
1.03933	16
1.04300	17
1.04667	16
1.05033	16
1.05400	17
1.05767	18
1.06133	18
1.06500	17
1.06867	16
1.07233	15
1.07600	14
1.07967	15
1.08333	16
1.08700	16
1.09067	17
1.09433	19
1.09800	20
1.10167	19
1.10533	18
1.10900	17
1.11267	18
1.11633	20
1.12000	20
1.12367	22
1.12733	22
1.13100	20
1.13467	21
1.13833	20
1.14200	21
1.14567	22
1.14933	24
1.15300	24
1.15667	21
1.16033	20
1.16400	18
1.16767	15
1.17133	15
1.17500	17
1.17867	20
1.18233	20
1.18600	19
1.18967	20
1.19333	18
1.19700	17
1.20067	16
1.20433	17
1.20800	18
1.21167	19
1.21533	22
1.21900	25
1.22267	26
1.22633	25
1.23000	23
1.23367	21
1.23733	19
1.24100	17
1.24467	16
1.24833	18
1.25200	20
1.25567	22
1.25933	22
1.26300	20
1.26667	18
1.27033	18
1.27400	19
1.27767	20
1.28133	20
1.28500	22
1.28867	22
1.29233	22
1.29600	21
1.29967	22
1.30333	24
1.30700	26
1.31067	27
1.31433	28
1.31800	27
1.32167	24
1.32533	24
1.32900	25
1.33267	23
1.33633	22
1.34000	21
1.34367	22
1.34733	22
1.35100	20
1.35467	19
1.35833	21
1.36200	24
1.36567	26
1.36933	29
1.37300	29
1.37667	28
1.38033	27
1.38400	24
1.38767	24
1.39133	23
1.39500	23
1.39867	24
1.40233	24
1.40600	23
1.40967	25
1.41333	27
1.41700	25
1.42067	23
1.42433	22
1.42800	22
1.43167	24
1.43533	24
1.43900	22
1.44267	22
1.44633	23
1.45000	23
1.45367	24
1.45733	25
1.46100	25
1.46467	26
1.46833	27
1.47200	26
1.47567	25
1.47933	25
1.48300	25
1.48667	27
1.49033	27
1.49400	26
1.49767	25
1.50133	26
1.50500	26
1.50867	26
1.51233	28
1.51600	28
1.51967	30
1.52333	31
1.52700	31
1.53067	29
1.53433	28
1.53800	27
1.54167	27
1.54533	28
1.54900	29
1.55267	29
1.55633	30
1.56000	31
1.56367	30
1.56733	26
1.57100	23
1.57467	22
1.57833	22
1.58200	24
1.58567	26
1.58933	27
1.59300	28
1.59667	28
1.60033	27
1.60400	26
1.60767	27
1.61133	27
1.61500	26
1.61867	28
1.62233	30
1.62600	30
1.62967	30
1.63333	31
1.63700	31
1.64067	31
1.64433	30
1.64800	30
1.65167	32
1.65533	33
1.65900	33
1.66267	35
1.66633	35
1.67000	34
1.67367	36
1.67733	38
1.68100	41
1.68467	43
1.68833	44
1.69200	45
1.69567	45
1.69933	45
1.70300	45
1.70667	45
1.71033	43
1.71400	41
1.71767	40
1.72133	40
1.72500	41
1.72867	42
1.73233	43
1.73600	45
1.73967	45
1.74333	46
1.74700	48
1.75067	49
1.75433	48
1.75800	48
1.76167	49
1.76533	48
1.76900	46
1.77267	46
1.77633	47
1.78000	48
1.78367	49
1.78733	48
1.79100	49
1.79467	51
1.79833	53
1.80200	53
1.80567	52
1.80933	54
1.81300	55
1.81667	56
1.82033	55
1.82400	54
1.82767	53
1.83133	54
1.83500	54
1.83867	55
1.84233	56
1.84600	58
1.84967	57
1.85333	57
1.85700	58
1.86067	59
1.86433	62
1.86800	63
1.87167	63
1.87533	61
1.87900	60
1.88267	59
1.88633	60
1.89000	62
1.89367	63
1.89733	65
1.90100	66
1.90467	68
1.90833	69
1.91200	72
1.91567	76
1.91933	77
1.92300	74
1.92667	70
1.93033	68
1.93400	67
1.93767	69
1.94133	71
1.94500	72
1.94867	76
1.95233	78
1.95600	78
1.95967	78
1.96333	77
1.96700	79
1.97067	83
1.97433	84
1.97800	85
1.98167	87
1.98533	90
1.98900	93
1.99267	96
1.99633	97
2.00000	96
2.00367	96
2.00733	97
2.01100	98
2.01467	97
2.01833	96
2.02200	95
2.02567	95
2.02933	96
2.03300	98
2.03667	101
2.04033	103
2.04400	106
2.04767	108
2.05133	109
2.05500	111
2.05867	113
2.06233	114
2.06600	117
2.06967	119
2.07333	121
2.07700	121
2.08067	121
2.08433	121
2.08800	120
2.09167	119
2.09533	121
2.09900	123
2.10267	126
2.10633	128
2.11000	130
2.11367	130
2.11733	132
2.12100	134
2.12467	136
2.12833	139
2.13200	139
2.13567	139
2.13933	138
2.14300	138
2.14667	141
2.15033	144
2.15400	143
2.15767	144
2.16133	146
2.16500	148
2.16867	150
2.17233	151
2.17600	151
2.17967	152
2.18333	154
2.18700	155
2.19067	157
2.19433	160
2.19800	162
2.20167	162
2.20533	163
2.20900	163
2.21267	163
2.21633	164
2.22000	167
2.22367	171
2.22733	174
2.23100	176
2.23467	176
2.23833	178
2.24200	180
2.24567	182
2.24933	184
2.25300	183
2.25667	184
2.26033	186
2.26400	187
2.26767	187
2.27133	185
2.27500	184
2.27867	183
2.28233	183
2.28600	185
2.28967	187
2.29333	189
2.29700	188
2.30067	187
2.30433	187
2.30800	189
2.31167	194
2.31533	199
2.31900	202
2.32267	202
2.32633	201
2.33000	199
2.33367	198
2.33733	199
2.34100	202
2.34467	204
2.34833	206
2.35200	208
2.35567	209
2.35933	210
2.36300	212
2.36667	212
2.37033	212
2.37400	211
2.37767	211
2.38133	212
2.38500	214
2.38867	216
2.39233	215
2.39600	217
2.39967	221
2.40333	225
2.40700	227
2.41067	228
2.41433	229
2.41800	230
2.42167	232
2.42533	234
2.42900	235
2.43267	237
2.43633	239
2.44000	242
2.44367	292
2.44733	424
2.45100	565
2.45467	678
2.45833	740
2.46200	742
2.46567	708
2.46933	672
2.47300	644
2.47667	626
2.48033	609
2.48400	582
2.48767	543
2.49133	502
2.49500	462
2.49867	428
2.50233	401
2.50600	384
2.50967	378
2.51333	383
2.51700	398
2.52067	418
2.52433	437
2.52800	450
2.53167	450
2.53533	437
2.53900	416
2.54267	386
2.54633	355
2.55000	327
2.55367	302
2.55733	284
2.56100	270
2.56467	260
2.56833	251
2.57200	247
2.57567	244
2.57933	241
2.58300	242
2.58667	242
2.59033	242
2.59400	241
2.59767	239
2.60133	239
2.60500	239
2.60867	236
2.61233	233
2.61600	226
2.61967	218
2.62333	208
2.62700	200
2.63067	191
2.63433	182
2.63800	173
2.64167	163
2.64533	154
2.64900	145
2.65267	135
2.65633	124
2.66000	113
2.66367	103
2.66733	92
2.67100	83
2.67467	76
2.67833	72
2.68200	69
2.68567	67
2.68933	66
2.69300	65
2.69667	65
2.70033	65
2.70400	64
2.70767	65
2.71133	67
2.71500	70
2.71867	72
2.72233	73
2.72600	76
2.72967	80
2.73333	85
2.73700	89
2.74067	91
2.74433	93
2.74800	94
2.75167	97
2.75533	100
2.75900	102
2.76267	104
2.76633	108
2.77000	113
2.77367	116
2.77733	119
2.78100	122
2.78467	126
2.78833	129
2.79200	131
2.79567	132
2.79933	135
2.80300	137
2.80667	142
2.81033	148
2.81400	156
2.81767	169
2.82133	194
2.82500	250
2.82867	373
2.83233	613
2.83600	1031
2.83967	1694
2.84333	2646
2.84700	3897
2.85067	5415
2.85433	7120
2.85800	8904
2.86167	10643
2.86533	12201
2.86900	13460
2.87267	14335
2.87633	14790
2.88000	14832
2.88367	14509
2.88733	13900
2.89100	13085
2.89467	12132
2.89833	11117
2.90200	10086
2.90567	9083
2.90933	8131
2.91300	7239
2.91667	6417
2.92033	5669
2.92400	5000
2.92767	4400
2.93133	3864
2.93500	3390
2.93867	2975
2.94233	2609
2.94600	2286
2.94967	2003
2.95333	1756
2.95700	1539
2.96067	1351
2.96433	1188
2.96800	1046
2.97167	923
2.97533	816
2.97900	723
2.98267	641
2.98633	570
2.99000	509
2.99367	459
2.99733	416
3.00100	380
3.00467	349
3.00833	319
3.01200	293
3.01567	273
3.01933	255
3.02300	239
3.02667	224
3.03033	213
3.03400	203
3.03767	195
3.04133	189
3.04500	185
3.04867	178
3.05233	171
3.05600	167
3.05967	162
3.06333	157
3.06700	154
3.07067	151
3.07433	148
3.07800	147
3.08167	145
3.08533	143
3.08900	142
3.09267	143
3.09633	143
3.10000	144
3.10367	143
3.10733	142
3.11100	141
3.11467	142
3.11833	142
3.12200	143
3.12567	144
3.12933	146
3.13300	148
3.13667	147
3.14033	146
3.14400	145
3.14767	141
3.15133	118
3.15500	92
3.15867	87
3.16233	102
3.16600	134
3.16967	175
3.17333	220
3.17700	266
3.18067	312
3.18433	351
3.18800	385
3.19167	420
3.19533	452
3.19900	477
3.20267	500
3.20633	518
3.21000	534
3.21367	551
3.21733	566
3.22100	579
3.22467	590
3.22833	601
3.23200	612
3.23567	623
3.23933	632
3.24300	639
3.24667	648
3.25033	654
3.25400	659
3.25767	666
3.26133	672
3.26500	679
3.26867	687
3.27233	693
3.27600	698
3.27967	705
3.28333	711
3.28700	715
3.29067	718
3.29433	722
3.29800	726
3.30167	728
3.30533	730
3.30900	734
3.31267	738
3.31633	742
3.32000	742
3.32367	743
3.32733	746
3.33100	749
3.33467	751
3.33833	754
3.34200	756
3.34567	756
3.34933	757
3.35300	757
3.35667	757
3.36033	757
3.36400	756
3.36767	753
3.37133	751
3.37500	753
3.37867	755
3.38233	755
3.38600	754
3.38967	753
3.39333	749
3.39700	748
3.40067	747
3.40433	745
3.40800	746
3.41167	746
3.41533	746
3.41900	745
3.42267	743
3.42633	739
3.43000	734
3.43367	728
3.43733	724
3.44100	723
3.44467	724
3.44833	725
3.45200	726
3.45567	727
3.45933	727
3.46300	724
3.46667	722
3.47033	721
3.47400	720
3.47767	718
3.48133	716
3.48500	714
3.48867	711
3.49233	709
3.49600	707
3.49967	706
3.50333	703
3.50700	700
3.51067	697
3.51433	696
3.51800	697
3.52167	700
3.52533	700
3.52900	699
3.53267	697
3.53633	697
3.54000	697
3.54367	698
3.54733	699
3.55100	698
3.55467	695
3.55833	692
3.56200	690
3.56567	690
3.56933	692
3.57300	693
3.57667	692
3.58033	692
3.58400	692
3.58767	692
3.59133	691
3.59500	691
3.59867	691
3.60233	690
3.60600	689
3.60967	689
3.61333	688
3.61700	687
3.62067	688
3.62433	688
3.62800	686
3.63167	685
3.63533	684
3.63900	681
3.64267	680
3.64633	679
3.65000	678
3.65367	677
3.65733	676
3.66100	673
3.66467	671
3.66833	670
3.67200	669
3.67567	667
3.67933	667
3.68300	663
3.68667	660
3.69033	659
3.69400	658
3.69767	659
3.70133	660
3.70500	659
3.70867	657
3.71233	655
3.71600	655
3.71967	654
3.72333	651
3.72700	649
3.73067	648
3.73433	645
3.73800	642
3.74167	640
3.74533	639
3.74900	638
3.75267	636
3.75633	636
3.76000	633
3.76367	630
3.76733	627
3.77100	625
3.77467	623
3.77833	624
3.78200	623
3.78567	622
3.78933	619
3.79300	616
3.79667	614
3.80033	612
3.80400	610
3.80767	608
3.81133	606
3.81500	604
3.81867	601
3.82233	599
3.82600	598
3.82967	598
3.83333	596
3.83700	594
3.84067	591
3.84433	586
3.84800	585
3.85167	586
3.85533	584
3.85900	581
3.86267	579
3.86633	577
3.87000	576
3.87367	575
3.87733	573
3.88100	569
3.88467	565
3.88833	563
3.89200	562
3.89567	559
3.89933	557
3.90300	555
3.90667	553
3.91033	551
3.91400	550
3.91767	549
3.92133	547
3.92500	545
3.92867	543
3.93233	542
3.93600	541
3.93967	542
3.94333	542
3.94700	538
3.95067	535
3.95433	536
3.95800	537
3.96167	535
3.96533	532
3.96900	529
3.97267	526
3.97633	525
3.98000	526
3.98367	526
3.98733	522
3.99100	519
3.99467	516
3.99833	513

[Status Trace (Column Oven Temperature)]
Interval(msec)	1000
# of Points	240
Start Time(min)	0.006
End Time(min)	3.989
Intensity Units	
Intensity Multiplier	1
R.Time (min)	Intensity
0.00588	35.08
0.02255	35.06
0.03922	35.04
0.05588	35.03
0.07255	35.03
0.08922	35.03
0.10588	35.03
0.12255	35.04
0.13922	35.03
0.15588	35.02
0.17255	35.00
0.18922	35.01
0.20588	35.01
0.22255	35.01
0.23922	35.01
0.25588	35.02
0.27255	35.01
0.28922	35.02
0.30588	35.01
0.32255	35.02
0.33922	35.03
0.35588	35.03
0.37255	35.03
0.38922	35.01
0.40588	35.00
0.42255	34.99
0.43922	34.99
0.45588	34.99
0.47255	35.00
0.48922	35.00
0.50588	35.00
0.52255	35.00
0.53922	35.00
0.55588	34.99
0.57255	34.99
0.58922	34.98
0.60588	34.99
0.62255	34.98
0.63922	34.99
0.65588	34.99
0.67255	34.98
0.68922	34.98
0.70588	34.98
0.72255	34.98
0.73922	34.98
0.75588	35.00
0.77255	35.01
0.78922	35.01
0.80588	35.01
0.82255	35.02
0.83922	35.02
0.85588	35.02
0.87255	35.01
0.88922	35.01
0.90588	34.99
0.92255	34.99
0.93922	34.98
0.95588	34.97
0.97255	34.97
0.98922	34.99
1.00588	35.00
1.02255	35.01
1.03922	35.02
1.05588	35.02
1.07255	35.02
1.08922	35.01
1.10588	35.00
1.12255	35.00
1.13922	34.99
1.15588	34.99
1.17255	35.00
1.18922	34.99
1.20588	34.99
1.22255	34.98
1.23922	34.98
1.25588	34.99
1.27255	35.00
1.28922	35.00
1.30588	34.99
1.32255	35.00
1.33922	35.01
1.35588	35.02
1.37255	35.02
1.38922	35.01
1.40588	35.01
1.42255	35.02
1.43922	35.02
1.45588	35.02
1.47255	35.02
1.48922	35.03
1.50588	35.03
1.52255	35.03
1.53922	35.02
1.55588	35.01
1.57255	35.00
1.58922	35.01
1.60588	35.07
1.62255	35.19
1.63922	35.36
1.65588	35.61
1.67255	35.91
1.68922	36.29
1.70588	36.65
1.72255	37.00
1.73922	37.31
1.75588	37.61
1.77255	37.94
1.78922	38.29
1.80588	38.61
1.82255	38.94
1.83922	39.29
1.85588	39.63
1.87255	39.96
1.88922	40.29
1.90588	40.61
1.92255	40.93
1.93922	41.26
1.95588	41.58
1.97255	41.92
1.98922	42.24
2.00588	42.56
2.02255	42.89
2.03922	43.21
2.05588	43.53
2.07255	43.86
2.08922	44.17
2.10588	44.49
2.12255	44.83
2.13922	45.15
2.15588	45.48
2.17255	45.82
2.18922	46.12
2.20588	46.44
2.22255	46.77
2.23922	47.14
2.25588	47.46
2.27255	47.78
2.28922	48.09
2.30588	48.45
2.32255	48.77
2.33922	49.09
2.35588	49.40
2.37255	49.63
2.38922	49.70
2.40588	49.69
2.42255	49.70
2.43922	49.71
2.45588	49.71
2.47255	49.71
2.48922	49.71
2.50588	49.72
2.52255	49.74
2.53922	49.75
2.55588	49.77
2.57255	49.78
2.58922	49.81
2.60588	49.81
2.62255	49.81
2.63922	49.82
2.65588	49.84
2.67255	49.83
2.68922	49.87
2.70588	49.86
2.72255	49.84
2.73922	49.86
2.75588	49.87
2.77255	49.88
2.78922	49.87
2.80588	49.87
2.82255	49.86
2.83922	49.86
2.85588	49.88
2.87255	49.89
2.88922	49.90
2.90588	49.91
2.92255	49.93
2.93922	49.94
2.95588	49.95
2.97255	49.96
2.98922	49.98
3.00588	49.99
3.02255	50.01
3.03922	50.03
3.05588	50.04
3.07255	50.05
3.08922	50.04
3.10588	50.04
3.12255	50.06
3.13922	50.09
3.15588	50.11
3.17255	50.12
3.18922	50.12
3.20588	50.11
3.22255	50.09
3.23922	50.08
3.25588	50.06
3.27255	50.03
3.28922	50.02
3.30588	50.02
3.32255	50.01
3.33922	50.00
3.35588	50.00
3.37255	50.00
3.38922	50.00
3.40588	50.01
3.42255	50.02
3.43922	50.02
3.45588	50.03
3.47255	50.04
3.48922	50.03
3.50588	50.02
3.52255	50.02
3.53922	50.03
3.55588	50.03
3.57255	50.03
3.58922	50.04
3.60588	50.05
3.62255	50.05
3.63922	50.07
3.65588	50.08
3.67255	50.08
3.68922	50.08
3.70588	50.08
3.72255	50.08
3.73922	50.07
3.75588	50.06
3.77255	50.06
3.78922	50.06
3.80588	50.06
3.82255	50.07
3.83922	50.07
3.85588	50.08
3.87255	50.08
3.88922	50.07
3.90588	50.07
3.92255	50.08
3.93922	50.08
3.95588	50.09
3.97255	50.10
3.98922	50.09

[Status Trace (Injection Unit Temperature)]
Interval(msec)	1000
# of Points	240
Start Time(min)	0.006
End Time(min)	3.989
Intensity Units	
Intensity Multiplier	1
R.Time (min)	Intensity
0.00588	99.98
0.02255	99.98
0.03922	99.98
0.05588	99.98
0.07255	99.98
0.08922	99.98
0.10588	99.98
0.12255	99.98
0.13922	99.98
0.15588	99.98
0.17255	99.98
0.18922	99.98
0.20588	99.98
0.22255	99.98
0.23922	99.98
0.25588	99.98
0.27255	99.98
0.28922	99.98
0.30588	99.98
0.32255	99.98
0.33922	99.98
0.35588	99.98
0.37255	99.98
0.38922	99.98
0.40588	99.98
0.42255	99.98
0.43922	99.98
0.45588	99.98
0.47255	99.98
0.48922	99.98
0.50588	99.98
0.52255	99.98
0.53922	99.98
0.55588	99.98
0.57255	99.98
0.58922	99.98
0.60588	99.98
0.62255	99.98
0.63922	99.98
0.65588	99.98
0.67255	99.98
0.68922	99.98
0.70588	99.98
0.72255	99.98
0.73922	99.98
0.75588	99.98
0.77255	99.98
0.78922	99.98
0.80588	99.97
0.82255	99.98
0.83922	99.98
0.85588	99.98
0.87255	99.98
0.88922	99.98
0.90588	99.98
0.92255	99.98
0.93922	99.98
0.95588	99.98
0.97255	99.98
0.98922	99.98
1.00588	99.99
1.02255	99.98
1.03922	99.98
1.05588	99.99
1.07255	99.99
1.08922	99.98
1.10588	99.99
1.12255	99.98
1.13922	99.98
1.15588	99.98
1.17255	99.99
1.18922	99.98
1.20588	99.98
1.22255	99.98
1.23922	99.99
1.25588	99.98
1.27255	99.98
1.28922	99.99
1.30588	99.98
1.32255	99.98
1.33922	99.98
1.35588	99.98
1.37255	99.99
1.38922	99.99
1.40588	99.98
1.42255	99.99
1.43922	99.98
1.45588	99.98
1.47255	99.98
1.48922	99.98
1.50588	99.98
1.52255	99.98
1.53922	99.99
1.55588	99.99
1.57255	99.98
1.58922	99.98
1.60588	99.99
1.62255	99.98
1.63922	99.98
1.65588	99.98
1.67255	99.98
1.68922	99.98
1.70588	99.98
1.72255	99.98
1.73922	99.98
1.75588	99.98
1.77255	99.98
1.78922	99.98
1.80588	99.98
1.82255	99.98
1.83922	99.98
1.85588	99.98
1.87255	99.98
1.88922	99.98
1.90588	99.98
1.92255	99.98
1.93922	99.98
1.95588	99.98
1.97255	99.98
1.98922	99.98
2.00588	99.98
2.02255	99.98
2.03922	99.98
2.05588	99.98
2.07255	99.97
2.08922	99.97
2.10588	99.97
2.12255	99.97
2.13922	99.97
2.15588	99.97
2.17255	99.97
2.18922	99.97
2.20588	99.97
2.22255	99.97
2.23922	99.97
2.25588	99.96
2.27255	99.96
2.28922	99.97
2.30588	99.96
2.32255	99.96
2.33922	99.97
2.35588	99.96
2.37255	99.96
2.38922	99.96
2.40588	99.96
2.42255	99.96
2.43922	99.96
2.45588	99.96
2.47255	99.96
2.48922	99.96
2.50588	99.96
2.52255	99.96
2.53922	99.96
2.55588	99.96
2.57255	99.96
2.58922	99.97
2.60588	99.97
2.62255	99.97
2.63922	99.97
2.65588	99.97
2.67255	99.97
2.68922	99.97
2.70588	99.97
2.72255	99.98
2.73922	99.98
2.75588	99.98
2.77255	99.98
2.78922	99.99
2.80588	99.98
2.82255	99.99
2.83922	99.99
2.85588	99.99
2.87255	99.99
2.88922	99.99
2.90588	100.00
2.92255	99.99
2.93922	100.00
2.95588	100.00
2.97255	100.00
2.98922	100.01
3.00588	100.01
3.02255	100.01
3.03922	100.01
3.05588	100.02
3.07255	100.01
3.08922	100.02
3.10588	100.02
3.12255	100.01
3.13922	100.02
3.15588	100.02
3.17255	100.03
3.18922	100.02
3.20588	100.03
3.22255	100.03
3.23922	100.03
3.25588	100.02
3.27255	100.03
3.28922	100.03
3.30588	100.04
3.32255	100.03
3.33922	100.04
3.35588	100.03
3.37255	100.03
3.38922	100.04
3.40588	100.04
3.42255	100.04
3.43922	100.04
3.45588	100.04
3.47255	100.04
3.48922	100.04
3.50588	100.04
3.52255	100.04
3.53922	100.04
3.55588	100.04
3.57255	100.04
3.58922	100.04
3.60588	100.04
3.62255	100.04
3.63922	100.04
3.65588	100.04
3.67255	100.04
3.68922	100.04
3.70588	100.04
3.72255	100.04
3.73922	100.04
3.75588	100.04
3.77255	100.04
3.78922	100.04
3.80588	100.03
3.82255	100.04
3.83922	100.04
3.85588	100.04
3.87255	100.03
3.88922	100.03
3.90588	100.04
3.92255	100.04
3.93922	100.04
3.95588	100.04
3.97255	100.03
3.98922	100.04

[Status Trace (Carrier Gas Pressure)]
Interval(msec)	1000
# of Points	240
Start Time(min)	0.006
End Time(min)	3.989
Intensity Units	
Intensity Multiplier	1
R.Time (min)	Intensity
0.00588	58.00
0.02255	55.73
0.03922	56.82
0.05588	59.04
0.07255	59.67
0.08922	58.13
0.10588	57.98
0.12255	58.01
0.13922	58.01
0.15588	58.00
0.17255	58.00
0.18922	58.00
0.20588	58.00
0.22255	58.00
0.23922	58.00
0.25588	58.00
0.27255	58.00
0.28922	58.00
0.30588	58.00
0.32255	58.00
0.33922	58.00
0.35588	58.00
0.37255	58.00
0.38922	58.00
0.40588	58.00
0.42255	58.00
0.43922	58.00
0.45588	58.00
0.47255	58.00
0.48922	58.00
0.50588	58.00
0.52255	58.00
0.53922	58.00
0.55588	58.00
0.57255	58.00
0.58922	58.00
0.60588	58.00
0.62255	58.00
0.63922	58.00
0.65588	58.00
0.67255	58.00
0.68922	58.00
0.70588	58.00
0.72255	58.00
0.73922	58.00
0.75588	58.00
0.77255	58.00
0.78922	58.00
0.80588	58.00
0.82255	58.00
0.83922	58.00
0.85588	58.00
0.87255	58.00
0.88922	58.00
0.90588	58.00
0.92255	58.00
0.93922	58.00
0.95588	58.00
0.97255	58.00
0.98922	58.00
1.00588	58.00
1.02255	58.00
1.03922	58.00
1.05588	58.00
1.07255	58.00
1.08922	58.00
1.10588	58.00
1.12255	58.00
1.13922	58.00
1.15588	58.00
1.17255	58.00
1.18922	58.00
1.20588	58.00
1.22255	58.00
1.23922	58.00
1.25588	58.00
1.27255	58.00
1.28922	58.00
1.30588	58.00
1.32255	58.00
1.33922	58.00
1.35588	58.00
1.37255	58.00
1.38922	58.00
1.40588	58.00
1.42255	58.00
1.43922	58.00
1.45588	58.00
1.47255	58.00
1.48922	58.00
1.50588	58.00
1.52255	58.00
1.53922	58.00
1.55588	58.00
1.57255	58.00
1.58922	58.00
1.60588	58.00
1.62255	58.00
1.63922	58.00
1.65588	58.00
1.67255	58.01
1.68922	58.01
1.70588	58.00
1.72255	58.00
1.73922	58.00
1.75588	58.00
1.77255	58.00
1.78922	58.00
1.80588	58.00
1.82255	58.00
1.83922	58.00
1.85588	58.00
1.87255	58.00
1.88922	58.00
1.90588	58.00
1.92255	58.00
1.93922	58.00
1.95588	58.00
1.97255	58.00
1.98922	58.00
2.00588	58.00
2.02255	58.00
2.03922	58.00
2.05588	58.00
2.07255	58.00
2.08922	58.00
2.10588	58.00
2.12255	58.00
2.13922	58.00
2.15588	58.00
2.17255	58.00
2.18922	58.00
2.20588	58.00
2.22255	58.00
2.23922	58.00
2.25588	58.00
2.27255	58.00
2.28922	58.00
2.30588	58.00
2.32255	58.00
2.33922	58.00
2.35588	58.00
2.37255	58.00
2.38922	57.99
2.40588	57.99
2.42255	58.00
2.43922	58.00
2.45588	58.00
2.47255	58.00
2.48922	58.00
2.50588	57.99
2.52255	57.99
2.53922	58.00
2.55588	58.00
2.57255	58.00
2.58922	58.00
2.60588	58.00
2.62255	58.00
2.63922	58.00
2.65588	58.00
2.67255	58.00
2.68922	58.00
2.70588	58.00
2.72255	58.00
2.73922	58.00
2.75588	58.00
2.77255	58.00
2.78922	58.00
2.80588	58.00
2.82255	58.00
2.83922	58.00
2.85588	58.00
2.87255	58.00
2.88922	58.00
2.90588	58.00
2.92255	58.00
2.93922	58.00
2.95588	58.00
2.97255	58.00
2.98922	58.00
3.00588	58.00
3.02255	58.00
3.03922	58.00
3.05588	58.00
3.07255	58.00
3.08922	58.00
3.10588	58.00
3.12255	58.00
3.13922	58.00
3.15588	58.00
3.17255	58.00
3.18922	58.00
3.20588	58.00
3.22255	58.00
3.23922	58.00
3.25588	58.00
3.27255	58.00
3.28922	58.00
3.30588	58.00
3.32255	58.00
3.33922	58.00
3.35588	58.00
3.37255	58.00
3.38922	58.00
3.40588	58.00
3.42255	58.00
3.43922	58.00
3.45588	58.00
3.47255	58.00
3.48922	58.00
3.50588	58.00
3.52255	58.00
3.53922	58.00
3.55588	58.00
3.57255	58.00
3.58922	58.00
3.60588	58.00
3.62255	58.00
3.63922	58.00
3.65588	58.00
3.67255	58.00
3.68922	58.00
3.70588	58.00
3.72255	58.00
3.73922	58.00
3.75588	58.00
3.77255	58.00
3.78922	58.00
3.80588	58.00
3.82255	58.00
3.83922	58.00
3.85588	58.00
3.87255	58.00
3.88922	58.00
3.90588	58.00
3.92255	58.00
3.93922	58.00
3.95588	58.00
3.97255	58.00
3.98922	58.00

[Status Trace (Carrier Gas Flow)]
Interval(msec)	1000
# of Points	240
Start Time(min)	0.006
End Time(min)	3.989
Intensity Units	
Intensity Multiplier	1
R.Time (min)	Intensity
0.00588	34.51
0.02255	34.54
0.03922	34.55
0.05588	34.55
0.07255	34.49
0.08922	34.51
0.10588	34.52
0.12255	34.52
0.13922	34.51
0.15588	34.52
0.17255	34.52
0.18922	34.52
0.20588	34.52
0.22255	34.52
0.23922	34.52
0.25588	34.52
0.27255	34.52
0.28922	34.52
0.30588	34.52
0.32255	34.52
0.33922	34.52
0.35588	34.52
0.37255	34.51
0.38922	34.52
0.40588	34.51
0.42255	34.52
0.43922	34.52
0.45588	34.51
0.47255	34.52
0.48922	34.52
0.50588	34.51
0.52255	34.52
0.53922	34.52
0.55588	34.52
0.57255	34.52
0.58922	34.52
0.60588	34.51
0.62255	34.52
0.63922	34.52
0.65588	34.52
0.67255	34.52
0.68922	34.52
0.70588	34.52
0.72255	34.53
0.73922	34.52
0.75588	34.52
0.77255	34.52
0.78922	34.52
0.80588	34.51
0.82255	34.52
0.83922	34.52
0.85588	34.52
0.87255	34.52
0.88922	34.52
0.90588	34.52
0.92255	34.52
0.93922	34.52
0.95588	34.52
0.97255	34.52
0.98922	34.52
1.00588	34.52
1.02255	34.52
1.03922	34.52
1.05588	34.52
1.07255	34.52
1.08922	34.52
1.10588	34.52
1.12255	34.52
1.13922	34.51
1.15588	34.52
1.17255	34.51
1.18922	34.51
1.20588	34.51
1.22255	34.52
1.23922	34.52
1.25588	34.52
1.27255	34.52
1.28922	34.52
1.30588	34.52
1.32255	34.52
1.33922	34.52
1.35588	34.52
1.37255	34.52
1.38922	34.51
1.40588	34.52
1.42255	34.52
1.43922	34.52
1.45588	34.52
1.47255	34.52
1.48922	34.52
1.50588	34.52
1.52255	34.51
1.53922	34.52
1.55588	34.52
1.57255	34.52
1.58922	34.52
1.60588	34.52
1.62255	34.52
1.63922	34.51
1.65588	34.51
1.67255	34.52
1.68922	34.52
1.70588	34.52
1.72255	34.52
1.73922	34.52
1.75588	34.51
1.77255	34.52
1.78922	34.52
1.80588	34.52
1.82255	34.52
1.83922	34.51
1.85588	34.51
1.87255	34.52
1.88922	34.52
1.90588	34.52
1.92255	34.52
1.93922	34.52
1.95588	34.51
1.97255	34.51
1.98922	34.52
2.00588	34.52
2.02255	34.52
2.03922	34.52
2.05588	34.51
2.07255	34.52
2.08922	34.52
2.10588	34.52
2.12255	34.51
2.13922	34.52
2.15588	34.52
2.17255	34.52
2.18922	34.52
2.20588	34.51
2.22255	34.51
2.23922	34.52
2.25588	34.52
2.27255	34.52
2.28922	34.52
2.30588	34.52
2.32255	34.52
2.33922	34.52
2.35588	34.52
2.37255	34.52
2.38922	34.51
2.40588	34.52
2.42255	34.52
2.43922	34.52
2.45588	34.53
2.47255	34.52
2.48922	34.52
2.50588	34.47
2.52255	34.52
2.53922	34.52
2.55588	34.52
2.57255	34.53
2.58922	34.52
2.60588	34.52
2.62255	34.52
2.63922	34.52
2.65588	34.51
2.67255	34.52
2.68922	34.52
2.70588	34.52
2.72255	34.52
2.73922	34.53
2.75588	34.52
2.77255	34.52
2.78922	34.52
2.80588	34.53
2.82255	34.51
2.83922	34.52
2.85588	34.51
2.87255	34.53
2.88922	34.51
2.90588	34.51
2.92255	34.52
2.93922	34.53
2.95588	34.52
2.97255	34.51
2.98922	34.52
3.00588	34.52
3.02255	34.52
3.03922	34.52
3.05588	34.52
3.07255	34.51
3.08922	34.53
3.10588	34.51
3.12255	34.51
3.13922	34.52
3.15588	34.51
3.17255	34.51
3.18922	34.52
3.20588	34.52
3.22255	34.52
3.23922	34.52
3.25588	34.52
3.27255	34.52
3.28922	34.52
3.30588	34.52
3.32255	34.52
3.33922	34.52
3.35588	34.52
3.37255	34.53
3.38922	34.52
3.40588	34.52
3.42255	34.52
3.43922	34.52
3.45588	34.52
3.47255	34.51
3.48922	34.52
3.50588	34.51
3.52255	34.52
3.53922	34.52
3.55588	34.51
3.57255	34.52
3.58922	34.52
3.60588	34.52
3.62255	34.52
3.63922	34.52
3.65588	34.52
3.67255	34.52
3.68922	34.52
3.70588	34.52
3.72255	34.52
3.73922	34.52
3.75588	34.52
3.77255	34.52
3.78922	34.52
3.80588	34.52
3.82255	34.52
3.83922	34.51
3.85588	34.52
3.87255	34.52
3.88922	34.52
3.90588	34.52
3.92255	34.52
3.93922	34.52
3.95588	34.52
3.97255	34.52
3.98922	34.51

[Status Trace (Column Flow)]
Interval(msec)	1000
# of Points	240
Start Time(min)	0.006
End Time(min)	3.989
Intensity Units	
Intensity Multiplier	1
R.Time (min)	Intensity
0.00588	5.55
0.02255	5.29
0.03922	5.42
0.05588	5.68
0.07255	5.75
0.08922	5.57
0.10588	5.55
0.12255	5.55
0.13922	5.55
0.15588	5.55
0.17255	5.56
0.18922	5.55
0.20588	5.55
0.22255	5.55
0.23922	5.55
0.25588	5.55
0.27255	5.55
0.28922	5.55
0.30588	5.55
0.32255	5.55
0.33922	5.55
0.35588	5.55
0.37255	5.55
0.38922	5.55
0.40588	5.55
0.42255	5.56
0.43922	5.56
0.45588	5.56
0.47255	5.55
0.48922	5.55
0.50588	5.55
0.52255	5.55
0.53922	5.55
0.55588	5.56
0.57255	5.56
0.58922	5.56
0.60588	5.56
0.62255	5.56
0.63922	5.56
0.65588	5.56
0.67255	5.56
0.68922	5.56
0.70588	5.56
0.72255	5.56
0.73922	5.56
0.75588	5.55
0.77255	5.55
0.78922	5.55
0.80588	5.55
0.82255	5.55
0.83922	5.55
0.85588	5.55
0.87255	5.55
0.88922	5.55
0.90588	5.55
0.92255	5.56
0.93922	5.56
0.95588	5.56
0.97255	5.56
0.98922	5.56
1.00588	5.55
1.02255	5.55
1.03922	5.55
1.05588	5.55
1.07255	5.55
1.08922	5.55
1.10588	5.55
1.12255	5.55
1.13922	5.56
1.15588	5.56
1.17255	5.56
1.18922	5.56
1.20588	5.56
1.22255	5.56
1.23922	5.56
1.25588	5.56
1.27255	5.55
1.28922	5.55
1.30588	5.56
1.32255	5.55
1.33922	5.55
1.35588	5.55
1.37255	5.55
1.38922	5.55
1.40588	5.55
1.42255	5.55
1.43922	5.55
1.45588	5.55
1.47255	5.55
1.48922	5.55
1.50588	5.55
1.52255	5.55
1.53922	5.55
1.55588	5.55
1.57255	5.55
1.58922	5.55
1.60588	5.55
1.62255	5.55
1.63922	5.54
1.65588	5.54
1.67255	5.53
1.68922	5.51
1.70588	5.50
1.72255	5.49
1.73922	5.48
1.75588	5.47
1.77255	5.46
1.78922	5.45
1.80588	5.44
1.82255	5.43
1.83922	5.42
1.85588	5.41
1.87255	5.40
1.88922	5.39
1.90588	5.38
1.92255	5.37
1.93922	5.36
1.95588	5.35
1.97255	5.34
1.98922	5.33
2.00588	5.32
2.02255	5.31
2.03922	5.30
2.05588	5.29
2.07255	5.28
2.08922	5.28
2.10588	5.27
2.12255	5.26
2.13922	5.25
2.15588	5.24
2.17255	5.23
2.18922	5.22
2.20588	5.21
2.22255	5.20
2.23922	5.19
2.25588	5.18
2.27255	5.17
2.28922	5.16
2.30588	5.15
2.32255	5.14
2.33922	5.13
2.35588	5.13
2.37255	5.12
2.38922	5.12
2.40588	5.12
2.42255	5.12
2.43922	5.12
2.45588	5.12
2.47255	5.12
2.48922	5.12
2.50588	5.12
2.52255	5.11
2.53922	5.12
2.55588	5.12
2.57255	5.11
2.58922	5.11
2.60588	5.11
2.62255	5.11
2.63922	5.11
2.65588	5.11
2.67255	5.11
2.68922	5.11
2.70588	5.11
2.72255	5.11
2.73922	5.11
2.75588	5.11
2.77255	5.11
2.78922	5.11
2.80588	5.11
2.82255	5.11
2.83922	5.11
2.85588	5.11
2.87255	5.11
2.88922	5.11
2.90588	5.11
2.92255	5.11
2.93922	5.11
2.95588	5.11
2.97255	5.11
2.98922	5.11
3.00588	5.11
3.02255	5.11
3.03922	5.11
3.05588	5.11
3.07255	5.11
3.08922	5.11
3.10588	5.11
3.12255	5.11
3.13922	5.11
3.15588	5.11
3.17255	5.11
3.18922	5.11
3.20588	5.11
3.22255	5.11
3.23922	5.11
3.25588	5.11
3.27255	5.11
3.28922	5.11
3.30588	5.11
3.32255	5.11
3.33922	5.11
3.35588	5.11
3.37255	5.11
3.38922	5.11
3.40588	5.11
3.42255	5.11
3.43922	5.11
3.45588	5.11
3.47255	5.11
3.48922	5.11
3.50588	5.11
3.52255	5.11
3.53922	5.11
3.55588	5.11
3.57255	5.11
3.58922	5.11
3.60588	5.11
3.62255	5.11
3.63922	5.11
3.65588	5.11
3.67255	5.11
3.68922	5.11
3.70588	5.11
3.72255	5.11
3.73922	5.11
3.75588	5.11
3.77255	5.11
3.78922	5.11
3.80588	5.11
3.82255	5.11
3.83922	5.11
3.85588	5.11
3.87255	5.11
3.88922	5.11
3.90588	5.11
3.92255	5.11
3.93922	5.11
3.95588	5.11
3.97255	5.11
3.98922	5.11

[Status Trace (Linear Velocity)]
Interval(msec)	1000
# of Points	240
Start Time(min)	0.006
End Time(min)	3.989
Intensity Units	
Intensity Multiplier	1
R.Time (min)	Intensity
0.00588	39.02
0.02255	37.53
0.03922	38.25
0.05588	39.70
0.07255	40.12
0.08922	39.11
0.10588	39.01
0.12255	39.03
0.13922	39.03
0.15588	39.03
0.17255	39.03
0.18922	39.03
0.20588	39.03
0.22255	39.02
0.23922	39.02
0.25588	39.02
0.27255	39.02
0.28922	39.02
0.30588	39.02
0.32255	39.02
0.33922	39.02
0.35588	39.02
0.37255	39.02
0.38922	39.02
0.40588	39.02
0.42255	39.03
0.43922	39.03
0.45588	39.03
0.47255	39.03
0.48922	39.02
0.50588	39.02
0.52255	39.02
0.53922	39.02
0.55588	39.03
0.57255	39.03
0.58922	39.03
0.60588	39.03
0.62255	39.03
0.63922	39.02
0.65588	39.03
0.67255	39.03
0.68922	39.03
0.70588	39.03
0.72255	39.03
0.73922	39.03
0.75588	39.02
0.77255	39.02
0.78922	39.02
0.80588	39.02
0.82255	39.02
0.83922	39.02
0.85588	39.02
0.87255	39.02
0.88922	39.02
0.90588	39.02
0.92255	39.03
0.93922	39.03
0.95588	39.03
0.97255	39.03
0.98922	39.03
1.00588	39.02
1.02255	39.02
1.03922	39.02
1.05588	39.02
1.07255	39.02
1.08922	39.02
1.10588	39.02
1.12255	39.02
1.13922	39.02
1.15588	39.03
1.17255	39.02
1.18922	39.02
1.20588	39.03
1.22255	39.03
1.23922	39.03
1.25588	39.03
1.27255	39.02
1.28922	39.02
1.30588	39.02
1.32255	39.02
1.33922	39.02
1.35588	39.02
1.37255	39.02
1.38922	39.02
1.40588	39.02
1.42255	39.02
1.43922	39.02
1.45588	39.02
1.47255	39.02
1.48922	39.02
1.50588	39.02
1.52255	39.02
1.53922	39.02
1.55588	39.02
1.57255	39.02
1.58922	39.02
1.60588	39.02
1.62255	39.01
1.63922	38.99
1.65588	38.97
1.67255	38.94
1.68922	38.90
1.70588	38.87
1.72255	38.83
1.73922	38.80
1.75588	38.78
1.77255	38.75
1.78922	38.71
1.80588	38.68
1.82255	38.65
1.83922	38.62
1.85588	38.58
1.87255	38.55
1.88922	38.52
1.90588	38.49
1.92255	38.46
1.93922	38.43
1.95588	38.40
1.97255	38.37
1.98922	38.34
2.00588	38.31
2.02255	38.28
2.03922	38.25
2.05588	38.22
2.07255	38.19
2.08922	38.16
2.10588	38.13
2.12255	38.10
2.13922	38.07
2.15588	38.04
2.17255	38.01
2.18922	37.99
2.20588	37.96
2.22255	37.93
2.23922	37.90
2.25588	37.86
2.27255	37.84
2.28922	37.81
2.30588	37.78
2.32255	37.75
2.33922	37.72
2.35588	37.69
2.37255	37.67
2.38922	37.66
2.40588	37.66
2.42255	37.67
2.43922	37.66
2.45588	37.66
2.47255	37.66
2.48922	37.67
2.50588	37.66
2.52255	37.65
2.53922	37.66
2.55588	37.66
2.57255	37.66
2.58922	37.66
2.60588	37.66
2.62255	37.66
2.63922	37.66
2.65588	37.65
2.67255	37.65
2.68922	37.65
2.70588	37.65
2.72255	37.65
2.73922	37.65
2.75588	37.65
2.77255	37.65
2.78922	37.65
2.80588	37.65
2.82255	37.65
2.83922	37.65
2.85588	37.65
2.87255	37.65
2.88922	37.65
2.90588	37.65
2.92255	37.65
2.93922	37.64
2.95588	37.64
2.97255	37.64
2.98922	37.64
3.00588	37.64
3.02255	37.64
3.03922	37.64
3.05588	37.64
3.07255	37.64
3.08922	37.64
3.10588	37.64
3.12255	37.63
3.13922	37.63
3.15588	37.63
3.17255	37.63
3.18922	37.63
3.20588	37.63
3.22255	37.63
3.23922	37.63
3.25588	37.64
3.27255	37.64
3.28922	37.64
3.30588	37.64
3.32255	37.64
3.33922	37.64
3.35588	37.64
3.37255	37.64
3.38922	37.64
3.40588	37.64
3.42255	37.64
3.43922	37.64
3.45588	37.64
3.47255	37.64
3.48922	37.64
3.50588	37.64
3.52255	37.64
3.53922	37.64
3.55588	37.64
3.57255	37.64
3.58922	37.64
3.60588	37.64
3.62255	37.63
3.63922	37.63
3.65588	37.63
3.67255	37.63
3.68922	37.63
3.70588	37.63
3.72255	37.63
3.73922	37.63
3.75588	37.63
3.77255	37.63
3.78922	37.63
3.80588	37.64
3.82255	37.63
3.83922	37.63
3.85588	37.63
3.87255	37.63
3.88922	37.63
3.90588	37.63
3.92255	37.63
3.93922	37.63
3.95588	37.63
3.97255	37.63
3.98922	37.63

