[Header]
Application Name	LabSolutions
Version	5.110
Data File Name	C:\Users\User\Desktop\GC Analyses\Jack\Nachusa Grasslands Sampling\T4 Timepoint July 12th\T4_07122022_072.gcd
Output Date	3/17/2023
Output Time	12:04:55 PM

[File Information]
Type	Data File
Generated	3/14/2023 11:27:14 PM
Generated by	System Administrator
Modified	3/14/2023 11:34:03 PM
Modified by	System Administrator

[Sample Information]
Operator Name	System Administrator
Acquired	3/14/2023 11:30:02 PM
Sample Type	0:Unknown
Level	0
Sample Name	072
Sample ID	072
ISTD Amount1	1
ISTD Amount2	1
ISTD Amount3	1
ISTD Amount4	1
ISTD Amount5	1
ISTD Amount6	1
ISTD Amount7	1
ISTD Amount8	1
ISTD Amount9	1
ISTD Amount10	1
ISTD Amount11	1
ISTD Amount12	1
ISTD Amount13	1
ISTD Amount14	1
ISTD Amount15	1
ISTD Amount16	1
ISTD Amount17	1
ISTD Amount18	1
ISTD Amount19	1
ISTD Amount20	1
ISTD Amount21	1
ISTD Amount22	1
ISTD Amount23	1
ISTD Amount24	1
ISTD Amount25	1
ISTD Amount26	1
ISTD Amount27	1
ISTD Amount28	1
ISTD Amount29	1
ISTD Amount30	1
ISTD Amount31	1
ISTD Amount32	1
Sample Amount	1
Dilution Factor	1
Vial#	71
Injection Volume	1
Injection Count	1
Bar Code	

[Original Files]
Data File	C:\Users\User\Desktop\GC Analyses\Jack\Nachusa Grasslands Sampling\T4 Timepoint July 12th\T4_07122022_072.gcd
Method File	C:\LabSolutions\Data\GHG_4min_2022\ghg3_togas_w_acet_4 min_new_int.gcm
Batch File	C:\LabSolutions\Data\AutoSamplerTesting\T4_07122022.gcb
Report Format File	c:\LabSolutions\System\DEFAULT.lsr

[File Description]


[Configuration]
Instrument Name	C0B7VH3-Instrument1
Instrument #	1
Line #	1
# of Detectors	3
Detector ID	DET#1	DET#2	DET#3
Detector Name	FID	PTCD	ECD
# of Channels	1	1	1

[Peak Table(Ch1)]
# of Peaks	3
Peak#	R.Time	I.Time	F.Time	Area	Height	A/H	Conc.	Mark	ID#	Name	k'	Plate #	Plate Ht.	Tailing	Resolution	Sep.Factor	Area Ratio	Height Ratio	Conc. %	Norm Conc.
1	1.476	1.432	1.538	26091	12837	2.032	184.202	   	1	CO	0.000	9614	15.602	1.279	0.000	0.000	0	0	16.137	16.137
2	1.571	1.538	1.622	4225	2154	1.961	81.688	 V 	2	CH4	0.065	11605	12.926	1.098	1.609	0.000	0	0	7.156	7.156
3	1.996	1.949	2.422	3488695	1671271	2.087	875.568	   	3	CO2	0.353	17184	8.729	1.306	7.133	5.462	0	0	76.706	76.706

[Peak Table(Ch2)]
# of Peaks	0

[Peak Table(Ch3)]
# of Peaks	5
Peak#	R.Time	I.Time	F.Time	Area	Height	A/H	Conc.	Mark	ID#	Name	k'	Plate #	Plate Ht.	Tailing	Resolution	Sep.Factor	Area Ratio	Height Ratio	Conc. %	Norm Conc.
1	2.462	2.334	2.510	2289	751	3.049	0.000	   			0.000	10864	13.807	0.000	0.000	0.000	0	0	0.000	0.000
2	2.532	2.510	2.579	1060	367	2.888	0.000	 V 			0.028	7299	20.551	0.000	0.654	0.000	0	0	0.000	0.000
3	2.601	2.579	2.682	626	160	3.914	0.000	 V 			0.057	1683	89.135	0.000	0.374	2.000	0	0	0.000	0.000
4	2.880	2.704	3.082	19769	5058	3.909	0.505	   	1	N2O	0.170	13044	11.500	1.490	1.572	3.000	0	0	100.000	100.000
5	3.474	3.166	3.492	1052	96	10.930	0.000	   			0.411	2305	65.074	0.530	3.044	2.421	0	0	0.000	0.000

[Compound Results(Ch1)]
# of IDs	6
ID#	Name	R.Time	Area	Height	Conc.	Curve	3rd	2nd	1st	Constant	Area Ratio	Height Ratio	Conc. %	Norm Conc.
1	CO	1.476	26091	12837	184.202	Linear	0.000000e+00	0.000000e+00	1.416423e+002	0.000000e+00	0	0	16.137	16.137
2	CH4	1.571	4225	2154	81.688	Linear	0.000000e+00	0.000000e+00	5.171738e+001	0.000000e+00	0	0	7.156	7.156
3	CO2	1.996	3488695	1671271	875.568	Linear	0.000000e+00	0.000000e+00	3.984494e+003	0.000000e+00	0	0	76.706	76.706
4	Ethylene	0.000	0	0	0.000	Linear	0.000000e+00	0.000000e+00	0.000000e+00	0.000000e+00	0	0	0.000	0.000
5	Acetylene	0.000	0	0	0.000	Linear	0.000000e+00	0.000000e+00	0.000000e+00	0.000000e+00	0	0	0.000	0.000
6	Ethane	0.000	0	0	0.000	Linear	0.000000e+00	0.000000e+00	0.000000e+00	0.000000e+00	0	0	0.000	0.000

[Compound Results(Ch2)]
# of IDs	5
ID#	Name	R.Time	Area	Height	Conc.	Curve	3rd	2nd	1st	Constant	Area Ratio	Height Ratio	Conc. %	Norm Conc.
1	Hydrogen	0.000	0	0	0.000	Linear	0.000000e+00	0.000000e+00	0.000000e+00	0.000000e+00	0	0	0.000	0.000
2	Oxygen	0.000	0	0	0.000	Linear	0.000000e+00	0.000000e+00	0.000000e+00	0.000000e+00	0	0	0.000	0.000
3	Nitrogen	0.000	0	0	0.000	Linear	0.000000e+00	0.000000e+00	0.000000e+00	0.000000e+00	0	0	0.000	0.000
4	Methane	0.000	0	0	0.000	Linear	0.000000e+00	0.000000e+00	0.000000e+00	0.000000e+00	0	0	0.000	0.000
5	Carbon Monoxide	0.000	0	0	0.000	Linear	0.000000e+00	0.000000e+00	0.000000e+00	0.000000e+00	0	0	0.000	0.000

[Compound Results(Ch3)]
# of IDs	2
ID#	Name	R.Time	Area	Height	Conc.	Curve	3rd	2nd	1st	Constant	Area Ratio	Height Ratio	Conc. %	Norm Conc.
1	N2O	2.880	19769	5058	0.505	Linear	0.000000e+00	0.000000e+00	3.915173e+004	0.000000e+00	0	0	100.000	100.000
2	SF6	0.000	0	0	0.000	Linear	0.000000e+00	0.000000e+00	0.000000e+00	0.000000e+00	0	0	0.000	0.000

[Group Results(Ch1)]
# of Groups	0

[Group Results(Ch2)]
# of Groups	0

[Group Results(Ch3)]
# of Groups	0

[Chromatogram (Ch1)]
Interval(msec)	220
# of Points	1091
Start Time(min)	0.002
End Time(min)	3.998
R.Time (min)	Intensity
0.00167	2
0.00533	-5
0.00900	-7
0.01267	-1
0.01633	10
0.02000	24
0.02367	39
0.02733	53
0.03100	58
0.03467	52
0.03833	47
0.04200	37
0.04567	25
0.04933	19
0.05300	19
0.05667	18
0.06033	13
0.06400	7
0.06767	2
0.07133	-4
0.07500	-11
0.07867	-17
0.08233	-21
0.08600	-23
0.08967	-21
0.09333	-18
0.09700	-11
0.10067	-4
0.10433	0
0.10800	8
0.11167	14
0.11533	13
0.11900	9
0.12267	10
0.12633	13
0.13000	16
0.13367	15
0.13733	11
0.14100	6
0.14467	1
0.14833	1
0.15200	4
0.15567	11
0.15933	18
0.16300	25
0.16667	32
0.17033	38
0.17400	40
0.17767	44
0.18133	38
0.18500	31
0.18867	26
0.19233	16
0.19600	9
0.19967	6
0.20333	8
0.20700	15
0.21067	23
0.21433	32
0.21800	36
0.22167	32
0.22533	26
0.22900	21
0.23267	19
0.23633	15
0.24000	13
0.24367	13
0.24733	13
0.25100	17
0.25467	23
0.25833	21
0.26200	13
0.26567	10
0.26933	10
0.27300	13
0.27667	21
0.28033	31
0.28400	36
0.28767	37
0.29133	33
0.29500	29
0.29867	27
0.30233	28
0.30600	29
0.30967	30
0.31333	30
0.31700	33
0.32067	32
0.32433	26
0.32800	19
0.33167	14
0.33533	12
0.33900	16
0.34267	18
0.34633	18
0.35000	20
0.35367	27
0.35733	29
0.36100	20
0.36467	11
0.36833	2
0.37200	-6
0.37567	-12
0.37933	-14
0.38300	-12
0.38667	-9
0.39033	-5
0.39400	3
0.39767	8
0.40133	12
0.40500	14
0.40867	15
0.41233	19
0.41600	24
0.41967	23
0.42333	20
0.42700	20
0.43067	19
0.43433	19
0.43800	21
0.44167	26
0.44533	27
0.44900	26
0.45267	26
0.45633	29
0.46000	33
0.46367	31
0.46733	25
0.47100	23
0.47467	23
0.47833	18
0.48200	14
0.48567	12
0.48933	11
0.49300	11
0.49667	15
0.50033	17
0.50400	17
0.50767	15
0.51133	18
0.51500	23
0.51867	25
0.52233	26
0.52600	25
0.52967	22
0.53333	19
0.53700	18
0.54067	9
0.54433	-3
0.54800	-13
0.55167	-17
0.55533	-14
0.55900	-8
0.56267	-0
0.56633	10
0.57000	18
0.57367	24
0.57733	25
0.58100	23
0.58467	20
0.58833	14
0.59200	8
0.59567	5
0.59933	6
0.60300	6
0.60667	6
0.61033	10
0.61400	16
0.61767	20
0.62133	22
0.62500	20
0.62867	17
0.63233	14
0.63600	9
0.63967	3
0.64333	-0
0.64700	-1
0.65067	0
0.65433	1
0.65800	1
0.66167	1
0.66533	-1
0.66900	-4
0.67267	-3
0.67633	1
0.68000	8
0.68367	13
0.68733	16
0.69100	18
0.69467	20
0.69833	16
0.70200	11
0.70567	5
0.70933	-0
0.71300	-2
0.71667	0
0.72033	4
0.72400	5
0.72767	9
0.73133	14
0.73500	13
0.73867	6
0.74233	-2
0.74600	-9
0.74967	-12
0.75333	-11
0.75700	-6
0.76067	0
0.76433	3
0.76800	2
0.77167	-2
0.77533	-3
0.77900	-3
0.78267	-1
0.78633	-0
0.79000	2
0.79367	4
0.79733	-0
0.80100	-5
0.80467	-4
0.80833	0
0.81200	4
0.81567	10
0.81933	17
0.82300	20
0.82667	19
0.83033	16
0.83400	14
0.83767	13
0.84133	10
0.84500	4
0.84867	1
0.85233	1
0.85600	3
0.85967	9
0.86333	12
0.86700	8
0.87067	10
0.87433	17
0.87800	25
0.88167	33
0.88533	41
0.88900	48
0.89267	49
0.89633	46
0.90000	41
0.90367	36
0.90733	29
0.91100	30
0.91467	38
0.91833	50
0.92200	57
0.92567	54
0.92933	45
0.93300	34
0.93667	23
0.94033	19
0.94400	20
0.94767	24
0.95133	27
0.95500	27
0.95867	25
0.96233	27
0.96600	28
0.96967	27
0.97333	28
0.97700	31
0.98067	29
0.98433	32
0.98800	40
0.99167	43
0.99533	41
0.99900	37
1.00267	26
1.00633	17
1.01000	14
1.01367	16
1.01733	19
1.02100	19
1.02467	17
1.02833	16
1.03200	18
1.03567	21
1.03933	23
1.04300	20
1.04667	16
1.05033	15
1.05400	12
1.05767	9
1.06133	11
1.06500	16
1.06867	20
1.07233	22
1.07600	24
1.07967	24
1.08333	20
1.08700	13
1.09067	4
1.09433	-2
1.09800	-4
1.10167	-5
1.10533	-3
1.10900	6
1.11267	15
1.11633	24
1.12000	29
1.12367	30
1.12733	28
1.13100	22
1.13467	16
1.13833	16
1.14200	21
1.14567	28
1.14933	29
1.15300	21
1.15667	12
1.16033	5
1.16400	2
1.16767	1
1.17133	1
1.17500	3
1.17867	10
1.18233	12
1.18600	8
1.18967	5
1.19333	7
1.19700	10
1.20067	10
1.20433	8
1.20800	11
1.21167	14
1.21533	17
1.21900	18
1.22267	20
1.22633	18
1.23000	15
1.23367	12
1.23733	8
1.24100	5
1.24467	7
1.24833	13
1.25200	14
1.25567	11
1.25933	12
1.26300	15
1.26667	18
1.27033	18
1.27400	15
1.27767	13
1.28133	10
1.28500	7
1.28867	4
1.29233	2
1.29600	-3
1.29967	-7
1.30333	-7
1.30700	-3
1.31067	-1
1.31433	3
1.31800	5
1.32167	8
1.32533	11
1.32900	8
1.33267	-0
1.33633	-10
1.34000	-16
1.34367	-15
1.34733	0
1.35100	16
1.35467	24
1.35833	25
1.36200	25
1.36567	23
1.36933	19
1.37300	14
1.37667	3
1.38033	-13
1.38400	-25
1.38767	-35
1.39133	-37
1.39500	-33
1.39867	-30
1.40233	-32
1.40600	-37
1.40967	-36
1.41333	-30
1.41700	-27
1.42067	-24
1.42433	-22
1.42800	-21
1.43167	-18
1.43533	-11
1.43900	-1
1.44267	39
1.44633	184
1.45000	608
1.45367	1701
1.45733	3685
1.46100	6198
1.46467	8662
1.46833	10692
1.47200	12119
1.47567	12811
1.47933	12642
1.48300	11605
1.48667	9911
1.49033	7921
1.49400	5981
1.49767	4324
1.50133	3024
1.50500	2062
1.50867	1377
1.51233	900
1.51600	575
1.51967	359
1.52333	218
1.52700	123
1.53067	60
1.53433	21
1.53800	12
1.54167	58
1.54533	203
1.54900	486
1.55267	878
1.55633	1292
1.56000	1654
1.56367	1931
1.56733	2095
1.57100	2110
1.57467	1957
1.57833	1665
1.58200	1305
1.58567	957
1.58933	664
1.59300	439
1.59667	279
1.60033	166
1.60400	85
1.60767	28
1.61133	-4
1.61500	-24
1.61867	-41
1.62233	-53
1.62600	-54
1.62967	-56
1.63333	-56
1.63700	-56
1.64067	-60
1.64433	-67
1.64800	-75
1.65167	-78
1.65533	-75
1.65900	-70
1.66267	-64
1.66633	-61
1.67000	-62
1.67367	-60
1.67733	-60
1.68100	-59
1.68467	-59
1.68833	-62
1.69200	-64
1.69567	-60
1.69933	-58
1.70300	-58
1.70667	-56
1.71033	-54
1.71400	-51
1.71767	-45
1.72133	-41
1.72500	-38
1.72867	-32
1.73233	-27
1.73600	-21
1.73967	-14
1.74333	-18
1.74700	-28
1.75067	-36
1.75433	-41
1.75800	-44
1.76167	-46
1.76533	-45
1.76900	-44
1.77267	-41
1.77633	-37
1.78000	-34
1.78367	-33
1.78733	-33
1.79100	-34
1.79467	-34
1.79833	-31
1.80200	-26
1.80567	-19
1.80933	-12
1.81300	-10
1.81667	-15
1.82033	-23
1.82400	-30
1.82767	-33
1.83133	-32
1.83500	-34
1.83867	-34
1.84233	-30
1.84600	-22
1.84967	-16
1.85333	-15
1.85700	-18
1.86067	-25
1.86433	-30
1.86800	-38
1.87167	-41
1.87533	-39
1.87900	-32
1.88267	-21
1.88633	-10
1.89000	-9
1.89367	-12
1.89733	-15
1.90100	-21
1.90467	-29
1.90833	-35
1.91200	-35
1.91567	-35
1.91933	-37
1.92300	-38
1.92667	-37
1.93033	-35
1.93400	-32
1.93767	-27
1.94133	-23
1.94500	-24
1.94867	-25
1.95233	-2
1.95600	191
1.95967	1421
1.96333	7508
1.96700	30341
1.97067	95601
1.97433	237394
1.97800	473525
1.98167	782137
1.98533	1107984
1.98900	1391013
1.99267	1586929
1.99633	1671287
2.00000	1638925
2.00367	1503666
2.00733	1295583
2.01100	1053476
2.01467	814108
2.01833	603334
2.02200	433133
2.02567	304289
2.02933	211193
2.03300	146049
2.03667	101417
2.04033	71210
2.04400	50852
2.04767	37112
2.05133	27764
2.05500	21330
2.05867	16828
2.06233	13615
2.06600	11272
2.06967	9523
2.07333	8188
2.07700	7146
2.08067	6313
2.08433	5635
2.08800	5072
2.09167	4596
2.09533	4190
2.09900	3848
2.10267	3560
2.10633	3310
2.11000	3088
2.11367	2885
2.11733	2702
2.12100	2537
2.12467	2391
2.12833	2263
2.13200	2151
2.13567	2049
2.13933	1954
2.14300	1869
2.14667	1793
2.15033	1719
2.15400	1641
2.15767	1562
2.16133	1486
2.16500	1417
2.16867	1354
2.17233	1295
2.17600	1242
2.17967	1198
2.18333	1162
2.18700	1130
2.19067	1104
2.19433	1077
2.19800	1044
2.20167	1009
2.20533	976
2.20900	949
2.21267	930
2.21633	914
2.22000	892
2.22367	864
2.22733	835
2.23100	811
2.23467	796
2.23833	782
2.24200	762
2.24567	750
2.24933	730
2.25300	711
2.25667	695
2.26033	683
2.26400	673
2.26767	659
2.27133	637
2.27500	618
2.27867	605
2.28233	597
2.28600	599
2.28967	598
2.29333	588
2.29700	574
2.30067	559
2.30433	547
2.30800	535
2.31167	524
2.31533	515
2.31900	511
2.32267	504
2.32633	494
2.33000	481
2.33367	466
2.33733	448
2.34100	433
2.34467	422
2.34833	418
2.35200	421
2.35567	426
2.35933	427
2.36300	425
2.36667	424
2.37033	417
2.37400	405
2.37767	394
2.38133	383
2.38500	376
2.38867	373
2.39233	373
2.39600	374
2.39967	377
2.40333	381
2.40700	385
2.41067	388
2.41433	388
2.41800	387
2.42167	383
2.42533	376
2.42900	371
2.43267	370
2.43633	367
2.44000	362
2.44367	363
2.44733	364
2.45100	359
2.45467	351
2.45833	346
2.46200	341
2.46567	332
2.46933	324
2.47300	319
2.47667	311
2.48033	305
2.48400	305
2.48767	305
2.49133	303
2.49500	299
2.49867	296
2.50233	291
2.50600	284
2.50967	276
2.51333	271
2.51700	272
2.52067	277
2.52433	282
2.52800	281
2.53167	280
2.53533	281
2.53900	281
2.54267	277
2.54633	270
2.55000	265
2.55367	263
2.55733	261
2.56100	263
2.56467	268
2.56833	270
2.57200	260
2.57567	245
2.57933	234
2.58300	230
2.58667	227
2.59033	228
2.59400	229
2.59767	229
2.60133	230
2.60500	231
2.60867	232
2.61233	231
2.61600	231
2.61967	233
2.62333	237
2.62700	238
2.63067	237
2.63433	235
2.63800	233
2.64167	232
2.64533	229
2.64900	226
2.65267	221
2.65633	217
2.66000	215
2.66367	215
2.66733	217
2.67100	216
2.67467	212
2.67833	206
2.68200	198
2.68567	196
2.68933	207
2.69300	217
2.69667	218
2.70033	213
2.70400	200
2.70767	189
2.71133	183
2.71500	179
2.71867	179
2.72233	180
2.72600	183
2.72967	186
2.73333	188
2.73700	190
2.74067	193
2.74433	198
2.74800	206
2.75167	217
2.75533	220
2.75900	219
2.76267	217
2.76633	213
2.77000	209
2.77367	205
2.77733	204
2.78100	202
2.78467	200
2.78833	200
2.79200	199
2.79567	198
2.79933	197
2.80300	195
2.80667	197
2.81033	196
2.81400	189
2.81767	185
2.82133	184
2.82500	186
2.82867	187
2.83233	190
2.83600	193
2.83967	194
2.84333	196
2.84700	196
2.85067	198
2.85433	200
2.85800	201
2.86167	204
2.86533	210
2.86900	218
2.87267	220
2.87633	217
2.88000	206
2.88367	193
2.88733	177
2.89100	161
2.89467	147
2.89833	136
2.90200	130
2.90567	131
2.90933	137
2.91300	146
2.91667	151
2.92033	155
2.92400	161
2.92767	165
2.93133	167
2.93500	168
2.93867	168
2.94233	166
2.94600	166
2.94967	170
2.95333	175
2.95700	176
2.96067	175
2.96433	178
2.96800	179
2.97167	177
2.97533	173
2.97900	166
2.98267	163
2.98633	167
2.99000	174
2.99367	183
2.99733	189
3.00100	193
3.00467	196
3.00833	197
3.01200	196
3.01567	194
3.01933	188
3.02300	178
3.02667	169
3.03033	162
3.03400	157
3.03767	153
3.04133	147
3.04500	144
3.04867	144
3.05233	143
3.05600	143
3.05967	143
3.06333	141
3.06700	143
3.07067	149
3.07433	153
3.07800	152
3.08167	151
3.08533	154
3.08900	157
3.09267	161
3.09633	164
3.10000	165
3.10367	162
3.10733	159
3.11100	154
3.11467	151
3.11833	151
3.12200	150
3.12567	150
3.12933	153
3.13300	155
3.13667	156
3.14033	156
3.14400	156
3.14767	155
3.15133	154
3.15500	157
3.15867	158
3.16233	154
3.16600	148
3.16967	143
3.17333	142
3.17700	147
3.18067	150
3.18433	149
3.18800	146
3.19167	141
3.19533	136
3.19900	131
3.20267	128
3.20633	126
3.21000	128
3.21367	133
3.21733	141
3.22100	151
3.22467	155
3.22833	159
3.23200	160
3.23567	158
3.23933	156
3.24300	152
3.24667	148
3.25033	147
3.25400	145
3.25767	142
3.26133	138
3.26500	135
3.26867	133
3.27233	133
3.27600	136
3.27967	135
3.28333	132
3.28700	130
3.29067	131
3.29433	129
3.29800	123
3.30167	117
3.30533	116
3.30900	123
3.31267	130
3.31633	130
3.32000	126
3.32367	122
3.32733	124
3.33100	126
3.33467	128
3.33833	129
3.34200	127
3.34567	127
3.34933	126
3.35300	126
3.35667	123
3.36033	117
3.36400	114
3.36767	117
3.37133	119
3.37500	115
3.37867	110
3.38233	107
3.38600	109
3.38967	111
3.39333	114
3.39700	116
3.40067	121
3.40433	125
3.40800	127
3.41167	128
3.41533	131
3.41900	134
3.42267	139
3.42633	142
3.43000	139
3.43367	133
3.43733	125
3.44100	117
3.44467	111
3.44833	107
3.45200	105
3.45567	105
3.45933	107
3.46300	108
3.46667	112
3.47033	120
3.47400	132
3.47767	138
3.48133	135
3.48500	130
3.48867	129
3.49233	129
3.49600	126
3.49967	118
3.50333	111
3.50700	106
3.51067	103
3.51433	100
3.51800	98
3.52167	96
3.52533	94
3.52900	94
3.53267	97
3.53633	105
3.54000	117
3.54367	127
3.54733	129
3.55100	129
3.55467	125
3.55833	120
3.56200	114
3.56567	105
3.56933	100
3.57300	103
3.57667	104
3.58033	102
3.58400	102
3.58767	102
3.59133	99
3.59500	97
3.59867	88
3.60233	74
3.60600	62
3.60967	56
3.61333	61
3.61700	75
3.62067	88
3.62433	98
3.62800	108
3.63167	115
3.63533	115
3.63900	108
3.64267	100
3.64633	92
3.65000	84
3.65367	83
3.65733	86
3.66100	93
3.66467	105
3.66833	121
3.67200	134
3.67567	133
3.67933	122
3.68300	110
3.68667	93
3.69033	76
3.69400	68
3.69767	61
3.70133	56
3.70500	59
3.70867	69
3.71233	84
3.71600	99
3.71967	108
3.72333	113
3.72700	111
3.73067	102
3.73433	88
3.73800	78
3.74167	75
3.74533	73
3.74900	69
3.75267	67
3.75633	64
3.76000	62
3.76367	64
3.76733	69
3.77100	74
3.77467	83
3.77833	94
3.78200	108
3.78567	118
3.78933	119
3.79300	114
3.79667	109
3.80033	107
3.80400	105
3.80767	101
3.81133	94
3.81500	86
3.81867	81
3.82233	79
3.82600	79
3.82967	81
3.83333	86
3.83700	89
3.84067	91
3.84433	90
3.84800	89
3.85167	91
3.85533	95
3.85900	97
3.86267	98
3.86633	97
3.87000	93
3.87367	89
3.87733	85
3.88100	86
3.88467	98
3.88833	112
3.89200	116
3.89567	110
3.89933	102
3.90300	92
3.90667	85
3.91033	82
3.91400	79
3.91767	76
3.92133	76
3.92500	75
3.92867	72
3.93233	70
3.93600	72
3.93967	75
3.94333	75
3.94700	71
3.95067	66
3.95433	65
3.95800	68
3.96167	76
3.96533	83
3.96900	86
3.97267	85
3.97633	85
3.98000	85
3.98367	85
3.98733	83
3.99100	81
3.99467	82
3.99833	87

[Chromatogram (Ch2)]
Interval(msec)	220
# of Points	1091
Start Time(min)	0.002
End Time(min)	3.998
R.Time (min)	Intensity
0.00167	0
0.00533	0
0.00900	1
0.01267	1
0.01633	1
0.02000	1
0.02367	1
0.02733	1
0.03100	1
0.03467	1
0.03833	1
0.04200	1
0.04567	1
0.04933	1
0.05300	1
0.05667	1
0.06033	1
0.06400	1
0.06767	1
0.07133	1
0.07500	1
0.07867	1
0.08233	2
0.08600	2
0.08967	2
0.09333	3
0.09700	3
0.10067	4
0.10433	4
0.10800	5
0.11167	5
0.11533	5
0.11900	5
0.12267	5
0.12633	5
0.13000	5
0.13367	5
0.13733	5
0.14100	4
0.14467	4
0.14833	3
0.15200	3
0.15567	2
0.15933	2
0.16300	1
0.16667	1
0.17033	1
0.17400	1
0.17767	1
0.18133	1
0.18500	1
0.18867	1
0.19233	1
0.19600	1
0.19967	1
0.20333	0
0.20700	0
0.21067	0
0.21433	-0
0.21800	-0
0.22167	-0
0.22533	-0
0.22900	-0
0.23267	0
0.23633	1
0.24000	1
0.24367	2
0.24733	2
0.25100	2
0.25467	2
0.25833	2
0.26200	2
0.26567	2
0.26933	2
0.27300	2
0.27667	3
0.28033	3
0.28400	3
0.28767	3
0.29133	3
0.29500	3
0.29867	3
0.30233	3
0.30600	4
0.30967	4
0.31333	4
0.31700	4
0.32067	4
0.32433	4
0.32800	4
0.33167	4
0.33533	4
0.33900	3
0.34267	3
0.34633	2
0.35000	2
0.35367	2
0.35733	1
0.36100	1
0.36467	1
0.36833	1
0.37200	1
0.37567	1
0.37933	1
0.38300	0
0.38667	-0
0.39033	-0
0.39400	-0
0.39767	-0
0.40133	-0
0.40500	-0
0.40867	0
0.41233	0
0.41600	0
0.41967	0
0.42333	0
0.42700	0
0.43067	1
0.43433	1
0.43800	1
0.44167	1
0.44533	1
0.44900	1
0.45267	2
0.45633	2
0.46000	2
0.46367	2
0.46733	1
0.47100	1
0.47467	1
0.47833	1
0.48200	1
0.48567	0
0.48933	0
0.49300	0
0.49667	0
0.50033	-0
0.50400	-0
0.50767	-0
0.51133	-0
0.51500	-0
0.51867	-0
0.52233	-1
0.52600	-0
0.52967	-0
0.53333	-0
0.53700	0
0.54067	1
0.54433	1
0.54800	1
0.55167	2
0.55533	2
0.55900	1
0.56267	1
0.56633	1
0.57000	1
0.57367	1
0.57733	1
0.58100	1
0.58467	1
0.58833	1
0.59200	1
0.59567	1
0.59933	1
0.60300	1
0.60667	1
0.61033	2
0.61400	2
0.61767	2
0.62133	2
0.62500	2
0.62867	2
0.63233	2
0.63600	2
0.63967	2
0.64333	2
0.64700	2
0.65067	2
0.65433	2
0.65800	1
0.66167	1
0.66533	0
0.66900	0
0.67267	-0
0.67633	-0
0.68000	-1
0.68367	-1
0.68733	-1
0.69100	-1
0.69467	-1
0.69833	-0
0.70200	-0
0.70567	0
0.70933	0
0.71300	1
0.71667	1
0.72033	1
0.72400	1
0.72767	1
0.73133	1
0.73500	1
0.73867	1
0.74233	1
0.74600	1
0.74967	2
0.75333	2
0.75700	3
0.76067	3
0.76433	3
0.76800	3
0.77167	3
0.77533	3
0.77900	3
0.78267	3
0.78633	3
0.79000	3
0.79367	3
0.79733	2
0.80100	2
0.80467	1
0.80833	1
0.81200	0
0.81567	-0
0.81933	-1
0.82300	-1
0.82667	-1
0.83033	-1
0.83400	-2
0.83767	-2
0.84133	-3
0.84500	-3
0.84867	-3
0.85233	-3
0.85600	-3
0.85967	-2
0.86333	-2
0.86700	-2
0.87067	-1
0.87433	-1
0.87800	-1
0.88167	-1
0.88533	-1
0.88900	-1
0.89267	-2
0.89633	-2
0.90000	-2
0.90367	-2
0.90733	-2
0.91100	-1
0.91467	-1
0.91833	-1
0.92200	-0
0.92567	0
0.92933	1
0.93300	1
0.93667	1
0.94033	1
0.94400	1
0.94767	1
0.95133	1
0.95500	1
0.95867	1
0.96233	1
0.96600	1
0.96967	1
0.97333	2
0.97700	2
0.98067	2
0.98433	2
0.98800	2
0.99167	1
0.99533	1
0.99900	1
1.00267	1
1.00633	1
1.01000	0
1.01367	0
1.01733	0
1.02100	0
1.02467	0
1.02833	0
1.03200	1
1.03567	1
1.03933	1
1.04300	2
1.04667	2
1.05033	3
1.05400	3
1.05767	3
1.06133	3
1.06500	3
1.06867	3
1.07233	3
1.07600	3
1.07967	3
1.08333	3
1.08700	3
1.09067	3
1.09433	2
1.09800	2
1.10167	1
1.10533	1
1.10900	1
1.11267	0
1.11633	0
1.12000	-0
1.12367	-0
1.12733	-0
1.13100	-0
1.13467	-0
1.13833	-1
1.14200	-1
1.14567	-1
1.14933	-1
1.15300	-1
1.15667	-0
1.16033	-0
1.16400	-0
1.16767	-0
1.17133	0
1.17500	0
1.17867	0
1.18233	0
1.18600	0
1.18967	1
1.19333	1
1.19700	1
1.20067	2
1.20433	2
1.20800	2
1.21167	2
1.21533	2
1.21900	2
1.22267	2
1.22633	1
1.23000	1
1.23367	1
1.23733	1
1.24100	1
1.24467	1
1.24833	1
1.25200	0
1.25567	0
1.25933	0
1.26300	0
1.26667	-0
1.27033	-0
1.27400	-0
1.27767	-0
1.28133	-0
1.28500	-1
1.28867	-1
1.29233	-1
1.29600	-1
1.29967	-1
1.30333	-1
1.30700	-1
1.31067	-1
1.31433	-1
1.31800	-0
1.32167	-0
1.32533	-0
1.32900	-0
1.33267	-0
1.33633	-0
1.34000	-0
1.34367	-0
1.34733	-0
1.35100	-0
1.35467	-0
1.35833	-0
1.36200	0
1.36567	0
1.36933	0
1.37300	0
1.37667	0
1.38033	0
1.38400	0
1.38767	0
1.39133	0
1.39500	0
1.39867	-0
1.40233	-0
1.40600	-1
1.40967	-1
1.41333	-1
1.41700	-1
1.42067	-2
1.42433	-1
1.42800	-1
1.43167	-1
1.43533	-1
1.43900	-1
1.44267	-1
1.44633	-1
1.45000	-1
1.45367	-1
1.45733	-1
1.46100	-1
1.46467	-1
1.46833	-2
1.47200	-2
1.47567	-2
1.47933	-3
1.48300	-3
1.48667	-3
1.49033	-3
1.49400	-3
1.49767	-3
1.50133	-3
1.50500	-3
1.50867	-3
1.51233	-3
1.51600	-3
1.51967	-3
1.52333	-3
1.52700	-3
1.53067	-3
1.53433	-3
1.53800	-3
1.54167	-3
1.54533	-2
1.54900	-2
1.55267	-2
1.55633	-2
1.56000	-1
1.56367	-2
1.56733	-2
1.57100	-2
1.57467	-2
1.57833	-2
1.58200	-2
1.58567	-2
1.58933	-3
1.59300	-3
1.59667	-3
1.60033	-4
1.60400	-5
1.60767	-6
1.61133	-8
1.61500	-10
1.61867	-12
1.62233	-14
1.62600	-17
1.62967	-20
1.63333	-24
1.63700	-27
1.64067	-31
1.64433	-34
1.64800	-38
1.65167	-41
1.65533	-45
1.65900	-48
1.66267	-52
1.66633	-56
1.67000	-60
1.67367	-65
1.67733	-70
1.68100	-75
1.68467	-79
1.68833	-84
1.69200	-87
1.69567	-91
1.69933	-94
1.70300	-97
1.70667	-99
1.71033	-101
1.71400	-103
1.71767	-104
1.72133	-105
1.72500	-105
1.72867	-106
1.73233	-106
1.73600	-106
1.73967	-107
1.74333	-106
1.74700	-106
1.75067	-106
1.75433	-107
1.75800	-107
1.76167	-108
1.76533	-108
1.76900	-109
1.77267	-110
1.77633	-110
1.78000	-110
1.78367	-110
1.78733	-110
1.79100	-110
1.79467	-110
1.79833	-110
1.80200	-110
1.80567	-110
1.80933	-111
1.81300	-112
1.81667	-112
1.82033	-113
1.82400	-113
1.82767	-113
1.83133	-113
1.83500	-113
1.83867	-113
1.84233	-113
1.84600	-113
1.84967	-113
1.85333	-114
1.85700	-114
1.86067	-114
1.86433	-114
1.86800	-113
1.87167	-113
1.87533	-113
1.87900	-113
1.88267	-113
1.88633	-113
1.89000	-114
1.89367	-114
1.89733	-113
1.90100	-113
1.90467	-113
1.90833	-113
1.91200	-113
1.91567	-113
1.91933	-113
1.92300	-112
1.92667	-112
1.93033	-111
1.93400	-111
1.93767	-110
1.94133	-110
1.94500	-109
1.94867	-109
1.95233	-109
1.95600	-109
1.95967	-109
1.96333	-108
1.96700	-108
1.97067	-108
1.97433	-108
1.97800	-108
1.98167	-108
1.98533	-107
1.98900	-106
1.99267	-106
1.99633	-105
2.00000	-105
2.00367	-105
2.00733	-105
2.01100	-105
2.01467	-105
2.01833	-104
2.02200	-104
2.02567	-104
2.02933	-103
2.03300	-102
2.03667	-102
2.04033	-101
2.04400	-101
2.04767	-100
2.05133	-100
2.05500	-100
2.05867	-100
2.06233	-100
2.06600	-100
2.06967	-100
2.07333	-101
2.07700	-100
2.08067	-100
2.08433	-99
2.08800	-98
2.09167	-98
2.09533	-97
2.09900	-97
2.10267	-97
2.10633	-97
2.11000	-97
2.11367	-96
2.11733	-96
2.12100	-96
2.12467	-96
2.12833	-96
2.13200	-96
2.13567	-96
2.13933	-96
2.14300	-96
2.14667	-96
2.15033	-96
2.15400	-96
2.15767	-95
2.16133	-95
2.16500	-95
2.16867	-94
2.17233	-94
2.17600	-95
2.17967	-95
2.18333	-94
2.18700	-94
2.19067	-93
2.19433	-92
2.19800	-91
2.20167	-90
2.20533	-90
2.20900	-89
2.21267	-89
2.21633	-89
2.22000	-89
2.22367	-89
2.22733	-88
2.23100	-88
2.23467	-87
2.23833	-87
2.24200	-86
2.24567	-85
2.24933	-85
2.25300	-84
2.25667	-84
2.26033	-84
2.26400	-83
2.26767	-83
2.27133	-82
2.27500	-81
2.27867	-80
2.28233	-80
2.28600	-80
2.28967	-80
2.29333	-81
2.29700	-82
2.30067	-83
2.30433	-83
2.30800	-83
2.31167	-83
2.31533	-83
2.31900	-83
2.32267	-82
2.32633	-82
2.33000	-81
2.33367	-80
2.33733	-79
2.34100	-78
2.34467	-78
2.34833	-77
2.35200	-76
2.35567	-75
2.35933	-74
2.36300	-73
2.36667	-71
2.37033	-69
2.37400	-67
2.37767	-63
2.38133	-60
2.38500	-55
2.38867	-51
2.39233	-47
2.39600	-42
2.39967	-38
2.40333	-33
2.40700	-29
2.41067	-24
2.41433	-20
2.41800	-17
2.42167	-14
2.42533	-12
2.42900	-10
2.43267	-9
2.43633	-8
2.44000	-8
2.44367	-7
2.44733	-6
2.45100	-6
2.45467	-6
2.45833	-5
2.46200	-4
2.46567	-4
2.46933	-2
2.47300	-1
2.47667	1
2.48033	2
2.48400	3
2.48767	4
2.49133	5
2.49500	6
2.49867	6
2.50233	7
2.50600	8
2.50967	9
2.51333	10
2.51700	10
2.52067	11
2.52433	12
2.52800	13
2.53167	14
2.53533	15
2.53900	16
2.54267	17
2.54633	18
2.55000	18
2.55367	17
2.55733	17
2.56100	16
2.56467	16
2.56833	16
2.57200	16
2.57567	17
2.57933	17
2.58300	17
2.58667	17
2.59033	17
2.59400	17
2.59767	16
2.60133	16
2.60500	16
2.60867	16
2.61233	16
2.61600	16
2.61967	17
2.62333	17
2.62700	18
2.63067	18
2.63433	19
2.63800	19
2.64167	19
2.64533	19
2.64900	19
2.65267	20
2.65633	20
2.66000	20
2.66367	21
2.66733	21
2.67100	21
2.67467	21
2.67833	21
2.68200	22
2.68567	22
2.68933	22
2.69300	23
2.69667	23
2.70033	23
2.70400	23
2.70767	23
2.71133	22
2.71500	22
2.71867	22
2.72233	22
2.72600	22
2.72967	22
2.73333	22
2.73700	23
2.74067	23
2.74433	23
2.74800	23
2.75167	24
2.75533	24
2.75900	25
2.76267	26
2.76633	26
2.77000	26
2.77367	26
2.77733	25
2.78100	25
2.78467	25
2.78833	24
2.79200	24
2.79567	24
2.79933	24
2.80300	24
2.80667	25
2.81033	25
2.81400	26
2.81767	26
2.82133	26
2.82500	27
2.82867	27
2.83233	27
2.83600	27
2.83967	27
2.84333	27
2.84700	25
2.85067	21
2.85433	16
2.85800	7
2.86167	-5
2.86533	-20
2.86900	-40
2.87267	-64
2.87633	-93
2.88000	-126
2.88367	-163
2.88733	-204
2.89100	-249
2.89467	-297
2.89833	-347
2.90200	-400
2.90567	-454
2.90933	-510
2.91300	-566
2.91667	-621
2.92033	-677
2.92400	-732
2.92767	-785
2.93133	-837
2.93500	-889
2.93867	-946
2.94233	-1005
2.94600	-1057
2.94967	-1092
2.95333	-1103
2.95700	-1088
2.96067	-1049
2.96433	-992
2.96800	-922
2.97167	-844
2.97533	-764
2.97900	-684
2.98267	-606
2.98633	-534
2.99000	-467
2.99367	-406
2.99733	-351
3.00100	-302
3.00467	-259
3.00833	-221
3.01200	-188
3.01567	-160
3.01933	-135
3.02300	-113
3.02667	-95
3.03033	-79
3.03400	-65
3.03767	-53
3.04133	-43
3.04500	-34
3.04867	-26
3.05233	-20
3.05600	-14
3.05967	-10
3.06333	-6
3.06700	-3
3.07067	0
3.07433	2
3.07800	5
3.08167	7
3.08533	8
3.08900	10
3.09267	11
3.09633	12
3.10000	12
3.10367	13
3.10733	14
3.11100	14
3.11467	15
3.11833	15
3.12200	15
3.12567	16
3.12933	16
3.13300	17
3.13667	17
3.14033	18
3.14400	18
3.14767	18
3.15133	18
3.15500	19
3.15867	19
3.16233	19
3.16600	20
3.16967	20
3.17333	20
3.17700	20
3.18067	20
3.18433	20
3.18800	21
3.19167	21
3.19533	21
3.19900	21
3.20267	21
3.20633	21
3.21000	22
3.21367	21
3.21733	22
3.22100	22
3.22467	22
3.22833	22
3.23200	22
3.23567	22
3.23933	22
3.24300	22
3.24667	22
3.25033	22
3.25400	22
3.25767	22
3.26133	22
3.26500	22
3.26867	23
3.27233	23
3.27600	23
3.27967	23
3.28333	24
3.28700	24
3.29067	24
3.29433	25
3.29800	25
3.30167	25
3.30533	25
3.30900	25
3.31267	25
3.31633	25
3.32000	25
3.32367	25
3.32733	25
3.33100	25
3.33467	25
3.33833	26
3.34200	26
3.34567	26
3.34933	26
3.35300	26
3.35667	26
3.36033	26
3.36400	26
3.36767	26
3.37133	25
3.37500	25
3.37867	25
3.38233	25
3.38600	25
3.38967	25
3.39333	25
3.39700	25
3.40067	25
3.40433	26
3.40800	26
3.41167	26
3.41533	26
3.41900	27
3.42267	27
3.42633	27
3.43000	27
3.43367	28
3.43733	28
3.44100	28
3.44467	28
3.44833	28
3.45200	28
3.45567	28
3.45933	28
3.46300	29
3.46667	29
3.47033	29
3.47400	30
3.47767	30
3.48133	30
3.48500	30
3.48867	30
3.49233	30
3.49600	30
3.49967	30
3.50333	30
3.50700	30
3.51067	30
3.51433	30
3.51800	30
3.52167	30
3.52533	30
3.52900	29
3.53267	29
3.53633	29
3.54000	29
3.54367	28
3.54733	28
3.55100	29
3.55467	29
3.55833	29
3.56200	29
3.56567	29
3.56933	29
3.57300	29
3.57667	29
3.58033	29
3.58400	29
3.58767	29
3.59133	29
3.59500	29
3.59867	30
3.60233	30
3.60600	30
3.60967	30
3.61333	30
3.61700	30
3.62067	30
3.62433	30
3.62800	30
3.63167	30
3.63533	30
3.63900	29
3.64267	29
3.64633	29
3.65000	28
3.65367	28
3.65733	28
3.66100	27
3.66467	27
3.66833	27
3.67200	27
3.67567	27
3.67933	27
3.68300	27
3.68667	27
3.69033	27
3.69400	27
3.69767	27
3.70133	27
3.70500	27
3.70867	27
3.71233	26
3.71600	26
3.71967	26
3.72333	26
3.72700	26
3.73067	26
3.73433	26
3.73800	26
3.74167	26
3.74533	26
3.74900	26
3.75267	26
3.75633	26
3.76000	26
3.76367	26
3.76733	26
3.77100	26
3.77467	26
3.77833	26
3.78200	26
3.78567	26
3.78933	26
3.79300	26
3.79667	26
3.80033	26
3.80400	26
3.80767	26
3.81133	26
3.81500	26
3.81867	27
3.82233	27
3.82600	27
3.82967	27
3.83333	27
3.83700	27
3.84067	27
3.84433	27
3.84800	27
3.85167	27
3.85533	27
3.85900	27
3.86267	27
3.86633	27
3.87000	27
3.87367	27
3.87733	27
3.88100	27
3.88467	27
3.88833	28
3.89200	28
3.89567	28
3.89933	28
3.90300	28
3.90667	28
3.91033	28
3.91400	28
3.91767	28
3.92133	28
3.92500	28
3.92867	27
3.93233	27
3.93600	27
3.93967	27
3.94333	27
3.94700	27
3.95067	27
3.95433	27
3.95800	27
3.96167	27
3.96533	26
3.96900	26
3.97267	26
3.97633	27
3.98000	27
3.98367	27
3.98733	27
3.99100	27
3.99467	27
3.99833	28

[Chromatogram (Ch3)]
Interval(msec)	220
# of Points	1091
Start Time(min)	0.002
End Time(min)	3.998
R.Time (min)	Intensity
0.00167	1
0.00533	3
0.00900	4
0.01267	6
0.01633	8
0.02000	11
0.02367	13
0.02733	13
0.03100	11
0.03467	10
0.03833	9
0.04200	9
0.04567	9
0.04933	7
0.05300	5
0.05667	5
0.06033	7
0.06400	7
0.06767	7
0.07133	6
0.07500	6
0.07867	4
0.08233	3
0.08600	3
0.08967	3
0.09333	5
0.09700	6
0.10067	5
0.10433	5
0.10800	5
0.11167	5
0.11533	7
0.11900	10
0.12267	10
0.12633	8
0.13000	2
0.13367	1
0.13733	2
0.14100	5
0.14467	8
0.14833	11
0.15200	11
0.15567	9
0.15933	6
0.16300	7
0.16667	9
0.17033	9
0.17400	9
0.17767	9
0.18133	8
0.18500	6
0.18867	6
0.19233	9
0.19600	12
0.19967	11
0.20333	10
0.20700	8
0.21067	6
0.21433	7
0.21800	7
0.22167	8
0.22533	10
0.22900	11
0.23267	10
0.23633	9
0.24000	11
0.24367	12
0.24733	12
0.25100	10
0.25467	10
0.25833	9
0.26200	10
0.26567	11
0.26933	13
0.27300	13
0.27667	11
0.28033	9
0.28400	9
0.28767	11
0.29133	12
0.29500	10
0.29867	10
0.30233	10
0.30600	8
0.30967	10
0.31333	13
0.31700	15
0.32067	17
0.32433	18
0.32800	15
0.33167	13
0.33533	11
0.33900	9
0.34267	10
0.34633	11
0.35000	12
0.35367	10
0.35733	9
0.36100	9
0.36467	10
0.36833	12
0.37200	12
0.37567	12
0.37933	14
0.38300	13
0.38667	11
0.39033	10
0.39400	9
0.39767	7
0.40133	5
0.40500	7
0.40867	9
0.41233	11
0.41600	11
0.41967	13
0.42333	14
0.42700	14
0.43067	14
0.43433	11
0.43800	8
0.44167	8
0.44533	7
0.44900	9
0.45267	11
0.45633	12
0.46000	13
0.46367	13
0.46733	12
0.47100	10
0.47467	11
0.47833	10
0.48200	8
0.48567	5
0.48933	4
0.49300	4
0.49667	7
0.50033	9
0.50400	11
0.50767	12
0.51133	12
0.51500	11
0.51867	12
0.52233	13
0.52600	13
0.52967	12
0.53333	12
0.53700	12
0.54067	12
0.54433	12
0.54800	12
0.55167	11
0.55533	9
0.55900	6
0.56267	5
0.56633	7
0.57000	8
0.57367	8
0.57733	8
0.58100	9
0.58467	10
0.58833	13
0.59200	14
0.59567	13
0.59933	11
0.60300	11
0.60667	12
0.61033	11
0.61400	11
0.61767	12
0.62133	13
0.62500	14
0.62867	14
0.63233	15
0.63600	14
0.63967	13
0.64333	12
0.64700	9
0.65067	8
0.65433	8
0.65800	8
0.66167	11
0.66533	13
0.66900	13
0.67267	11
0.67633	8
0.68000	9
0.68367	11
0.68733	11
0.69100	12
0.69467	14
0.69833	15
0.70200	16
0.70567	16
0.70933	15
0.71300	16
0.71667	15
0.72033	13
0.72400	12
0.72767	14
0.73133	16
0.73500	20
0.73867	21
0.74233	22
0.74600	20
0.74967	20
0.75333	17
0.75700	14
0.76067	13
0.76433	13
0.76800	15
0.77167	16
0.77533	18
0.77900	18
0.78267	16
0.78633	13
0.79000	14
0.79367	15
0.79733	15
0.80100	16
0.80467	18
0.80833	18
0.81200	21
0.81567	22
0.81933	20
0.82300	18
0.82667	17
0.83033	15
0.83400	14
0.83767	13
0.84133	15
0.84500	15
0.84867	16
0.85233	17
0.85600	16
0.85967	15
0.86333	16
0.86700	17
0.87067	19
0.87433	20
0.87800	21
0.88167	21
0.88533	19
0.88900	16
0.89267	17
0.89633	18
0.90000	19
0.90367	19
0.90733	20
0.91100	18
0.91467	18
0.91833	17
0.92200	16
0.92567	15
0.92933	16
0.93300	17
0.93667	19
0.94033	16
0.94400	15
0.94767	16
0.95133	17
0.95500	18
0.95867	17
0.96233	16
0.96600	15
0.96967	15
0.97333	15
0.97700	15
0.98067	15
0.98433	18
0.98800	21
0.99167	22
0.99533	23
0.99900	25
1.00267	26
1.00633	25
1.01000	24
1.01367	24
1.01733	24
1.02100	24
1.02467	22
1.02833	22
1.03200	21
1.03567	21
1.03933	22
1.04300	23
1.04667	24
1.05033	24
1.05400	22
1.05767	20
1.06133	20
1.06500	20
1.06867	19
1.07233	18
1.07600	17
1.07967	15
1.08333	17
1.08700	20
1.09067	21
1.09433	22
1.09800	22
1.10167	22
1.10533	21
1.10900	19
1.11267	19
1.11633	20
1.12000	20
1.12367	19
1.12733	19
1.13100	21
1.13467	22
1.13833	22
1.14200	22
1.14567	21
1.14933	22
1.15300	23
1.15667	25
1.16033	25
1.16400	25
1.16767	24
1.17133	22
1.17500	19
1.17867	18
1.18233	19
1.18600	20
1.18967	19
1.19333	18
1.19700	19
1.20067	18
1.20433	18
1.20800	17
1.21167	18
1.21533	21
1.21900	25
1.22267	27
1.22633	24
1.23000	22
1.23367	21
1.23733	22
1.24100	24
1.24467	22
1.24833	20
1.25200	20
1.25567	22
1.25933	23
1.26300	23
1.26667	23
1.27033	22
1.27400	19
1.27767	19
1.28133	21
1.28500	22
1.28867	22
1.29233	22
1.29600	21
1.29967	22
1.30333	23
1.30700	23
1.31067	23
1.31433	24
1.31800	24
1.32167	25
1.32533	28
1.32900	29
1.33267	27
1.33633	23
1.34000	22
1.34367	23
1.34733	27
1.35100	29
1.35467	30
1.35833	29
1.36200	26
1.36567	27
1.36933	26
1.37300	24
1.37667	22
1.38033	22
1.38400	22
1.38767	22
1.39133	22
1.39500	23
1.39867	25
1.40233	27
1.40600	28
1.40967	28
1.41333	27
1.41700	27
1.42067	28
1.42433	31
1.42800	31
1.43167	29
1.43533	27
1.43900	27
1.44267	28
1.44633	28
1.45000	29
1.45367	30
1.45733	30
1.46100	29
1.46467	29
1.46833	28
1.47200	29
1.47567	31
1.47933	33
1.48300	35
1.48667	34
1.49033	33
1.49400	31
1.49767	29
1.50133	29
1.50500	30
1.50867	30
1.51233	28
1.51600	27
1.51967	29
1.52333	28
1.52700	28
1.53067	30
1.53433	31
1.53800	31
1.54167	30
1.54533	29
1.54900	28
1.55267	31
1.55633	33
1.56000	33
1.56367	32
1.56733	31
1.57100	32
1.57467	31
1.57833	31
1.58200	33
1.58567	32
1.58933	32
1.59300	31
1.59667	30
1.60033	29
1.60400	28
1.60767	28
1.61133	31
1.61500	34
1.61867	37
1.62233	37
1.62600	37
1.62967	37
1.63333	37
1.63700	37
1.64067	37
1.64433	38
1.64800	38
1.65167	39
1.65533	41
1.65900	40
1.66267	38
1.66633	39
1.67000	40
1.67367	42
1.67733	43
1.68100	44
1.68467	45
1.68833	45
1.69200	45
1.69567	47
1.69933	48
1.70300	48
1.70667	48
1.71033	47
1.71400	46
1.71767	45
1.72133	49
1.72500	51
1.72867	53
1.73233	54
1.73600	55
1.73967	55
1.74333	55
1.74700	54
1.75067	52
1.75433	52
1.75800	53
1.76167	52
1.76533	51
1.76900	51
1.77267	50
1.77633	50
1.78000	50
1.78367	51
1.78733	51
1.79100	51
1.79467	53
1.79833	55
1.80200	55
1.80567	56
1.80933	57
1.81300	57
1.81667	58
1.82033	57
1.82400	55
1.82767	56
1.83133	57
1.83500	60
1.83867	62
1.84233	62
1.84600	62
1.84967	63
1.85333	65
1.85700	66
1.86067	67
1.86433	66
1.86800	66
1.87167	67
1.87533	69
1.87900	68
1.88267	67
1.88633	69
1.89000	71
1.89367	72
1.89733	75
1.90100	77
1.90467	78
1.90833	79
1.91200	80
1.91567	80
1.91933	81
1.92300	80
1.92667	81
1.93033	83
1.93400	85
1.93767	85
1.94133	85
1.94500	84
1.94867	85
1.95233	87
1.95600	87
1.95967	88
1.96333	89
1.96700	90
1.97067	91
1.97433	93
1.97800	93
1.98167	95
1.98533	95
1.98900	96
1.99267	97
1.99633	99
2.00000	102
2.00367	105
2.00733	107
2.01100	107
2.01467	107
2.01833	108
2.02200	109
2.02567	109
2.02933	109
2.03300	109
2.03667	111
2.04033	113
2.04400	114
2.04767	115
2.05133	115
2.05500	116
2.05867	119
2.06233	121
2.06600	121
2.06967	122
2.07333	122
2.07700	123
2.08067	124
2.08433	127
2.08800	131
2.09167	134
2.09533	135
2.09900	133
2.10267	132
2.10633	135
2.11000	139
2.11367	140
2.11733	141
2.12100	143
2.12467	145
2.12833	148
2.13200	152
2.13567	154
2.13933	156
2.14300	159
2.14667	161
2.15033	163
2.15400	162
2.15767	162
2.16133	163
2.16500	165
2.16867	168
2.17233	169
2.17600	171
2.17967	172
2.18333	173
2.18700	173
2.19067	173
2.19433	175
2.19800	178
2.20167	178
2.20533	178
2.20900	180
2.21267	183
2.21633	183
2.22000	182
2.22367	183
2.22733	184
2.23100	188
2.23467	192
2.23833	192
2.24200	192
2.24567	195
2.24933	197
2.25300	198
2.25667	199
2.26033	198
2.26400	199
2.26767	199
2.27133	200
2.27500	202
2.27867	206
2.28233	210
2.28600	212
2.28967	212
2.29333	213
2.29700	217
2.30067	218
2.30433	219
2.30800	221
2.31167	225
2.31533	225
2.31900	225
2.32267	227
2.32633	228
2.33000	230
2.33367	231
2.33733	233
2.34100	234
2.34467	237
2.34833	240
2.35200	241
2.35567	241
2.35933	242
2.36300	243
2.36667	244
2.37033	245
2.37400	246
2.37767	246
2.38133	248
2.38500	249
2.38867	246
2.39233	245
2.39600	249
2.39967	252
2.40333	256
2.40700	258
2.41067	260
2.41433	259
2.41800	259
2.42167	262
2.42533	264
2.42900	265
2.43267	265
2.43633	267
2.44000	272
2.44367	334
2.44733	498
2.45100	677
2.45467	825
2.45833	909
2.46200	914
2.46567	872
2.46933	815
2.47300	761
2.47667	720
2.48033	691
2.48400	658
2.48767	613
2.49133	560
2.49500	508
2.49867	467
2.50233	437
2.50600	416
2.50967	407
2.51333	412
2.51700	429
2.52067	454
2.52433	478
2.52800	492
2.53167	493
2.53533	481
2.53900	456
2.54267	422
2.54633	385
2.55000	351
2.55367	322
2.55733	298
2.56100	280
2.56467	266
2.56833	254
2.57200	248
2.57567	244
2.57933	241
2.58300	242
2.58667	243
2.59033	245
2.59400	248
2.59767	250
2.60133	250
2.60500	246
2.60867	242
2.61233	237
2.61600	229
2.61967	220
2.62333	210
2.62700	199
2.63067	191
2.63433	183
2.63800	174
2.64167	164
2.64533	153
2.64900	143
2.65267	130
2.65633	118
2.66000	105
2.66367	91
2.66733	79
2.67100	69
2.67467	62
2.67833	54
2.68200	47
2.68567	42
2.68933	39
2.69300	39
2.69667	40
2.70033	42
2.70400	45
2.70767	50
2.71133	55
2.71500	58
2.71867	61
2.72233	63
2.72600	65
2.72967	69
2.73333	74
2.73700	80
2.74067	84
2.74433	87
2.74800	91
2.75167	94
2.75533	98
2.75900	103
2.76267	108
2.76633	111
2.77000	115
2.77367	118
2.77733	122
2.78100	126
2.78467	130
2.78833	134
2.79200	140
2.79567	146
2.79933	149
2.80300	152
2.80667	157
2.81033	163
2.81400	172
2.81767	182
2.82133	195
2.82500	216
2.82867	255
2.83233	327
2.83600	453
2.83967	655
2.84333	955
2.84700	1361
2.85067	1865
2.85433	2445
2.85800	3062
2.86167	3670
2.86533	4218
2.86900	4662
2.87267	4971
2.87633	5132
2.88000	5148
2.88367	5034
2.88733	4817
2.89100	4527
2.89467	4190
2.89833	3830
2.90200	3468
2.90567	3116
2.90933	2786
2.91300	2479
2.91667	2198
2.92033	1944
2.92400	1718
2.92767	1517
2.93133	1340
2.93500	1186
2.93867	1051
2.94233	931
2.94600	826
2.94967	734
2.95333	654
2.95700	585
2.96067	525
2.96433	473
2.96800	427
2.97167	389
2.97533	357
2.97900	330
2.98267	304
2.98633	282
2.99000	263
2.99367	246
2.99733	231
3.00100	218
3.00467	208
3.00833	200
3.01200	193
3.01567	187
3.01933	181
3.02300	176
3.02667	171
3.03033	166
3.03400	162
3.03767	158
3.04133	156
3.04500	154
3.04867	152
3.05233	154
3.05600	154
3.05967	151
3.06333	149
3.06700	147
3.07067	146
3.07433	145
3.07800	142
3.08167	141
3.08533	143
3.08900	144
3.09267	145
3.09633	146
3.10000	146
3.10367	146
3.10733	146
3.11100	148
3.11467	150
3.11833	150
3.12200	150
3.12567	150
3.12933	147
3.13300	146
3.13667	146
3.14033	148
3.14400	150
3.14767	148
3.15133	147
3.15500	147
3.15867	146
3.16233	149
3.16600	152
3.16967	156
3.17333	157
3.17700	158
3.18067	158
3.18433	159
3.18800	161
3.19167	161
3.19533	161
3.19900	163
3.20267	166
3.20633	167
3.21000	169
3.21367	172
3.21733	174
3.22100	176
3.22467	177
3.22833	179
3.23200	182
3.23567	185
3.23933	188
3.24300	191
3.24667	193
3.25033	194
3.25400	196
3.25767	198
3.26133	198
3.26500	199
3.26867	200
3.27233	203
3.27600	207
3.27967	210
3.28333	211
3.28700	213
3.29067	218
3.29433	222
3.29800	225
3.30167	226
3.30533	225
3.30900	226
3.31267	229
3.31633	231
3.32000	233
3.32367	236
3.32733	238
3.33100	240
3.33467	243
3.33833	244
3.34200	244
3.34567	245
3.34933	245
3.35300	246
3.35667	247
3.36033	249
3.36400	250
3.36767	255
3.37133	258
3.37500	259
3.37867	260
3.38233	262
3.38600	263
3.38967	265
3.39333	268
3.39700	271
3.40067	272
3.40433	272
3.40800	271
3.41167	273
3.41533	276
3.41900	278
3.42267	277
3.42633	278
3.43000	278
3.43367	278
3.43733	280
3.44100	283
3.44467	286
3.44833	286
3.45200	285
3.45567	284
3.45933	283
3.46300	286
3.46667	290
3.47033	292
3.47400	292
3.47767	290
3.48133	268
3.48500	238
3.48867	214
3.49233	199
3.49600	194
3.49967	201
3.50333	218
3.50700	242
3.51067	268
3.51433	298
3.51800	329
3.52167	357
3.52533	385
3.52900	412
3.53267	437
3.53633	458
3.54000	481
3.54367	500
3.54733	515
3.55100	530
3.55467	541
3.55833	553
3.56200	565
3.56567	575
3.56933	582
3.57300	589
3.57667	595
3.58033	601
3.58400	605
3.58767	610
3.59133	615
3.59500	621
3.59867	624
3.60233	626
3.60600	629
3.60967	633
3.61333	636
3.61700	638
3.62067	638
3.62433	639
3.62800	642
3.63167	646
3.63533	649
3.63900	652
3.64267	654
3.64633	652
3.65000	650
3.65367	649
3.65733	648
3.66100	648
3.66467	649
3.66833	652
3.67200	654
3.67567	654
3.67933	653
3.68300	652
3.68667	650
3.69033	649
3.69400	649
3.69767	651
3.70133	652
3.70500	652
3.70867	652
3.71233	651
3.71600	650
3.71967	649
3.72333	648
3.72700	648
3.73067	648
3.73433	648
3.73800	648
3.74167	648
3.74533	647
3.74900	647
3.75267	652
3.75633	655
3.76000	656
3.76367	656
3.76733	657
3.77100	656
3.77467	658
3.77833	660
3.78200	659
3.78567	657
3.78933	657
3.79300	657
3.79667	658
3.80033	660
3.80400	663
3.80767	662
3.81133	660
3.81500	659
3.81867	656
3.82233	656
3.82600	657
3.82967	657
3.83333	657
3.83700	659
3.84067	659
3.84433	659
3.84800	657
3.85167	655
3.85533	653
3.85900	653
3.86267	653
3.86633	653
3.87000	652
3.87367	651
3.87733	650
3.88100	649
3.88467	647
3.88833	644
3.89200	643
3.89567	643
3.89933	645
3.90300	645
3.90667	644
3.91033	642
3.91400	639
3.91767	637
3.92133	634
3.92500	632
3.92867	630
3.93233	629
3.93600	628
3.93967	628
3.94333	626
3.94700	625
3.95067	623
3.95433	620
3.95800	619
3.96167	619
3.96533	618
3.96900	619
3.97267	620
3.97633	619
3.98000	616
3.98367	614
3.98733	610
3.99100	607
3.99467	604
3.99833	600

[Status Trace (Column Oven Temperature)]
Interval(msec)	1000
# of Points	240
Start Time(min)	0.003
End Time(min)	3.986
Intensity Units	
Intensity Multiplier	1
R.Time (min)	Intensity
0.00280	35.06
0.01947	35.06
0.03613	35.06
0.05280	35.07
0.06947	35.07
0.08613	35.06
0.10280	35.04
0.11947	35.04
0.13613	35.04
0.15280	35.04
0.16947	35.04
0.18613	35.05
0.20280	35.06
0.21947	35.06
0.23613	35.06
0.25280	35.04
0.26947	35.04
0.28613	35.03
0.30280	35.02
0.31947	35.01
0.33613	35.00
0.35280	35.01
0.36947	35.01
0.38613	35.02
0.40280	35.02
0.41947	35.01
0.43613	35.02
0.45280	35.00
0.46947	35.01
0.48613	35.02
0.50280	35.02
0.51947	35.02
0.53613	35.01
0.55280	35.01
0.56947	35.02
0.58613	35.01
0.60280	35.01
0.61947	35.00
0.63613	34.99
0.65280	34.99
0.66947	35.00
0.68613	35.01
0.70280	35.00
0.71947	35.00
0.73613	34.99
0.75280	34.98
0.76947	34.97
0.78613	34.97
0.80280	34.97
0.81947	34.99
0.83613	35.00
0.85280	35.00
0.86947	35.01
0.88613	35.01
0.90280	35.03
0.91947	35.02
0.93613	35.01
0.95280	35.00
0.96947	35.00
0.98613	35.00
1.00280	35.01
1.01947	35.02
1.03613	35.02
1.05280	35.00
1.06947	35.01
1.08613	35.00
1.10280	34.99
1.11947	34.99
1.13613	35.00
1.15280	34.99
1.16947	34.99
1.18613	34.98
1.20280	34.98
1.21947	34.99
1.23613	35.00
1.25280	34.99
1.26947	34.99
1.28613	34.99
1.30280	34.99
1.31947	35.00
1.33613	35.00
1.35280	35.00
1.36947	34.99
1.38613	34.99
1.40280	34.99
1.41947	35.00
1.43613	34.99
1.45280	35.00
1.46947	35.00
1.48613	35.01
1.50280	35.01
1.51947	35.01
1.53613	35.00
1.55280	35.00
1.56947	35.01
1.58613	35.01
1.60280	35.05
1.61947	35.16
1.63613	35.32
1.65280	35.54
1.66947	35.85
1.68613	36.21
1.70280	36.57
1.71947	36.91
1.73613	37.24
1.75280	37.58
1.76947	37.92
1.78613	38.22
1.80280	38.56
1.81947	38.90
1.83613	39.23
1.85280	39.57
1.86947	39.89
1.88613	40.23
1.90280	40.56
1.91947	40.90
1.93613	41.21
1.95280	41.54
1.96947	41.87
1.98613	42.19
2.00280	42.53
2.01947	42.86
2.03613	43.15
2.05280	43.48
2.06947	43.83
2.08613	44.13
2.10280	44.45
2.11947	44.77
2.13613	45.10
2.15280	45.42
2.16947	45.75
2.18613	46.09
2.20280	46.41
2.21947	46.75
2.23613	47.07
2.25280	47.40
2.26947	47.71
2.28613	48.05
2.30280	48.40
2.31947	48.74
2.33613	49.05
2.35280	49.36
2.36947	49.60
2.38613	49.69
2.40280	49.69
2.41947	49.68
2.43613	49.70
2.45280	49.71
2.46947	49.70
2.48613	49.72
2.50280	49.72
2.51947	49.74
2.53613	49.72
2.55280	49.75
2.56947	49.75
2.58613	49.77
2.60280	49.80
2.61947	49.80
2.63613	49.81
2.65280	49.81
2.66947	49.82
2.68613	49.81
2.70280	49.82
2.71947	49.85
2.73613	49.85
2.75280	49.85
2.76947	49.86
2.78613	49.88
2.80280	49.89
2.81947	49.88
2.83613	49.87
2.85280	49.87
2.86947	49.88
2.88613	49.88
2.90280	49.90
2.91947	49.91
2.93613	49.93
2.95280	49.93
2.96947	49.95
2.98613	49.97
3.00280	49.99
3.01947	50.00
3.03613	50.00
3.05280	49.99
3.06947	49.99
3.08613	49.99
3.10280	49.99
3.11947	50.01
3.13613	50.02
3.15280	50.03
3.16947	50.03
3.18613	50.04
3.20280	50.05
3.21947	50.05
3.23613	50.06
3.25280	50.08
3.26947	50.09
3.28613	50.08
3.30280	50.08
3.31947	50.09
3.33613	50.09
3.35280	50.09
3.36947	50.10
3.38613	50.11
3.40280	50.12
3.41947	50.11
3.43613	50.10
3.45280	50.09
3.46947	50.08
3.48613	50.06
3.50280	50.05
3.51947	50.05
3.53613	50.05
3.55280	50.04
3.56947	50.04
3.58613	50.03
3.60280	50.02
3.61947	50.01
3.63613	50.01
3.65280	50.02
3.66947	50.02
3.68613	50.02
3.70280	50.03
3.71947	50.04
3.73613	50.04
3.75280	50.05
3.76947	50.06
3.78613	50.07
3.80280	50.07
3.81947	50.06
3.83613	50.07
3.85280	50.06
3.86947	50.06
3.88613	50.06
3.90280	50.05
3.91947	50.05
3.93613	50.06
3.95280	50.07
3.96947	50.06
3.98613	50.07

[Status Trace (Injection Unit Temperature)]
Interval(msec)	1000
# of Points	240
Start Time(min)	0.003
End Time(min)	3.986
Intensity Units	
Intensity Multiplier	1
R.Time (min)	Intensity
0.00280	99.98
0.01947	99.98
0.03613	99.98
0.05280	99.98
0.06947	99.98
0.08613	99.98
0.10280	99.98
0.11947	99.98
0.13613	99.98
0.15280	99.98
0.16947	99.98
0.18613	99.98
0.20280	99.99
0.21947	99.98
0.23613	99.99
0.25280	99.99
0.26947	99.99
0.28613	99.98
0.30280	99.99
0.31947	99.99
0.33613	99.99
0.35280	99.99
0.36947	99.99
0.38613	99.99
0.40280	99.99
0.41947	99.99
0.43613	99.99
0.45280	99.99
0.46947	99.99
0.48613	99.99
0.50280	99.99
0.51947	99.98
0.53613	99.99
0.55280	99.99
0.56947	99.99
0.58613	99.99
0.60280	99.99
0.61947	99.98
0.63613	99.99
0.65280	99.99
0.66947	99.99
0.68613	99.98
0.70280	99.99
0.71947	99.99
0.73613	99.99
0.75280	99.98
0.76947	99.99
0.78613	99.99
0.80280	99.99
0.81947	99.99
0.83613	99.99
0.85280	99.98
0.86947	99.98
0.88613	99.99
0.90280	99.99
0.91947	99.99
0.93613	99.99
0.95280	99.99
0.96947	99.99
0.98613	99.99
1.00280	99.99
1.01947	99.98
1.03613	99.99
1.05280	99.98
1.06947	99.98
1.08613	99.98
1.10280	99.98
1.11947	99.98
1.13613	99.98
1.15280	99.98
1.16947	99.98
1.18613	99.98
1.20280	99.98
1.21947	99.98
1.23613	99.98
1.25280	99.98
1.26947	99.98
1.28613	99.98
1.30280	99.98
1.31947	99.99
1.33613	99.98
1.35280	99.99
1.36947	99.98
1.38613	99.98
1.40280	99.98
1.41947	99.98
1.43613	99.98
1.45280	99.98
1.46947	99.99
1.48613	99.98
1.50280	99.98
1.51947	99.99
1.53613	99.98
1.55280	99.99
1.56947	99.98
1.58613	99.98
1.60280	99.98
1.61947	99.98
1.63613	99.99
1.65280	99.98
1.66947	99.98
1.68613	99.99
1.70280	99.98
1.71947	99.98
1.73613	99.98
1.75280	99.99
1.76947	99.99
1.78613	99.99
1.80280	99.99
1.81947	99.99
1.83613	99.99
1.85280	99.99
1.86947	99.99
1.88613	99.99
1.90280	99.98
1.91947	99.98
1.93613	99.99
1.95280	99.98
1.96947	99.98
1.98613	99.98
2.00280	99.98
2.01947	99.98
2.03613	99.98
2.05280	99.98
2.06947	99.98
2.08613	99.97
2.10280	99.98
2.11947	99.98
2.13613	99.97
2.15280	99.98
2.16947	99.97
2.18613	99.97
2.20280	99.97
2.21947	99.97
2.23613	99.97
2.25280	99.97
2.26947	99.97
2.28613	99.97
2.30280	99.97
2.31947	99.97
2.33613	99.97
2.35280	99.97
2.36947	99.96
2.38613	99.97
2.40280	99.96
2.41947	99.97
2.43613	99.97
2.45280	99.97
2.46947	99.97
2.48613	99.96
2.50280	99.97
2.51947	99.97
2.53613	99.97
2.55280	99.97
2.56947	99.97
2.58613	99.97
2.60280	99.97
2.61947	99.97
2.63613	99.98
2.65280	99.97
2.66947	99.98
2.68613	99.98
2.70280	99.98
2.71947	99.98
2.73613	99.98
2.75280	99.98
2.76947	99.99
2.78613	99.99
2.80280	99.99
2.81947	99.99
2.83613	99.99
2.85280	100.00
2.86947	100.00
2.88613	100.00
2.90280	100.00
2.91947	100.00
2.93613	100.00
2.95280	100.00
2.96947	100.01
2.98613	100.01
3.00280	100.01
3.01947	100.01
3.03613	100.01
3.05280	100.01
3.06947	100.02
3.08613	100.01
3.10280	100.02
3.11947	100.02
3.13613	100.02
3.15280	100.02
3.16947	100.02
3.18613	100.02
3.20280	100.02
3.21947	100.03
3.23613	100.03
3.25280	100.02
3.26947	100.03
3.28613	100.03
3.30280	100.03
3.31947	100.03
3.33613	100.04
3.35280	100.04
3.36947	100.03
3.38613	100.04
3.40280	100.03
3.41947	100.03
3.43613	100.03
3.45280	100.04
3.46947	100.04
3.48613	100.04
3.50280	100.04
3.51947	100.03
3.53613	100.04
3.55280	100.04
3.56947	100.04
3.58613	100.04
3.60280	100.04
3.61947	100.04
3.63613	100.04
3.65280	100.04
3.66947	100.04
3.68613	100.04
3.70280	100.04
3.71947	100.04
3.73613	100.04
3.75280	100.04
3.76947	100.04
3.78613	100.04
3.80280	100.04
3.81947	100.04
3.83613	100.04
3.85280	100.04
3.86947	100.04
3.88613	100.04
3.90280	100.04
3.91947	100.04
3.93613	100.04
3.95280	100.04
3.96947	100.04
3.98613	100.04

[Status Trace (Carrier Gas Pressure)]
Interval(msec)	1000
# of Points	240
Start Time(min)	0.003
End Time(min)	3.986
Intensity Units	
Intensity Multiplier	1
R.Time (min)	Intensity
0.00280	58.00
0.01947	56.14
0.03613	56.35
0.05280	58.65
0.06947	59.81
0.08613	58.27
0.10280	57.97
0.11947	58.01
0.13613	58.01
0.15280	58.01
0.16947	58.00
0.18613	58.00
0.20280	58.00
0.21947	58.00
0.23613	58.00
0.25280	58.00
0.26947	58.00
0.28613	58.00
0.30280	58.00
0.31947	58.00
0.33613	58.00
0.35280	58.00
0.36947	58.00
0.38613	58.00
0.40280	58.00
0.41947	58.00
0.43613	58.00
0.45280	58.00
0.46947	58.00
0.48613	58.00
0.50280	58.00
0.51947	58.00
0.53613	58.00
0.55280	58.00
0.56947	58.00
0.58613	58.00
0.60280	58.00
0.61947	58.00
0.63613	58.00
0.65280	58.00
0.66947	58.00
0.68613	58.00
0.70280	58.00
0.71947	58.00
0.73613	58.00
0.75280	58.00
0.76947	58.00
0.78613	58.00
0.80280	58.00
0.81947	58.00
0.83613	58.00
0.85280	58.00
0.86947	58.00
0.88613	58.00
0.90280	58.00
0.91947	58.00
0.93613	58.00
0.95280	58.00
0.96947	58.00
0.98613	58.00
1.00280	58.00
1.01947	58.00
1.03613	58.00
1.05280	58.00
1.06947	58.00
1.08613	58.00
1.10280	58.00
1.11947	58.00
1.13613	58.00
1.15280	58.00
1.16947	58.00
1.18613	58.00
1.20280	58.00
1.21947	58.00
1.23613	58.00
1.25280	58.00
1.26947	58.00
1.28613	58.00
1.30280	58.00
1.31947	58.00
1.33613	58.00
1.35280	58.00
1.36947	58.00
1.38613	58.00
1.40280	58.00
1.41947	58.00
1.43613	58.00
1.45280	58.00
1.46947	58.00
1.48613	58.00
1.50280	58.00
1.51947	58.00
1.53613	58.00
1.55280	58.00
1.56947	58.00
1.58613	58.00
1.60280	58.00
1.61947	58.00
1.63613	58.00
1.65280	58.00
1.66947	58.01
1.68613	58.01
1.70280	58.00
1.71947	58.00
1.73613	58.00
1.75280	58.00
1.76947	58.00
1.78613	58.00
1.80280	58.00
1.81947	58.00
1.83613	58.00
1.85280	58.00
1.86947	58.00
1.88613	58.00
1.90280	58.00
1.91947	58.00
1.93613	58.00
1.95280	58.00
1.96947	58.00
1.98613	58.00
2.00280	58.00
2.01947	58.00
2.03613	58.00
2.05280	58.00
2.06947	58.00
2.08613	58.00
2.10280	58.00
2.11947	58.00
2.13613	58.00
2.15280	58.00
2.16947	58.00
2.18613	58.00
2.20280	58.00
2.21947	58.00
2.23613	58.00
2.25280	58.00
2.26947	58.00
2.28613	58.00
2.30280	58.00
2.31947	58.00
2.33613	58.00
2.35280	58.00
2.36947	58.00
2.38613	57.99
2.40280	57.99
2.41947	58.00
2.43613	58.00
2.45280	58.00
2.46947	58.00
2.48613	58.00
2.50280	57.96
2.51947	58.01
2.53613	57.99
2.55280	58.00
2.56947	58.00
2.58613	58.00
2.60280	58.00
2.61947	58.00
2.63613	58.00
2.65280	58.00
2.66947	58.00
2.68613	58.00
2.70280	58.00
2.71947	58.00
2.73613	58.00
2.75280	58.00
2.76947	58.00
2.78613	58.00
2.80280	58.00
2.81947	58.00
2.83613	58.00
2.85280	58.00
2.86947	58.00
2.88613	58.00
2.90280	58.00
2.91947	58.00
2.93613	58.00
2.95280	58.00
2.96947	58.00
2.98613	58.00
3.00280	58.00
3.01947	58.00
3.03613	58.00
3.05280	58.00
3.06947	58.00
3.08613	58.00
3.10280	58.00
3.11947	58.00
3.13613	58.00
3.15280	58.00
3.16947	58.00
3.18613	58.00
3.20280	58.00
3.21947	58.00
3.23613	58.00
3.25280	58.00
3.26947	58.00
3.28613	58.00
3.30280	58.00
3.31947	58.00
3.33613	58.00
3.35280	58.00
3.36947	58.00
3.38613	58.00
3.40280	58.00
3.41947	58.00
3.43613	58.00
3.45280	58.00
3.46947	58.00
3.48613	58.00
3.50280	58.00
3.51947	58.00
3.53613	58.00
3.55280	58.00
3.56947	58.00
3.58613	58.00
3.60280	58.00
3.61947	58.00
3.63613	58.00
3.65280	58.00
3.66947	58.00
3.68613	58.00
3.70280	58.00
3.71947	58.00
3.73613	58.00
3.75280	58.00
3.76947	58.00
3.78613	58.00
3.80280	58.00
3.81947	58.00
3.83613	58.00
3.85280	58.00
3.86947	58.00
3.88613	58.00
3.90280	58.00
3.91947	58.00
3.93613	58.00
3.95280	58.00
3.96947	58.00
3.98613	58.00

[Status Trace (Carrier Gas Flow)]
Interval(msec)	1000
# of Points	240
Start Time(min)	0.003
End Time(min)	3.986
Intensity Units	
Intensity Multiplier	1
R.Time (min)	Intensity
0.00280	34.52
0.01947	34.60
0.03613	34.54
0.05280	34.55
0.06947	34.49
0.08613	34.52
0.10280	34.52
0.11947	34.51
0.13613	34.52
0.15280	34.52
0.16947	34.51
0.18613	34.52
0.20280	34.52
0.21947	34.52
0.23613	34.52
0.25280	34.52
0.26947	34.51
0.28613	34.51
0.30280	34.52
0.31947	34.52
0.33613	34.52
0.35280	34.52
0.36947	34.51
0.38613	34.52
0.40280	34.52
0.41947	34.52
0.43613	34.52
0.45280	34.52
0.46947	34.52
0.48613	34.51
0.50280	34.51
0.51947	34.53
0.53613	34.51
0.55280	34.53
0.56947	34.53
0.58613	34.52
0.60280	34.52
0.61947	34.52
0.63613	34.52
0.65280	34.52
0.66947	34.52
0.68613	34.52
0.70280	34.52
0.71947	34.52
0.73613	34.51
0.75280	34.52
0.76947	34.52
0.78613	34.52
0.80280	34.52
0.81947	34.52
0.83613	34.51
0.85280	34.52
0.86947	34.52
0.88613	34.52
0.90280	34.52
0.91947	34.51
0.93613	34.52
0.95280	34.52
0.96947	34.52
0.98613	34.52
1.00280	34.52
1.01947	34.52
1.03613	34.52
1.05280	34.52
1.06947	34.53
1.08613	34.52
1.10280	34.51
1.11947	34.51
1.13613	34.52
1.15280	34.52
1.16947	34.51
1.18613	34.52
1.20280	34.52
1.21947	34.52
1.23613	34.52
1.25280	34.52
1.26947	34.52
1.28613	34.52
1.30280	34.51
1.31947	34.51
1.33613	34.52
1.35280	34.52
1.36947	34.52
1.38613	34.52
1.40280	34.53
1.41947	34.52
1.43613	34.52
1.45280	34.53
1.46947	34.53
1.48613	34.53
1.50280	34.52
1.51947	34.52
1.53613	34.52
1.55280	34.52
1.56947	34.52
1.58613	34.52
1.60280	34.52
1.61947	34.52
1.63613	34.52
1.65280	34.52
1.66947	34.52
1.68613	34.51
1.70280	34.52
1.71947	34.53
1.73613	34.52
1.75280	34.51
1.76947	34.52
1.78613	34.53
1.80280	34.52
1.81947	34.52
1.83613	34.52
1.85280	34.52
1.86947	34.51
1.88613	34.51
1.90280	34.52
1.91947	34.52
1.93613	34.51
1.95280	34.52
1.96947	34.51
1.98613	34.52
2.00280	34.52
2.01947	34.52
2.03613	34.52
2.05280	34.51
2.06947	34.52
2.08613	34.52
2.10280	34.52
2.11947	34.52
2.13613	34.52
2.15280	34.52
2.16947	34.52
2.18613	34.52
2.20280	34.52
2.21947	34.52
2.23613	34.51
2.25280	34.52
2.26947	34.52
2.28613	34.52
2.30280	34.52
2.31947	34.52
2.33613	34.51
2.35280	34.52
2.36947	34.52
2.38613	34.52
2.40280	34.52
2.41947	34.52
2.43613	34.51
2.45280	34.52
2.46947	34.52
2.48613	34.52
2.50280	34.65
2.51947	34.52
2.53613	34.52
2.55280	34.52
2.56947	34.52
2.58613	34.52
2.60280	34.52
2.61947	34.52
2.63613	34.51
2.65280	34.52
2.66947	34.53
2.68613	34.52
2.70280	34.52
2.71947	34.52
2.73613	34.52
2.75280	34.52
2.76947	34.52
2.78613	34.52
2.80280	34.51
2.81947	34.52
2.83613	34.52
2.85280	34.52
2.86947	34.52
2.88613	34.52
2.90280	34.52
2.91947	34.52
2.93613	34.52
2.95280	34.52
2.96947	34.51
2.98613	34.52
3.00280	34.52
3.01947	34.52
3.03613	34.52
3.05280	34.52
3.06947	34.52
3.08613	34.52
3.10280	34.52
3.11947	34.52
3.13613	34.52
3.15280	34.52
3.16947	34.52
3.18613	34.52
3.20280	34.52
3.21947	34.52
3.23613	34.52
3.25280	34.52
3.26947	34.52
3.28613	34.53
3.30280	34.52
3.31947	34.52
3.33613	34.52
3.35280	34.52
3.36947	34.52
3.38613	34.52
3.40280	34.52
3.41947	34.52
3.43613	34.52
3.45280	34.52
3.46947	34.52
3.48613	34.52
3.50280	34.51
3.51947	34.52
3.53613	34.52
3.55280	34.52
3.56947	34.52
3.58613	34.52
3.60280	34.52
3.61947	34.52
3.63613	34.52
3.65280	34.51
3.66947	34.52
3.68613	34.52
3.70280	34.51
3.71947	34.52
3.73613	34.52
3.75280	34.51
3.76947	34.52
3.78613	34.51
3.80280	34.52
3.81947	34.52
3.83613	34.52
3.85280	34.52
3.86947	34.51
3.88613	34.51
3.90280	34.52
3.91947	34.52
3.93613	34.52
3.95280	34.52
3.96947	34.52
3.98613	34.51

[Status Trace (Column Flow)]
Interval(msec)	1000
# of Points	240
Start Time(min)	0.003
End Time(min)	3.986
Intensity Units	
Intensity Multiplier	1
R.Time (min)	Intensity
0.00280	5.55
0.01947	5.33
0.03613	5.36
0.05280	5.63
0.06947	5.76
0.08613	5.58
0.10280	5.55
0.11947	5.55
0.13613	5.55
0.15280	5.55
0.16947	5.55
0.18613	5.55
0.20280	5.55
0.21947	5.55
0.23613	5.55
0.25280	5.55
0.26947	5.55
0.28613	5.55
0.30280	5.55
0.31947	5.55
0.33613	5.55
0.35280	5.55
0.36947	5.55
0.38613	5.55
0.40280	5.55
0.41947	5.55
0.43613	5.55
0.45280	5.55
0.46947	5.55
0.48613	5.55
0.50280	5.55
0.51947	5.55
0.53613	5.55
0.55280	5.55
0.56947	5.55
0.58613	5.55
0.60280	5.55
0.61947	5.55
0.63613	5.55
0.65280	5.55
0.66947	5.55
0.68613	5.55
0.70280	5.55
0.71947	5.55
0.73613	5.55
0.75280	5.55
0.76947	5.55
0.78613	5.55
0.80280	5.55
0.81947	5.55
0.83613	5.55
0.85280	5.55
0.86947	5.55
0.88613	5.55
0.90280	5.55
0.91947	5.55
0.93613	5.55
0.95280	5.55
0.96947	5.55
0.98613	5.55
1.00280	5.55
1.01947	5.55
1.03613	5.55
1.05280	5.55
1.06947	5.55
1.08613	5.55
1.10280	5.55
1.11947	5.55
1.13613	5.55
1.15280	5.55
1.16947	5.55
1.18613	5.55
1.20280	5.55
1.21947	5.55
1.23613	5.55
1.25280	5.55
1.26947	5.55
1.28613	5.55
1.30280	5.55
1.31947	5.55
1.33613	5.55
1.35280	5.55
1.36947	5.55
1.38613	5.55
1.40280	5.55
1.41947	5.55
1.43613	5.55
1.45280	5.55
1.46947	5.55
1.48613	5.55
1.50280	5.55
1.51947	5.55
1.53613	5.55
1.55280	5.55
1.56947	5.55
1.58613	5.55
1.60280	5.55
1.61947	5.55
1.63613	5.54
1.65280	5.54
1.66947	5.53
1.68613	5.52
1.70280	5.50
1.71947	5.49
1.73613	5.48
1.75280	5.47
1.76947	5.46
1.78613	5.45
1.80280	5.44
1.81947	5.43
1.83613	5.42
1.85280	5.41
1.86947	5.40
1.88613	5.39
1.90280	5.38
1.91947	5.37
1.93613	5.36
1.95280	5.35
1.96947	5.34
1.98613	5.33
2.00280	5.32
2.01947	5.31
2.03613	5.30
2.05280	5.29
2.06947	5.28
2.08613	5.27
2.10280	5.27
2.11947	5.26
2.13613	5.25
2.15280	5.24
2.16947	5.23
2.18613	5.22
2.20280	5.21
2.21947	5.20
2.23613	5.19
2.25280	5.18
2.26947	5.17
2.28613	5.16
2.30280	5.15
2.31947	5.14
2.33613	5.13
2.35280	5.13
2.36947	5.12
2.38613	5.12
2.40280	5.12
2.41947	5.12
2.43613	5.12
2.45280	5.12
2.46947	5.12
2.48613	5.12
2.50280	5.11
2.51947	5.12
2.53613	5.11
2.55280	5.11
2.56947	5.11
2.58613	5.11
2.60280	5.11
2.61947	5.11
2.63613	5.11
2.65280	5.11
2.66947	5.11
2.68613	5.11
2.70280	5.11
2.71947	5.11
2.73613	5.11
2.75280	5.11
2.76947	5.11
2.78613	5.11
2.80280	5.11
2.81947	5.11
2.83613	5.11
2.85280	5.11
2.86947	5.11
2.88613	5.11
2.90280	5.11
2.91947	5.11
2.93613	5.11
2.95280	5.11
2.96947	5.11
2.98613	5.11
3.00280	5.11
3.01947	5.11
3.03613	5.11
3.05280	5.11
3.06947	5.11
3.08613	5.11
3.10280	5.11
3.11947	5.11
3.13613	5.11
3.15280	5.11
3.16947	5.11
3.18613	5.11
3.20280	5.11
3.21947	5.11
3.23613	5.11
3.25280	5.11
3.26947	5.11
3.28613	5.11
3.30280	5.11
3.31947	5.11
3.33613	5.11
3.35280	5.10
3.36947	5.10
3.38613	5.10
3.40280	5.10
3.41947	5.10
3.43613	5.10
3.45280	5.11
3.46947	5.11
3.48613	5.11
3.50280	5.11
3.51947	5.11
3.53613	5.11
3.55280	5.11
3.56947	5.11
3.58613	5.11
3.60280	5.11
3.61947	5.11
3.63613	5.11
3.65280	5.11
3.66947	5.11
3.68613	5.11
3.70280	5.11
3.71947	5.11
3.73613	5.11
3.75280	5.11
3.76947	5.11
3.78613	5.11
3.80280	5.11
3.81947	5.11
3.83613	5.11
3.85280	5.11
3.86947	5.11
3.88613	5.11
3.90280	5.11
3.91947	5.11
3.93613	5.11
3.95280	5.11
3.96947	5.11
3.98613	5.11

[Status Trace (Linear Velocity)]
Interval(msec)	1000
# of Points	240
Start Time(min)	0.003
End Time(min)	3.986
Intensity Units	
Intensity Multiplier	1
R.Time (min)	Intensity
0.00280	39.02
0.01947	37.80
0.03613	37.94
0.05280	39.44
0.06947	40.20
0.08613	39.19
0.10280	39.00
0.11947	39.02
0.13613	39.03
0.15280	39.02
0.16947	39.02
0.18613	39.02
0.20280	39.02
0.21947	39.02
0.23613	39.02
0.25280	39.02
0.26947	39.02
0.28613	39.02
0.30280	39.02
0.31947	39.02
0.33613	39.03
0.35280	39.02
0.36947	39.02
0.38613	39.02
0.40280	39.02
0.41947	39.02
0.43613	39.02
0.45280	39.02
0.46947	39.02
0.48613	39.02
0.50280	39.02
0.51947	39.02
0.53613	39.02
0.55280	39.02
0.56947	39.02
0.58613	39.02
0.60280	39.02
0.61947	39.02
0.63613	39.03
0.65280	39.03
0.66947	39.02
0.68613	39.02
0.70280	39.02
0.71947	39.02
0.73613	39.02
0.75280	39.03
0.76947	39.03
0.78613	39.03
0.80280	39.03
0.81947	39.03
0.83613	39.02
0.85280	39.02
0.86947	39.02
0.88613	39.02
0.90280	39.02
0.91947	39.02
0.93613	39.02
0.95280	39.02
0.96947	39.02
0.98613	39.02
1.00280	39.02
1.01947	39.02
1.03613	39.02
1.05280	39.02
1.06947	39.02
1.08613	39.02
1.10280	39.03
1.11947	39.03
1.13613	39.02
1.15280	39.03
1.16947	39.03
1.18613	39.03
1.20280	39.03
1.21947	39.03
1.23613	39.02
1.25280	39.02
1.26947	39.03
1.28613	39.02
1.30280	39.02
1.31947	39.02
1.33613	39.02
1.35280	39.02
1.36947	39.02
1.38613	39.02
1.40280	39.03
1.41947	39.02
1.43613	39.02
1.45280	39.02
1.46947	39.02
1.48613	39.02
1.50280	39.02
1.51947	39.02
1.53613	39.02
1.55280	39.02
1.56947	39.02
1.58613	39.02
1.60280	39.02
1.61947	39.01
1.63613	39.00
1.65280	38.97
1.66947	38.95
1.68613	38.91
1.70280	38.87
1.71947	38.84
1.73613	38.81
1.75280	38.78
1.76947	38.75
1.78613	38.72
1.80280	38.69
1.81947	38.65
1.83613	38.62
1.85280	38.59
1.86947	38.56
1.88613	38.53
1.90280	38.50
1.91947	38.47
1.93613	38.44
1.95280	38.41
1.96947	38.37
1.98613	38.34
2.00280	38.31
2.01947	38.28
2.03613	38.26
2.05280	38.23
2.06947	38.20
2.08613	38.17
2.10280	38.14
2.11947	38.11
2.13613	38.08
2.15280	38.05
2.16947	38.02
2.18613	37.99
2.20280	37.96
2.21947	37.93
2.23613	37.90
2.25280	37.87
2.26947	37.84
2.28613	37.81
2.30280	37.78
2.31947	37.75
2.33613	37.72
2.35280	37.70
2.36947	37.67
2.38613	37.66
2.40280	37.66
2.41947	37.67
2.43613	37.67
2.45280	37.66
2.46947	37.66
2.48613	37.66
2.50280	37.64
2.51947	37.67
2.53613	37.66
2.55280	37.66
2.56947	37.66
2.58613	37.66
2.60280	37.66
2.61947	37.66
2.63613	37.66
2.65280	37.66
2.66947	37.66
2.68613	37.66
2.70280	37.66
2.71947	37.65
2.73613	37.65
2.75280	37.65
2.76947	37.65
2.78613	37.65
2.80280	37.65
2.81947	37.65
2.83613	37.65
2.85280	37.65
2.86947	37.65
2.88613	37.65
2.90280	37.65
2.91947	37.65
2.93613	37.65
2.95280	37.65
2.96947	37.64
2.98613	37.64
3.00280	37.64
3.01947	37.64
3.03613	37.64
3.05280	37.64
3.06947	37.64
3.08613	37.64
3.10280	37.64
3.11947	37.64
3.13613	37.64
3.15280	37.64
3.16947	37.64
3.18613	37.64
3.20280	37.64
3.21947	37.64
3.23613	37.63
3.25280	37.63
3.26947	37.63
3.28613	37.63
3.30280	37.63
3.31947	37.63
3.33613	37.63
3.35280	37.63
3.36947	37.63
3.38613	37.63
3.40280	37.63
3.41947	37.63
3.43613	37.63
3.45280	37.63
3.46947	37.63
3.48613	37.63
3.50280	37.64
3.51947	37.64
3.53613	37.64
3.55280	37.64
3.56947	37.64
3.58613	37.64
3.60280	37.64
3.61947	37.64
3.63613	37.64
3.65280	37.64
3.66947	37.64
3.68613	37.64
3.70280	37.64
3.71947	37.64
3.73613	37.64
3.75280	37.64
3.76947	37.63
3.78613	37.63
3.80280	37.63
3.81947	37.63
3.83613	37.63
3.85280	37.63
3.86947	37.63
3.88613	37.63
3.90280	37.64
3.91947	37.64
3.93613	37.63
3.95280	37.63
3.96947	37.63
3.98613	37.63

