[Header]
Application Name	LabSolutions
Version	5.110
Data File Name	C:\Users\User\Desktop\GC Analyses\Jack\Nachusa Grasslands Sampling\T4 Timepoint July 12th\T4_07122022_019.gcd
Output Date	3/17/2023
Output Time	12:04:51 PM

[File Information]
Type	Data File
Generated	3/14/2023 5:25:10 PM
Generated by	System Administrator
Modified	3/14/2023 5:31:52 PM
Modified by	System Administrator

[Sample Information]
Operator Name	System Administrator
Acquired	3/14/2023 5:27:51 PM
Sample Type	0:Unknown
Level	0
Sample Name	019
Sample ID	019
ISTD Amount1	1
ISTD Amount2	1
ISTD Amount3	1
ISTD Amount4	1
ISTD Amount5	1
ISTD Amount6	1
ISTD Amount7	1
ISTD Amount8	1
ISTD Amount9	1
ISTD Amount10	1
ISTD Amount11	1
ISTD Amount12	1
ISTD Amount13	1
ISTD Amount14	1
ISTD Amount15	1
ISTD Amount16	1
ISTD Amount17	1
ISTD Amount18	1
ISTD Amount19	1
ISTD Amount20	1
ISTD Amount21	1
ISTD Amount22	1
ISTD Amount23	1
ISTD Amount24	1
ISTD Amount25	1
ISTD Amount26	1
ISTD Amount27	1
ISTD Amount28	1
ISTD Amount29	1
ISTD Amount30	1
ISTD Amount31	1
ISTD Amount32	1
Sample Amount	1
Dilution Factor	1
Vial#	18
Injection Volume	1
Injection Count	1
Bar Code	

[Original Files]
Data File	C:\Users\User\Desktop\GC Analyses\Jack\Nachusa Grasslands Sampling\T4 Timepoint July 12th\T4_07122022_019.gcd
Method File	C:\LabSolutions\Data\GHG_4min_2022\ghg3_togas_w_acet_4 min_new_int.gcm
Batch File	C:\LabSolutions\Data\AutoSamplerTesting\T4_07122022.gcb
Report Format File	c:\LabSolutions\System\DEFAULT.lsr

[File Description]


[Configuration]
Instrument Name	C0B7VH3-Instrument1
Instrument #	1
Line #	1
# of Detectors	3
Detector ID	DET#1	DET#2	DET#3
Detector Name	FID	PTCD	ECD
# of Channels	1	1	1

[Peak Table(Ch1)]
# of Peaks	3
Peak#	R.Time	I.Time	F.Time	Area	Height	A/H	Conc.	Mark	ID#	Name	k'	Plate #	Plate Ht.	Tailing	Resolution	Sep.Factor	Area Ratio	Height Ratio	Conc. %	Norm Conc.
1	1.476	1.443	1.534	26659	13158	2.026	188.210	   	1	CO	0.000	9711	15.447	1.293	0.000	0.000	0	0	23.109	23.109
2	1.571	1.538	1.608	3752	2007	1.869	72.550	   	2	CH4	0.065	12399	12.097	1.064	1.639	0.000	0	0	8.908	8.908
3	2.000	1.952	2.323	2206202	1055734	2.090	553.697	   	3	CO2	0.355	17495	8.574	1.177	7.339	5.500	0	0	67.984	67.984

[Peak Table(Ch2)]
# of Peaks	0

[Peak Table(Ch3)]
# of Peaks	5
Peak#	R.Time	I.Time	F.Time	Area	Height	A/H	Conc.	Mark	ID#	Name	k'	Plate #	Plate Ht.	Tailing	Resolution	Sep.Factor	Area Ratio	Height Ratio	Conc. %	Norm Conc.
1	2.462	2.246	2.510	2267	624	3.634	0.000	   			0.000	8932	16.793	0.000	0.000	0.000	0	0	0.000	0.000
2	2.528	2.510	2.583	1181	373	3.164	0.000	 V 			0.027	4553	32.948	0.000	0.520	0.000	0	0	0.000	0.000
3	2.598	2.583	2.682	641	177	3.615	0.000	 V 			0.055	754	198.880	0.000	0.264	2.056	0	0	0.000	0.000
4	2.880	2.770	3.052	18272	4850	3.767	0.467	   	1	N2O	0.170	13315	11.265	1.502	1.181	3.081	0	0	100.000	100.000
5	3.338	3.151	3.995	16486	582	28.308	0.000	   	2	SF6	0.356	173	869.499	2.230	0.821	2.096	0	0	0.000	0.000

[Compound Results(Ch1)]
# of IDs	6
ID#	Name	R.Time	Area	Height	Conc.	Curve	3rd	2nd	1st	Constant	Area Ratio	Height Ratio	Conc. %	Norm Conc.
1	CO	1.476	26659	13158	188.210	Linear	0.000000e+00	0.000000e+00	1.416423e+002	0.000000e+00	0	0	23.109	23.109
2	CH4	1.571	3752	2007	72.550	Linear	0.000000e+00	0.000000e+00	5.171738e+001	0.000000e+00	0	0	8.908	8.908
3	CO2	2.000	2206202	1055734	553.697	Linear	0.000000e+00	0.000000e+00	3.984494e+003	0.000000e+00	0	0	67.984	67.984
4	Ethylene	0.000	0	0	0.000	Linear	0.000000e+00	0.000000e+00	0.000000e+00	0.000000e+00	0	0	0.000	0.000
5	Acetylene	0.000	0	0	0.000	Linear	0.000000e+00	0.000000e+00	0.000000e+00	0.000000e+00	0	0	0.000	0.000
6	Ethane	0.000	0	0	0.000	Linear	0.000000e+00	0.000000e+00	0.000000e+00	0.000000e+00	0	0	0.000	0.000

[Compound Results(Ch2)]
# of IDs	5
ID#	Name	R.Time	Area	Height	Conc.	Curve	3rd	2nd	1st	Constant	Area Ratio	Height Ratio	Conc. %	Norm Conc.
1	Hydrogen	0.000	0	0	0.000	Linear	0.000000e+00	0.000000e+00	0.000000e+00	0.000000e+00	0	0	0.000	0.000
2	Oxygen	0.000	0	0	0.000	Linear	0.000000e+00	0.000000e+00	0.000000e+00	0.000000e+00	0	0	0.000	0.000
3	Nitrogen	0.000	0	0	0.000	Linear	0.000000e+00	0.000000e+00	0.000000e+00	0.000000e+00	0	0	0.000	0.000
4	Methane	0.000	0	0	0.000	Linear	0.000000e+00	0.000000e+00	0.000000e+00	0.000000e+00	0	0	0.000	0.000
5	Carbon Monoxide	0.000	0	0	0.000	Linear	0.000000e+00	0.000000e+00	0.000000e+00	0.000000e+00	0	0	0.000	0.000

[Compound Results(Ch3)]
# of IDs	2
ID#	Name	R.Time	Area	Height	Conc.	Curve	3rd	2nd	1st	Constant	Area Ratio	Height Ratio	Conc. %	Norm Conc.
1	N2O	2.880	18272	4850	0.467	Linear	0.000000e+00	0.000000e+00	3.915173e+004	0.000000e+00	0	0	100.000	100.000
2	SF6	3.338	16486	582	0.000	Linear	0.000000e+00	0.000000e+00	0.000000e+00	0.000000e+00	0	0	0.000	0.000

[Group Results(Ch1)]
# of Groups	0

[Group Results(Ch2)]
# of Groups	0

[Group Results(Ch3)]
# of Groups	0

[Chromatogram (Ch1)]
Interval(msec)	220
# of Points	1091
Start Time(min)	0.002
End Time(min)	3.998
R.Time (min)	Intensity
0.00167	-31
0.00533	-37
0.00900	-36
0.01267	-28
0.01633	-16
0.02000	-6
0.02367	1
0.02733	7
0.03100	12
0.03467	14
0.03833	19
0.04200	25
0.04567	34
0.04933	33
0.05300	26
0.05667	17
0.06033	7
0.06400	-2
0.06767	-12
0.07133	-20
0.07500	-22
0.07867	-24
0.08233	-25
0.08600	-21
0.08967	-14
0.09333	-7
0.09700	-4
0.10067	0
0.10433	7
0.10800	11
0.11167	3
0.11533	-7
0.11900	-13
0.12267	-14
0.12633	-13
0.13000	-5
0.13367	4
0.13733	12
0.14100	14
0.14467	13
0.14833	15
0.15200	18
0.15567	17
0.15933	12
0.16300	6
0.16667	3
0.17033	9
0.17400	16
0.17767	20
0.18133	19
0.18500	20
0.18867	21
0.19233	23
0.19600	23
0.19967	23
0.20333	25
0.20700	32
0.21067	42
0.21433	49
0.21800	54
0.22167	54
0.22533	53
0.22900	54
0.23267	57
0.23633	66
0.24000	78
0.24367	90
0.24733	96
0.25100	90
0.25467	84
0.25833	83
0.26200	90
0.26567	96
0.26933	106
0.27300	112
0.27667	112
0.28033	111
0.28400	106
0.28767	96
0.29133	84
0.29500	77
0.29867	75
0.30233	73
0.30600	74
0.30967	74
0.31333	75
0.31700	76
0.32067	74
0.32433	72
0.32800	70
0.33167	67
0.33533	64
0.33900	58
0.34267	54
0.34633	46
0.35000	34
0.35367	39
0.35733	53
0.36100	56
0.36467	54
0.36833	47
0.37200	35
0.37567	25
0.37933	18
0.38300	16
0.38667	13
0.39033	18
0.39400	25
0.39767	32
0.40133	34
0.40500	32
0.40867	33
0.41233	32
0.41600	31
0.41967	30
0.42333	29
0.42700	24
0.43067	11
0.43433	5
0.43800	0
0.44167	-2
0.44533	-3
0.44900	-4
0.45267	8
0.45633	17
0.46000	22
0.46367	17
0.46733	17
0.47100	12
0.47467	5
0.47833	-1
0.48200	-5
0.48567	-7
0.48933	-7
0.49300	-7
0.49667	-9
0.50033	-6
0.50400	2
0.50767	5
0.51133	10
0.51500	19
0.51867	23
0.52233	21
0.52600	16
0.52967	12
0.53333	9
0.53700	6
0.54067	1
0.54433	-0
0.54800	4
0.55167	11
0.55533	19
0.55900	27
0.56267	29
0.56633	26
0.57000	26
0.57367	29
0.57733	29
0.58100	27
0.58467	36
0.58833	47
0.59200	54
0.59567	49
0.59933	31
0.60300	11
0.60667	-1
0.61033	-7
0.61400	-10
0.61767	-8
0.62133	-9
0.62500	-13
0.62867	-19
0.63233	-20
0.63600	-19
0.63967	-17
0.64333	-13
0.64700	-9
0.65067	-8
0.65433	-5
0.65800	-3
0.66167	-2
0.66533	-1
0.66900	2
0.67267	-2
0.67633	-2
0.68000	3
0.68367	11
0.68733	21
0.69100	24
0.69467	23
0.69833	18
0.70200	19
0.70567	23
0.70933	28
0.71300	31
0.71667	25
0.72033	7
0.72400	-1
0.72767	-1
0.73133	-1
0.73500	-3
0.73867	-10
0.74233	-13
0.74600	-11
0.74967	-7
0.75333	-1
0.75700	6
0.76067	17
0.76433	25
0.76800	24
0.77167	16
0.77533	11
0.77900	11
0.78267	13
0.78633	18
0.79000	23
0.79367	24
0.79733	25
0.80100	26
0.80467	21
0.80833	13
0.81200	6
0.81567	10
0.81933	17
0.82300	20
0.82667	22
0.83033	25
0.83400	27
0.83767	21
0.84133	15
0.84500	14
0.84867	18
0.85233	20
0.85600	17
0.85967	14
0.86333	7
0.86700	2
0.87067	-2
0.87433	-6
0.87800	-9
0.88167	-7
0.88533	-3
0.88900	-2
0.89267	-6
0.89633	-5
0.90000	-2
0.90367	0
0.90733	1
0.91100	0
0.91467	4
0.91833	8
0.92200	10
0.92567	8
0.92933	6
0.93300	7
0.93667	9
0.94033	8
0.94400	5
0.94767	4
0.95133	-2
0.95500	-9
0.95867	-13
0.96233	-12
0.96600	-13
0.96967	-19
0.97333	-26
0.97700	-26
0.98067	-15
0.98433	-6
0.98800	-7
0.99167	1
0.99533	4
0.99900	6
1.00267	6
1.00633	4
1.01000	1
1.01367	6
1.01733	10
1.02100	16
1.02467	18
1.02833	12
1.03200	7
1.03567	6
1.03933	6
1.04300	7
1.04667	6
1.05033	4
1.05400	-1
1.05767	-7
1.06133	-8
1.06500	-4
1.06867	2
1.07233	0
1.07600	-4
1.07967	-6
1.08333	-7
1.08700	-5
1.09067	0
1.09433	1
1.09800	-3
1.10167	-12
1.10533	-19
1.10900	-24
1.11267	-22
1.11633	-15
1.12000	-14
1.12367	-14
1.12733	-13
1.13100	-9
1.13467	-3
1.13833	-0
1.14200	1
1.14567	0
1.14933	2
1.15300	4
1.15667	-1
1.16033	-6
1.16400	-8
1.16767	-11
1.17133	-16
1.17500	-24
1.17867	-29
1.18233	-29
1.18600	-32
1.18967	-30
1.19333	-26
1.19700	-21
1.20067	-13
1.20433	-5
1.20800	2
1.21167	2
1.21533	-3
1.21900	-7
1.22267	-7
1.22633	-9
1.23000	-12
1.23367	-13
1.23733	-14
1.24100	-16
1.24467	-19
1.24833	-18
1.25200	-11
1.25567	-1
1.25933	9
1.26300	13
1.26667	8
1.27033	-7
1.27400	-20
1.27767	-28
1.28133	-36
1.28500	-42
1.28867	-42
1.29233	-40
1.29600	-36
1.29967	-30
1.30333	-24
1.30700	-19
1.31067	-17
1.31433	-16
1.31800	-13
1.32167	-10
1.32533	-11
1.32900	-10
1.33267	-10
1.33633	-12
1.34000	-13
1.34367	-9
1.34733	-12
1.35100	-16
1.35467	-18
1.35833	-18
1.36200	-16
1.36567	-14
1.36933	-16
1.37300	-24
1.37667	-30
1.38033	-27
1.38400	-22
1.38767	-16
1.39133	-11
1.39500	-12
1.39867	-19
1.40233	-29
1.40600	-36
1.40967	-39
1.41333	-38
1.41700	-37
1.42067	-32
1.42433	-25
1.42800	-22
1.43167	-26
1.43533	-35
1.43900	-34
1.44267	-7
1.44633	114
1.45000	508
1.45367	1559
1.45733	3523
1.46100	6087
1.46467	8655
1.46833	10808
1.47200	12343
1.47567	13139
1.47933	13074
1.48300	12109
1.48667	10423
1.49033	8374
1.49400	6347
1.49767	4594
1.50133	3210
1.50500	2182
1.50867	1447
1.51233	938
1.51600	586
1.51967	339
1.52333	176
1.52700	71
1.53067	1
1.53433	-41
1.53800	-52
1.54167	-18
1.54533	108
1.54900	367
1.55267	737
1.55633	1139
1.56000	1500
1.56367	1779
1.56733	1950
1.57100	1990
1.57467	1875
1.57833	1617
1.58200	1279
1.58567	935
1.58933	640
1.59300	415
1.59667	253
1.60033	143
1.60400	69
1.60767	21
1.61133	-12
1.61500	-37
1.61867	-52
1.62233	-62
1.62600	-73
1.62967	-81
1.63333	-87
1.63700	-94
1.64067	-94
1.64433	-89
1.64800	-83
1.65167	-75
1.65533	-72
1.65900	-74
1.66267	-77
1.66633	-82
1.67000	-84
1.67367	-85
1.67733	-84
1.68100	-78
1.68467	-72
1.68833	-69
1.69200	-67
1.69567	-64
1.69933	-61
1.70300	-59
1.70667	-58
1.71033	-60
1.71400	-65
1.71767	-72
1.72133	-78
1.72500	-80
1.72867	-71
1.73233	-59
1.73600	-54
1.73967	-53
1.74333	-52
1.74700	-55
1.75067	-61
1.75433	-64
1.75800	-59
1.76167	-53
1.76533	-43
1.76900	-33
1.77267	-26
1.77633	-23
1.78000	-27
1.78367	-33
1.78733	-34
1.79100	-28
1.79467	-23
1.79833	-26
1.80200	-30
1.80567	-40
1.80933	-55
1.81300	-65
1.81667	-73
1.82033	-78
1.82400	-75
1.82767	-71
1.83133	-70
1.83500	-70
1.83867	-69
1.84233	-63
1.84600	-56
1.84967	-51
1.85333	-49
1.85700	-52
1.86067	-55
1.86433	-57
1.86800	-60
1.87167	-61
1.87533	-53
1.87900	-43
1.88267	-33
1.88633	-23
1.89000	-15
1.89367	-9
1.89733	-8
1.90100	-14
1.90467	-21
1.90833	-24
1.91200	-21
1.91567	-16
1.91933	-10
1.92300	-0
1.92667	9
1.93033	17
1.93400	18
1.93767	15
1.94133	6
1.94500	-2
1.94867	-4
1.95233	10
1.95600	106
1.95967	706
1.96333	3749
1.96700	15396
1.97067	49328
1.97433	125379
1.97800	257743
1.98167	440127
1.98533	644080
1.98900	832986
1.99267	976199
1.99633	1053499
2.00000	1055783
2.00367	986681
2.00733	862916
2.01100	709651
2.01467	552777
2.01833	411731
2.02200	296389
2.02567	208400
2.02933	144524
2.03300	99721
2.03667	68999
2.04033	48211
2.04400	34226
2.04767	24812
2.05133	18434
2.05500	14061
2.05867	11014
2.06233	8853
2.06600	7283
2.06967	6115
2.07333	5227
2.07700	4536
2.08067	3996
2.08433	3559
2.08800	3203
2.09167	2904
2.09533	2647
2.09900	2425
2.10267	2230
2.10633	2063
2.11000	1913
2.11367	1779
2.11733	1657
2.12100	1554
2.12467	1462
2.12833	1375
2.13200	1296
2.13567	1227
2.13933	1168
2.14300	1120
2.14667	1077
2.15033	1033
2.15400	992
2.15767	957
2.16133	923
2.16500	887
2.16867	854
2.17233	820
2.17600	787
2.17967	756
2.18333	725
2.18700	697
2.19067	673
2.19433	654
2.19800	639
2.20167	626
2.20533	614
2.20900	599
2.21267	579
2.21633	561
2.22000	550
2.22367	541
2.22733	526
2.23100	524
2.23467	521
2.23833	510
2.24200	499
2.24567	487
2.24933	472
2.25300	451
2.25667	435
2.26033	421
2.26400	411
2.26767	397
2.27133	389
2.27500	382
2.27867	376
2.28233	369
2.28600	359
2.28967	352
2.29333	348
2.29700	345
2.30067	345
2.30433	341
2.30800	333
2.31167	326
2.31533	323
2.31900	320
2.32267	312
2.32633	308
2.33000	307
2.33367	308
2.33733	313
2.34100	317
2.34467	313
2.34833	314
2.35200	317
2.35567	311
2.35933	304
2.36300	301
2.36667	299
2.37033	294
2.37400	289
2.37767	287
2.38133	285
2.38500	288
2.38867	297
2.39233	295
2.39600	286
2.39967	289
2.40333	290
2.40700	287
2.41067	280
2.41433	269
2.41800	256
2.42167	245
2.42533	237
2.42900	234
2.43267	232
2.43633	227
2.44000	222
2.44367	217
2.44733	214
2.45100	213
2.45467	212
2.45833	211
2.46200	212
2.46567	215
2.46933	219
2.47300	224
2.47667	225
2.48033	222
2.48400	210
2.48767	209
2.49133	213
2.49500	216
2.49867	219
2.50233	223
2.50600	224
2.50967	224
2.51333	224
2.51700	229
2.52067	224
2.52433	219
2.52800	219
2.53167	221
2.53533	222
2.53900	223
2.54267	218
2.54633	217
2.55000	205
2.55367	206
2.55733	212
2.56100	208
2.56467	205
2.56833	206
2.57200	202
2.57567	198
2.57933	197
2.58300	199
2.58667	202
2.59033	206
2.59400	209
2.59767	218
2.60133	224
2.60500	220
2.60867	219
2.61233	216
2.61600	212
2.61967	216
2.62333	219
2.62700	220
2.63067	221
2.63433	221
2.63800	221
2.64167	217
2.64533	212
2.64900	209
2.65267	208
2.65633	211
2.66000	217
2.66367	225
2.66733	231
2.67100	233
2.67467	232
2.67833	230
2.68200	229
2.68567	228
2.68933	222
2.69300	217
2.69667	215
2.70033	215
2.70400	218
2.70767	218
2.71133	215
2.71500	218
2.71867	220
2.72233	220
2.72600	223
2.72967	233
2.73333	244
2.73700	247
2.74067	244
2.74433	231
2.74800	221
2.75167	228
2.75533	234
2.75900	237
2.76267	241
2.76633	244
2.77000	239
2.77367	234
2.77733	236
2.78100	240
2.78467	241
2.78833	239
2.79200	227
2.79567	210
2.79933	196
2.80300	191
2.80667	190
2.81033	189
2.81400	193
2.81767	197
2.82133	208
2.82500	221
2.82867	238
2.83233	247
2.83600	248
2.83967	246
2.84333	243
2.84700	238
2.85067	237
2.85433	242
2.85800	241
2.86167	232
2.86533	219
2.86900	207
2.87267	196
2.87633	176
2.88000	178
2.88367	181
2.88733	179
2.89100	177
2.89467	176
2.89833	177
2.90200	183
2.90567	193
2.90933	200
2.91300	204
2.91667	209
2.92033	212
2.92400	214
2.92767	220
2.93133	220
2.93500	216
2.93867	211
2.94233	207
2.94600	206
2.94967	207
2.95333	209
2.95700	211
2.96067	212
2.96433	211
2.96800	207
2.97167	212
2.97533	221
2.97900	225
2.98267	226
2.98633	229
2.99000	235
2.99367	239
2.99733	244
3.00100	247
3.00467	250
3.00833	252
3.01200	249
3.01567	246
3.01933	248
3.02300	238
3.02667	222
3.03033	222
3.03400	219
3.03767	216
3.04133	209
3.04500	208
3.04867	210
3.05233	216
3.05600	216
3.05967	207
3.06333	193
3.06700	185
3.07067	183
3.07433	180
3.07800	181
3.08167	187
3.08533	193
3.08900	193
3.09267	194
3.09633	200
3.10000	204
3.10367	206
3.10733	203
3.11100	200
3.11467	200
3.11833	202
3.12200	219
3.12567	229
3.12933	228
3.13300	220
3.13667	212
3.14033	208
3.14400	209
3.14767	208
3.15133	203
3.15500	198
3.15867	192
3.16233	183
3.16600	183
3.16967	182
3.17333	183
3.17700	191
3.18067	203
3.18433	211
3.18800	211
3.19167	209
3.19533	204
3.19900	195
3.20267	190
3.20633	189
3.21000	189
3.21367	188
3.21733	186
3.22100	189
3.22467	192
3.22833	193
3.23200	193
3.23567	189
3.23933	186
3.24300	184
3.24667	181
3.25033	180
3.25400	176
3.25767	174
3.26133	173
3.26500	175
3.26867	175
3.27233	175
3.27600	173
3.27967	175
3.28333	179
3.28700	183
3.29067	188
3.29433	194
3.29800	196
3.30167	191
3.30533	181
3.30900	171
3.31267	164
3.31633	164
3.32000	174
3.32367	187
3.32733	192
3.33100	191
3.33467	187
3.33833	175
3.34200	162
3.34567	153
3.34933	151
3.35300	155
3.35667	159
3.36033	161
3.36400	163
3.36767	165
3.37133	169
3.37500	173
3.37867	173
3.38233	171
3.38600	168
3.38967	167
3.39333	169
3.39700	168
3.40067	169
3.40433	175
3.40800	172
3.41167	171
3.41533	172
3.41900	169
3.42267	162
3.42633	164
3.43000	167
3.43367	169
3.43733	173
3.44100	177
3.44467	179
3.44833	177
3.45200	174
3.45567	173
3.45933	169
3.46300	161
3.46667	151
3.47033	145
3.47400	147
3.47767	152
3.48133	157
3.48500	159
3.48867	163
3.49233	171
3.49600	174
3.49967	175
3.50333	179
3.50700	182
3.51067	179
3.51433	180
3.51800	181
3.52167	186
3.52533	187
3.52900	187
3.53267	188
3.53633	190
3.54000	182
3.54367	169
3.54733	162
3.55100	159
3.55467	156
3.55833	153
3.56200	147
3.56567	145
3.56933	143
3.57300	138
3.57667	136
3.58033	139
3.58400	138
3.58767	140
3.59133	137
3.59500	137
3.59867	136
3.60233	136
3.60600	140
3.60967	142
3.61333	141
3.61700	144
3.62067	148
3.62433	151
3.62800	156
3.63167	158
3.63533	152
3.63900	145
3.64267	144
3.64633	147
3.65000	152
3.65367	153
3.65733	157
3.66100	164
3.66467	169
3.66833	169
3.67200	165
3.67567	154
3.67933	140
3.68300	131
3.68667	121
3.69033	112
3.69400	104
3.69767	100
3.70133	94
3.70500	85
3.70867	87
3.71233	92
3.71600	100
3.71967	106
3.72333	112
3.72700	117
3.73067	123
3.73433	126
3.73800	130
3.74167	127
3.74533	123
3.74900	122
3.75267	122
3.75633	113
3.76000	115
3.76367	122
3.76733	122
3.77100	122
3.77467	126
3.77833	129
3.78200	124
3.78567	115
3.78933	112
3.79300	112
3.79667	116
3.80033	119
3.80400	120
3.80767	120
3.81133	123
3.81500	136
3.81867	148
3.82233	148
3.82600	141
3.82967	131
3.83333	121
3.83700	111
3.84067	96
3.84433	92
3.84800	94
3.85167	101
3.85533	105
3.85900	105
3.86267	103
3.86633	104
3.87000	109
3.87367	109
3.87733	104
3.88100	97
3.88467	96
3.88833	99
3.89200	107
3.89567	113
3.89933	115
3.90300	119
3.90667	120
3.91033	116
3.91400	105
3.91767	96
3.92133	91
3.92500	86
3.92867	87
3.93233	91
3.93600	93
3.93967	92
3.94333	93
3.94700	97
3.95067	98
3.95433	100
3.95800	105
3.96167	108
3.96533	105
3.96900	103
3.97267	101
3.97633	96
3.98000	92
3.98367	93
3.98733	95
3.99100	94
3.99467	89
3.99833	83

[Chromatogram (Ch2)]
Interval(msec)	220
# of Points	1091
Start Time(min)	0.002
End Time(min)	3.998
R.Time (min)	Intensity
0.00167	-1
0.00533	-1
0.00900	-1
0.01267	-2
0.01633	-2
0.02000	-2
0.02367	-2
0.02733	-2
0.03100	-3
0.03467	-3
0.03833	-3
0.04200	-3
0.04567	-4
0.04933	-4
0.05300	-4
0.05667	-4
0.06033	-4
0.06400	-4
0.06767	-4
0.07133	-4
0.07500	-4
0.07867	-4
0.08233	-4
0.08600	-4
0.08967	-4
0.09333	-4
0.09700	-4
0.10067	-4
0.10433	-4
0.10800	-3
0.11167	-3
0.11533	-3
0.11900	-3
0.12267	-3
0.12633	-3
0.13000	-3
0.13367	-3
0.13733	-3
0.14100	-3
0.14467	-3
0.14833	-2
0.15200	-2
0.15567	-3
0.15933	-3
0.16300	-3
0.16667	-3
0.17033	-3
0.17400	-4
0.17767	-4
0.18133	-4
0.18500	-4
0.18867	-4
0.19233	-4
0.19600	-4
0.19967	-4
0.20333	-4
0.20700	-4
0.21067	-3
0.21433	-3
0.21800	-3
0.22167	-3
0.22533	-3
0.22900	-3
0.23267	-4
0.23633	-4
0.24000	-3
0.24367	-3
0.24733	-3
0.25100	-3
0.25467	-2
0.25833	-2
0.26200	-2
0.26567	-2
0.26933	-1
0.27300	-1
0.27667	-1
0.28033	-1
0.28400	-1
0.28767	-1
0.29133	-1
0.29500	-2
0.29867	-2
0.30233	-2
0.30600	-2
0.30967	-3
0.31333	-3
0.31700	-4
0.32067	-4
0.32433	-5
0.32800	-5
0.33167	-5
0.33533	-5
0.33900	-5
0.34267	-5
0.34633	-5
0.35000	-5
0.35367	-5
0.35733	-5
0.36100	-4
0.36467	-4
0.36833	-4
0.37200	-4
0.37567	-4
0.37933	-4
0.38300	-4
0.38667	-4
0.39033	-4
0.39400	-4
0.39767	-4
0.40133	-4
0.40500	-4
0.40867	-4
0.41233	-4
0.41600	-4
0.41967	-3
0.42333	-3
0.42700	-3
0.43067	-3
0.43433	-3
0.43800	-3
0.44167	-3
0.44533	-3
0.44900	-3
0.45267	-3
0.45633	-3
0.46000	-3
0.46367	-3
0.46733	-3
0.47100	-3
0.47467	-3
0.47833	-3
0.48200	-3
0.48567	-4
0.48933	-4
0.49300	-4
0.49667	-4
0.50033	-4
0.50400	-4
0.50767	-4
0.51133	-4
0.51500	-4
0.51867	-4
0.52233	-5
0.52600	-5
0.52967	-5
0.53333	-5
0.53700	-6
0.54067	-6
0.54433	-6
0.54800	-6
0.55167	-6
0.55533	-6
0.55900	-6
0.56267	-6
0.56633	-5
0.57000	-5
0.57367	-5
0.57733	-5
0.58100	-5
0.58467	-5
0.58833	-5
0.59200	-5
0.59567	-5
0.59933	-5
0.60300	-5
0.60667	-5
0.61033	-5
0.61400	-5
0.61767	-5
0.62133	-5
0.62500	-5
0.62867	-5
0.63233	-6
0.63600	-6
0.63967	-6
0.64333	-6
0.64700	-6
0.65067	-6
0.65433	-6
0.65800	-5
0.66167	-5
0.66533	-5
0.66900	-5
0.67267	-5
0.67633	-4
0.68000	-4
0.68367	-4
0.68733	-4
0.69100	-4
0.69467	-4
0.69833	-4
0.70200	-4
0.70567	-4
0.70933	-3
0.71300	-3
0.71667	-3
0.72033	-3
0.72400	-3
0.72767	-3
0.73133	-2
0.73500	-2
0.73867	-2
0.74233	-2
0.74600	-2
0.74967	-3
0.75333	-3
0.75700	-3
0.76067	-3
0.76433	-3
0.76800	-3
0.77167	-4
0.77533	-4
0.77900	-4
0.78267	-4
0.78633	-4
0.79000	-4
0.79367	-5
0.79733	-5
0.80100	-5
0.80467	-5
0.80833	-5
0.81200	-5
0.81567	-5
0.81933	-5
0.82300	-5
0.82667	-5
0.83033	-5
0.83400	-6
0.83767	-6
0.84133	-6
0.84500	-6
0.84867	-5
0.85233	-5
0.85600	-5
0.85967	-5
0.86333	-5
0.86700	-4
0.87067	-4
0.87433	-4
0.87800	-4
0.88167	-4
0.88533	-3
0.88900	-3
0.89267	-3
0.89633	-2
0.90000	-2
0.90367	-2
0.90733	-2
0.91100	-3
0.91467	-3
0.91833	-3
0.92200	-4
0.92567	-4
0.92933	-4
0.93300	-4
0.93667	-4
0.94033	-4
0.94400	-4
0.94767	-4
0.95133	-4
0.95500	-4
0.95867	-4
0.96233	-4
0.96600	-5
0.96967	-5
0.97333	-5
0.97700	-4
0.98067	-4
0.98433	-5
0.98800	-5
0.99167	-5
0.99533	-5
0.99900	-5
1.00267	-5
1.00633	-5
1.01000	-5
1.01367	-5
1.01733	-5
1.02100	-5
1.02467	-5
1.02833	-5
1.03200	-5
1.03567	-4
1.03933	-4
1.04300	-4
1.04667	-4
1.05033	-4
1.05400	-4
1.05767	-4
1.06133	-4
1.06500	-4
1.06867	-4
1.07233	-4
1.07600	-4
1.07967	-4
1.08333	-4
1.08700	-4
1.09067	-5
1.09433	-5
1.09800	-5
1.10167	-5
1.10533	-5
1.10900	-6
1.11267	-6
1.11633	-6
1.12000	-6
1.12367	-6
1.12733	-6
1.13100	-6
1.13467	-6
1.13833	-6
1.14200	-5
1.14567	-5
1.14933	-5
1.15300	-4
1.15667	-4
1.16033	-4
1.16400	-4
1.16767	-3
1.17133	-3
1.17500	-3
1.17867	-2
1.18233	-2
1.18600	-2
1.18967	-2
1.19333	-3
1.19700	-3
1.20067	-4
1.20433	-4
1.20800	-4
1.21167	-4
1.21533	-4
1.21900	-5
1.22267	-5
1.22633	-5
1.23000	-5
1.23367	-5
1.23733	-6
1.24100	-6
1.24467	-6
1.24833	-6
1.25200	-7
1.25567	-7
1.25933	-7
1.26300	-7
1.26667	-7
1.27033	-7
1.27400	-7
1.27767	-6
1.28133	-6
1.28500	-5
1.28867	-5
1.29233	-4
1.29600	-4
1.29967	-3
1.30333	-2
1.30700	-2
1.31067	-2
1.31433	-2
1.31800	-2
1.32167	-2
1.32533	-2
1.32900	-2
1.33267	-1
1.33633	-2
1.34000	-2
1.34367	-2
1.34733	-2
1.35100	-2
1.35467	-3
1.35833	-3
1.36200	-3
1.36567	-3
1.36933	-3
1.37300	-4
1.37667	-4
1.38033	-4
1.38400	-5
1.38767	-5
1.39133	-4
1.39500	-4
1.39867	-4
1.40233	-4
1.40600	-4
1.40967	-3
1.41333	-4
1.41700	-4
1.42067	-4
1.42433	-4
1.42800	-4
1.43167	-4
1.43533	-5
1.43900	-5
1.44267	-5
1.44633	-5
1.45000	-4
1.45367	-4
1.45733	-4
1.46100	-4
1.46467	-4
1.46833	-4
1.47200	-4
1.47567	-4
1.47933	-4
1.48300	-4
1.48667	-4
1.49033	-5
1.49400	-5
1.49767	-5
1.50133	-5
1.50500	-5
1.50867	-6
1.51233	-6
1.51600	-6
1.51967	-6
1.52333	-6
1.52700	-6
1.53067	-6
1.53433	-6
1.53800	-6
1.54167	-5
1.54533	-5
1.54900	-5
1.55267	-5
1.55633	-5
1.56000	-5
1.56367	-5
1.56733	-5
1.57100	-5
1.57467	-5
1.57833	-5
1.58200	-5
1.58567	-5
1.58933	-6
1.59300	-6
1.59667	-6
1.60033	-7
1.60400	-8
1.60767	-9
1.61133	-11
1.61500	-13
1.61867	-15
1.62233	-18
1.62600	-21
1.62967	-24
1.63333	-28
1.63700	-32
1.64067	-36
1.64433	-39
1.64800	-43
1.65167	-48
1.65533	-52
1.65900	-56
1.66267	-60
1.66633	-65
1.67000	-70
1.67367	-75
1.67733	-79
1.68100	-84
1.68467	-88
1.68833	-92
1.69200	-96
1.69567	-99
1.69933	-102
1.70300	-104
1.70667	-105
1.71033	-106
1.71400	-107
1.71767	-107
1.72133	-107
1.72500	-107
1.72867	-107
1.73233	-107
1.73600	-107
1.73967	-108
1.74333	-108
1.74700	-109
1.75067	-110
1.75433	-112
1.75800	-113
1.76167	-114
1.76533	-115
1.76900	-115
1.77267	-116
1.77633	-116
1.78000	-115
1.78367	-115
1.78733	-114
1.79100	-114
1.79467	-114
1.79833	-114
1.80200	-114
1.80567	-115
1.80933	-115
1.81300	-115
1.81667	-115
1.82033	-116
1.82400	-116
1.82767	-117
1.83133	-117
1.83500	-118
1.83867	-118
1.84233	-118
1.84600	-118
1.84967	-118
1.85333	-117
1.85700	-117
1.86067	-116
1.86433	-115
1.86800	-115
1.87167	-115
1.87533	-115
1.87900	-115
1.88267	-116
1.88633	-116
1.89000	-116
1.89367	-116
1.89733	-116
1.90100	-116
1.90467	-116
1.90833	-115
1.91200	-115
1.91567	-115
1.91933	-115
1.92300	-116
1.92667	-116
1.93033	-115
1.93400	-115
1.93767	-115
1.94133	-114
1.94500	-113
1.94867	-113
1.95233	-112
1.95600	-112
1.95967	-111
1.96333	-111
1.96700	-111
1.97067	-111
1.97433	-111
1.97800	-111
1.98167	-111
1.98533	-111
1.98900	-110
1.99267	-110
1.99633	-110
2.00000	-110
2.00367	-110
2.00733	-110
2.01100	-110
2.01467	-110
2.01833	-109
2.02200	-109
2.02567	-108
2.02933	-108
2.03300	-108
2.03667	-108
2.04033	-107
2.04400	-107
2.04767	-106
2.05133	-106
2.05500	-105
2.05867	-105
2.06233	-104
2.06600	-104
2.06967	-103
2.07333	-103
2.07700	-103
2.08067	-102
2.08433	-102
2.08800	-102
2.09167	-102
2.09533	-101
2.09900	-101
2.10267	-101
2.10633	-101
2.11000	-101
2.11367	-101
2.11733	-101
2.12100	-101
2.12467	-101
2.12833	-101
2.13200	-101
2.13567	-101
2.13933	-100
2.14300	-100
2.14667	-100
2.15033	-100
2.15400	-100
2.15767	-99
2.16133	-99
2.16500	-99
2.16867	-98
2.17233	-98
2.17600	-98
2.17967	-97
2.18333	-96
2.18700	-96
2.19067	-95
2.19433	-95
2.19800	-94
2.20167	-94
2.20533	-93
2.20900	-93
2.21267	-92
2.21633	-92
2.22000	-92
2.22367	-91
2.22733	-91
2.23100	-91
2.23467	-91
2.23833	-91
2.24200	-91
2.24567	-91
2.24933	-92
2.25300	-92
2.25667	-91
2.26033	-91
2.26400	-90
2.26767	-89
2.27133	-88
2.27500	-87
2.27867	-87
2.28233	-86
2.28600	-85
2.28967	-85
2.29333	-84
2.29700	-84
2.30067	-83
2.30433	-84
2.30800	-84
2.31167	-84
2.31533	-84
2.31900	-84
2.32267	-83
2.32633	-82
2.33000	-81
2.33367	-80
2.33733	-80
2.34100	-80
2.34467	-79
2.34833	-79
2.35200	-79
2.35567	-78
2.35933	-77
2.36300	-76
2.36667	-75
2.37033	-73
2.37400	-71
2.37767	-68
2.38133	-65
2.38500	-61
2.38867	-57
2.39233	-52
2.39600	-48
2.39967	-43
2.40333	-38
2.40700	-33
2.41067	-29
2.41433	-25
2.41800	-21
2.42167	-19
2.42533	-17
2.42900	-16
2.43267	-15
2.43633	-15
2.44000	-14
2.44367	-12
2.44733	-11
2.45100	-10
2.45467	-9
2.45833	-8
2.46200	-7
2.46567	-7
2.46933	-6
2.47300	-6
2.47667	-5
2.48033	-4
2.48400	-3
2.48767	-2
2.49133	-1
2.49500	1
2.49867	2
2.50233	3
2.50600	4
2.50967	5
2.51333	5
2.51700	5
2.52067	5
2.52433	5
2.52800	6
2.53167	7
2.53533	7
2.53900	8
2.54267	8
2.54633	9
2.55000	9
2.55367	10
2.55733	10
2.56100	10
2.56467	11
2.56833	11
2.57200	11
2.57567	12
2.57933	12
2.58300	13
2.58667	13
2.59033	13
2.59400	14
2.59767	14
2.60133	15
2.60500	15
2.60867	15
2.61233	15
2.61600	16
2.61967	16
2.62333	16
2.62700	16
2.63067	15
2.63433	15
2.63800	15
2.64167	15
2.64533	15
2.64900	14
2.65267	14
2.65633	14
2.66000	15
2.66367	15
2.66733	15
2.67100	15
2.67467	16
2.67833	17
2.68200	17
2.68567	18
2.68933	18
2.69300	18
2.69667	18
2.70033	18
2.70400	19
2.70767	19
2.71133	20
2.71500	21
2.71867	21
2.72233	21
2.72600	22
2.72967	22
2.73333	22
2.73700	22
2.74067	22
2.74433	22
2.74800	22
2.75167	22
2.75533	22
2.75900	22
2.76267	22
2.76633	22
2.77000	22
2.77367	22
2.77733	22
2.78100	22
2.78467	23
2.78833	23
2.79200	23
2.79567	23
2.79933	23
2.80300	23
2.80667	23
2.81033	23
2.81400	23
2.81767	23
2.82133	23
2.82500	23
2.82867	23
2.83233	23
2.83600	23
2.83967	23
2.84333	22
2.84700	21
2.85067	17
2.85433	12
2.85800	4
2.86167	-8
2.86533	-23
2.86900	-42
2.87267	-66
2.87633	-94
2.88000	-127
2.88367	-163
2.88733	-204
2.89100	-248
2.89467	-295
2.89833	-345
2.90200	-397
2.90567	-451
2.90933	-506
2.91300	-561
2.91667	-617
2.92033	-673
2.92400	-728
2.92767	-781
2.93133	-833
2.93500	-885
2.93867	-941
2.94233	-1000
2.94600	-1055
2.94967	-1095
2.95333	-1111
2.95700	-1101
2.96067	-1066
2.96433	-1012
2.96800	-943
2.97167	-867
2.97533	-786
2.97900	-705
2.98267	-627
2.98633	-553
2.99000	-484
2.99367	-422
2.99733	-365
3.00100	-315
3.00467	-271
3.00833	-232
3.01200	-198
3.01567	-169
3.01933	-143
3.02300	-122
3.02667	-103
3.03033	-87
3.03400	-73
3.03767	-61
3.04133	-51
3.04500	-42
3.04867	-35
3.05233	-28
3.05600	-23
3.05967	-18
3.06333	-14
3.06700	-11
3.07067	-8
3.07433	-6
3.07800	-3
3.08167	-1
3.08533	0
3.08900	2
3.09267	3
3.09633	4
3.10000	6
3.10367	7
3.10733	7
3.11100	8
3.11467	9
3.11833	9
3.12200	10
3.12567	10
3.12933	10
3.13300	11
3.13667	11
3.14033	12
3.14400	12
3.14767	13
3.15133	13
3.15500	13
3.15867	13
3.16233	13
3.16600	13
3.16967	14
3.17333	14
3.17700	14
3.18067	14
3.18433	15
3.18800	15
3.19167	16
3.19533	17
3.19900	17
3.20267	17
3.20633	18
3.21000	18
3.21367	18
3.21733	19
3.22100	19
3.22467	20
3.22833	20
3.23200	20
3.23567	21
3.23933	21
3.24300	21
3.24667	21
3.25033	22
3.25400	22
3.25767	22
3.26133	23
3.26500	23
3.26867	23
3.27233	23
3.27600	24
3.27967	24
3.28333	23
3.28700	23
3.29067	23
3.29433	23
3.29800	23
3.30167	23
3.30533	23
3.30900	23
3.31267	22
3.31633	22
3.32000	22
3.32367	22
3.32733	22
3.33100	22
3.33467	22
3.33833	22
3.34200	22
3.34567	22
3.34933	22
3.35300	22
3.35667	21
3.36033	21
3.36400	21
3.36767	21
3.37133	21
3.37500	22
3.37867	22
3.38233	22
3.38600	22
3.38967	22
3.39333	22
3.39700	22
3.40067	22
3.40433	22
3.40800	22
3.41167	22
3.41533	23
3.41900	23
3.42267	23
3.42633	23
3.43000	24
3.43367	24
3.43733	24
3.44100	24
3.44467	24
3.44833	24
3.45200	24
3.45567	24
3.45933	24
3.46300	24
3.46667	24
3.47033	24
3.47400	24
3.47767	24
3.48133	24
3.48500	24
3.48867	23
3.49233	23
3.49600	23
3.49967	23
3.50333	22
3.50700	22
3.51067	21
3.51433	21
3.51800	21
3.52167	21
3.52533	21
3.52900	21
3.53267	21
3.53633	22
3.54000	22
3.54367	22
3.54733	22
3.55100	22
3.55467	22
3.55833	23
3.56200	23
3.56567	23
3.56933	23
3.57300	23
3.57667	23
3.58033	23
3.58400	22
3.58767	23
3.59133	23
3.59500	23
3.59867	23
3.60233	23
3.60600	23
3.60967	23
3.61333	23
3.61700	23
3.62067	24
3.62433	23
3.62800	23
3.63167	23
3.63533	23
3.63900	23
3.64267	23
3.64633	23
3.65000	23
3.65367	23
3.65733	23
3.66100	23
3.66467	23
3.66833	23
3.67200	23
3.67567	23
3.67933	23
3.68300	23
3.68667	23
3.69033	23
3.69400	23
3.69767	23
3.70133	23
3.70500	23
3.70867	23
3.71233	24
3.71600	24
3.71967	24
3.72333	24
3.72700	24
3.73067	24
3.73433	24
3.73800	24
3.74167	24
3.74533	24
3.74900	24
3.75267	25
3.75633	25
3.76000	25
3.76367	25
3.76733	25
3.77100	25
3.77467	25
3.77833	25
3.78200	25
3.78567	25
3.78933	25
3.79300	25
3.79667	25
3.80033	25
3.80400	24
3.80767	24
3.81133	24
3.81500	24
3.81867	24
3.82233	24
3.82600	24
3.82967	24
3.83333	24
3.83700	24
3.84067	24
3.84433	24
3.84800	24
3.85167	24
3.85533	24
3.85900	25
3.86267	25
3.86633	25
3.87000	25
3.87367	25
3.87733	25
3.88100	24
3.88467	24
3.88833	24
3.89200	24
3.89567	24
3.89933	24
3.90300	24
3.90667	25
3.91033	25
3.91400	25
3.91767	25
3.92133	25
3.92500	25
3.92867	25
3.93233	25
3.93600	25
3.93967	24
3.94333	24
3.94700	24
3.95067	24
3.95433	23
3.95800	23
3.96167	23
3.96533	23
3.96900	23
3.97267	23
3.97633	23
3.98000	24
3.98367	24
3.98733	24
3.99100	24
3.99467	24
3.99833	24

[Chromatogram (Ch3)]
Interval(msec)	220
# of Points	1091
Start Time(min)	0.002
End Time(min)	3.998
R.Time (min)	Intensity
0.00167	1
0.00533	1
0.00900	1
0.01267	2
0.01633	3
0.02000	3
0.02367	1
0.02733	0
0.03100	1
0.03467	0
0.03833	1
0.04200	3
0.04567	3
0.04933	3
0.05300	3
0.05667	1
0.06033	-0
0.06400	-1
0.06767	-0
0.07133	2
0.07500	4
0.07867	3
0.08233	3
0.08600	3
0.08967	2
0.09333	0
0.09700	-1
0.10067	-1
0.10433	-1
0.10800	0
0.11167	-0
0.11533	-0
0.11900	0
0.12267	-1
0.12633	-2
0.13000	-1
0.13367	-1
0.13733	-2
0.14100	-1
0.14467	0
0.14833	-0
0.15200	-1
0.15567	-2
0.15933	-2
0.16300	-3
0.16667	-3
0.17033	-2
0.17400	-3
0.17767	-4
0.18133	-5
0.18500	-5
0.18867	-4
0.19233	-1
0.19600	1
0.19967	4
0.20333	6
0.20700	7
0.21067	6
0.21433	4
0.21800	3
0.22167	2
0.22533	2
0.22900	1
0.23267	-0
0.23633	1
0.24000	2
0.24367	2
0.24733	-0
0.25100	-0
0.25467	0
0.25833	-0
0.26200	-2
0.26567	-3
0.26933	-3
0.27300	-2
0.27667	-1
0.28033	-1
0.28400	-1
0.28767	-2
0.29133	-2
0.29500	-1
0.29867	2
0.30233	5
0.30600	5
0.30967	8
0.31333	10
0.31700	10
0.32067	7
0.32433	5
0.32800	3
0.33167	2
0.33533	1
0.33900	1
0.34267	1
0.34633	3
0.35000	2
0.35367	2
0.35733	2
0.36100	1
0.36467	1
0.36833	-0
0.37200	-0
0.37567	-0
0.37933	-1
0.38300	-3
0.38667	-3
0.39033	-3
0.39400	-2
0.39767	-1
0.40133	-0
0.40500	1
0.40867	4
0.41233	4
0.41600	4
0.41967	4
0.42333	2
0.42700	3
0.43067	4
0.43433	4
0.43800	5
0.44167	6
0.44533	5
0.44900	3
0.45267	2
0.45633	2
0.46000	1
0.46367	-2
0.46733	-4
0.47100	-4
0.47467	-4
0.47833	-4
0.48200	-3
0.48567	-3
0.48933	-2
0.49300	-2
0.49667	-2
0.50033	-2
0.50400	-2
0.50767	-3
0.51133	-2
0.51500	-0
0.51867	0
0.52233	-1
0.52600	-2
0.52967	-1
0.53333	-1
0.53700	-0
0.54067	2
0.54433	3
0.54800	4
0.55167	5
0.55533	5
0.55900	3
0.56267	2
0.56633	-0
0.57000	-1
0.57367	-1
0.57733	-1
0.58100	2
0.58467	5
0.58833	9
0.59200	12
0.59567	12
0.59933	11
0.60300	9
0.60667	7
0.61033	7
0.61400	8
0.61767	9
0.62133	10
0.62500	11
0.62867	11
0.63233	11
0.63600	11
0.63967	12
0.64333	11
0.64700	10
0.65067	9
0.65433	8
0.65800	8
0.66167	8
0.66533	8
0.66900	8
0.67267	9
0.67633	9
0.68000	10
0.68367	12
0.68733	13
0.69100	12
0.69467	9
0.69833	7
0.70200	6
0.70567	6
0.70933	6
0.71300	8
0.71667	9
0.72033	9
0.72400	8
0.72767	8
0.73133	9
0.73500	8
0.73867	7
0.74233	7
0.74600	7
0.74967	8
0.75333	9
0.75700	9
0.76067	10
0.76433	9
0.76800	8
0.77167	8
0.77533	9
0.77900	9
0.78267	9
0.78633	9
0.79000	9
0.79367	8
0.79733	9
0.80100	10
0.80467	11
0.80833	12
0.81200	12
0.81567	13
0.81933	12
0.82300	11
0.82667	9
0.83033	6
0.83400	5
0.83767	8
0.84133	10
0.84500	10
0.84867	9
0.85233	8
0.85600	8
0.85967	10
0.86333	11
0.86700	10
0.87067	8
0.87433	6
0.87800	5
0.88167	5
0.88533	8
0.88900	8
0.89267	7
0.89633	5
0.90000	4
0.90367	6
0.90733	7
0.91100	8
0.91467	9
0.91833	9
0.92200	9
0.92567	10
0.92933	8
0.93300	7
0.93667	7
0.94033	7
0.94400	5
0.94767	4
0.95133	3
0.95500	4
0.95867	3
0.96233	4
0.96600	6
0.96967	9
0.97333	11
0.97700	12
0.98067	13
0.98433	13
0.98800	13
0.99167	13
0.99533	13
0.99900	13
1.00267	13
1.00633	12
1.01000	11
1.01367	10
1.01733	11
1.02100	11
1.02467	9
1.02833	9
1.03200	9
1.03567	9
1.03933	9
1.04300	9
1.04667	8
1.05033	9
1.05400	10
1.05767	10
1.06133	9
1.06500	11
1.06867	12
1.07233	11
1.07600	10
1.07967	10
1.08333	11
1.08700	12
1.09067	11
1.09433	10
1.09800	11
1.10167	10
1.10533	9
1.10900	8
1.11267	8
1.11633	10
1.12000	10
1.12367	12
1.12733	14
1.13100	14
1.13467	14
1.13833	13
1.14200	14
1.14567	14
1.14933	13
1.15300	12
1.15667	13
1.16033	12
1.16400	12
1.16767	13
1.17133	14
1.17500	13
1.17867	12
1.18233	12
1.18600	13
1.18967	13
1.19333	12
1.19700	11
1.20067	11
1.20433	10
1.20800	9
1.21167	9
1.21533	9
1.21900	9
1.22267	9
1.22633	8
1.23000	8
1.23367	8
1.23733	10
1.24100	13
1.24467	13
1.24833	12
1.25200	11
1.25567	10
1.25933	9
1.26300	7
1.26667	6
1.27033	6
1.27400	7
1.27767	7
1.28133	7
1.28500	9
1.28867	10
1.29233	9
1.29600	9
1.29967	9
1.30333	9
1.30700	9
1.31067	8
1.31433	7
1.31800	7
1.32167	7
1.32533	9
1.32900	8
1.33267	7
1.33633	8
1.34000	8
1.34367	7
1.34733	7
1.35100	7
1.35467	7
1.35833	9
1.36200	11
1.36567	12
1.36933	11
1.37300	10
1.37667	11
1.38033	11
1.38400	11
1.38767	12
1.39133	12
1.39500	12
1.39867	11
1.40233	11
1.40600	10
1.40967	10
1.41333	13
1.41700	14
1.42067	14
1.42433	12
1.42800	9
1.43167	10
1.43533	10
1.43900	11
1.44267	10
1.44633	11
1.45000	13
1.45367	15
1.45733	16
1.46100	15
1.46467	13
1.46833	12
1.47200	11
1.47567	12
1.47933	11
1.48300	11
1.48667	11
1.49033	12
1.49400	14
1.49767	16
1.50133	18
1.50500	18
1.50867	18
1.51233	17
1.51600	17
1.51967	18
1.52333	17
1.52700	15
1.53067	13
1.53433	12
1.53800	13
1.54167	14
1.54533	14
1.54900	13
1.55267	11
1.55633	11
1.56000	13
1.56367	15
1.56733	15
1.57100	14
1.57467	14
1.57833	14
1.58200	14
1.58567	15
1.58933	17
1.59300	18
1.59667	18
1.60033	16
1.60400	16
1.60767	15
1.61133	15
1.61500	14
1.61867	15
1.62233	15
1.62600	15
1.62967	15
1.63333	16
1.63700	18
1.64067	20
1.64433	21
1.64800	23
1.65167	24
1.65533	25
1.65900	23
1.66267	19
1.66633	17
1.67000	17
1.67367	18
1.67733	20
1.68100	22
1.68467	25
1.68833	26
1.69200	27
1.69567	28
1.69933	29
1.70300	28
1.70667	27
1.71033	27
1.71400	28
1.71767	28
1.72133	27
1.72500	27
1.72867	27
1.73233	26
1.73600	26
1.73967	26
1.74333	28
1.74700	31
1.75067	35
1.75433	36
1.75800	36
1.76167	36
1.76533	36
1.76900	35
1.77267	34
1.77633	34
1.78000	34
1.78367	34
1.78733	34
1.79100	35
1.79467	35
1.79833	35
1.80200	38
1.80567	41
1.80933	42
1.81300	43
1.81667	45
1.82033	44
1.82400	44
1.82767	43
1.83133	41
1.83500	40
1.83867	41
1.84233	42
1.84600	42
1.84967	42
1.85333	43
1.85700	44
1.86067	45
1.86433	47
1.86800	49
1.87167	51
1.87533	53
1.87900	54
1.88267	55
1.88633	55
1.89000	53
1.89367	54
1.89733	57
1.90100	58
1.90467	60
1.90833	60
1.91200	59
1.91567	60
1.91933	62
1.92300	63
1.92667	64
1.93033	64
1.93400	65
1.93767	67
1.94133	68
1.94500	70
1.94867	70
1.95233	70
1.95600	73
1.95967	76
1.96333	76
1.96700	76
1.97067	75
1.97433	78
1.97800	81
1.98167	83
1.98533	84
1.98900	85
1.99267	84
1.99633	83
2.00000	83
2.00367	85
2.00733	87
2.01100	88
2.01467	89
2.01833	90
2.02200	91
2.02567	92
2.02933	95
2.03300	97
2.03667	98
2.04033	97
2.04400	97
2.04767	97
2.05133	100
2.05500	103
2.05867	106
2.06233	105
2.06600	102
2.06967	103
2.07333	104
2.07700	106
2.08067	108
2.08433	111
2.08800	115
2.09167	117
2.09533	119
2.09900	121
2.10267	122
2.10633	121
2.11000	121
2.11367	123
2.11733	125
2.12100	126
2.12467	129
2.12833	131
2.13200	131
2.13567	132
2.13933	133
2.14300	136
2.14667	140
2.15033	143
2.15400	146
2.15767	148
2.16133	147
2.16500	146
2.16867	146
2.17233	147
2.17600	149
2.17967	153
2.18333	155
2.18700	155
2.19067	156
2.19433	157
2.19800	158
2.20167	160
2.20533	161
2.20900	160
2.21267	161
2.21633	164
2.22000	165
2.22367	165
2.22733	166
2.23100	167
2.23467	169
2.23833	171
2.24200	173
2.24567	174
2.24933	175
2.25300	175
2.25667	176
2.26033	176
2.26400	175
2.26767	175
2.27133	175
2.27500	177
2.27867	179
2.28233	180
2.28600	180
2.28967	181
2.29333	182
2.29700	185
2.30067	189
2.30433	191
2.30800	191
2.31167	191
2.31533	193
2.31900	195
2.32267	196
2.32633	197
2.33000	199
2.33367	201
2.33733	203
2.34100	204
2.34467	205
2.34833	205
2.35200	205
2.35567	206
2.35933	208
2.36300	211
2.36667	213
2.37033	214
2.37400	216
2.37767	217
2.38133	217
2.38500	214
2.38867	210
2.39233	210
2.39600	213
2.39967	217
2.40333	222
2.40700	225
2.41067	228
2.41433	229
2.41800	233
2.42167	234
2.42533	235
2.42900	237
2.43267	238
2.43633	237
2.44000	239
2.44367	290
2.44733	428
2.45100	578
2.45467	700
2.45833	770
2.46200	777
2.46567	751
2.46933	719
2.47300	696
2.47667	685
2.48033	674
2.48400	649
2.48767	611
2.49133	568
2.49500	526
2.49867	492
2.50233	470
2.50600	456
2.50967	451
2.51333	456
2.51700	469
2.52067	490
2.52433	510
2.52800	521
2.53167	518
2.53533	502
2.53900	479
2.54267	453
2.54633	428
2.55000	402
2.55367	377
2.55733	357
2.56100	342
2.56467	331
2.56833	322
2.57200	318
2.57567	316
2.57933	313
2.58300	313
2.58667	314
2.59033	316
2.59400	318
2.59767	318
2.60133	317
2.60500	317
2.60867	315
2.61233	308
2.61600	300
2.61967	292
2.62333	284
2.62700	274
2.63067	261
2.63433	250
2.63800	240
2.64167	231
2.64533	221
2.64900	211
2.65267	201
2.65633	189
2.66000	177
2.66367	168
2.66733	159
2.67100	150
2.67467	144
2.67833	138
2.68200	133
2.68567	132
2.68933	132
2.69300	131
2.69667	132
2.70033	134
2.70400	135
2.70767	138
2.71133	141
2.71500	145
2.71867	148
2.72233	152
2.72600	156
2.72967	160
2.73333	161
2.73700	163
2.74067	167
2.74433	171
2.74800	174
2.75167	176
2.75533	177
2.75900	178
2.76267	178
2.76633	178
2.77000	179
2.77367	181
2.77733	182
2.78100	186
2.78467	191
2.78833	195
2.79200	200
2.79567	205
2.79933	208
2.80300	212
2.80667	216
2.81033	223
2.81400	228
2.81767	234
2.82133	245
2.82500	262
2.82867	298
2.83233	364
2.83600	477
2.83967	663
2.84333	941
2.84700	1323
2.85067	1803
2.85433	2361
2.85800	2960
2.86167	3551
2.86533	4088
2.86900	4528
2.87267	4843
2.87633	5015
2.88000	5042
2.88367	4940
2.88733	4737
2.89100	4460
2.89467	4136
2.89833	3789
2.90200	3438
2.90567	3096
2.90933	2774
2.91300	2475
2.91667	2200
2.92033	1952
2.92400	1731
2.92767	1537
2.93133	1365
2.93500	1214
2.93867	1081
2.94233	964
2.94600	862
2.94967	773
2.95333	695
2.95700	627
2.96067	569
2.96433	520
2.96800	478
2.97167	442
2.97533	409
2.97900	380
2.98267	353
2.98633	330
2.99000	310
2.99367	293
2.99733	278
3.00100	267
3.00467	258
3.00833	251
3.01200	247
3.01567	243
3.01933	238
3.02300	234
3.02667	229
3.03033	225
3.03400	222
3.03767	221
3.04133	220
3.04500	217
3.04867	215
3.05233	212
3.05600	211
3.05967	213
3.06333	215
3.06700	215
3.07067	215
3.07433	213
3.07800	213
3.08167	213
3.08533	212
3.08900	210
3.09267	207
3.09633	206
3.10000	207
3.10367	208
3.10733	207
3.11100	207
3.11467	206
3.11833	203
3.12200	202
3.12567	202
3.12933	202
3.13300	203
3.13667	205
3.14033	205
3.14400	203
3.14767	199
3.15133	201
3.15500	214
3.15867	237
3.16233	265
3.16600	298
3.16967	335
3.17333	374
3.17700	413
3.18067	452
3.18433	489
3.18800	522
3.19167	548
3.19533	570
3.19900	587
3.20267	602
3.20633	617
3.21000	631
3.21367	645
3.21733	659
3.22100	672
3.22467	684
3.22833	694
3.23200	703
3.23567	711
3.23933	718
3.24300	724
3.24667	733
3.25033	741
3.25400	747
3.25767	754
3.26133	761
3.26500	766
3.26867	772
3.27233	777
3.27600	785
3.27967	793
3.28333	801
3.28700	807
3.29067	811
3.29433	815
3.29800	822
3.30167	828
3.30533	834
3.30900	841
3.31267	846
3.31633	850
3.32000	855
3.32367	859
3.32733	864
3.33100	867
3.33467	868
3.33833	870
3.34200	871
3.34567	873
3.34933	874
3.35300	874
3.35667	876
3.36033	877
3.36400	877
3.36767	875
3.37133	873
3.37500	872
3.37867	870
3.38233	868
3.38600	867
3.38967	865
3.39333	862
3.39700	860
3.40067	858
3.40433	854
3.40800	850
3.41167	847
3.41533	845
3.41900	841
3.42267	837
3.42633	834
3.43000	833
3.43367	831
3.43733	829
3.44100	826
3.44467	823
3.44833	819
3.45200	817
3.45567	813
3.45933	809
3.46300	807
3.46667	804
3.47033	800
3.47400	798
3.47767	797
3.48133	795
3.48500	793
3.48867	791
3.49233	790
3.49600	789
3.49967	788
3.50333	786
3.50700	785
3.51067	786
3.51433	787
3.51800	787
3.52167	785
3.52533	781
3.52900	778
3.53267	777
3.53633	776
3.54000	778
3.54367	779
3.54733	779
3.55100	780
3.55467	781
3.55833	780
3.56200	781
3.56567	781
3.56933	778
3.57300	777
3.57667	776
3.58033	775
3.58400	774
3.58767	773
3.59133	771
3.59500	772
3.59867	771
3.60233	771
3.60600	769
3.60967	768
3.61333	767
3.61700	769
3.62067	769
3.62433	768
3.62800	764
3.63167	759
3.63533	758
3.63900	759
3.64267	761
3.64633	761
3.65000	760
3.65367	758
3.65733	756
3.66100	755
3.66467	755
3.66833	755
3.67200	753
3.67567	751
3.67933	748
3.68300	745
3.68667	743
3.69033	744
3.69400	744
3.69767	742
3.70133	738
3.70500	736
3.70867	735
3.71233	734
3.71600	734
3.71967	731
3.72333	729
3.72700	727
3.73067	724
3.73433	723
3.73800	721
3.74167	717
3.74533	713
3.74900	710
3.75267	708
3.75633	705
3.76000	702
3.76367	701
3.76733	699
3.77100	696
3.77467	694
3.77833	693
3.78200	693
3.78567	693
3.78933	693
3.79300	692
3.79667	690
3.80033	686
3.80400	684
3.80767	684
3.81133	683
3.81500	683
3.81867	681
3.82233	678
3.82600	676
3.82967	675
3.83333	672
3.83700	668
3.84067	666
3.84433	665
3.84800	664
3.85167	664
3.85533	663
3.85900	661
3.86267	658
3.86633	655
3.87000	652
3.87367	650
3.87733	649
3.88100	649
3.88467	646
3.88833	643
3.89200	642
3.89567	640
3.89933	639
3.90300	638
3.90667	636
3.91033	633
3.91400	631
3.91767	628
3.92133	625
3.92500	622
3.92867	618
3.93233	617
3.93600	615
3.93967	614
3.94333	613
3.94700	611
3.95067	611
3.95433	612
3.95800	610
3.96167	608
3.96533	606
3.96900	604
3.97267	603
3.97633	602
3.98000	601
3.98367	599
3.98733	598
3.99100	597
3.99467	594
3.99833	591

[Status Trace (Column Oven Temperature)]
Interval(msec)	1000
# of Points	240
Start Time(min)	0.011
End Time(min)	3.995
Intensity Units	
Intensity Multiplier	1
R.Time (min)	Intensity
0.01137	35.00
0.02803	35.00
0.04470	35.00
0.06137	35.01
0.07803	35.01
0.09470	35.01
0.11137	35.00
0.12803	35.01
0.14470	35.01
0.16137	35.01
0.17803	35.01
0.19470	35.02
0.21137	35.02
0.22803	35.00
0.24470	34.99
0.26137	34.98
0.27803	34.97
0.29470	34.97
0.31137	34.99
0.32803	34.99
0.34470	35.00
0.36137	35.00
0.37803	35.02
0.39470	35.01
0.41137	35.01
0.42803	35.00
0.44470	35.01
0.46137	35.01
0.47803	35.02
0.49470	35.03
0.51137	35.03
0.52803	35.03
0.54470	35.03
0.56137	35.03
0.57803	35.03
0.59470	35.03
0.61137	35.03
0.62803	35.03
0.64470	35.03
0.66137	35.03
0.67803	35.03
0.69470	35.03
0.71137	35.01
0.72803	35.01
0.74470	35.00
0.76137	35.01
0.77803	35.01
0.79470	35.02
0.81137	35.03
0.82803	35.02
0.84470	35.02
0.86137	35.02
0.87803	35.02
0.89470	35.01
0.91137	35.02
0.92803	35.02
0.94470	35.01
0.96137	35.01
0.97803	35.01
0.99470	35.01
1.01137	35.01
1.02803	35.01
1.04470	35.00
1.06137	34.99
1.07803	35.00
1.09470	35.00
1.11137	35.00
1.12803	35.01
1.14470	35.01
1.16137	34.99
1.17803	34.98
1.19470	34.98
1.21137	34.98
1.22803	34.99
1.24470	35.00
1.26137	35.00
1.27803	34.99
1.29470	34.98
1.31137	34.97
1.32803	34.96
1.34470	34.96
1.36137	34.96
1.37803	34.96
1.39470	34.96
1.41137	34.96
1.42803	34.97
1.44470	34.96
1.46137	34.96
1.47803	34.96
1.49470	34.97
1.51137	34.97
1.52803	34.97
1.54470	34.97
1.56137	34.96
1.57803	34.97
1.59470	34.99
1.61137	35.06
1.62803	35.20
1.64470	35.41
1.66137	35.70
1.67803	36.06
1.69470	36.43
1.71137	36.75
1.72803	37.08
1.74470	37.41
1.76137	37.76
1.77803	38.08
1.79470	38.40
1.81137	38.73
1.82803	39.07
1.84470	39.41
1.86137	39.71
1.87803	40.05
1.89470	40.38
1.91137	40.71
1.92803	41.04
1.94470	41.36
1.96137	41.69
1.97803	42.01
1.99470	42.34
2.01137	42.66
2.02803	42.99
2.04470	43.32
2.06137	43.63
2.07803	43.95
2.09470	44.29
2.11137	44.63
2.12803	44.96
2.14470	45.28
2.16137	45.61
2.17803	45.95
2.19470	46.28
2.21137	46.60
2.22803	46.91
2.24470	47.27
2.26137	47.59
2.27803	47.92
2.29470	48.25
2.31137	48.59
2.32803	48.89
2.34470	49.21
2.36137	49.49
2.37803	49.66
2.39470	49.72
2.41137	49.70
2.42803	49.73
2.44470	49.72
2.46137	49.73
2.47803	49.75
2.49470	49.74
2.51137	49.78
2.52803	49.78
2.54470	49.80
2.56137	49.81
2.57803	49.81
2.59470	49.81
2.61137	49.81
2.62803	49.81
2.64470	49.83
2.66137	49.84
2.67803	49.84
2.69470	49.86
2.71137	49.85
2.72803	49.85
2.74470	49.86
2.76137	49.86
2.77803	49.87
2.79470	49.87
2.81137	49.87
2.82803	49.88
2.84470	49.87
2.86137	49.87
2.87803	49.87
2.89470	49.87
2.91137	49.89
2.92803	49.91
2.94470	49.93
2.96137	49.94
2.97803	49.96
2.99470	49.97
3.01137	49.98
3.02803	50.00
3.04470	50.01
3.06137	50.03
3.07803	50.04
3.09470	50.06
3.11137	50.07
3.12803	50.08
3.14470	50.09
3.16137	50.10
3.17803	50.10
3.19470	50.10
3.21137	50.09
3.22803	50.08
3.24470	50.07
3.26137	50.06
3.27803	50.05
3.29470	50.04
3.31137	50.04
3.32803	50.05
3.34470	50.06
3.36137	50.07
3.37803	50.07
3.39470	50.06
3.41137	50.07
3.42803	50.06
3.44470	50.05
3.46137	50.05
3.47803	50.06
3.49470	50.07
3.51137	50.08
3.52803	50.08
3.54470	50.09
3.56137	50.09
3.57803	50.09
3.59470	50.08
3.61137	50.07
3.62803	50.08
3.64470	50.09
3.66137	50.09
3.67803	50.10
3.69470	50.10
3.71137	50.09
3.72803	50.09
3.74470	50.08
3.76137	50.07
3.77803	50.06
3.79470	50.07
3.81137	50.06
3.82803	50.06
3.84470	50.06
3.86137	50.06
3.87803	50.06
3.89470	50.06
3.91137	50.05
3.92803	50.05
3.94470	50.06
3.96137	50.06
3.97803	50.05
3.99470	50.05

[Status Trace (Injection Unit Temperature)]
Interval(msec)	1000
# of Points	240
Start Time(min)	0.011
End Time(min)	3.995
Intensity Units	
Intensity Multiplier	1
R.Time (min)	Intensity
0.01137	99.98
0.02803	99.98
0.04470	99.98
0.06137	99.98
0.07803	99.98
0.09470	99.98
0.11137	99.98
0.12803	99.98
0.14470	99.98
0.16137	99.98
0.17803	99.98
0.19470	99.98
0.21137	99.99
0.22803	99.98
0.24470	99.98
0.26137	99.98
0.27803	99.98
0.29470	99.98
0.31137	99.98
0.32803	99.99
0.34470	99.98
0.36137	99.99
0.37803	99.98
0.39470	99.98
0.41137	99.98
0.42803	99.98
0.44470	99.98
0.46137	99.98
0.47803	99.98
0.49470	99.98
0.51137	99.98
0.52803	99.98
0.54470	99.98
0.56137	99.98
0.57803	99.98
0.59470	99.98
0.61137	99.98
0.62803	99.98
0.64470	99.98
0.66137	99.98
0.67803	99.98
0.69470	99.98
0.71137	99.98
0.72803	99.98
0.74470	99.98
0.76137	99.98
0.77803	99.98
0.79470	99.98
0.81137	99.97
0.82803	99.98
0.84470	99.98
0.86137	99.98
0.87803	99.98
0.89470	99.98
0.91137	99.98
0.92803	99.98
0.94470	99.98
0.96137	99.98
0.97803	99.98
0.99470	99.99
1.01137	99.98
1.02803	99.98
1.04470	99.99
1.06137	99.98
1.07803	99.99
1.09470	99.99
1.11137	99.99
1.12803	99.99
1.14470	99.98
1.16137	99.99
1.17803	99.99
1.19470	99.99
1.21137	99.99
1.22803	99.99
1.24470	99.99
1.26137	99.99
1.27803	99.99
1.29470	99.99
1.31137	99.99
1.32803	99.99
1.34470	99.99
1.36137	99.99
1.37803	99.99
1.39470	99.99
1.41137	99.99
1.42803	99.99
1.44470	99.99
1.46137	99.99
1.47803	99.99
1.49470	99.99
1.51137	99.99
1.52803	99.99
1.54470	99.99
1.56137	99.99
1.57803	99.99
1.59470	99.99
1.61137	99.99
1.62803	99.99
1.64470	99.99
1.66137	99.99
1.67803	99.99
1.69470	99.99
1.71137	99.99
1.72803	99.99
1.74470	99.99
1.76137	99.99
1.77803	99.99
1.79470	99.99
1.81137	99.99
1.82803	99.98
1.84470	99.98
1.86137	99.98
1.87803	99.98
1.89470	99.98
1.91137	99.98
1.92803	99.98
1.94470	99.97
1.96137	99.97
1.97803	99.97
1.99470	99.97
2.01137	99.97
2.02803	99.97
2.04470	99.97
2.06137	99.96
2.07803	99.96
2.09470	99.96
2.11137	99.96
2.12803	99.96
2.14470	99.96
2.16137	99.96
2.17803	99.96
2.19470	99.95
2.21137	99.96
2.22803	99.96
2.24470	99.96
2.26137	99.96
2.27803	99.96
2.29470	99.95
2.31137	99.96
2.32803	99.96
2.34470	99.96
2.36137	99.96
2.37803	99.96
2.39470	99.96
2.41137	99.96
2.42803	99.96
2.44470	99.96
2.46137	99.96
2.47803	99.96
2.49470	99.96
2.51137	99.96
2.52803	99.96
2.54470	99.96
2.56137	99.97
2.57803	99.97
2.59470	99.97
2.61137	99.97
2.62803	99.98
2.64470	99.98
2.66137	99.98
2.67803	99.98
2.69470	99.98
2.71137	99.99
2.72803	99.99
2.74470	99.99
2.76137	99.99
2.77803	99.99
2.79470	99.99
2.81137	99.99
2.82803	100.00
2.84470	100.00
2.86137	100.01
2.87803	100.01
2.89470	100.01
2.91137	100.01
2.92803	100.01
2.94470	100.01
2.96137	100.01
2.97803	100.02
2.99470	100.02
3.01137	100.02
3.02803	100.02
3.04470	100.02
3.06137	100.02
3.07803	100.02
3.09470	100.03
3.11137	100.03
3.12803	100.03
3.14470	100.03
3.16137	100.03
3.17803	100.03
3.19470	100.03
3.21137	100.03
3.22803	100.03
3.24470	100.03
3.26137	100.03
3.27803	100.03
3.29470	100.03
3.31137	100.03
3.32803	100.03
3.34470	100.03
3.36137	100.03
3.37803	100.04
3.39470	100.04
3.41137	100.03
3.42803	100.03
3.44470	100.03
3.46137	100.04
3.47803	100.04
3.49470	100.03
3.51137	100.04
3.52803	100.04
3.54470	100.04
3.56137	100.03
3.57803	100.04
3.59470	100.04
3.61137	100.03
3.62803	100.03
3.64470	100.04
3.66137	100.04
3.67803	100.04
3.69470	100.04
3.71137	100.04
3.72803	100.04
3.74470	100.04
3.76137	100.04
3.77803	100.04
3.79470	100.04
3.81137	100.04
3.82803	100.04
3.84470	100.04
3.86137	100.04
3.87803	100.04
3.89470	100.04
3.91137	100.04
3.92803	100.04
3.94470	100.04
3.96137	100.04
3.97803	100.04
3.99470	100.05

[Status Trace (Carrier Gas Pressure)]
Interval(msec)	1000
# of Points	240
Start Time(min)	0.011
End Time(min)	3.995
Intensity Units	
Intensity Multiplier	1
R.Time (min)	Intensity
0.01137	58.00
0.02803	55.04
0.04470	57.59
0.06137	59.67
0.07803	59.03
0.09470	58.00
0.11137	57.99
0.12803	58.01
0.14470	58.01
0.16137	58.00
0.17803	58.00
0.19470	58.00
0.21137	58.00
0.22803	58.00
0.24470	58.00
0.26137	58.00
0.27803	58.00
0.29470	58.00
0.31137	58.00
0.32803	58.00
0.34470	58.00
0.36137	58.00
0.37803	58.00
0.39470	58.00
0.41137	58.00
0.42803	58.00
0.44470	58.00
0.46137	58.00
0.47803	58.00
0.49470	58.00
0.51137	58.00
0.52803	58.00
0.54470	58.00
0.56137	58.00
0.57803	58.00
0.59470	58.00
0.61137	58.00
0.62803	58.00
0.64470	58.00
0.66137	58.00
0.67803	58.00
0.69470	58.00
0.71137	58.00
0.72803	58.00
0.74470	58.00
0.76137	58.00
0.77803	58.00
0.79470	58.00
0.81137	58.00
0.82803	58.00
0.84470	58.00
0.86137	58.00
0.87803	58.00
0.89470	58.00
0.91137	58.00
0.92803	58.00
0.94470	58.00
0.96137	58.00
0.97803	58.00
0.99470	58.00
1.01137	58.00
1.02803	58.00
1.04470	58.00
1.06137	58.00
1.07803	58.00
1.09470	58.00
1.11137	58.00
1.12803	58.00
1.14470	58.00
1.16137	58.00
1.17803	58.00
1.19470	58.00
1.21137	58.00
1.22803	58.00
1.24470	58.00
1.26137	58.00
1.27803	58.00
1.29470	58.00
1.31137	58.00
1.32803	58.00
1.34470	58.00
1.36137	58.00
1.37803	58.00
1.39470	58.00
1.41137	58.00
1.42803	58.00
1.44470	58.00
1.46137	58.00
1.47803	58.00
1.49470	58.00
1.51137	58.00
1.52803	58.00
1.54470	58.00
1.56137	58.00
1.57803	58.00
1.59470	58.00
1.61137	58.00
1.62803	58.00
1.64470	58.01
1.66137	58.00
1.67803	58.01
1.69470	58.00
1.71137	58.00
1.72803	58.00
1.74470	58.00
1.76137	58.00
1.77803	58.00
1.79470	58.00
1.81137	58.00
1.82803	58.00
1.84470	58.00
1.86137	58.00
1.87803	58.00
1.89470	58.00
1.91137	58.00
1.92803	58.00
1.94470	58.00
1.96137	58.00
1.97803	58.00
1.99470	58.00
2.01137	58.00
2.02803	58.00
2.04470	58.00
2.06137	58.00
2.07803	58.00
2.09470	58.00
2.11137	58.00
2.12803	58.00
2.14470	58.00
2.16137	58.00
2.17803	58.00
2.19470	58.00
2.21137	58.00
2.22803	58.00
2.24470	58.00
2.26137	58.00
2.27803	58.00
2.29470	58.00
2.31137	58.00
2.32803	58.00
2.34470	58.00
2.36137	58.00
2.37803	58.00
2.39470	57.99
2.41137	57.99
2.42803	58.00
2.44470	58.00
2.46137	58.00
2.47803	58.00
2.49470	58.00
2.51137	57.99
2.52803	57.98
2.54470	58.00
2.56137	58.00
2.57803	58.00
2.59470	58.00
2.61137	58.00
2.62803	58.00
2.64470	58.00
2.66137	58.00
2.67803	58.00
2.69470	58.00
2.71137	58.00
2.72803	58.00
2.74470	58.00
2.76137	58.00
2.77803	58.00
2.79470	58.00
2.81137	58.00
2.82803	58.00
2.84470	58.00
2.86137	58.00
2.87803	58.00
2.89470	58.00
2.91137	58.00
2.92803	58.00
2.94470	58.00
2.96137	58.00
2.97803	58.00
2.99470	58.00
3.01137	58.00
3.02803	58.00
3.04470	58.00
3.06137	58.00
3.07803	58.00
3.09470	58.00
3.11137	58.00
3.12803	58.00
3.14470	58.00
3.16137	58.00
3.17803	58.00
3.19470	58.00
3.21137	58.00
3.22803	58.00
3.24470	58.00
3.26137	58.00
3.27803	58.00
3.29470	58.00
3.31137	58.00
3.32803	58.00
3.34470	58.00
3.36137	58.00
3.37803	58.00
3.39470	58.00
3.41137	58.00
3.42803	58.00
3.44470	58.00
3.46137	58.00
3.47803	58.00
3.49470	58.00
3.51137	58.00
3.52803	58.00
3.54470	58.00
3.56137	58.00
3.57803	58.00
3.59470	58.00
3.61137	58.00
3.62803	58.00
3.64470	58.00
3.66137	58.00
3.67803	58.00
3.69470	58.00
3.71137	58.00
3.72803	58.00
3.74470	58.00
3.76137	58.00
3.77803	58.00
3.79470	58.00
3.81137	58.00
3.82803	58.00
3.84470	58.00
3.86137	58.00
3.87803	58.00
3.89470	58.00
3.91137	58.00
3.92803	58.00
3.94470	58.00
3.96137	58.00
3.97803	58.00
3.99470	58.00

[Status Trace (Carrier Gas Flow)]
Interval(msec)	1000
# of Points	240
Start Time(min)	0.011
End Time(min)	3.995
Intensity Units	
Intensity Multiplier	1
R.Time (min)	Intensity
0.01137	34.52
0.02803	34.54
0.04470	34.55
0.06137	34.53
0.07803	34.51
0.09470	34.52
0.11137	34.52
0.12803	34.52
0.14470	34.52
0.16137	34.52
0.17803	34.52
0.19470	34.52
0.21137	34.52
0.22803	34.52
0.24470	34.52
0.26137	34.52
0.27803	34.51
0.29470	34.52
0.31137	34.52
0.32803	34.52
0.34470	34.51
0.36137	34.52
0.37803	34.53
0.39470	34.52
0.41137	34.52
0.42803	34.51
0.44470	34.51
0.46137	34.51
0.47803	34.52
0.49470	34.52
0.51137	34.51
0.52803	34.52
0.54470	34.52
0.56137	34.52
0.57803	34.52
0.59470	34.52
0.61137	34.52
0.62803	34.52
0.64470	34.52
0.66137	34.52
0.67803	34.52
0.69470	34.52
0.71137	34.52
0.72803	34.52
0.74470	34.51
0.76137	34.52
0.77803	34.52
0.79470	34.52
0.81137	34.51
0.82803	34.52
0.84470	34.52
0.86137	34.52
0.87803	34.52
0.89470	34.51
0.91137	34.51
0.92803	34.52
0.94470	34.52
0.96137	34.52
0.97803	34.52
0.99470	34.52
1.01137	34.52
1.02803	34.52
1.04470	34.52
1.06137	34.52
1.07803	34.52
1.09470	34.51
1.11137	34.52
1.12803	34.53
1.14470	34.52
1.16137	34.52
1.17803	34.52
1.19470	34.52
1.21137	34.52
1.22803	34.52
1.24470	34.52
1.26137	34.52
1.27803	34.52
1.29470	34.52
1.31137	34.52
1.32803	34.52
1.34470	34.52
1.36137	34.51
1.37803	34.52
1.39470	34.52
1.41137	34.52
1.42803	34.52
1.44470	34.52
1.46137	34.52
1.47803	34.52
1.49470	34.52
1.51137	34.52
1.52803	34.51
1.54470	34.52
1.56137	34.52
1.57803	34.51
1.59470	34.52
1.61137	34.52
1.62803	34.52
1.64470	34.51
1.66137	34.52
1.67803	34.52
1.69470	34.52
1.71137	34.52
1.72803	34.52
1.74470	34.52
1.76137	34.52
1.77803	34.52
1.79470	34.52
1.81137	34.52
1.82803	34.52
1.84470	34.52
1.86137	34.52
1.87803	34.52
1.89470	34.52
1.91137	34.52
1.92803	34.52
1.94470	34.52
1.96137	34.52
1.97803	34.52
1.99470	34.52
2.01137	34.52
2.02803	34.52
2.04470	34.52
2.06137	34.52
2.07803	34.52
2.09470	34.52
2.11137	34.51
2.12803	34.52
2.14470	34.52
2.16137	34.52
2.17803	34.52
2.19470	34.52
2.21137	34.52
2.22803	34.52
2.24470	34.52
2.26137	34.52
2.27803	34.52
2.29470	34.52
2.31137	34.52
2.32803	34.53
2.34470	34.52
2.36137	34.51
2.37803	34.52
2.39470	34.52
2.41137	34.52
2.42803	34.52
2.44470	34.51
2.46137	34.52
2.47803	34.52
2.49470	34.52
2.51137	34.52
2.52803	34.52
2.54470	34.52
2.56137	34.52
2.57803	34.52
2.59470	34.52
2.61137	34.51
2.62803	34.52
2.64470	34.52
2.66137	34.52
2.67803	34.52
2.69470	34.52
2.71137	34.52
2.72803	34.52
2.74470	34.52
2.76137	34.52
2.77803	34.52
2.79470	34.52
2.81137	34.52
2.82803	34.52
2.84470	34.51
2.86137	34.52
2.87803	34.52
2.89470	34.52
2.91137	34.53
2.92803	34.52
2.94470	34.52
2.96137	34.52
2.97803	34.52
2.99470	34.52
3.01137	34.52
3.02803	34.52
3.04470	34.52
3.06137	34.52
3.07803	34.51
3.09470	34.52
3.11137	34.52
3.12803	34.52
3.14470	34.51
3.16137	34.51
3.17803	34.52
3.19470	34.52
3.21137	34.52
3.22803	34.52
3.24470	34.52
3.26137	34.52
3.27803	34.52
3.29470	34.52
3.31137	34.52
3.32803	34.52
3.34470	34.53
3.36137	34.52
3.37803	34.52
3.39470	34.53
3.41137	34.52
3.42803	34.52
3.44470	34.51
3.46137	34.51
3.47803	34.52
3.49470	34.52
3.51137	34.52
3.52803	34.52
3.54470	34.52
3.56137	34.51
3.57803	34.52
3.59470	34.52
3.61137	34.52
3.62803	34.51
3.64470	34.52
3.66137	34.52
3.67803	34.52
3.69470	34.52
3.71137	34.52
3.72803	34.52
3.74470	34.52
3.76137	34.52
3.77803	34.51
3.79470	34.52
3.81137	34.52
3.82803	34.51
3.84470	34.52
3.86137	34.52
3.87803	34.52
3.89470	34.52
3.91137	34.52
3.92803	34.52
3.94470	34.52
3.96137	34.52
3.97803	34.52
3.99470	34.52

[Status Trace (Column Flow)]
Interval(msec)	1000
# of Points	240
Start Time(min)	0.011
End Time(min)	3.995
Intensity Units	
Intensity Multiplier	1
R.Time (min)	Intensity
0.01137	5.56
0.02803	5.21
0.04470	5.51
0.06137	5.75
0.07803	5.68
0.09470	5.56
0.11137	5.55
0.12803	5.56
0.14470	5.56
0.16137	5.56
0.17803	5.56
0.19470	5.56
0.21137	5.56
0.22803	5.56
0.24470	5.56
0.26137	5.56
0.27803	5.56
0.29470	5.56
0.31137	5.56
0.32803	5.56
0.34470	5.56
0.36137	5.56
0.37803	5.56
0.39470	5.56
0.41137	5.56
0.42803	5.56
0.44470	5.56
0.46137	5.56
0.47803	5.56
0.49470	5.56
0.51137	5.55
0.52803	5.55
0.54470	5.55
0.56137	5.56
0.57803	5.55
0.59470	5.56
0.61137	5.56
0.62803	5.56
0.64470	5.55
0.66137	5.55
0.67803	5.55
0.69470	5.56
0.71137	5.56
0.72803	5.56
0.74470	5.56
0.76137	5.56
0.77803	5.56
0.79470	5.55
0.81137	5.55
0.82803	5.55
0.84470	5.55
0.86137	5.55
0.87803	5.55
0.89470	5.56
0.91137	5.56
0.92803	5.56
0.94470	5.56
0.96137	5.56
0.97803	5.56
0.99470	5.56
1.01137	5.56
1.02803	5.56
1.04470	5.56
1.06137	5.56
1.07803	5.56
1.09470	5.56
1.11137	5.56
1.12803	5.56
1.14470	5.56
1.16137	5.56
1.17803	5.56
1.19470	5.56
1.21137	5.56
1.22803	5.56
1.24470	5.56
1.26137	5.56
1.27803	5.56
1.29470	5.56
1.31137	5.56
1.32803	5.56
1.34470	5.56
1.36137	5.56
1.37803	5.56
1.39470	5.56
1.41137	5.56
1.42803	5.56
1.44470	5.56
1.46137	5.56
1.47803	5.56
1.49470	5.56
1.51137	5.56
1.52803	5.56
1.54470	5.56
1.56137	5.56
1.57803	5.56
1.59470	5.56
1.61137	5.55
1.62803	5.55
1.64470	5.54
1.66137	5.53
1.67803	5.52
1.69470	5.51
1.71137	5.50
1.72803	5.49
1.74470	5.48
1.76137	5.47
1.77803	5.46
1.79470	5.45
1.81137	5.44
1.82803	5.43
1.84470	5.42
1.86137	5.41
1.87803	5.40
1.89470	5.39
1.91137	5.38
1.92803	5.37
1.94470	5.36
1.96137	5.35
1.97803	5.34
1.99470	5.33
2.01137	5.32
2.02803	5.31
2.04470	5.30
2.06137	5.29
2.07803	5.28
2.09470	5.27
2.11137	5.26
2.12803	5.25
2.14470	5.24
2.16137	5.23
2.17803	5.22
2.19470	5.21
2.21137	5.21
2.22803	5.20
2.24470	5.19
2.26137	5.18
2.27803	5.17
2.29470	5.16
2.31137	5.15
2.32803	5.14
2.34470	5.13
2.36137	5.12
2.37803	5.12
2.39470	5.12
2.41137	5.12
2.42803	5.12
2.44470	5.12
2.46137	5.12
2.47803	5.12
2.49470	5.12
2.51137	5.12
2.52803	5.11
2.54470	5.12
2.56137	5.12
2.57803	5.12
2.59470	5.12
2.61137	5.12
2.62803	5.12
2.64470	5.11
2.66137	5.11
2.67803	5.11
2.69470	5.11
2.71137	5.11
2.72803	5.11
2.74470	5.11
2.76137	5.11
2.77803	5.11
2.79470	5.11
2.81137	5.11
2.82803	5.11
2.84470	5.11
2.86137	5.11
2.87803	5.11
2.89470	5.11
2.91137	5.11
2.92803	5.11
2.94470	5.11
2.96137	5.11
2.97803	5.11
2.99470	5.11
3.01137	5.11
3.02803	5.11
3.04470	5.11
3.06137	5.11
3.07803	5.11
3.09470	5.11
3.11137	5.11
3.12803	5.11
3.14470	5.11
3.16137	5.11
3.17803	5.11
3.19470	5.11
3.21137	5.11
3.22803	5.11
3.24470	5.11
3.26137	5.11
3.27803	5.11
3.29470	5.11
3.31137	5.11
3.32803	5.11
3.34470	5.11
3.36137	5.11
3.37803	5.11
3.39470	5.11
3.41137	5.11
3.42803	5.11
3.44470	5.11
3.46137	5.11
3.47803	5.11
3.49470	5.11
3.51137	5.11
3.52803	5.11
3.54470	5.11
3.56137	5.11
3.57803	5.11
3.59470	5.11
3.61137	5.11
3.62803	5.11
3.64470	5.11
3.66137	5.11
3.67803	5.11
3.69470	5.11
3.71137	5.11
3.72803	5.11
3.74470	5.11
3.76137	5.11
3.77803	5.11
3.79470	5.11
3.81137	5.11
3.82803	5.11
3.84470	5.11
3.86137	5.11
3.87803	5.11
3.89470	5.11
3.91137	5.11
3.92803	5.11
3.94470	5.11
3.96137	5.11
3.97803	5.11
3.99470	5.11

[Status Trace (Linear Velocity)]
Interval(msec)	1000
# of Points	240
Start Time(min)	0.011
End Time(min)	3.995
Intensity Units	
Intensity Multiplier	1
R.Time (min)	Intensity
0.01137	39.02
0.02803	37.08
0.04470	38.76
0.06137	40.12
0.07803	39.70
0.09470	39.02
0.11137	39.02
0.12803	39.03
0.14470	39.03
0.16137	39.03
0.17803	39.03
0.19470	39.03
0.21137	39.02
0.22803	39.03
0.24470	39.03
0.26137	39.03
0.27803	39.03
0.29470	39.03
0.31137	39.03
0.32803	39.03
0.34470	39.03
0.36137	39.02
0.37803	39.02
0.39470	39.02
0.41137	39.02
0.42803	39.02
0.44470	39.02
0.46137	39.02
0.47803	39.02
0.49470	39.02
0.51137	39.02
0.52803	39.02
0.54470	39.02
0.56137	39.02
0.57803	39.02
0.59470	39.02
0.61137	39.02
0.62803	39.02
0.64470	39.02
0.66137	39.02
0.67803	39.02
0.69470	39.02
0.71137	39.02
0.72803	39.02
0.74470	39.03
0.76137	39.02
0.77803	39.02
0.79470	39.02
0.81137	39.02
0.82803	39.02
0.84470	39.02
0.86137	39.02
0.87803	39.02
0.89470	39.02
0.91137	39.02
0.92803	39.02
0.94470	39.02
0.96137	39.02
0.97803	39.02
0.99470	39.02
1.01137	39.02
1.02803	39.02
1.04470	39.03
1.06137	39.03
1.07803	39.02
1.09470	39.02
1.11137	39.02
1.12803	39.02
1.14470	39.02
1.16137	39.02
1.17803	39.03
1.19470	39.03
1.21137	39.03
1.22803	39.03
1.24470	39.03
1.26137	39.02
1.27803	39.03
1.29470	39.03
1.31137	39.03
1.32803	39.03
1.34470	39.03
1.36137	39.03
1.37803	39.03
1.39470	39.03
1.41137	39.03
1.42803	39.03
1.44470	39.03
1.46137	39.03
1.47803	39.03
1.49470	39.03
1.51137	39.03
1.52803	39.03
1.54470	39.03
1.56137	39.03
1.57803	39.03
1.59470	39.03
1.61137	39.02
1.62803	39.01
1.64470	38.99
1.66137	38.96
1.67803	38.93
1.69470	38.89
1.71137	38.86
1.72803	38.83
1.74470	38.80
1.76137	38.76
1.77803	38.73
1.79470	38.70
1.81137	38.67
1.82803	38.64
1.84470	38.60
1.86137	38.58
1.87803	38.55
1.89470	38.51
1.91137	38.48
1.92803	38.45
1.94470	38.42
1.96137	38.39
1.97803	38.36
1.99470	38.33
2.01137	38.30
2.02803	38.27
2.04470	38.24
2.06137	38.21
2.07803	38.18
2.09470	38.15
2.11137	38.12
2.12803	38.09
2.14470	38.06
2.16137	38.03
2.17803	38.00
2.19470	37.97
2.21137	37.94
2.22803	37.92
2.24470	37.88
2.26137	37.85
2.27803	37.82
2.29470	37.80
2.31137	37.77
2.32803	37.74
2.34470	37.71
2.36137	37.69
2.37803	37.67
2.39470	37.66
2.41137	37.66
2.42803	37.66
2.44470	37.66
2.46137	37.66
2.47803	37.66
2.49470	37.66
2.51137	37.66
2.52803	37.65
2.54470	37.66
2.56137	37.66
2.57803	37.66
2.59470	37.66
2.61137	37.66
2.62803	37.66
2.64470	37.66
2.66137	37.65
2.67803	37.65
2.69470	37.65
2.71137	37.65
2.72803	37.65
2.74470	37.65
2.76137	37.65
2.77803	37.65
2.79470	37.65
2.81137	37.65
2.82803	37.65
2.84470	37.65
2.86137	37.65
2.87803	37.65
2.89470	37.65
2.91137	37.65
2.92803	37.65
2.94470	37.65
2.96137	37.65
2.97803	37.64
2.99470	37.64
3.01137	37.64
3.02803	37.64
3.04470	37.64
3.06137	37.64
3.07803	37.64
3.09470	37.64
3.11137	37.63
3.12803	37.63
3.14470	37.63
3.16137	37.63
3.17803	37.63
3.19470	37.63
3.21137	37.63
3.22803	37.63
3.24470	37.63
3.26137	37.63
3.27803	37.64
3.29470	37.64
3.31137	37.64
3.32803	37.64
3.34470	37.64
3.36137	37.63
3.37803	37.63
3.39470	37.63
3.41137	37.63
3.42803	37.63
3.44470	37.64
3.46137	37.64
3.47803	37.64
3.49470	37.63
3.51137	37.63
3.52803	37.63
3.54470	37.63
3.56137	37.63
3.57803	37.63
3.59470	37.63
3.61137	37.63
3.62803	37.63
3.64470	37.63
3.66137	37.63
3.67803	37.63
3.69470	37.63
3.71137	37.63
3.72803	37.63
3.74470	37.63
3.76137	37.63
3.77803	37.63
3.79470	37.63
3.81137	37.63
3.82803	37.63
3.84470	37.63
3.86137	37.63
3.87803	37.64
3.89470	37.64
3.91137	37.64
3.92803	37.64
3.94470	37.64
3.96137	37.63
3.97803	37.64
3.99470	37.64

