[Header]
Application Name	LabSolutions
Version	5.110
Data File Name	C:\Users\User\Desktop\GC Analyses\Jack\Nachusa Grasslands Sampling\T4 Timepoint July 12th\T4_07122022_069.gcd
Output Date	3/17/2023
Output Time	12:04:55 PM

[File Information]
Type	Data File
Generated	3/14/2023 11:07:05 PM
Generated by	System Administrator
Modified	3/14/2023 11:13:43 PM
Modified by	System Administrator

[Sample Information]
Operator Name	System Administrator
Acquired	3/14/2023 11:09:42 PM
Sample Type	0:Unknown
Level	0
Sample Name	069
Sample ID	069
ISTD Amount1	1
ISTD Amount2	1
ISTD Amount3	1
ISTD Amount4	1
ISTD Amount5	1
ISTD Amount6	1
ISTD Amount7	1
ISTD Amount8	1
ISTD Amount9	1
ISTD Amount10	1
ISTD Amount11	1
ISTD Amount12	1
ISTD Amount13	1
ISTD Amount14	1
ISTD Amount15	1
ISTD Amount16	1
ISTD Amount17	1
ISTD Amount18	1
ISTD Amount19	1
ISTD Amount20	1
ISTD Amount21	1
ISTD Amount22	1
ISTD Amount23	1
ISTD Amount24	1
ISTD Amount25	1
ISTD Amount26	1
ISTD Amount27	1
ISTD Amount28	1
ISTD Amount29	1
ISTD Amount30	1
ISTD Amount31	1
ISTD Amount32	1
Sample Amount	1
Dilution Factor	1
Vial#	68
Injection Volume	1
Injection Count	1
Bar Code	

[Original Files]
Data File	C:\Users\User\Desktop\GC Analyses\Jack\Nachusa Grasslands Sampling\T4 Timepoint July 12th\T4_07122022_069.gcd
Method File	C:\LabSolutions\Data\GHG_4min_2022\ghg3_togas_w_acet_4 min_new_int.gcm
Batch File	C:\LabSolutions\Data\AutoSamplerTesting\T4_07122022.gcb
Report Format File	c:\LabSolutions\System\DEFAULT.lsr

[File Description]


[Configuration]
Instrument Name	C0B7VH3-Instrument1
Instrument #	1
Line #	1
# of Detectors	3
Detector ID	DET#1	DET#2	DET#3
Detector Name	FID	PTCD	ECD
# of Channels	1	1	1

[Peak Table(Ch1)]
# of Peaks	3
Peak#	R.Time	I.Time	F.Time	Area	Height	A/H	Conc.	Mark	ID#	Name	k'	Plate #	Plate Ht.	Tailing	Resolution	Sep.Factor	Area Ratio	Height Ratio	Conc. %	Norm Conc.
1	1.476	1.435	1.538	34039	16687	2.040	240.314	   	1	CO	0.000	9667	15.516	1.311	0.000	0.000	0	0	15.954	15.954
2	1.571	1.538	1.622	4261	2168	1.965	82.387	 V 	2	CH4	0.065	11651	12.874	1.157	1.612	0.000	0	0	5.470	5.470
3	1.996	1.949	2.579	4715944	2252484	2.094	1183.574	   	3	CO2	0.353	17043	8.801	1.310	7.126	5.462	0	0	78.576	78.576

[Peak Table(Ch2)]
# of Peaks	0

[Peak Table(Ch3)]
# of Peaks	5
Peak#	R.Time	I.Time	F.Time	Area	Height	A/H	Conc.	Mark	ID#	Name	k'	Plate #	Plate Ht.	Tailing	Resolution	Sep.Factor	Area Ratio	Height Ratio	Conc. %	Norm Conc.
1	2.462	2.268	2.510	2998	817	3.671	0.000	   			0.000	10078	14.884	0.000	0.000	0.000	0	0	0.000	0.000
2	2.532	2.510	2.579	1235	414	2.986	0.000	 V 			0.028	5992	25.031	0.000	0.609	0.000	0	0	0.000	0.000
3	2.598	2.579	2.675	696	196	3.543	0.000	 V 			0.055	1796	83.519	0.000	0.351	1.947	0	0	0.000	0.000
4	2.880	2.792	3.027	18310	4872	3.758	0.468	   	1	N2O	0.170	13262	11.310	1.475	1.636	3.081	0	0	100.000	100.000
5	3.331	3.118	3.995	21956	726	30.227	0.000	   	2	SF6	0.353	234	640.608	2.009	0.929	2.079	0	0	0.000	0.000

[Compound Results(Ch1)]
# of IDs	6
ID#	Name	R.Time	Area	Height	Conc.	Curve	3rd	2nd	1st	Constant	Area Ratio	Height Ratio	Conc. %	Norm Conc.
1	CO	1.476	34039	16687	240.314	Linear	0.000000e+00	0.000000e+00	1.416423e+002	0.000000e+00	0	0	15.954	15.954
2	CH4	1.571	4261	2168	82.387	Linear	0.000000e+00	0.000000e+00	5.171738e+001	0.000000e+00	0	0	5.470	5.470
3	CO2	1.996	4715944	2252484	1183.574	Linear	0.000000e+00	0.000000e+00	3.984494e+003	0.000000e+00	0	0	78.576	78.576
4	Ethylene	0.000	0	0	0.000	Linear	0.000000e+00	0.000000e+00	0.000000e+00	0.000000e+00	0	0	0.000	0.000
5	Acetylene	0.000	0	0	0.000	Linear	0.000000e+00	0.000000e+00	0.000000e+00	0.000000e+00	0	0	0.000	0.000
6	Ethane	0.000	0	0	0.000	Linear	0.000000e+00	0.000000e+00	0.000000e+00	0.000000e+00	0	0	0.000	0.000

[Compound Results(Ch2)]
# of IDs	5
ID#	Name	R.Time	Area	Height	Conc.	Curve	3rd	2nd	1st	Constant	Area Ratio	Height Ratio	Conc. %	Norm Conc.
1	Hydrogen	0.000	0	0	0.000	Linear	0.000000e+00	0.000000e+00	0.000000e+00	0.000000e+00	0	0	0.000	0.000
2	Oxygen	0.000	0	0	0.000	Linear	0.000000e+00	0.000000e+00	0.000000e+00	0.000000e+00	0	0	0.000	0.000
3	Nitrogen	0.000	0	0	0.000	Linear	0.000000e+00	0.000000e+00	0.000000e+00	0.000000e+00	0	0	0.000	0.000
4	Methane	0.000	0	0	0.000	Linear	0.000000e+00	0.000000e+00	0.000000e+00	0.000000e+00	0	0	0.000	0.000
5	Carbon Monoxide	0.000	0	0	0.000	Linear	0.000000e+00	0.000000e+00	0.000000e+00	0.000000e+00	0	0	0.000	0.000

[Compound Results(Ch3)]
# of IDs	2
ID#	Name	R.Time	Area	Height	Conc.	Curve	3rd	2nd	1st	Constant	Area Ratio	Height Ratio	Conc. %	Norm Conc.
1	N2O	2.880	18310	4872	0.468	Linear	0.000000e+00	0.000000e+00	3.915173e+004	0.000000e+00	0	0	100.000	100.000
2	SF6	3.331	21956	726	0.000	Linear	0.000000e+00	0.000000e+00	0.000000e+00	0.000000e+00	0	0	0.000	0.000

[Group Results(Ch1)]
# of Groups	0

[Group Results(Ch2)]
# of Groups	0

[Group Results(Ch3)]
# of Groups	0

[Chromatogram (Ch1)]
Interval(msec)	220
# of Points	1091
Start Time(min)	0.002
End Time(min)	3.998
R.Time (min)	Intensity
0.00167	12
0.00533	11
0.00900	9
0.01267	10
0.01633	12
0.02000	19
0.02367	29
0.02733	35
0.03100	34
0.03467	32
0.03833	28
0.04200	25
0.04567	22
0.04933	18
0.05300	15
0.05667	12
0.06033	11
0.06400	13
0.06767	16
0.07133	22
0.07500	28
0.07867	31
0.08233	38
0.08600	48
0.08967	54
0.09333	54
0.09700	48
0.10067	38
0.10433	28
0.10800	23
0.11167	21
0.11533	14
0.11900	2
0.12267	-1
0.12633	3
0.13000	7
0.13367	11
0.13733	20
0.14100	22
0.14467	27
0.14833	34
0.15200	35
0.15567	29
0.15933	19
0.16300	16
0.16667	21
0.17033	29
0.17400	37
0.17767	43
0.18133	46
0.18500	42
0.18867	36
0.19233	31
0.19600	27
0.19967	26
0.20333	29
0.20700	30
0.21067	31
0.21433	32
0.21800	32
0.22167	33
0.22533	39
0.22900	48
0.23267	55
0.23633	56
0.24000	50
0.24367	41
0.24733	33
0.25100	28
0.25467	27
0.25833	29
0.26200	36
0.26567	46
0.26933	56
0.27300	64
0.27667	69
0.28033	68
0.28400	64
0.28767	63
0.29133	65
0.29500	68
0.29867	72
0.30233	74
0.30600	78
0.30967	84
0.31333	90
0.31700	98
0.32067	111
0.32433	120
0.32800	124
0.33167	126
0.33533	125
0.33900	120
0.34267	111
0.34633	99
0.35000	85
0.35367	74
0.35733	68
0.36100	66
0.36467	62
0.36833	57
0.37200	56
0.37567	55
0.37933	53
0.38300	46
0.38667	39
0.39033	40
0.39400	47
0.39767	45
0.40133	46
0.40500	50
0.40867	54
0.41233	53
0.41600	47
0.41967	37
0.42333	28
0.42700	19
0.43067	15
0.43433	12
0.43800	13
0.44167	13
0.44533	15
0.44900	17
0.45267	22
0.45633	29
0.46000	34
0.46367	33
0.46733	28
0.47100	23
0.47467	22
0.47833	20
0.48200	17
0.48567	16
0.48933	15
0.49300	10
0.49667	5
0.50033	0
0.50400	-6
0.50767	-14
0.51133	-20
0.51500	-20
0.51867	-15
0.52233	-10
0.52600	-4
0.52967	-1
0.53333	3
0.53700	5
0.54067	7
0.54433	12
0.54800	17
0.55167	11
0.55533	-2
0.55900	-13
0.56267	-16
0.56633	-14
0.57000	-12
0.57367	-9
0.57733	-3
0.58100	2
0.58467	4
0.58833	4
0.59200	3
0.59567	0
0.59933	-6
0.60300	-15
0.60667	-23
0.61033	-27
0.61400	-31
0.61767	-37
0.62133	-39
0.62500	-39
0.62867	-38
0.63233	-39
0.63600	-37
0.63967	-30
0.64333	-24
0.64700	-18
0.65067	-9
0.65433	-3
0.65800	-3
0.66167	-2
0.66533	1
0.66900	3
0.67267	-1
0.67633	-5
0.68000	-7
0.68367	-7
0.68733	-2
0.69100	3
0.69467	4
0.69833	1
0.70200	-3
0.70567	-5
0.70933	-8
0.71300	-6
0.71667	-0
0.72033	0
0.72400	-7
0.72767	-13
0.73133	-19
0.73500	-25
0.73867	-32
0.74233	-34
0.74600	-32
0.74967	-27
0.75333	-27
0.75700	-23
0.76067	-12
0.76433	-2
0.76800	1
0.77167	-2
0.77533	-9
0.77900	-23
0.78267	-42
0.78633	-51
0.79000	-53
0.79367	-49
0.79733	-41
0.80100	-31
0.80467	-18
0.80833	-3
0.81200	4
0.81567	7
0.81933	9
0.82300	1
0.82667	-12
0.83033	-24
0.83400	-32
0.83767	-37
0.84133	-41
0.84500	-39
0.84867	-40
0.85233	-45
0.85600	-49
0.85967	-44
0.86333	-39
0.86700	-35
0.87067	-30
0.87433	-23
0.87800	-18
0.88167	-15
0.88533	-17
0.88900	-19
0.89267	-22
0.89633	-24
0.90000	-28
0.90367	-32
0.90733	-36
0.91100	-35
0.91467	-28
0.91833	-27
0.92200	-33
0.92567	-38
0.92933	-38
0.93300	-40
0.93667	-41
0.94033	-40
0.94400	-38
0.94767	-32
0.95133	-25
0.95500	-26
0.95867	-32
0.96233	-35
0.96600	-28
0.96967	-11
0.97333	9
0.97700	23
0.98067	27
0.98433	26
0.98800	18
0.99167	7
0.99533	-3
0.99900	-15
1.00267	-25
1.00633	-28
1.01000	-27
1.01367	-25
1.01733	-21
1.02100	-14
1.02467	-1
1.02833	11
1.03200	15
1.03567	11
1.03933	7
1.04300	5
1.04667	-7
1.05033	-20
1.05400	-27
1.05767	-28
1.06133	-25
1.06500	-18
1.06867	-6
1.07233	4
1.07600	9
1.07967	8
1.08333	6
1.08700	2
1.09067	-2
1.09433	-6
1.09800	-15
1.10167	-21
1.10533	-25
1.10900	-25
1.11267	-24
1.11633	-25
1.12000	-34
1.12367	-39
1.12733	-33
1.13100	-23
1.13467	-21
1.13833	-25
1.14200	-29
1.14567	-33
1.14933	-33
1.15300	-33
1.15667	-30
1.16033	-15
1.16400	-10
1.16767	-10
1.17133	-8
1.17500	-5
1.17867	-4
1.18233	2
1.18600	6
1.18967	5
1.19333	-2
1.19700	-11
1.20067	-18
1.20433	-19
1.20800	-20
1.21167	-22
1.21533	-21
1.21900	-18
1.22267	-13
1.22633	-9
1.23000	-8
1.23367	-8
1.23733	-6
1.24100	-8
1.24467	-13
1.24833	-21
1.25200	-32
1.25567	-43
1.25933	-42
1.26300	-33
1.26667	-26
1.27033	-22
1.27400	-21
1.27767	-23
1.28133	-25
1.28500	-28
1.28867	-28
1.29233	-25
1.29600	-23
1.29967	-27
1.30333	-29
1.30700	-32
1.31067	-34
1.31433	-36
1.31800	-35
1.32167	-37
1.32533	-34
1.32900	-32
1.33267	-29
1.33633	-24
1.34000	-23
1.34367	-23
1.34733	-23
1.35100	-26
1.35467	-30
1.35833	-28
1.36200	-25
1.36567	-23
1.36933	-28
1.37300	-35
1.37667	-43
1.38033	-47
1.38400	-46
1.38767	-41
1.39133	-37
1.39500	-34
1.39867	-29
1.40233	-26
1.40600	-27
1.40967	-31
1.41333	-37
1.41700	-45
1.42067	-49
1.42433	-52
1.42800	-54
1.43167	-52
1.43533	-49
1.43900	-38
1.44267	4
1.44633	142
1.45000	594
1.45367	1882
1.45733	4360
1.46100	7625
1.46467	10908
1.46833	13657
1.47200	15613
1.47567	16629
1.47933	16544
1.48300	15318
1.48667	13191
1.49033	10621
1.49400	8077
1.49767	5872
1.50133	4128
1.50500	2825
1.50867	1890
1.51233	1241
1.51600	803
1.51967	511
1.52333	316
1.52700	190
1.53067	103
1.53433	37
1.53800	-1
1.54167	14
1.54533	135
1.54900	403
1.55267	792
1.55633	1215
1.56000	1593
1.56367	1884
1.56733	2059
1.57100	2088
1.57467	1948
1.57833	1660
1.58200	1304
1.58567	955
1.58933	657
1.59300	423
1.59667	258
1.60033	153
1.60400	85
1.60767	32
1.61133	-13
1.61500	-50
1.61867	-78
1.62233	-92
1.62600	-98
1.62967	-103
1.63333	-103
1.63700	-94
1.64067	-84
1.64433	-78
1.64800	-79
1.65167	-81
1.65533	-86
1.65900	-90
1.66267	-92
1.66633	-93
1.67000	-89
1.67367	-84
1.67733	-84
1.68100	-89
1.68467	-99
1.68833	-106
1.69200	-110
1.69567	-113
1.69933	-116
1.70300	-113
1.70667	-110
1.71033	-103
1.71400	-92
1.71767	-81
1.72133	-74
1.72500	-75
1.72867	-83
1.73233	-94
1.73600	-97
1.73967	-100
1.74333	-103
1.74700	-106
1.75067	-103
1.75433	-96
1.75800	-87
1.76167	-79
1.76533	-75
1.76900	-75
1.77267	-76
1.77633	-80
1.78000	-85
1.78367	-92
1.78733	-95
1.79100	-92
1.79467	-86
1.79833	-84
1.80200	-86
1.80567	-89
1.80933	-86
1.81300	-80
1.81667	-75
1.82033	-77
1.82400	-79
1.82767	-71
1.83133	-65
1.83500	-68
1.83867	-77
1.84233	-85
1.84600	-86
1.84967	-80
1.85333	-68
1.85700	-58
1.86067	-56
1.86433	-60
1.86800	-68
1.87167	-69
1.87533	-66
1.87900	-65
1.88267	-64
1.88633	-63
1.89000	-60
1.89367	-55
1.89733	-54
1.90100	-57
1.90467	-64
1.90833	-72
1.91200	-77
1.91567	-77
1.91933	-70
1.92300	-58
1.92667	-50
1.93033	-52
1.93400	-62
1.93767	-73
1.94133	-77
1.94500	-75
1.94867	-70
1.95233	-39
1.95600	185
1.95967	1658
1.96333	9251
1.96700	38890
1.97067	126689
1.97433	322486
1.97800	651653
1.98167	1078599
1.98533	1522083
1.98900	1899380
1.99267	2152363
1.99633	2252438
2.00000	2197908
2.00367	2010501
2.00733	1731053
2.01100	1409275
2.01467	1091632
2.01833	811261
2.02200	583964
2.02567	411133
2.02933	285744
2.03300	197722
2.03667	137257
2.04033	96244
2.04400	68576
2.04767	49896
2.05133	37201
2.05500	28473
2.05867	22379
2.06233	18034
2.06600	14870
2.06967	12513
2.07333	10724
2.07700	9330
2.08067	8219
2.08433	7319
2.08800	6579
2.09167	5956
2.09533	5425
2.09900	4974
2.10267	4589
2.10633	4261
2.11000	3973
2.11367	3711
2.11733	3477
2.12100	3275
2.12467	3090
2.12833	2918
2.13200	2762
2.13567	2617
2.13933	2484
2.14300	2363
2.14667	2254
2.15033	2161
2.15400	2073
2.15767	1985
2.16133	1905
2.16500	1835
2.16867	1769
2.17233	1704
2.17600	1635
2.17967	1565
2.18333	1499
2.18700	1441
2.19067	1390
2.19433	1346
2.19800	1301
2.20167	1255
2.20533	1216
2.20900	1184
2.21267	1158
2.21633	1137
2.22000	1106
2.22367	1068
2.22733	1038
2.23100	1015
2.23467	994
2.23833	972
2.24200	949
2.24567	927
2.24933	904
2.25300	878
2.25667	856
2.26033	838
2.26400	823
2.26767	808
2.27133	795
2.27500	784
2.27867	770
2.28233	751
2.28600	725
2.28967	699
2.29333	681
2.29700	666
2.30067	657
2.30433	650
2.30800	640
2.31167	624
2.31533	607
2.31900	589
2.32267	572
2.32633	564
2.33000	558
2.33367	550
2.33733	542
2.34100	541
2.34467	546
2.34833	547
2.35200	537
2.35567	518
2.35933	497
2.36300	487
2.36667	480
2.37033	472
2.37400	465
2.37767	456
2.38133	452
2.38500	451
2.38867	446
2.39233	441
2.39600	434
2.39967	429
2.40333	425
2.40700	421
2.41067	419
2.41433	418
2.41800	415
2.42167	413
2.42533	419
2.42900	432
2.43267	435
2.43633	425
2.44000	410
2.44367	397
2.44733	381
2.45100	365
2.45467	351
2.45833	342
2.46200	338
2.46567	332
2.46933	332
2.47300	331
2.47667	336
2.48033	338
2.48400	337
2.48767	336
2.49133	336
2.49500	337
2.49867	338
2.50233	333
2.50600	325
2.50967	317
2.51333	308
2.51700	303
2.52067	301
2.52433	302
2.52800	300
2.53167	299
2.53533	299
2.53900	297
2.54267	294
2.54633	290
2.55000	284
2.55367	276
2.55733	269
2.56100	265
2.56467	261
2.56833	258
2.57200	255
2.57567	250
2.57933	246
2.58300	240
2.58667	238
2.59033	239
2.59400	241
2.59767	246
2.60133	246
2.60500	241
2.60867	236
2.61233	228
2.61600	225
2.61967	225
2.62333	226
2.62700	222
2.63067	217
2.63433	217
2.63800	220
2.64167	220
2.64533	215
2.64900	207
2.65267	200
2.65633	192
2.66000	186
2.66367	185
2.66733	188
2.67100	194
2.67467	196
2.67833	186
2.68200	170
2.68567	160
2.68933	158
2.69300	157
2.69667	164
2.70033	170
2.70400	179
2.70767	189
2.71133	196
2.71500	198
2.71867	197
2.72233	191
2.72600	181
2.72967	173
2.73333	170
2.73700	174
2.74067	181
2.74433	183
2.74800	175
2.75167	171
2.75533	173
2.75900	171
2.76267	171
2.76633	172
2.77000	177
2.77367	180
2.77733	176
2.78100	166
2.78467	160
2.78833	156
2.79200	160
2.79567	166
2.79933	170
2.80300	168
2.80667	162
2.81033	153
2.81400	148
2.81767	148
2.82133	149
2.82500	145
2.82867	142
2.83233	137
2.83600	133
2.83967	134
2.84333	141
2.84700	147
2.85067	155
2.85433	164
2.85800	171
2.86167	171
2.86533	164
2.86900	157
2.87267	148
2.87633	140
2.88000	136
2.88367	136
2.88733	135
2.89100	136
2.89467	135
2.89833	134
2.90200	136
2.90567	139
2.90933	142
2.91300	149
2.91667	160
2.92033	165
2.92400	162
2.92767	162
2.93133	158
2.93500	150
2.93867	139
2.94233	131
2.94600	126
2.94967	122
2.95333	122
2.95700	123
2.96067	120
2.96433	117
2.96800	116
2.97167	116
2.97533	119
2.97900	121
2.98267	119
2.98633	115
2.99000	111
2.99367	111
2.99733	114
3.00100	121
3.00467	132
3.00833	137
3.01200	139
3.01567	145
3.01933	154
3.02300	161
3.02667	166
3.03033	163
3.03400	156
3.03767	144
3.04133	125
3.04500	103
3.04867	91
3.05233	85
3.05600	82
3.05967	78
3.06333	79
3.06700	84
3.07067	91
3.07433	97
3.07800	99
3.08167	98
3.08533	96
3.08900	93
3.09267	89
3.09633	85
3.10000	83
3.10367	86
3.10733	95
3.11100	100
3.11467	105
3.11833	109
3.12200	108
3.12567	104
3.12933	102
3.13300	100
3.13667	96
3.14033	90
3.14400	84
3.14767	83
3.15133	82
3.15500	80
3.15867	81
3.16233	85
3.16600	88
3.16967	91
3.17333	92
3.17700	94
3.18067	93
3.18433	93
3.18800	94
3.19167	96
3.19533	99
3.19900	101
3.20267	99
3.20633	98
3.21000	93
3.21367	86
3.21733	83
3.22100	80
3.22467	80
3.22833	81
3.23200	82
3.23567	82
3.23933	80
3.24300	80
3.24667	82
3.25033	85
3.25400	83
3.25767	78
3.26133	74
3.26500	69
3.26867	62
3.27233	57
3.27600	54
3.27967	54
3.28333	55
3.28700	56
3.29067	60
3.29433	66
3.29800	70
3.30167	70
3.30533	70
3.30900	73
3.31267	77
3.31633	80
3.32000	83
3.32367	86
3.32733	86
3.33100	79
3.33467	71
3.33833	68
3.34200	68
3.34567	68
3.34933	64
3.35300	58
3.35667	56
3.36033	56
3.36400	58
3.36767	57
3.37133	58
3.37500	64
3.37867	73
3.38233	73
3.38600	65
3.38967	55
3.39333	46
3.39700	47
3.40067	57
3.40433	65
3.40800	70
3.41167	72
3.41533	68
3.41900	62
3.42267	56
3.42633	49
3.43000	42
3.43367	36
3.43733	36
3.44100	39
3.44467	43
3.44833	46
3.45200	46
3.45567	43
3.45933	38
3.46300	33
3.46667	31
3.47033	35
3.47400	43
3.47767	49
3.48133	55
3.48500	61
3.48867	66
3.49233	67
3.49600	64
3.49967	59
3.50333	56
3.50700	58
3.51067	57
3.51433	56
3.51800	58
3.52167	61
3.52533	61
3.52900	59
3.53267	59
3.53633	61
3.54000	57
3.54367	51
3.54733	40
3.55100	23
3.55467	4
3.55833	-8
3.56200	-10
3.56567	-4
3.56933	4
3.57300	14
3.57667	23
3.58033	35
3.58400	47
3.58767	52
3.59133	53
3.59500	41
3.59867	22
3.60233	12
3.60600	11
3.60967	13
3.61333	18
3.61700	20
3.62067	22
3.62433	23
3.62800	20
3.63167	16
3.63533	16
3.63900	20
3.64267	26
3.64633	30
3.65000	30
3.65367	30
3.65733	31
3.66100	32
3.66467	32
3.66833	33
3.67200	34
3.67567	33
3.67933	30
3.68300	27
3.68667	27
3.69033	36
3.69400	48
3.69767	57
3.70133	65
3.70500	65
3.70867	58
3.71233	48
3.71600	36
3.71967	25
3.72333	16
3.72700	9
3.73067	7
3.73433	9
3.73800	11
3.74167	17
3.74533	20
3.74900	18
3.75267	13
3.75633	10
3.76000	9
3.76367	8
3.76733	5
3.77100	4
3.77467	7
3.77833	11
3.78200	18
3.78567	25
3.78933	28
3.79300	22
3.79667	20
3.80033	17
3.80400	14
3.80767	11
3.81133	7
3.81500	6
3.81867	7
3.82233	11
3.82600	12
3.82967	12
3.83333	5
3.83700	2
3.84067	-2
3.84433	-8
3.84800	-7
3.85167	-3
3.85533	1
3.85900	1
3.86267	4
3.86633	8
3.87000	11
3.87367	7
3.87733	1
3.88100	-4
3.88467	-7
3.88833	-9
3.89200	-10
3.89567	-6
3.89933	0
3.90300	6
3.90667	9
3.91033	5
3.91400	-4
3.91767	-8
3.92133	-3
3.92500	3
3.92867	9
3.93233	15
3.93600	13
3.93967	1
3.94333	-11
3.94700	-17
3.95067	-18
3.95433	-14
3.95800	-10
3.96167	-7
3.96533	-4
3.96900	-7
3.97267	-18
3.97633	-20
3.98000	-15
3.98367	-9
3.98733	-4
3.99100	-3
3.99467	-7
3.99833	-8

[Chromatogram (Ch2)]
Interval(msec)	220
# of Points	1091
Start Time(min)	0.002
End Time(min)	3.998
R.Time (min)	Intensity
0.00167	1
0.00533	2
0.00900	2
0.01267	2
0.01633	2
0.02000	1
0.02367	1
0.02733	1
0.03100	2
0.03467	2
0.03833	2
0.04200	3
0.04567	3
0.04933	3
0.05300	4
0.05667	4
0.06033	4
0.06400	4
0.06767	4
0.07133	5
0.07500	5
0.07867	5
0.08233	5
0.08600	6
0.08967	6
0.09333	6
0.09700	6
0.10067	5
0.10433	5
0.10800	5
0.11167	5
0.11533	5
0.11900	5
0.12267	5
0.12633	4
0.13000	4
0.13367	4
0.13733	4
0.14100	4
0.14467	4
0.14833	4
0.15200	3
0.15567	3
0.15933	3
0.16300	3
0.16667	4
0.17033	4
0.17400	4
0.17767	4
0.18133	4
0.18500	4
0.18867	4
0.19233	4
0.19600	4
0.19967	4
0.20333	4
0.20700	4
0.21067	4
0.21433	4
0.21800	4
0.22167	4
0.22533	4
0.22900	3
0.23267	3
0.23633	3
0.24000	2
0.24367	2
0.24733	1
0.25100	1
0.25467	1
0.25833	2
0.26200	2
0.26567	2
0.26933	2
0.27300	3
0.27667	3
0.28033	2
0.28400	2
0.28767	2
0.29133	2
0.29500	2
0.29867	3
0.30233	3
0.30600	3
0.30967	3
0.31333	3
0.31700	3
0.32067	2
0.32433	3
0.32800	3
0.33167	3
0.33533	3
0.33900	4
0.34267	4
0.34633	4
0.35000	4
0.35367	4
0.35733	5
0.36100	5
0.36467	5
0.36833	5
0.37200	5
0.37567	4
0.37933	4
0.38300	3
0.38667	3
0.39033	2
0.39400	2
0.39767	2
0.40133	2
0.40500	2
0.40867	2
0.41233	2
0.41600	2
0.41967	2
0.42333	2
0.42700	2
0.43067	2
0.43433	2
0.43800	2
0.44167	2
0.44533	2
0.44900	2
0.45267	2
0.45633	2
0.46000	2
0.46367	2
0.46733	2
0.47100	3
0.47467	3
0.47833	3
0.48200	3
0.48567	3
0.48933	3
0.49300	3
0.49667	3
0.50033	3
0.50400	4
0.50767	4
0.51133	4
0.51500	4
0.51867	4
0.52233	4
0.52600	4
0.52967	4
0.53333	4
0.53700	4
0.54067	4
0.54433	4
0.54800	4
0.55167	4
0.55533	4
0.55900	5
0.56267	5
0.56633	5
0.57000	5
0.57367	4
0.57733	4
0.58100	4
0.58467	4
0.58833	4
0.59200	4
0.59567	4
0.59933	4
0.60300	4
0.60667	4
0.61033	4
0.61400	4
0.61767	4
0.62133	4
0.62500	4
0.62867	4
0.63233	4
0.63600	3
0.63967	3
0.64333	3
0.64700	2
0.65067	2
0.65433	2
0.65800	2
0.66167	2
0.66533	2
0.66900	2
0.67267	2
0.67633	2
0.68000	1
0.68367	1
0.68733	1
0.69100	1
0.69467	1
0.69833	1
0.70200	1
0.70567	1
0.70933	1
0.71300	1
0.71667	1
0.72033	1
0.72400	1
0.72767	2
0.73133	2
0.73500	3
0.73867	3
0.74233	3
0.74600	3
0.74967	3
0.75333	3
0.75700	4
0.76067	4
0.76433	4
0.76800	4
0.77167	5
0.77533	5
0.77900	5
0.78267	5
0.78633	5
0.79000	6
0.79367	6
0.79733	6
0.80100	6
0.80467	6
0.80833	6
0.81200	5
0.81567	5
0.81933	5
0.82300	4
0.82667	4
0.83033	4
0.83400	3
0.83767	4
0.84133	4
0.84500	4
0.84867	4
0.85233	4
0.85600	4
0.85967	4
0.86333	4
0.86700	4
0.87067	4
0.87433	4
0.87800	4
0.88167	4
0.88533	4
0.88900	4
0.89267	4
0.89633	3
0.90000	3
0.90367	3
0.90733	2
0.91100	2
0.91467	2
0.91833	1
0.92200	1
0.92567	1
0.92933	1
0.93300	1
0.93667	1
0.94033	2
0.94400	2
0.94767	3
0.95133	3
0.95500	4
0.95867	4
0.96233	4
0.96600	4
0.96967	4
0.97333	5
0.97700	5
0.98067	5
0.98433	5
0.98800	6
0.99167	6
0.99533	6
0.99900	6
1.00267	6
1.00633	5
1.01000	5
1.01367	5
1.01733	5
1.02100	4
1.02467	4
1.02833	4
1.03200	4
1.03567	3
1.03933	3
1.04300	3
1.04667	3
1.05033	3
1.05400	2
1.05767	2
1.06133	2
1.06500	2
1.06867	2
1.07233	2
1.07600	2
1.07967	2
1.08333	2
1.08700	2
1.09067	2
1.09433	2
1.09800	2
1.10167	2
1.10533	2
1.10900	2
1.11267	2
1.11633	2
1.12000	3
1.12367	3
1.12733	3
1.13100	3
1.13467	3
1.13833	3
1.14200	3
1.14567	3
1.14933	2
1.15300	2
1.15667	2
1.16033	2
1.16400	3
1.16767	3
1.17133	3
1.17500	3
1.17867	3
1.18233	3
1.18600	3
1.18967	3
1.19333	3
1.19700	2
1.20067	2
1.20433	2
1.20800	2
1.21167	1
1.21533	1
1.21900	1
1.22267	1
1.22633	0
1.23000	0
1.23367	-0
1.23733	-0
1.24100	-1
1.24467	-1
1.24833	-1
1.25200	-1
1.25567	-0
1.25933	0
1.26300	1
1.26667	1
1.27033	1
1.27400	1
1.27767	2
1.28133	2
1.28500	3
1.28867	3
1.29233	3
1.29600	4
1.29967	4
1.30333	4
1.30700	4
1.31067	4
1.31433	5
1.31800	5
1.32167	5
1.32533	4
1.32900	4
1.33267	4
1.33633	3
1.34000	3
1.34367	3
1.34733	3
1.35100	3
1.35467	3
1.35833	3
1.36200	3
1.36567	3
1.36933	3
1.37300	3
1.37667	3
1.38033	3
1.38400	2
1.38767	2
1.39133	2
1.39500	2
1.39867	2
1.40233	2
1.40600	2
1.40967	1
1.41333	1
1.41700	0
1.42067	-0
1.42433	-1
1.42800	-1
1.43167	-2
1.43533	-2
1.43900	-2
1.44267	-2
1.44633	-2
1.45000	-1
1.45367	-1
1.45733	-0
1.46100	0
1.46467	0
1.46833	1
1.47200	1
1.47567	1
1.47933	1
1.48300	1
1.48667	1
1.49033	0
1.49400	0
1.49767	0
1.50133	0
1.50500	0
1.50867	1
1.51233	1
1.51600	1
1.51967	2
1.52333	2
1.52700	2
1.53067	2
1.53433	2
1.53800	2
1.54167	1
1.54533	2
1.54900	2
1.55267	2
1.55633	2
1.56000	2
1.56367	2
1.56733	2
1.57100	1
1.57467	1
1.57833	1
1.58200	1
1.58567	1
1.58933	1
1.59300	1
1.59667	0
1.60033	-0
1.60400	-1
1.60767	-3
1.61133	-5
1.61500	-7
1.61867	-9
1.62233	-12
1.62600	-15
1.62967	-18
1.63333	-21
1.63700	-25
1.64067	-28
1.64433	-32
1.64800	-36
1.65167	-40
1.65533	-44
1.65900	-47
1.66267	-51
1.66633	-56
1.67000	-60
1.67367	-65
1.67733	-70
1.68100	-75
1.68467	-79
1.68833	-84
1.69200	-88
1.69567	-92
1.69933	-95
1.70300	-97
1.70667	-99
1.71033	-101
1.71400	-101
1.71767	-102
1.72133	-102
1.72500	-103
1.72867	-103
1.73233	-103
1.73600	-104
1.73967	-104
1.74333	-103
1.74700	-103
1.75067	-103
1.75433	-103
1.75800	-104
1.76167	-105
1.76533	-106
1.76900	-107
1.77267	-108
1.77633	-108
1.78000	-109
1.78367	-109
1.78733	-110
1.79100	-110
1.79467	-110
1.79833	-110
1.80200	-111
1.80567	-111
1.80933	-111
1.81300	-112
1.81667	-112
1.82033	-112
1.82400	-111
1.82767	-111
1.83133	-111
1.83500	-111
1.83867	-112
1.84233	-112
1.84600	-113
1.84967	-113
1.85333	-113
1.85700	-113
1.86067	-114
1.86433	-114
1.86800	-113
1.87167	-113
1.87533	-113
1.87900	-112
1.88267	-112
1.88633	-111
1.89000	-110
1.89367	-110
1.89733	-109
1.90100	-109
1.90467	-109
1.90833	-108
1.91200	-108
1.91567	-108
1.91933	-108
1.92300	-108
1.92667	-108
1.93033	-108
1.93400	-108
1.93767	-108
1.94133	-108
1.94500	-108
1.94867	-108
1.95233	-108
1.95600	-108
1.95967	-108
1.96333	-107
1.96700	-106
1.97067	-106
1.97433	-106
1.97800	-105
1.98167	-105
1.98533	-105
1.98900	-105
1.99267	-105
1.99633	-106
2.00000	-106
2.00367	-106
2.00733	-106
2.01100	-105
2.01467	-105
2.01833	-104
2.02200	-104
2.02567	-103
2.02933	-103
2.03300	-103
2.03667	-102
2.04033	-102
2.04400	-101
2.04767	-100
2.05133	-100
2.05500	-99
2.05867	-98
2.06233	-98
2.06600	-98
2.06967	-98
2.07333	-99
2.07700	-99
2.08067	-99
2.08433	-99
2.08800	-98
2.09167	-98
2.09533	-97
2.09900	-96
2.10267	-96
2.10633	-95
2.11000	-95
2.11367	-95
2.11733	-95
2.12100	-95
2.12467	-95
2.12833	-96
2.13200	-96
2.13567	-96
2.13933	-96
2.14300	-96
2.14667	-95
2.15033	-94
2.15400	-93
2.15767	-92
2.16133	-91
2.16500	-91
2.16867	-91
2.17233	-90
2.17600	-90
2.17967	-90
2.18333	-89
2.18700	-88
2.19067	-88
2.19433	-87
2.19800	-87
2.20167	-87
2.20533	-86
2.20900	-86
2.21267	-86
2.21633	-85
2.22000	-85
2.22367	-84
2.22733	-84
2.23100	-84
2.23467	-84
2.23833	-84
2.24200	-84
2.24567	-84
2.24933	-84
2.25300	-84
2.25667	-84
2.26033	-84
2.26400	-84
2.26767	-84
2.27133	-83
2.27500	-82
2.27867	-82
2.28233	-81
2.28600	-81
2.28967	-81
2.29333	-81
2.29700	-81
2.30067	-81
2.30433	-81
2.30800	-81
2.31167	-80
2.31533	-79
2.31900	-79
2.32267	-79
2.32633	-78
2.33000	-78
2.33367	-78
2.33733	-77
2.34100	-77
2.34467	-76
2.34833	-74
2.35200	-73
2.35567	-71
2.35933	-69
2.36300	-67
2.36667	-65
2.37033	-62
2.37400	-59
2.37767	-56
2.38133	-52
2.38500	-48
2.38867	-43
2.39233	-39
2.39600	-35
2.39967	-31
2.40333	-26
2.40700	-22
2.41067	-19
2.41433	-16
2.41800	-13
2.42167	-11
2.42533	-9
2.42900	-7
2.43267	-6
2.43633	-5
2.44000	-4
2.44367	-3
2.44733	-3
2.45100	-2
2.45467	-2
2.45833	-2
2.46200	-1
2.46567	-1
2.46933	-0
2.47300	0
2.47667	1
2.48033	2
2.48400	2
2.48767	4
2.49133	5
2.49500	6
2.49867	8
2.50233	9
2.50600	10
2.50967	11
2.51333	12
2.51700	13
2.52067	14
2.52433	15
2.52800	15
2.53167	15
2.53533	15
2.53900	15
2.54267	15
2.54633	15
2.55000	16
2.55367	16
2.55733	17
2.56100	18
2.56467	18
2.56833	19
2.57200	19
2.57567	18
2.57933	18
2.58300	17
2.58667	17
2.59033	17
2.59400	17
2.59767	17
2.60133	17
2.60500	18
2.60867	18
2.61233	19
2.61600	19
2.61967	20
2.62333	20
2.62700	20
2.63067	20
2.63433	20
2.63800	20
2.64167	20
2.64533	20
2.64900	21
2.65267	21
2.65633	22
2.66000	22
2.66367	22
2.66733	22
2.67100	22
2.67467	23
2.67833	23
2.68200	23
2.68567	23
2.68933	23
2.69300	23
2.69667	23
2.70033	23
2.70400	24
2.70767	24
2.71133	24
2.71500	24
2.71867	25
2.72233	25
2.72600	25
2.72967	26
2.73333	26
2.73700	27
2.74067	27
2.74433	28
2.74800	28
2.75167	29
2.75533	29
2.75900	30
2.76267	30
2.76633	31
2.77000	31
2.77367	30
2.77733	30
2.78100	30
2.78467	29
2.78833	28
2.79200	28
2.79567	28
2.79933	28
2.80300	28
2.80667	28
2.81033	28
2.81400	28
2.81767	29
2.82133	29
2.82500	29
2.82867	30
2.83233	30
2.83600	30
2.83967	30
2.84333	29
2.84700	27
2.85067	24
2.85433	18
2.85800	9
2.86167	-3
2.86533	-19
2.86900	-39
2.87267	-64
2.87633	-93
2.88000	-127
2.88367	-165
2.88733	-207
2.89100	-252
2.89467	-300
2.89833	-351
2.90200	-403
2.90567	-458
2.90933	-513
2.91300	-569
2.91667	-625
2.92033	-680
2.92400	-735
2.92767	-787
2.93133	-839
2.93500	-891
2.93867	-947
2.94233	-1006
2.94600	-1057
2.94967	-1089
2.95333	-1098
2.95700	-1080
2.96067	-1040
2.96433	-981
2.96800	-910
2.97167	-832
2.97533	-752
2.97900	-672
2.98267	-595
2.98633	-523
2.99000	-457
2.99367	-396
2.99733	-342
3.00100	-294
3.00467	-251
3.00833	-214
3.01200	-182
3.01567	-153
3.01933	-129
3.02300	-108
3.02667	-90
3.03033	-74
3.03400	-61
3.03767	-49
3.04133	-40
3.04500	-31
3.04867	-24
3.05233	-18
3.05600	-13
3.05967	-8
3.06333	-4
3.06700	-1
3.07067	2
3.07433	5
3.07800	6
3.08167	8
3.08533	9
3.08900	11
3.09267	12
3.09633	13
3.10000	14
3.10367	15
3.10733	16
3.11100	16
3.11467	17
3.11833	18
3.12200	18
3.12567	18
3.12933	19
3.13300	19
3.13667	20
3.14033	20
3.14400	21
3.14767	21
3.15133	22
3.15500	22
3.15867	23
3.16233	23
3.16600	24
3.16967	24
3.17333	24
3.17700	25
3.18067	25
3.18433	25
3.18800	25
3.19167	25
3.19533	25
3.19900	25
3.20267	25
3.20633	26
3.21000	26
3.21367	26
3.21733	26
3.22100	26
3.22467	26
3.22833	26
3.23200	26
3.23567	26
3.23933	26
3.24300	26
3.24667	26
3.25033	26
3.25400	26
3.25767	26
3.26133	26
3.26500	26
3.26867	25
3.27233	25
3.27600	25
3.27967	25
3.28333	26
3.28700	26
3.29067	26
3.29433	26
3.29800	26
3.30167	26
3.30533	27
3.30900	27
3.31267	27
3.31633	28
3.32000	28
3.32367	29
3.32733	29
3.33100	29
3.33467	29
3.33833	30
3.34200	30
3.34567	30
3.34933	30
3.35300	30
3.35667	31
3.36033	31
3.36400	31
3.36767	32
3.37133	32
3.37500	32
3.37867	32
3.38233	32
3.38600	33
3.38967	32
3.39333	32
3.39700	32
3.40067	32
3.40433	32
3.40800	32
3.41167	32
3.41533	32
3.41900	32
3.42267	32
3.42633	32
3.43000	32
3.43367	32
3.43733	32
3.44100	32
3.44467	32
3.44833	31
3.45200	31
3.45567	30
3.45933	30
3.46300	30
3.46667	30
3.47033	30
3.47400	30
3.47767	30
3.48133	30
3.48500	29
3.48867	29
3.49233	29
3.49600	29
3.49967	28
3.50333	28
3.50700	28
3.51067	28
3.51433	28
3.51800	28
3.52167	28
3.52533	28
3.52900	29
3.53267	29
3.53633	29
3.54000	29
3.54367	29
3.54733	29
3.55100	29
3.55467	29
3.55833	29
3.56200	29
3.56567	30
3.56933	30
3.57300	30
3.57667	31
3.58033	31
3.58400	31
3.58767	31
3.59133	31
3.59500	31
3.59867	32
3.60233	32
3.60600	32
3.60967	32
3.61333	32
3.61700	32
3.62067	32
3.62433	32
3.62800	32
3.63167	32
3.63533	32
3.63900	32
3.64267	32
3.64633	32
3.65000	32
3.65367	32
3.65733	32
3.66100	32
3.66467	32
3.66833	31
3.67200	31
3.67567	31
3.67933	31
3.68300	30
3.68667	30
3.69033	30
3.69400	30
3.69767	30
3.70133	30
3.70500	30
3.70867	30
3.71233	29
3.71600	29
3.71967	29
3.72333	29
3.72700	29
3.73067	29
3.73433	29
3.73800	29
3.74167	29
3.74533	29
3.74900	29
3.75267	29
3.75633	29
3.76000	29
3.76367	29
3.76733	29
3.77100	29
3.77467	29
3.77833	29
3.78200	29
3.78567	29
3.78933	29
3.79300	28
3.79667	28
3.80033	28
3.80400	29
3.80767	29
3.81133	29
3.81500	29
3.81867	29
3.82233	29
3.82600	29
3.82967	29
3.83333	29
3.83700	29
3.84067	29
3.84433	29
3.84800	29
3.85167	29
3.85533	29
3.85900	29
3.86267	29
3.86633	29
3.87000	30
3.87367	30
3.87733	30
3.88100	30
3.88467	30
3.88833	30
3.89200	30
3.89567	30
3.89933	30
3.90300	30
3.90667	30
3.91033	30
3.91400	30
3.91767	30
3.92133	30
3.92500	30
3.92867	29
3.93233	29
3.93600	29
3.93967	29
3.94333	29
3.94700	29
3.95067	29
3.95433	29
3.95800	29
3.96167	29
3.96533	29
3.96900	29
3.97267	30
3.97633	30
3.98000	30
3.98367	30
3.98733	30
3.99100	30
3.99467	30
3.99833	30

[Chromatogram (Ch3)]
Interval(msec)	220
# of Points	1091
Start Time(min)	0.002
End Time(min)	3.998
R.Time (min)	Intensity
0.00167	1
0.00533	1
0.00900	1
0.01267	1
0.01633	1
0.02000	2
0.02367	1
0.02733	0
0.03100	-0
0.03467	-0
0.03833	1
0.04200	1
0.04567	-1
0.04933	-0
0.05300	-0
0.05667	-1
0.06033	-3
0.06400	-3
0.06767	-2
0.07133	-1
0.07500	1
0.07867	2
0.08233	2
0.08600	1
0.08967	-0
0.09333	-1
0.09700	-2
0.10067	-2
0.10433	-0
0.10800	1
0.11167	1
0.11533	2
0.11900	2
0.12267	-1
0.12633	-1
0.13000	1
0.13367	1
0.13733	1
0.14100	1
0.14467	1
0.14833	1
0.15200	2
0.15567	2
0.15933	1
0.16300	-2
0.16667	-0
0.17033	2
0.17400	3
0.17767	3
0.18133	3
0.18500	1
0.18867	-2
0.19233	-4
0.19600	-5
0.19967	-6
0.20333	-6
0.20700	-5
0.21067	-1
0.21433	0
0.21800	-2
0.22167	-2
0.22533	-3
0.22900	-5
0.23267	-7
0.23633	-5
0.24000	-4
0.24367	-4
0.24733	-5
0.25100	-4
0.25467	-2
0.25833	-1
0.26200	1
0.26567	2
0.26933	0
0.27300	-1
0.27667	-1
0.28033	-1
0.28400	-3
0.28767	-5
0.29133	-5
0.29500	-4
0.29867	-2
0.30233	1
0.30600	3
0.30967	3
0.31333	2
0.31700	-1
0.32067	-2
0.32433	-4
0.32800	-6
0.33167	-7
0.33533	-7
0.33900	-6
0.34267	-5
0.34633	-1
0.35000	1
0.35367	2
0.35733	3
0.36100	5
0.36467	5
0.36833	4
0.37200	3
0.37567	0
0.37933	-2
0.38300	-2
0.38667	-2
0.39033	-1
0.39400	-2
0.39767	-3
0.40133	-3
0.40500	-3
0.40867	-2
0.41233	-1
0.41600	-1
0.41967	1
0.42333	2
0.42700	1
0.43067	1
0.43433	0
0.43800	-0
0.44167	-2
0.44533	-2
0.44900	-1
0.45267	0
0.45633	-0
0.46000	1
0.46367	1
0.46733	-0
0.47100	-1
0.47467	-2
0.47833	-4
0.48200	-4
0.48567	-5
0.48933	-6
0.49300	-5
0.49667	-5
0.50033	-4
0.50400	-4
0.50767	-4
0.51133	-3
0.51500	-3
0.51867	-3
0.52233	-3
0.52600	-3
0.52967	-4
0.53333	-5
0.53700	-4
0.54067	-2
0.54433	-2
0.54800	-1
0.55167	-0
0.55533	1
0.55900	1
0.56267	2
0.56633	2
0.57000	2
0.57367	2
0.57733	3
0.58100	4
0.58467	4
0.58833	2
0.59200	-1
0.59567	-4
0.59933	-6
0.60300	-6
0.60667	-3
0.61033	-2
0.61400	-2
0.61767	-1
0.62133	-0
0.62500	-0
0.62867	-1
0.63233	-2
0.63600	-4
0.63967	-3
0.64333	-3
0.64700	-1
0.65067	-1
0.65433	-2
0.65800	-3
0.66167	-4
0.66533	-4
0.66900	-3
0.67267	-4
0.67633	-3
0.68000	-4
0.68367	-3
0.68733	-2
0.69100	-1
0.69467	-1
0.69833	0
0.70200	2
0.70567	3
0.70933	2
0.71300	1
0.71667	2
0.72033	2
0.72400	0
0.72767	0
0.73133	1
0.73500	1
0.73867	2
0.74233	4
0.74600	5
0.74967	4
0.75333	1
0.75700	0
0.76067	2
0.76433	1
0.76800	0
0.77167	1
0.77533	-1
0.77900	-3
0.78267	-3
0.78633	-4
0.79000	-3
0.79367	-2
0.79733	-3
0.80100	-4
0.80467	-3
0.80833	-3
0.81200	-4
0.81567	-3
0.81933	-0
0.82300	1
0.82667	1
0.83033	-0
0.83400	-2
0.83767	-1
0.84133	-1
0.84500	-1
0.84867	-0
0.85233	-1
0.85600	1
0.85967	3
0.86333	3
0.86700	3
0.87067	4
0.87433	2
0.87800	1
0.88167	3
0.88533	4
0.88900	4
0.89267	3
0.89633	4
0.90000	4
0.90367	4
0.90733	1
0.91100	1
0.91467	1
0.91833	1
0.92200	1
0.92567	1
0.92933	0
0.93300	-1
0.93667	-1
0.94033	1
0.94400	3
0.94767	3
0.95133	2
0.95500	4
0.95867	4
0.96233	2
0.96600	2
0.96967	2
0.97333	2
0.97700	1
0.98067	3
0.98433	6
0.98800	8
0.99167	9
0.99533	8
0.99900	8
1.00267	5
1.00633	2
1.01000	-0
1.01367	-1
1.01733	1
1.02100	4
1.02467	6
1.02833	6
1.03200	6
1.03567	6
1.03933	6
1.04300	7
1.04667	8
1.05033	8
1.05400	8
1.05767	7
1.06133	5
1.06500	5
1.06867	5
1.07233	6
1.07600	7
1.07967	11
1.08333	13
1.08700	14
1.09067	15
1.09433	12
1.09800	10
1.10167	8
1.10533	7
1.10900	9
1.11267	11
1.11633	14
1.12000	14
1.12367	13
1.12733	13
1.13100	14
1.13467	14
1.13833	12
1.14200	10
1.14567	10
1.14933	11
1.15300	12
1.15667	12
1.16033	11
1.16400	11
1.16767	10
1.17133	10
1.17500	11
1.17867	11
1.18233	10
1.18600	9
1.18967	8
1.19333	7
1.19700	7
1.20067	7
1.20433	7
1.20800	6
1.21167	7
1.21533	7
1.21900	8
1.22267	11
1.22633	10
1.23000	7
1.23367	5
1.23733	5
1.24100	4
1.24467	4
1.24833	4
1.25200	4
1.25567	5
1.25933	8
1.26300	8
1.26667	8
1.27033	9
1.27400	8
1.27767	5
1.28133	4
1.28500	6
1.28867	9
1.29233	12
1.29600	12
1.29967	12
1.30333	11
1.30700	11
1.31067	12
1.31433	12
1.31800	11
1.32167	11
1.32533	11
1.32900	11
1.33267	15
1.33633	16
1.34000	14
1.34367	12
1.34733	10
1.35100	8
1.35467	8
1.35833	7
1.36200	7
1.36567	9
1.36933	10
1.37300	13
1.37667	15
1.38033	15
1.38400	15
1.38767	14
1.39133	15
1.39500	15
1.39867	14
1.40233	13
1.40600	13
1.40967	11
1.41333	11
1.41700	13
1.42067	15
1.42433	16
1.42800	13
1.43167	13
1.43533	13
1.43900	13
1.44267	12
1.44633	12
1.45000	11
1.45367	12
1.45733	14
1.46100	16
1.46467	17
1.46833	15
1.47200	14
1.47567	14
1.47933	14
1.48300	14
1.48667	13
1.49033	15
1.49400	18
1.49767	18
1.50133	19
1.50500	18
1.50867	15
1.51233	13
1.51600	14
1.51967	14
1.52333	13
1.52700	14
1.53067	15
1.53433	17
1.53800	18
1.54167	17
1.54533	15
1.54900	14
1.55267	12
1.55633	11
1.56000	14
1.56367	16
1.56733	16
1.57100	15
1.57467	14
1.57833	14
1.58200	14
1.58567	13
1.58933	14
1.59300	15
1.59667	15
1.60033	14
1.60400	14
1.60767	16
1.61133	18
1.61500	17
1.61867	17
1.62233	18
1.62600	19
1.62967	19
1.63333	19
1.63700	20
1.64067	22
1.64433	23
1.64800	23
1.65167	22
1.65533	21
1.65900	20
1.66267	18
1.66633	19
1.67000	19
1.67367	18
1.67733	20
1.68100	23
1.68467	28
1.68833	28
1.69200	26
1.69567	26
1.69933	26
1.70300	27
1.70667	30
1.71033	32
1.71400	32
1.71767	33
1.72133	33
1.72500	35
1.72867	37
1.73233	36
1.73600	35
1.73967	35
1.74333	37
1.74700	39
1.75067	40
1.75433	38
1.75800	35
1.76167	35
1.76533	35
1.76900	35
1.77267	36
1.77633	36
1.78000	37
1.78367	38
1.78733	38
1.79100	39
1.79467	40
1.79833	42
1.80200	44
1.80567	43
1.80933	42
1.81300	44
1.81667	46
1.82033	47
1.82400	48
1.82767	48
1.83133	48
1.83500	49
1.83867	49
1.84233	49
1.84600	51
1.84967	53
1.85333	55
1.85700	56
1.86067	56
1.86433	55
1.86800	55
1.87167	56
1.87533	58
1.87900	58
1.88267	57
1.88633	58
1.89000	58
1.89367	57
1.89733	56
1.90100	54
1.90467	53
1.90833	54
1.91200	57
1.91567	60
1.91933	60
1.92300	60
1.92667	60
1.93033	63
1.93400	63
1.93767	63
1.94133	65
1.94500	67
1.94867	68
1.95233	70
1.95600	72
1.95967	74
1.96333	75
1.96700	76
1.97067	78
1.97433	77
1.97800	77
1.98167	78
1.98533	80
1.98900	81
1.99267	82
1.99633	83
2.00000	82
2.00367	83
2.00733	85
2.01100	88
2.01467	91
2.01833	93
2.02200	94
2.02567	94
2.02933	95
2.03300	96
2.03667	95
2.04033	98
2.04400	102
2.04767	105
2.05133	107
2.05500	109
2.05867	108
2.06233	108
2.06600	109
2.06967	111
2.07333	112
2.07700	113
2.08067	116
2.08433	117
2.08800	119
2.09167	122
2.09533	123
2.09900	122
2.10267	122
2.10633	123
2.11000	124
2.11367	125
2.11733	125
2.12100	127
2.12467	129
2.12833	130
2.13200	132
2.13567	132
2.13933	134
2.14300	136
2.14667	141
2.15033	144
2.15400	145
2.15767	146
2.16133	148
2.16500	151
2.16867	151
2.17233	150
2.17600	151
2.17967	153
2.18333	154
2.18700	156
2.19067	159
2.19433	163
2.19800	168
2.20167	170
2.20533	170
2.20900	170
2.21267	172
2.21633	172
2.22000	173
2.22367	174
2.22733	175
2.23100	175
2.23467	177
2.23833	180
2.24200	180
2.24567	181
2.24933	184
2.25300	187
2.25667	189
2.26033	190
2.26400	191
2.26767	193
2.27133	194
2.27500	195
2.27867	195
2.28233	195
2.28600	196
2.28967	198
2.29333	199
2.29700	201
2.30067	202
2.30433	202
2.30800	203
2.31167	205
2.31533	208
2.31900	209
2.32267	211
2.32633	213
2.33000	214
2.33367	215
2.33733	216
2.34100	220
2.34467	224
2.34833	226
2.35200	230
2.35567	234
2.35933	235
2.36300	237
2.36667	238
2.37033	241
2.37400	241
2.37767	239
2.38133	237
2.38500	237
2.38867	235
2.39233	236
2.39600	237
2.39967	239
2.40333	243
2.40700	247
2.41067	251
2.41433	254
2.41800	257
2.42167	258
2.42533	260
2.42900	261
2.43267	261
2.43633	259
2.44000	261
2.44367	321
2.44733	484
2.45100	666
2.45467	819
2.45833	909
2.46200	916
2.46567	873
2.46933	816
2.47300	763
2.47667	724
2.48033	691
2.48400	654
2.48767	605
2.49133	549
2.49500	497
2.49867	453
2.50233	421
2.50600	400
2.50967	394
2.51333	401
2.51700	420
2.52067	445
2.52433	467
2.52800	481
2.53167	480
2.53533	464
2.53900	436
2.54267	402
2.54633	367
2.55000	333
2.55367	302
2.55733	278
2.56100	256
2.56467	239
2.56833	230
2.57200	225
2.57567	221
2.57933	221
2.58300	222
2.58667	223
2.59033	227
2.59400	230
2.59767	231
2.60133	229
2.60500	223
2.60867	215
2.61233	206
2.61600	195
2.61967	182
2.62333	169
2.62700	157
2.63067	145
2.63433	133
2.63800	119
2.64167	105
2.64533	90
2.64900	77
2.65267	65
2.65633	53
2.66000	42
2.66367	28
2.66733	17
2.67100	6
2.67467	-2
2.67833	-8
2.68200	-9
2.68567	-10
2.68933	-10
2.69300	-8
2.69667	-7
2.70033	-4
2.70400	-1
2.70767	1
2.71133	5
2.71500	8
2.71867	12
2.72233	17
2.72600	23
2.72967	29
2.73333	34
2.73700	40
2.74067	47
2.74433	54
2.74800	58
2.75167	62
2.75533	67
2.75900	69
2.76267	72
2.76633	75
2.77000	80
2.77367	88
2.77733	93
2.78100	97
2.78467	101
2.78833	103
2.79200	105
2.79567	110
2.79933	116
2.80300	123
2.80667	131
2.81033	139
2.81400	149
2.81767	159
2.82133	172
2.82500	191
2.82867	230
2.83233	303
2.83600	429
2.83967	627
2.84333	918
2.84700	1312
2.85067	1802
2.85433	2368
2.85800	2971
2.86167	3563
2.86533	4094
2.86900	4523
2.87267	4825
2.87633	4982
2.88000	4995
2.88367	4884
2.88733	4674
2.89100	4392
2.89467	4064
2.89833	3714
2.90200	3363
2.90567	3022
2.90933	2700
2.91300	2400
2.91667	2127
2.92033	1880
2.92400	1659
2.92767	1462
2.93133	1289
2.93500	1137
2.93867	1003
2.94233	888
2.94600	787
2.94967	699
2.95333	623
2.95700	557
2.96067	498
2.96433	448
2.96800	405
2.97167	365
2.97533	334
2.97900	306
2.98267	282
2.98633	262
2.99000	245
2.99367	228
2.99733	213
3.00100	198
3.00467	185
3.00833	174
3.01200	165
3.01567	160
3.01933	157
3.02300	155
3.02667	152
3.03033	149
3.03400	147
3.03767	146
3.04133	145
3.04500	143
3.04867	142
3.05233	141
3.05600	140
3.05967	140
3.06333	138
3.06700	135
3.07067	133
3.07433	131
3.07800	131
3.08167	131
3.08533	130
3.08900	131
3.09267	133
3.09633	134
3.10000	135
3.10367	135
3.10733	116
3.11100	73
3.11467	30
3.11833	20
3.12200	43
3.12567	91
3.12933	152
3.13300	219
3.13667	285
3.14033	347
3.14400	401
3.14767	449
3.15133	491
3.15500	527
3.15867	558
3.16233	585
3.16600	607
3.16967	624
3.17333	638
3.17700	650
3.18067	660
3.18433	671
3.18800	681
3.19167	689
3.19533	695
3.19900	702
3.20267	710
3.20633	716
3.21000	722
3.21367	725
3.21733	729
3.22100	732
3.22467	736
3.22833	740
3.23200	746
3.23567	753
3.23933	760
3.24300	768
3.24667	773
3.25033	777
3.25400	782
3.25767	788
3.26133	797
3.26500	806
3.26867	815
3.27233	821
3.27600	826
3.27967	828
3.28333	831
3.28700	836
3.29067	842
3.29433	846
3.29800	851
3.30167	858
3.30533	865
3.30900	870
3.31267	873
3.31633	876
3.32000	877
3.32367	882
3.32733	888
3.33100	891
3.33467	892
3.33833	894
3.34200	897
3.34567	900
3.34933	901
3.35300	901
3.35667	902
3.36033	901
3.36400	901
3.36767	901
3.37133	899
3.37500	896
3.37867	892
3.38233	888
3.38600	884
3.38967	881
3.39333	877
3.39700	874
3.40067	871
3.40433	868
3.40800	867
3.41167	865
3.41533	863
3.41900	858
3.42267	855
3.42633	854
3.43000	853
3.43367	850
3.43733	846
3.44100	842
3.44467	838
3.44833	834
3.45200	831
3.45567	830
3.45933	827
3.46300	822
3.46667	820
3.47033	817
3.47400	814
3.47767	810
3.48133	807
3.48500	803
3.48867	799
3.49233	799
3.49600	801
3.49967	800
3.50333	798
3.50700	797
3.51067	797
3.51433	798
3.51800	798
3.52167	796
3.52533	795
3.52900	794
3.53267	793
3.53633	792
3.54000	794
3.54367	795
3.54733	795
3.55100	793
3.55467	793
3.55833	793
3.56200	793
3.56567	793
3.56933	793
3.57300	794
3.57667	794
3.58033	793
3.58400	792
3.58767	788
3.59133	785
3.59500	785
3.59867	785
3.60233	784
3.60600	784
3.60967	785
3.61333	785
3.61700	786
3.62067	786
3.62433	785
3.62800	783
3.63167	780
3.63533	776
3.63900	774
3.64267	773
3.64633	772
3.65000	773
3.65367	772
3.65733	771
3.66100	769
3.66467	765
3.66833	763
3.67200	762
3.67567	761
3.67933	757
3.68300	753
3.68667	752
3.69033	751
3.69400	751
3.69767	750
3.70133	749
3.70500	749
3.70867	747
3.71233	742
3.71600	740
3.71967	737
3.72333	735
3.72700	734
3.73067	734
3.73433	733
3.73800	732
3.74167	729
3.74533	726
3.74900	722
3.75267	721
3.75633	721
3.76000	718
3.76367	716
3.76733	714
3.77100	715
3.77467	715
3.77833	713
3.78200	712
3.78567	711
3.78933	710
3.79300	707
3.79667	704
3.80033	700
3.80400	697
3.80767	693
3.81133	691
3.81500	687
3.81867	685
3.82233	684
3.82600	684
3.82967	683
3.83333	681
3.83700	679
3.84067	676
3.84433	674
3.84800	672
3.85167	674
3.85533	673
3.85900	672
3.86267	670
3.86633	668
3.87000	665
3.87367	663
3.87733	662
3.88100	660
3.88467	658
3.88833	656
3.89200	655
3.89567	654
3.89933	654
3.90300	655
3.90667	653
3.91033	648
3.91400	645
3.91767	643
3.92133	642
3.92500	640
3.92867	638
3.93233	637
3.93600	636
3.93967	635
3.94333	635
3.94700	634
3.95067	632
3.95433	631
3.95800	629
3.96167	627
3.96533	626
3.96900	626
3.97267	625
3.97633	623
3.98000	621
3.98367	619
3.98733	619
3.99100	620
3.99467	618
3.99833	614

[Status Trace (Column Oven Temperature)]
Interval(msec)	1000
# of Points	240
Start Time(min)	0.003
End Time(min)	3.986
Intensity Units	
Intensity Multiplier	1
R.Time (min)	Intensity
0.00305	35.07
0.01972	35.08
0.03638	35.07
0.05305	35.07
0.06972	35.05
0.08638	35.05
0.10305	35.03
0.11972	35.04
0.13638	35.04
0.15305	35.04
0.16972	35.02
0.18638	35.03
0.20305	35.02
0.21972	35.01
0.23638	35.02
0.25305	35.01
0.26972	35.01
0.28638	35.02
0.30305	35.02
0.31972	35.03
0.33638	35.01
0.35305	35.01
0.36972	35.01
0.38638	35.01
0.40305	35.02
0.41972	35.02
0.43638	35.02
0.45305	35.02
0.46972	35.02
0.48638	35.01
0.50305	35.01
0.51972	35.01
0.53638	35.00
0.55305	35.00
0.56972	35.00
0.58638	35.00
0.60305	34.99
0.61972	34.99
0.63638	35.00
0.65305	35.01
0.66972	35.02
0.68638	35.03
0.70305	35.03
0.71972	35.03
0.73638	35.03
0.75305	35.03
0.76972	35.02
0.78638	35.00
0.80305	34.99
0.81972	34.99
0.83638	35.00
0.85305	34.99
0.86972	34.99
0.88638	34.98
0.90305	34.99
0.91972	35.00
0.93638	35.00
0.95305	35.00
0.96972	34.99
0.98638	34.99
1.00305	34.98
1.01972	34.98
1.03638	34.99
1.05305	34.99
1.06972	35.00
1.08638	35.00
1.10305	34.99
1.11972	35.00
1.13638	35.00
1.15305	35.00
1.16972	35.00
1.18638	35.00
1.20305	35.00
1.21972	35.01
1.23638	35.02
1.25305	35.03
1.26972	35.02
1.28638	35.00
1.30305	34.98
1.31972	34.97
1.33638	34.97
1.35305	34.96
1.36972	34.96
1.38638	34.96
1.40305	34.97
1.41972	34.99
1.43638	35.00
1.45305	34.99
1.46972	35.00
1.48638	35.00
1.50305	35.00
1.51972	34.99
1.53638	34.98
1.55305	34.98
1.56972	34.98
1.58638	34.99
1.60305	35.03
1.61972	35.14
1.63638	35.31
1.65305	35.55
1.66972	35.86
1.68638	36.24
1.70305	36.59
1.71972	36.93
1.73638	37.24
1.75305	37.57
1.76972	37.92
1.78638	38.25
1.80305	38.58
1.81972	38.90
1.83638	39.24
1.85305	39.58
1.86972	39.91
1.88638	40.24
1.90305	40.56
1.91972	40.88
1.93638	41.21
1.95305	41.55
1.96972	41.87
1.98638	42.19
2.00305	42.51
2.01972	42.85
2.03638	43.17
2.05305	43.49
2.06972	43.82
2.08638	44.15
2.10305	44.48
2.11972	44.81
2.13638	45.16
2.15305	45.48
2.16972	45.83
2.18638	46.14
2.20305	46.47
2.21972	46.78
2.23638	47.11
2.25305	47.45
2.26972	47.78
2.28638	48.10
2.30305	48.45
2.31972	48.77
2.33638	49.12
2.35305	49.39
2.36972	49.58
2.38638	49.64
2.40305	49.64
2.41972	49.64
2.43638	49.66
2.45305	49.66
2.46972	49.68
2.48638	49.69
2.50305	49.71
2.51972	49.70
2.53638	49.74
2.55305	49.75
2.56972	49.77
2.58638	49.81
2.60305	49.81
2.61972	49.82
2.63638	49.82
2.65305	49.82
2.66972	49.84
2.68638	49.85
2.70305	49.86
2.71972	49.88
2.73638	49.86
2.75305	49.85
2.76972	49.85
2.78638	49.89
2.80305	49.89
2.81972	49.89
2.83638	49.88
2.85305	49.88
2.86972	49.89
2.88638	49.91
2.90305	49.91
2.91972	49.94
2.93638	49.95
2.95305	49.96
2.96972	49.97
2.98638	49.99
3.00305	50.00
3.01972	50.01
3.03638	50.03
3.05305	50.03
3.06972	50.04
3.08638	50.05
3.10305	50.06
3.11972	50.06
3.13638	50.06
3.15305	50.05
3.16972	50.05
3.18638	50.06
3.20305	50.06
3.21972	50.07
3.23638	50.07
3.25305	50.08
3.26972	50.10
3.28638	50.10
3.30305	50.10
3.31972	50.09
3.33638	50.09
3.35305	50.08
3.36972	50.07
3.38638	50.06
3.40305	50.04
3.41972	50.03
3.43638	50.03
3.45305	50.04
3.46972	50.03
3.48638	50.05
3.50305	50.06
3.51972	50.07
3.53638	50.07
3.55305	50.07
3.56972	50.07
3.58638	50.06
3.60305	50.06
3.61972	50.06
3.63638	50.05
3.65305	50.04
3.66972	50.03
3.68638	50.04
3.70305	50.04
3.71972	50.05
3.73638	50.05
3.75305	50.05
3.76972	50.06
3.78638	50.08
3.80305	50.09
3.81972	50.09
3.83638	50.09
3.85305	50.09
3.86972	50.08
3.88638	50.08
3.90305	50.07
3.91972	50.07
3.93638	50.07
3.95305	50.09
3.96972	50.08
3.98638	50.08

[Status Trace (Injection Unit Temperature)]
Interval(msec)	1000
# of Points	240
Start Time(min)	0.003
End Time(min)	3.986
Intensity Units	
Intensity Multiplier	1
R.Time (min)	Intensity
0.00305	99.98
0.01972	99.97
0.03638	99.98
0.05305	99.98
0.06972	99.98
0.08638	99.98
0.10305	99.99
0.11972	99.98
0.13638	99.98
0.15305	99.98
0.16972	99.98
0.18638	99.99
0.20305	99.98
0.21972	99.99
0.23638	99.99
0.25305	99.99
0.26972	99.99
0.28638	99.99
0.30305	99.98
0.31972	99.99
0.33638	99.98
0.35305	99.99
0.36972	99.99
0.38638	99.99
0.40305	99.98
0.41972	99.99
0.43638	99.98
0.45305	99.99
0.46972	99.99
0.48638	99.99
0.50305	99.98
0.51972	99.99
0.53638	99.99
0.55305	99.99
0.56972	99.99
0.58638	99.98
0.60305	99.98
0.61972	99.99
0.63638	99.98
0.65305	99.98
0.66972	99.99
0.68638	99.98
0.70305	99.99
0.71972	99.99
0.73638	99.99
0.75305	99.99
0.76972	99.98
0.78638	99.99
0.80305	99.99
0.81972	99.98
0.83638	99.98
0.85305	99.98
0.86972	99.98
0.88638	99.98
0.90305	99.98
0.91972	99.98
0.93638	99.98
0.95305	99.99
0.96972	99.98
0.98638	99.98
1.00305	99.98
1.01972	99.98
1.03638	99.98
1.05305	99.98
1.06972	99.98
1.08638	99.99
1.10305	99.98
1.11972	99.99
1.13638	99.99
1.15305	99.99
1.16972	99.98
1.18638	99.98
1.20305	99.99
1.21972	99.99
1.23638	99.98
1.25305	99.99
1.26972	99.98
1.28638	99.98
1.30305	99.98
1.31972	99.98
1.33638	99.99
1.35305	99.98
1.36972	99.99
1.38638	99.98
1.40305	99.98
1.41972	99.98
1.43638	99.98
1.45305	99.99
1.46972	99.98
1.48638	99.99
1.50305	99.99
1.51972	99.99
1.53638	99.98
1.55305	99.99
1.56972	99.99
1.58638	99.99
1.60305	99.99
1.61972	99.98
1.63638	99.99
1.65305	99.99
1.66972	99.98
1.68638	99.99
1.70305	99.99
1.71972	99.98
1.73638	99.99
1.75305	99.99
1.76972	99.98
1.78638	99.98
1.80305	99.99
1.81972	99.98
1.83638	99.98
1.85305	99.99
1.86972	99.98
1.88638	99.98
1.90305	99.98
1.91972	99.98
1.93638	99.98
1.95305	99.98
1.96972	99.98
1.98638	99.98
2.00305	99.98
2.01972	99.97
2.03638	99.98
2.05305	99.97
2.06972	99.97
2.08638	99.97
2.10305	99.97
2.11972	99.97
2.13638	99.97
2.15305	99.97
2.16972	99.97
2.18638	99.96
2.20305	99.97
2.21972	99.97
2.23638	99.97
2.25305	99.95
2.26972	99.97
2.28638	99.97
2.30305	99.97
2.31972	99.96
2.33638	99.97
2.35305	99.97
2.36972	99.97
2.38638	99.96
2.40305	99.97
2.41972	99.97
2.43638	99.96
2.45305	99.97
2.46972	99.97
2.48638	99.97
2.50305	99.97
2.51972	99.97
2.53638	99.97
2.55305	99.97
2.56972	99.97
2.58638	99.97
2.60305	99.98
2.61972	99.97
2.63638	99.98
2.65305	99.98
2.66972	99.98
2.68638	99.97
2.70305	99.98
2.71972	99.98
2.73638	99.98
2.75305	99.99
2.76972	99.99
2.78638	99.99
2.80305	99.99
2.81972	99.99
2.83638	100.00
2.85305	99.99
2.86972	100.00
2.88638	100.00
2.90305	100.00
2.91972	100.00
2.93638	100.01
2.95305	100.01
2.96972	100.01
2.98638	100.01
3.00305	100.01
3.01972	100.02
3.03638	100.01
3.05305	100.02
3.06972	100.02
3.08638	100.02
3.10305	100.02
3.11972	100.02
3.13638	100.02
3.15305	100.02
3.16972	100.02
3.18638	100.02
3.20305	100.03
3.21972	100.02
3.23638	100.03
3.25305	100.03
3.26972	100.03
3.28638	100.03
3.30305	100.02
3.31972	100.03
3.33638	100.03
3.35305	100.03
3.36972	100.03
3.38638	100.03
3.40305	100.04
3.41972	100.03
3.43638	100.03
3.45305	100.03
3.46972	100.04
3.48638	100.04
3.50305	100.04
3.51972	100.03
3.53638	100.03
3.55305	100.04
3.56972	100.04
3.58638	100.04
3.60305	100.03
3.61972	100.04
3.63638	100.03
3.65305	100.04
3.66972	100.04
3.68638	100.04
3.70305	100.04
3.71972	100.04
3.73638	100.04
3.75305	100.04
3.76972	100.05
3.78638	100.05
3.80305	100.05
3.81972	100.05
3.83638	100.04
3.85305	100.04
3.86972	100.05
3.88638	100.05
3.90305	100.05
3.91972	100.05
3.93638	100.05
3.95305	100.05
3.96972	100.04
3.98638	100.05

[Status Trace (Carrier Gas Pressure)]
Interval(msec)	1000
# of Points	240
Start Time(min)	0.003
End Time(min)	3.986
Intensity Units	
Intensity Multiplier	1
R.Time (min)	Intensity
0.00305	58.00
0.01972	56.22
0.03638	56.40
0.05305	58.68
0.06972	59.86
0.08638	58.26
0.10305	57.97
0.11972	58.00
0.13638	58.01
0.15305	58.01
0.16972	58.00
0.18638	58.00
0.20305	58.00
0.21972	58.00
0.23638	58.00
0.25305	58.00
0.26972	58.00
0.28638	58.00
0.30305	58.00
0.31972	58.00
0.33638	58.00
0.35305	58.00
0.36972	58.00
0.38638	58.00
0.40305	58.00
0.41972	58.00
0.43638	58.00
0.45305	58.00
0.46972	58.00
0.48638	58.00
0.50305	58.00
0.51972	58.00
0.53638	58.00
0.55305	58.00
0.56972	58.00
0.58638	58.00
0.60305	58.00
0.61972	58.00
0.63638	58.00
0.65305	58.00
0.66972	58.00
0.68638	58.00
0.70305	58.00
0.71972	58.00
0.73638	58.00
0.75305	58.00
0.76972	58.00
0.78638	58.00
0.80305	58.00
0.81972	58.00
0.83638	58.00
0.85305	58.00
0.86972	58.00
0.88638	58.00
0.90305	58.00
0.91972	58.00
0.93638	58.00
0.95305	58.00
0.96972	58.00
0.98638	58.00
1.00305	58.00
1.01972	58.00
1.03638	58.00
1.05305	58.00
1.06972	58.00
1.08638	58.00
1.10305	58.00
1.11972	58.00
1.13638	58.00
1.15305	58.00
1.16972	58.00
1.18638	58.00
1.20305	58.00
1.21972	58.00
1.23638	58.00
1.25305	58.00
1.26972	58.00
1.28638	58.00
1.30305	58.00
1.31972	58.00
1.33638	58.00
1.35305	58.00
1.36972	58.00
1.38638	58.00
1.40305	58.00
1.41972	58.00
1.43638	58.00
1.45305	58.00
1.46972	58.00
1.48638	58.00
1.50305	58.00
1.51972	58.00
1.53638	58.00
1.55305	58.00
1.56972	58.00
1.58638	58.00
1.60305	58.00
1.61972	58.00
1.63638	58.00
1.65305	58.00
1.66972	58.01
1.68638	58.01
1.70305	58.00
1.71972	58.00
1.73638	58.00
1.75305	58.00
1.76972	58.00
1.78638	58.00
1.80305	58.00
1.81972	58.00
1.83638	58.00
1.85305	58.00
1.86972	58.00
1.88638	58.00
1.90305	58.00
1.91972	58.00
1.93638	58.00
1.95305	58.00
1.96972	58.00
1.98638	58.00
2.00305	58.00
2.01972	58.00
2.03638	58.00
2.05305	58.00
2.06972	58.00
2.08638	58.00
2.10305	58.00
2.11972	58.00
2.13638	58.00
2.15305	58.00
2.16972	58.00
2.18638	58.00
2.20305	58.00
2.21972	58.00
2.23638	58.00
2.25305	58.00
2.26972	58.00
2.28638	58.00
2.30305	58.00
2.31972	58.00
2.33638	58.00
2.35305	58.00
2.36972	58.00
2.38638	57.99
2.40305	57.99
2.41972	58.00
2.43638	58.00
2.45305	58.00
2.46972	58.00
2.48638	58.00
2.50305	57.97
2.51972	58.02
2.53638	58.00
2.55305	58.00
2.56972	58.00
2.58638	58.00
2.60305	58.00
2.61972	58.00
2.63638	58.00
2.65305	58.00
2.66972	58.00
2.68638	58.00
2.70305	58.00
2.71972	58.00
2.73638	58.00
2.75305	58.00
2.76972	58.00
2.78638	58.00
2.80305	58.00
2.81972	58.00
2.83638	58.00
2.85305	58.00
2.86972	58.00
2.88638	58.00
2.90305	58.00
2.91972	58.00
2.93638	58.00
2.95305	58.00
2.96972	58.00
2.98638	58.00
3.00305	58.00
3.01972	58.00
3.03638	58.00
3.05305	58.00
3.06972	58.00
3.08638	58.00
3.10305	58.00
3.11972	58.00
3.13638	58.00
3.15305	58.00
3.16972	58.00
3.18638	58.00
3.20305	58.00
3.21972	58.00
3.23638	58.00
3.25305	58.00
3.26972	58.00
3.28638	58.00
3.30305	58.00
3.31972	58.00
3.33638	58.00
3.35305	58.00
3.36972	58.00
3.38638	58.00
3.40305	58.00
3.41972	58.00
3.43638	58.00
3.45305	58.00
3.46972	58.00
3.48638	58.00
3.50305	58.00
3.51972	58.00
3.53638	58.00
3.55305	58.00
3.56972	58.00
3.58638	58.00
3.60305	58.00
3.61972	58.00
3.63638	58.00
3.65305	58.00
3.66972	58.00
3.68638	58.00
3.70305	58.00
3.71972	58.00
3.73638	58.00
3.75305	58.00
3.76972	58.00
3.78638	58.00
3.80305	58.00
3.81972	58.00
3.83638	58.00
3.85305	58.00
3.86972	58.00
3.88638	58.00
3.90305	58.00
3.91972	58.00
3.93638	58.00
3.95305	58.00
3.96972	58.00
3.98638	58.00

[Status Trace (Carrier Gas Flow)]
Interval(msec)	1000
# of Points	240
Start Time(min)	0.003
End Time(min)	3.986
Intensity Units	
Intensity Multiplier	1
R.Time (min)	Intensity
0.00305	34.52
0.01972	34.59
0.03638	34.54
0.05305	34.55
0.06972	34.49
0.08638	34.52
0.10305	34.52
0.11972	34.53
0.13638	34.51
0.15305	34.52
0.16972	34.52
0.18638	34.52
0.20305	34.51
0.21972	34.52
0.23638	34.52
0.25305	34.53
0.26972	34.52
0.28638	34.52
0.30305	34.52
0.31972	34.51
0.33638	34.52
0.35305	34.52
0.36972	34.52
0.38638	34.52
0.40305	34.52
0.41972	34.52
0.43638	34.52
0.45305	34.52
0.46972	34.52
0.48638	34.52
0.50305	34.53
0.51972	34.52
0.53638	34.52
0.55305	34.53
0.56972	34.52
0.58638	34.52
0.60305	34.52
0.61972	34.52
0.63638	34.52
0.65305	34.53
0.66972	34.52
0.68638	34.51
0.70305	34.51
0.71972	34.52
0.73638	34.53
0.75305	34.52
0.76972	34.52
0.78638	34.52
0.80305	34.52
0.81972	34.52
0.83638	34.52
0.85305	34.52
0.86972	34.52
0.88638	34.52
0.90305	34.52
0.91972	34.52
0.93638	34.53
0.95305	34.53
0.96972	34.52
0.98638	34.51
1.00305	34.52
1.01972	34.52
1.03638	34.52
1.05305	34.52
1.06972	34.53
1.08638	34.51
1.10305	34.52
1.11972	34.52
1.13638	34.52
1.15305	34.53
1.16972	34.51
1.18638	34.52
1.20305	34.52
1.21972	34.51
1.23638	34.52
1.25305	34.51
1.26972	34.52
1.28638	34.52
1.30305	34.51
1.31972	34.52
1.33638	34.52
1.35305	34.52
1.36972	34.52
1.38638	34.52
1.40305	34.51
1.41972	34.52
1.43638	34.52
1.45305	34.52
1.46972	34.52
1.48638	34.52
1.50305	34.51
1.51972	34.52
1.53638	34.52
1.55305	34.52
1.56972	34.52
1.58638	34.52
1.60305	34.52
1.61972	34.53
1.63638	34.52
1.65305	34.52
1.66972	34.52
1.68638	34.52
1.70305	34.52
1.71972	34.52
1.73638	34.52
1.75305	34.52
1.76972	34.52
1.78638	34.52
1.80305	34.52
1.81972	34.52
1.83638	34.51
1.85305	34.52
1.86972	34.52
1.88638	34.51
1.90305	34.53
1.91972	34.51
1.93638	34.52
1.95305	34.52
1.96972	34.52
1.98638	34.52
2.00305	34.52
2.01972	34.51
2.03638	34.52
2.05305	34.52
2.06972	34.52
2.08638	34.51
2.10305	34.52
2.11972	34.53
2.13638	34.52
2.15305	34.53
2.16972	34.52
2.18638	34.52
2.20305	34.51
2.21972	34.52
2.23638	34.52
2.25305	34.52
2.26972	34.52
2.28638	34.52
2.30305	34.53
2.31972	34.51
2.33638	34.52
2.35305	34.52
2.36972	34.53
2.38638	34.55
2.40305	34.52
2.41972	34.52
2.43638	34.52
2.45305	34.51
2.46972	34.52
2.48638	34.52
2.50305	34.69
2.51972	34.52
2.53638	34.52
2.55305	34.52
2.56972	34.51
2.58638	34.52
2.60305	34.51
2.61972	34.52
2.63638	34.52
2.65305	34.52
2.66972	34.52
2.68638	34.52
2.70305	34.51
2.71972	34.52
2.73638	34.52
2.75305	34.52
2.76972	34.52
2.78638	34.52
2.80305	34.51
2.81972	34.52
2.83638	34.52
2.85305	34.52
2.86972	34.51
2.88638	34.52
2.90305	34.52
2.91972	34.53
2.93638	34.52
2.95305	34.52
2.96972	34.52
2.98638	34.52
3.00305	34.52
3.01972	34.52
3.03638	34.52
3.05305	34.52
3.06972	34.52
3.08638	34.52
3.10305	34.52
3.11972	34.52
3.13638	34.52
3.15305	34.52
3.16972	34.52
3.18638	34.52
3.20305	34.52
3.21972	34.52
3.23638	34.52
3.25305	34.52
3.26972	34.52
3.28638	34.52
3.30305	34.52
3.31972	34.52
3.33638	34.52
3.35305	34.52
3.36972	34.52
3.38638	34.52
3.40305	34.53
3.41972	34.52
3.43638	34.52
3.45305	34.52
3.46972	34.52
3.48638	34.52
3.50305	34.51
3.51972	34.52
3.53638	34.52
3.55305	34.52
3.56972	34.52
3.58638	34.52
3.60305	34.52
3.61972	34.52
3.63638	34.52
3.65305	34.52
3.66972	34.53
3.68638	34.51
3.70305	34.52
3.71972	34.51
3.73638	34.52
3.75305	34.53
3.76972	34.52
3.78638	34.52
3.80305	34.52
3.81972	34.51
3.83638	34.52
3.85305	34.52
3.86972	34.52
3.88638	34.52
3.90305	34.52
3.91972	34.53
3.93638	34.51
3.95305	34.52
3.96972	34.52
3.98638	34.52

[Status Trace (Column Flow)]
Interval(msec)	1000
# of Points	240
Start Time(min)	0.003
End Time(min)	3.986
Intensity Units	
Intensity Multiplier	1
R.Time (min)	Intensity
0.00305	5.55
0.01972	5.34
0.03638	5.37
0.05305	5.63
0.06972	5.77
0.08638	5.58
0.10305	5.55
0.11972	5.55
0.13638	5.55
0.15305	5.55
0.16972	5.55
0.18638	5.55
0.20305	5.55
0.21972	5.55
0.23638	5.55
0.25305	5.55
0.26972	5.55
0.28638	5.55
0.30305	5.55
0.31972	5.55
0.33638	5.55
0.35305	5.55
0.36972	5.55
0.38638	5.55
0.40305	5.55
0.41972	5.55
0.43638	5.55
0.45305	5.55
0.46972	5.55
0.48638	5.55
0.50305	5.55
0.51972	5.55
0.53638	5.55
0.55305	5.55
0.56972	5.55
0.58638	5.55
0.60305	5.55
0.61972	5.55
0.63638	5.55
0.65305	5.55
0.66972	5.55
0.68638	5.55
0.70305	5.55
0.71972	5.55
0.73638	5.55
0.75305	5.55
0.76972	5.55
0.78638	5.55
0.80305	5.55
0.81972	5.55
0.83638	5.55
0.85305	5.55
0.86972	5.55
0.88638	5.55
0.90305	5.55
0.91972	5.55
0.93638	5.55
0.95305	5.55
0.96972	5.55
0.98638	5.55
1.00305	5.55
1.01972	5.55
1.03638	5.55
1.05305	5.55
1.06972	5.55
1.08638	5.55
1.10305	5.55
1.11972	5.55
1.13638	5.55
1.15305	5.55
1.16972	5.55
1.18638	5.55
1.20305	5.55
1.21972	5.55
1.23638	5.55
1.25305	5.55
1.26972	5.55
1.28638	5.55
1.30305	5.55
1.31972	5.55
1.33638	5.55
1.35305	5.55
1.36972	5.55
1.38638	5.55
1.40305	5.55
1.41972	5.55
1.43638	5.55
1.45305	5.55
1.46972	5.55
1.48638	5.55
1.50305	5.55
1.51972	5.55
1.53638	5.55
1.55305	5.55
1.56972	5.55
1.58638	5.55
1.60305	5.55
1.61972	5.55
1.63638	5.54
1.65305	5.54
1.66972	5.53
1.68638	5.52
1.70305	5.50
1.71972	5.49
1.73638	5.48
1.75305	5.47
1.76972	5.46
1.78638	5.45
1.80305	5.44
1.81972	5.43
1.83638	5.42
1.85305	5.41
1.86972	5.40
1.88638	5.39
1.90305	5.38
1.91972	5.37
1.93638	5.36
1.95305	5.35
1.96972	5.34
1.98638	5.33
2.00305	5.32
2.01972	5.31
2.03638	5.30
2.05305	5.29
2.06972	5.28
2.08638	5.28
2.10305	5.27
2.11972	5.26
2.13638	5.25
2.15305	5.24
2.16972	5.23
2.18638	5.22
2.20305	5.21
2.21972	5.20
2.23638	5.19
2.25305	5.18
2.26972	5.17
2.28638	5.16
2.30305	5.15
2.31972	5.14
2.33638	5.13
2.35305	5.12
2.36972	5.12
2.38638	5.12
2.40305	5.12
2.41972	5.12
2.43638	5.12
2.45305	5.12
2.46972	5.12
2.48638	5.12
2.50305	5.11
2.51972	5.12
2.53638	5.11
2.55305	5.11
2.56972	5.11
2.58638	5.11
2.60305	5.11
2.61972	5.11
2.63638	5.11
2.65305	5.11
2.66972	5.11
2.68638	5.11
2.70305	5.11
2.71972	5.11
2.73638	5.11
2.75305	5.11
2.76972	5.11
2.78638	5.11
2.80305	5.11
2.81972	5.11
2.83638	5.11
2.85305	5.11
2.86972	5.11
2.88638	5.11
2.90305	5.11
2.91972	5.11
2.93638	5.11
2.95305	5.11
2.96972	5.11
2.98638	5.11
3.00305	5.11
3.01972	5.11
3.03638	5.11
3.05305	5.11
3.06972	5.11
3.08638	5.11
3.10305	5.11
3.11972	5.11
3.13638	5.11
3.15305	5.11
3.16972	5.11
3.18638	5.11
3.20305	5.11
3.21972	5.11
3.23638	5.11
3.25305	5.11
3.26972	5.11
3.28638	5.10
3.30305	5.10
3.31972	5.10
3.33638	5.11
3.35305	5.11
3.36972	5.11
3.38638	5.11
3.40305	5.11
3.41972	5.11
3.43638	5.11
3.45305	5.11
3.46972	5.11
3.48638	5.11
3.50305	5.11
3.51972	5.11
3.53638	5.11
3.55305	5.11
3.56972	5.11
3.58638	5.11
3.60305	5.11
3.61972	5.11
3.63638	5.11
3.65305	5.11
3.66972	5.11
3.68638	5.11
3.70305	5.11
3.71972	5.11
3.73638	5.11
3.75305	5.11
3.76972	5.11
3.78638	5.11
3.80305	5.11
3.81972	5.11
3.83638	5.11
3.85305	5.11
3.86972	5.11
3.88638	5.11
3.90305	5.11
3.91972	5.11
3.93638	5.11
3.95305	5.11
3.96972	5.11
3.98638	5.11

[Status Trace (Linear Velocity)]
Interval(msec)	1000
# of Points	240
Start Time(min)	0.003
End Time(min)	3.986
Intensity Units	
Intensity Multiplier	1
R.Time (min)	Intensity
0.00305	39.02
0.01972	37.85
0.03638	37.97
0.05305	39.46
0.06972	40.24
0.08638	39.19
0.10305	39.00
0.11972	39.02
0.13638	39.03
0.15305	39.02
0.16972	39.02
0.18638	39.02
0.20305	39.02
0.21972	39.02
0.23638	39.02
0.25305	39.02
0.26972	39.02
0.28638	39.02
0.30305	39.02
0.31972	39.02
0.33638	39.02
0.35305	39.02
0.36972	39.02
0.38638	39.02
0.40305	39.02
0.41972	39.02
0.43638	39.02
0.45305	39.02
0.46972	39.02
0.48638	39.02
0.50305	39.02
0.51972	39.02
0.53638	39.02
0.55305	39.02
0.56972	39.02
0.58638	39.02
0.60305	39.03
0.61972	39.02
0.63638	39.02
0.65305	39.02
0.66972	39.02
0.68638	39.02
0.70305	39.02
0.71972	39.02
0.73638	39.02
0.75305	39.02
0.76972	39.02
0.78638	39.02
0.80305	39.03
0.81972	39.03
0.83638	39.02
0.85305	39.02
0.86972	39.02
0.88638	39.03
0.90305	39.03
0.91972	39.02
0.93638	39.02
0.95305	39.02
0.96972	39.02
0.98638	39.03
1.00305	39.03
1.01972	39.03
1.03638	39.03
1.05305	39.02
1.06972	39.02
1.08638	39.02
1.10305	39.02
1.11972	39.02
1.13638	39.02
1.15305	39.02
1.16972	39.02
1.18638	39.02
1.20305	39.02
1.21972	39.02
1.23638	39.02
1.25305	39.02
1.26972	39.02
1.28638	39.02
1.30305	39.03
1.31972	39.03
1.33638	39.03
1.35305	39.03
1.36972	39.03
1.38638	39.03
1.40305	39.03
1.41972	39.02
1.43638	39.02
1.45305	39.02
1.46972	39.02
1.48638	39.02
1.50305	39.02
1.51972	39.02
1.53638	39.03
1.55305	39.03
1.56972	39.03
1.58638	39.03
1.60305	39.02
1.61972	39.01
1.63638	39.00
1.65305	38.97
1.66972	38.94
1.68638	38.91
1.70305	38.87
1.71972	38.84
1.73638	38.81
1.75305	38.78
1.76972	38.75
1.78638	38.71
1.80305	38.68
1.81972	38.65
1.83638	38.62
1.85305	38.59
1.86972	38.56
1.88638	38.53
1.90305	38.50
1.91972	38.47
1.93638	38.44
1.95305	38.40
1.96972	38.37
1.98638	38.35
2.00305	38.32
2.01972	38.28
2.03638	38.25
2.05305	38.23
2.06972	38.20
2.08638	38.17
2.10305	38.13
2.11972	38.11
2.13638	38.07
2.15305	38.04
2.16972	38.01
2.18638	37.98
2.20305	37.95
2.21972	37.93
2.23638	37.90
2.25305	37.87
2.26972	37.84
2.28638	37.81
2.30305	37.78
2.31972	37.75
2.33638	37.72
2.35305	37.69
2.36972	37.67
2.38638	37.67
2.40305	37.67
2.41972	37.67
2.43638	37.67
2.45305	37.67
2.46972	37.67
2.48638	37.67
2.50305	37.64
2.51972	37.68
2.53638	37.66
2.55305	37.66
2.56972	37.66
2.58638	37.66
2.60305	37.66
2.61972	37.66
2.63638	37.66
2.65305	37.66
2.66972	37.65
2.68638	37.65
2.70305	37.65
2.71972	37.65
2.73638	37.65
2.75305	37.65
2.76972	37.65
2.78638	37.65
2.80305	37.65
2.81972	37.65
2.83638	37.65
2.85305	37.65
2.86972	37.65
2.88638	37.65
2.90305	37.65
2.91972	37.65
2.93638	37.64
2.95305	37.64
2.96972	37.64
2.98638	37.64
3.00305	37.64
3.01972	37.64
3.03638	37.64
3.05305	37.64
3.06972	37.64
3.08638	37.64
3.10305	37.63
3.11972	37.63
3.13638	37.63
3.15305	37.64
3.16972	37.64
3.18638	37.64
3.20305	37.63
3.21972	37.63
3.23638	37.63
3.25305	37.63
3.26972	37.63
3.28638	37.63
3.30305	37.63
3.31972	37.63
3.33638	37.63
3.35305	37.63
3.36972	37.63
3.38638	37.63
3.40305	37.64
3.41972	37.64
3.43638	37.64
3.45305	37.64
3.46972	37.64
3.48638	37.64
3.50305	37.63
3.51972	37.63
3.53638	37.63
3.55305	37.63
3.56972	37.63
3.58638	37.63
3.60305	37.63
3.61972	37.63
3.63638	37.64
3.65305	37.64
3.66972	37.64
3.68638	37.64
3.70305	37.64
3.71972	37.64
3.73638	37.64
3.75305	37.64
3.76972	37.63
3.78638	37.63
3.80305	37.63
3.81972	37.63
3.83638	37.63
3.85305	37.63
3.86972	37.63
3.88638	37.63
3.90305	37.63
3.91972	37.63
3.93638	37.63
3.95305	37.63
3.96972	37.63
3.98638	37.63

