[Header]
Application Name	LabSolutions
Version	5.110
Data File Name	C:\Users\User\Desktop\GC Analyses\Jack\Nachusa Grasslands Sampling\T4 Timepoint July 12th\T4_07122022_062.gcd
Output Date	3/17/2023
Output Time	12:04:54 PM

[File Information]
Type	Data File
Generated	3/14/2023 10:19:03 PM
Generated by	System Administrator
Modified	3/14/2023 10:25:43 PM
Modified by	System Administrator

[Sample Information]
Operator Name	System Administrator
Acquired	3/14/2023 10:21:43 PM
Sample Type	0:Unknown
Level	0
Sample Name	062
Sample ID	062
ISTD Amount1	1
ISTD Amount2	1
ISTD Amount3	1
ISTD Amount4	1
ISTD Amount5	1
ISTD Amount6	1
ISTD Amount7	1
ISTD Amount8	1
ISTD Amount9	1
ISTD Amount10	1
ISTD Amount11	1
ISTD Amount12	1
ISTD Amount13	1
ISTD Amount14	1
ISTD Amount15	1
ISTD Amount16	1
ISTD Amount17	1
ISTD Amount18	1
ISTD Amount19	1
ISTD Amount20	1
ISTD Amount21	1
ISTD Amount22	1
ISTD Amount23	1
ISTD Amount24	1
ISTD Amount25	1
ISTD Amount26	1
ISTD Amount27	1
ISTD Amount28	1
ISTD Amount29	1
ISTD Amount30	1
ISTD Amount31	1
ISTD Amount32	1
Sample Amount	1
Dilution Factor	1
Vial#	61
Injection Volume	1
Injection Count	1
Bar Code	

[Original Files]
Data File	C:\Users\User\Desktop\GC Analyses\Jack\Nachusa Grasslands Sampling\T4 Timepoint July 12th\T4_07122022_062.gcd
Method File	C:\LabSolutions\Data\GHG_4min_2022\ghg3_togas_w_acet_4 min_new_int.gcm
Batch File	C:\LabSolutions\Data\AutoSamplerTesting\T4_07122022.gcb
Report Format File	c:\LabSolutions\System\DEFAULT.lsr

[File Description]


[Configuration]
Instrument Name	C0B7VH3-Instrument1
Instrument #	1
Line #	1
# of Detectors	3
Detector ID	DET#1	DET#2	DET#3
Detector Name	FID	PTCD	ECD
# of Channels	1	1	1

[Peak Table(Ch1)]
# of Peaks	3
Peak#	R.Time	I.Time	F.Time	Area	Height	A/H	Conc.	Mark	ID#	Name	k'	Plate #	Plate Ht.	Tailing	Resolution	Sep.Factor	Area Ratio	Height Ratio	Conc. %	Norm Conc.
1	1.476	1.424	1.538	23999	11771	2.039	169.432	   	1	CO	0.000	9689	15.482	1.299	0.000	0.000	0	0	11.856	11.856
2	1.571	1.538	1.619	4133	2142	1.929	79.912	 V 	2	CH4	0.065	11888	12.617	1.141	1.621	0.000	0	0	5.592	5.592
3	1.996	1.949	2.506	4700478	2248813	2.090	1179.693	   	3	CO2	0.353	17174	8.734	1.331	7.175	5.462	0	0	82.552	82.552

[Peak Table(Ch2)]
# of Peaks	0

[Peak Table(Ch3)]
# of Peaks	5
Peak#	R.Time	I.Time	F.Time	Area	Height	A/H	Conc.	Mark	ID#	Name	k'	Plate #	Plate Ht.	Tailing	Resolution	Sep.Factor	Area Ratio	Height Ratio	Conc. %	Norm Conc.
1	2.462	2.337	2.510	2220	702	3.165	0.000	   			0.000	9510	15.772	0.000	0.000	0.000	0	0	0.000	0.000
2	2.532	2.510	2.579	1247	411	3.035	0.000	 V 			0.028	5763	26.030	0.000	0.594	0.000	0	0	0.000	0.000
3	2.601	2.579	2.678	701	203	3.448	0.000	 V 			0.057	1104	135.930	0.000	0.312	2.000	0	0	0.000	0.000
4	2.880	2.803	3.030	17568	4699	3.739	0.449	   	1	N2O	0.170	13275	11.299	1.500	1.349	3.000	0	0	100.000	100.000
5	3.353	3.170	3.995	18038	659	27.387	0.000	   	2	SF6	0.362	277	541.159	2.202	1.045	2.132	0	0	0.000	0.000

[Compound Results(Ch1)]
# of IDs	6
ID#	Name	R.Time	Area	Height	Conc.	Curve	3rd	2nd	1st	Constant	Area Ratio	Height Ratio	Conc. %	Norm Conc.
1	CO	1.476	23999	11771	169.432	Linear	0.000000e+00	0.000000e+00	1.416423e+002	0.000000e+00	0	0	11.856	11.856
2	CH4	1.571	4133	2142	79.912	Linear	0.000000e+00	0.000000e+00	5.171738e+001	0.000000e+00	0	0	5.592	5.592
3	CO2	1.996	4700478	2248813	1179.693	Linear	0.000000e+00	0.000000e+00	3.984494e+003	0.000000e+00	0	0	82.552	82.552
4	Ethylene	0.000	0	0	0.000	Linear	0.000000e+00	0.000000e+00	0.000000e+00	0.000000e+00	0	0	0.000	0.000
5	Acetylene	0.000	0	0	0.000	Linear	0.000000e+00	0.000000e+00	0.000000e+00	0.000000e+00	0	0	0.000	0.000
6	Ethane	0.000	0	0	0.000	Linear	0.000000e+00	0.000000e+00	0.000000e+00	0.000000e+00	0	0	0.000	0.000

[Compound Results(Ch2)]
# of IDs	5
ID#	Name	R.Time	Area	Height	Conc.	Curve	3rd	2nd	1st	Constant	Area Ratio	Height Ratio	Conc. %	Norm Conc.
1	Hydrogen	0.000	0	0	0.000	Linear	0.000000e+00	0.000000e+00	0.000000e+00	0.000000e+00	0	0	0.000	0.000
2	Oxygen	0.000	0	0	0.000	Linear	0.000000e+00	0.000000e+00	0.000000e+00	0.000000e+00	0	0	0.000	0.000
3	Nitrogen	0.000	0	0	0.000	Linear	0.000000e+00	0.000000e+00	0.000000e+00	0.000000e+00	0	0	0.000	0.000
4	Methane	0.000	0	0	0.000	Linear	0.000000e+00	0.000000e+00	0.000000e+00	0.000000e+00	0	0	0.000	0.000
5	Carbon Monoxide	0.000	0	0	0.000	Linear	0.000000e+00	0.000000e+00	0.000000e+00	0.000000e+00	0	0	0.000	0.000

[Compound Results(Ch3)]
# of IDs	2
ID#	Name	R.Time	Area	Height	Conc.	Curve	3rd	2nd	1st	Constant	Area Ratio	Height Ratio	Conc. %	Norm Conc.
1	N2O	2.880	17568	4699	0.449	Linear	0.000000e+00	0.000000e+00	3.915173e+004	0.000000e+00	0	0	100.000	100.000
2	SF6	3.353	18038	659	0.000	Linear	0.000000e+00	0.000000e+00	0.000000e+00	0.000000e+00	0	0	0.000	0.000

[Group Results(Ch1)]
# of Groups	0

[Group Results(Ch2)]
# of Groups	0

[Group Results(Ch3)]
# of Groups	0

[Chromatogram (Ch1)]
Interval(msec)	220
# of Points	1091
Start Time(min)	0.002
End Time(min)	3.998
R.Time (min)	Intensity
0.00167	30
0.00533	29
0.00900	28
0.01267	28
0.01633	31
0.02000	37
0.02367	41
0.02733	45
0.03100	48
0.03467	50
0.03833	51
0.04200	50
0.04567	49
0.04933	51
0.05300	51
0.05667	51
0.06033	48
0.06400	41
0.06767	25
0.07133	15
0.07500	11
0.07867	5
0.08233	-4
0.08600	-11
0.08967	-9
0.09333	-6
0.09700	-3
0.10067	-2
0.10433	1
0.10800	7
0.11167	12
0.11533	17
0.11900	15
0.12267	14
0.12633	14
0.13000	16
0.13367	17
0.13733	13
0.14100	10
0.14467	8
0.14833	13
0.15200	22
0.15567	29
0.15933	31
0.16300	34
0.16667	41
0.17033	48
0.17400	53
0.17767	53
0.18133	52
0.18500	51
0.18867	49
0.19233	49
0.19600	48
0.19967	46
0.20333	47
0.20700	50
0.21067	56
0.21433	60
0.21800	64
0.22167	70
0.22533	76
0.22900	81
0.23267	82
0.23633	82
0.24000	85
0.24367	88
0.24733	91
0.25100	96
0.25467	101
0.25833	103
0.26200	102
0.26567	104
0.26933	110
0.27300	116
0.27667	119
0.28033	119
0.28400	114
0.28767	106
0.29133	98
0.29500	95
0.29867	100
0.30233	104
0.30600	108
0.30967	110
0.31333	107
0.31700	100
0.32067	93
0.32433	89
0.32800	88
0.33167	91
0.33533	94
0.33900	88
0.34267	83
0.34633	81
0.35000	82
0.35367	81
0.35733	79
0.36100	77
0.36467	73
0.36833	68
0.37200	68
0.37567	66
0.37933	61
0.38300	60
0.38667	56
0.39033	47
0.39400	38
0.39767	31
0.40133	29
0.40500	23
0.40867	20
0.41233	19
0.41600	18
0.41967	18
0.42333	17
0.42700	10
0.43067	0
0.43433	-7
0.43800	-8
0.44167	-8
0.44533	-8
0.44900	-6
0.45267	-3
0.45633	-2
0.46000	1
0.46367	7
0.46733	17
0.47100	27
0.47467	35
0.47833	34
0.48200	27
0.48567	19
0.48933	16
0.49300	20
0.49667	24
0.50033	22
0.50400	13
0.50767	1
0.51133	-6
0.51500	-14
0.51867	-18
0.52233	-17
0.52600	-16
0.52967	-14
0.53333	-10
0.53700	-10
0.54067	-8
0.54433	-1
0.54800	9
0.55167	19
0.55533	25
0.55900	28
0.56267	30
0.56633	32
0.57000	32
0.57367	31
0.57733	28
0.58100	24
0.58467	19
0.58833	13
0.59200	9
0.59567	8
0.59933	10
0.60300	10
0.60667	8
0.61033	3
0.61400	1
0.61767	5
0.62133	6
0.62500	-3
0.62867	-8
0.63233	-10
0.63600	-11
0.63967	-8
0.64333	-1
0.64700	6
0.65067	11
0.65433	15
0.65800	18
0.66167	21
0.66533	22
0.66900	19
0.67267	20
0.67633	19
0.68000	13
0.68367	5
0.68733	2
0.69100	3
0.69467	4
0.69833	3
0.70200	2
0.70567	-1
0.70933	-2
0.71300	0
0.71667	4
0.72033	12
0.72400	14
0.72767	15
0.73133	16
0.73500	13
0.73867	8
0.74233	3
0.74600	-0
0.74967	-2
0.75333	-2
0.75700	-3
0.76067	-5
0.76433	-6
0.76800	-9
0.77167	-10
0.77533	-11
0.77900	-16
0.78267	-21
0.78633	-16
0.79000	-5
0.79367	5
0.79733	13
0.80100	17
0.80467	16
0.80833	9
0.81200	-1
0.81567	-9
0.81933	-19
0.82300	-29
0.82667	-35
0.83033	-36
0.83400	-32
0.83767	-25
0.84133	-15
0.84500	-7
0.84867	-8
0.85233	-12
0.85600	-10
0.85967	-3
0.86333	1
0.86700	-2
0.87067	-6
0.87433	-8
0.87800	-8
0.88167	-5
0.88533	2
0.88900	12
0.89267	16
0.89633	16
0.90000	19
0.90367	20
0.90733	20
0.91100	18
0.91467	11
0.91833	-5
0.92200	-18
0.92567	-24
0.92933	-29
0.93300	-36
0.93667	-38
0.94033	-34
0.94400	-33
0.94767	-37
0.95133	-35
0.95500	-27
0.95867	-16
0.96233	-8
0.96600	-8
0.96967	-12
0.97333	-15
0.97700	-14
0.98067	-15
0.98433	-17
0.98800	-17
0.99167	-16
0.99533	-21
0.99900	-33
1.00267	-42
1.00633	-49
1.01000	-51
1.01367	-51
1.01733	-50
1.02100	-46
1.02467	-43
1.02833	-37
1.03200	-28
1.03567	-22
1.03933	-15
1.04300	-11
1.04667	-9
1.05033	-16
1.05400	-26
1.05767	-34
1.06133	-37
1.06500	-35
1.06867	-31
1.07233	-25
1.07600	-18
1.07967	-11
1.08333	-5
1.08700	-0
1.09067	2
1.09433	3
1.09800	5
1.10167	-1
1.10533	-13
1.10900	-30
1.11267	-43
1.11633	-47
1.12000	-45
1.12367	-38
1.12733	-33
1.13100	-35
1.13467	-39
1.13833	-41
1.14200	-43
1.14567	-42
1.14933	-37
1.15300	-35
1.15667	-34
1.16033	-32
1.16400	-23
1.16767	-15
1.17133	-14
1.17500	-19
1.17867	-27
1.18233	-32
1.18600	-32
1.18967	-27
1.19333	-22
1.19700	-18
1.20067	-18
1.20433	-15
1.20800	-11
1.21167	-8
1.21533	-6
1.21900	1
1.22267	9
1.22633	11
1.23000	6
1.23367	1
1.23733	-2
1.24100	-1
1.24467	-1
1.24833	1
1.25200	0
1.25567	-3
1.25933	-6
1.26300	-10
1.26667	-15
1.27033	-14
1.27400	-8
1.27767	1
1.28133	9
1.28500	14
1.28867	16
1.29233	15
1.29600	14
1.29967	18
1.30333	27
1.30700	34
1.31067	35
1.31433	35
1.31800	35
1.32167	32
1.32533	26
1.32900	15
1.33267	1
1.33633	-9
1.34000	-19
1.34367	-29
1.34733	-30
1.35100	-20
1.35467	-12
1.35833	-2
1.36200	5
1.36567	6
1.36933	9
1.37300	12
1.37667	14
1.38033	14
1.38400	19
1.38767	23
1.39133	24
1.39500	25
1.39867	26
1.40233	21
1.40600	9
1.40967	-3
1.41333	-10
1.41700	-10
1.42067	-7
1.42433	-4
1.42800	1
1.43167	6
1.43533	13
1.43900	23
1.44267	55
1.44633	161
1.45000	487
1.45367	1371
1.45733	3079
1.46100	5355
1.46467	7658
1.46833	9603
1.47200	11004
1.47567	11752
1.47933	11728
1.48300	10892
1.48667	9402
1.49033	7576
1.49400	5757
1.49767	4176
1.50133	2922
1.50500	1990
1.50867	1328
1.51233	874
1.51600	565
1.51967	354
1.52333	206
1.52700	106
1.53067	41
1.53433	-2
1.53800	-23
1.54167	4
1.54533	129
1.54900	399
1.55267	790
1.55633	1221
1.56000	1601
1.56367	1889
1.56733	2063
1.57100	2097
1.57467	1962
1.57833	1684
1.58200	1333
1.58567	985
1.58933	684
1.59300	449
1.59667	281
1.60033	168
1.60400	88
1.60767	26
1.61133	-17
1.61500	-43
1.61867	-58
1.62233	-69
1.62600	-74
1.62967	-75
1.63333	-72
1.63700	-69
1.64067	-64
1.64433	-57
1.64800	-50
1.65167	-47
1.65533	-45
1.65900	-38
1.66267	-29
1.66633	-26
1.67000	-25
1.67367	-31
1.67733	-45
1.68100	-60
1.68467	-71
1.68833	-80
1.69200	-82
1.69567	-78
1.69933	-74
1.70300	-73
1.70667	-77
1.71033	-78
1.71400	-71
1.71767	-58
1.72133	-46
1.72500	-41
1.72867	-37
1.73233	-33
1.73600	-33
1.73967	-33
1.74333	-33
1.74700	-39
1.75067	-49
1.75433	-55
1.75800	-56
1.76167	-55
1.76533	-55
1.76900	-51
1.77267	-49
1.77633	-51
1.78000	-50
1.78367	-47
1.78733	-43
1.79100	-37
1.79467	-30
1.79833	-28
1.80200	-32
1.80567	-33
1.80933	-35
1.81300	-35
1.81667	-34
1.82033	-40
1.82400	-46
1.82767	-52
1.83133	-52
1.83500	-45
1.83867	-36
1.84233	-33
1.84600	-35
1.84967	-37
1.85333	-35
1.85700	-28
1.86067	-24
1.86433	-21
1.86800	-16
1.87167	-9
1.87533	-8
1.87900	-9
1.88267	-13
1.88633	-18
1.89000	-30
1.89367	-44
1.89733	-52
1.90100	-51
1.90467	-46
1.90833	-39
1.91200	-33
1.91567	-25
1.91933	-16
1.92300	-12
1.92667	-13
1.93033	-15
1.93400	-14
1.93767	-10
1.94133	-4
1.94500	3
1.94867	8
1.95233	24
1.95600	198
1.95967	1432
1.96333	7986
1.96700	34176
1.97067	113739
1.97433	296434
1.97800	613039
1.98167	1034875
1.98533	1482490
1.98900	1869759
1.99267	2135394
1.99633	2248849
2.00000	2206572
2.00367	2028419
2.00733	1753968
2.01100	1433248
2.01467	1113580
2.01833	829406
2.02200	597876
2.02567	421246
2.02933	292830
2.03300	202560
2.03667	140505
2.04033	98408
2.04400	70017
2.04767	50853
2.05133	37839
2.05500	28901
2.05867	22666
2.06233	18234
2.06600	15013
2.06967	12617
2.07333	10798
2.07700	9384
2.08067	8260
2.08433	7351
2.08800	6606
2.09167	5990
2.09533	5468
2.09900	5020
2.10267	4639
2.10633	4309
2.11000	4019
2.11367	3760
2.11733	3523
2.12100	3307
2.12467	3115
2.12833	2940
2.13200	2782
2.13567	2641
2.13933	2518
2.14300	2405
2.14667	2297
2.15033	2194
2.15400	2095
2.15767	2003
2.16133	1917
2.16500	1837
2.16867	1759
2.17233	1686
2.17600	1616
2.17967	1555
2.18333	1501
2.18700	1448
2.19067	1400
2.19433	1359
2.19800	1326
2.20167	1299
2.20533	1275
2.20900	1246
2.21267	1214
2.21633	1177
2.22000	1143
2.22367	1111
2.22733	1080
2.23100	1049
2.23467	1014
2.23833	976
2.24200	944
2.24567	917
2.24933	894
2.25300	877
2.25667	860
2.26033	843
2.26400	827
2.26767	813
2.27133	800
2.27500	788
2.27867	777
2.28233	766
2.28600	750
2.28967	736
2.29333	724
2.29700	718
2.30067	712
2.30433	701
2.30800	684
2.31167	667
2.31533	650
2.31900	634
2.32267	622
2.32633	611
2.33000	602
2.33367	592
2.33733	583
2.34100	580
2.34467	580
2.34833	583
2.35200	582
2.35567	572
2.35933	558
2.36300	544
2.36667	528
2.37033	516
2.37400	505
2.37767	489
2.38133	473
2.38500	463
2.38867	461
2.39233	464
2.39600	469
2.39967	472
2.40333	470
2.40700	465
2.41067	461
2.41433	459
2.41800	457
2.42167	453
2.42533	443
2.42900	433
2.43267	427
2.43633	426
2.44000	423
2.44367	416
2.44733	410
2.45100	409
2.45467	408
2.45833	401
2.46200	393
2.46567	386
2.46933	382
2.47300	379
2.47667	373
2.48033	366
2.48400	360
2.48767	358
2.49133	356
2.49500	352
2.49867	345
2.50233	333
2.50600	323
2.50967	319
2.51333	318
2.51700	318
2.52067	325
2.52433	333
2.52800	340
2.53167	341
2.53533	337
2.53900	333
2.54267	331
2.54633	326
2.55000	317
2.55367	310
2.55733	307
2.56100	304
2.56467	300
2.56833	297
2.57200	294
2.57567	294
2.57933	296
2.58300	296
2.58667	289
2.59033	278
2.59400	267
2.59767	261
2.60133	256
2.60500	254
2.60867	252
2.61233	246
2.61600	240
2.61967	237
2.62333	241
2.62700	248
2.63067	251
2.63433	251
2.63800	247
2.64167	239
2.64533	232
2.64900	227
2.65267	223
2.65633	219
2.66000	219
2.66367	222
2.66733	224
2.67100	227
2.67467	231
2.67833	235
2.68200	242
2.68567	245
2.68933	242
2.69300	236
2.69667	235
2.70033	239
2.70400	242
2.70767	241
2.71133	237
2.71500	228
2.71867	222
2.72233	217
2.72600	216
2.72967	217
2.73333	220
2.73700	223
2.74067	228
2.74433	228
2.74800	226
2.75167	225
2.75533	223
2.75900	219
2.76267	213
2.76633	209
2.77000	206
2.77367	205
2.77733	205
2.78100	207
2.78467	211
2.78833	211
2.79200	206
2.79567	198
2.79933	189
2.80300	182
2.80667	178
2.81033	181
2.81400	182
2.81767	180
2.82133	179
2.82500	180
2.82867	184
2.83233	191
2.83600	196
2.83967	199
2.84333	199
2.84700	198
2.85067	198
2.85433	199
2.85800	201
2.86167	203
2.86533	199
2.86900	197
2.87267	192
2.87633	188
2.88000	191
2.88367	192
2.88733	189
2.89100	187
2.89467	181
2.89833	174
2.90200	173
2.90567	179
2.90933	187
2.91300	191
2.91667	188
2.92033	179
2.92400	171
2.92767	164
2.93133	159
2.93500	157
2.93867	153
2.94233	149
2.94600	145
2.94967	142
2.95333	139
2.95700	139
2.96067	144
2.96433	152
2.96800	158
2.97167	163
2.97533	169
2.97900	169
2.98267	166
2.98633	168
2.99000	172
2.99367	174
2.99733	172
3.00100	168
3.00467	160
3.00833	154
3.01200	152
3.01567	154
3.01933	157
3.02300	157
3.02667	149
3.03033	138
3.03400	129
3.03767	128
3.04133	135
3.04500	145
3.04867	155
3.05233	164
3.05600	174
3.05967	183
3.06333	187
3.06700	182
3.07067	175
3.07433	166
3.07800	158
3.08167	159
3.08533	159
3.08900	152
3.09267	136
3.09633	123
3.10000	119
3.10367	122
3.10733	128
3.11100	133
3.11467	137
3.11833	144
3.12200	151
3.12567	151
3.12933	142
3.13300	131
3.13667	121
3.14033	117
3.14400	114
3.14767	110
3.15133	108
3.15500	108
3.15867	112
3.16233	116
3.16600	122
3.16967	131
3.17333	141
3.17700	142
3.18067	137
3.18433	129
3.18800	123
3.19167	125
3.19533	136
3.19900	138
3.20267	135
3.20633	135
3.21000	135
3.21367	135
3.21733	135
3.22100	135
3.22467	134
3.22833	133
3.23200	133
3.23567	132
3.23933	131
3.24300	130
3.24667	127
3.25033	123
3.25400	120
3.25767	117
3.26133	117
3.26500	122
3.26867	130
3.27233	134
3.27600	137
3.27967	142
3.28333	137
3.28700	129
3.29067	122
3.29433	121
3.29800	124
3.30167	129
3.30533	131
3.30900	128
3.31267	121
3.31633	116
3.32000	108
3.32367	98
3.32733	95
3.33100	92
3.33467	88
3.33833	86
3.34200	82
3.34567	83
3.34933	96
3.35300	107
3.35667	112
3.36033	110
3.36400	105
3.36767	97
3.37133	93
3.37500	94
3.37867	104
3.38233	111
3.38600	109
3.38967	95
3.39333	78
3.39700	68
3.40067	66
3.40433	70
3.40800	71
3.41167	70
3.41533	70
3.41900	73
3.42267	79
3.42633	85
3.43000	90
3.43367	93
3.43733	96
3.44100	99
3.44467	101
3.44833	99
3.45200	99
3.45567	98
3.45933	93
3.46300	90
3.46667	87
3.47033	84
3.47400	79
3.47767	77
3.48133	79
3.48500	84
3.48867	86
3.49233	90
3.49600	97
3.49967	102
3.50333	103
3.50700	99
3.51067	95
3.51433	97
3.51800	103
3.52167	107
3.52533	111
3.52900	115
3.53267	110
3.53633	102
3.54000	92
3.54367	90
3.54733	93
3.55100	92
3.55467	88
3.55833	81
3.56200	76
3.56567	71
3.56933	74
3.57300	82
3.57667	88
3.58033	88
3.58400	85
3.58767	82
3.59133	81
3.59500	78
3.59867	72
3.60233	69
3.60600	69
3.60967	63
3.61333	54
3.61700	51
3.62067	54
3.62433	59
3.62800	64
3.63167	71
3.63533	71
3.63900	66
3.64267	64
3.64633	65
3.65000	64
3.65367	65
3.65733	70
3.66100	76
3.66467	79
3.66833	81
3.67200	82
3.67567	80
3.67933	76
3.68300	69
3.68667	59
3.69033	52
3.69400	49
3.69767	53
3.70133	64
3.70500	75
3.70867	77
3.71233	70
3.71600	68
3.71967	73
3.72333	83
3.72700	90
3.73067	91
3.73433	83
3.73800	70
3.74167	62
3.74533	62
3.74900	59
3.75267	51
3.75633	47
3.76000	48
3.76367	54
3.76733	60
3.77100	58
3.77467	50
3.77833	41
3.78200	36
3.78567	38
3.78933	45
3.79300	48
3.79667	50
3.80033	52
3.80400	52
3.80767	52
3.81133	54
3.81500	55
3.81867	52
3.82233	48
3.82600	45
3.82967	41
3.83333	37
3.83700	38
3.84067	37
3.84433	34
3.84800	32
3.85167	41
3.85533	55
3.85900	61
3.86267	58
3.86633	50
3.87000	45
3.87367	45
3.87733	51
3.88100	55
3.88467	51
3.88833	45
3.89200	41
3.89567	37
3.89933	39
3.90300	43
3.90667	48
3.91033	49
3.91400	49
3.91767	54
3.92133	61
3.92500	66
3.92867	67
3.93233	64
3.93600	60
3.93967	54
3.94333	47
3.94700	44
3.95067	44
3.95433	45
3.95800	47
3.96167	43
3.96533	38
3.96900	36
3.97267	34
3.97633	33
3.98000	34
3.98367	30
3.98733	28
3.99100	33
3.99467	39
3.99833	43

[Chromatogram (Ch2)]
Interval(msec)	220
# of Points	1091
Start Time(min)	0.002
End Time(min)	3.998
R.Time (min)	Intensity
0.00167	1
0.00533	1
0.00900	1
0.01267	1
0.01633	2
0.02000	2
0.02367	2
0.02733	2
0.03100	2
0.03467	2
0.03833	2
0.04200	2
0.04567	2
0.04933	1
0.05300	1
0.05667	1
0.06033	1
0.06400	1
0.06767	1
0.07133	1
0.07500	1
0.07867	0
0.08233	-0
0.08600	-0
0.08967	-1
0.09333	-1
0.09700	-1
0.10067	-1
0.10433	-1
0.10800	-0
0.11167	-0
0.11533	0
0.11900	1
0.12267	1
0.12633	2
0.13000	2
0.13367	2
0.13733	3
0.14100	3
0.14467	3
0.14833	3
0.15200	4
0.15567	3
0.15933	3
0.16300	2
0.16667	2
0.17033	1
0.17400	0
0.17767	-1
0.18133	-2
0.18500	-3
0.18867	-4
0.19233	-4
0.19600	-5
0.19967	-5
0.20333	-5
0.20700	-5
0.21067	-5
0.21433	-5
0.21800	-5
0.22167	-5
0.22533	-5
0.22900	-5
0.23267	-4
0.23633	-4
0.24000	-3
0.24367	-3
0.24733	-2
0.25100	-2
0.25467	-1
0.25833	-1
0.26200	-1
0.26567	-1
0.26933	-1
0.27300	-1
0.27667	-0
0.28033	0
0.28400	0
0.28767	1
0.29133	1
0.29500	1
0.29867	1
0.30233	1
0.30600	2
0.30967	2
0.31333	2
0.31700	2
0.32067	2
0.32433	2
0.32800	2
0.33167	2
0.33533	1
0.33900	1
0.34267	1
0.34633	0
0.35000	-0
0.35367	-0
0.35733	-0
0.36100	-0
0.36467	-1
0.36833	-1
0.37200	-1
0.37567	-2
0.37933	-2
0.38300	-3
0.38667	-3
0.39033	-3
0.39400	-3
0.39767	-2
0.40133	-2
0.40500	-1
0.40867	-1
0.41233	-1
0.41600	-1
0.41967	-1
0.42333	-0
0.42700	-0
0.43067	-1
0.43433	-1
0.43800	-1
0.44167	-2
0.44533	-2
0.44900	-2
0.45267	-2
0.45633	-2
0.46000	-2
0.46367	-2
0.46733	-2
0.47100	-2
0.47467	-2
0.47833	-2
0.48200	-2
0.48567	-2
0.48933	-2
0.49300	-2
0.49667	-2
0.50033	-2
0.50400	-1
0.50767	-1
0.51133	-1
0.51500	-1
0.51867	-1
0.52233	-1
0.52600	-1
0.52967	-0
0.53333	-0
0.53700	-0
0.54067	-0
0.54433	-0
0.54800	0
0.55167	0
0.55533	1
0.55900	1
0.56267	1
0.56633	1
0.57000	2
0.57367	2
0.57733	2
0.58100	2
0.58467	1
0.58833	1
0.59200	0
0.59567	-0
0.59933	-1
0.60300	-1
0.60667	-2
0.61033	-2
0.61400	-2
0.61767	-3
0.62133	-3
0.62500	-3
0.62867	-3
0.63233	-4
0.63600	-4
0.63967	-4
0.64333	-4
0.64700	-4
0.65067	-4
0.65433	-4
0.65800	-4
0.66167	-4
0.66533	-4
0.66900	-3
0.67267	-3
0.67633	-3
0.68000	-3
0.68367	-3
0.68733	-3
0.69100	-3
0.69467	-2
0.69833	-2
0.70200	-2
0.70567	-2
0.70933	-2
0.71300	-2
0.71667	-1
0.72033	-1
0.72400	-0
0.72767	-0
0.73133	0
0.73500	0
0.73867	1
0.74233	0
0.74600	0
0.74967	-0
0.75333	-0
0.75700	-1
0.76067	-1
0.76433	-1
0.76800	-1
0.77167	-1
0.77533	-2
0.77900	-2
0.78267	-1
0.78633	-1
0.79000	-1
0.79367	-1
0.79733	-0
0.80100	-0
0.80467	0
0.80833	0
0.81200	0
0.81567	0
0.81933	0
0.82300	-0
0.82667	-0
0.83033	-0
0.83400	-0
0.83767	-1
0.84133	-1
0.84500	-1
0.84867	-1
0.85233	-1
0.85600	-1
0.85967	-1
0.86333	-1
0.86700	-1
0.87067	-0
0.87433	-0
0.87800	0
0.88167	0
0.88533	1
0.88900	1
0.89267	1
0.89633	1
0.90000	2
0.90367	2
0.90733	1
0.91100	1
0.91467	1
0.91833	0
0.92200	-0
0.92567	-0
0.92933	-0
0.93300	-0
0.93667	-1
0.94033	-1
0.94400	-1
0.94767	-2
0.95133	-2
0.95500	-2
0.95867	-2
0.96233	-3
0.96600	-3
0.96967	-4
0.97333	-4
0.97700	-4
0.98067	-4
0.98433	-4
0.98800	-3
0.99167	-3
0.99533	-3
0.99900	-3
1.00267	-2
1.00633	-2
1.01000	-2
1.01367	-2
1.01733	-1
1.02100	-0
1.02467	0
1.02833	0
1.03200	1
1.03567	1
1.03933	1
1.04300	1
1.04667	1
1.05033	0
1.05400	-0
1.05767	-1
1.06133	-1
1.06500	-2
1.06867	-2
1.07233	-2
1.07600	-2
1.07967	-3
1.08333	-4
1.08700	-5
1.09067	-5
1.09433	-6
1.09800	-6
1.10167	-6
1.10533	-6
1.10900	-5
1.11267	-5
1.11633	-5
1.12000	-5
1.12367	-5
1.12733	-5
1.13100	-5
1.13467	-4
1.13833	-4
1.14200	-4
1.14567	-3
1.14933	-3
1.15300	-2
1.15667	-1
1.16033	-1
1.16400	-0
1.16767	0
1.17133	0
1.17500	1
1.17867	0
1.18233	0
1.18600	0
1.18967	0
1.19333	0
1.19700	0
1.20067	0
1.20433	0
1.20800	0
1.21167	-0
1.21533	-0
1.21900	-1
1.22267	-1
1.22633	-1
1.23000	-1
1.23367	-0
1.23733	-0
1.24100	-1
1.24467	-0
1.24833	-0
1.25200	0
1.25567	1
1.25933	1
1.26300	1
1.26667	1
1.27033	1
1.27400	1
1.27767	1
1.28133	1
1.28500	1
1.28867	1
1.29233	1
1.29600	1
1.29967	0
1.30333	-0
1.30700	-1
1.31067	-1
1.31433	-2
1.31800	-2
1.32167	-2
1.32533	-3
1.32900	-3
1.33267	-3
1.33633	-3
1.34000	-4
1.34367	-4
1.34733	-4
1.35100	-4
1.35467	-4
1.35833	-4
1.36200	-4
1.36567	-4
1.36933	-5
1.37300	-5
1.37667	-4
1.38033	-4
1.38400	-4
1.38767	-4
1.39133	-3
1.39500	-3
1.39867	-2
1.40233	-2
1.40600	-1
1.40967	-1
1.41333	-1
1.41700	-1
1.42067	-1
1.42433	-1
1.42800	-1
1.43167	-2
1.43533	-2
1.43900	-2
1.44267	-2
1.44633	-2
1.45000	-3
1.45367	-3
1.45733	-3
1.46100	-3
1.46467	-4
1.46833	-4
1.47200	-4
1.47567	-5
1.47933	-5
1.48300	-5
1.48667	-5
1.49033	-5
1.49400	-5
1.49767	-6
1.50133	-6
1.50500	-6
1.50867	-5
1.51233	-5
1.51600	-5
1.51967	-4
1.52333	-4
1.52700	-4
1.53067	-4
1.53433	-3
1.53800	-3
1.54167	-3
1.54533	-3
1.54900	-3
1.55267	-2
1.55633	-2
1.56000	-2
1.56367	-2
1.56733	-1
1.57100	-1
1.57467	-1
1.57833	-1
1.58200	-1
1.58567	-1
1.58933	-2
1.59300	-2
1.59667	-2
1.60033	-3
1.60400	-3
1.60767	-5
1.61133	-6
1.61500	-9
1.61867	-12
1.62233	-15
1.62600	-18
1.62967	-22
1.63333	-25
1.63700	-29
1.64067	-32
1.64433	-36
1.64800	-40
1.65167	-43
1.65533	-47
1.65900	-50
1.66267	-54
1.66633	-58
1.67000	-62
1.67367	-67
1.67733	-72
1.68100	-76
1.68467	-81
1.68833	-85
1.69200	-89
1.69567	-93
1.69933	-96
1.70300	-98
1.70667	-100
1.71033	-102
1.71400	-103
1.71767	-104
1.72133	-104
1.72500	-104
1.72867	-104
1.73233	-104
1.73600	-104
1.73967	-104
1.74333	-105
1.74700	-106
1.75067	-106
1.75433	-107
1.75800	-108
1.76167	-109
1.76533	-110
1.76900	-111
1.77267	-111
1.77633	-111
1.78000	-111
1.78367	-111
1.78733	-111
1.79100	-110
1.79467	-110
1.79833	-110
1.80200	-110
1.80567	-111
1.80933	-111
1.81300	-112
1.81667	-113
1.82033	-113
1.82400	-114
1.82767	-115
1.83133	-115
1.83500	-115
1.83867	-115
1.84233	-115
1.84600	-114
1.84967	-114
1.85333	-113
1.85700	-113
1.86067	-112
1.86433	-112
1.86800	-112
1.87167	-112
1.87533	-113
1.87900	-113
1.88267	-114
1.88633	-114
1.89000	-114
1.89367	-115
1.89733	-115
1.90100	-114
1.90467	-113
1.90833	-112
1.91200	-111
1.91567	-111
1.91933	-110
1.92300	-110
1.92667	-110
1.93033	-110
1.93400	-110
1.93767	-110
1.94133	-111
1.94500	-111
1.94867	-111
1.95233	-112
1.95600	-112
1.95967	-112
1.96333	-112
1.96700	-111
1.97067	-111
1.97433	-110
1.97800	-110
1.98167	-110
1.98533	-109
1.98900	-109
1.99267	-108
1.99633	-108
2.00000	-107
2.00367	-107
2.00733	-106
2.01100	-106
2.01467	-105
2.01833	-105
2.02200	-105
2.02567	-105
2.02933	-104
2.03300	-104
2.03667	-103
2.04033	-103
2.04400	-102
2.04767	-101
2.05133	-101
2.05500	-101
2.05867	-102
2.06233	-102
2.06600	-102
2.06967	-102
2.07333	-101
2.07700	-101
2.08067	-100
2.08433	-99
2.08800	-99
2.09167	-99
2.09533	-98
2.09900	-98
2.10267	-98
2.10633	-98
2.11000	-97
2.11367	-97
2.11733	-97
2.12100	-96
2.12467	-96
2.12833	-95
2.13200	-95
2.13567	-95
2.13933	-95
2.14300	-95
2.14667	-95
2.15033	-95
2.15400	-95
2.15767	-96
2.16133	-95
2.16500	-95
2.16867	-94
2.17233	-94
2.17600	-94
2.17967	-94
2.18333	-93
2.18700	-93
2.19067	-92
2.19433	-92
2.19800	-91
2.20167	-91
2.20533	-90
2.20900	-89
2.21267	-89
2.21633	-88
2.22000	-88
2.22367	-88
2.22733	-88
2.23100	-87
2.23467	-87
2.23833	-87
2.24200	-86
2.24567	-86
2.24933	-86
2.25300	-86
2.25667	-86
2.26033	-85
2.26400	-85
2.26767	-85
2.27133	-84
2.27500	-83
2.27867	-83
2.28233	-82
2.28600	-82
2.28967	-82
2.29333	-82
2.29700	-82
2.30067	-82
2.30433	-82
2.30800	-82
2.31167	-82
2.31533	-82
2.31900	-81
2.32267	-80
2.32633	-80
2.33000	-79
2.33367	-78
2.33733	-78
2.34100	-77
2.34467	-76
2.34833	-76
2.35200	-75
2.35567	-74
2.35933	-73
2.36300	-71
2.36667	-70
2.37033	-67
2.37400	-65
2.37767	-63
2.38133	-59
2.38500	-56
2.38867	-52
2.39233	-48
2.39600	-43
2.39967	-38
2.40333	-34
2.40700	-29
2.41067	-25
2.41433	-21
2.41800	-18
2.42167	-15
2.42533	-13
2.42900	-11
2.43267	-10
2.43633	-9
2.44000	-8
2.44367	-7
2.44733	-5
2.45100	-4
2.45467	-3
2.45833	-2
2.46200	-2
2.46567	-1
2.46933	-1
2.47300	-0
2.47667	0
2.48033	1
2.48400	2
2.48767	2
2.49133	3
2.49500	4
2.49867	5
2.50233	6
2.50600	7
2.50967	7
2.51333	8
2.51700	9
2.52067	10
2.52433	11
2.52800	12
2.53167	13
2.53533	13
2.53900	14
2.54267	14
2.54633	15
2.55000	15
2.55367	15
2.55733	15
2.56100	15
2.56467	15
2.56833	15
2.57200	15
2.57567	15
2.57933	15
2.58300	15
2.58667	16
2.59033	16
2.59400	16
2.59767	16
2.60133	16
2.60500	16
2.60867	15
2.61233	15
2.61600	15
2.61967	15
2.62333	16
2.62700	16
2.63067	17
2.63433	18
2.63800	18
2.64167	18
2.64533	19
2.64900	19
2.65267	19
2.65633	20
2.66000	20
2.66367	21
2.66733	21
2.67100	21
2.67467	21
2.67833	21
2.68200	21
2.68567	21
2.68933	22
2.69300	22
2.69667	22
2.70033	22
2.70400	22
2.70767	23
2.71133	23
2.71500	23
2.71867	23
2.72233	24
2.72600	24
2.72967	24
2.73333	25
2.73700	25
2.74067	25
2.74433	25
2.74800	25
2.75167	26
2.75533	26
2.75900	26
2.76267	26
2.76633	26
2.77000	26
2.77367	26
2.77733	26
2.78100	26
2.78467	25
2.78833	25
2.79200	25
2.79567	25
2.79933	25
2.80300	25
2.80667	25
2.81033	25
2.81400	25
2.81767	25
2.82133	25
2.82500	25
2.82867	26
2.83233	26
2.83600	26
2.83967	26
2.84333	25
2.84700	24
2.85067	21
2.85433	16
2.85800	8
2.86167	-4
2.86533	-19
2.86900	-39
2.87267	-62
2.87633	-90
2.88000	-123
2.88367	-160
2.88733	-200
2.89100	-245
2.89467	-292
2.89833	-342
2.90200	-394
2.90567	-448
2.90933	-503
2.91300	-559
2.91667	-614
2.92033	-670
2.92400	-724
2.92767	-777
2.93133	-828
2.93500	-880
2.93867	-935
2.94233	-994
2.94600	-1047
2.94967	-1084
2.95333	-1098
2.95700	-1085
2.96067	-1049
2.96433	-993
2.96800	-924
2.97167	-847
2.97533	-767
2.97900	-687
2.98267	-609
2.98633	-536
2.99000	-469
2.99367	-408
2.99733	-353
3.00100	-304
3.00467	-260
3.00833	-222
3.01200	-189
3.01567	-160
3.01933	-135
3.02300	-114
3.02667	-95
3.03033	-79
3.03400	-66
3.03767	-54
3.04133	-44
3.04500	-35
3.04867	-28
3.05233	-22
3.05600	-17
3.05967	-12
3.06333	-8
3.06700	-5
3.07067	-2
3.07433	0
3.07800	2
3.08167	4
3.08533	6
3.08900	7
3.09267	8
3.09633	9
3.10000	10
3.10367	11
3.10733	12
3.11100	13
3.11467	14
3.11833	14
3.12200	15
3.12567	15
3.12933	16
3.13300	17
3.13667	17
3.14033	18
3.14400	18
3.14767	19
3.15133	19
3.15500	19
3.15867	20
3.16233	20
3.16600	20
3.16967	20
3.17333	21
3.17700	21
3.18067	21
3.18433	21
3.18800	21
3.19167	21
3.19533	21
3.19900	21
3.20267	21
3.20633	22
3.21000	22
3.21367	22
3.21733	23
3.22100	23
3.22467	23
3.22833	23
3.23200	23
3.23567	23
3.23933	23
3.24300	23
3.24667	23
3.25033	23
3.25400	23
3.25767	23
3.26133	24
3.26500	24
3.26867	24
3.27233	24
3.27600	24
3.27967	24
3.28333	25
3.28700	25
3.29067	25
3.29433	25
3.29800	25
3.30167	25
3.30533	25
3.30900	24
3.31267	24
3.31633	24
3.32000	24
3.32367	24
3.32733	24
3.33100	24
3.33467	24
3.33833	24
3.34200	25
3.34567	25
3.34933	26
3.35300	26
3.35667	26
3.36033	26
3.36400	26
3.36767	27
3.37133	27
3.37500	27
3.37867	27
3.38233	27
3.38600	27
3.38967	27
3.39333	27
3.39700	27
3.40067	27
3.40433	27
3.40800	27
3.41167	27
3.41533	27
3.41900	27
3.42267	27
3.42633	27
3.43000	28
3.43367	28
3.43733	28
3.44100	29
3.44467	29
3.44833	29
3.45200	28
3.45567	28
3.45933	28
3.46300	28
3.46667	27
3.47033	27
3.47400	27
3.47767	27
3.48133	27
3.48500	27
3.48867	27
3.49233	27
3.49600	27
3.49967	26
3.50333	26
3.50700	27
3.51067	27
3.51433	27
3.51800	27
3.52167	27
3.52533	27
3.52900	27
3.53267	27
3.53633	27
3.54000	27
3.54367	28
3.54733	28
3.55100	28
3.55467	28
3.55833	28
3.56200	28
3.56567	28
3.56933	28
3.57300	28
3.57667	28
3.58033	28
3.58400	28
3.58767	28
3.59133	28
3.59500	28
3.59867	27
3.60233	27
3.60600	27
3.60967	27
3.61333	28
3.61700	28
3.62067	28
3.62433	28
3.62800	27
3.63167	27
3.63533	27
3.63900	27
3.64267	26
3.64633	26
3.65000	26
3.65367	26
3.65733	26
3.66100	26
3.66467	26
3.66833	26
3.67200	27
3.67567	27
3.67933	27
3.68300	27
3.68667	28
3.69033	28
3.69400	28
3.69767	28
3.70133	28
3.70500	28
3.70867	28
3.71233	28
3.71600	28
3.71967	28
3.72333	28
3.72700	28
3.73067	28
3.73433	28
3.73800	28
3.74167	28
3.74533	28
3.74900	28
3.75267	28
3.75633	28
3.76000	28
3.76367	27
3.76733	27
3.77100	27
3.77467	26
3.77833	26
3.78200	26
3.78567	26
3.78933	26
3.79300	25
3.79667	25
3.80033	25
3.80400	25
3.80767	25
3.81133	25
3.81500	26
3.81867	26
3.82233	26
3.82600	26
3.82967	26
3.83333	26
3.83700	26
3.84067	26
3.84433	26
3.84800	25
3.85167	25
3.85533	25
3.85900	26
3.86267	26
3.86633	26
3.87000	26
3.87367	26
3.87733	27
3.88100	27
3.88467	27
3.88833	27
3.89200	27
3.89567	27
3.89933	27
3.90300	27
3.90667	27
3.91033	27
3.91400	27
3.91767	27
3.92133	27
3.92500	27
3.92867	27
3.93233	26
3.93600	26
3.93967	26
3.94333	26
3.94700	26
3.95067	26
3.95433	26
3.95800	26
3.96167	26
3.96533	26
3.96900	26
3.97267	26
3.97633	27
3.98000	27
3.98367	27
3.98733	27
3.99100	27
3.99467	27
3.99833	27

[Chromatogram (Ch3)]
Interval(msec)	220
# of Points	1091
Start Time(min)	0.002
End Time(min)	3.998
R.Time (min)	Intensity
0.00167	2
0.00533	4
0.00900	3
0.01267	1
0.01633	-1
0.02000	-2
0.02367	-4
0.02733	-5
0.03100	-7
0.03467	-5
0.03833	-2
0.04200	-1
0.04567	-1
0.04933	-1
0.05300	-2
0.05667	-1
0.06033	1
0.06400	1
0.06767	1
0.07133	2
0.07500	2
0.07867	2
0.08233	2
0.08600	1
0.08967	1
0.09333	2
0.09700	3
0.10067	5
0.10433	4
0.10800	1
0.11167	0
0.11533	1
0.11900	0
0.12267	-1
0.12633	-1
0.13000	2
0.13367	4
0.13733	3
0.14100	3
0.14467	4
0.14833	5
0.15200	6
0.15567	4
0.15933	2
0.16300	0
0.16667	-2
0.17033	1
0.17400	1
0.17767	2
0.18133	2
0.18500	3
0.18867	4
0.19233	4
0.19600	3
0.19967	3
0.20333	2
0.20700	1
0.21067	2
0.21433	3
0.21800	1
0.22167	0
0.22533	0
0.22900	-0
0.23267	-0
0.23633	0
0.24000	-1
0.24367	-1
0.24733	1
0.25100	2
0.25467	2
0.25833	1
0.26200	0
0.26567	-1
0.26933	-3
0.27300	-2
0.27667	-2
0.28033	-2
0.28400	-3
0.28767	-1
0.29133	-0
0.29500	-0
0.29867	-1
0.30233	-1
0.30600	-0
0.30967	1
0.31333	1
0.31700	1
0.32067	1
0.32433	3
0.32800	3
0.33167	2
0.33533	1
0.33900	0
0.34267	0
0.34633	2
0.35000	2
0.35367	3
0.35733	4
0.36100	4
0.36467	4
0.36833	3
0.37200	4
0.37567	5
0.37933	4
0.38300	3
0.38667	2
0.39033	3
0.39400	4
0.39767	2
0.40133	1
0.40500	2
0.40867	2
0.41233	3
0.41600	4
0.41967	4
0.42333	4
0.42700	3
0.43067	2
0.43433	1
0.43800	2
0.44167	2
0.44533	2
0.44900	1
0.45267	0
0.45633	0
0.46000	1
0.46367	1
0.46733	2
0.47100	3
0.47467	2
0.47833	1
0.48200	1
0.48567	2
0.48933	4
0.49300	5
0.49667	4
0.50033	4
0.50400	4
0.50767	5
0.51133	6
0.51500	5
0.51867	4
0.52233	2
0.52600	2
0.52967	2
0.53333	0
0.53700	-1
0.54067	-2
0.54433	-2
0.54800	-2
0.55167	0
0.55533	3
0.55900	4
0.56267	2
0.56633	2
0.57000	2
0.57367	0
0.57733	-0
0.58100	-1
0.58467	-2
0.58833	-1
0.59200	-1
0.59567	-1
0.59933	-1
0.60300	0
0.60667	1
0.61033	1
0.61400	2
0.61767	3
0.62133	3
0.62500	3
0.62867	1
0.63233	0
0.63600	1
0.63967	2
0.64333	4
0.64700	6
0.65067	8
0.65433	6
0.65800	4
0.66167	4
0.66533	6
0.66900	9
0.67267	10
0.67633	9
0.68000	8
0.68367	7
0.68733	7
0.69100	8
0.69467	7
0.69833	7
0.70200	4
0.70567	1
0.70933	0
0.71300	2
0.71667	3
0.72033	2
0.72400	1
0.72767	1
0.73133	1
0.73500	1
0.73867	0
0.74233	4
0.74600	6
0.74967	6
0.75333	8
0.75700	10
0.76067	8
0.76433	7
0.76800	7
0.77167	10
0.77533	11
0.77900	9
0.78267	5
0.78633	3
0.79000	2
0.79367	2
0.79733	3
0.80100	4
0.80467	5
0.80833	5
0.81200	5
0.81567	4
0.81933	5
0.82300	3
0.82667	1
0.83033	1
0.83400	3
0.83767	4
0.84133	4
0.84500	5
0.84867	5
0.85233	5
0.85600	5
0.85967	7
0.86333	9
0.86700	8
0.87067	8
0.87433	6
0.87800	3
0.88167	2
0.88533	4
0.88900	5
0.89267	6
0.89633	6
0.90000	6
0.90367	7
0.90733	7
0.91100	8
0.91467	7
0.91833	6
0.92200	6
0.92567	6
0.92933	6
0.93300	7
0.93667	7
0.94033	8
0.94400	8
0.94767	10
0.95133	10
0.95500	9
0.95867	8
0.96233	7
0.96600	7
0.96967	7
0.97333	7
0.97700	7
0.98067	7
0.98433	7
0.98800	8
0.99167	9
0.99533	9
0.99900	12
1.00267	15
1.00633	16
1.01000	16
1.01367	16
1.01733	16
1.02100	15
1.02467	14
1.02833	12
1.03200	11
1.03567	10
1.03933	8
1.04300	5
1.04667	4
1.05033	3
1.05400	6
1.05767	8
1.06133	10
1.06500	10
1.06867	10
1.07233	11
1.07600	13
1.07967	14
1.08333	14
1.08700	13
1.09067	10
1.09433	10
1.09800	8
1.10167	6
1.10533	8
1.10900	8
1.11267	9
1.11633	9
1.12000	8
1.12367	8
1.12733	10
1.13100	11
1.13467	11
1.13833	10
1.14200	8
1.14567	6
1.14933	6
1.15300	7
1.15667	10
1.16033	11
1.16400	10
1.16767	11
1.17133	11
1.17500	12
1.17867	11
1.18233	11
1.18600	11
1.18967	9
1.19333	9
1.19700	12
1.20067	13
1.20433	13
1.20800	12
1.21167	11
1.21533	12
1.21900	13
1.22267	14
1.22633	16
1.23000	17
1.23367	18
1.23733	16
1.24100	15
1.24467	14
1.24833	12
1.25200	10
1.25567	8
1.25933	8
1.26300	9
1.26667	11
1.27033	12
1.27400	11
1.27767	11
1.28133	14
1.28500	17
1.28867	16
1.29233	15
1.29600	13
1.29967	12
1.30333	11
1.30700	11
1.31067	11
1.31433	10
1.31800	9
1.32167	9
1.32533	9
1.32900	8
1.33267	10
1.33633	12
1.34000	13
1.34367	13
1.34733	13
1.35100	13
1.35467	13
1.35833	14
1.36200	14
1.36567	12
1.36933	8
1.37300	7
1.37667	8
1.38033	9
1.38400	10
1.38767	13
1.39133	14
1.39500	15
1.39867	15
1.40233	17
1.40600	15
1.40967	15
1.41333	16
1.41700	16
1.42067	17
1.42433	16
1.42800	14
1.43167	13
1.43533	13
1.43900	15
1.44267	16
1.44633	16
1.45000	15
1.45367	15
1.45733	16
1.46100	16
1.46467	16
1.46833	16
1.47200	16
1.47567	16
1.47933	17
1.48300	16
1.48667	15
1.49033	13
1.49400	12
1.49767	12
1.50133	13
1.50500	12
1.50867	13
1.51233	12
1.51600	13
1.51967	14
1.52333	16
1.52700	18
1.53067	20
1.53433	19
1.53800	18
1.54167	19
1.54533	18
1.54900	17
1.55267	17
1.55633	18
1.56000	19
1.56367	21
1.56733	21
1.57100	20
1.57467	19
1.57833	20
1.58200	21
1.58567	20
1.58933	19
1.59300	19
1.59667	20
1.60033	21
1.60400	24
1.60767	24
1.61133	22
1.61500	21
1.61867	22
1.62233	24
1.62600	27
1.62967	28
1.63333	29
1.63700	27
1.64067	25
1.64433	23
1.64800	22
1.65167	23
1.65533	27
1.65900	31
1.66267	33
1.66633	33
1.67000	32
1.67367	33
1.67733	32
1.68100	30
1.68467	30
1.68833	29
1.69200	29
1.69567	30
1.69933	31
1.70300	33
1.70667	34
1.71033	37
1.71400	40
1.71767	40
1.72133	38
1.72500	36
1.72867	35
1.73233	36
1.73600	35
1.73967	35
1.74333	36
1.74700	37
1.75067	37
1.75433	38
1.75800	40
1.76167	42
1.76533	42
1.76900	41
1.77267	41
1.77633	41
1.78000	39
1.78367	39
1.78733	40
1.79100	43
1.79467	46
1.79833	48
1.80200	49
1.80567	48
1.80933	48
1.81300	49
1.81667	50
1.82033	51
1.82400	52
1.82767	53
1.83133	53
1.83500	52
1.83867	52
1.84233	50
1.84600	50
1.84967	50
1.85333	50
1.85700	51
1.86067	52
1.86433	53
1.86800	53
1.87167	52
1.87533	52
1.87900	52
1.88267	51
1.88633	53
1.89000	55
1.89367	56
1.89733	57
1.90100	58
1.90467	59
1.90833	59
1.91200	60
1.91567	62
1.91933	62
1.92300	60
1.92667	60
1.93033	62
1.93400	63
1.93767	64
1.94133	66
1.94500	69
1.94867	71
1.95233	72
1.95600	72
1.95967	70
1.96333	71
1.96700	73
1.97067	73
1.97433	75
1.97800	78
1.98167	81
1.98533	83
1.98900	84
1.99267	84
1.99633	82
2.00000	82
2.00367	82
2.00733	84
2.01100	87
2.01467	90
2.01833	92
2.02200	92
2.02567	95
2.02933	98
2.03300	100
2.03667	101
2.04033	101
2.04400	102
2.04767	102
2.05133	103
2.05500	104
2.05867	105
2.06233	105
2.06600	106
2.06967	106
2.07333	108
2.07700	109
2.08067	112
2.08433	113
2.08800	114
2.09167	115
2.09533	117
2.09900	119
2.10267	122
2.10633	123
2.11000	123
2.11367	124
2.11733	125
2.12100	127
2.12467	127
2.12833	127
2.13200	129
2.13567	130
2.13933	131
2.14300	131
2.14667	132
2.15033	133
2.15400	135
2.15767	138
2.16133	140
2.16500	141
2.16867	143
2.17233	145
2.17600	148
2.17967	150
2.18333	151
2.18700	153
2.19067	154
2.19433	155
2.19800	156
2.20167	157
2.20533	159
2.20900	162
2.21267	164
2.21633	167
2.22000	170
2.22367	174
2.22733	178
2.23100	178
2.23467	178
2.23833	176
2.24200	175
2.24567	176
2.24933	177
2.25300	177
2.25667	177
2.26033	179
2.26400	180
2.26767	181
2.27133	181
2.27500	182
2.27867	183
2.28233	188
2.28600	190
2.28967	190
2.29333	189
2.29700	191
2.30067	193
2.30433	196
2.30800	199
2.31167	201
2.31533	203
2.31900	204
2.32267	205
2.32633	207
2.33000	209
2.33367	212
2.33733	214
2.34100	215
2.34467	215
2.34833	214
2.35200	216
2.35567	217
2.35933	217
2.36300	219
2.36667	219
2.37033	220
2.37400	221
2.37767	224
2.38133	224
2.38500	224
2.38867	223
2.39233	221
2.39600	222
2.39967	225
2.40333	228
2.40700	229
2.41067	231
2.41433	233
2.41800	236
2.42167	239
2.42533	242
2.42900	243
2.43267	243
2.43633	243
2.44000	246
2.44367	303
2.44733	458
2.45100	626
2.45467	765
2.45833	844
2.46200	853
2.46567	819
2.46933	778
2.47300	743
2.47667	721
2.48033	702
2.48400	671
2.48767	628
2.49133	580
2.49500	533
2.49867	492
2.50233	464
2.50600	448
2.50967	444
2.51333	453
2.51700	472
2.52067	495
2.52433	516
2.52800	529
2.53167	527
2.53533	511
2.53900	483
2.54267	449
2.54633	414
2.55000	381
2.55367	352
2.55733	330
2.56100	314
2.56467	304
2.56833	296
2.57200	288
2.57567	283
2.57933	280
2.58300	280
2.58667	281
2.59033	283
2.59400	285
2.59767	286
2.60133	285
2.60500	280
2.60867	270
2.61233	256
2.61600	239
2.61967	223
2.62333	209
2.62700	199
2.63067	188
2.63433	175
2.63800	163
2.64167	151
2.64533	139
2.64900	124
2.65267	110
2.65633	98
2.66000	88
2.66367	77
2.66733	66
2.67100	56
2.67467	48
2.67833	43
2.68200	39
2.68567	37
2.68933	37
2.69300	37
2.69667	38
2.70033	40
2.70400	44
2.70767	47
2.71133	52
2.71500	60
2.71867	66
2.72233	70
2.72600	75
2.72967	80
2.73333	84
2.73700	89
2.74067	93
2.74433	97
2.74800	99
2.75167	102
2.75533	105
2.75900	108
2.76267	112
2.76633	116
2.77000	118
2.77367	122
2.77733	127
2.78100	131
2.78467	135
2.78833	139
2.79200	145
2.79567	151
2.79933	155
2.80300	159
2.80667	163
2.81033	168
2.81400	177
2.81767	187
2.82133	199
2.82500	217
2.82867	251
2.83233	316
2.83600	429
2.83967	612
2.84333	884
2.84700	1252
2.85067	1714
2.85433	2251
2.85800	2828
2.86167	3400
2.86533	3924
2.86900	4357
2.87267	4667
2.87633	4835
2.88000	4864
2.88367	4770
2.88733	4574
2.89100	4306
2.89467	3992
2.89833	3657
2.90200	3319
2.90567	2989
2.90933	2678
2.91300	2389
2.91667	2122
2.92033	1881
2.92400	1663
2.92767	1469
2.93133	1300
2.93500	1151
2.93867	1021
2.94233	907
2.94600	806
2.94967	718
2.95333	643
2.95700	578
2.96067	521
2.96433	472
2.96800	428
2.97167	390
2.97533	358
2.97900	329
2.98267	306
2.98633	286
2.99000	268
2.99367	250
2.99733	236
3.00100	223
3.00467	213
3.00833	204
3.01200	197
3.01567	193
3.01933	187
3.02300	181
3.02667	178
3.03033	175
3.03400	170
3.03767	168
3.04133	166
3.04500	163
3.04867	159
3.05233	159
3.05600	160
3.05967	161
3.06333	160
3.06700	159
3.07067	158
3.07433	156
3.07800	155
3.08167	156
3.08533	156
3.08900	157
3.09267	158
3.09633	161
3.10000	162
3.10367	162
3.10733	161
3.11100	158
3.11467	157
3.11833	154
3.12200	154
3.12567	157
3.12933	159
3.13300	159
3.13667	158
3.14033	158
3.14400	156
3.14767	153
3.15133	150
3.15500	142
3.15867	120
3.16233	104
3.16600	101
3.16967	111
3.17333	133
3.17700	167
3.18067	212
3.18433	261
3.18800	310
3.19167	360
3.19533	405
3.19900	447
3.20267	483
3.20633	515
3.21000	541
3.21367	565
3.21733	587
3.22100	607
3.22467	624
3.22833	638
3.23200	650
3.23567	660
3.23933	668
3.24300	677
3.24667	685
3.25033	695
3.25400	704
3.25767	711
3.26133	721
3.26500	731
3.26867	740
3.27233	747
3.27600	755
3.27967	762
3.28333	769
3.28700	777
3.29067	786
3.29433	792
3.29800	798
3.30167	804
3.30533	807
3.30900	813
3.31267	822
3.31633	829
3.32000	836
3.32367	843
3.32733	847
3.33100	852
3.33467	856
3.33833	861
3.34200	866
3.34567	872
3.34933	876
3.35300	879
3.35667	878
3.36033	878
3.36400	880
3.36767	881
3.37133	878
3.37500	875
3.37867	872
3.38233	869
3.38600	867
3.38967	867
3.39333	868
3.39700	866
3.40067	862
3.40433	857
3.40800	853
3.41167	849
3.41533	846
3.41900	844
3.42267	842
3.42633	838
3.43000	834
3.43367	830
3.43733	825
3.44100	821
3.44467	818
3.44833	814
3.45200	811
3.45567	810
3.45933	809
3.46300	807
3.46667	804
3.47033	801
3.47400	801
3.47767	802
3.48133	801
3.48500	798
3.48867	794
3.49233	790
3.49600	786
3.49967	782
3.50333	780
3.50700	779
3.51067	777
3.51433	778
3.51800	780
3.52167	781
3.52533	782
3.52900	780
3.53267	780
3.53633	781
3.54000	779
3.54367	777
3.54733	776
3.55100	777
3.55467	777
3.55833	778
3.56200	780
3.56567	782
3.56933	784
3.57300	783
3.57667	784
3.58033	784
3.58400	784
3.58767	783
3.59133	781
3.59500	779
3.59867	776
3.60233	774
3.60600	773
3.60967	771
3.61333	772
3.61700	772
3.62067	771
3.62433	769
3.62800	768
3.63167	767
3.63533	767
3.63900	767
3.64267	764
3.64633	762
3.65000	760
3.65367	758
3.65733	757
3.66100	757
3.66467	758
3.66833	758
3.67200	759
3.67567	757
3.67933	754
3.68300	752
3.68667	749
3.69033	747
3.69400	744
3.69767	741
3.70133	736
3.70500	735
3.70867	734
3.71233	731
3.71600	731
3.71967	733
3.72333	734
3.72700	731
3.73067	727
3.73433	723
3.73800	719
3.74167	716
3.74533	715
3.74900	714
3.75267	714
3.75633	713
3.76000	709
3.76367	707
3.76733	705
3.77100	705
3.77467	705
3.77833	704
3.78200	705
3.78567	705
3.78933	701
3.79300	697
3.79667	697
3.80033	696
3.80400	694
3.80767	693
3.81133	691
3.81500	691
3.81867	688
3.82233	686
3.82600	683
3.82967	681
3.83333	680
3.83700	679
3.84067	675
3.84433	672
3.84800	668
3.85167	666
3.85533	664
3.85900	662
3.86267	659
3.86633	658
3.87000	658
3.87367	656
3.87733	653
3.88100	648
3.88467	648
3.88833	647
3.89200	646
3.89567	645
3.89933	642
3.90300	640
3.90667	637
3.91033	635
3.91400	634
3.91767	632
3.92133	632
3.92500	629
3.92867	626
3.93233	625
3.93600	623
3.93967	621
3.94333	618
3.94700	616
3.95067	617
3.95433	616
3.95800	616
3.96167	614
3.96533	612
3.96900	611
3.97267	610
3.97633	608
3.98000	608
3.98367	608
3.98733	607
3.99100	605
3.99467	603
3.99833	599

[Status Trace (Column Oven Temperature)]
Interval(msec)	1000
# of Points	240
Start Time(min)	0.013
End Time(min)	3.996
Intensity Units	
Intensity Multiplier	1
R.Time (min)	Intensity
0.01280	35.01
0.02947	35.01
0.04613	35.00
0.06280	34.99
0.07947	34.99
0.09613	35.00
0.11280	35.00
0.12947	34.98
0.14613	34.97
0.16280	34.99
0.17947	35.01
0.19613	35.02
0.21280	35.04
0.22947	35.03
0.24613	35.03
0.26280	35.03
0.27947	35.01
0.29613	35.00
0.31280	34.98
0.32947	34.98
0.34613	34.98
0.36280	34.99
0.37947	35.00
0.39613	35.00
0.41280	34.99
0.42947	34.99
0.44613	35.00
0.46280	35.01
0.47947	35.00
0.49613	35.00
0.51280	35.00
0.52947	35.00
0.54613	34.98
0.56280	34.98
0.57947	34.96
0.59613	34.97
0.61280	34.99
0.62947	35.00
0.64613	35.01
0.66280	35.02
0.67947	35.02
0.69613	35.01
0.71280	35.01
0.72947	34.99
0.74613	35.00
0.76280	35.00
0.77947	35.00
0.79613	34.99
0.81280	35.00
0.82947	35.00
0.84613	35.00
0.86280	35.00
0.87947	34.99
0.89613	34.98
0.91280	34.97
0.92947	34.97
0.94613	34.97
0.96280	34.98
0.97947	34.99
0.99613	34.99
1.01280	34.98
1.02947	34.98
1.04613	34.97
1.06280	34.98
1.07947	34.99
1.09613	35.01
1.11280	35.02
1.12947	35.02
1.14613	35.01
1.16280	35.01
1.17947	34.99
1.19613	34.98
1.21280	34.97
1.22947	34.97
1.24613	34.96
1.26280	34.95
1.27947	34.95
1.29613	34.96
1.31280	34.96
1.32947	34.98
1.34613	34.99
1.36280	35.00
1.37947	35.00
1.39613	34.99
1.41280	34.98
1.42947	34.98
1.44613	34.98
1.46280	34.99
1.47947	35.01
1.49613	35.03
1.51280	35.03
1.52947	35.02
1.54613	35.02
1.56280	35.01
1.57947	35.00
1.59613	35.01
1.61280	35.09
1.62947	35.24
1.64613	35.45
1.66280	35.71
1.67947	36.07
1.69613	36.44
1.71280	36.78
1.72947	37.10
1.74613	37.44
1.76280	37.78
1.77947	38.11
1.79613	38.42
1.81280	38.76
1.82947	39.10
1.84613	39.43
1.86280	39.76
1.87947	40.10
1.89613	40.44
1.91280	40.74
1.92947	41.07
1.94613	41.41
1.96280	41.73
1.97947	42.06
1.99613	42.38
2.01280	42.72
2.02947	43.04
2.04613	43.37
2.06280	43.70
2.07947	44.03
2.09613	44.36
2.11280	44.68
2.12947	45.01
2.14613	45.34
2.16280	45.67
2.17947	46.00
2.19613	46.32
2.21280	46.66
2.22947	46.98
2.24613	47.32
2.26280	47.65
2.27947	47.97
2.29613	48.29
2.31280	48.64
2.32947	48.95
2.34613	49.24
2.36280	49.51
2.37947	49.66
2.39613	49.68
2.41280	49.68
2.42947	49.69
2.44613	49.70
2.46280	49.69
2.47947	49.71
2.49613	49.72
2.51280	49.72
2.52947	49.74
2.54613	49.74
2.56280	49.77
2.57947	49.78
2.59613	49.78
2.61280	49.81
2.62947	49.81
2.64613	49.81
2.66280	49.82
2.67947	49.84
2.69613	49.85
2.71280	49.85
2.72947	49.86
2.74613	49.84
2.76280	49.85
2.77947	49.88
2.79613	49.89
2.81280	49.89
2.82947	49.90
2.84613	49.88
2.86280	49.87
2.87947	49.87
2.89613	49.88
2.91280	49.90
2.92947	49.91
2.94613	49.92
2.96280	49.94
2.97947	49.94
2.99613	49.95
3.01280	49.97
3.02947	49.98
3.04613	49.98
3.06280	50.00
3.07947	50.02
3.09613	50.03
3.11280	50.03
3.12947	50.03
3.14613	50.03
3.16280	50.03
3.17947	50.04
3.19613	50.04
3.21280	50.05
3.22947	50.05
3.24613	50.06
3.26280	50.06
3.27947	50.06
3.29613	50.08
3.31280	50.09
3.32947	50.10
3.34613	50.10
3.36280	50.10
3.37947	50.09
3.39613	50.08
3.41280	50.08
3.42947	50.07
3.44613	50.07
3.46280	50.07
3.47947	50.07
3.49613	50.07
3.51280	50.07
3.52947	50.07
3.54613	50.06
3.56280	50.05
3.57947	50.05
3.59613	50.05
3.61280	50.03
3.62947	50.04
3.64613	50.06
3.66280	50.06
3.67947	50.06
3.69613	50.05
3.71280	50.05
3.72947	50.04
3.74613	50.03
3.76280	50.05
3.77947	50.05
3.79613	50.07
3.81280	50.07
3.82947	50.08
3.84613	50.08
3.86280	50.07
3.87947	50.08
3.89613	50.07
3.91280	50.07
3.92947	50.07
3.94613	50.07
3.96280	50.08
3.97947	50.07
3.99613	50.07

[Status Trace (Injection Unit Temperature)]
Interval(msec)	1000
# of Points	240
Start Time(min)	0.013
End Time(min)	3.996
Intensity Units	
Intensity Multiplier	1
R.Time (min)	Intensity
0.01280	99.98
0.02947	99.98
0.04613	99.98
0.06280	99.99
0.07947	99.98
0.09613	99.99
0.11280	99.98
0.12947	99.98
0.14613	99.98
0.16280	99.98
0.17947	99.98
0.19613	99.98
0.21280	99.99
0.22947	99.98
0.24613	99.98
0.26280	99.99
0.27947	99.98
0.29613	99.98
0.31280	99.98
0.32947	99.98
0.34613	99.98
0.36280	99.98
0.37947	99.98
0.39613	99.98
0.41280	99.98
0.42947	99.98
0.44613	99.98
0.46280	99.98
0.47947	99.98
0.49613	99.98
0.51280	99.98
0.52947	99.98
0.54613	99.98
0.56280	99.98
0.57947	99.98
0.59613	99.98
0.61280	99.98
0.62947	99.97
0.64613	99.98
0.66280	99.98
0.67947	99.98
0.69613	99.97
0.71280	99.98
0.72947	99.98
0.74613	99.98
0.76280	99.98
0.77947	99.98
0.79613	99.97
0.81280	99.98
0.82947	99.98
0.84613	99.98
0.86280	99.98
0.87947	99.98
0.89613	99.97
0.91280	99.98
0.92947	99.98
0.94613	99.98
0.96280	99.98
0.97947	99.98
0.99613	99.98
1.01280	99.98
1.02947	99.98
1.04613	99.98
1.06280	99.98
1.07947	99.98
1.09613	99.98
1.11280	99.98
1.12947	99.98
1.14613	99.98
1.16280	99.98
1.17947	99.98
1.19613	99.98
1.21280	99.98
1.22947	99.98
1.24613	99.98
1.26280	99.98
1.27947	99.98
1.29613	99.98
1.31280	99.98
1.32947	99.99
1.34613	99.98
1.36280	99.98
1.37947	99.98
1.39613	99.98
1.41280	99.98
1.42947	99.98
1.44613	99.97
1.46280	99.98
1.47947	99.98
1.49613	99.98
1.51280	99.98
1.52947	99.99
1.54613	99.99
1.56280	99.96
1.57947	99.99
1.59613	99.99
1.61280	99.98
1.62947	99.99
1.64613	99.98
1.66280	99.99
1.67947	99.98
1.69613	99.99
1.71280	99.99
1.72947	99.98
1.74613	99.99
1.76280	99.99
1.77947	99.99
1.79613	99.99
1.81280	99.98
1.82947	99.99
1.84613	99.98
1.86280	99.98
1.87947	99.98
1.89613	99.98
1.91280	99.98
1.92947	99.98
1.94613	99.98
1.96280	99.99
1.97947	99.98
1.99613	99.98
2.01280	99.98
2.02947	99.98
2.04613	99.98
2.06280	99.98
2.07947	99.98
2.09613	99.98
2.11280	99.98
2.12947	99.98
2.14613	99.97
2.16280	99.97
2.17947	99.97
2.19613	99.97
2.21280	99.98
2.22947	99.97
2.24613	99.97
2.26280	99.97
2.27947	99.97
2.29613	99.97
2.31280	99.97
2.32947	99.97
2.34613	99.97
2.36280	99.97
2.37947	99.97
2.39613	99.97
2.41280	99.97
2.42947	99.97
2.44613	99.97
2.46280	99.97
2.47947	99.97
2.49613	99.97
2.51280	99.97
2.52947	99.97
2.54613	99.97
2.56280	99.97
2.57947	99.97
2.59613	99.97
2.61280	99.97
2.62947	99.97
2.64613	99.98
2.66280	99.97
2.67947	99.98
2.69613	99.98
2.71280	99.98
2.72947	99.98
2.74613	99.98
2.76280	99.98
2.77947	99.98
2.79613	99.99
2.81280	99.99
2.82947	99.99
2.84613	99.99
2.86280	100.00
2.87947	100.00
2.89613	100.00
2.91280	100.00
2.92947	100.00
2.94613	100.00
2.96280	100.00
2.97947	100.01
2.99613	100.01
3.01280	100.01
3.02947	100.01
3.04613	100.01
3.06280	100.01
3.07947	100.01
3.09613	100.02
3.11280	100.02
3.12947	100.02
3.14613	100.02
3.16280	100.02
3.17947	100.02
3.19613	100.02
3.21280	100.03
3.22947	100.03
3.24613	100.03
3.26280	100.03
3.27947	100.03
3.29613	100.03
3.31280	100.03
3.32947	100.03
3.34613	100.03
3.36280	100.03
3.37947	100.03
3.39613	100.03
3.41280	100.04
3.42947	100.03
3.44613	100.04
3.46280	100.03
3.47947	100.03
3.49613	100.03
3.51280	100.04
3.52947	100.04
3.54613	100.03
3.56280	100.03
3.57947	100.04
3.59613	100.03
3.61280	100.03
3.62947	100.04
3.64613	100.03
3.66280	100.03
3.67947	100.03
3.69613	100.03
3.71280	100.03
3.72947	100.04
3.74613	100.04
3.76280	100.03
3.77947	100.03
3.79613	100.03
3.81280	100.04
3.82947	100.04
3.84613	100.04
3.86280	100.03
3.87947	100.03
3.89613	100.03
3.91280	100.03
3.92947	100.03
3.94613	100.03
3.96280	100.03
3.97947	100.04
3.99613	100.03

[Status Trace (Carrier Gas Pressure)]
Interval(msec)	1000
# of Points	240
Start Time(min)	0.013
End Time(min)	3.996
Intensity Units	
Intensity Multiplier	1
R.Time (min)	Intensity
0.01280	57.98
0.02947	55.05
0.04613	57.81
0.06280	59.72
0.07947	58.85
0.09613	57.98
0.11280	57.99
0.12947	58.01
0.14613	58.01
0.16280	58.01
0.17947	58.00
0.19613	58.00
0.21280	58.00
0.22947	58.00
0.24613	58.00
0.26280	58.00
0.27947	58.00
0.29613	58.00
0.31280	58.00
0.32947	58.00
0.34613	58.00
0.36280	58.00
0.37947	58.00
0.39613	58.00
0.41280	58.00
0.42947	58.00
0.44613	58.00
0.46280	58.00
0.47947	58.00
0.49613	58.00
0.51280	58.00
0.52947	58.00
0.54613	58.00
0.56280	58.00
0.57947	58.00
0.59613	58.00
0.61280	58.00
0.62947	58.00
0.64613	58.00
0.66280	58.00
0.67947	58.00
0.69613	58.00
0.71280	58.00
0.72947	58.00
0.74613	58.00
0.76280	58.00
0.77947	58.00
0.79613	58.00
0.81280	58.00
0.82947	58.00
0.84613	58.00
0.86280	58.00
0.87947	58.00
0.89613	58.00
0.91280	58.00
0.92947	58.00
0.94613	58.00
0.96280	58.00
0.97947	58.00
0.99613	58.00
1.01280	58.00
1.02947	58.00
1.04613	58.00
1.06280	58.00
1.07947	58.00
1.09613	58.00
1.11280	58.00
1.12947	58.00
1.14613	58.00
1.16280	58.00
1.17947	58.00
1.19613	58.00
1.21280	58.00
1.22947	58.00
1.24613	58.00
1.26280	58.00
1.27947	58.00
1.29613	58.00
1.31280	58.00
1.32947	58.00
1.34613	58.00
1.36280	58.00
1.37947	58.00
1.39613	58.00
1.41280	58.00
1.42947	58.00
1.44613	58.00
1.46280	58.00
1.47947	58.00
1.49613	58.00
1.51280	58.00
1.52947	58.00
1.54613	58.00
1.56280	58.00
1.57947	58.00
1.59613	58.00
1.61280	58.00
1.62947	58.01
1.64613	58.00
1.66280	58.00
1.67947	58.01
1.69613	58.00
1.71280	58.00
1.72947	58.00
1.74613	58.00
1.76280	58.00
1.77947	58.00
1.79613	58.00
1.81280	58.00
1.82947	58.00
1.84613	58.00
1.86280	58.00
1.87947	58.00
1.89613	58.00
1.91280	58.00
1.92947	58.00
1.94613	58.00
1.96280	58.00
1.97947	58.00
1.99613	58.00
2.01280	58.00
2.02947	58.00
2.04613	58.00
2.06280	58.00
2.07947	58.00
2.09613	58.00
2.11280	58.00
2.12947	58.00
2.14613	58.00
2.16280	58.00
2.17947	58.00
2.19613	58.00
2.21280	58.00
2.22947	58.00
2.24613	58.00
2.26280	58.00
2.27947	58.00
2.29613	58.00
2.31280	58.00
2.32947	58.00
2.34613	58.00
2.36280	58.00
2.37947	58.00
2.39613	57.99
2.41280	58.00
2.42947	58.00
2.44613	58.00
2.46280	58.00
2.47947	58.00
2.49613	58.00
2.51280	57.99
2.52947	57.99
2.54613	58.00
2.56280	58.00
2.57947	58.00
2.59613	58.00
2.61280	58.00
2.62947	58.00
2.64613	58.00
2.66280	58.00
2.67947	58.00
2.69613	58.00
2.71280	58.00
2.72947	58.00
2.74613	58.00
2.76280	58.00
2.77947	58.00
2.79613	58.00
2.81280	58.00
2.82947	58.00
2.84613	58.00
2.86280	58.00
2.87947	58.00
2.89613	58.00
2.91280	58.00
2.92947	58.00
2.94613	58.00
2.96280	58.00
2.97947	58.00
2.99613	58.00
3.01280	58.00
3.02947	58.00
3.04613	58.00
3.06280	58.00
3.07947	58.00
3.09613	58.00
3.11280	58.00
3.12947	58.00
3.14613	58.00
3.16280	58.00
3.17947	58.00
3.19613	58.00
3.21280	58.00
3.22947	58.00
3.24613	58.00
3.26280	58.00
3.27947	58.00
3.29613	58.00
3.31280	58.00
3.32947	58.00
3.34613	58.00
3.36280	58.00
3.37947	58.00
3.39613	58.00
3.41280	58.00
3.42947	58.00
3.44613	58.00
3.46280	58.00
3.47947	58.00
3.49613	58.00
3.51280	58.00
3.52947	58.00
3.54613	58.00
3.56280	58.00
3.57947	58.00
3.59613	58.00
3.61280	58.00
3.62947	58.00
3.64613	58.00
3.66280	58.00
3.67947	58.00
3.69613	58.00
3.71280	58.00
3.72947	58.00
3.74613	58.00
3.76280	58.00
3.77947	58.00
3.79613	58.00
3.81280	58.00
3.82947	58.00
3.84613	58.00
3.86280	58.00
3.87947	58.00
3.89613	58.00
3.91280	58.00
3.92947	58.00
3.94613	58.00
3.96280	58.00
3.97947	58.00
3.99613	58.00

[Status Trace (Carrier Gas Flow)]
Interval(msec)	1000
# of Points	240
Start Time(min)	0.013
End Time(min)	3.996
Intensity Units	
Intensity Multiplier	1
R.Time (min)	Intensity
0.01280	34.60
0.02947	34.54
0.04613	34.54
0.06280	34.53
0.07947	34.51
0.09613	34.52
0.11280	34.52
0.12947	34.52
0.14613	34.52
0.16280	34.52
0.17947	34.52
0.19613	34.52
0.21280	34.53
0.22947	34.52
0.24613	34.52
0.26280	34.52
0.27947	34.52
0.29613	34.52
0.31280	34.53
0.32947	34.52
0.34613	34.52
0.36280	34.51
0.37947	34.52
0.39613	34.52
0.41280	34.52
0.42947	34.52
0.44613	34.52
0.46280	34.52
0.47947	34.51
0.49613	34.52
0.51280	34.52
0.52947	34.52
0.54613	34.51
0.56280	34.52
0.57947	34.52
0.59613	34.52
0.61280	34.52
0.62947	34.52
0.64613	34.52
0.66280	34.52
0.67947	34.51
0.69613	34.52
0.71280	34.52
0.72947	34.52
0.74613	34.52
0.76280	34.52
0.77947	34.52
0.79613	34.52
0.81280	34.52
0.82947	34.52
0.84613	34.52
0.86280	34.52
0.87947	34.51
0.89613	34.52
0.91280	34.52
0.92947	34.52
0.94613	34.52
0.96280	34.51
0.97947	34.52
0.99613	34.52
1.01280	34.52
1.02947	34.52
1.04613	34.52
1.06280	34.52
1.07947	34.52
1.09613	34.52
1.11280	34.52
1.12947	34.52
1.14613	34.52
1.16280	34.52
1.17947	34.52
1.19613	34.52
1.21280	34.52
1.22947	34.51
1.24613	34.52
1.26280	34.52
1.27947	34.52
1.29613	34.52
1.31280	34.52
1.32947	34.52
1.34613	34.52
1.36280	34.52
1.37947	34.52
1.39613	34.52
1.41280	34.51
1.42947	34.52
1.44613	34.51
1.46280	34.52
1.47947	34.52
1.49613	34.52
1.51280	34.52
1.52947	34.52
1.54613	34.52
1.56280	34.51
1.57947	34.52
1.59613	34.52
1.61280	34.52
1.62947	34.51
1.64613	34.51
1.66280	34.51
1.67947	34.52
1.69613	34.52
1.71280	34.52
1.72947	34.52
1.74613	34.52
1.76280	34.51
1.77947	34.52
1.79613	34.52
1.81280	34.52
1.82947	34.52
1.84613	34.52
1.86280	34.51
1.87947	34.52
1.89613	34.53
1.91280	34.52
1.92947	34.51
1.94613	34.52
1.96280	34.52
1.97947	34.52
1.99613	34.52
2.01280	34.51
2.02947	34.52
2.04613	34.52
2.06280	34.52
2.07947	34.51
2.09613	34.51
2.11280	34.51
2.12947	34.52
2.14613	34.51
2.16280	34.51
2.17947	34.52
2.19613	34.52
2.21280	34.51
2.22947	34.52
2.24613	34.52
2.26280	34.52
2.27947	34.52
2.29613	34.51
2.31280	34.51
2.32947	34.51
2.34613	34.51
2.36280	34.51
2.37947	34.52
2.39613	34.52
2.41280	34.52
2.42947	34.51
2.44613	34.52
2.46280	34.52
2.47947	34.51
2.49613	34.52
2.51280	34.52
2.52947	34.52
2.54613	34.51
2.56280	34.52
2.57947	34.52
2.59613	34.53
2.61280	34.52
2.62947	34.52
2.64613	34.52
2.66280	34.52
2.67947	34.52
2.69613	34.51
2.71280	34.52
2.72947	34.52
2.74613	34.52
2.76280	34.52
2.77947	34.52
2.79613	34.52
2.81280	34.52
2.82947	34.52
2.84613	34.52
2.86280	34.52
2.87947	34.52
2.89613	34.52
2.91280	34.52
2.92947	34.51
2.94613	34.52
2.96280	34.52
2.97947	34.52
2.99613	34.52
3.01280	34.52
3.02947	34.52
3.04613	34.52
3.06280	34.52
3.07947	34.52
3.09613	34.52
3.11280	34.52
3.12947	34.52
3.14613	34.52
3.16280	34.51
3.17947	34.52
3.19613	34.52
3.21280	34.52
3.22947	34.51
3.24613	34.52
3.26280	34.52
3.27947	34.52
3.29613	34.52
3.31280	34.52
3.32947	34.52
3.34613	34.51
3.36280	34.51
3.37947	34.53
3.39613	34.53
3.41280	34.52
3.42947	34.52
3.44613	34.52
3.46280	34.52
3.47947	34.52
3.49613	34.52
3.51280	34.52
3.52947	34.52
3.54613	34.52
3.56280	34.52
3.57947	34.52
3.59613	34.52
3.61280	34.52
3.62947	34.52
3.64613	34.52
3.66280	34.52
3.67947	34.53
3.69613	34.52
3.71280	34.52
3.72947	34.52
3.74613	34.52
3.76280	34.53
3.77947	34.52
3.79613	34.52
3.81280	34.52
3.82947	34.52
3.84613	34.52
3.86280	34.51
3.87947	34.52
3.89613	34.52
3.91280	34.52
3.92947	34.52
3.94613	34.52
3.96280	34.52
3.97947	34.52
3.99613	34.53

[Status Trace (Column Flow)]
Interval(msec)	1000
# of Points	240
Start Time(min)	0.013
End Time(min)	3.996
Intensity Units	
Intensity Multiplier	1
R.Time (min)	Intensity
0.01280	5.55
0.02947	5.21
0.04613	5.53
0.06280	5.76
0.07947	5.65
0.09613	5.55
0.11280	5.55
0.12947	5.55
0.14613	5.55
0.16280	5.55
0.17947	5.55
0.19613	5.55
0.21280	5.55
0.22947	5.55
0.24613	5.55
0.26280	5.55
0.27947	5.55
0.29613	5.55
0.31280	5.55
0.32947	5.55
0.34613	5.55
0.36280	5.55
0.37947	5.55
0.39613	5.55
0.41280	5.55
0.42947	5.55
0.44613	5.55
0.46280	5.55
0.47947	5.55
0.49613	5.55
0.51280	5.55
0.52947	5.55
0.54613	5.55
0.56280	5.55
0.57947	5.55
0.59613	5.55
0.61280	5.55
0.62947	5.55
0.64613	5.55
0.66280	5.55
0.67947	5.55
0.69613	5.55
0.71280	5.55
0.72947	5.55
0.74613	5.55
0.76280	5.55
0.77947	5.55
0.79613	5.55
0.81280	5.55
0.82947	5.55
0.84613	5.55
0.86280	5.55
0.87947	5.55
0.89613	5.55
0.91280	5.55
0.92947	5.55
0.94613	5.55
0.96280	5.55
0.97947	5.55
0.99613	5.55
1.01280	5.55
1.02947	5.55
1.04613	5.55
1.06280	5.55
1.07947	5.55
1.09613	5.55
1.11280	5.55
1.12947	5.55
1.14613	5.55
1.16280	5.55
1.17947	5.55
1.19613	5.55
1.21280	5.55
1.22947	5.55
1.24613	5.55
1.26280	5.55
1.27947	5.55
1.29613	5.55
1.31280	5.55
1.32947	5.55
1.34613	5.55
1.36280	5.55
1.37947	5.55
1.39613	5.55
1.41280	5.55
1.42947	5.55
1.44613	5.55
1.46280	5.55
1.47947	5.55
1.49613	5.55
1.51280	5.55
1.52947	5.55
1.54613	5.55
1.56280	5.55
1.57947	5.55
1.59613	5.55
1.61280	5.55
1.62947	5.55
1.64613	5.54
1.66280	5.53
1.67947	5.52
1.69613	5.51
1.71280	5.50
1.72947	5.49
1.74613	5.48
1.76280	5.47
1.77947	5.46
1.79613	5.45
1.81280	5.44
1.82947	5.43
1.84613	5.41
1.86280	5.40
1.87947	5.39
1.89613	5.38
1.91280	5.38
1.92947	5.37
1.94613	5.36
1.96280	5.35
1.97947	5.34
1.99613	5.33
2.01280	5.32
2.02947	5.31
2.04613	5.30
2.06280	5.29
2.07947	5.28
2.09613	5.27
2.11280	5.26
2.12947	5.25
2.14613	5.24
2.16280	5.23
2.17947	5.22
2.19613	5.21
2.21280	5.20
2.22947	5.19
2.24613	5.18
2.26280	5.17
2.27947	5.16
2.29613	5.16
2.31280	5.15
2.32947	5.14
2.34613	5.13
2.36280	5.12
2.37947	5.12
2.39613	5.11
2.41280	5.12
2.42947	5.12
2.44613	5.12
2.46280	5.12
2.47947	5.12
2.49613	5.11
2.51280	5.11
2.52947	5.11
2.54613	5.11
2.56280	5.11
2.57947	5.11
2.59613	5.11
2.61280	5.11
2.62947	5.11
2.64613	5.11
2.66280	5.11
2.67947	5.11
2.69613	5.11
2.71280	5.11
2.72947	5.11
2.74613	5.11
2.76280	5.11
2.77947	5.11
2.79613	5.11
2.81280	5.11
2.82947	5.11
2.84613	5.11
2.86280	5.11
2.87947	5.11
2.89613	5.11
2.91280	5.11
2.92947	5.11
2.94613	5.11
2.96280	5.11
2.97947	5.11
2.99613	5.11
3.01280	5.11
3.02947	5.11
3.04613	5.11
3.06280	5.11
3.07947	5.11
3.09613	5.11
3.11280	5.11
3.12947	5.11
3.14613	5.11
3.16280	5.11
3.17947	5.11
3.19613	5.11
3.21280	5.11
3.22947	5.11
3.24613	5.11
3.26280	5.11
3.27947	5.11
3.29613	5.11
3.31280	5.10
3.32947	5.10
3.34613	5.10
3.36280	5.10
3.37947	5.11
3.39613	5.11
3.41280	5.11
3.42947	5.11
3.44613	5.11
3.46280	5.11
3.47947	5.11
3.49613	5.11
3.51280	5.11
3.52947	5.11
3.54613	5.11
3.56280	5.11
3.57947	5.11
3.59613	5.11
3.61280	5.11
3.62947	5.11
3.64613	5.11
3.66280	5.11
3.67947	5.11
3.69613	5.11
3.71280	5.11
3.72947	5.11
3.74613	5.11
3.76280	5.11
3.77947	5.11
3.79613	5.11
3.81280	5.11
3.82947	5.11
3.84613	5.11
3.86280	5.11
3.87947	5.11
3.89613	5.11
3.91280	5.11
3.92947	5.11
3.94613	5.11
3.96280	5.11
3.97947	5.11
3.99613	5.11

[Status Trace (Linear Velocity)]
Interval(msec)	1000
# of Points	240
Start Time(min)	0.013
End Time(min)	3.996
Intensity Units	
Intensity Multiplier	1
R.Time (min)	Intensity
0.01280	39.01
0.02947	37.09
0.04613	38.90
0.06280	40.15
0.07947	39.58
0.09613	39.01
0.11280	39.02
0.12947	39.03
0.14613	39.03
0.16280	39.03
0.17947	39.03
0.19613	39.02
0.21280	39.02
0.22947	39.02
0.24613	39.02
0.26280	39.02
0.27947	39.02
0.29613	39.02
0.31280	39.03
0.32947	39.03
0.34613	39.03
0.36280	39.02
0.37947	39.02
0.39613	39.02
0.41280	39.03
0.42947	39.03
0.44613	39.03
0.46280	39.02
0.47947	39.02
0.49613	39.02
0.51280	39.02
0.52947	39.02
0.54613	39.03
0.56280	39.03
0.57947	39.03
0.59613	39.03
0.61280	39.02
0.62947	39.02
0.64613	39.02
0.66280	39.02
0.67947	39.02
0.69613	39.02
0.71280	39.02
0.72947	39.02
0.74613	39.02
0.76280	39.02
0.77947	39.02
0.79613	39.02
0.81280	39.02
0.82947	39.02
0.84613	39.02
0.86280	39.02
0.87947	39.02
0.89613	39.03
0.91280	39.03
0.92947	39.03
0.94613	39.03
0.96280	39.03
0.97947	39.03
0.99613	39.02
1.01280	39.03
1.02947	39.03
1.04613	39.03
1.06280	39.03
1.07947	39.03
1.09613	39.02
1.11280	39.02
1.12947	39.02
1.14613	39.02
1.16280	39.02
1.17947	39.02
1.19613	39.03
1.21280	39.03
1.22947	39.03
1.24613	39.03
1.26280	39.03
1.27947	39.03
1.29613	39.03
1.31280	39.03
1.32947	39.03
1.34613	39.02
1.36280	39.02
1.37947	39.02
1.39613	39.02
1.41280	39.03
1.42947	39.03
1.44613	39.03
1.46280	39.02
1.47947	39.02
1.49613	39.02
1.51280	39.02
1.52947	39.02
1.54613	39.02
1.56280	39.02
1.57947	39.02
1.59613	39.02
1.61280	39.02
1.62947	39.00
1.64613	38.98
1.66280	38.96
1.67947	38.93
1.69613	38.89
1.71280	38.85
1.72947	38.82
1.74613	38.79
1.76280	38.76
1.77947	38.73
1.79613	38.70
1.81280	38.67
1.82947	38.63
1.84613	38.60
1.86280	38.57
1.87947	38.54
1.89613	38.51
1.91280	38.48
1.92947	38.45
1.94613	38.42
1.96280	38.39
1.97947	38.36
1.99613	38.33
2.01280	38.30
2.02947	38.27
2.04613	38.24
2.06280	38.21
2.07947	38.18
2.09613	38.15
2.11280	38.12
2.12947	38.09
2.14613	38.06
2.16280	38.03
2.17947	38.00
2.19613	37.97
2.21280	37.94
2.22947	37.91
2.24613	37.88
2.26280	37.85
2.27947	37.82
2.29613	37.79
2.31280	37.76
2.32947	37.73
2.34613	37.71
2.36280	37.68
2.37947	37.67
2.39613	37.66
2.41280	37.66
2.42947	37.67
2.44613	37.66
2.46280	37.67
2.47947	37.67
2.49613	37.66
2.51280	37.66
2.52947	37.66
2.54613	37.66
2.56280	37.66
2.57947	37.66
2.59613	37.66
2.61280	37.66
2.62947	37.66
2.64613	37.66
2.66280	37.66
2.67947	37.65
2.69613	37.65
2.71280	37.65
2.72947	37.65
2.74613	37.65
2.76280	37.65
2.77947	37.65
2.79613	37.65
2.81280	37.65
2.82947	37.65
2.84613	37.65
2.86280	37.65
2.87947	37.65
2.89613	37.65
2.91280	37.65
2.92947	37.65
2.94613	37.65
2.96280	37.65
2.97947	37.64
2.99613	37.64
3.01280	37.64
3.02947	37.64
3.04613	37.64
3.06280	37.64
3.07947	37.64
3.09613	37.64
3.11280	37.64
3.12947	37.64
3.14613	37.64
3.16280	37.64
3.17947	37.64
3.19613	37.64
3.21280	37.64
3.22947	37.63
3.24613	37.63
3.26280	37.63
3.27947	37.63
3.29613	37.63
3.31280	37.63
3.32947	37.63
3.34613	37.63
3.36280	37.63
3.37947	37.63
3.39613	37.63
3.41280	37.63
3.42947	37.63
3.44613	37.63
3.46280	37.63
3.47947	37.63
3.49613	37.63
3.51280	37.63
3.52947	37.63
3.54613	37.63
3.56280	37.64
3.57947	37.64
3.59613	37.64
3.61280	37.64
3.62947	37.64
3.64613	37.63
3.66280	37.63
3.67947	37.64
3.69613	37.64
3.71280	37.64
3.72947	37.64
3.74613	37.64
3.76280	37.64
3.77947	37.64
3.79613	37.63
3.81280	37.63
3.82947	37.63
3.84613	37.63
3.86280	37.63
3.87947	37.63
3.89613	37.63
3.91280	37.63
3.92947	37.63
3.94613	37.63
3.96280	37.63
3.97947	37.63
3.99613	37.63

