[Header]
Application Name	LabSolutions
Version	5.110
Data File Name	C:\Users\User\Desktop\GC Analyses\Jack\Nachusa Grasslands Sampling\T3 Timepoint July 12th\T3_07122022_051.gcd
Output Date	3/14/2023
Output Time	3:43:33 PM

[File Information]
Type	Data File
Generated	3/13/2023 8:08:52 PM
Generated by	System Administrator
Modified	3/13/2023 8:15:27 PM
Modified by	System Administrator

[Sample Information]
Operator Name	System Administrator
Acquired	3/13/2023 8:11:27 PM
Sample Type	0:Unknown
Level	0
Sample Name	051
Sample ID	051
ISTD Amount1	1
ISTD Amount2	1
ISTD Amount3	1
ISTD Amount4	1
ISTD Amount5	1
ISTD Amount6	1
ISTD Amount7	1
ISTD Amount8	1
ISTD Amount9	1
ISTD Amount10	1
ISTD Amount11	1
ISTD Amount12	1
ISTD Amount13	1
ISTD Amount14	1
ISTD Amount15	1
ISTD Amount16	1
ISTD Amount17	1
ISTD Amount18	1
ISTD Amount19	1
ISTD Amount20	1
ISTD Amount21	1
ISTD Amount22	1
ISTD Amount23	1
ISTD Amount24	1
ISTD Amount25	1
ISTD Amount26	1
ISTD Amount27	1
ISTD Amount28	1
ISTD Amount29	1
ISTD Amount30	1
ISTD Amount31	1
ISTD Amount32	1
Sample Amount	1
Dilution Factor	1
Vial#	50
Injection Volume	1
Injection Count	1
Bar Code	

[Original Files]
Data File	C:\Users\User\Desktop\GC Analyses\Jack\Nachusa Grasslands Sampling\T3 Timepoint July 12th\T3_07122022_051.gcd
Method File	C:\LabSolutions\Data\GHG_4min_2022\ghg3_togas_w_acet_4 min_new_int.gcm
Batch File	C:\LabSolutions\Data\AutoSamplerTesting\T3_07122022.gcb
Report Format File	c:\LabSolutions\System\DEFAULT.lsr

[File Description]


[Configuration]
Instrument Name	C0B7VH3-Instrument1
Instrument #	1
Line #	1
# of Detectors	3
Detector ID	DET#1	DET#2	DET#3
Detector Name	FID	PTCD	ECD
# of Channels	1	1	1

[Peak Table(Ch1)]
# of Peaks	3
Peak#	R.Time	I.Time	F.Time	Area	Height	A/H	Conc.	Mark	ID#	Name	k'	Plate #	Plate Ht.	Tailing	Resolution	Sep.Factor	Area Ratio	Height Ratio	Conc. %	Norm Conc.
1	1.476	1.432	1.534	24910	12229	2.037	175.868	   	1	CO	0.000	9582	15.654	1.254	0.000	0.000	0	0	16.212	16.212
2	1.571	1.538	1.630	4452	2236	1.991	86.093	   	2	CH4	0.065	11460	13.089	1.214	1.602	0.000	0	0	7.936	7.936
3	1.996	1.949	2.447	3278668	1571806	2.086	822.857	   	3	CO2	0.353	17411	8.615	1.343	7.135	5.462	0	0	75.852	75.852

[Peak Table(Ch2)]
# of Peaks	0

[Peak Table(Ch3)]
# of Peaks	6
Peak#	R.Time	I.Time	F.Time	Area	Height	A/H	Conc.	Mark	ID#	Name	k'	Plate #	Plate Ht.	Tailing	Resolution	Sep.Factor	Area Ratio	Height Ratio	Conc. %	Norm Conc.
1	2.462	2.282	2.510	2307	647	3.567	0.000	   			0.000	9740	15.400	0.000	0.000	0.000	0	0	0.000	0.000
2	2.532	2.510	2.583	1125	362	3.109	0.000	 V 			0.028	5423	27.661	0.000	0.587	0.000	0	0	0.000	0.000
3	2.601	2.583	2.678	549	167	3.293	0.000	 V 			0.057	918	163.357	0.000	0.290	2.000	0	0	0.000	0.000
4	2.880	2.704	3.170	19462	4736	4.109	0.497	S  	1	N2O	0.170	12928	11.602	1.567	1.253	3.000	0	0	100.000	100.000
5	3.155	3.100	3.170	153	71	2.155	0.000	T  	2	SF6	0.281	33598	4.465	0.639	3.232	1.658	0	0	0.000	0.000
6	3.346	3.177	3.995	20404	725	28.148	0.000	   	2	SF6	0.359	270	554.974	2.403	0.432	1.275	0	0	0.000	0.000

[Compound Results(Ch1)]
# of IDs	6
ID#	Name	R.Time	Area	Height	Conc.	Curve	3rd	2nd	1st	Constant	Area Ratio	Height Ratio	Conc. %	Norm Conc.
1	CO	1.476	24910	12229	175.868	Linear	0.000000e+00	0.000000e+00	1.416423e+002	0.000000e+00	0	0	16.212	16.212
2	CH4	1.571	4452	2236	86.093	Linear	0.000000e+00	0.000000e+00	5.171738e+001	0.000000e+00	0	0	7.936	7.936
3	CO2	1.996	3278668	1571806	822.857	Linear	0.000000e+00	0.000000e+00	3.984494e+003	0.000000e+00	0	0	75.852	75.852
4	Ethylene	0.000	0	0	0.000	Linear	0.000000e+00	0.000000e+00	0.000000e+00	0.000000e+00	0	0	0.000	0.000
5	Acetylene	0.000	0	0	0.000	Linear	0.000000e+00	0.000000e+00	0.000000e+00	0.000000e+00	0	0	0.000	0.000
6	Ethane	0.000	0	0	0.000	Linear	0.000000e+00	0.000000e+00	0.000000e+00	0.000000e+00	0	0	0.000	0.000

[Compound Results(Ch2)]
# of IDs	5
ID#	Name	R.Time	Area	Height	Conc.	Curve	3rd	2nd	1st	Constant	Area Ratio	Height Ratio	Conc. %	Norm Conc.
1	Hydrogen	0.000	0	0	0.000	Linear	0.000000e+00	0.000000e+00	0.000000e+00	0.000000e+00	0	0	0.000	0.000
2	Oxygen	0.000	0	0	0.000	Linear	0.000000e+00	0.000000e+00	0.000000e+00	0.000000e+00	0	0	0.000	0.000
3	Nitrogen	0.000	0	0	0.000	Linear	0.000000e+00	0.000000e+00	0.000000e+00	0.000000e+00	0	0	0.000	0.000
4	Methane	0.000	0	0	0.000	Linear	0.000000e+00	0.000000e+00	0.000000e+00	0.000000e+00	0	0	0.000	0.000
5	Carbon Monoxide	0.000	0	0	0.000	Linear	0.000000e+00	0.000000e+00	0.000000e+00	0.000000e+00	0	0	0.000	0.000

[Compound Results(Ch3)]
# of IDs	2
ID#	Name	R.Time	Area	Height	Conc.	Curve	3rd	2nd	1st	Constant	Area Ratio	Height Ratio	Conc. %	Norm Conc.
1	N2O	2.880	19462	4736	0.497	Linear	0.000000e+00	0.000000e+00	3.915173e+004	0.000000e+00	0	0	100.000	100.000
2	SF6	3.346	20557	796	0.000	Linear	0.000000e+00	0.000000e+00	0.000000e+00	0.000000e+00	0	0	0.000	0.000

[Group Results(Ch1)]
# of Groups	0

[Group Results(Ch2)]
# of Groups	0

[Group Results(Ch3)]
# of Groups	0

[Chromatogram (Ch1)]
Interval(msec)	220
# of Points	1091
Start Time(min)	0.002
End Time(min)	3.998
R.Time (min)	Intensity
0.00167	-11
0.00533	-23
0.00900	-29
0.01267	-28
0.01633	-23
0.02000	-20
0.02367	-16
0.02733	-12
0.03100	-7
0.03467	-4
0.03833	-5
0.04200	-9
0.04567	-5
0.04933	7
0.05300	20
0.05667	26
0.06033	28
0.06400	26
0.06767	21
0.07133	9
0.07500	-8
0.07867	-21
0.08233	-29
0.08600	-28
0.08967	-25
0.09333	-21
0.09700	-17
0.10067	-13
0.10433	-7
0.10800	1
0.11167	4
0.11533	3
0.11900	3
0.12267	-2
0.12633	-7
0.13000	-16
0.13367	-24
0.13733	-26
0.14100	-25
0.14467	-26
0.14833	-27
0.15200	-22
0.15567	-14
0.15933	-8
0.16300	-1
0.16667	6
0.17033	11
0.17400	14
0.17767	12
0.18133	7
0.18500	6
0.18867	6
0.19233	6
0.19600	10
0.19967	11
0.20333	9
0.20700	2
0.21067	-4
0.21433	-9
0.21800	-11
0.22167	-11
0.22533	-12
0.22900	-10
0.23267	-4
0.23633	2
0.24000	6
0.24367	7
0.24733	8
0.25100	12
0.25467	18
0.25833	25
0.26200	26
0.26567	23
0.26933	19
0.27300	15
0.27667	6
0.28033	-1
0.28400	0
0.28767	2
0.29133	4
0.29500	12
0.29867	30
0.30233	50
0.30600	60
0.30967	60
0.31333	50
0.31700	40
0.32067	31
0.32433	22
0.32800	20
0.33167	22
0.33533	22
0.33900	19
0.34267	17
0.34633	17
0.35000	22
0.35367	29
0.35733	42
0.36100	57
0.36467	64
0.36833	69
0.37200	76
0.37567	82
0.37933	89
0.38300	89
0.38667	88
0.39033	88
0.39400	85
0.39767	76
0.40133	66
0.40500	62
0.40867	67
0.41233	81
0.41600	94
0.41967	99
0.42333	92
0.42700	76
0.43067	61
0.43433	53
0.43800	48
0.44167	44
0.44533	40
0.44900	36
0.45267	31
0.45633	28
0.46000	28
0.46367	28
0.46733	26
0.47100	23
0.47467	17
0.47833	14
0.48200	14
0.48567	20
0.48933	24
0.49300	29
0.49667	30
0.50033	20
0.50400	10
0.50767	5
0.51133	4
0.51500	8
0.51867	12
0.52233	13
0.52600	14
0.52967	16
0.53333	17
0.53700	15
0.54067	16
0.54433	20
0.54800	23
0.55167	20
0.55533	14
0.55900	7
0.56267	3
0.56633	1
0.57000	-3
0.57367	-7
0.57733	-8
0.58100	-9
0.58467	-8
0.58833	-4
0.59200	3
0.59567	10
0.59933	18
0.60300	23
0.60667	22
0.61033	22
0.61400	23
0.61767	24
0.62133	21
0.62500	21
0.62867	19
0.63233	12
0.63600	5
0.63967	-3
0.64333	-6
0.64700	-10
0.65067	-16
0.65433	-20
0.65800	-19
0.66167	-15
0.66533	-9
0.66900	-5
0.67267	-7
0.67633	-11
0.68000	-13
0.68367	-10
0.68733	-8
0.69100	-11
0.69467	-13
0.69833	-15
0.70200	-12
0.70567	-7
0.70933	-1
0.71300	4
0.71667	4
0.72033	-0
0.72400	-4
0.72767	-3
0.73133	-3
0.73500	-8
0.73867	-10
0.74233	-12
0.74600	-13
0.74967	-8
0.75333	-1
0.75700	5
0.76067	8
0.76433	8
0.76800	8
0.77167	6
0.77533	1
0.77900	-7
0.78267	-13
0.78633	-13
0.79000	-12
0.79367	-9
0.79733	-6
0.80100	3
0.80467	17
0.80833	28
0.81200	34
0.81567	33
0.81933	26
0.82300	18
0.82667	8
0.83033	-5
0.83400	-16
0.83767	-22
0.84133	-25
0.84500	-26
0.84867	-24
0.85233	-19
0.85600	-18
0.85967	-24
0.86333	-27
0.86700	-27
0.87067	-24
0.87433	-22
0.87800	-22
0.88167	-18
0.88533	-15
0.88900	-13
0.89267	-11
0.89633	-11
0.90000	-10
0.90367	-10
0.90733	-8
0.91100	-6
0.91467	-3
0.91833	-1
0.92200	2
0.92567	3
0.92933	6
0.93300	12
0.93667	12
0.94033	3
0.94400	-6
0.94767	-5
0.95133	1
0.95500	8
0.95867	6
0.96233	-5
0.96600	-14
0.96967	-22
0.97333	-26
0.97700	-26
0.98067	-27
0.98433	-31
0.98800	-35
0.99167	-34
0.99533	-33
0.99900	-32
1.00267	-32
1.00633	-29
1.01000	-20
1.01367	-11
1.01733	-8
1.02100	-13
1.02467	-25
1.02833	-37
1.03200	-40
1.03567	-35
1.03933	-26
1.04300	-18
1.04667	-12
1.05033	-14
1.05400	-18
1.05767	-18
1.06133	-19
1.06500	-20
1.06867	-19
1.07233	-15
1.07600	-10
1.07967	-5
1.08333	-5
1.08700	-12
1.09067	-18
1.09433	-19
1.09800	-17
1.10167	-13
1.10533	-17
1.10900	-27
1.11267	-38
1.11633	-43
1.12000	-41
1.12367	-37
1.12733	-35
1.13100	-33
1.13467	-34
1.13833	-38
1.14200	-39
1.14567	-39
1.14933	-34
1.15300	-29
1.15667	-22
1.16033	-20
1.16400	-17
1.16767	-16
1.17133	-19
1.17500	-25
1.17867	-30
1.18233	-28
1.18600	-23
1.18967	-19
1.19333	-16
1.19700	-16
1.20067	-20
1.20433	-20
1.20800	-14
1.21167	-7
1.21533	2
1.21900	10
1.22267	19
1.22633	24
1.23000	25
1.23367	22
1.23733	18
1.24100	13
1.24467	6
1.24833	-2
1.25200	-9
1.25567	-16
1.25933	-21
1.26300	-26
1.26667	-29
1.27033	-24
1.27400	-17
1.27767	-8
1.28133	-1
1.28500	4
1.28867	7
1.29233	7
1.29600	6
1.29967	3
1.30333	1
1.30700	2
1.31067	4
1.31433	5
1.31800	7
1.32167	9
1.32533	12
1.32900	16
1.33267	17
1.33633	14
1.34000	16
1.34367	17
1.34733	17
1.35100	15
1.35467	15
1.35833	18
1.36200	24
1.36567	29
1.36933	31
1.37300	28
1.37667	20
1.38033	11
1.38400	-2
1.38767	-15
1.39133	-22
1.39500	-19
1.39867	-7
1.40233	7
1.40600	20
1.40967	23
1.41333	18
1.41700	10
1.42067	-1
1.42433	-14
1.42800	-18
1.43167	-17
1.43533	-15
1.43900	-7
1.44267	35
1.44633	188
1.45000	627
1.45367	1648
1.45733	3469
1.46100	5818
1.46467	8157
1.46833	10096
1.47200	11464
1.47567	12156
1.47933	12055
1.48300	11130
1.48667	9550
1.49033	7648
1.49400	5767
1.49767	4130
1.50133	2832
1.50500	1868
1.50867	1187
1.51233	724
1.51600	407
1.51967	189
1.52333	42
1.52700	-53
1.53067	-114
1.53433	-148
1.53800	-156
1.54167	-112
1.54533	32
1.54900	318
1.55267	720
1.55633	1157
1.56000	1550
1.56367	1855
1.56733	2046
1.57100	2094
1.57467	1977
1.57833	1708
1.58200	1351
1.58567	992
1.58933	681
1.59300	441
1.59667	271
1.60033	157
1.60400	79
1.60767	19
1.61133	-26
1.61500	-56
1.61867	-79
1.62233	-98
1.62600	-111
1.62967	-117
1.63333	-120
1.63700	-119
1.64067	-110
1.64433	-100
1.64800	-92
1.65167	-85
1.65533	-83
1.65900	-83
1.66267	-81
1.66633	-78
1.67000	-76
1.67367	-73
1.67733	-68
1.68100	-62
1.68467	-58
1.68833	-54
1.69200	-54
1.69567	-57
1.69933	-58
1.70300	-59
1.70667	-62
1.71033	-62
1.71400	-61
1.71767	-56
1.72133	-51
1.72500	-49
1.72867	-48
1.73233	-51
1.73600	-58
1.73967	-65
1.74333	-76
1.74700	-85
1.75067	-90
1.75433	-91
1.75800	-87
1.76167	-79
1.76533	-71
1.76900	-62
1.77267	-52
1.77633	-51
1.78000	-56
1.78367	-58
1.78733	-54
1.79100	-49
1.79467	-50
1.79833	-55
1.80200	-60
1.80567	-60
1.80933	-57
1.81300	-54
1.81667	-52
1.82033	-50
1.82400	-49
1.82767	-44
1.83133	-34
1.83500	-27
1.83867	-23
1.84233	-25
1.84600	-32
1.84967	-37
1.85333	-39
1.85700	-39
1.86067	-39
1.86433	-36
1.86800	-31
1.87167	-25
1.87533	-18
1.87900	-13
1.88267	-12
1.88633	-13
1.89000	-15
1.89367	-15
1.89733	-13
1.90100	-15
1.90467	-21
1.90833	-29
1.91200	-35
1.91567	-36
1.91933	-40
1.92300	-44
1.92667	-45
1.93033	-41
1.93400	-35
1.93767	-28
1.94133	-15
1.94500	-3
1.94867	1
1.95233	12
1.95600	133
1.95967	962
1.96333	5234
1.96700	22030
1.97067	72471
1.97433	188013
1.97800	391044
1.98167	670069
1.98533	978382
1.98900	1259203
1.99267	1466437
1.99633	1571839
2.00000	1565607
2.00367	1456181
2.00733	1269334
2.01100	1042023
2.01467	811213
2.01833	604161
2.02200	434788
2.02567	305436
2.02933	211447
2.03300	145486
2.03667	100246
2.04033	69639
2.04400	49067
2.04767	35247
2.05133	25916
2.05500	19556
2.05867	15154
2.06233	12040
2.06600	9794
2.06967	8143
2.07333	6902
2.07700	5945
2.08067	5191
2.08433	4590
2.08800	4101
2.09167	3699
2.09533	3367
2.09900	3085
2.10267	2838
2.10633	2619
2.11000	2422
2.11367	2246
2.11733	2093
2.12100	1968
2.12467	1857
2.12833	1758
2.13200	1667
2.13567	1585
2.13933	1512
2.14300	1444
2.14667	1381
2.15033	1319
2.15400	1261
2.15767	1213
2.16133	1170
2.16500	1127
2.16867	1082
2.17233	1038
2.17600	1005
2.17967	982
2.18333	961
2.18700	935
2.19067	906
2.19433	877
2.19800	853
2.20167	831
2.20533	813
2.20900	793
2.21267	773
2.21633	752
2.22000	734
2.22367	718
2.22733	699
2.23100	679
2.23467	662
2.23833	652
2.24200	648
2.24567	642
2.24933	626
2.25300	604
2.25667	584
2.26033	566
2.26400	553
2.26767	542
2.27133	533
2.27500	521
2.27867	509
2.28233	501
2.28600	496
2.28967	493
2.29333	492
2.29700	491
2.30067	486
2.30433	478
2.30800	470
2.31167	463
2.31533	457
2.31900	449
2.32267	441
2.32633	433
2.33000	424
2.33367	420
2.33733	421
2.34100	422
2.34467	422
2.34833	423
2.35200	420
2.35567	412
2.35933	402
2.36300	395
2.36667	394
2.37033	398
2.37400	402
2.37767	406
2.38133	405
2.38500	398
2.38867	391
2.39233	386
2.39600	379
2.39967	370
2.40333	360
2.40700	351
2.41067	345
2.41433	341
2.41800	341
2.42167	343
2.42533	345
2.42900	351
2.43267	355
2.43633	352
2.44000	347
2.44367	343
2.44733	342
2.45100	337
2.45467	331
2.45833	331
2.46200	335
2.46567	338
2.46933	336
2.47300	328
2.47667	321
2.48033	315
2.48400	311
2.48767	314
2.49133	320
2.49500	323
2.49867	324
2.50233	320
2.50600	314
2.50967	308
2.51333	304
2.51700	305
2.52067	306
2.52433	309
2.52800	314
2.53167	319
2.53533	316
2.53900	311
2.54267	309
2.54633	311
2.55000	317
2.55367	323
2.55733	325
2.56100	319
2.56467	313
2.56833	309
2.57200	304
2.57567	296
2.57933	288
2.58300	281
2.58667	281
2.59033	286
2.59400	292
2.59767	294
2.60133	294
2.60500	296
2.60867	301
2.61233	306
2.61600	308
2.61967	310
2.62333	310
2.62700	302
2.63067	293
2.63433	289
2.63800	290
2.64167	295
2.64533	301
2.64900	305
2.65267	303
2.65633	297
2.66000	295
2.66367	294
2.66733	295
2.67100	298
2.67467	298
2.67833	299
2.68200	302
2.68567	311
2.68933	321
2.69300	327
2.69667	327
2.70033	323
2.70400	318
2.70767	308
2.71133	296
2.71500	286
2.71867	282
2.72233	287
2.72600	299
2.72967	310
2.73333	308
2.73700	298
2.74067	290
2.74433	291
2.74800	299
2.75167	309
2.75533	318
2.75900	320
2.76267	315
2.76633	308
2.77000	301
2.77367	299
2.77733	301
2.78100	305
2.78467	310
2.78833	315
2.79200	323
2.79567	334
2.79933	344
2.80300	345
2.80667	340
2.81033	333
2.81400	322
2.81767	312
2.82133	303
2.82500	296
2.82867	294
2.83233	295
2.83600	297
2.83967	300
2.84333	298
2.84700	294
2.85067	293
2.85433	294
2.85800	295
2.86167	296
2.86533	295
2.86900	294
2.87267	296
2.87633	301
2.88000	312
2.88367	323
2.88733	333
2.89100	337
2.89467	335
2.89833	326
2.90200	316
2.90567	309
2.90933	308
2.91300	310
2.91667	311
2.92033	311
2.92400	305
2.92767	300
2.93133	300
2.93500	305
2.93867	310
2.94233	313
2.94600	318
2.94967	326
2.95333	331
2.95700	333
2.96067	332
2.96433	331
2.96800	329
2.97167	327
2.97533	326
2.97900	326
2.98267	325
2.98633	323
2.99000	322
2.99367	331
2.99733	344
3.00100	354
3.00467	357
3.00833	353
3.01200	348
3.01567	347
3.01933	346
3.02300	345
3.02667	344
3.03033	342
3.03400	338
3.03767	334
3.04133	333
3.04500	331
3.04867	331
3.05233	331
3.05600	333
3.05967	336
3.06333	341
3.06700	345
3.07067	347
3.07433	342
3.07800	334
3.08167	328
3.08533	331
3.08900	337
3.09267	339
3.09633	340
3.10000	337
3.10367	334
3.10733	329
3.11100	315
3.11467	299
3.11833	288
3.12200	281
3.12567	280
3.12933	286
3.13300	295
3.13667	303
3.14033	309
3.14400	311
3.14767	310
3.15133	310
3.15500	310
3.15867	310
3.16233	309
3.16600	305
3.16967	298
3.17333	294
3.17700	294
3.18067	301
3.18433	310
3.18800	319
3.19167	319
3.19533	311
3.19900	299
3.20267	295
3.20633	297
3.21000	300
3.21367	303
3.21733	303
3.22100	301
3.22467	302
3.22833	306
3.23200	308
3.23567	310
3.23933	314
3.24300	310
3.24667	300
3.25033	293
3.25400	291
3.25767	289
3.26133	288
3.26500	291
3.26867	299
3.27233	305
3.27600	308
3.27967	310
3.28333	313
3.28700	315
3.29067	317
3.29433	315
3.29800	312
3.30167	310
3.30533	306
3.30900	298
3.31267	289
3.31633	285
3.32000	285
3.32367	283
3.32733	278
3.33100	278
3.33467	282
3.33833	286
3.34200	291
3.34567	296
3.34933	301
3.35300	304
3.35667	308
3.36033	310
3.36400	310
3.36767	309
3.37133	305
3.37500	299
3.37867	291
3.38233	284
3.38600	280
3.38967	274
3.39333	271
3.39700	271
3.40067	274
3.40433	282
3.40800	288
3.41167	289
3.41533	283
3.41900	275
3.42267	273
3.42633	275
3.43000	279
3.43367	280
3.43733	283
3.44100	291
3.44467	296
3.44833	293
3.45200	283
3.45567	272
3.45933	265
3.46300	263
3.46667	266
3.47033	264
3.47400	262
3.47767	258
3.48133	255
3.48500	256
3.48867	256
3.49233	254
3.49600	255
3.49967	262
3.50333	269
3.50700	275
3.51067	277
3.51433	274
3.51800	272
3.52167	271
3.52533	267
3.52900	261
3.53267	254
3.53633	247
3.54000	242
3.54367	243
3.54733	247
3.55100	251
3.55467	256
3.55833	260
3.56200	262
3.56567	264
3.56933	265
3.57300	258
3.57667	250
3.58033	245
3.58400	242
3.58767	241
3.59133	241
3.59500	243
3.59867	243
3.60233	238
3.60600	230
3.60967	224
3.61333	222
3.61700	224
3.62067	230
3.62433	235
3.62800	236
3.63167	234
3.63533	230
3.63900	227
3.64267	227
3.64633	229
3.65000	231
3.65367	232
3.65733	232
3.66100	237
3.66467	246
3.66833	250
3.67200	247
3.67567	242
3.67933	237
3.68300	233
3.68667	228
3.69033	222
3.69400	219
3.69767	215
3.70133	211
3.70500	209
3.70867	209
3.71233	216
3.71600	222
3.71967	223
3.72333	225
3.72700	228
3.73067	230
3.73433	234
3.73800	241
3.74167	244
3.74533	238
3.74900	228
3.75267	214
3.75633	203
3.76000	198
3.76367	197
3.76733	197
3.77100	201
3.77467	202
3.77833	205
3.78200	210
3.78567	216
3.78933	221
3.79300	231
3.79667	240
3.80033	244
3.80400	241
3.80767	236
3.81133	231
3.81500	229
3.81867	233
3.82233	237
3.82600	239
3.82967	234
3.83333	227
3.83700	219
3.84067	210
3.84433	200
3.84800	194
3.85167	193
3.85533	193
3.85900	194
3.86267	192
3.86633	186
3.87000	183
3.87367	184
3.87733	186
3.88100	187
3.88467	186
3.88833	185
3.89200	185
3.89567	186
3.89933	187
3.90300	187
3.90667	190
3.91033	192
3.91400	196
3.91767	198
3.92133	201
3.92500	203
3.92867	204
3.93233	204
3.93600	204
3.93967	203
3.94333	197
3.94700	188
3.95067	188
3.95433	195
3.95800	200
3.96167	201
3.96533	202
3.96900	198
3.97267	192
3.97633	187
3.98000	184
3.98367	181
3.98733	180
3.99100	181
3.99467	186
3.99833	195

[Chromatogram (Ch2)]
Interval(msec)	220
# of Points	1091
Start Time(min)	0.002
End Time(min)	3.998
R.Time (min)	Intensity
0.00167	1
0.00533	2
0.00900	2
0.01267	2
0.01633	2
0.02000	2
0.02367	2
0.02733	2
0.03100	2
0.03467	1
0.03833	1
0.04200	1
0.04567	1
0.04933	1
0.05300	1
0.05667	1
0.06033	0
0.06400	0
0.06767	0
0.07133	0
0.07500	0
0.07867	0
0.08233	0
0.08600	0
0.08967	1
0.09333	1
0.09700	1
0.10067	1
0.10433	2
0.10800	2
0.11167	3
0.11533	3
0.11900	3
0.12267	4
0.12633	4
0.13000	3
0.13367	3
0.13733	3
0.14100	3
0.14467	3
0.14833	2
0.15200	2
0.15567	2
0.15933	1
0.16300	1
0.16667	1
0.17033	0
0.17400	0
0.17767	0
0.18133	1
0.18500	1
0.18867	1
0.19233	1
0.19600	1
0.19967	2
0.20333	2
0.20700	1
0.21067	1
0.21433	1
0.21800	1
0.22167	0
0.22533	0
0.22900	0
0.23267	0
0.23633	0
0.24000	0
0.24367	-0
0.24733	-0
0.25100	-1
0.25467	-1
0.25833	-1
0.26200	-0
0.26567	-0
0.26933	-0
0.27300	-0
0.27667	-0
0.28033	-0
0.28400	-0
0.28767	-0
0.29133	-0
0.29500	-0
0.29867	-0
0.30233	-1
0.30600	-1
0.30967	-1
0.31333	-1
0.31700	-1
0.32067	-1
0.32433	-1
0.32800	-0
0.33167	-0
0.33533	0
0.33900	0
0.34267	0
0.34633	1
0.35000	1
0.35367	1
0.35733	1
0.36100	1
0.36467	1
0.36833	0
0.37200	1
0.37567	1
0.37933	1
0.38300	1
0.38667	1
0.39033	1
0.39400	2
0.39767	2
0.40133	2
0.40500	2
0.40867	2
0.41233	1
0.41600	1
0.41967	1
0.42333	0
0.42700	0
0.43067	0
0.43433	0
0.43800	1
0.44167	1
0.44533	1
0.44900	1
0.45267	1
0.45633	2
0.46000	2
0.46367	2
0.46733	2
0.47100	2
0.47467	1
0.47833	1
0.48200	2
0.48567	2
0.48933	2
0.49300	2
0.49667	2
0.50033	2
0.50400	2
0.50767	1
0.51133	1
0.51500	1
0.51867	1
0.52233	1
0.52600	1
0.52967	1
0.53333	1
0.53700	1
0.54067	0
0.54433	0
0.54800	0
0.55167	0
0.55533	1
0.55900	1
0.56267	1
0.56633	2
0.57000	2
0.57367	2
0.57733	2
0.58100	2
0.58467	2
0.58833	2
0.59200	2
0.59567	2
0.59933	2
0.60300	2
0.60667	2
0.61033	1
0.61400	1
0.61767	1
0.62133	1
0.62500	1
0.62867	1
0.63233	0
0.63600	0
0.63967	0
0.64333	-0
0.64700	-1
0.65067	-1
0.65433	-1
0.65800	-1
0.66167	-1
0.66533	-1
0.66900	-1
0.67267	-1
0.67633	-1
0.68000	-1
0.68367	-1
0.68733	-1
0.69100	-1
0.69467	-2
0.69833	-2
0.70200	-2
0.70567	-1
0.70933	-1
0.71300	-0
0.71667	0
0.72033	1
0.72400	2
0.72767	3
0.73133	3
0.73500	4
0.73867	4
0.74233	4
0.74600	4
0.74967	4
0.75333	5
0.75700	5
0.76067	5
0.76433	5
0.76800	5
0.77167	5
0.77533	5
0.77900	4
0.78267	4
0.78633	4
0.79000	3
0.79367	3
0.79733	2
0.80100	2
0.80467	1
0.80833	0
0.81200	-0
0.81567	-1
0.81933	-1
0.82300	-2
0.82667	-2
0.83033	-2
0.83400	-2
0.83767	-3
0.84133	-3
0.84500	-3
0.84867	-3
0.85233	-3
0.85600	-3
0.85967	-3
0.86333	-3
0.86700	-3
0.87067	-3
0.87433	-3
0.87800	-4
0.88167	-4
0.88533	-4
0.88900	-4
0.89267	-4
0.89633	-4
0.90000	-3
0.90367	-3
0.90733	-3
0.91100	-3
0.91467	-2
0.91833	-2
0.92200	-2
0.92567	-1
0.92933	-1
0.93300	-1
0.93667	-1
0.94033	-0
0.94400	0
0.94767	1
0.95133	1
0.95500	1
0.95867	1
0.96233	1
0.96600	0
0.96967	0
0.97333	-0
0.97700	-0
0.98067	-0
0.98433	-0
0.98800	-1
0.99167	-1
0.99533	-1
0.99900	-1
1.00267	-1
1.00633	-1
1.01000	-1
1.01367	-1
1.01733	-1
1.02100	-1
1.02467	-1
1.02833	-1
1.03200	-1
1.03567	-1
1.03933	-0
1.04300	-0
1.04667	0
1.05033	1
1.05400	1
1.05767	1
1.06133	1
1.06500	2
1.06867	2
1.07233	2
1.07600	2
1.07967	2
1.08333	2
1.08700	2
1.09067	2
1.09433	1
1.09800	1
1.10167	1
1.10533	1
1.10900	1
1.11267	1
1.11633	0
1.12000	-0
1.12367	-0
1.12733	-0
1.13100	-1
1.13467	-1
1.13833	-1
1.14200	-0
1.14567	-0
1.14933	-0
1.15300	0
1.15667	0
1.16033	0
1.16400	0
1.16767	0
1.17133	0
1.17500	0
1.17867	0
1.18233	0
1.18600	-0
1.18967	-0
1.19333	-0
1.19700	-0
1.20067	-0
1.20433	-0
1.20800	-1
1.21167	-1
1.21533	-1
1.21900	-1
1.22267	-1
1.22633	-1
1.23000	-2
1.23367	-2
1.23733	-2
1.24100	-2
1.24467	-2
1.24833	-1
1.25200	-1
1.25567	-1
1.25933	-1
1.26300	-1
1.26667	-1
1.27033	-0
1.27400	-0
1.27767	0
1.28133	-0
1.28500	-0
1.28867	-0
1.29233	-1
1.29600	-1
1.29967	-1
1.30333	-1
1.30700	-2
1.31067	-2
1.31433	-2
1.31800	-2
1.32167	-2
1.32533	-2
1.32900	-3
1.33267	-3
1.33633	-3
1.34000	-3
1.34367	-3
1.34733	-2
1.35100	-2
1.35467	-2
1.35833	-2
1.36200	-2
1.36567	-2
1.36933	-2
1.37300	-3
1.37667	-3
1.38033	-3
1.38400	-2
1.38767	-2
1.39133	-2
1.39500	-2
1.39867	-2
1.40233	-3
1.40600	-3
1.40967	-3
1.41333	-3
1.41700	-3
1.42067	-3
1.42433	-2
1.42800	-2
1.43167	-2
1.43533	-2
1.43900	-2
1.44267	-2
1.44633	-2
1.45000	-2
1.45367	-1
1.45733	-1
1.46100	-1
1.46467	-0
1.46833	-0
1.47200	-0
1.47567	-0
1.47933	-0
1.48300	-0
1.48667	-0
1.49033	-0
1.49400	-0
1.49767	-0
1.50133	-1
1.50500	-1
1.50867	-1
1.51233	-2
1.51600	-2
1.51967	-2
1.52333	-2
1.52700	-3
1.53067	-3
1.53433	-3
1.53800	-3
1.54167	-3
1.54533	-2
1.54900	-2
1.55267	-2
1.55633	-1
1.56000	-1
1.56367	-1
1.56733	-1
1.57100	-0
1.57467	-0
1.57833	-0
1.58200	-0
1.58567	0
1.58933	-0
1.59300	-1
1.59667	-2
1.60033	-3
1.60400	-4
1.60767	-5
1.61133	-7
1.61500	-9
1.61867	-11
1.62233	-14
1.62600	-17
1.62967	-20
1.63333	-24
1.63700	-27
1.64067	-31
1.64433	-35
1.64800	-38
1.65167	-42
1.65533	-45
1.65900	-49
1.66267	-52
1.66633	-56
1.67000	-60
1.67367	-64
1.67733	-69
1.68100	-75
1.68467	-80
1.68833	-84
1.69200	-89
1.69567	-93
1.69933	-96
1.70300	-99
1.70667	-101
1.71033	-102
1.71400	-104
1.71767	-105
1.72133	-105
1.72500	-105
1.72867	-106
1.73233	-105
1.73600	-105
1.73967	-105
1.74333	-105
1.74700	-105
1.75067	-105
1.75433	-105
1.75800	-105
1.76167	-106
1.76533	-107
1.76900	-108
1.77267	-109
1.77633	-109
1.78000	-109
1.78367	-109
1.78733	-109
1.79100	-109
1.79467	-110
1.79833	-110
1.80200	-111
1.80567	-111
1.80933	-112
1.81300	-112
1.81667	-112
1.82033	-113
1.82400	-113
1.82767	-114
1.83133	-114
1.83500	-115
1.83867	-115
1.84233	-116
1.84600	-115
1.84967	-115
1.85333	-114
1.85700	-112
1.86067	-111
1.86433	-111
1.86800	-110
1.87167	-110
1.87533	-109
1.87900	-109
1.88267	-110
1.88633	-110
1.89000	-111
1.89367	-112
1.89733	-112
1.90100	-112
1.90467	-112
1.90833	-112
1.91200	-111
1.91567	-111
1.91933	-110
1.92300	-110
1.92667	-109
1.93033	-109
1.93400	-108
1.93767	-109
1.94133	-109
1.94500	-110
1.94867	-110
1.95233	-110
1.95600	-109
1.95967	-108
1.96333	-108
1.96700	-107
1.97067	-107
1.97433	-107
1.97800	-107
1.98167	-107
1.98533	-106
1.98900	-105
1.99267	-104
1.99633	-103
2.00000	-102
2.00367	-102
2.00733	-102
2.01100	-102
2.01467	-102
2.01833	-102
2.02200	-102
2.02567	-102
2.02933	-102
2.03300	-102
2.03667	-103
2.04033	-103
2.04400	-103
2.04767	-103
2.05133	-103
2.05500	-103
2.05867	-103
2.06233	-103
2.06600	-103
2.06967	-102
2.07333	-102
2.07700	-101
2.08067	-100
2.08433	-99
2.08800	-99
2.09167	-99
2.09533	-99
2.09900	-99
2.10267	-98
2.10633	-97
2.11000	-97
2.11367	-96
2.11733	-96
2.12100	-95
2.12467	-94
2.12833	-94
2.13200	-94
2.13567	-93
2.13933	-93
2.14300	-93
2.14667	-92
2.15033	-92
2.15400	-92
2.15767	-93
2.16133	-92
2.16500	-92
2.16867	-92
2.17233	-92
2.17600	-92
2.17967	-92
2.18333	-92
2.18700	-92
2.19067	-92
2.19433	-91
2.19800	-90
2.20167	-90
2.20533	-89
2.20900	-88
2.21267	-88
2.21633	-87
2.22000	-87
2.22367	-86
2.22733	-86
2.23100	-86
2.23467	-87
2.23833	-87
2.24200	-86
2.24567	-86
2.24933	-85
2.25300	-84
2.25667	-84
2.26033	-83
2.26400	-83
2.26767	-82
2.27133	-82
2.27500	-81
2.27867	-80
2.28233	-80
2.28600	-79
2.28967	-79
2.29333	-79
2.29700	-80
2.30067	-80
2.30433	-81
2.30800	-81
2.31167	-81
2.31533	-81
2.31900	-80
2.32267	-80
2.32633	-80
2.33000	-79
2.33367	-79
2.33733	-79
2.34100	-79
2.34467	-78
2.34833	-77
2.35200	-76
2.35567	-74
2.35933	-72
2.36300	-70
2.36667	-68
2.37033	-66
2.37400	-63
2.37767	-59
2.38133	-56
2.38500	-52
2.38867	-48
2.39233	-44
2.39600	-40
2.39967	-36
2.40333	-31
2.40700	-27
2.41067	-23
2.41433	-19
2.41800	-16
2.42167	-13
2.42533	-11
2.42900	-10
2.43267	-9
2.43633	-8
2.44000	-7
2.44367	-7
2.44733	-6
2.45100	-5
2.45467	-5
2.45833	-4
2.46200	-3
2.46567	-2
2.46933	-2
2.47300	-1
2.47667	-1
2.48033	0
2.48400	1
2.48767	2
2.49133	3
2.49500	5
2.49867	6
2.50233	7
2.50600	7
2.50967	8
2.51333	8
2.51700	9
2.52067	9
2.52433	10
2.52800	11
2.53167	12
2.53533	12
2.53900	13
2.54267	13
2.54633	13
2.55000	14
2.55367	14
2.55733	15
2.56100	15
2.56467	16
2.56833	16
2.57200	16
2.57567	16
2.57933	16
2.58300	16
2.58667	16
2.59033	17
2.59400	17
2.59767	17
2.60133	18
2.60500	18
2.60867	18
2.61233	19
2.61600	19
2.61967	19
2.62333	19
2.62700	19
2.63067	19
2.63433	19
2.63800	19
2.64167	19
2.64533	19
2.64900	19
2.65267	20
2.65633	20
2.66000	21
2.66367	21
2.66733	21
2.67100	21
2.67467	21
2.67833	21
2.68200	21
2.68567	22
2.68933	22
2.69300	23
2.69667	24
2.70033	24
2.70400	25
2.70767	25
2.71133	25
2.71500	24
2.71867	24
2.72233	24
2.72600	23
2.72967	24
2.73333	24
2.73700	24
2.74067	24
2.74433	24
2.74800	25
2.75167	25
2.75533	26
2.75900	26
2.76267	26
2.76633	27
2.77000	27
2.77367	27
2.77733	27
2.78100	27
2.78467	27
2.78833	27
2.79200	27
2.79567	27
2.79933	27
2.80300	27
2.80667	28
2.81033	28
2.81400	28
2.81767	28
2.82133	28
2.82500	28
2.82867	29
2.83233	29
2.83600	29
2.83967	28
2.84333	27
2.84700	25
2.85067	21
2.85433	15
2.85800	5
2.86167	-7
2.86533	-24
2.86900	-45
2.87267	-71
2.87633	-101
2.88000	-135
2.88367	-174
2.88733	-216
2.89100	-262
2.89467	-311
2.89833	-362
2.90200	-415
2.90567	-470
2.90933	-525
2.91300	-581
2.91667	-637
2.92033	-692
2.92400	-747
2.92767	-799
2.93133	-850
2.93500	-903
2.93867	-961
2.94233	-1018
2.94600	-1066
2.94967	-1094
2.95333	-1097
2.95700	-1074
2.96067	-1029
2.96433	-968
2.96800	-894
2.97167	-815
2.97533	-734
2.97900	-654
2.98267	-578
2.98633	-507
2.99000	-442
2.99367	-383
2.99733	-331
3.00100	-284
3.00467	-243
3.00833	-208
3.01200	-176
3.01567	-149
3.01933	-126
3.02300	-105
3.02667	-88
3.03033	-73
3.03400	-61
3.03767	-50
3.04133	-40
3.04500	-32
3.04867	-25
3.05233	-19
3.05600	-14
3.05967	-9
3.06333	-6
3.06700	-2
3.07067	1
3.07433	3
3.07800	5
3.08167	7
3.08533	9
3.08900	11
3.09267	12
3.09633	13
3.10000	14
3.10367	15
3.10733	15
3.11100	16
3.11467	16
3.11833	17
3.12200	17
3.12567	17
3.12933	18
3.13300	18
3.13667	19
3.14033	19
3.14400	20
3.14767	20
3.15133	20
3.15500	20
3.15867	20
3.16233	20
3.16600	21
3.16967	21
3.17333	21
3.17700	21
3.18067	21
3.18433	21
3.18800	21
3.19167	21
3.19533	21
3.19900	21
3.20267	22
3.20633	22
3.21000	23
3.21367	23
3.21733	23
3.22100	24
3.22467	24
3.22833	24
3.23200	24
3.23567	24
3.23933	24
3.24300	24
3.24667	25
3.25033	25
3.25400	25
3.25767	25
3.26133	25
3.26500	25
3.26867	25
3.27233	25
3.27600	25
3.27967	26
3.28333	26
3.28700	26
3.29067	26
3.29433	26
3.29800	26
3.30167	26
3.30533	26
3.30900	26
3.31267	26
3.31633	26
3.32000	26
3.32367	26
3.32733	26
3.33100	27
3.33467	27
3.33833	27
3.34200	27
3.34567	28
3.34933	28
3.35300	28
3.35667	29
3.36033	29
3.36400	29
3.36767	29
3.37133	30
3.37500	30
3.37867	30
3.38233	30
3.38600	30
3.38967	30
3.39333	30
3.39700	30
3.40067	30
3.40433	30
3.40800	30
3.41167	30
3.41533	30
3.41900	30
3.42267	30
3.42633	30
3.43000	30
3.43367	30
3.43733	30
3.44100	30
3.44467	30
3.44833	30
3.45200	30
3.45567	30
3.45933	30
3.46300	30
3.46667	30
3.47033	29
3.47400	29
3.47767	29
3.48133	28
3.48500	28
3.48867	28
3.49233	27
3.49600	27
3.49967	27
3.50333	27
3.50700	27
3.51067	27
3.51433	27
3.51800	27
3.52167	27
3.52533	27
3.52900	27
3.53267	27
3.53633	28
3.54000	28
3.54367	28
3.54733	28
3.55100	28
3.55467	28
3.55833	28
3.56200	28
3.56567	28
3.56933	28
3.57300	28
3.57667	28
3.58033	28
3.58400	28
3.58767	27
3.59133	27
3.59500	27
3.59867	27
3.60233	27
3.60600	27
3.60967	27
3.61333	27
3.61700	28
3.62067	28
3.62433	28
3.62800	28
3.63167	28
3.63533	28
3.63900	28
3.64267	28
3.64633	28
3.65000	28
3.65367	28
3.65733	28
3.66100	28
3.66467	27
3.66833	27
3.67200	27
3.67567	27
3.67933	27
3.68300	28
3.68667	28
3.69033	28
3.69400	28
3.69767	28
3.70133	28
3.70500	28
3.70867	28
3.71233	28
3.71600	28
3.71967	28
3.72333	28
3.72700	28
3.73067	28
3.73433	28
3.73800	28
3.74167	28
3.74533	28
3.74900	28
3.75267	28
3.75633	28
3.76000	28
3.76367	28
3.76733	28
3.77100	28
3.77467	28
3.77833	28
3.78200	28
3.78567	28
3.78933	28
3.79300	28
3.79667	28
3.80033	28
3.80400	28
3.80767	29
3.81133	29
3.81500	29
3.81867	29
3.82233	29
3.82600	29
3.82967	29
3.83333	28
3.83700	28
3.84067	28
3.84433	28
3.84800	28
3.85167	28
3.85533	28
3.85900	28
3.86267	28
3.86633	28
3.87000	28
3.87367	28
3.87733	28
3.88100	29
3.88467	29
3.88833	28
3.89200	28
3.89567	29
3.89933	29
3.90300	29
3.90667	29
3.91033	29
3.91400	29
3.91767	29
3.92133	29
3.92500	29
3.92867	29
3.93233	29
3.93600	29
3.93967	29
3.94333	29
3.94700	29
3.95067	29
3.95433	29
3.95800	29
3.96167	29
3.96533	28
3.96900	28
3.97267	28
3.97633	28
3.98000	29
3.98367	29
3.98733	29
3.99100	29
3.99467	29
3.99833	30

[Chromatogram (Ch3)]
Interval(msec)	220
# of Points	1091
Start Time(min)	0.002
End Time(min)	3.998
R.Time (min)	Intensity
0.00167	1
0.00533	1
0.00900	-1
0.01267	-2
0.01633	-1
0.02000	-2
0.02367	-2
0.02733	-2
0.03100	-2
0.03467	1
0.03833	2
0.04200	1
0.04567	0
0.04933	2
0.05300	1
0.05667	-1
0.06033	-4
0.06400	-5
0.06767	-4
0.07133	-4
0.07500	-4
0.07867	-1
0.08233	1
0.08600	2
0.08967	2
0.09333	3
0.09700	5
0.10067	6
0.10433	6
0.10800	2
0.11167	1
0.11533	3
0.11900	3
0.12267	4
0.12633	5
0.13000	4
0.13367	3
0.13733	5
0.14100	6
0.14467	3
0.14833	2
0.15200	1
0.15567	-1
0.15933	-1
0.16300	-2
0.16667	-2
0.17033	-1
0.17400	1
0.17767	2
0.18133	2
0.18500	2
0.18867	2
0.19233	1
0.19600	1
0.19967	0
0.20333	2
0.20700	3
0.21067	3
0.21433	5
0.21800	6
0.22167	5
0.22533	4
0.22900	2
0.23267	2
0.23633	3
0.24000	4
0.24367	4
0.24733	4
0.25100	3
0.25467	2
0.25833	2
0.26200	2
0.26567	2
0.26933	0
0.27300	0
0.27667	1
0.28033	3
0.28400	3
0.28767	4
0.29133	4
0.29500	4
0.29867	4
0.30233	4
0.30600	1
0.30967	0
0.31333	0
0.31700	-1
0.32067	-1
0.32433	1
0.32800	2
0.33167	3
0.33533	2
0.33900	1
0.34267	1
0.34633	2
0.35000	3
0.35367	0
0.35733	-1
0.36100	-0
0.36467	2
0.36833	2
0.37200	2
0.37567	0
0.37933	1
0.38300	1
0.38667	1
0.39033	0
0.39400	-0
0.39767	-1
0.40133	-1
0.40500	0
0.40867	2
0.41233	3
0.41600	3
0.41967	2
0.42333	1
0.42700	2
0.43067	5
0.43433	5
0.43800	5
0.44167	6
0.44533	6
0.44900	5
0.45267	5
0.45633	5
0.46000	6
0.46367	6
0.46733	6
0.47100	4
0.47467	2
0.47833	-0
0.48200	-1
0.48567	0
0.48933	2
0.49300	3
0.49667	3
0.50033	2
0.50400	2
0.50767	2
0.51133	3
0.51500	1
0.51867	1
0.52233	0
0.52600	-0
0.52967	1
0.53333	1
0.53700	0
0.54067	-1
0.54433	-2
0.54800	-2
0.55167	-1
0.55533	-0
0.55900	1
0.56267	-0
0.56633	-0
0.57000	-1
0.57367	1
0.57733	2
0.58100	1
0.58467	-1
0.58833	-1
0.59200	-2
0.59567	-3
0.59933	-3
0.60300	-2
0.60667	-2
0.61033	-2
0.61400	0
0.61767	2
0.62133	3
0.62500	3
0.62867	2
0.63233	1
0.63600	1
0.63967	0
0.64333	-1
0.64700	-1
0.65067	-3
0.65433	-3
0.65800	0
0.66167	3
0.66533	3
0.66900	0
0.67267	-1
0.67633	1
0.68000	3
0.68367	3
0.68733	3
0.69100	5
0.69467	5
0.69833	2
0.70200	-1
0.70567	-3
0.70933	-1
0.71300	1
0.71667	3
0.72033	6
0.72400	9
0.72767	6
0.73133	5
0.73500	3
0.73867	2
0.74233	1
0.74600	1
0.74967	2
0.75333	3
0.75700	4
0.76067	5
0.76433	4
0.76800	4
0.77167	3
0.77533	4
0.77900	4
0.78267	5
0.78633	7
0.79000	6
0.79367	5
0.79733	5
0.80100	6
0.80467	6
0.80833	6
0.81200	6
0.81567	6
0.81933	6
0.82300	6
0.82667	5
0.83033	5
0.83400	6
0.83767	6
0.84133	8
0.84500	8
0.84867	8
0.85233	8
0.85600	9
0.85967	9
0.86333	9
0.86700	7
0.87067	5
0.87433	4
0.87800	3
0.88167	4
0.88533	5
0.88900	3
0.89267	2
0.89633	0
0.90000	1
0.90367	0
0.90733	3
0.91100	5
0.91467	4
0.91833	1
0.92200	0
0.92567	0
0.92933	1
0.93300	1
0.93667	2
0.94033	3
0.94400	5
0.94767	6
0.95133	6
0.95500	6
0.95867	5
0.96233	6
0.96600	6
0.96967	6
0.97333	6
0.97700	7
0.98067	7
0.98433	6
0.98800	8
0.99167	9
0.99533	9
0.99900	9
1.00267	12
1.00633	13
1.01000	11
1.01367	10
1.01733	8
1.02100	8
1.02467	8
1.02833	8
1.03200	6
1.03567	6
1.03933	7
1.04300	10
1.04667	10
1.05033	11
1.05400	12
1.05767	14
1.06133	14
1.06500	11
1.06867	12
1.07233	12
1.07600	13
1.07967	14
1.08333	15
1.08700	15
1.09067	15
1.09433	13
1.09800	12
1.10167	13
1.10533	14
1.10900	15
1.11267	16
1.11633	14
1.12000	13
1.12367	11
1.12733	10
1.13100	10
1.13467	12
1.13833	13
1.14200	14
1.14567	16
1.14933	17
1.15300	17
1.15667	15
1.16033	12
1.16400	11
1.16767	11
1.17133	12
1.17500	13
1.17867	14
1.18233	15
1.18600	14
1.18967	14
1.19333	14
1.19700	14
1.20067	14
1.20433	14
1.20800	13
1.21167	13
1.21533	12
1.21900	12
1.22267	12
1.22633	11
1.23000	13
1.23367	14
1.23733	14
1.24100	14
1.24467	13
1.24833	14
1.25200	14
1.25567	15
1.25933	16
1.26300	16
1.26667	17
1.27033	19
1.27400	19
1.27767	17
1.28133	16
1.28500	14
1.28867	13
1.29233	13
1.29600	13
1.29967	12
1.30333	12
1.30700	12
1.31067	11
1.31433	11
1.31800	11
1.32167	12
1.32533	12
1.32900	12
1.33267	11
1.33633	11
1.34000	12
1.34367	12
1.34733	12
1.35100	12
1.35467	14
1.35833	15
1.36200	16
1.36567	18
1.36933	19
1.37300	19
1.37667	19
1.38033	19
1.38400	19
1.38767	20
1.39133	19
1.39500	20
1.39867	20
1.40233	20
1.40600	19
1.40967	19
1.41333	19
1.41700	20
1.42067	22
1.42433	22
1.42800	21
1.43167	20
1.43533	19
1.43900	19
1.44267	20
1.44633	23
1.45000	21
1.45367	19
1.45733	19
1.46100	20
1.46467	21
1.46833	22
1.47200	24
1.47567	23
1.47933	23
1.48300	23
1.48667	22
1.49033	22
1.49400	22
1.49767	22
1.50133	21
1.50500	20
1.50867	21
1.51233	20
1.51600	21
1.51967	22
1.52333	21
1.52700	23
1.53067	25
1.53433	26
1.53800	26
1.54167	26
1.54533	25
1.54900	23
1.55267	23
1.55633	24
1.56000	24
1.56367	23
1.56733	22
1.57100	21
1.57467	21
1.57833	21
1.58200	21
1.58567	22
1.58933	24
1.59300	26
1.59667	25
1.60033	24
1.60400	23
1.60767	22
1.61133	22
1.61500	22
1.61867	25
1.62233	27
1.62600	28
1.62967	29
1.63333	30
1.63700	29
1.64067	30
1.64433	28
1.64800	28
1.65167	27
1.65533	26
1.65900	26
1.66267	28
1.66633	31
1.67000	34
1.67367	36
1.67733	36
1.68100	36
1.68467	36
1.68833	36
1.69200	36
1.69567	36
1.69933	38
1.70300	38
1.70667	37
1.71033	37
1.71400	38
1.71767	41
1.72133	43
1.72500	44
1.72867	45
1.73233	45
1.73600	43
1.73967	41
1.74333	39
1.74700	40
1.75067	45
1.75433	47
1.75800	50
1.76167	52
1.76533	56
1.76900	57
1.77267	56
1.77633	54
1.78000	53
1.78367	52
1.78733	51
1.79100	53
1.79467	54
1.79833	54
1.80200	54
1.80567	54
1.80933	56
1.81300	56
1.81667	55
1.82033	55
1.82400	53
1.82767	51
1.83133	50
1.83500	51
1.83867	54
1.84233	57
1.84600	56
1.84967	55
1.85333	55
1.85700	56
1.86067	57
1.86433	58
1.86800	61
1.87167	64
1.87533	65
1.87900	66
1.88267	65
1.88633	65
1.89000	66
1.89367	66
1.89733	67
1.90100	67
1.90467	68
1.90833	70
1.91200	72
1.91567	73
1.91933	74
1.92300	74
1.92667	75
1.93033	77
1.93400	77
1.93767	76
1.94133	78
1.94500	79
1.94867	80
1.95233	80
1.95600	78
1.95967	78
1.96333	80
1.96700	82
1.97067	83
1.97433	82
1.97800	81
1.98167	81
1.98533	84
1.98900	87
1.99267	88
1.99633	91
2.00000	93
2.00367	94
2.00733	93
2.01100	93
2.01467	94
2.01833	94
2.02200	94
2.02567	97
2.02933	101
2.03300	102
2.03667	101
2.04033	103
2.04400	106
2.04767	109
2.05133	110
2.05500	110
2.05867	111
2.06233	111
2.06600	112
2.06967	114
2.07333	115
2.07700	116
2.08067	119
2.08433	120
2.08800	120
2.09167	121
2.09533	121
2.09900	124
2.10267	124
2.10633	124
2.11000	125
2.11367	128
2.11733	130
2.12100	132
2.12467	134
2.12833	136
2.13200	139
2.13567	142
2.13933	142
2.14300	141
2.14667	143
2.15033	144
2.15400	145
2.15767	146
2.16133	146
2.16500	148
2.16867	151
2.17233	153
2.17600	153
2.17967	154
2.18333	156
2.18700	158
2.19067	158
2.19433	158
2.19800	161
2.20167	166
2.20533	168
2.20900	169
2.21267	171
2.21633	171
2.22000	172
2.22367	176
2.22733	178
2.23100	179
2.23467	180
2.23833	180
2.24200	179
2.24567	178
2.24933	179
2.25300	181
2.25667	185
2.26033	189
2.26400	191
2.26767	192
2.27133	194
2.27500	194
2.27867	192
2.28233	191
2.28600	192
2.28967	193
2.29333	195
2.29700	200
2.30067	203
2.30433	204
2.30800	205
2.31167	206
2.31533	207
2.31900	207
2.32267	207
2.32633	206
2.33000	205
2.33367	207
2.33733	209
2.34100	212
2.34467	215
2.34833	219
2.35200	222
2.35567	224
2.35933	226
2.36300	228
2.36667	230
2.37033	230
2.37400	231
2.37767	232
2.38133	231
2.38500	229
2.38867	227
2.39233	229
2.39600	232
2.39967	233
2.40333	234
2.40700	235
2.41067	236
2.41433	238
2.41800	240
2.42167	242
2.42533	243
2.42900	243
2.43267	243
2.43633	244
2.44000	250
2.44367	302
2.44733	440
2.45100	590
2.45467	715
2.45833	788
2.46200	795
2.46567	765
2.46933	727
2.47300	699
2.47667	682
2.48033	665
2.48400	635
2.48767	595
2.49133	548
2.49500	503
2.49867	467
2.50233	442
2.50600	426
2.50967	420
2.51333	426
2.51700	443
2.52067	464
2.52433	481
2.52800	492
2.53167	493
2.53533	479
2.53900	454
2.54267	424
2.54633	395
2.55000	369
2.55367	344
2.55733	323
2.56100	308
2.56467	297
2.56833	289
2.57200	284
2.57567	279
2.57933	276
2.58300	276
2.58667	277
2.59033	279
2.59400	280
2.59767	281
2.60133	281
2.60500	278
2.60867	271
2.61233	261
2.61600	249
2.61967	236
2.62333	224
2.62700	215
2.63067	206
2.63433	198
2.63800	189
2.64167	180
2.64533	170
2.64900	160
2.65267	150
2.65633	140
2.66000	132
2.66367	124
2.66733	117
2.67100	108
2.67467	102
2.67833	96
2.68200	93
2.68567	91
2.68933	93
2.69300	92
2.69667	92
2.70033	94
2.70400	96
2.70767	100
2.71133	104
2.71500	108
2.71867	110
2.72233	116
2.72600	121
2.72967	125
2.73333	129
2.73700	133
2.74067	138
2.74433	144
2.74800	147
2.75167	148
2.75533	150
2.75900	152
2.76267	156
2.76633	162
2.77000	167
2.77367	171
2.77733	173
2.78100	176
2.78467	178
2.78833	179
2.79200	182
2.79567	188
2.79933	193
2.80300	200
2.80667	207
2.81033	212
2.81400	218
2.81767	224
2.82133	235
2.82500	253
2.82867	286
2.83233	347
2.83600	457
2.83967	634
2.84333	902
2.84700	1269
2.85067	1729
2.85433	2264
2.85800	2837
2.86167	3408
2.86533	3928
2.86900	4356
2.87267	4660
2.87633	4822
2.88000	4846
2.88367	4747
2.88733	4550
2.89100	4284
2.89467	3976
2.89833	3641
2.90200	3304
2.90567	2978
2.90933	2667
2.91300	2380
2.91667	2119
2.92033	1885
2.92400	1672
2.92767	1484
2.93133	1321
2.93500	1175
2.93867	1047
2.94233	935
2.94600	837
2.94967	752
2.95333	678
2.95700	614
2.96067	557
2.96433	509
2.96800	469
2.97167	434
2.97533	404
2.97900	377
2.98267	352
2.98633	330
2.99000	313
2.99367	300
2.99733	287
3.00100	276
3.00467	265
3.00833	256
3.01200	249
3.01567	242
3.01933	237
3.02300	234
3.02667	230
3.03033	227
3.03400	224
3.03767	223
3.04133	222
3.04500	220
3.04867	217
3.05233	214
3.05600	214
3.05967	214
3.06333	213
3.06700	211
3.07067	209
3.07433	208
3.07800	207
3.08167	208
3.08533	207
3.08900	206
3.09267	205
3.09633	207
3.10000	208
3.10367	206
3.10733	207
3.11100	208
3.11467	209
3.11833	212
3.12200	214
3.12567	214
3.12933	214
3.13300	214
3.13667	213
3.14033	213
3.14400	216
3.14767	218
3.15133	218
3.15500	219
3.15867	212
3.16233	190
3.16600	156
3.16967	132
3.17333	124
3.17700	131
3.18067	153
3.18433	191
3.18800	236
3.19167	287
3.19533	345
3.19900	405
3.20267	463
3.20633	515
3.21000	562
3.21367	602
3.21733	637
3.22100	666
3.22467	691
3.22833	715
3.23200	736
3.23567	755
3.23933	772
3.24300	785
3.24667	794
3.25033	804
3.25400	815
3.25767	823
3.26133	831
3.26500	837
3.26867	844
3.27233	850
3.27600	855
3.27967	861
3.28333	868
3.28700	874
3.29067	880
3.29433	887
3.29800	895
3.30167	904
3.30533	911
3.30900	915
3.31267	920
3.31633	927
3.32000	933
3.32367	938
3.32733	943
3.33100	949
3.33467	953
3.33833	956
3.34200	960
3.34567	965
3.34933	967
3.35300	969
3.35667	971
3.36033	973
3.36400	976
3.36767	979
3.37133	980
3.37500	982
3.37867	983
3.38233	983
3.38600	983
3.38967	981
3.39333	981
3.39700	981
3.40067	983
3.40433	984
3.40800	984
3.41167	980
3.41533	977
3.41900	975
3.42267	975
3.42633	972
3.43000	967
3.43367	962
3.43733	959
3.44100	957
3.44467	954
3.44833	952
3.45200	947
3.45567	941
3.45933	937
3.46300	931
3.46667	925
3.47033	921
3.47400	920
3.47767	920
3.48133	919
3.48500	918
3.48867	915
3.49233	913
3.49600	909
3.49967	906
3.50333	902
3.50700	899
3.51067	897
3.51433	893
3.51800	890
3.52167	888
3.52533	887
3.52900	886
3.53267	885
3.53633	885
3.54000	884
3.54367	881
3.54733	881
3.55100	881
3.55467	880
3.55833	883
3.56200	884
3.56567	882
3.56933	881
3.57300	879
3.57667	877
3.58033	875
3.58400	874
3.58767	876
3.59133	876
3.59500	875
3.59867	874
3.60233	872
3.60600	870
3.60967	869
3.61333	867
3.61700	865
3.62067	862
3.62433	859
3.62800	858
3.63167	856
3.63533	856
3.63900	854
3.64267	854
3.64633	855
3.65000	854
3.65367	852
3.65733	851
3.66100	850
3.66467	848
3.66833	844
3.67200	840
3.67567	836
3.67933	832
3.68300	829
3.68667	825
3.69033	823
3.69400	823
3.69767	823
3.70133	821
3.70500	821
3.70867	819
3.71233	816
3.71600	814
3.71967	813
3.72333	810
3.72700	807
3.73067	806
3.73433	802
3.73800	798
3.74167	795
3.74533	794
3.74900	795
3.75267	794
3.75633	791
3.76000	788
3.76367	785
3.76733	782
3.77100	780
3.77467	778
3.77833	778
3.78200	778
3.78567	776
3.78933	772
3.79300	770
3.79667	770
3.80033	769
3.80400	768
3.80767	764
3.81133	761
3.81500	758
3.81867	755
3.82233	752
3.82600	750
3.82967	748
3.83333	746
3.83700	744
3.84067	742
3.84433	740
3.84800	735
3.85167	732
3.85533	731
3.85900	730
3.86267	727
3.86633	725
3.87000	724
3.87367	722
3.87733	720
3.88100	720
3.88467	719
3.88833	718
3.89200	716
3.89567	712
3.89933	707
3.90300	701
3.90667	698
3.91033	700
3.91400	698
3.91767	695
3.92133	693
3.92500	690
3.92867	690
3.93233	688
3.93600	686
3.93967	684
3.94333	683
3.94700	683
3.95067	681
3.95433	679
3.95800	679
3.96167	679
3.96533	679
3.96900	678
3.97267	675
3.97633	674
3.98000	671
3.98367	669
3.98733	667
3.99100	663
3.99467	660
3.99833	656

[Status Trace (Column Oven Temperature)]
Interval(msec)	1000
# of Points	239
Start Time(min)	0.015
End Time(min)	3.981
Intensity Units	
Intensity Multiplier	1
R.Time (min)	Intensity
0.01463	35.03
0.03130	35.04
0.04797	35.04
0.06463	35.05
0.08130	35.03
0.09797	35.04
0.11463	35.03
0.13130	35.03
0.14797	35.04
0.16463	35.04
0.18130	35.03
0.19797	35.02
0.21463	35.03
0.23130	35.04
0.24797	35.04
0.26463	35.04
0.28130	35.04
0.29797	35.04
0.31463	35.04
0.33130	35.05
0.34797	35.04
0.36463	35.04
0.38130	35.04
0.39797	35.04
0.41463	35.03
0.43130	35.03
0.44797	35.03
0.46463	35.02
0.48130	35.02
0.49797	35.02
0.51463	35.02
0.53130	35.02
0.54797	35.02
0.56463	35.01
0.58130	35.00
0.59797	35.00
0.61463	34.99
0.63130	35.00
0.64797	35.00
0.66463	35.01
0.68130	35.01
0.69797	35.00
0.71463	35.00
0.73130	34.98
0.74797	34.96
0.76463	34.95
0.78130	34.94
0.79797	34.94
0.81463	34.95
0.83130	34.96
0.84797	34.97
0.86463	34.98
0.88130	34.99
0.89797	35.00
0.91463	35.01
0.93130	34.99
0.94797	35.00
0.96463	35.00
0.98130	34.99
0.99797	34.99
1.01463	34.99
1.03130	34.99
1.04797	34.98
1.06463	34.97
1.08130	34.96
1.09797	34.97
1.11463	34.97
1.13130	34.97
1.14797	34.97
1.16463	34.97
1.18130	34.96
1.19797	34.96
1.21463	34.97
1.23130	34.97
1.24797	34.96
1.26463	34.96
1.28130	34.95
1.29797	34.96
1.31463	34.97
1.33130	34.97
1.34797	34.98
1.36463	34.99
1.38130	35.00
1.39797	35.00
1.41463	35.02
1.43130	35.02
1.44797	35.01
1.46463	34.99
1.48130	34.99
1.49797	34.99
1.51463	35.01
1.53130	35.02
1.54797	35.02
1.56463	35.01
1.58130	35.01
1.59797	35.03
1.61463	35.12
1.63130	35.27
1.64797	35.48
1.66463	35.75
1.68130	36.12
1.69797	36.49
1.71463	36.83
1.73130	37.15
1.74797	37.47
1.76463	37.82
1.78130	38.14
1.79797	38.48
1.81463	38.81
1.83130	39.16
1.84797	39.47
1.86463	39.78
1.88130	40.12
1.89797	40.44
1.91463	40.78
1.93130	41.10
1.94797	41.45
1.96463	41.78
1.98130	42.11
1.99797	42.41
2.01463	42.73
2.03130	43.06
2.04797	43.39
2.06463	43.73
2.08130	44.06
2.09797	44.38
2.11463	44.71
2.13130	45.04
2.14797	45.36
2.16463	45.69
2.18130	46.02
2.19797	46.35
2.21463	46.67
2.23130	47.01
2.24797	47.34
2.26463	47.66
2.28130	47.98
2.29797	48.32
2.31463	48.63
2.33130	48.99
2.34797	49.28
2.36463	49.51
2.38130	49.62
2.39797	49.64
2.41463	49.65
2.43130	49.67
2.44797	49.68
2.46463	49.70
2.48130	49.72
2.49797	49.72
2.51463	49.77
2.53130	49.78
2.54797	49.80
2.56463	49.80
2.58130	49.82
2.59797	49.82
2.61463	49.83
2.63130	49.83
2.64797	49.84
2.66463	49.86
2.68130	49.85
2.69797	49.84
2.71463	49.87
2.73130	49.89
2.74797	49.89
2.76463	49.88
2.78130	49.88
2.79797	49.88
2.81463	49.88
2.83130	49.88
2.84797	49.89
2.86463	49.91
2.88130	49.93
2.89797	49.95
2.91463	49.97
2.93130	49.98
2.94797	49.99
2.96463	50.00
2.98130	50.00
2.99797	50.01
3.01463	50.02
3.03130	50.03
3.04797	50.04
3.06463	50.05
3.08130	50.05
3.09797	50.05
3.11463	50.05
3.13130	50.05
3.14797	50.06
3.16463	50.08
3.18130	50.08
3.19797	50.11
3.21463	50.10
3.23130	50.09
3.24797	50.10
3.26463	50.09
3.28130	50.10
3.29797	50.10
3.31463	50.10
3.33130	50.09
3.34797	50.08
3.36463	50.06
3.38130	50.05
3.39797	50.04
3.41463	50.03
3.43130	50.02
3.44797	50.01
3.46463	50.01
3.48130	50.02
3.49797	50.03
3.51463	50.03
3.53130	50.03
3.54797	50.03
3.56463	50.04
3.58130	50.05
3.59797	50.05
3.61463	50.05
3.63130	50.04
3.64797	50.06
3.66463	50.06
3.68130	50.06
3.69797	50.06
3.71463	50.07
3.73130	50.06
3.74797	50.05
3.76463	50.06
3.78130	50.07
3.79797	50.07
3.81463	50.07
3.83130	50.07
3.84797	50.07
3.86463	50.08
3.88130	50.08
3.89797	50.08
3.91463	50.07
3.93130	50.08
3.94797	50.08
3.96463	50.08
3.98130	50.08

[Status Trace (Injection Unit Temperature)]
Interval(msec)	1000
# of Points	239
Start Time(min)	0.015
End Time(min)	3.981
Intensity Units	
Intensity Multiplier	1
R.Time (min)	Intensity
0.01463	99.98
0.03130	99.98
0.04797	99.98
0.06463	99.99
0.08130	99.99
0.09797	99.98
0.11463	99.98
0.13130	99.99
0.14797	99.98
0.16463	99.98
0.18130	99.99
0.19797	99.98
0.21463	99.99
0.23130	99.99
0.24797	99.99
0.26463	99.98
0.28130	99.98
0.29797	99.99
0.31463	99.99
0.33130	99.99
0.34797	99.98
0.36463	99.99
0.38130	99.98
0.39797	99.99
0.41463	99.99
0.43130	99.99
0.44797	99.99
0.46463	99.98
0.48130	99.99
0.49797	99.99
0.51463	99.98
0.53130	99.99
0.54797	99.99
0.56463	99.98
0.58130	99.98
0.59797	99.98
0.61463	99.98
0.63130	99.98
0.64797	99.98
0.66463	99.98
0.68130	99.98
0.69797	99.98
0.71463	99.98
0.73130	99.98
0.74797	99.98
0.76463	99.98
0.78130	99.98
0.79797	99.98
0.81463	99.98
0.83130	99.98
0.84797	99.98
0.86463	99.98
0.88130	99.98
0.89797	99.98
0.91463	99.98
0.93130	99.97
0.94797	99.98
0.96463	99.98
0.98130	99.98
0.99797	99.98
1.01463	99.97
1.03130	99.98
1.04797	99.98
1.06463	99.98
1.08130	99.98
1.09797	99.97
1.11463	99.98
1.13130	99.97
1.14797	99.97
1.16463	99.97
1.18130	99.97
1.19797	99.98
1.21463	99.98
1.23130	99.98
1.24797	99.98
1.26463	99.97
1.28130	99.98
1.29797	99.98
1.31463	99.97
1.33130	99.97
1.34797	99.98
1.36463	99.98
1.38130	99.98
1.39797	99.98
1.41463	99.98
1.43130	99.98
1.44797	99.98
1.46463	99.99
1.48130	99.98
1.49797	99.98
1.51463	99.98
1.53130	99.98
1.54797	99.99
1.56463	99.98
1.58130	99.98
1.59797	99.98
1.61463	99.99
1.63130	99.99
1.64797	99.98
1.66463	99.99
1.68130	99.99
1.69797	99.99
1.71463	99.99
1.73130	99.99
1.74797	99.99
1.76463	99.98
1.78130	99.99
1.79797	99.99
1.81463	99.98
1.83130	99.98
1.84797	99.98
1.86463	99.99
1.88130	99.98
1.89797	99.97
1.91463	99.98
1.93130	99.98
1.94797	99.98
1.96463	99.97
1.98130	99.98
1.99797	99.98
2.01463	99.98
2.03130	99.98
2.04797	99.98
2.06463	99.97
2.08130	99.97
2.09797	99.97
2.11463	99.97
2.13130	99.97
2.14797	99.97
2.16463	99.97
2.18130	99.96
2.19797	99.97
2.21463	99.97
2.23130	99.97
2.24797	99.97
2.26463	99.97
2.28130	99.96
2.29797	99.96
2.31463	99.97
2.33130	99.96
2.34797	99.96
2.36463	99.97
2.38130	99.96
2.39797	99.96
2.41463	99.96
2.43130	99.96
2.44797	99.95
2.46463	99.96
2.48130	99.97
2.49797	99.96
2.51463	99.96
2.53130	99.96
2.54797	99.96
2.56463	99.97
2.58130	99.97
2.59797	99.97
2.61463	99.97
2.63130	99.97
2.64797	99.97
2.66463	99.97
2.68130	99.98
2.69797	99.98
2.71463	99.98
2.73130	99.98
2.74797	99.98
2.76463	99.98
2.78130	99.99
2.79797	99.98
2.81463	99.99
2.83130	99.99
2.84797	99.99
2.86463	99.99
2.88130	99.99
2.89797	100.00
2.91463	100.00
2.93130	100.00
2.94797	100.00
2.96463	100.00
2.98130	100.00
2.99797	100.00
3.01463	100.01
3.03130	100.01
3.04797	100.01
3.06463	100.01
3.08130	100.01
3.09797	100.01
3.11463	100.02
3.13130	100.01
3.14797	100.01
3.16463	100.02
3.18130	100.01
3.19797	100.02
3.21463	100.02
3.23130	100.02
3.24797	100.02
3.26463	100.03
3.28130	100.02
3.29797	100.03
3.31463	100.02
3.33130	100.03
3.34797	100.03
3.36463	100.03
3.38130	100.04
3.39797	100.03
3.41463	100.03
3.43130	100.03
3.44797	100.03
3.46463	100.03
3.48130	100.04
3.49797	100.04
3.51463	100.04
3.53130	100.04
3.54797	100.04
3.56463	100.05
3.58130	100.04
3.59797	100.04
3.61463	100.04
3.63130	100.04
3.64797	100.05
3.66463	100.05
3.68130	100.05
3.69797	100.04
3.71463	100.05
3.73130	100.05
3.74797	100.04
3.76463	100.05
3.78130	100.04
3.79797	100.05
3.81463	100.05
3.83130	100.05
3.84797	100.05
3.86463	100.05
3.88130	100.05
3.89797	100.05
3.91463	100.05
3.93130	100.04
3.94797	100.05
3.96463	100.05
3.98130	100.05

[Status Trace (Carrier Gas Pressure)]
Interval(msec)	1000
# of Points	239
Start Time(min)	0.015
End Time(min)	3.981
Intensity Units	
Intensity Multiplier	1
R.Time (min)	Intensity
0.01463	57.29
0.03130	55.67
0.04797	57.98
0.06463	59.86
0.08130	58.59
0.09797	57.98
0.11463	58.00
0.13130	58.01
0.14797	58.01
0.16463	58.00
0.18130	58.00
0.19797	58.00
0.21463	58.00
0.23130	58.00
0.24797	58.00
0.26463	58.00
0.28130	58.00
0.29797	58.00
0.31463	58.00
0.33130	58.00
0.34797	58.00
0.36463	58.00
0.38130	58.00
0.39797	58.00
0.41463	58.00
0.43130	58.00
0.44797	58.00
0.46463	58.00
0.48130	58.00
0.49797	58.00
0.51463	58.00
0.53130	58.00
0.54797	58.00
0.56463	58.00
0.58130	58.00
0.59797	58.00
0.61463	58.00
0.63130	58.00
0.64797	58.00
0.66463	58.00
0.68130	58.00
0.69797	58.00
0.71463	58.00
0.73130	58.00
0.74797	58.00
0.76463	58.00
0.78130	58.00
0.79797	58.00
0.81463	58.00
0.83130	58.00
0.84797	58.00
0.86463	58.00
0.88130	58.00
0.89797	58.00
0.91463	58.00
0.93130	58.00
0.94797	58.00
0.96463	58.00
0.98130	58.00
0.99797	58.00
1.01463	58.00
1.03130	58.00
1.04797	58.00
1.06463	58.00
1.08130	58.00
1.09797	58.00
1.11463	58.00
1.13130	58.00
1.14797	58.00
1.16463	58.00
1.18130	58.00
1.19797	58.00
1.21463	58.00
1.23130	58.00
1.24797	58.00
1.26463	58.00
1.28130	58.00
1.29797	58.00
1.31463	58.00
1.33130	58.00
1.34797	58.00
1.36463	58.00
1.38130	58.00
1.39797	58.00
1.41463	58.00
1.43130	58.00
1.44797	58.00
1.46463	58.00
1.48130	58.00
1.49797	58.00
1.51463	58.00
1.53130	58.00
1.54797	58.00
1.56463	58.00
1.58130	58.00
1.59797	58.00
1.61463	58.00
1.63130	58.00
1.64797	58.00
1.66463	58.00
1.68130	58.01
1.69797	58.00
1.71463	58.00
1.73130	58.00
1.74797	58.00
1.76463	58.00
1.78130	58.00
1.79797	58.00
1.81463	58.00
1.83130	58.00
1.84797	58.00
1.86463	58.00
1.88130	58.00
1.89797	58.00
1.91463	58.00
1.93130	58.00
1.94797	58.00
1.96463	58.00
1.98130	58.00
1.99797	58.00
2.01463	58.00
2.03130	58.00
2.04797	58.00
2.06463	58.00
2.08130	58.00
2.09797	58.00
2.11463	58.00
2.13130	58.00
2.14797	58.00
2.16463	58.00
2.18130	58.00
2.19797	58.00
2.21463	58.00
2.23130	58.00
2.24797	58.00
2.26463	58.00
2.28130	58.00
2.29797	58.00
2.31463	58.00
2.33130	58.00
2.34797	58.00
2.36463	58.00
2.38130	57.99
2.39797	57.99
2.41463	58.00
2.43130	58.00
2.44797	58.00
2.46463	58.00
2.48130	58.00
2.49797	58.00
2.51463	57.99
2.53130	57.99
2.54797	58.00
2.56463	58.00
2.58130	58.00
2.59797	58.00
2.61463	58.00
2.63130	58.00
2.64797	58.00
2.66463	58.00
2.68130	58.00
2.69797	58.00
2.71463	58.00
2.73130	58.00
2.74797	58.00
2.76463	58.00
2.78130	58.00
2.79797	58.00
2.81463	58.00
2.83130	58.00
2.84797	58.00
2.86463	58.00
2.88130	58.00
2.89797	58.00
2.91463	58.00
2.93130	58.00
2.94797	58.00
2.96463	58.00
2.98130	58.00
2.99797	58.00
3.01463	58.00
3.03130	58.00
3.04797	58.00
3.06463	58.00
3.08130	58.00
3.09797	58.00
3.11463	58.00
3.13130	58.00
3.14797	58.00
3.16463	58.00
3.18130	58.00
3.19797	58.00
3.21463	58.00
3.23130	58.00
3.24797	58.00
3.26463	58.00
3.28130	58.00
3.29797	58.00
3.31463	58.00
3.33130	58.00
3.34797	58.00
3.36463	58.00
3.38130	58.00
3.39797	58.00
3.41463	58.00
3.43130	58.00
3.44797	58.00
3.46463	58.00
3.48130	58.00
3.49797	58.00
3.51463	58.00
3.53130	58.00
3.54797	58.00
3.56463	58.00
3.58130	58.00
3.59797	58.00
3.61463	58.00
3.63130	58.00
3.64797	58.00
3.66463	58.00
3.68130	58.00
3.69797	58.00
3.71463	58.00
3.73130	58.00
3.74797	58.00
3.76463	58.00
3.78130	58.00
3.79797	58.00
3.81463	58.00
3.83130	58.00
3.84797	58.00
3.86463	58.00
3.88130	58.00
3.89797	58.00
3.91463	58.00
3.93130	58.00
3.94797	58.00
3.96463	58.00
3.98130	58.00

[Status Trace (Carrier Gas Flow)]
Interval(msec)	1000
# of Points	239
Start Time(min)	0.015
End Time(min)	3.981
Intensity Units	
Intensity Multiplier	1
R.Time (min)	Intensity
0.01463	33.93
0.03130	34.54
0.04797	34.54
0.06463	34.51
0.08130	34.51
0.09797	34.52
0.11463	34.52
0.13130	34.52
0.14797	34.51
0.16463	34.52
0.18130	34.52
0.19797	34.51
0.21463	34.52
0.23130	34.52
0.24797	34.52
0.26463	34.52
0.28130	34.51
0.29797	34.52
0.31463	34.52
0.33130	34.52
0.34797	34.52
0.36463	34.52
0.38130	34.52
0.39797	34.52
0.41463	34.52
0.43130	34.52
0.44797	34.52
0.46463	34.52
0.48130	34.52
0.49797	34.52
0.51463	34.52
0.53130	34.52
0.54797	34.52
0.56463	34.52
0.58130	34.52
0.59797	34.52
0.61463	34.52
0.63130	34.52
0.64797	34.52
0.66463	34.52
0.68130	34.53
0.69797	34.52
0.71463	34.52
0.73130	34.52
0.74797	34.52
0.76463	34.52
0.78130	34.51
0.79797	34.51
0.81463	34.51
0.83130	34.53
0.84797	34.51
0.86463	34.51
0.88130	34.52
0.89797	34.51
0.91463	34.51
0.93130	34.51
0.94797	34.52
0.96463	34.52
0.98130	34.52
0.99797	34.52
1.01463	34.52
1.03130	34.52
1.04797	34.52
1.06463	34.52
1.08130	34.52
1.09797	34.52
1.11463	34.52
1.13130	34.52
1.14797	34.52
1.16463	34.52
1.18130	34.52
1.19797	34.52
1.21463	34.52
1.23130	34.52
1.24797	34.52
1.26463	34.52
1.28130	34.52
1.29797	34.52
1.31463	34.52
1.33130	34.52
1.34797	34.52
1.36463	34.52
1.38130	34.52
1.39797	34.52
1.41463	34.52
1.43130	34.52
1.44797	34.52
1.46463	34.52
1.48130	34.52
1.49797	34.52
1.51463	34.52
1.53130	34.52
1.54797	34.51
1.56463	34.52
1.58130	34.52
1.59797	34.52
1.61463	34.52
1.63130	34.52
1.64797	34.52
1.66463	34.52
1.68130	34.52
1.69797	34.52
1.71463	34.52
1.73130	34.52
1.74797	34.52
1.76463	34.51
1.78130	34.52
1.79797	34.52
1.81463	34.51
1.83130	34.52
1.84797	34.52
1.86463	34.52
1.88130	34.52
1.89797	34.52
1.91463	34.53
1.93130	34.53
1.94797	34.52
1.96463	34.52
1.98130	34.52
1.99797	34.52
2.01463	34.52
2.03130	34.52
2.04797	34.52
2.06463	34.51
2.08130	34.51
2.09797	34.52
2.11463	34.52
2.13130	34.52
2.14797	34.52
2.16463	34.51
2.18130	34.52
2.19797	34.52
2.21463	34.52
2.23130	34.52
2.24797	34.52
2.26463	34.52
2.28130	34.52
2.29797	34.52
2.31463	34.52
2.33130	34.52
2.34797	34.52
2.36463	34.51
2.38130	34.52
2.39797	34.52
2.41463	34.52
2.43130	34.51
2.44797	34.52
2.46463	34.52
2.48130	34.52
2.49797	34.52
2.51463	34.51
2.53130	34.52
2.54797	34.52
2.56463	34.52
2.58130	34.52
2.59797	34.52
2.61463	34.52
2.63130	34.52
2.64797	34.52
2.66463	34.52
2.68130	34.52
2.69797	34.52
2.71463	34.52
2.73130	34.52
2.74797	34.52
2.76463	34.52
2.78130	34.52
2.79797	34.51
2.81463	34.52
2.83130	34.52
2.84797	34.52
2.86463	34.52
2.88130	34.52
2.89797	34.52
2.91463	34.52
2.93130	34.52
2.94797	34.52
2.96463	34.52
2.98130	34.52
2.99797	34.52
3.01463	34.52
3.03130	34.52
3.04797	34.51
3.06463	34.52
3.08130	34.51
3.09797	34.52
3.11463	34.52
3.13130	34.52
3.14797	34.52
3.16463	34.52
3.18130	34.52
3.19797	34.52
3.21463	34.52
3.23130	34.51
3.24797	34.52
3.26463	34.53
3.28130	34.52
3.29797	34.52
3.31463	34.52
3.33130	34.52
3.34797	34.52
3.36463	34.52
3.38130	34.51
3.39797	34.52
3.41463	34.52
3.43130	34.52
3.44797	34.52
3.46463	34.52
3.48130	34.52
3.49797	34.52
3.51463	34.51
3.53130	34.52
3.54797	34.52
3.56463	34.51
3.58130	34.52
3.59797	34.52
3.61463	34.52
3.63130	34.52
3.64797	34.52
3.66463	34.52
3.68130	34.52
3.69797	34.52
3.71463	34.52
3.73130	34.53
3.74797	34.51
3.76463	34.52
3.78130	34.52
3.79797	34.52
3.81463	34.52
3.83130	34.51
3.84797	34.52
3.86463	34.52
3.88130	34.52
3.89797	34.52
3.91463	34.52
3.93130	34.52
3.94797	34.53
3.96463	34.52
3.98130	34.52

[Status Trace (Column Flow)]
Interval(msec)	1000
# of Points	239
Start Time(min)	0.015
End Time(min)	3.981
Intensity Units	
Intensity Multiplier	1
R.Time (min)	Intensity
0.01463	5.45
0.03130	5.26
0.04797	5.53
0.06463	5.75
0.08130	5.60
0.09797	5.53
0.11463	5.53
0.13130	5.54
0.14797	5.53
0.16463	5.53
0.18130	5.53
0.19797	5.53
0.21463	5.53
0.23130	5.53
0.24797	5.53
0.26463	5.53
0.28130	5.53
0.29797	5.53
0.31463	5.53
0.33130	5.53
0.34797	5.53
0.36463	5.53
0.38130	5.53
0.39797	5.53
0.41463	5.53
0.43130	5.53
0.44797	5.53
0.46463	5.53
0.48130	5.53
0.49797	5.53
0.51463	5.53
0.53130	5.53
0.54797	5.53
0.56463	5.53
0.58130	5.53
0.59797	5.53
0.61463	5.54
0.63130	5.53
0.64797	5.53
0.66463	5.53
0.68130	5.53
0.69797	5.53
0.71463	5.54
0.73130	5.54
0.74797	5.54
0.76463	5.54
0.78130	5.54
0.79797	5.54
0.81463	5.54
0.83130	5.54
0.84797	5.54
0.86463	5.54
0.88130	5.54
0.89797	5.54
0.91463	5.53
0.93130	5.54
0.94797	5.54
0.96463	5.54
0.98130	5.54
0.99797	5.54
1.01463	5.54
1.03130	5.54
1.04797	5.54
1.06463	5.54
1.08130	5.54
1.09797	5.54
1.11463	5.54
1.13130	5.54
1.14797	5.54
1.16463	5.54
1.18130	5.54
1.19797	5.54
1.21463	5.54
1.23130	5.54
1.24797	5.54
1.26463	5.54
1.28130	5.54
1.29797	5.54
1.31463	5.54
1.33130	5.54
1.34797	5.54
1.36463	5.54
1.38130	5.53
1.39797	5.53
1.41463	5.53
1.43130	5.53
1.44797	5.53
1.46463	5.54
1.48130	5.54
1.49797	5.54
1.51463	5.53
1.53130	5.53
1.54797	5.53
1.56463	5.53
1.58130	5.53
1.59797	5.53
1.61463	5.53
1.63130	5.53
1.64797	5.52
1.66463	5.51
1.68130	5.50
1.69797	5.49
1.71463	5.48
1.73130	5.47
1.74797	5.46
1.76463	5.45
1.78130	5.44
1.79797	5.43
1.81463	5.42
1.83130	5.41
1.84797	5.40
1.86463	5.39
1.88130	5.38
1.89797	5.37
1.91463	5.36
1.93130	5.35
1.94797	5.34
1.96463	5.33
1.98130	5.32
1.99797	5.31
2.01463	5.30
2.03130	5.29
2.04797	5.28
2.06463	5.27
2.08130	5.26
2.09797	5.25
2.11463	5.24
2.13130	5.23
2.14797	5.22
2.16463	5.21
2.18130	5.20
2.19797	5.19
2.21463	5.18
2.23130	5.17
2.24797	5.17
2.26463	5.16
2.28130	5.15
2.29797	5.14
2.31463	5.13
2.33130	5.12
2.34797	5.11
2.36463	5.10
2.38130	5.10
2.39797	5.10
2.41463	5.10
2.43130	5.10
2.44797	5.10
2.46463	5.10
2.48130	5.10
2.49797	5.10
2.51463	5.10
2.53130	5.10
2.54797	5.10
2.56463	5.10
2.58130	5.10
2.59797	5.10
2.61463	5.10
2.63130	5.10
2.64797	5.10
2.66463	5.09
2.68130	5.09
2.69797	5.10
2.71463	5.09
2.73130	5.09
2.74797	5.09
2.76463	5.09
2.78130	5.09
2.79797	5.09
2.81463	5.09
2.83130	5.09
2.84797	5.09
2.86463	5.09
2.88130	5.09
2.89797	5.09
2.91463	5.09
2.93130	5.09
2.94797	5.09
2.96463	5.09
2.98130	5.09
2.99797	5.09
3.01463	5.09
3.03130	5.09
3.04797	5.09
3.06463	5.09
3.08130	5.09
3.09797	5.09
3.11463	5.09
3.13130	5.09
3.14797	5.09
3.16463	5.09
3.18130	5.09
3.19797	5.09
3.21463	5.09
3.23130	5.09
3.24797	5.09
3.26463	5.09
3.28130	5.09
3.29797	5.09
3.31463	5.09
3.33130	5.09
3.34797	5.09
3.36463	5.09
3.38130	5.09
3.39797	5.09
3.41463	5.09
3.43130	5.09
3.44797	5.09
3.46463	5.09
3.48130	5.09
3.49797	5.09
3.51463	5.09
3.53130	5.09
3.54797	5.09
3.56463	5.09
3.58130	5.09
3.59797	5.09
3.61463	5.09
3.63130	5.09
3.64797	5.09
3.66463	5.09
3.68130	5.09
3.69797	5.09
3.71463	5.09
3.73130	5.09
3.74797	5.09
3.76463	5.09
3.78130	5.09
3.79797	5.09
3.81463	5.09
3.83130	5.09
3.84797	5.09
3.86463	5.09
3.88130	5.09
3.89797	5.09
3.91463	5.09
3.93130	5.09
3.94797	5.09
3.96463	5.09
3.98130	5.09

[Status Trace (Linear Velocity)]
Interval(msec)	1000
# of Points	239
Start Time(min)	0.015
End Time(min)	3.981
Intensity Units	
Intensity Multiplier	1
R.Time (min)	Intensity
0.01463	38.55
0.03130	37.49
0.04797	39.01
0.06463	40.23
0.08130	39.40
0.09797	39.00
0.11463	39.01
0.13130	39.02
0.14797	39.02
0.16463	39.02
0.18130	39.02
0.19797	39.02
0.21463	39.02
0.23130	39.02
0.24797	39.02
0.26463	39.02
0.28130	39.02
0.29797	39.02
0.31463	39.02
0.33130	39.02
0.34797	39.02
0.36463	39.01
0.38130	39.02
0.39797	39.02
0.41463	39.02
0.43130	39.02
0.44797	39.02
0.46463	39.02
0.48130	39.02
0.49797	39.02
0.51463	39.02
0.53130	39.02
0.54797	39.02
0.56463	39.02
0.58130	39.02
0.59797	39.02
0.61463	39.02
0.63130	39.02
0.64797	39.02
0.66463	39.02
0.68130	39.02
0.69797	39.02
0.71463	39.02
0.73130	39.02
0.74797	39.02
0.76463	39.02
0.78130	39.03
0.79797	39.03
0.81463	39.02
0.83130	39.02
0.84797	39.02
0.86463	39.02
0.88130	39.02
0.89797	39.02
0.91463	39.02
0.93130	39.02
0.94797	39.02
0.96463	39.02
0.98130	39.02
0.99797	39.02
1.01463	39.02
1.03130	39.02
1.04797	39.02
1.06463	39.02
1.08130	39.02
1.09797	39.02
1.11463	39.02
1.13130	39.02
1.14797	39.02
1.16463	39.02
1.18130	39.02
1.19797	39.02
1.21463	39.02
1.23130	39.02
1.24797	39.02
1.26463	39.02
1.28130	39.02
1.29797	39.02
1.31463	39.02
1.33130	39.02
1.34797	39.02
1.36463	39.02
1.38130	39.02
1.39797	39.02
1.41463	39.02
1.43130	39.02
1.44797	39.02
1.46463	39.02
1.48130	39.02
1.49797	39.02
1.51463	39.02
1.53130	39.02
1.54797	39.02
1.56463	39.02
1.58130	39.02
1.59797	39.02
1.61463	39.01
1.63130	39.00
1.64797	38.98
1.66463	38.95
1.68130	38.92
1.69797	38.88
1.71463	38.84
1.73130	38.81
1.74797	38.78
1.76463	38.75
1.78130	38.72
1.79797	38.69
1.81463	38.66
1.83130	38.62
1.84797	38.59
1.86463	38.56
1.88130	38.53
1.89797	38.50
1.91463	38.47
1.93130	38.44
1.94797	38.41
1.96463	38.38
1.98130	38.35
1.99797	38.32
2.01463	38.29
2.03130	38.26
2.04797	38.23
2.06463	38.20
2.08130	38.17
2.09797	38.14
2.11463	38.11
2.13130	38.08
2.14797	38.05
2.16463	38.02
2.18130	37.99
2.19797	37.96
2.21463	37.93
2.23130	37.90
2.24797	37.87
2.26463	37.84
2.28130	37.82
2.29797	37.79
2.31463	37.76
2.33130	37.73
2.34797	37.70
2.36463	37.68
2.38130	37.67
2.39797	37.66
2.41463	37.66
2.43130	37.66
2.44797	37.66
2.46463	37.66
2.48130	37.66
2.49797	37.66
2.51463	37.65
2.53130	37.65
2.54797	37.65
2.56463	37.65
2.58130	37.65
2.59797	37.65
2.61463	37.65
2.63130	37.65
2.64797	37.65
2.66463	37.65
2.68130	37.65
2.69797	37.65
2.71463	37.65
2.73130	37.65
2.74797	37.65
2.76463	37.65
2.78130	37.65
2.79797	37.65
2.81463	37.65
2.83130	37.65
2.84797	37.65
2.86463	37.64
2.88130	37.64
2.89797	37.64
2.91463	37.64
2.93130	37.64
2.94797	37.64
2.96463	37.64
2.98130	37.64
2.99797	37.64
3.01463	37.63
3.03130	37.63
3.04797	37.63
3.06463	37.63
3.08130	37.63
3.09797	37.63
3.11463	37.63
3.13130	37.63
3.14797	37.63
3.16463	37.63
3.18130	37.63
3.19797	37.63
3.21463	37.63
3.23130	37.63
3.24797	37.63
3.26463	37.63
3.28130	37.63
3.29797	37.63
3.31463	37.63
3.33130	37.63
3.34797	37.63
3.36463	37.63
3.38130	37.63
3.39797	37.63
3.41463	37.63
3.43130	37.63
3.44797	37.63
3.46463	37.63
3.48130	37.63
3.49797	37.63
3.51463	37.63
3.53130	37.63
3.54797	37.63
3.56463	37.63
3.58130	37.63
3.59797	37.63
3.61463	37.63
3.63130	37.63
3.64797	37.63
3.66463	37.63
3.68130	37.63
3.69797	37.63
3.71463	37.63
3.73130	37.63
3.74797	37.63
3.76463	37.63
3.78130	37.63
3.79797	37.63
3.81463	37.63
3.83130	37.63
3.84797	37.63
3.86463	37.63
3.88130	37.63
3.89797	37.63
3.91463	37.63
3.93130	37.63
3.94797	37.63
3.96463	37.63
3.98130	37.63

