[Header]
Application Name	LabSolutions
Version	5.110
Data File Name	C:\Users\User\Desktop\GC Analyses\Jack\Nachusa Grasslands Sampling\T3 Timepoint July 12th\T3_07122022_008.gcd
Output Date	3/14/2023
Output Time	3:43:30 PM

[File Information]
Type	Data File
Generated	3/13/2023 3:15:23 PM
Generated by	System Administrator
Modified	3/13/2023 3:22:07 PM
Modified by	System Administrator

[Sample Information]
Operator Name	System Administrator
Acquired	3/13/2023 3:18:06 PM
Sample Type	0:Unknown
Level	0
Sample Name	008
Sample ID	008
ISTD Amount1	1
ISTD Amount2	1
ISTD Amount3	1
ISTD Amount4	1
ISTD Amount5	1
ISTD Amount6	1
ISTD Amount7	1
ISTD Amount8	1
ISTD Amount9	1
ISTD Amount10	1
ISTD Amount11	1
ISTD Amount12	1
ISTD Amount13	1
ISTD Amount14	1
ISTD Amount15	1
ISTD Amount16	1
ISTD Amount17	1
ISTD Amount18	1
ISTD Amount19	1
ISTD Amount20	1
ISTD Amount21	1
ISTD Amount22	1
ISTD Amount23	1
ISTD Amount24	1
ISTD Amount25	1
ISTD Amount26	1
ISTD Amount27	1
ISTD Amount28	1
ISTD Amount29	1
ISTD Amount30	1
ISTD Amount31	1
ISTD Amount32	1
Sample Amount	1
Dilution Factor	1
Vial#	7
Injection Volume	1
Injection Count	1
Bar Code	

[Original Files]
Data File	C:\Users\User\Desktop\GC Analyses\Jack\Nachusa Grasslands Sampling\T3 Timepoint July 12th\T3_07122022_008.gcd
Method File	C:\LabSolutions\Data\GHG_4min_2022\ghg3_togas_w_acet_4 min_new_int.gcm
Batch File	C:\LabSolutions\Data\AutoSamplerTesting\T3_07122022.gcb
Report Format File	c:\LabSolutions\System\DEFAULT.lsr

[File Description]


[Configuration]
Instrument Name	C0B7VH3-Instrument1
Instrument #	1
Line #	1
# of Detectors	3
Detector ID	DET#1	DET#2	DET#3
Detector Name	FID	PTCD	ECD
# of Channels	1	1	1

[Peak Table(Ch1)]
# of Peaks	3
Peak#	R.Time	I.Time	F.Time	Area	Height	A/H	Conc.	Mark	ID#	Name	k'	Plate #	Plate Ht.	Tailing	Resolution	Sep.Factor	Area Ratio	Height Ratio	Conc. %	Norm Conc.
1	1.476	1.399	1.531	25495	12313	2.070	179.994	   	1	CO	0.000	9550	15.706	1.177	0.000	0.000	0	0	22.284	22.284
2	1.571	1.538	1.648	4032	1983	2.033	77.958	   	2	CH4	0.065	11287	13.290	1.232	1.595	0.000	0	0	9.651	9.651
3	2.000	1.949	2.352	2190594	1057319	2.072	549.780	   	3	CO2	0.355	17689	8.480	1.174	7.192	5.500	0	0	68.065	68.065

[Peak Table(Ch2)]
# of Peaks	0

[Peak Table(Ch3)]
# of Peaks	5
Peak#	R.Time	I.Time	F.Time	Area	Height	A/H	Conc.	Mark	ID#	Name	k'	Plate #	Plate Ht.	Tailing	Resolution	Sep.Factor	Area Ratio	Height Ratio	Conc. %	Norm Conc.
1	2.462	2.440	2.506	1155	433	2.670	0.000	   			0.000	13042	11.501	0.000	0.000	0.000	0	0	0.000	0.000
2	2.528	2.506	2.579	734	240	3.057	0.000	 V 			0.027	5752	26.079	0.000	0.601	0.000	0	0	0.000	0.000
3	2.609	2.579	2.660	394	123	3.201	0.000	 V 			0.060	3544	42.327	0.000	0.523	2.222	0	0	0.000	0.000
4	2.880	2.689	3.078	18055	4700	3.841	0.461	   	1	N2O	0.170	13364	11.224	1.493	1.974	2.850	0	0	100.000	100.000
5	3.327	3.159	3.965	18840	709	26.575	0.000	   	2	SF6	0.351	275	545.228	2.344	0.992	2.070	0	0	0.000	0.000

[Compound Results(Ch1)]
# of IDs	6
ID#	Name	R.Time	Area	Height	Conc.	Curve	3rd	2nd	1st	Constant	Area Ratio	Height Ratio	Conc. %	Norm Conc.
1	CO	1.476	25495	12313	179.994	Linear	0.000000e+00	0.000000e+00	1.416423e+002	0.000000e+00	0	0	22.284	22.284
2	CH4	1.571	4032	1983	77.958	Linear	0.000000e+00	0.000000e+00	5.171738e+001	0.000000e+00	0	0	9.651	9.651
3	CO2	2.000	2190594	1057319	549.780	Linear	0.000000e+00	0.000000e+00	3.984494e+003	0.000000e+00	0	0	68.065	68.065
4	Ethylene	0.000	0	0	0.000	Linear	0.000000e+00	0.000000e+00	0.000000e+00	0.000000e+00	0	0	0.000	0.000
5	Acetylene	0.000	0	0	0.000	Linear	0.000000e+00	0.000000e+00	0.000000e+00	0.000000e+00	0	0	0.000	0.000
6	Ethane	0.000	0	0	0.000	Linear	0.000000e+00	0.000000e+00	0.000000e+00	0.000000e+00	0	0	0.000	0.000

[Compound Results(Ch2)]
# of IDs	5
ID#	Name	R.Time	Area	Height	Conc.	Curve	3rd	2nd	1st	Constant	Area Ratio	Height Ratio	Conc. %	Norm Conc.
1	Hydrogen	0.000	0	0	0.000	Linear	0.000000e+00	0.000000e+00	0.000000e+00	0.000000e+00	0	0	0.000	0.000
2	Oxygen	0.000	0	0	0.000	Linear	0.000000e+00	0.000000e+00	0.000000e+00	0.000000e+00	0	0	0.000	0.000
3	Nitrogen	0.000	0	0	0.000	Linear	0.000000e+00	0.000000e+00	0.000000e+00	0.000000e+00	0	0	0.000	0.000
4	Methane	0.000	0	0	0.000	Linear	0.000000e+00	0.000000e+00	0.000000e+00	0.000000e+00	0	0	0.000	0.000
5	Carbon Monoxide	0.000	0	0	0.000	Linear	0.000000e+00	0.000000e+00	0.000000e+00	0.000000e+00	0	0	0.000	0.000

[Compound Results(Ch3)]
# of IDs	2
ID#	Name	R.Time	Area	Height	Conc.	Curve	3rd	2nd	1st	Constant	Area Ratio	Height Ratio	Conc. %	Norm Conc.
1	N2O	2.880	18055	4700	0.461	Linear	0.000000e+00	0.000000e+00	3.915173e+004	0.000000e+00	0	0	100.000	100.000
2	SF6	3.327	18840	709	0.000	Linear	0.000000e+00	0.000000e+00	0.000000e+00	0.000000e+00	0	0	0.000	0.000

[Group Results(Ch1)]
# of Groups	0

[Group Results(Ch2)]
# of Groups	0

[Group Results(Ch3)]
# of Groups	0

[Chromatogram (Ch1)]
Interval(msec)	220
# of Points	1091
Start Time(min)	0.002
End Time(min)	3.998
R.Time (min)	Intensity
0.00167	-14
0.00533	-14
0.00900	-16
0.01267	-19
0.01633	-24
0.02000	-25
0.02367	-20
0.02733	-14
0.03100	-13
0.03467	-4
0.03833	7
0.04200	8
0.04567	2
0.04933	-3
0.05300	-5
0.05667	-2
0.06033	5
0.06400	6
0.06767	2
0.07133	-4
0.07500	-11
0.07867	-16
0.08233	-19
0.08600	-19
0.08967	-20
0.09333	-20
0.09700	-14
0.10067	-2
0.10433	6
0.10800	5
0.11167	0
0.11533	-3
0.11900	-5
0.12267	-6
0.12633	-3
0.13000	3
0.13367	6
0.13733	2
0.14100	-5
0.14467	-11
0.14833	-12
0.15200	-9
0.15567	-7
0.15933	-6
0.16300	-5
0.16667	2
0.17033	10
0.17400	16
0.17767	15
0.18133	11
0.18500	10
0.18867	8
0.19233	0
0.19600	-8
0.19967	-16
0.20333	-18
0.20700	-15
0.21067	-2
0.21433	12
0.21800	21
0.22167	24
0.22533	20
0.22900	16
0.23267	18
0.23633	20
0.24000	20
0.24367	19
0.24733	23
0.25100	27
0.25467	30
0.25833	34
0.26200	41
0.26567	45
0.26933	45
0.27300	41
0.27667	37
0.28033	33
0.28400	23
0.28767	13
0.29133	8
0.29500	6
0.29867	9
0.30233	22
0.30600	41
0.30967	55
0.31333	56
0.31700	46
0.32067	32
0.32433	17
0.32800	-0
0.33167	-17
0.33533	-29
0.33900	-39
0.34267	-42
0.34633	-40
0.35000	-36
0.35367	-29
0.35733	-23
0.36100	-17
0.36467	-12
0.36833	-11
0.37200	-13
0.37567	-14
0.37933	-12
0.38300	-6
0.38667	-0
0.39033	1
0.39400	-1
0.39767	-5
0.40133	-7
0.40500	-9
0.40867	-7
0.41233	-2
0.41600	0
0.41967	1
0.42333	1
0.42700	-2
0.43067	-9
0.43433	-21
0.43800	-27
0.44167	-23
0.44533	-14
0.44900	-11
0.45267	-11
0.45633	-16
0.46000	-20
0.46367	-18
0.46733	-18
0.47100	-23
0.47467	-31
0.47833	-39
0.48200	-44
0.48567	-49
0.48933	-49
0.49300	-43
0.49667	-31
0.50033	-24
0.50400	-21
0.50767	-22
0.51133	-24
0.51500	-25
0.51867	-23
0.52233	-25
0.52600	-29
0.52967	-32
0.53333	-31
0.53700	-27
0.54067	-20
0.54433	-12
0.54800	-9
0.55167	-13
0.55533	-22
0.55900	-30
0.56267	-36
0.56633	-42
0.57000	-45
0.57367	-50
0.57733	-49
0.58100	-39
0.58467	-28
0.58833	-19
0.59200	-14
0.59567	-19
0.59933	-27
0.60300	-32
0.60667	-32
0.61033	-32
0.61400	-34
0.61767	-37
0.62133	-44
0.62500	-47
0.62867	-45
0.63233	-38
0.63600	-28
0.63967	-23
0.64333	-23
0.64700	-25
0.65067	-19
0.65433	-15
0.65800	-19
0.66167	-22
0.66533	-21
0.66900	-19
0.67267	-15
0.67633	-10
0.68000	-6
0.68367	-5
0.68733	-9
0.69100	-13
0.69467	-15
0.69833	-14
0.70200	-11
0.70567	-16
0.70933	-23
0.71300	-30
0.71667	-32
0.72033	-30
0.72400	-25
0.72767	-23
0.73133	-23
0.73500	-22
0.73867	-25
0.74233	-27
0.74600	-23
0.74967	-14
0.75333	-8
0.75700	-9
0.76067	-16
0.76433	-24
0.76800	-30
0.77167	-34
0.77533	-38
0.77900	-41
0.78267	-41
0.78633	-36
0.79000	-27
0.79367	-16
0.79733	-11
0.80100	-9
0.80467	-9
0.80833	-15
0.81200	-24
0.81567	-29
0.81933	-31
0.82300	-24
0.82667	-16
0.83033	-12
0.83400	-16
0.83767	-26
0.84133	-36
0.84500	-46
0.84867	-51
0.85233	-54
0.85600	-54
0.85967	-53
0.86333	-49
0.86700	-43
0.87067	-36
0.87433	-32
0.87800	-31
0.88167	-29
0.88533	-29
0.88900	-35
0.89267	-44
0.89633	-47
0.90000	-49
0.90367	-44
0.90733	-35
0.91100	-27
0.91467	-22
0.91833	-21
0.92200	-23
0.92567	-29
0.92933	-34
0.93300	-27
0.93667	-22
0.94033	-22
0.94400	-19
0.94767	-12
0.95133	-9
0.95500	-9
0.95867	-15
0.96233	-21
0.96600	-30
0.96967	-37
0.97333	-40
0.97700	-40
0.98067	-34
0.98433	-31
0.98800	-30
0.99167	-31
0.99533	-34
0.99900	-34
1.00267	-32
1.00633	-32
1.01000	-33
1.01367	-37
1.01733	-43
1.02100	-48
1.02467	-52
1.02833	-56
1.03200	-57
1.03567	-53
1.03933	-47
1.04300	-39
1.04667	-31
1.05033	-29
1.05400	-30
1.05767	-32
1.06133	-37
1.06500	-41
1.06867	-43
1.07233	-47
1.07600	-51
1.07967	-51
1.08333	-48
1.08700	-47
1.09067	-46
1.09433	-46
1.09800	-50
1.10167	-56
1.10533	-62
1.10900	-62
1.11267	-58
1.11633	-53
1.12000	-48
1.12367	-38
1.12733	-29
1.13100	-25
1.13467	-32
1.13833	-43
1.14200	-58
1.14567	-71
1.14933	-78
1.15300	-85
1.15667	-82
1.16033	-76
1.16400	-72
1.16767	-70
1.17133	-66
1.17500	-64
1.17867	-60
1.18233	-47
1.18600	-33
1.18967	-27
1.19333	-29
1.19700	-36
1.20067	-45
1.20433	-54
1.20800	-65
1.21167	-74
1.21533	-76
1.21900	-74
1.22267	-67
1.22633	-58
1.23000	-51
1.23367	-48
1.23733	-51
1.24100	-54
1.24467	-55
1.24833	-55
1.25200	-53
1.25567	-48
1.25933	-48
1.26300	-53
1.26667	-56
1.27033	-53
1.27400	-49
1.27767	-47
1.28133	-45
1.28500	-43
1.28867	-41
1.29233	-39
1.29600	-35
1.29967	-32
1.30333	-32
1.30700	-33
1.31067	-36
1.31433	-38
1.31800	-37
1.32167	-38
1.32533	-40
1.32900	-42
1.33267	-39
1.33633	-35
1.34000	-37
1.34367	-43
1.34733	-47
1.35100	-46
1.35467	-40
1.35833	-31
1.36200	-22
1.36567	-13
1.36933	-9
1.37300	-8
1.37667	-9
1.38033	-7
1.38400	-4
1.38767	-1
1.39133	-3
1.39500	-12
1.39867	-21
1.40233	-30
1.40600	-36
1.40967	-40
1.41333	-44
1.41700	-40
1.42067	-33
1.42433	-32
1.42800	-35
1.43167	-36
1.43533	-34
1.43900	-26
1.44267	15
1.44633	215
1.45000	839
1.45367	2070
1.45733	3989
1.46100	6297
1.46467	8510
1.46833	10292
1.47200	11497
1.47567	12033
1.47933	11798
1.48300	10771
1.48667	9133
1.49033	7204
1.49400	5320
1.49767	3700
1.50133	2419
1.50500	1467
1.50867	789
1.51233	322
1.51600	8
1.51967	-193
1.52333	-322
1.52700	-410
1.53067	-466
1.53433	-494
1.53800	-491
1.54167	-443
1.54533	-301
1.54900	-22
1.55267	358
1.55633	755
1.56000	1104
1.56367	1372
1.56733	1533
1.57100	1565
1.57467	1454
1.57833	1218
1.58200	913
1.58567	607
1.58933	345
1.59300	144
1.59667	-0
1.60033	-99
1.60400	-162
1.60767	-202
1.61133	-228
1.61500	-245
1.61867	-256
1.62233	-261
1.62600	-260
1.62967	-257
1.63333	-255
1.63700	-253
1.64067	-251
1.64433	-250
1.64800	-247
1.65167	-246
1.65533	-247
1.65900	-247
1.66267	-242
1.66633	-235
1.67000	-232
1.67367	-230
1.67733	-225
1.68100	-222
1.68467	-222
1.68833	-219
1.69200	-213
1.69567	-207
1.69933	-201
1.70300	-199
1.70667	-202
1.71033	-204
1.71400	-206
1.71767	-207
1.72133	-206
1.72500	-201
1.72867	-195
1.73233	-193
1.73600	-195
1.73967	-198
1.74333	-201
1.74700	-204
1.75067	-207
1.75433	-202
1.75800	-195
1.76167	-187
1.76533	-177
1.76900	-173
1.77267	-177
1.77633	-180
1.78000	-182
1.78367	-183
1.78733	-185
1.79100	-187
1.79467	-191
1.79833	-193
1.80200	-197
1.80567	-198
1.80933	-192
1.81300	-181
1.81667	-172
1.82033	-169
1.82400	-169
1.82767	-168
1.83133	-168
1.83500	-172
1.83867	-176
1.84233	-179
1.84600	-182
1.84967	-185
1.85333	-185
1.85700	-187
1.86067	-185
1.86433	-180
1.86800	-176
1.87167	-174
1.87533	-175
1.87900	-176
1.88267	-179
1.88633	-181
1.89000	-181
1.89367	-177
1.89733	-171
1.90100	-161
1.90467	-152
1.90833	-151
1.91200	-155
1.91567	-161
1.91933	-166
1.92300	-172
1.92667	-174
1.93033	-175
1.93400	-173
1.93767	-169
1.94133	-169
1.94500	-170
1.94867	-168
1.95233	-154
1.95600	-65
1.95967	496
1.96333	3324
1.96700	14260
1.97067	46593
1.97433	120184
1.97800	250083
1.98167	431448
1.98533	636743
1.98900	828448
1.99267	974646
1.99633	1054046
2.00000	1057185
2.00367	987891
2.00733	863262
2.01100	709042
2.01467	551375
2.01833	409770
2.02200	294102
2.02567	205951
2.02933	142043
2.03300	97294
2.03667	66673
2.04033	46014
2.04400	32168
2.04767	22894
2.05133	16656
2.05500	12422
2.05867	9504
2.06233	7457
2.06600	5993
2.06967	4921
2.07333	4120
2.07700	3512
2.08067	3041
2.08433	2665
2.08800	2360
2.09167	2110
2.09533	1905
2.09900	1735
2.10267	1589
2.10633	1460
2.11000	1347
2.11367	1252
2.11733	1168
2.12100	1093
2.12467	1024
2.12833	958
2.13200	895
2.13567	833
2.13933	783
2.14300	745
2.14667	704
2.15033	666
2.15400	637
2.15767	607
2.16133	577
2.16500	546
2.16867	516
2.17233	492
2.17600	472
2.17967	457
2.18333	444
2.18700	431
2.19067	417
2.19433	400
2.19800	383
2.20167	370
2.20533	355
2.20900	338
2.21267	324
2.21633	313
2.22000	302
2.22367	292
2.22733	287
2.23100	285
2.23467	277
2.23833	264
2.24200	247
2.24567	236
2.24933	231
2.25300	228
2.25667	227
2.26033	225
2.26400	217
2.26767	209
2.27133	201
2.27500	195
2.27867	188
2.28233	179
2.28600	171
2.28967	163
2.29333	156
2.29700	154
2.30067	154
2.30433	160
2.30800	168
2.31167	174
2.31533	171
2.31900	163
2.32267	153
2.32633	147
2.33000	140
2.33367	132
2.33733	131
2.34100	129
2.34467	124
2.34833	114
2.35200	103
2.35567	98
2.35933	96
2.36300	95
2.36667	94
2.37033	93
2.37400	93
2.37767	94
2.38133	101
2.38500	108
2.38867	114
2.39233	118
2.39600	118
2.39967	119
2.40333	117
2.40700	112
2.41067	106
2.41433	105
2.41800	107
2.42167	105
2.42533	98
2.42900	89
2.43267	82
2.43633	70
2.44000	66
2.44367	64
2.44733	64
2.45100	65
2.45467	67
2.45833	69
2.46200	71
2.46567	72
2.46933	72
2.47300	73
2.47667	71
2.48033	68
2.48400	63
2.48767	60
2.49133	61
2.49500	66
2.49867	71
2.50233	68
2.50600	61
2.50967	55
2.51333	53
2.51700	60
2.52067	69
2.52433	76
2.52800	72
2.53167	65
2.53533	63
2.53900	63
2.54267	66
2.54633	71
2.55000	78
2.55367	83
2.55733	84
2.56100	81
2.56467	79
2.56833	78
2.57200	77
2.57567	76
2.57933	66
2.58300	50
2.58667	37
2.59033	31
2.59400	25
2.59767	16
2.60133	14
2.60500	16
2.60867	20
2.61233	23
2.61600	28
2.61967	38
2.62333	46
2.62700	47
2.63067	45
2.63433	45
2.63800	47
2.64167	45
2.64533	41
2.64900	40
2.65267	43
2.65633	50
2.66000	57
2.66367	66
2.66733	75
2.67100	76
2.67467	73
2.67833	68
2.68200	64
2.68567	59
2.68933	54
2.69300	55
2.69667	57
2.70033	56
2.70400	57
2.70767	47
2.71133	41
2.71500	39
2.71867	40
2.72233	48
2.72600	53
2.72967	49
2.73333	45
2.73700	43
2.74067	40
2.74433	44
2.74800	49
2.75167	56
2.75533	60
2.75900	66
2.76267	74
2.76633	77
2.77000	74
2.77367	67
2.77733	56
2.78100	49
2.78467	49
2.78833	47
2.79200	46
2.79567	43
2.79933	38
2.80300	36
2.80667	37
2.81033	41
2.81400	46
2.81767	50
2.82133	55
2.82500	57
2.82867	53
2.83233	48
2.83600	47
2.83967	49
2.84333	53
2.84700	55
2.85067	57
2.85433	58
2.85800	59
2.86167	59
2.86533	60
2.86900	63
2.87267	63
2.87633	63
2.88000	63
2.88367	60
2.88733	59
2.89100	62
2.89467	63
2.89833	61
2.90200	58
2.90567	55
2.90933	56
2.91300	57
2.91667	59
2.92033	62
2.92400	64
2.92767	65
2.93133	64
2.93500	64
2.93867	68
2.94233	72
2.94600	71
2.94967	64
2.95333	61
2.95700	59
2.96067	56
2.96433	55
2.96800	53
2.97167	54
2.97533	56
2.97900	56
2.98267	60
2.98633	63
2.99000	65
2.99367	68
2.99733	69
3.00100	68
3.00467	66
3.00833	64
3.01200	60
3.01567	60
3.01933	62
3.02300	62
3.02667	61
3.03033	59
3.03400	60
3.03767	64
3.04133	71
3.04500	73
3.04867	71
3.05233	66
3.05600	61
3.05967	57
3.06333	59
3.06700	59
3.07067	62
3.07433	67
3.07800	74
3.08167	77
3.08533	81
3.08900	85
3.09267	86
3.09633	82
3.10000	73
3.10367	63
3.10733	54
3.11100	43
3.11467	33
3.11833	28
3.12200	29
3.12567	35
3.12933	48
3.13300	64
3.13667	72
3.14033	74
3.14400	73
3.14767	67
3.15133	58
3.15500	54
3.15867	61
3.16233	71
3.16600	76
3.16967	73
3.17333	65
3.17700	58
3.18067	52
3.18433	51
3.18800	50
3.19167	49
3.19533	51
3.19900	56
3.20267	59
3.20633	61
3.21000	64
3.21367	65
3.21733	65
3.22100	64
3.22467	61
3.22833	60
3.23200	63
3.23567	65
3.23933	66
3.24300	64
3.24667	64
3.25033	64
3.25400	61
3.25767	59
3.26133	59
3.26500	54
3.26867	47
3.27233	42
3.27600	43
3.27967	43
3.28333	44
3.28700	46
3.29067	47
3.29433	44
3.29800	38
3.30167	36
3.30533	38
3.30900	46
3.31267	59
3.31633	61
3.32000	51
3.32367	37
3.32733	27
3.33100	20
3.33467	16
3.33833	16
3.34200	18
3.34567	21
3.34933	24
3.35300	28
3.35667	32
3.36033	34
3.36400	33
3.36767	29
3.37133	24
3.37500	20
3.37867	23
3.38233	28
3.38600	32
3.38967	33
3.39333	38
3.39700	39
3.40067	41
3.40433	47
3.40800	52
3.41167	52
3.41533	51
3.41900	50
3.42267	53
3.42633	57
3.43000	60
3.43367	59
3.43733	56
3.44100	53
3.44467	50
3.44833	47
3.45200	42
3.45567	36
3.45933	26
3.46300	18
3.46667	15
3.47033	16
3.47400	19
3.47767	26
3.48133	32
3.48500	32
3.48867	25
3.49233	13
3.49600	5
3.49967	0
3.50333	-0
3.50700	1
3.51067	6
3.51433	11
3.51800	18
3.52167	28
3.52533	38
3.52900	45
3.53267	47
3.53633	43
3.54000	32
3.54367	23
3.54733	20
3.55100	20
3.55467	22
3.55833	26
3.56200	29
3.56567	29
3.56933	28
3.57300	25
3.57667	23
3.58033	19
3.58400	13
3.58767	7
3.59133	5
3.59500	5
3.59867	8
3.60233	11
3.60600	15
3.60967	18
3.61333	23
3.61700	29
3.62067	33
3.62433	35
3.62800	35
3.63167	34
3.63533	33
3.63900	33
3.64267	35
3.64633	36
3.65000	33
3.65367	29
3.65733	25
3.66100	23
3.66467	28
3.66833	32
3.67200	31
3.67567	26
3.67933	18
3.68300	9
3.68667	-0
3.69033	-7
3.69400	-12
3.69767	-11
3.70133	-6
3.70500	-1
3.70867	2
3.71233	2
3.71600	5
3.71967	6
3.72333	6
3.72700	1
3.73067	-4
3.73433	-7
3.73800	-5
3.74167	-2
3.74533	-2
3.74900	-3
3.75267	-2
3.75633	1
3.76000	7
3.76367	14
3.76733	16
3.77100	15
3.77467	10
3.77833	5
3.78200	4
3.78567	6
3.78933	11
3.79300	17
3.79667	18
3.80033	11
3.80400	6
3.80767	2
3.81133	-1
3.81500	-1
3.81867	2
3.82233	7
3.82600	15
3.82967	16
3.83333	13
3.83700	8
3.84067	2
3.84433	-5
3.84800	-9
3.85167	-9
3.85533	-5
3.85900	1
3.86267	5
3.86633	7
3.87000	8
3.87367	6
3.87733	4
3.88100	5
3.88467	3
3.88833	-4
3.89200	-12
3.89567	-15
3.89933	-14
3.90300	-13
3.90667	-12
3.91033	-10
3.91400	-8
3.91767	-6
3.92133	-3
3.92500	5
3.92867	11
3.93233	9
3.93600	3
3.93967	-3
3.94333	-8
3.94700	-14
3.95067	-14
3.95433	-12
3.95800	-14
3.96167	-17
3.96533	-19
3.96900	-19
3.97267	-19
3.97633	-15
3.98000	-12
3.98367	-13
3.98733	-18
3.99100	-21
3.99467	-17
3.99833	-10

[Chromatogram (Ch2)]
Interval(msec)	220
# of Points	1091
Start Time(min)	0.002
End Time(min)	3.998
R.Time (min)	Intensity
0.00167	-0
0.00533	-0
0.00900	-0
0.01267	-0
0.01633	-1
0.02000	-1
0.02367	-1
0.02733	-1
0.03100	-1
0.03467	-0
0.03833	-0
0.04200	0
0.04567	1
0.04933	1
0.05300	1
0.05667	1
0.06033	1
0.06400	0
0.06767	0
0.07133	-0
0.07500	-0
0.07867	-1
0.08233	-1
0.08600	-1
0.08967	-1
0.09333	-0
0.09700	-0
0.10067	-0
0.10433	0
0.10800	0
0.11167	0
0.11533	1
0.11900	1
0.12267	1
0.12633	1
0.13000	1
0.13367	1
0.13733	1
0.14100	1
0.14467	2
0.14833	2
0.15200	2
0.15567	2
0.15933	2
0.16300	2
0.16667	2
0.17033	1
0.17400	1
0.17767	1
0.18133	0
0.18500	0
0.18867	-0
0.19233	-0
0.19600	-0
0.19967	-0
0.20333	-0
0.20700	-1
0.21067	-1
0.21433	-0
0.21800	-0
0.22167	-0
0.22533	0
0.22900	0
0.23267	0
0.23633	0
0.24000	0
0.24367	0
0.24733	0
0.25100	0
0.25467	-0
0.25833	-0
0.26200	-0
0.26567	-0
0.26933	-0
0.27300	-1
0.27667	-1
0.28033	-1
0.28400	-1
0.28767	-1
0.29133	-2
0.29500	-2
0.29867	-2
0.30233	-2
0.30600	-2
0.30967	-2
0.31333	-2
0.31700	-2
0.32067	-1
0.32433	-1
0.32800	-1
0.33167	-0
0.33533	0
0.33900	1
0.34267	1
0.34633	1
0.35000	2
0.35367	2
0.35733	2
0.36100	2
0.36467	2
0.36833	2
0.37200	2
0.37567	2
0.37933	2
0.38300	1
0.38667	1
0.39033	1
0.39400	0
0.39767	-0
0.40133	-1
0.40500	-1
0.40867	-1
0.41233	-1
0.41600	-1
0.41967	-1
0.42333	-1
0.42700	-1
0.43067	-0
0.43433	-0
0.43800	-0
0.44167	0
0.44533	0
0.44900	0
0.45267	0
0.45633	0
0.46000	-0
0.46367	-0
0.46733	-1
0.47100	-1
0.47467	-1
0.47833	-1
0.48200	-1
0.48567	-1
0.48933	-1
0.49300	-1
0.49667	-1
0.50033	-1
0.50400	-1
0.50767	-1
0.51133	-1
0.51500	-1
0.51867	-1
0.52233	-0
0.52600	-0
0.52967	0
0.53333	0
0.53700	0
0.54067	0
0.54433	0
0.54800	0
0.55167	1
0.55533	1
0.55900	1
0.56267	1
0.56633	1
0.57000	0
0.57367	0
0.57733	0
0.58100	1
0.58467	1
0.58833	1
0.59200	1
0.59567	1
0.59933	1
0.60300	1
0.60667	1
0.61033	1
0.61400	0
0.61767	0
0.62133	0
0.62500	0
0.62867	-0
0.63233	-0
0.63600	-1
0.63967	-1
0.64333	-1
0.64700	-1
0.65067	-1
0.65433	-2
0.65800	-2
0.66167	-2
0.66533	-2
0.66900	-2
0.67267	-3
0.67633	-3
0.68000	-3
0.68367	-3
0.68733	-2
0.69100	-2
0.69467	-2
0.69833	-1
0.70200	-1
0.70567	-0
0.70933	0
0.71300	0
0.71667	0
0.72033	0
0.72400	0
0.72767	0
0.73133	1
0.73500	1
0.73867	1
0.74233	1
0.74600	0
0.74967	0
0.75333	-0
0.75700	-1
0.76067	-1
0.76433	-1
0.76800	-2
0.77167	-2
0.77533	-2
0.77900	-2
0.78267	-2
0.78633	-1
0.79000	-1
0.79367	-1
0.79733	-1
0.80100	-0
0.80467	-0
0.80833	-0
0.81200	0
0.81567	-0
0.81933	-0
0.82300	-0
0.82667	-1
0.83033	-1
0.83400	-1
0.83767	-1
0.84133	-1
0.84500	-1
0.84867	-1
0.85233	-1
0.85600	-2
0.85967	-2
0.86333	-2
0.86700	-2
0.87067	-3
0.87433	-3
0.87800	-3
0.88167	-3
0.88533	-3
0.88900	-3
0.89267	-3
0.89633	-2
0.90000	-2
0.90367	-2
0.90733	-2
0.91100	-1
0.91467	-1
0.91833	-1
0.92200	-1
0.92567	-1
0.92933	-1
0.93300	-1
0.93667	-1
0.94033	-1
0.94400	-1
0.94767	-1
0.95133	-2
0.95500	-2
0.95867	-2
0.96233	-2
0.96600	-3
0.96967	-3
0.97333	-3
0.97700	-3
0.98067	-4
0.98433	-4
0.98800	-4
0.99167	-4
0.99533	-4
0.99900	-4
1.00267	-3
1.00633	-3
1.01000	-3
1.01367	-3
1.01733	-2
1.02100	-2
1.02467	-2
1.02833	-1
1.03200	-1
1.03567	-1
1.03933	-0
1.04300	-0
1.04667	-0
1.05033	-0
1.05400	-0
1.05767	-0
1.06133	0
1.06500	0
1.06867	-0
1.07233	-0
1.07600	-0
1.07967	-0
1.08333	-1
1.08700	-1
1.09067	-2
1.09433	-3
1.09800	-3
1.10167	-4
1.10533	-4
1.10900	-4
1.11267	-4
1.11633	-4
1.12000	-3
1.12367	-3
1.12733	-2
1.13100	-2
1.13467	-1
1.13833	-1
1.14200	-1
1.14567	-1
1.14933	-1
1.15300	-1
1.15667	-1
1.16033	-1
1.16400	-2
1.16767	-2
1.17133	-2
1.17500	-2
1.17867	-2
1.18233	-2
1.18600	-2
1.18967	-2
1.19333	-3
1.19700	-3
1.20067	-3
1.20433	-3
1.20800	-3
1.21167	-4
1.21533	-4
1.21900	-4
1.22267	-5
1.22633	-5
1.23000	-5
1.23367	-5
1.23733	-5
1.24100	-4
1.24467	-4
1.24833	-4
1.25200	-4
1.25567	-4
1.25933	-4
1.26300	-4
1.26667	-4
1.27033	-4
1.27400	-4
1.27767	-5
1.28133	-5
1.28500	-4
1.28867	-4
1.29233	-4
1.29600	-4
1.29967	-4
1.30333	-4
1.30700	-3
1.31067	-3
1.31433	-2
1.31800	-2
1.32167	-2
1.32533	-2
1.32900	-1
1.33267	-1
1.33633	-1
1.34000	-1
1.34367	-1
1.34733	-1
1.35100	-1
1.35467	-1
1.35833	-1
1.36200	-0
1.36567	-0
1.36933	-0
1.37300	-0
1.37667	0
1.38033	0
1.38400	0
1.38767	0
1.39133	0
1.39500	0
1.39867	0
1.40233	0
1.40600	-0
1.40967	-0
1.41333	-1
1.41700	-1
1.42067	-1
1.42433	-2
1.42800	-2
1.43167	-2
1.43533	-2
1.43900	-2
1.44267	-2
1.44633	-2
1.45000	-3
1.45367	-3
1.45733	-3
1.46100	-3
1.46467	-4
1.46833	-4
1.47200	-4
1.47567	-3
1.47933	-3
1.48300	-3
1.48667	-3
1.49033	-2
1.49400	-2
1.49767	-2
1.50133	-2
1.50500	-3
1.50867	-3
1.51233	-3
1.51600	-3
1.51967	-3
1.52333	-3
1.52700	-3
1.53067	-3
1.53433	-4
1.53800	-4
1.54167	-4
1.54533	-4
1.54900	-4
1.55267	-4
1.55633	-4
1.56000	-4
1.56367	-4
1.56733	-4
1.57100	-5
1.57467	-5
1.57833	-5
1.58200	-5
1.58567	-5
1.58933	-5
1.59300	-5
1.59667	-6
1.60033	-6
1.60400	-7
1.60767	-9
1.61133	-10
1.61500	-12
1.61867	-14
1.62233	-16
1.62600	-19
1.62967	-22
1.63333	-25
1.63700	-28
1.64067	-31
1.64433	-34
1.64800	-38
1.65167	-41
1.65533	-44
1.65900	-48
1.66267	-51
1.66633	-55
1.67000	-59
1.67367	-64
1.67733	-69
1.68100	-74
1.68467	-78
1.68833	-83
1.69200	-88
1.69567	-92
1.69933	-95
1.70300	-97
1.70667	-99
1.71033	-101
1.71400	-103
1.71767	-104
1.72133	-105
1.72500	-105
1.72867	-106
1.73233	-107
1.73600	-107
1.73967	-108
1.74333	-109
1.74700	-110
1.75067	-110
1.75433	-110
1.75800	-110
1.76167	-110
1.76533	-110
1.76900	-110
1.77267	-109
1.77633	-109
1.78000	-109
1.78367	-110
1.78733	-110
1.79100	-110
1.79467	-110
1.79833	-110
1.80200	-111
1.80567	-111
1.80933	-111
1.81300	-111
1.81667	-112
1.82033	-113
1.82400	-113
1.82767	-114
1.83133	-114
1.83500	-115
1.83867	-115
1.84233	-115
1.84600	-114
1.84967	-114
1.85333	-113
1.85700	-113
1.86067	-112
1.86433	-112
1.86800	-113
1.87167	-113
1.87533	-113
1.87900	-114
1.88267	-114
1.88633	-114
1.89000	-114
1.89367	-114
1.89733	-113
1.90100	-113
1.90467	-113
1.90833	-113
1.91200	-113
1.91567	-112
1.91933	-112
1.92300	-112
1.92667	-111
1.93033	-111
1.93400	-111
1.93767	-112
1.94133	-112
1.94500	-112
1.94867	-112
1.95233	-112
1.95600	-112
1.95967	-111
1.96333	-111
1.96700	-111
1.97067	-111
1.97433	-110
1.97800	-110
1.98167	-109
1.98533	-109
1.98900	-109
1.99267	-109
1.99633	-109
2.00000	-108
2.00367	-108
2.00733	-108
2.01100	-108
2.01467	-107
2.01833	-107
2.02200	-106
2.02567	-106
2.02933	-105
2.03300	-105
2.03667	-105
2.04033	-105
2.04400	-104
2.04767	-103
2.05133	-103
2.05500	-102
2.05867	-102
2.06233	-102
2.06600	-102
2.06967	-102
2.07333	-102
2.07700	-102
2.08067	-101
2.08433	-101
2.08800	-100
2.09167	-100
2.09533	-99
2.09900	-98
2.10267	-97
2.10633	-96
2.11000	-95
2.11367	-95
2.11733	-94
2.12100	-94
2.12467	-95
2.12833	-95
2.13200	-96
2.13567	-96
2.13933	-96
2.14300	-95
2.14667	-95
2.15033	-95
2.15400	-95
2.15767	-94
2.16133	-93
2.16500	-93
2.16867	-93
2.17233	-93
2.17600	-93
2.17967	-94
2.18333	-94
2.18700	-94
2.19067	-94
2.19433	-93
2.19800	-92
2.20167	-91
2.20533	-91
2.20900	-90
2.21267	-89
2.21633	-88
2.22000	-87
2.22367	-87
2.22733	-86
2.23100	-86
2.23467	-86
2.23833	-86
2.24200	-86
2.24567	-86
2.24933	-86
2.25300	-87
2.25667	-87
2.26033	-87
2.26400	-87
2.26767	-87
2.27133	-86
2.27500	-86
2.27867	-85
2.28233	-85
2.28600	-84
2.28967	-84
2.29333	-83
2.29700	-83
2.30067	-82
2.30433	-82
2.30800	-82
2.31167	-82
2.31533	-83
2.31900	-83
2.32267	-82
2.32633	-82
2.33000	-81
2.33367	-80
2.33733	-80
2.34100	-79
2.34467	-78
2.34833	-78
2.35200	-77
2.35567	-76
2.35933	-76
2.36300	-75
2.36667	-74
2.37033	-72
2.37400	-70
2.37767	-67
2.38133	-64
2.38500	-60
2.38867	-56
2.39233	-52
2.39600	-48
2.39967	-43
2.40333	-39
2.40700	-34
2.41067	-30
2.41433	-26
2.41800	-23
2.42167	-20
2.42533	-17
2.42900	-15
2.43267	-13
2.43633	-12
2.44000	-11
2.44367	-10
2.44733	-9
2.45100	-8
2.45467	-8
2.45833	-7
2.46200	-6
2.46567	-5
2.46933	-4
2.47300	-3
2.47667	-2
2.48033	-1
2.48400	-0
2.48767	1
2.49133	2
2.49500	4
2.49867	5
2.50233	6
2.50600	7
2.50967	8
2.51333	9
2.51700	10
2.52067	10
2.52433	11
2.52800	12
2.53167	12
2.53533	12
2.53900	12
2.54267	12
2.54633	12
2.55000	13
2.55367	13
2.55733	13
2.56100	14
2.56467	14
2.56833	13
2.57200	13
2.57567	13
2.57933	13
2.58300	14
2.58667	14
2.59033	14
2.59400	15
2.59767	15
2.60133	16
2.60500	16
2.60867	16
2.61233	16
2.61600	16
2.61967	16
2.62333	16
2.62700	16
2.63067	16
2.63433	16
2.63800	17
2.64167	17
2.64533	17
2.64900	17
2.65267	18
2.65633	18
2.66000	18
2.66367	19
2.66733	19
2.67100	19
2.67467	20
2.67833	20
2.68200	21
2.68567	21
2.68933	22
2.69300	23
2.69667	23
2.70033	23
2.70400	23
2.70767	22
2.71133	22
2.71500	22
2.71867	22
2.72233	22
2.72600	22
2.72967	22
2.73333	22
2.73700	22
2.74067	22
2.74433	23
2.74800	23
2.75167	23
2.75533	24
2.75900	24
2.76267	24
2.76633	24
2.77000	24
2.77367	24
2.77733	25
2.78100	25
2.78467	25
2.78833	25
2.79200	25
2.79567	25
2.79933	25
2.80300	25
2.80667	25
2.81033	25
2.81400	25
2.81767	25
2.82133	25
2.82500	25
2.82867	24
2.83233	24
2.83600	24
2.83967	23
2.84333	21
2.84700	19
2.85067	15
2.85433	8
2.85800	-1
2.86167	-14
2.86533	-30
2.86900	-51
2.87267	-77
2.87633	-107
2.88000	-141
2.88367	-179
2.88733	-221
2.89100	-267
2.89467	-315
2.89833	-366
2.90200	-419
2.90567	-473
2.90933	-529
2.91300	-584
2.91667	-640
2.92033	-695
2.92400	-749
2.92767	-801
2.93133	-852
2.93500	-904
2.93867	-961
2.94233	-1019
2.94600	-1067
2.94967	-1095
2.95333	-1099
2.95700	-1076
2.96067	-1031
2.96433	-970
2.96800	-897
2.97167	-818
2.97533	-737
2.97900	-657
2.98267	-581
2.98633	-510
2.99000	-445
2.99367	-386
2.99733	-334
3.00100	-287
3.00467	-246
3.00833	-210
3.01200	-178
3.01567	-151
3.01933	-127
3.02300	-107
3.02667	-89
3.03033	-74
3.03400	-61
3.03767	-50
3.04133	-41
3.04500	-33
3.04867	-26
3.05233	-20
3.05600	-15
3.05967	-11
3.06333	-7
3.06700	-4
3.07067	-1
3.07433	1
3.07800	2
3.08167	4
3.08533	5
3.08900	6
3.09267	6
3.09633	7
3.10000	8
3.10367	9
3.10733	9
3.11100	10
3.11467	10
3.11833	11
3.12200	12
3.12567	12
3.12933	13
3.13300	13
3.13667	14
3.14033	14
3.14400	15
3.14767	15
3.15133	16
3.15500	16
3.15867	17
3.16233	17
3.16600	17
3.16967	18
3.17333	18
3.17700	18
3.18067	18
3.18433	18
3.18800	18
3.19167	18
3.19533	19
3.19900	19
3.20267	19
3.20633	19
3.21000	20
3.21367	20
3.21733	20
3.22100	20
3.22467	20
3.22833	20
3.23200	20
3.23567	20
3.23933	20
3.24300	20
3.24667	20
3.25033	20
3.25400	20
3.25767	20
3.26133	21
3.26500	21
3.26867	21
3.27233	21
3.27600	21
3.27967	22
3.28333	22
3.28700	22
3.29067	22
3.29433	22
3.29800	22
3.30167	22
3.30533	22
3.30900	22
3.31267	23
3.31633	23
3.32000	23
3.32367	23
3.32733	23
3.33100	23
3.33467	23
3.33833	23
3.34200	23
3.34567	23
3.34933	23
3.35300	23
3.35667	23
3.36033	23
3.36400	23
3.36767	23
3.37133	23
3.37500	23
3.37867	23
3.38233	23
3.38600	23
3.38967	24
3.39333	24
3.39700	24
3.40067	24
3.40433	24
3.40800	24
3.41167	24
3.41533	24
3.41900	24
3.42267	24
3.42633	23
3.43000	23
3.43367	23
3.43733	23
3.44100	23
3.44467	23
3.44833	23
3.45200	23
3.45567	23
3.45933	24
3.46300	24
3.46667	24
3.47033	24
3.47400	24
3.47767	25
3.48133	25
3.48500	25
3.48867	25
3.49233	25
3.49600	25
3.49967	25
3.50333	25
3.50700	26
3.51067	26
3.51433	26
3.51800	26
3.52167	27
3.52533	27
3.52900	27
3.53267	28
3.53633	28
3.54000	28
3.54367	28
3.54733	28
3.55100	28
3.55467	28
3.55833	28
3.56200	28
3.56567	28
3.56933	28
3.57300	28
3.57667	28
3.58033	28
3.58400	28
3.58767	28
3.59133	28
3.59500	28
3.59867	27
3.60233	27
3.60600	27
3.60967	27
3.61333	27
3.61700	27
3.62067	27
3.62433	27
3.62800	27
3.63167	26
3.63533	26
3.63900	26
3.64267	26
3.64633	26
3.65000	26
3.65367	25
3.65733	25
3.66100	25
3.66467	25
3.66833	25
3.67200	25
3.67567	25
3.67933	25
3.68300	25
3.68667	25
3.69033	25
3.69400	25
3.69767	25
3.70133	25
3.70500	25
3.70867	25
3.71233	25
3.71600	25
3.71967	25
3.72333	25
3.72700	25
3.73067	26
3.73433	26
3.73800	26
3.74167	26
3.74533	26
3.74900	26
3.75267	26
3.75633	26
3.76000	26
3.76367	26
3.76733	26
3.77100	26
3.77467	25
3.77833	25
3.78200	25
3.78567	25
3.78933	25
3.79300	25
3.79667	25
3.80033	25
3.80400	25
3.80767	25
3.81133	25
3.81500	25
3.81867	25
3.82233	25
3.82600	24
3.82967	24
3.83333	24
3.83700	24
3.84067	24
3.84433	24
3.84800	24
3.85167	24
3.85533	24
3.85900	24
3.86267	24
3.86633	24
3.87000	24
3.87367	24
3.87733	23
3.88100	23
3.88467	23
3.88833	23
3.89200	23
3.89567	24
3.89933	24
3.90300	24
3.90667	24
3.91033	25
3.91400	25
3.91767	25
3.92133	25
3.92500	25
3.92867	25
3.93233	25
3.93600	25
3.93967	25
3.94333	25
3.94700	25
3.95067	24
3.95433	24
3.95800	24
3.96167	24
3.96533	24
3.96900	24
3.97267	24
3.97633	24
3.98000	23
3.98367	24
3.98733	24
3.99100	24
3.99467	24
3.99833	24

[Chromatogram (Ch3)]
Interval(msec)	220
# of Points	1091
Start Time(min)	0.002
End Time(min)	3.998
R.Time (min)	Intensity
0.00167	0
0.00533	0
0.00900	1
0.01267	-0
0.01633	-3
0.02000	-3
0.02367	-3
0.02733	-2
0.03100	-1
0.03467	-1
0.03833	1
0.04200	3
0.04567	2
0.04933	-1
0.05300	-2
0.05667	-1
0.06033	0
0.06400	-1
0.06767	-2
0.07133	-1
0.07500	3
0.07867	4
0.08233	4
0.08600	2
0.08967	1
0.09333	0
0.09700	-3
0.10067	-3
0.10433	-1
0.10800	0
0.11167	1
0.11533	3
0.11900	1
0.12267	-0
0.12633	-1
0.13000	-1
0.13367	-2
0.13733	0
0.14100	3
0.14467	2
0.14833	-1
0.15200	-3
0.15567	-2
0.15933	-2
0.16300	-2
0.16667	-2
0.17033	-3
0.17400	-5
0.17767	-6
0.18133	-6
0.18500	-6
0.18867	-8
0.19233	-8
0.19600	-7
0.19967	-8
0.20333	-7
0.20700	-7
0.21067	-7
0.21433	-6
0.21800	-7
0.22167	-8
0.22533	-8
0.22900	-8
0.23267	-8
0.23633	-7
0.24000	-7
0.24367	-6
0.24733	-5
0.25100	-5
0.25467	-6
0.25833	-6
0.26200	-8
0.26567	-9
0.26933	-11
0.27300	-12
0.27667	-9
0.28033	-6
0.28400	-5
0.28767	-6
0.29133	-5
0.29500	-3
0.29867	-5
0.30233	-6
0.30600	-7
0.30967	-7
0.31333	-6
0.31700	-6
0.32067	-5
0.32433	-2
0.32800	0
0.33167	1
0.33533	0
0.33900	-1
0.34267	0
0.34633	-0
0.35000	-2
0.35367	-5
0.35733	-4
0.36100	-2
0.36467	-3
0.36833	-4
0.37200	-4
0.37567	-4
0.37933	-6
0.38300	-7
0.38667	-6
0.39033	-5
0.39400	-4
0.39767	-4
0.40133	-4
0.40500	-5
0.40867	-4
0.41233	-4
0.41600	-4
0.41967	-4
0.42333	-6
0.42700	-6
0.43067	-7
0.43433	-7
0.43800	-7
0.44167	-7
0.44533	-9
0.44900	-9
0.45267	-10
0.45633	-12
0.46000	-13
0.46367	-12
0.46733	-11
0.47100	-10
0.47467	-10
0.47833	-11
0.48200	-10
0.48567	-11
0.48933	-11
0.49300	-12
0.49667	-11
0.50033	-10
0.50400	-8
0.50767	-9
0.51133	-8
0.51500	-8
0.51867	-7
0.52233	-6
0.52600	-5
0.52967	-6
0.53333	-7
0.53700	-7
0.54067	-6
0.54433	-4
0.54800	-5
0.55167	-6
0.55533	-6
0.55900	-7
0.56267	-8
0.56633	-7
0.57000	-6
0.57367	-4
0.57733	-1
0.58100	-1
0.58467	-3
0.58833	-5
0.59200	-4
0.59567	-1
0.59933	-1
0.60300	-1
0.60667	-2
0.61033	-2
0.61400	-2
0.61767	-2
0.62133	-5
0.62500	-5
0.62867	-5
0.63233	-5
0.63600	-4
0.63967	-6
0.64333	-5
0.64700	-3
0.65067	-4
0.65433	-6
0.65800	-6
0.66167	-3
0.66533	-2
0.66900	-1
0.67267	-2
0.67633	-3
0.68000	-5
0.68367	-7
0.68733	-8
0.69100	-8
0.69467	-8
0.69833	-8
0.70200	-7
0.70567	-9
0.70933	-10
0.71300	-9
0.71667	-9
0.72033	-10
0.72400	-8
0.72767	-8
0.73133	-8
0.73500	-7
0.73867	-5
0.74233	-5
0.74600	-5
0.74967	-6
0.75333	-6
0.75700	-8
0.76067	-9
0.76433	-10
0.76800	-11
0.77167	-11
0.77533	-10
0.77900	-9
0.78267	-9
0.78633	-10
0.79000	-11
0.79367	-14
0.79733	-15
0.80100	-15
0.80467	-16
0.80833	-15
0.81200	-16
0.81567	-16
0.81933	-16
0.82300	-17
0.82667	-16
0.83033	-15
0.83400	-14
0.83767	-13
0.84133	-14
0.84500	-15
0.84867	-16
0.85233	-15
0.85600	-16
0.85967	-14
0.86333	-12
0.86700	-14
0.87067	-17
0.87433	-18
0.87800	-19
0.88167	-18
0.88533	-17
0.88900	-17
0.89267	-16
0.89633	-17
0.90000	-17
0.90367	-17
0.90733	-17
0.91100	-16
0.91467	-15
0.91833	-15
0.92200	-18
0.92567	-19
0.92933	-19
0.93300	-18
0.93667	-17
0.94033	-18
0.94400	-17
0.94767	-16
0.95133	-16
0.95500	-16
0.95867	-17
0.96233	-15
0.96600	-14
0.96967	-13
0.97333	-11
0.97700	-10
0.98067	-9
0.98433	-11
0.98800	-15
0.99167	-17
0.99533	-16
0.99900	-16
1.00267	-16
1.00633	-14
1.01000	-13
1.01367	-14
1.01733	-14
1.02100	-13
1.02467	-11
1.02833	-12
1.03200	-13
1.03567	-13
1.03933	-10
1.04300	-8
1.04667	-9
1.05033	-11
1.05400	-10
1.05767	-11
1.06133	-12
1.06500	-15
1.06867	-15
1.07233	-14
1.07600	-14
1.07967	-14
1.08333	-13
1.08700	-12
1.09067	-12
1.09433	-12
1.09800	-12
1.10167	-12
1.10533	-12
1.10900	-13
1.11267	-14
1.11633	-13
1.12000	-11
1.12367	-11
1.12733	-12
1.13100	-11
1.13467	-10
1.13833	-11
1.14200	-14
1.14567	-14
1.14933	-12
1.15300	-12
1.15667	-11
1.16033	-11
1.16400	-13
1.16767	-14
1.17133	-13
1.17500	-14
1.17867	-13
1.18233	-12
1.18600	-10
1.18967	-7
1.19333	-7
1.19700	-6
1.20067	-7
1.20433	-8
1.20800	-10
1.21167	-10
1.21533	-10
1.21900	-9
1.22267	-8
1.22633	-7
1.23000	-5
1.23367	-6
1.23733	-7
1.24100	-6
1.24467	-6
1.24833	-5
1.25200	-5
1.25567	-7
1.25933	-9
1.26300	-9
1.26667	-8
1.27033	-5
1.27400	-6
1.27767	-6
1.28133	-4
1.28500	-1
1.28867	-1
1.29233	-4
1.29600	-6
1.29967	-6
1.30333	-4
1.30700	-3
1.31067	-5
1.31433	-4
1.31800	-3
1.32167	-4
1.32533	-5
1.32900	-6
1.33267	-8
1.33633	-7
1.34000	-6
1.34367	-5
1.34733	-4
1.35100	-4
1.35467	-3
1.35833	-3
1.36200	-4
1.36567	-5
1.36933	-5
1.37300	-4
1.37667	-3
1.38033	-2
1.38400	-0
1.38767	1
1.39133	0
1.39500	-0
1.39867	-0
1.40233	0
1.40600	2
1.40967	3
1.41333	3
1.41700	3
1.42067	2
1.42433	3
1.42800	3
1.43167	2
1.43533	2
1.43900	1
1.44267	-0
1.44633	-0
1.45000	1
1.45367	3
1.45733	4
1.46100	3
1.46467	4
1.46833	4
1.47200	5
1.47567	7
1.47933	8
1.48300	7
1.48667	8
1.49033	9
1.49400	9
1.49767	9
1.50133	8
1.50500	7
1.50867	6
1.51233	5
1.51600	3
1.51967	5
1.52333	8
1.52700	9
1.53067	10
1.53433	9
1.53800	9
1.54167	9
1.54533	9
1.54900	9
1.55267	7
1.55633	7
1.56000	8
1.56367	8
1.56733	10
1.57100	11
1.57467	12
1.57833	13
1.58200	14
1.58567	14
1.58933	15
1.59300	17
1.59667	18
1.60033	20
1.60400	19
1.60767	17
1.61133	16
1.61500	15
1.61867	15
1.62233	15
1.62600	14
1.62967	13
1.63333	11
1.63700	11
1.64067	12
1.64433	12
1.64800	12
1.65167	12
1.65533	14
1.65900	16
1.66267	16
1.66633	14
1.67000	12
1.67367	12
1.67733	14
1.68100	15
1.68467	17
1.68833	19
1.69200	19
1.69567	20
1.69933	20
1.70300	17
1.70667	17
1.71033	16
1.71400	17
1.71767	20
1.72133	21
1.72500	20
1.72867	20
1.73233	20
1.73600	18
1.73967	19
1.74333	20
1.74700	19
1.75067	19
1.75433	19
1.75800	19
1.76167	20
1.76533	24
1.76900	27
1.77267	29
1.77633	32
1.78000	34
1.78367	35
1.78733	34
1.79100	33
1.79467	33
1.79833	35
1.80200	37
1.80567	37
1.80933	38
1.81300	38
1.81667	38
1.82033	40
1.82400	44
1.82767	47
1.83133	48
1.83500	48
1.83867	48
1.84233	50
1.84600	54
1.84967	57
1.85333	57
1.85700	55
1.86067	54
1.86433	51
1.86800	49
1.87167	51
1.87533	52
1.87900	52
1.88267	51
1.88633	51
1.89000	51
1.89367	52
1.89733	54
1.90100	55
1.90467	54
1.90833	54
1.91200	55
1.91567	57
1.91933	58
1.92300	59
1.92667	59
1.93033	58
1.93400	58
1.93767	60
1.94133	63
1.94500	65
1.94867	66
1.95233	66
1.95600	67
1.95967	68
1.96333	71
1.96700	75
1.97067	73
1.97433	71
1.97800	70
1.98167	71
1.98533	71
1.98900	74
1.99267	78
1.99633	78
2.00000	78
2.00367	82
2.00733	85
2.01100	84
2.01467	82
2.01833	83
2.02200	84
2.02567	85
2.02933	87
2.03300	89
2.03667	91
2.04033	92
2.04400	92
2.04767	93
2.05133	94
2.05500	96
2.05867	98
2.06233	101
2.06600	103
2.06967	103
2.07333	104
2.07700	105
2.08067	106
2.08433	105
2.08800	105
2.09167	106
2.09533	109
2.09900	110
2.10267	112
2.10633	112
2.11000	113
2.11367	113
2.11733	113
2.12100	116
2.12467	119
2.12833	121
2.13200	122
2.13567	123
2.13933	124
2.14300	126
2.14667	127
2.15033	128
2.15400	127
2.15767	125
2.16133	124
2.16500	124
2.16867	126
2.17233	127
2.17600	127
2.17967	128
2.18333	130
2.18700	130
2.19067	130
2.19433	130
2.19800	131
2.20167	133
2.20533	135
2.20900	136
2.21267	139
2.21633	143
2.22000	145
2.22367	149
2.22733	150
2.23100	151
2.23467	149
2.23833	147
2.24200	148
2.24567	147
2.24933	148
2.25300	150
2.25667	150
2.26033	150
2.26400	150
2.26767	150
2.27133	151
2.27500	151
2.27867	153
2.28233	155
2.28600	156
2.28967	155
2.29333	155
2.29700	154
2.30067	156
2.30433	157
2.30800	157
2.31167	157
2.31533	157
2.31900	159
2.32267	161
2.32633	163
2.33000	163
2.33367	164
2.33733	166
2.34100	168
2.34467	170
2.34833	173
2.35200	175
2.35567	175
2.35933	174
2.36300	174
2.36667	175
2.37033	175
2.37400	176
2.37767	176
2.38133	176
2.38500	175
2.38867	172
2.39233	170
2.39600	172
2.39967	175
2.40333	176
2.40700	175
2.41067	174
2.41433	176
2.41800	177
2.42167	179
2.42533	180
2.42900	181
2.43267	179
2.43633	177
2.44000	179
2.44367	221
2.44733	329
2.45100	449
2.45467	548
2.45833	600
2.46200	603
2.46567	585
2.46933	565
2.47300	553
2.47667	544
2.48033	524
2.48400	490
2.48767	453
2.49133	417
2.49500	388
2.49867	366
2.50233	351
2.50600	344
2.50967	345
2.51333	356
2.51700	369
2.52067	381
2.52433	387
2.52800	386
2.53167	376
2.53533	359
2.53900	337
2.54267	314
2.54633	292
2.55000	275
2.55367	261
2.55733	251
2.56100	243
2.56467	237
2.56833	232
2.57200	230
2.57567	228
2.57933	227
2.58300	227
2.58667	228
2.59033	229
2.59400	234
2.59767	237
2.60133	240
2.60500	240
2.60867	239
2.61233	234
2.61600	225
2.61967	216
2.62333	205
2.62700	192
2.63067	181
2.63433	170
2.63800	158
2.64167	148
2.64533	137
2.64900	127
2.65267	116
2.65633	105
2.66000	97
2.66367	93
2.66733	90
2.67100	89
2.67467	89
2.67833	89
2.68200	89
2.68567	91
2.68933	93
2.69300	99
2.69667	104
2.70033	107
2.70400	112
2.70767	114
2.71133	117
2.71500	121
2.71867	126
2.72233	130
2.72600	135
2.72967	139
2.73333	143
2.73700	148
2.74067	153
2.74433	155
2.74800	158
2.75167	161
2.75533	163
2.75900	163
2.76267	162
2.76633	164
2.77000	167
2.77367	169
2.77733	168
2.78100	171
2.78467	176
2.78833	180
2.79200	182
2.79567	184
2.79933	188
2.80300	192
2.80667	197
2.81033	203
2.81400	208
2.81767	215
2.82133	225
2.82500	241
2.82867	273
2.83233	333
2.83600	438
2.83967	609
2.84333	872
2.84700	1237
2.85067	1694
2.85433	2228
2.85800	2805
2.86167	3380
2.86533	3908
2.86900	4342
2.87267	4649
2.87633	4818
2.88000	4851
2.88367	4759
2.88733	4564
2.89100	4294
2.89467	3980
2.89833	3642
2.90200	3300
2.90567	2970
2.90933	2659
2.91300	2368
2.91667	2101
2.92033	1860
2.92400	1645
2.92767	1456
2.93133	1288
2.93500	1141
2.93867	1012
2.94233	903
2.94600	808
2.94967	726
2.95333	653
2.95700	589
2.96067	534
2.96433	487
2.96800	448
2.97167	415
2.97533	387
2.97900	364
2.98267	343
2.98633	324
2.99000	305
2.99367	290
2.99733	278
3.00100	268
3.00467	259
3.00833	252
3.01200	244
3.01567	236
3.01933	228
3.02300	223
3.02667	221
3.03033	220
3.03400	218
3.03767	215
3.04133	213
3.04500	210
3.04867	211
3.05233	212
3.05600	211
3.05967	211
3.06333	212
3.06700	212
3.07067	211
3.07433	210
3.07800	209
3.08167	210
3.08533	211
3.08900	214
3.09267	216
3.09633	217
3.10000	216
3.10367	218
3.10733	219
3.11100	220
3.11467	222
3.11833	222
3.12200	220
3.12567	221
3.12933	221
3.13300	223
3.13667	220
3.14033	218
3.14400	219
3.14767	219
3.15133	217
3.15500	216
3.15867	222
3.16233	239
3.16600	264
3.16967	294
3.17333	329
3.17700	368
3.18067	409
3.18433	451
3.18800	497
3.19167	543
3.19533	588
3.19900	629
3.20267	667
3.20633	704
3.21000	738
3.21367	768
3.21733	791
3.22100	809
3.22467	824
3.22833	837
3.23200	848
3.23567	859
3.23933	869
3.24300	877
3.24667	887
3.25033	897
3.25400	904
3.25767	912
3.26133	923
3.26500	931
3.26867	935
3.27233	939
3.27600	946
3.27967	954
3.28333	960
3.28700	965
3.29067	970
3.29433	977
3.29800	984
3.30167	990
3.30533	996
3.30900	1000
3.31267	1003
3.31633	1007
3.32000	1010
3.32367	1014
3.32733	1017
3.33100	1018
3.33467	1017
3.33833	1016
3.34200	1016
3.34567	1019
3.34933	1018
3.35300	1016
3.35667	1015
3.36033	1013
3.36400	1014
3.36767	1014
3.37133	1013
3.37500	1011
3.37867	1009
3.38233	1004
3.38600	1000
3.38967	998
3.39333	996
3.39700	994
3.40067	990
3.40433	985
3.40800	978
3.41167	976
3.41533	975
3.41900	972
3.42267	969
3.42633	963
3.43000	959
3.43367	956
3.43733	953
3.44100	951
3.44467	948
3.44833	946
3.45200	945
3.45567	944
3.45933	942
3.46300	940
3.46667	937
3.47033	933
3.47400	932
3.47767	931
3.48133	929
3.48500	925
3.48867	921
3.49233	917
3.49600	916
3.49967	913
3.50333	911
3.50700	908
3.51067	905
3.51433	902
3.51800	901
3.52167	900
3.52533	900
3.52900	899
3.53267	898
3.53633	896
3.54000	896
3.54367	895
3.54733	894
3.55100	892
3.55467	891
3.55833	889
3.56200	887
3.56567	885
3.56933	882
3.57300	880
3.57667	878
3.58033	875
3.58400	872
3.58767	871
3.59133	870
3.59500	869
3.59867	869
3.60233	866
3.60600	862
3.60967	861
3.61333	862
3.61700	860
3.62067	855
3.62433	850
3.62800	846
3.63167	842
3.63533	839
3.63900	838
3.64267	838
3.64633	836
3.65000	832
3.65367	828
3.65733	826
3.66100	822
3.66467	819
3.66833	816
3.67200	814
3.67567	813
3.67933	810
3.68300	808
3.68667	805
3.69033	800
3.69400	796
3.69767	793
3.70133	791
3.70500	790
3.70867	786
3.71233	782
3.71600	779
3.71967	774
3.72333	767
3.72700	763
3.73067	760
3.73433	759
3.73800	758
3.74167	756
3.74533	754
3.74900	750
3.75267	747
3.75633	747
3.76000	745
3.76367	743
3.76733	741
3.77100	741
3.77467	740
3.77833	741
3.78200	739
3.78567	738
3.78933	734
3.79300	732
3.79667	727
3.80033	724
3.80400	722
3.80767	718
3.81133	715
3.81500	712
3.81867	708
3.82233	706
3.82600	706
3.82967	704
3.83333	703
3.83700	702
3.84067	701
3.84433	699
3.84800	698
3.85167	695
3.85533	693
3.85900	690
3.86267	685
3.86633	683
3.87000	683
3.87367	681
3.87733	678
3.88100	675
3.88467	674
3.88833	673
3.89200	674
3.89567	670
3.89933	666
3.90300	663
3.90667	660
3.91033	657
3.91400	654
3.91767	651
3.92133	650
3.92500	648
3.92867	645
3.93233	644
3.93600	645
3.93967	643
3.94333	640
3.94700	639
3.95067	637
3.95433	635
3.95800	634
3.96167	633
3.96533	634
3.96900	633
3.97267	633
3.97633	633
3.98000	632
3.98367	630
3.98733	629
3.99100	627
3.99467	624
3.99833	618

[Status Trace (Column Oven Temperature)]
Interval(msec)	1000
# of Points	240
Start Time(min)	0.016
End Time(min)	4.000
Intensity Units	
Intensity Multiplier	1
R.Time (min)	Intensity
0.01637	35.08
0.03303	35.06
0.04970	35.07
0.06637	35.07
0.08303	35.08
0.09970	35.08
0.11637	35.07
0.13303	35.06
0.14970	35.05
0.16637	35.05
0.18303	35.05
0.19970	35.05
0.21637	35.05
0.23303	35.04
0.24970	35.04
0.26637	35.05
0.28303	35.05
0.29970	35.05
0.31637	35.03
0.33303	35.04
0.34970	35.03
0.36637	35.02
0.38303	35.03
0.39970	35.03
0.41637	35.02
0.43303	35.02
0.44970	35.02
0.46637	35.02
0.48303	35.02
0.49970	35.02
0.51637	35.02
0.53303	35.02
0.54970	35.02
0.56637	35.01
0.58303	35.01
0.59970	35.00
0.61637	35.00
0.63303	34.99
0.64970	34.99
0.66637	35.01
0.68303	35.00
0.69970	35.00
0.71637	34.99
0.73303	34.98
0.74970	34.99
0.76637	35.00
0.78303	34.99
0.79970	34.99
0.81637	34.99
0.83303	34.99
0.84970	34.99
0.86637	34.99
0.88303	34.99
0.89970	34.99
0.91637	34.99
0.93303	35.00
0.94970	35.01
0.96637	35.01
0.98303	35.01
0.99970	35.01
1.01637	35.01
1.03303	35.01
1.04970	35.00
1.06637	34.99
1.08303	35.00
1.09970	35.02
1.11637	35.01
1.13303	35.00
1.14970	35.00
1.16637	35.01
1.18303	35.00
1.19970	35.01
1.21637	35.02
1.23303	35.03
1.24970	35.03
1.26637	35.03
1.28303	35.03
1.29970	35.03
1.31637	35.02
1.33303	35.01
1.34970	35.01
1.36637	34.99
1.38303	34.98
1.39970	34.98
1.41637	34.98
1.43303	34.97
1.44970	34.98
1.46637	34.98
1.48303	34.98
1.49970	34.99
1.51637	34.99
1.53303	35.00
1.54970	35.01
1.56637	35.02
1.58303	35.02
1.59970	35.05
1.61637	35.14
1.63303	35.28
1.64970	35.49
1.66637	35.78
1.68303	36.14
1.69970	36.50
1.71637	36.84
1.73303	37.18
1.74970	37.52
1.76637	37.83
1.78303	38.16
1.79970	38.48
1.81637	38.82
1.83303	39.15
1.84970	39.48
1.86637	39.81
1.88303	40.14
1.89970	40.46
1.91637	40.79
1.93303	41.12
1.94970	41.46
1.96637	41.78
1.98303	42.11
1.99970	42.45
2.01637	42.77
2.03303	43.11
2.04970	43.42
2.06637	43.75
2.08303	44.08
2.09970	44.40
2.11637	44.72
2.13303	45.06
2.14970	45.38
2.16637	45.70
2.18303	46.06
2.19970	46.38
2.21637	46.70
2.23303	47.02
2.24970	47.36
2.26637	47.70
2.28303	48.02
2.29970	48.34
2.31637	48.69
2.33303	49.00
2.34970	49.29
2.36637	49.55
2.38303	49.70
2.39970	49.71
2.41637	49.72
2.43303	49.73
2.44970	49.73
2.46637	49.74
2.48303	49.76
2.49970	49.77
2.51637	49.77
2.53303	49.78
2.54970	49.79
2.56637	49.82
2.58303	49.83
2.59970	49.83
2.61637	49.84
2.63303	49.84
2.64970	49.85
2.66637	49.85
2.68303	49.84
2.69970	49.85
2.71637	49.86
2.73303	49.87
2.74970	49.86
2.76637	49.86
2.78303	49.85
2.79970	49.86
2.81637	49.85
2.83303	49.88
2.84970	49.91
2.86637	49.93
2.88303	49.94
2.89970	49.96
2.91637	49.96
2.93303	49.97
2.94970	49.97
2.96637	49.97
2.98303	49.97
2.99970	49.97
3.01637	49.97
3.03303	49.97
3.04970	49.97
3.06637	49.97
3.08303	49.99
3.09970	50.01
3.11637	50.02
3.13303	50.03
3.14970	50.03
3.16637	50.03
3.18303	50.04
3.19970	50.05
3.21637	50.06
3.23303	50.08
3.24970	50.08
3.26637	50.08
3.28303	50.08
3.29970	50.08
3.31637	50.08
3.33303	50.08
3.34970	50.08
3.36637	50.08
3.38303	50.08
3.39970	50.08
3.41637	50.09
3.43303	50.10
3.44970	50.12
3.46637	50.12
3.48303	50.11
3.49970	50.10
3.51637	50.09
3.53303	50.06
3.54970	50.05
3.56637	50.04
3.58303	50.04
3.59970	50.04
3.61637	50.03
3.63303	50.03
3.64970	50.04
3.66637	50.03
3.68303	50.03
3.69970	50.04
3.71637	50.03
3.73303	50.03
3.74970	50.03
3.76637	50.02
3.78303	50.02
3.79970	50.02
3.81637	50.03
3.83303	50.03
3.84970	50.04
3.86637	50.05
3.88303	50.05
3.89970	50.05
3.91637	50.05
3.93303	50.05
3.94970	50.06
3.96637	50.07
3.98303	50.07
3.99970	50.07

[Status Trace (Injection Unit Temperature)]
Interval(msec)	1000
# of Points	240
Start Time(min)	0.016
End Time(min)	4.000
Intensity Units	
Intensity Multiplier	1
R.Time (min)	Intensity
0.01637	99.97
0.03303	99.97
0.04970	99.98
0.06637	99.97
0.08303	99.97
0.09970	99.98
0.11637	99.98
0.13303	99.98
0.14970	99.98
0.16637	99.98
0.18303	99.98
0.19970	99.98
0.21637	99.98
0.23303	99.98
0.24970	99.98
0.26637	99.98
0.28303	99.98
0.29970	99.98
0.31637	99.98
0.33303	99.98
0.34970	99.98
0.36637	99.98
0.38303	99.98
0.39970	99.98
0.41637	99.98
0.43303	99.98
0.44970	99.98
0.46637	99.98
0.48303	99.98
0.49970	99.98
0.51637	99.98
0.53303	99.98
0.54970	99.98
0.56637	99.98
0.58303	99.98
0.59970	99.98
0.61637	99.98
0.63303	99.98
0.64970	99.98
0.66637	99.98
0.68303	99.98
0.69970	99.98
0.71637	99.98
0.73303	99.98
0.74970	99.98
0.76637	99.98
0.78303	99.98
0.79970	99.98
0.81637	99.97
0.83303	99.98
0.84970	99.98
0.86637	99.98
0.88303	99.98
0.89970	99.98
0.91637	99.98
0.93303	99.98
0.94970	99.98
0.96637	99.99
0.98303	99.98
0.99970	99.99
1.01637	99.98
1.03303	99.98
1.04970	99.99
1.06637	99.99
1.08303	99.98
1.09970	99.98
1.11637	99.98
1.13303	99.98
1.14970	99.98
1.16637	99.99
1.18303	99.99
1.19970	99.98
1.21637	99.99
1.23303	99.98
1.24970	99.99
1.26637	99.99
1.28303	99.99
1.29970	99.99
1.31637	99.98
1.33303	99.98
1.34970	99.99
1.36637	99.98
1.38303	99.98
1.39970	99.98
1.41637	99.98
1.43303	99.98
1.44970	99.98
1.46637	99.98
1.48303	99.98
1.49970	99.98
1.51637	99.98
1.53303	99.98
1.54970	99.98
1.56637	99.98
1.58303	99.98
1.59970	99.98
1.61637	99.98
1.63303	99.98
1.64970	99.98
1.66637	99.98
1.68303	99.98
1.69970	99.98
1.71637	99.98
1.73303	99.98
1.74970	99.97
1.76637	99.98
1.78303	99.98
1.79970	99.98
1.81637	99.98
1.83303	99.97
1.84970	99.97
1.86637	99.97
1.88303	99.97
1.89970	99.97
1.91637	99.97
1.93303	99.97
1.94970	99.97
1.96637	99.97
1.98303	99.97
1.99970	99.97
2.01637	99.97
2.03303	99.97
2.04970	99.97
2.06637	99.96
2.08303	99.96
2.09970	99.96
2.11637	99.96
2.13303	99.96
2.14970	99.96
2.16637	99.96
2.18303	99.96
2.19970	99.96
2.21637	99.96
2.23303	99.96
2.24970	99.96
2.26637	99.96
2.28303	99.96
2.29970	99.96
2.31637	99.96
2.33303	99.96
2.34970	99.96
2.36637	99.96
2.38303	99.96
2.39970	99.96
2.41637	99.96
2.43303	99.97
2.44970	99.97
2.46637	99.97
2.48303	99.97
2.49970	99.97
2.51637	99.97
2.53303	99.97
2.54970	99.98
2.56637	99.98
2.58303	99.98
2.59970	99.98
2.61637	99.98
2.63303	99.98
2.64970	99.98
2.66637	99.98
2.68303	99.98
2.69970	99.99
2.71637	99.99
2.73303	99.99
2.74970	99.99
2.76637	100.00
2.78303	100.00
2.79970	99.99
2.81637	100.00
2.83303	100.00
2.84970	100.00
2.86637	100.00
2.88303	100.00
2.89970	100.00
2.91637	100.01
2.93303	100.00
2.94970	100.01
2.96637	100.00
2.98303	100.01
2.99970	100.01
3.01637	100.01
3.03303	100.01
3.04970	100.01
3.06637	100.01
3.08303	100.01
3.09970	100.01
3.11637	100.01
3.13303	100.02
3.14970	100.02
3.16637	100.02
3.18303	100.02
3.19970	100.02
3.21637	100.02
3.23303	100.02
3.24970	100.02
3.26637	100.02
3.28303	100.02
3.29970	100.03
3.31637	100.03
3.33303	100.03
3.34970	100.03
3.36637	100.03
3.38303	100.03
3.39970	100.03
3.41637	100.03
3.43303	100.03
3.44970	100.04
3.46637	100.03
3.48303	100.04
3.49970	100.04
3.51637	100.03
3.53303	100.04
3.54970	100.04
3.56637	100.04
3.58303	100.04
3.59970	100.04
3.61637	100.04
3.63303	100.04
3.64970	100.04
3.66637	100.05
3.68303	100.04
3.69970	100.05
3.71637	100.04
3.73303	100.05
3.74970	100.04
3.76637	100.04
3.78303	100.05
3.79970	100.05
3.81637	100.04
3.83303	100.05
3.84970	100.05
3.86637	100.05
3.88303	100.05
3.89970	100.05
3.91637	100.05
3.93303	100.04
3.94970	100.05
3.96637	100.05
3.98303	100.05
3.99970	100.05

[Status Trace (Carrier Gas Pressure)]
Interval(msec)	1000
# of Points	240
Start Time(min)	0.016
End Time(min)	4.000
Intensity Units	
Intensity Multiplier	1
R.Time (min)	Intensity
0.01637	56.77
0.03303	55.86
0.04970	58.25
0.06637	59.89
0.08303	58.48
0.09970	57.98
0.11637	58.00
0.13303	58.01
0.14970	58.01
0.16637	58.00
0.18303	58.00
0.19970	58.00
0.21637	58.00
0.23303	58.00
0.24970	58.00
0.26637	58.00
0.28303	58.00
0.29970	58.00
0.31637	58.00
0.33303	58.00
0.34970	58.00
0.36637	58.00
0.38303	58.00
0.39970	58.00
0.41637	58.00
0.43303	58.00
0.44970	58.00
0.46637	58.00
0.48303	58.00
0.49970	58.00
0.51637	58.00
0.53303	58.00
0.54970	58.00
0.56637	58.00
0.58303	58.00
0.59970	58.00
0.61637	58.00
0.63303	58.00
0.64970	58.00
0.66637	58.00
0.68303	58.00
0.69970	58.00
0.71637	58.00
0.73303	58.00
0.74970	58.00
0.76637	58.00
0.78303	58.00
0.79970	58.00
0.81637	58.00
0.83303	58.00
0.84970	58.00
0.86637	58.00
0.88303	58.00
0.89970	58.00
0.91637	58.00
0.93303	58.00
0.94970	58.00
0.96637	58.00
0.98303	58.00
0.99970	58.00
1.01637	58.00
1.03303	58.00
1.04970	58.00
1.06637	58.00
1.08303	58.00
1.09970	58.00
1.11637	58.00
1.13303	58.00
1.14970	58.00
1.16637	58.00
1.18303	58.00
1.19970	58.00
1.21637	58.00
1.23303	58.00
1.24970	58.00
1.26637	58.00
1.28303	58.00
1.29970	58.00
1.31637	58.00
1.33303	58.00
1.34970	58.00
1.36637	58.00
1.38303	58.00
1.39970	58.00
1.41637	58.00
1.43303	58.00
1.44970	58.00
1.46637	58.00
1.48303	58.00
1.49970	58.00
1.51637	58.00
1.53303	58.00
1.54970	58.00
1.56637	58.00
1.58303	58.00
1.59970	58.00
1.61637	58.00
1.63303	58.00
1.64970	58.00
1.66637	58.00
1.68303	58.01
1.69970	58.00
1.71637	58.00
1.73303	58.00
1.74970	58.00
1.76637	58.00
1.78303	58.00
1.79970	58.00
1.81637	58.00
1.83303	58.00
1.84970	58.00
1.86637	58.00
1.88303	58.00
1.89970	58.00
1.91637	58.00
1.93303	58.00
1.94970	58.00
1.96637	58.00
1.98303	58.00
1.99970	58.00
2.01637	58.00
2.03303	58.00
2.04970	58.00
2.06637	58.00
2.08303	58.00
2.09970	58.00
2.11637	58.00
2.13303	58.00
2.14970	58.00
2.16637	58.00
2.18303	58.00
2.19970	58.00
2.21637	58.00
2.23303	58.00
2.24970	58.00
2.26637	58.00
2.28303	58.00
2.29970	58.00
2.31637	58.00
2.33303	58.00
2.34970	58.00
2.36637	58.00
2.38303	57.99
2.39970	57.99
2.41637	58.00
2.43303	58.00
2.44970	58.00
2.46637	58.00
2.48303	58.00
2.49970	58.00
2.51637	57.98
2.53303	57.99
2.54970	58.00
2.56637	58.00
2.58303	58.00
2.59970	58.00
2.61637	58.00
2.63303	58.00
2.64970	58.00
2.66637	58.00
2.68303	58.00
2.69970	58.00
2.71637	58.00
2.73303	58.00
2.74970	58.00
2.76637	58.00
2.78303	58.00
2.79970	58.00
2.81637	58.00
2.83303	58.00
2.84970	58.00
2.86637	58.00
2.88303	58.00
2.89970	58.00
2.91637	58.00
2.93303	58.00
2.94970	58.00
2.96637	58.00
2.98303	58.00
2.99970	58.00
3.01637	58.00
3.03303	58.00
3.04970	58.00
3.06637	58.00
3.08303	58.00
3.09970	58.00
3.11637	58.00
3.13303	58.00
3.14970	58.00
3.16637	58.00
3.18303	58.00
3.19970	58.00
3.21637	58.00
3.23303	58.00
3.24970	58.00
3.26637	58.00
3.28303	58.00
3.29970	58.00
3.31637	58.00
3.33303	58.00
3.34970	58.00
3.36637	58.00
3.38303	58.00
3.39970	58.00
3.41637	58.00
3.43303	58.00
3.44970	58.00
3.46637	58.00
3.48303	58.00
3.49970	58.00
3.51637	58.00
3.53303	58.00
3.54970	58.00
3.56637	58.00
3.58303	58.00
3.59970	58.00
3.61637	58.00
3.63303	58.00
3.64970	58.00
3.66637	58.00
3.68303	58.00
3.69970	58.00
3.71637	58.00
3.73303	58.00
3.74970	58.00
3.76637	58.00
3.78303	58.00
3.79970	58.00
3.81637	58.00
3.83303	58.00
3.84970	58.00
3.86637	58.00
3.88303	58.00
3.89970	58.00
3.91637	58.00
3.93303	58.00
3.94970	58.00
3.96637	58.00
3.98303	58.00
3.99970	58.00

[Status Trace (Carrier Gas Flow)]
Interval(msec)	1000
# of Points	240
Start Time(min)	0.016
End Time(min)	4.000
Intensity Units	
Intensity Multiplier	1
R.Time (min)	Intensity
0.01637	33.65
0.03303	34.54
0.04970	34.54
0.06637	34.50
0.08303	34.51
0.09970	34.52
0.11637	34.52
0.13303	34.52
0.14970	34.51
0.16637	34.52
0.18303	34.52
0.19970	34.52
0.21637	34.52
0.23303	34.52
0.24970	34.52
0.26637	34.52
0.28303	34.51
0.29970	34.52
0.31637	34.52
0.33303	34.52
0.34970	34.52
0.36637	34.52
0.38303	34.52
0.39970	34.52
0.41637	34.52
0.43303	34.52
0.44970	34.52
0.46637	34.52
0.48303	34.52
0.49970	34.52
0.51637	34.52
0.53303	34.52
0.54970	34.52
0.56637	34.52
0.58303	34.52
0.59970	34.52
0.61637	34.53
0.63303	34.52
0.64970	34.52
0.66637	34.52
0.68303	34.52
0.69970	34.52
0.71637	34.52
0.73303	34.52
0.74970	34.52
0.76637	34.52
0.78303	34.52
0.79970	34.52
0.81637	34.52
0.83303	34.52
0.84970	34.52
0.86637	34.52
0.88303	34.52
0.89970	34.52
0.91637	34.52
0.93303	34.52
0.94970	34.52
0.96637	34.52
0.98303	34.52
0.99970	34.52
1.01637	34.52
1.03303	34.52
1.04970	34.52
1.06637	34.52
1.08303	34.52
1.09970	34.51
1.11637	34.52
1.13303	34.52
1.14970	34.52
1.16637	34.51
1.18303	34.52
1.19970	34.52
1.21637	34.52
1.23303	34.52
1.24970	34.52
1.26637	34.52
1.28303	34.52
1.29970	34.51
1.31637	34.52
1.33303	34.52
1.34970	34.52
1.36637	34.52
1.38303	34.52
1.39970	34.52
1.41637	34.52
1.43303	34.52
1.44970	34.52
1.46637	34.52
1.48303	34.52
1.49970	34.52
1.51637	34.52
1.53303	34.52
1.54970	34.52
1.56637	34.52
1.58303	34.52
1.59970	34.52
1.61637	34.52
1.63303	34.52
1.64970	34.52
1.66637	34.52
1.68303	34.51
1.69970	34.51
1.71637	34.52
1.73303	34.52
1.74970	34.52
1.76637	34.52
1.78303	34.52
1.79970	34.51
1.81637	34.52
1.83303	34.52
1.84970	34.52
1.86637	34.52
1.88303	34.52
1.89970	34.52
1.91637	34.52
1.93303	34.52
1.94970	34.52
1.96637	34.52
1.98303	34.52
1.99970	34.51
2.01637	34.52
2.03303	34.51
2.04970	34.52
2.06637	34.52
2.08303	34.52
2.09970	34.52
2.11637	34.52
2.13303	34.52
2.14970	34.52
2.16637	34.52
2.18303	34.52
2.19970	34.52
2.21637	34.52
2.23303	34.51
2.24970	34.52
2.26637	34.52
2.28303	34.51
2.29970	34.52
2.31637	34.52
2.33303	34.52
2.34970	34.52
2.36637	34.52
2.38303	34.52
2.39970	34.52
2.41637	34.52
2.43303	34.52
2.44970	34.52
2.46637	34.51
2.48303	34.52
2.49970	34.52
2.51637	34.52
2.53303	34.52
2.54970	34.52
2.56637	34.52
2.58303	34.52
2.59970	34.52
2.61637	34.52
2.63303	34.52
2.64970	34.52
2.66637	34.51
2.68303	34.52
2.69970	34.52
2.71637	34.52
2.73303	34.52
2.74970	34.52
2.76637	34.52
2.78303	34.52
2.79970	34.51
2.81637	34.52
2.83303	34.52
2.84970	34.52
2.86637	34.52
2.88303	34.52
2.89970	34.52
2.91637	34.52
2.93303	34.52
2.94970	34.52
2.96637	34.52
2.98303	34.51
2.99970	34.52
3.01637	34.52
3.03303	34.52
3.04970	34.52
3.06637	34.52
3.08303	34.52
3.09970	34.52
3.11637	34.52
3.13303	34.52
3.14970	34.52
3.16637	34.52
3.18303	34.52
3.19970	34.52
3.21637	34.52
3.23303	34.52
3.24970	34.52
3.26637	34.52
3.28303	34.51
3.29970	34.52
3.31637	34.52
3.33303	34.52
3.34970	34.52
3.36637	34.52
3.38303	34.52
3.39970	34.52
3.41637	34.51
3.43303	34.52
3.44970	34.52
3.46637	34.52
3.48303	34.52
3.49970	34.52
3.51637	34.52
3.53303	34.52
3.54970	34.52
3.56637	34.52
3.58303	34.52
3.59970	34.52
3.61637	34.52
3.63303	34.52
3.64970	34.52
3.66637	34.52
3.68303	34.52
3.69970	34.52
3.71637	34.52
3.73303	34.52
3.74970	34.52
3.76637	34.52
3.78303	34.52
3.79970	34.52
3.81637	34.52
3.83303	34.52
3.84970	34.52
3.86637	34.52
3.88303	34.52
3.89970	34.52
3.91637	34.52
3.93303	34.52
3.94970	34.52
3.96637	34.52
3.98303	34.52
3.99970	34.52

[Status Trace (Column Flow)]
Interval(msec)	1000
# of Points	240
Start Time(min)	0.016
End Time(min)	4.000
Intensity Units	
Intensity Multiplier	1
R.Time (min)	Intensity
0.01637	5.38
0.03303	5.27
0.04970	5.55
0.06637	5.74
0.08303	5.58
0.09970	5.52
0.11637	5.52
0.13303	5.52
0.14970	5.52
0.16637	5.52
0.18303	5.52
0.19970	5.52
0.21637	5.52
0.23303	5.52
0.24970	5.52
0.26637	5.52
0.28303	5.52
0.29970	5.52
0.31637	5.52
0.33303	5.52
0.34970	5.52
0.36637	5.52
0.38303	5.52
0.39970	5.52
0.41637	5.52
0.43303	5.52
0.44970	5.52
0.46637	5.52
0.48303	5.52
0.49970	5.52
0.51637	5.52
0.53303	5.52
0.54970	5.52
0.56637	5.52
0.58303	5.52
0.59970	5.52
0.61637	5.52
0.63303	5.52
0.64970	5.52
0.66637	5.52
0.68303	5.52
0.69970	5.52
0.71637	5.52
0.73303	5.52
0.74970	5.52
0.76637	5.52
0.78303	5.52
0.79970	5.52
0.81637	5.52
0.83303	5.52
0.84970	5.52
0.86637	5.52
0.88303	5.52
0.89970	5.52
0.91637	5.52
0.93303	5.52
0.94970	5.52
0.96637	5.52
0.98303	5.52
0.99970	5.52
1.01637	5.52
1.03303	5.52
1.04970	5.52
1.06637	5.52
1.08303	5.52
1.09970	5.52
1.11637	5.52
1.13303	5.52
1.14970	5.52
1.16637	5.52
1.18303	5.52
1.19970	5.52
1.21637	5.52
1.23303	5.52
1.24970	5.52
1.26637	5.52
1.28303	5.52
1.29970	5.52
1.31637	5.52
1.33303	5.52
1.34970	5.52
1.36637	5.52
1.38303	5.52
1.39970	5.52
1.41637	5.52
1.43303	5.52
1.44970	5.52
1.46637	5.52
1.48303	5.52
1.49970	5.52
1.51637	5.52
1.53303	5.52
1.54970	5.52
1.56637	5.52
1.58303	5.52
1.59970	5.52
1.61637	5.52
1.63303	5.51
1.64970	5.51
1.66637	5.50
1.68303	5.49
1.69970	5.48
1.71637	5.46
1.73303	5.45
1.74970	5.44
1.76637	5.43
1.78303	5.42
1.79970	5.41
1.81637	5.40
1.83303	5.39
1.84970	5.39
1.86637	5.37
1.88303	5.36
1.89970	5.35
1.91637	5.34
1.93303	5.33
1.94970	5.32
1.96637	5.31
1.98303	5.31
1.99970	5.30
2.01637	5.29
2.03303	5.28
2.04970	5.27
2.06637	5.26
2.08303	5.25
2.09970	5.24
2.11637	5.23
2.13303	5.22
2.14970	5.21
2.16637	5.20
2.18303	5.19
2.19970	5.18
2.21637	5.17
2.23303	5.16
2.24970	5.15
2.26637	5.14
2.28303	5.13
2.29970	5.13
2.31637	5.12
2.33303	5.11
2.34970	5.10
2.36637	5.09
2.38303	5.09
2.39970	5.09
2.41637	5.09
2.43303	5.09
2.44970	5.09
2.46637	5.09
2.48303	5.09
2.49970	5.09
2.51637	5.08
2.53303	5.08
2.54970	5.09
2.56637	5.08
2.58303	5.08
2.59970	5.08
2.61637	5.08
2.63303	5.08
2.64970	5.08
2.66637	5.08
2.68303	5.08
2.69970	5.08
2.71637	5.08
2.73303	5.08
2.74970	5.08
2.76637	5.08
2.78303	5.08
2.79970	5.08
2.81637	5.08
2.83303	5.08
2.84970	5.08
2.86637	5.08
2.88303	5.08
2.89970	5.08
2.91637	5.08
2.93303	5.08
2.94970	5.08
2.96637	5.08
2.98303	5.08
2.99970	5.08
3.01637	5.08
3.03303	5.08
3.04970	5.08
3.06637	5.08
3.08303	5.08
3.09970	5.08
3.11637	5.08
3.13303	5.08
3.14970	5.08
3.16637	5.08
3.18303	5.08
3.19970	5.08
3.21637	5.08
3.23303	5.08
3.24970	5.08
3.26637	5.08
3.28303	5.08
3.29970	5.08
3.31637	5.08
3.33303	5.08
3.34970	5.08
3.36637	5.08
3.38303	5.08
3.39970	5.08
3.41637	5.08
3.43303	5.08
3.44970	5.08
3.46637	5.08
3.48303	5.08
3.49970	5.08
3.51637	5.08
3.53303	5.08
3.54970	5.08
3.56637	5.08
3.58303	5.08
3.59970	5.08
3.61637	5.08
3.63303	5.08
3.64970	5.08
3.66637	5.08
3.68303	5.08
3.69970	5.08
3.71637	5.08
3.73303	5.08
3.74970	5.08
3.76637	5.08
3.78303	5.08
3.79970	5.08
3.81637	5.08
3.83303	5.08
3.84970	5.08
3.86637	5.08
3.88303	5.08
3.89970	5.08
3.91637	5.08
3.93303	5.08
3.94970	5.08
3.96637	5.08
3.98303	5.08
3.99970	5.08

[Status Trace (Linear Velocity)]
Interval(msec)	1000
# of Points	240
Start Time(min)	0.016
End Time(min)	4.000
Intensity Units	
Intensity Multiplier	1
R.Time (min)	Intensity
0.01637	38.20
0.03303	37.61
0.04970	39.17
0.06637	40.25
0.08303	39.32
0.09970	39.00
0.11637	39.01
0.13303	39.02
0.14970	39.02
0.16637	39.02
0.18303	39.01
0.19970	39.01
0.21637	39.01
0.23303	39.01
0.24970	39.01
0.26637	39.01
0.28303	39.01
0.29970	39.01
0.31637	39.02
0.33303	39.01
0.34970	39.01
0.36637	39.01
0.38303	39.01
0.39970	39.01
0.41637	39.02
0.43303	39.02
0.44970	39.02
0.46637	39.02
0.48303	39.02
0.49970	39.01
0.51637	39.01
0.53303	39.01
0.54970	39.02
0.56637	39.02
0.58303	39.02
0.59970	39.02
0.61637	39.02
0.63303	39.02
0.64970	39.02
0.66637	39.02
0.68303	39.02
0.69970	39.02
0.71637	39.02
0.73303	39.02
0.74970	39.02
0.76637	39.02
0.78303	39.02
0.79970	39.02
0.81637	39.02
0.83303	39.02
0.84970	39.02
0.86637	39.02
0.88303	39.02
0.89970	39.02
0.91637	39.02
0.93303	39.02
0.94970	39.02
0.96637	39.02
0.98303	39.02
0.99970	39.02
1.01637	39.02
1.03303	39.02
1.04970	39.02
1.06637	39.02
1.08303	39.02
1.09970	39.02
1.11637	39.02
1.13303	39.02
1.14970	39.02
1.16637	39.02
1.18303	39.02
1.19970	39.02
1.21637	39.02
1.23303	39.01
1.24970	39.01
1.26637	39.01
1.28303	39.01
1.29970	39.01
1.31637	39.01
1.33303	39.02
1.34970	39.02
1.36637	39.02
1.38303	39.02
1.39970	39.02
1.41637	39.02
1.43303	39.02
1.44970	39.02
1.46637	39.02
1.48303	39.02
1.49970	39.02
1.51637	39.02
1.53303	39.02
1.54970	39.02
1.56637	39.02
1.58303	39.01
1.59970	39.01
1.61637	39.01
1.63303	38.99
1.64970	38.97
1.66637	38.95
1.68303	38.91
1.69970	38.87
1.71637	38.84
1.73303	38.81
1.74970	38.78
1.76637	38.75
1.78303	38.72
1.79970	38.69
1.81637	38.65
1.83303	38.62
1.84970	38.59
1.86637	38.56
1.88303	38.53
1.89970	38.50
1.91637	38.47
1.93303	38.44
1.94970	38.41
1.96637	38.38
1.98303	38.35
1.99970	38.31
2.01637	38.28
2.03303	38.25
2.04970	38.22
2.06637	38.20
2.08303	38.17
2.09970	38.14
2.11637	38.11
2.13303	38.08
2.14970	38.05
2.16637	38.02
2.18303	37.99
2.19970	37.96
2.21637	37.93
2.23303	37.90
2.24970	37.87
2.26637	37.84
2.28303	37.81
2.29970	37.78
2.31637	37.75
2.33303	37.72
2.34970	37.70
2.36637	37.67
2.38303	37.66
2.39970	37.65
2.41637	37.65
2.43303	37.66
2.44970	37.66
2.46637	37.65
2.48303	37.65
2.49970	37.65
2.51637	37.64
2.53303	37.64
2.54970	37.65
2.56637	37.65
2.58303	37.65
2.59970	37.65
2.61637	37.65
2.63303	37.65
2.64970	37.65
2.66637	37.65
2.68303	37.65
2.69970	37.65
2.71637	37.65
2.73303	37.64
2.74970	37.64
2.76637	37.65
2.78303	37.65
2.79970	37.65
2.81637	37.65
2.83303	37.64
2.84970	37.64
2.86637	37.64
2.88303	37.64
2.89970	37.64
2.91637	37.64
2.93303	37.64
2.94970	37.64
2.96637	37.64
2.98303	37.64
2.99970	37.64
3.01637	37.64
3.03303	37.63
3.04970	37.64
3.06637	37.64
3.08303	37.63
3.09970	37.63
3.11637	37.63
3.13303	37.63
3.14970	37.63
3.16637	37.63
3.18303	37.63
3.19970	37.63
3.21637	37.63
3.23303	37.63
3.24970	37.63
3.26637	37.63
3.28303	37.63
3.29970	37.63
3.31637	37.63
3.33303	37.63
3.34970	37.63
3.36637	37.63
3.38303	37.63
3.39970	37.63
3.41637	37.63
3.43303	37.62
3.44970	37.62
3.46637	37.62
3.48303	37.62
3.49970	37.62
3.51637	37.62
3.53303	37.63
3.54970	37.63
3.56637	37.63
3.58303	37.63
3.59970	37.63
3.61637	37.63
3.63303	37.63
3.64970	37.63
3.66637	37.63
3.68303	37.63
3.69970	37.63
3.71637	37.63
3.73303	37.63
3.74970	37.63
3.76637	37.63
3.78303	37.63
3.79970	37.63
3.81637	37.63
3.83303	37.63
3.84970	37.63
3.86637	37.63
3.88303	37.63
3.89970	37.63
3.91637	37.63
3.93303	37.63
3.94970	37.63
3.96637	37.63
3.98303	37.63
3.99970	37.63

